#lamb flux
1000.0 5.964522269113318
1010.01001001001 6.069163667451729
1020.0200200200201 6.163788999824384
1030.03003003003 6.248803337655402
1040.0400400400401 6.32463850089683
1050.05005005005 6.3917445276096565
1060.06006006006 6.4505822908604085
1070.07007007007 6.501617186882259
1080.08008008008 6.545313808697119
1090.0900900900901 6.582131514578366
1100.1001001001 6.612520799701495
1110.11011011011 6.636920381112239
1120.1201201201202 6.655754909935561
1130.13013013013 6.66943322990654
1140.1401401401401 6.678347107308011
1150.1501501501502 6.682870363851167
1160.16016016016 6.683358350628364
1170.1701701701702 6.680147707778939
1180.1801801801803 6.673556360778394
1190.1901901901902 6.663883710180851
1200.2002002002002 6.651410977146853
1210.2102102102103 6.6364016721359995
1220.2202202202202 6.619102158723672
1230.2302302302303 6.599742288616555
1240.2402402402402 6.578536087609109
1250.2502502502502 6.555439846325875
1260.2602602602603 6.5299231866483884
1270.2702702702702 6.500889552534221
1280.2802802802803 6.468587720799549
1290.2902902902902 6.433256088751193
1300.3003003003003 6.395122597571661
1310.3103103103103 6.354404735144878
1320.3203203203202 6.311309606571084
1330.3303303303303 6.266034061810395
1340.3403403403404 6.218764871008389
1350.3503503503503 6.169678939092418
1360.3603603603603 6.118943552183125
1370.3703703703704 6.066716649242606
1380.3803803803803 6.013147113181606
1390.3903903903904 5.958375076375659
1400.4004004004005 5.902532236198249
1410.4104104104103 5.845742176771765
1420.4204204204204 5.788120693668792
1430.4304304304305 5.729776118771338
1440.4404404404404 5.670809642918678
1450.4504504504505 5.611315634349518
1460.4604604604606 5.551381951275967
1470.4704704704704 5.49109024721837
1480.4804804804805 5.430516267986705
1490.4904904904906 5.3697301394177375
1500.5005005005005 5.308796645172535
1510.5105105105106 5.247775494068143
1520.5205205205207 5.186721576563963
1530.5305305305305 5.125685210149651
1540.5405405405404 5.064712373490443
1550.5505505505505 5.003844929279401
1560.5605605605606 4.943120835826666
1570.5705705705705 4.882574347485677
1580.5805805805805 4.822236204076849
1590.5905905905906 4.762133809523023
1600.6006006006005 4.7022913999594165
1610.6106106106106 4.642730201626126
1620.6206206206207 4.583468578894878
1630.6306306306305 4.5245221728264085
1640.6406406406406 4.465904030701781
1650.6506506506507 4.407624727023489
1660.6606606606606 4.349692476541712
1670.6706706706707 4.292113239931656
1680.6806806806808 4.234890822831588
1690.6906906906906 4.178026969052504
1700.7007007007007 4.121529327246837
1710.7107107107108 4.0654269385877635
1720.7207207207207 4.009711386575739
1730.7307307307308 3.9543688919262774
1740.7407407407409 3.8993848282310584
1750.7507507507507 3.844743748606593
1760.7607607607606 3.790429421397135
1770.770770770771 3.7364248775945548
1780.7807807807808 3.682712473160039
1790.7907907907907 3.629273970035018
1800.8008008008007 3.5760906403155044
1810.8108108108108 3.523143398835159
1820.8208208208207 3.4704129702515485
1830.8308308308308 3.4178800976417225
1840.8408408408409 3.365525800558002
1850.8508508508507 3.3133316914245476
1860.8608608608608 3.261280359996009
1870.870870870871 3.2093558362437578
1880.8808808808808 3.1575441423326915
1890.890890890891 3.1058339441008918
1900.900900900901 3.0542173113943196
1910.9109109109108 3.0026905944138957
1920.920920920921 2.9512554195173673
1930.930930930931 2.8999198022503805
1940.940940940941 2.8486993673158865
1950.950950950951 2.79761865432936
1960.960960960961 2.7467124742891103
1970.970970970971 2.6960272647222996
1980.980980980981 2.645622371884421
1990.9909909909911 2.5955711672430604
2001.001001001001 2.545961884605098
2011.0110110110109 2.4968980463928663
2021.0210210210212 2.4484983363694806
2031.031031031031 2.400895775844637
2041.0410410410411 2.3542360754932674
2051.051051051051 2.308675069144545
2061.061061061061 2.26437519124296
2071.071071071071 2.2215010352248594
2081.081081081081 2.1802141210084898
2091.091091091091 2.1406670971617787
2101.101101101101 2.102997694442836
2111.1111111111113 2.0673228176838068
2121.121121121121 2.033733198445625
2131.131131131131 2.002289021284791
2141.141141141141 1.973016878112085
2151.151151151151 1.945908302331498
2161.161161161161 1.9209199994649175
2171.1711711711714 1.8979757418708028
2181.1811811811813 1.8769697523997255
2191.191191191191 1.85777128423039
2201.201201201201 1.8402300254559698
2211.2112112112113 1.8241819238081143
2221.221221221221 1.8094550381952283
2231.2312312312315 1.7958750720904255
2241.2412412412414 1.7832703177212181
2251.2512512512512 1.7714758265122055
2261.261261261261 1.7603367082450012
2271.271271271271 1.7497105394307633
2281.2812812812813 1.7394689243180852
2291.2912912912916 1.7294982970482913
2301.3013013013015 1.7197000808262184
2311.3113113113113 1.7099903317038931
2321.321321321321 1.700298993901883
2331.331331331331 1.6905688840993527
2341.3413413413414 1.6807545071907377
2351.3513513513512 1.6708207884822126
2361.3613613613616 1.6607417893566299
2371.3713713713714 1.650499456563437
2381.3813813813813 1.6400824403861114
2391.391391391391 1.629485004426571
2401.4014014014015 1.6187060397042146
2411.4114114114113 1.6077481880532332
2421.4214214214217 1.5966170741442016
2431.4314314314315 1.5853206415270045
2441.4414414414414 1.573868585556585
2451.4514514514512 1.56227187460844
2461.4614614614616 1.5505423503431688
2471.4714714714714 1.5386923977100964
2481.4814814814818 1.5267346757048286
2491.4914914914916 1.5146819004716197
2501.5015015015015 1.5025466730611623
2511.5115115115113 1.490341344939505
2521.521521521521 1.4780779151397199
2531.5315315315315 1.4657679537178858
2541.541541541542 1.453422546896321
2551.5515515515517 1.4410522599366744
2561.5615615615616 1.4286671143779648
2571.5715715715714 1.4162765767990178
2581.5815815815813 1.4038895567232603
2591.5915915915916 1.3915144116809606
2601.6016016016015 1.3791589577849488
2611.611611611612 1.366830484466521
2621.6216216216217 1.3545357722644562
2631.6316316316315 1.3422811127673802
2641.6416416416414 1.3300723299834756
2651.6516516516517 1.3179148025563203
2661.6616616616616 1.3058134863658413
2671.671671671672 1.2937729371526332
2681.6816816816818 1.281797332885539
2691.6916916916916 1.2698904956591717
2701.7017017017015 1.2580559129624984
2711.711711711712 1.2462967582036752
2721.7217217217217 1.2346159104118146
2731.731731731732 1.2230159730647567
2741.741741741742 1.2114992920144854
2751.7517517517517 1.2000679724995025
2761.7617617617616 1.1887238952473294
2771.7717717717715 1.1774687316807941
2781.781781781782 1.1663039582497778
2791.791791791792 1.155230869915922
2801.801801801802 1.144250592821912
2811.811811811812 1.1333640961797733
2821.8218218218217 1.122572203414291
2831.8318318318316 1.111875602598509
2841.841841841842 1.10127485621847
2851.851851851852 1.0907704103039948
2861.861861861862 1.0803626029615976
2871.871871871872 1.0700516723446218
2881.881881881882 1.0598377640944585
2891.8918918918916 1.0497209382853514
2901.901901901902 1.03970117590382
2911.911911911912 1.029778384892253
2921.921921921922 1.0199524057846656
2931.931931931932 1.0102230169611064
2941.941941941942 1.0005899395456908
2951.9519519519517 0.991052841971769
2961.961961961962 0.9816113442363339
2971.971971971972 0.9722650218643757
2981.9819819819822 0.9630134096026288
2991.991991991992 0.9538560048608713
3002.002002002002 0.9447922709177893
3012.012012012012 0.9358216399072817
3022.0220220220217 0.9269435156000432
3032.032032032032 0.9199053752720311
3042.0420420420423 0.910982743343932
3052.052052052052 0.902092425562185
3062.062062062062 0.8932511241281351
3072.072072072072 0.8844729341346224
3082.0820820820823 0.8757696360041057
3092.092092092092 0.8671509615606271
3102.102102102102 0.8586248353239262
3112.1121121121123 0.8501975926805772
3122.122122122122 0.8418741766041483
3132.132132132132 0.8336583145765061
3142.1421421421423 0.8255526773154339
3152.152152152152 0.8175590208476775
3162.162162162162 0.8096783133877107
3172.1721721721724 0.8019108483958224
3182.1821821821823 0.7942563450983796
3192.192192192192 0.7867140376612108
3202.202202202202 0.7792827541161393
3212.2122122122123 0.7719609860522992
3222.222222222222 0.7647469499991312
3232.232232232232 0.7576386413475593
3242.2422422422424 0.750633881580308
3252.252252252252 0.743730359511738
3262.262262262262 0.7369256671721707
3272.2722722722724 0.7302173309112311
3282.2822822822823 0.7236028382392323
3292.292292292292 0.7170796608747609
3302.3023023023025 0.7106452744202139
3312.3123123123123 0.704297175044768
3322.322322322322 0.6980328935158873
3332.3323323323325 0.6918500068856511
3342.3423423423424 0.685746148106727
3352.352352352352 0.6797190138243066
3362.3623623623625 0.6737663705646917
3372.3723723723724 0.6678860595180096
3382.3823823823823 0.6620760000916982
3392.3923923923926 0.6563341923926361
3402.4024024024025 0.6506587187788724
3412.4124124124123 0.645047744606744
3422.4224224224226 0.6394995182855183
3432.4324324324325 0.6340123707394323
3442.4424424424424 0.628584714365976
3452.4524524524522 0.6232150415694054
3462.4624624624626 0.6179019229395559
3472.4724724724724 0.6126440051380939
3482.4824824824823 0.6074400085471489
3492.4924924924926 0.6022887247288966
3502.5025025025025 0.5971890137388576
3512.5125125125123 0.5921398013305413
3522.5225225225226 0.58714007608442
3532.5325325325325 0.5821888864900566
3542.5425425425424 0.5772853380064978
3552.5525525525527 0.5724285901226961
3562.5625625625626 0.567617853436749
3572.5725725725724 0.562852386770053
3582.5825825825827 0.5581314943301003
3592.5925925925926 0.5534545229334876
3602.6026026026025 0.548820859298821
3612.612612612613 0.5442299274174863
3622.6226226226227 0.5396811860087496
3632.6326326326325 0.5351741260643045
3642.642642642643 0.5307082684862012
3652.6526526526527 0.5262831618210253
3662.6626626626626 0.5218983800922649
3672.672672672673 0.5175535207320051
3682.6826826826828 0.5132482026123497
3692.6926926926926 0.5089820641763501
3702.7027027027025 0.5047547616676863
3712.712712712713 0.5005659674578671
3722.7227227227227 0.49641536846931866
3732.7327327327325 0.4923026646923782
3742.742742742743 0.4882275677939391
3752.7527527527527 0.48418979981523524
3762.7627627627626 0.4801890919560697
3772.772772772773 0.47622518344262676
3782.7827827827828 0.47229782047589086
3792.7927927927926 0.4684067552575984
3802.802802802803 0.46455174509059066
3812.812812812813 0.46073255155039305
3822.8228228228227 0.4569489397248284
3832.832832832833 0.45320067751847837
3842.842842842843 0.449487535018817
3852.8528528528527 0.44580928392088515
3862.862862862863 0.44216569700740405
3872.872872872873 0.43855654768130203
3882.8828828828828 0.4349816095476715
3892.892892892893 0.4314406560422735
3902.902902902903 0.42793346010375655
3912.912912912913 0.4244597938868685
3922.922922922923 0.42101942851400964
3932.932932932933 0.41761213386258644
3942.942942942943 0.41423767838569453
3952.9529529529527 0.41089582896378485
3962.962962962963 0.40758635078504446
3972.972972972973 0.4043090072523266
3982.982982982983 0.4010635599145652
3992.992992992993 0.397849768420699
4003.003003003003 0.39466739049424104
4013.013013013013 0.391516181926699
4023.023023023023 0.3883958965881703
4033.033033033033 0.38530628645350945
4043.043043043043 0.3822471016425606
4053.053053053053 0.37921809047303173
4063.063063063063 0.37621899952467347
4073.073073073073 0.3732495737135006
4083.0830830830832 0.3703095563748786
4093.093093093093 0.36739868935437087
4103.103103103103 0.36451671310530737
4113.113113113113 0.36166336679212246
4123.123123123123 0.3588383883985511
4133.133133133133 0.3560415148398611
4143.143143143143 0.35327248207834455
4153.153153153153 0.35053102524135216
4163.163163163163 0.3478168787412127
4173.173173173173 0.34512977639642906
4183.183183183183 0.34246945155359493
4193.193193193193 0.3398356372095184
4203.203203203203 0.3372280661330881
4213.213213213214 0.3346464709864574
4223.223223223224 0.33209058444516165
4233.2332332332335 0.32956013931681916
4243.243243243243 0.32705486865810696
4253.253253253253 0.324574505889727
4263.263263263263 0.32211878490911977
4273.273273273273 0.3196874402006984
4283.283283283283 0.317280206943415
4293.293293293293 0.31489682111549094
4303.303303303303 0.3125370195961625
4313.313313313313 0.310200540264323
4323.323323323323 0.3078871220939559
4333.333333333334 0.3055965052462766
4343.343343343344 0.30332843115851404
4353.353353353354 0.3010826426292816
4363.3633633633635 0.2988588839005019
4373.373373373373 0.29665690073586104
4383.383383383383 0.2944764404957819
4393.393393393393 0.29231725220891747
4403.403403403403 0.29017908664017433
4413.413413413413 0.2880616963552853
4423.423423423424 0.2859648357819635
4433.4334334334335 0.28388826126766814
4443.443443443443 0.2818317311340295
4453.453453453454 0.27979500572797866
4463.463463463464 0.27777784746964096
4473.473473473474 0.2757800208970434
4483.483483483484 0.273801292707711
4493.493493493494 0.2718414317972073
4503.503503503503 0.26990020929469805
4513.513513513513 0.2679773985956048
4523.523523523523 0.266072775391426
4533.533533533533 0.2641861176968019
4543.543543543543 0.2623172058739007
4553.553553553554 0.26046582265420515
4563.563563563564 0.2586317531577816
4573.573573573573 0.25681478491010806
4583.583583583584 0.25501470785654606
4593.593593593594 0.25323131437453594
4603.603603603604 0.2514643992835932
4613.613613613614 0.24971375985319233
4623.623623623624 0.24797919580861025
4633.6336336336335 0.24626050933481466
4643.643643643643 0.2445575050784725
4653.653653653653 0.2428699901481538
4663.663663663663 0.24119777411281124
4673.673673673674 0.2395406689986057
4683.683683683684 0.2378984892841548
4693.693693693694 0.2362710518942727
4703.703703703704 0.234658176192275
4713.713713713714 0.2330596839709165
4723.723723723724 0.23147539944202886
4733.733733733734 0.22990514922492308
4743.743743743744 0.22834876233362522
4753.753753753754 0.22680607016300222
4763.763763763764 0.22527690647384366
4773.773773773773 0.22376110737695418
4783.783783783783 0.22225851131632018
4793.793793793793 0.22076895905139932
4803.803803803804 0.21929229363859298
4813.813813813814 0.2178283604119515
4823.823823823824 0.21637700696316275
4833.833833833834 0.2149380831208746
4843.843843843844 0.21351144092939825
4853.853853853854 0.21209693462683743
4863.863863863864 0.21069442062268912
4873.873873873874 0.209303757474958
4883.883883883884 0.20792480586682519
4893.893893893894 0.20655742858291226
4903.9039039039035 0.20520149048517783
4913.913913913913 0.2038568584884825
4923.923923923924 0.20252340153585938
4933.933933933934 0.2012009905735236
4943.943943943944 0.19988949852565058
4953.953953953955 0.19858880026895864
4963.9639639639645 0.19729877260712256
4973.973973973974 0.1960192942450468
4983.983983983984 0.1947502457630275
4993.993993993994 0.19349150959082764
5004.004004004004 0.19224296998169058
5014.014014014014 0.19100451298631677
5024.024024024024 0.18977602642682426
5034.0340340340335 0.18855739987071693
5044.044044044043 0.18734852460487875
5054.054054054054 0.1861492936096151
5064.064064064064 0.18495960153275914
5074.074074074074 0.18377934466385998
5084.084084084085 0.1826084209084703
5094.0940940940945 0.18144672976254986
5104.104104104104 0.1802941722869967
5114.114114114114 0.1791506510823234
5124.124124124124 0.17801607026348984
5134.134134134134 0.1768903354349055
5144.144144144144 0.17577335366561206
5154.154154154154 0.17466503346465864
5164.1641641641645 0.17356528475667887
5174.174174174174 0.17247401885767963
5184.184184184184 0.17139114845105052
5194.194194194194 0.1703165875638018
5204.204204204204 0.16925025154304038
5214.214214214214 0.16819205703268741
5224.224224224225 0.1671419219504481
5234.2342342342345 0.16609976546503685
5244.244244244244 0.16506550797366387
5254.254254254254 0.16403907107979007
5264.264264264264 0.16302037757115143
5274.274274274274 0.16200935139806102
5284.284284284285 0.16100591765198805
5294.294294294295 0.1600100025444209
5304.304304304304 0.15902153338601463
5314.314314314314 0.15804043856602643
5324.324324324324 0.15706664753204067
5334.334334334334 0.15610009076998635
5344.344344344345 0.15514069978444622
5354.354354354355 0.1541884070792616
5364.3643643643645 0.15324314613843065
5374.374374374374 0.15230485140730393
5384.384384384384 0.15137345827407356
5394.394394394394 0.1504489030515601
5404.404404404404 0.14953112295929372
5414.414414414415 0.14862005610589105
5424.424424424425 0.14771564147172592
5434.4344344344345 0.1468178188918942
5444.444444444444 0.14592652903946945
5454.454454454454 0.14504171340905192
5464.464464464464 0.14416331430060503
5474.474474474475 0.1432912748035806
5484.484484484485 0.1424255387813303
5494.494494494495 0.14156605085580085
5504.504504504504 0.14071275639251177
5514.514514514514 0.13986560148581206
5524.524524524524 0.13902453294441583
5534.534534534535 0.1381894982772115
5544.544544544545 0.13736044567934474
5554.554554554555 0.1365373240185699
5564.5645645645645 0.13572008282186993
5574.574574574574 0.13490867226233957
5584.584584584584 0.13410304314633034
5594.594594594595 0.13330314690085307
5604.604604604605 0.1325089355612376
5614.614614614615 0.1317203617590421
5624.624624624625 0.13093737871021327
5634.6346346346345 0.13015994020349178
5644.644644644644 0.12938800058906008
5654.654654654654 0.12862151476742953
5664.664664664665 0.12786043817856335
5674.674674674675 0.12710472679123255
5684.684684684685 0.12635433709260008
5694.694694694695 0.12560922607803157
5704.704704704704 0.12486935124112811
5714.714714714714 0.12413467056397749
5724.724724724725 0.12340514250762148
5734.734734734735 0.12268072600273452
5744.744744744745 0.1219613804405111
5754.754754754755 0.12124706566375805
5764.764764764765 0.12053774195818852
5774.774774774774 0.11983337004391403
5784.784784784785 0.11913391106713087
5794.794794794795 0.11843932659199802
5804.804804804805 0.11774957859270292
5814.814814814815 0.11706462944571082
5824.824824824825 0.11638444192219632
5834.8348348348345 0.11570897918065119
5844.844844844845 0.11503820475966765
5854.854854854855 0.11437208257089171
5864.864864864865 0.11371057689214394
5874.874874874875 0.11305365236070551
5884.884884884885 0.11240127396676444
5894.894894894895 0.11175340704701976
5904.9049049049045 0.11111001727844076
5914.914914914915 0.110471070672177
5924.924924924925 0.1098365335676176
5934.934934934935 0.10920637262659433
5944.944944944945 0.10858055482772848
5954.954954954955 0.10795904746091571
5964.964964964965 0.1073418181219473
5974.974974974975 0.1067288347072648
5984.984984984985 0.10612006540884492
5994.994994994995 0.1055154787092114
6005.005005005005 0.10491504337657168
6015.015015015015 0.10431872846007534
6025.025025025025 0.10372650328519155
6035.035035035035 0.10313833744920231
6045.045045045045 0.10255420081680983
6055.055055055055 0.10197406351585417
6065.065065065065 0.10139789593313989
6075.075075075075 0.10082566871036765
6085.085085085085 0.1002573527401696
6095.0950950950955 0.09969291916224525
6105.105105105105 0.09913233935959574
6115.115115115115 0.09857558495485375
6125.125125125125 0.098022627806707
6135.135135135135 0.09747344000641338
6145.145145145145 0.09692799387440414
6155.155155155155 0.0963862619569748
6165.1651651651655 0.0958482170230595
6175.175175175175 0.09531383206108873
6185.185185185185 0.09478308027592625
6195.195195195195 0.09425593508588509
6205.205205205205 0.09373237011981908
6215.215215215215 0.0932123592142885
6225.225225225226 0.0926958764107983
6235.235235235235 0.0921828959531061
6245.245245245245 0.0916733922845989
6255.255255255255 0.09116734004573636
6265.265265265265 0.09066471407155813
6275.275275275275 0.09016548938925509
6285.285285285286 0.08966964121580123
6295.295295295296 0.08917714495564547
6305.305305305305 0.08868797619846051
6315.315315315315 0.08820211071694928
6325.325325325325 0.08771952446470506
6335.335335335335 0.08724019357412514
