#lamb flux
1000.0 8.51436615728821
1010.01001001001 8.692382660850443
1020.0200200200201 8.852472611803568
1030.03003003003 8.995318300832748
1040.0400400400401 9.121681197923424
1050.05005005005 9.232380362135974
1060.06006006006 9.32827354298596
1070.07007007007 9.4102408754043
1080.08008008008 9.479171017344763
1090.0900900900901 9.535949544834201
1100.1001001001 9.581449399856401
1110.11011011011 9.616523178591038
1120.1201201201202 9.641997048330987
1130.13013013013 9.658666088482676
1140.1401401401401 9.667290862455756
1150.1501501501502 9.668595041410763
1160.16016016016 9.663263916535616
1170.1701701701702 9.6519436528399
1180.1801801801803 9.635241153705259
1190.1901901901902 9.613724421125344
1200.2002002002002 9.587923311382589
1210.2102102102103 9.558330599635205
1220.2202202202202 9.525403279416379
1230.2302302302303 9.489564034338116
1240.2402402402402 9.45120282935474
1250.2502502502502 9.410183738150444
1260.2602602602603 9.365380686227647
1270.2702702702702 9.314520206593368
1280.2802802802803 9.25807554518856
1290.2902902902902 9.19649930905053
1300.3003003003003 9.130223134545583
1310.3103103103103 9.059657563827823
1320.3203203203202 8.985192098704694
1330.3303303303303 8.907195404137855
1340.3403403403404 8.826015636502
1350.3503503503503 8.741980874444875
1360.3603603603603 8.655399632725167
1370.3703703703704 8.566561441744671
1380.3803803803803 8.475737477637987
1390.3903903903904 8.383181229738872
1400.4004004004005 8.289129194014382
1410.4104104104103 8.193801582654999
1420.4204204204204 8.097403041440062
1430.4304304304305 8.000123367774917
1440.4404404404404 7.9021382234302235
1450.4504504504505 7.803609837015764
1460.4604604604606 7.704687692103626
1470.4704704704704 7.605509197687761
1480.4804804804805 7.506200338341543
1490.4904904904906 7.406876302019757
1500.5005005005005 7.307642083957669
1510.5105105105106 7.2085930655552595
1520.5205205205207 7.109815567507791
1530.5305305305305 7.011387376761981
1540.5405405405404 6.913378247147641
1550.5505505505505 6.815850373763642
1560.5605605605606 6.718858841390347
1570.5705705705705 6.622452047364665
1580.5805805805805 6.526672099492377
1590.5905905905906 6.4315551896914505
1600.6006006006005 6.337131944163525
1610.6106106106106 6.24342775098359
1620.6206206206207 6.150463066083849
1630.6306306306305 6.058253698692097
1640.6406406406406 5.966811077370983
1650.6506506506507 5.876142497898426
1660.6606606606606 5.786251354334169
1670.6706706706707 5.697137354740607
1680.6806806806808 5.608796723171278
1690.6906906906906 5.52122238971585
1700.7007007007007 5.434418929432092
1710.7107107107108 5.348431359826394
1720.7207207207207 5.2632349115621935
1730.7307307307308 5.178795510049058
1740.7407407407409 5.095078250407727
1750.7507507507507 5.012047445956922
1760.7607607607606 4.929666695293732
1770.770770770771 4.84789897271097
1780.7807807807808 4.766706747557501
1790.7907907907907 4.68605213912588
1800.8008008008007 4.605897114745038
1810.8108108108108 4.526203739954606
1820.8208208208207 4.446934490919505
1830.8308308308308 4.3680526405681634
1840.8408408408409 4.289522731238505
1850.8508508508507 4.211311147792843
1860.8608608608608 4.133386806070382
1870.870870870871 4.055721971982693
1880.8808808808808 3.9782932262531694
1890.890890890891 3.9010825884058593
1900.900900900901 3.8240788106871393
1910.9109109109108 3.7472788476345587
1920.920920920921 3.6706894994042694
1930.930930930931 3.594329216115982
1940.940940940941 3.5182300358016105
1950.950950950951 3.4424396096370096
1960.960960960961 3.367023244902302
1970.970970970971 3.2920658689916658
1980.980980980981 3.217673787989975
1990.9909909909911 3.14397608308378
2001.001001001001 3.0711254608167424
2011.0110110110109 2.9992983536204987
2021.0210210210212 2.9286940608676573
2031.031031031031 2.859532734081454
2041.0410410410411 2.79205204854664
2051.051051051051 2.7265024711556154
2061.061061061061 2.663141131191859
2071.071071071071 2.6022244223298143
2081.081081081081 2.543999600183703
2091.091091091091 2.488695774687785
2101.101101101101 2.436514811237887
2111.1111111111113 2.387622729143074
2121.121121121121 2.342142204213883
2131.131131131131 2.300146735204602
2141.141141141141 2.261656922242855
2151.151151151151 2.2266391408271473
2161.161161161161 2.195006697827591
2171.1711711711714 2.166623351707139
2181.1811811811813 2.1413088937984974
2191.191191191191 2.118846342633435
2201.201201201201 2.0989902131715956
2211.2112112112113 2.081475292363078
2221.221221221221 2.066025378117353
2231.2312312312315 2.0523615098871697
2241.2412412412414 2.0402093210166434
2251.2512512512512 2.0293052598157364
2261.261261261261 2.019401543345231
2271.271271271271 2.0102698134895656
2281.2812812812813 2.0017035513277213
2291.2912912912916 1.9935193693303155
2301.3013013013015 1.985557341200889
2311.3113113113113 1.9776805484815563
2321.321321321321 1.969774025158702
2331.331331331331 1.9617432708847682
2341.3413413413414 1.9535124844680913
2351.3513513513512 1.9450226458300555
2361.3613613613616 1.9362295497638575
2371.3713713713714 1.927101870782057
2381.3813813813813 1.917619316554955
2391.391391391391 1.907770908704693
2401.4014014014015 1.8975534143143622
2411.4114114114113 1.8869699393699906
2421.4214214214217 1.8760286861893491
2431.4314314314315 1.8647418703024328
2441.4414414414414 1.8531247877909254
2451.4514514514512 1.8411950213344508
2461.4614614614616 1.8289717717551774
2471.4714714714714 1.8164753013596593
2481.4814814814818 1.8037264755658826
2491.4914914914916 1.7907463899499638
2501.5015015015015 1.7775560707769875
2511.5115115115113 1.7641762381642352
2521.521521521521 1.7506271221684337
2531.5315315315315 1.7369283232262294
2541.541541541542 1.7230987094656114
2551.5515515515517 1.7091563444188145
2561.5615615615616 1.6951184395899774
2571.5715715715714 1.6810013271576985
2581.5815815815813 1.666820448823793
2591.5915915915916 1.6525903574590988
2601.6016016016015 1.6383247287513045
2611.611611611612 1.624036380536319
2621.6216216216217 1.6097372979014577
2631.6316316316315 1.5954386624940247
2641.6416416416414 1.581150884760249
2651.6516516516517 1.5668836380841906
2661.6616616616616 1.552645894000737
2671.671671671672 1.538445957826877
2681.6816816816818 1.5242915041963425
2691.6916916916916 1.510189612098785
2701.7017017017015 1.4961467991199848
2711.711711711712 1.482169054657362
2721.7217217217217 1.4682618719482634
2731.731731731732 1.4544302787994723
2741.741741741742 1.4406788669473476
2751.7517517517517 1.4270118200104671
2761.7617617617616 1.413432940022399
2771.7717717717715 1.3999456725520976
2781.781781781782 1.38655313043488
2791.791791791792 1.3732581161484663
2801.801801801802 1.3600631428770837
2811.811811811812 1.346970454312699
2821.8218218218217 1.3339820432464846
2831.8318318318316 1.3210996690060925
2841.841841841842 1.3083248737955577
2851.851851851852 1.295658997994848
2861.861861861862 1.2831031944756075
2871.871871871872 1.270658441988506
2881.881881881882 1.258325557676094
2891.8918918918916 1.2461052087632334
2901.901901901902 1.233997923475065
2911.911911911912 1.2220041012303509
2921.921921921922 1.2101240221556562
2931.931931931932 1.1983578559635961
2941.941941941942 1.1867056702360028
2951.9519519519517 1.1751674381506132
2961.961961961962 1.16374304568764
2971.971971971972 1.152432298350424
2981.9819819819822 1.141234927432283
2991.991991991992 1.1301505958596825
3002.002002002002 1.1191789036399442
3012.012012012012 1.1083193929399118
3022.0220220220217 1.0975715528202654
3032.032032032032 1.089876184291961
3042.0420420420423 1.078966269522327
3052.052052052052 1.0680684114909154
3062.062062062062 1.0572112719595166
3072.072072072072 1.0464190891483125
3082.0820820820823 1.0357121721702598
3092.092092092092 1.0251073524478551
3102.102102102102 1.0146183940993088
3112.1121121121123 1.0042563655987276
3122.122122122122 0.9940299752006121
3132.132132132132 0.9839458727033976
3142.1421421421423 0.9740089201348548
3152.152152152152 0.9642224338938873
3162.162162162162 0.9545884007948533
3172.1721721721724 0.9451076703445372
3182.1821821821823 0.9357801254483218
3192.192192192192 0.9266048335985522
3202.202202202202 0.917580180450393
3212.2122122122123 0.9087039875429036
3222.222222222222 0.8999736157788191
3232.232232232232 0.8913860561377689
3242.2422422422424 0.8829380089659415
3252.252252252252 0.8746259530613171
3262.262262262262 0.8664462056581765
3272.2722722722724 0.8583949743077044
3282.2822822822823 0.8504684015531004
3292.292292292292 0.8426626032075097
3302.3023023023025 0.8349737009608305
3312.3123123123123 0.8273978499667094
3322.322322322322 0.8199312619932738
3332.3323323323325 0.8125702246598572
3342.3423423423424 0.8053111172267229
3352.352352352352 0.7981504233549673
3362.3623623623625 0.7910847412090694
3372.3723723723724 0.784110791234313
3382.3823823823823 0.7772254219052623
3392.3923923923926 0.7704256137091742
3402.4024024024025 0.7637084815992575
3412.4124124124123 0.7570712761268019
3422.4224224224226 0.7505113834380182
3432.4324324324325 0.7440263243006886
3442.4424424424424 0.7376137523071963
3452.4524524524522 0.7312714513839147
3462.4624624624626 0.7249973327221159
3472.4724724724724 0.7187894312323047
3482.4824824824823 0.7126459016120159
3492.4924924924926 0.7065650141065309
3502.5025025025025 0.7005451500324634
3512.5125125125123 0.6945847971257002
3522.5225225225226 0.6886825447675786
3532.5325325325325 0.6828370791364002
3542.5425425425424 0.6770471783252998
3552.5525525525527 0.6713117074620559
3562.5625625625626 0.6656296138615696
3572.5725725725724 0.6599999222373784
3582.5825825825827 0.654421729994705
3592.5925925925926 0.64889420262405
3602.6026026026025 0.6434165692112456
3612.612612612613 0.6379881180771264
3622.6226226226227 0.6326081925574971
3632.6326326326325 0.6272761869318917
3642.642642642643 0.6219915425076824
3652.6526526526527 0.6167537438643447
3662.6626626626626 0.611562315261176
3672.672672672673 0.6064168172104223
3682.6826826826828 0.6013168432165658
3692.6926926926926 0.596262016681503
3702.7027027027025 0.5912519879744331
3712.712712712713 0.5862864316644951
3722.7227227227227 0.5813650439135222
3732.7327327327325 0.5764875400256795
3742.742742742743 0.5716536521503061
3752.7527527527527 0.566863127133828
3762.7627627627626 0.5621157245163011
3772.772772772773 0.5574112146678593
3782.7827827827828 0.5527493770601282
3792.7927927927926 0.5481299986675051
3802.802802802803 0.5435528724930868
3812.812812812813 0.5390177962139513
3822.8228228228227 0.5345245709404657
3832.832832832833 0.5300730000842796
3842.842842842843 0.5256628883296942
3852.8528528528527 0.5212940407031348
3862.862862862863 0.516966261735536
3872.872872872873 0.5126793547125315
3882.8828828828828 0.5084331210074351
3892.892892892893 0.5042273594921506
3902.902902902903 0.5000618660212328
3912.912912912913 0.49593643298450285
3922.922922922923 0.49185084892374253
3932.932932932933 0.48780489820916545
3942.942942942943 0.4837983607714982
3952.9529529529527 0.47983101188568983
3962.962962962963 0.4759026220024208
3972.972972972973 0.4720129566237403
3982.982982982983 0.4681617762193428
3992.992992992993 0.4643488361801411
4003.003003003003 0.46057388680597383
4013.013013013013 0.45683667332442257
4023.023023023023 0.4531369359378963
4033.033033033033 0.4494744098962782
4043.043043043043 0.445848825592584
4053.053053053053 0.4422599086792352
4063.063063063063 0.43870738020268335
4073.073073073073 0.43519095675426445
4083.0830830830832 0.4317103506352967
4093.093093093093 0.42826527003456266
4103.103103103103 0.42485541921643555
4113.113113113113 0.4214804987180417
4123.123123123123 0.41814020555394266
4133.133133133133 0.414834233426957
4143.143143143143 0.41156227294382086
4153.153153153153 0.40832401183450107
4163.163163163163 0.40511913517405873
4173.173173173173 0.40194732560606183
4183.183183183183 0.39880826356661575
4193.193193193193 0.395701627508174
4203.203203203203 0.39262709412235813
4213.213213213214 0.3895843385610944
4223.223223223224 0.3865730346554333
4233.2332332332335 0.3835928551314888
4243.243243243243 0.3806434718229907
4253.253253253253 0.3777245558799999
4263.263263263263 0.3748357779733858
4273.273273273273 0.37197680849471515
4283.283283283283 0.3691473177512499
4293.293293293293 0.3663469761557892
4303.303303303303 0.36357545441113076
4313.313313313313 0.36083242368896723
4323.323323323323 0.3581175558030573
4333.333333333334 0.3554305233765569
4343.343343343344 0.352771000003409
4353.353353353354 0.3501386604037261
4363.3633633633635 0.34753318057312227
4373.373373373373 0.3449542379259708
4383.383383383383 0.342401511432587
4393.393393393393 0.3398746817503505
4403.403403403403 0.3373734313488011
4413.413413413413 0.33489744462875554
4423.423423423424 0.3324464080355053
4433.4334334334335 0.33002001016617205
4443.443443443443 0.3276179418712992
4453.453453453454 0.32523989635077666
4463.463463463464 0.32288556924420486
4473.473473473474 0.32055465871579353
4483.483483483484 0.31824686553392934
4493.493493493494 0.3159618931455166
4503.503503503503 0.31369944774522884
4513.513513513513 0.31145923833979433
4523.523523523523 0.309240976807448
4533.533533533533 0.3070443779526913
4543.543543543543 0.3048691595564877
4553.553553553554 0.3027150424220395
4563.563563563564 0.3005817504162824
4573.573573573573 0.29846901050723623
4583.583583583584 0.2963765527973534
4593.593593593594 0.29430411055300365
4603.603603603604 0.29225142023023
4613.613613613614 0.2902182214969202
4623.623623623624 0.288204257251521
4633.6336336336335 0.2862092736384358
4643.643643643643 0.2842330200602359
4653.653653653653 0.2822752491868133
4663.663663663663 0.28033571696160864
4673.673673673674 0.278414182605034
4683.683683683684 0.2765104086152189
4693.693693693694 0.2746241607661973
4703.703703703704 0.27275520810365433
4713.713713713714 0.27090332293835023
4723.723723723724 0.26906828083733075
4733.733733733734 0.26724986061303535
4743.743743743744 0.26544784431041263
4753.753753753754 0.2636620171921415
4763.763763763764 0.261892167722065
4773.773773773773 0.26013808754692924
4783.783783783783 0.2583995714765299
4793.793793793793 0.2566764174623505
4803.803803803804 0.25496842657478724
4813.813813813814 0.2532754029790471
4823.823823823824 0.251597153909799
4833.833833833834 0.2499334896446628
4843.843843843844 0.24828422347661383
4853.853853853854 0.24664917168537484
4863.863863863864 0.2450281535078735
4873.873873873874 0.24342099110783114
4883.883883883884 0.2418275095445532
4893.893893893894 0.24024753674098442
4903.9039039039035 0.23868090345109236
4913.913913913913 0.2371274432266388
4923.923923923924 0.23558699238339714
4933.933933933934 0.23405938996687195
4943.943943943944 0.23254447771757047
4953.953953953955 0.23104210003588224
4963.9639639639645 0.22955210394661116
4973.973973973974 0.2280743390632084
4983.983983983984 0.22660865755175133
4993.993993993994 0.22515491409471086
5004.004004004004 0.22371296585454598
5014.014014014014 0.22228267243716868
5024.024024024024 0.2208638958553113
5034.0340340340335 0.2194565004918365
5044.044044044043 0.21806035306301913
5054.054054054054 0.21667532258183567
5064.064064064064 0.21530128032128928
5074.074074074074 0.2139380997778002
5084.084084084085 0.21258565663468912
5094.0940940940945 0.21124382872577926
5104.104104104104 0.20991249599914164
5114.114114114114 0.2085915404810065
5124.124124124124 0.20728084623986393
5134.134134134134 0.2059802993507731
5144.144144144144 0.20468978785989997
5154.154154154154 0.20340920174930302
5164.1641641641645 0.20213843290198127
5174.174174174174 0.200877375067205
5184.184184184184 0.1996259238261398
5194.194194194194 0.19838397655778056
5204.204204204204 0.19715143240520988
5214.214214214214 0.19592819224218858
5224.224224224225 0.19471415864009403
5234.2342342342345 0.1935092358352154
5244.244244244244 0.19231332969641365
5254.254254254254 0.19112634769315814
5264.264264264264 0.18994819886394546
5274.274274274274 0.18877879378510992
5284.284284284285 0.18761804454003003
5294.294294294295 0.18646586468874007
5304.304304304304 0.1853221692379482
5314.314314314314 0.18418687461146996
5324.324324324324 0.18305989862107835
5334.334334334334 0.18194116043777606
5344.344344344345 0.18083058056349077
5354.354354354355 0.17972808080319966
5364.3643643643645 0.17863358423748021
5374.374374374374 0.17754701519549448
5384.384384384384 0.1764682992284034
5394.394394394394 0.175397363083215
5404.404404404404 0.1743341346770645
5414.414414414415 0.17327854307192905
5424.424424424425 0.17223051844977427
5434.4344344344345 0.17118999208813215
5444.444444444444 0.1701568963361112
5454.454454454454 0.169131164590836
5464.464464464464 0.16811273127431378
5474.474474474475 0.16710153181072787
5484.484484484485 0.16609750260415482
5494.494494494495 0.1651005810167028
5504.504504504504 0.1641107053470689
5514.514514514514 0.1631278148095117
5524.524524524524 0.1621518495132379
5534.534534534535 0.16118275044219682
5544.544544544545 0.1602204594352821
5554.554554554555 0.15926491916693472
5564.5645645645645 0.15831607312814547
5574.574574574574 0.1573738656078514
5584.584584584584 0.1564382416747232
5594.594594594595 0.15550914715933722
5604.604604604605 0.15458652863673286
5614.614614614615 0.15367033340934305
5624.624624624625 0.15276050949030096
5634.6346346346345 0.15185700558711376
5644.644644644644 0.15095977108569922
5654.654654654654 0.15006875603478273
5664.664664664665 0.149183911130646
5674.674674674675 0.14830518770222723
5684.684684684685 0.14743253769656264
5694.694694694695 0.14656591366456886
5704.704704704704 0.145705268747158
5714.714714714714 0.14485055666168214
5724.724724724725 0.14400173168870106
5734.734734734735 0.14315874865906847
5744.744744744745 0.14232156294133153
5754.754754754755 0.1414901304294383
5764.764764764765 0.1406644075307484
5774.774774774774 0.13984435115434116
5784.784784784785 0.13902991869961603
5794.794794794795 0.1382210680451808
5804.804804804805 0.13741775753802135
5814.814814814815 0.13661994598294863
5824.824824824825 0.135827592632318
5834.8348348348345 0.13504065717601346
5844.844844844845 0.13425909973169617
5854.854854854855 0.1334828808353066
5864.864864864865 0.13271196143182012
5874.874874874875 0.13194630286624817
5884.884884884885 0.13118586687488099
5894.894894894895 0.1304306155767666
5904.9049049049045 0.1296805114654221
5914.914914914915 0.1289355174007706
5924.924924924925 0.12819559660130148
5934.934934934935 0.12746071263644584
5944.944944944945 0.12673082941916655
5954.954954954955 0.1260059111987543
5964.964964964965 0.12528592255382762
5974.974974974975 0.12457082838553135
5984.984984984985 0.12386059391092914
5994.994994994995 0.12315518465658497
6005.005005005005 0.12245456645233078
6015.015015015015 0.12175870542521408
6025.025025025025 0.12106756799362288
6035.035035035035 0.12038112086158181
6045.045045045045 0.11969933101321781
6055.055055055055 0.11902216570738837
6065.065065065065 0.11834959247247082
6075.075075075075 0.11768157910130708
6085.085085085085 0.11701809364630053
6095.0950950950955 0.11635910441466109
6105.105105105105 0.11570457996379505
6115.115115115115 0.11505448909683454
6125.125125125125 0.11440880085830527
6135.135135135135 0.11376748452992663
6145.145145145145 0.11313050962654193
6155.155155155155 0.11249784589217511
6165.1651651651655 0.11186946329620996
6175.175175175175 0.1112453320296895
6185.185185185185 0.11062542250173055
6195.195195195195 0.11000970533605257
6205.205205205205 0.1093981513676152
6215.215215215215 0.10879073163936304
6225.225225225226 0.10818741739907413
6235.235235235235 0.10758818009630858
6245.245245245245 0.10699299137945578
6255.255255255255 0.10640182309287557
6265.265265265265 0.10581464727413195
6275.275275275275 0.10523143615131585
6285.285285285286 0.10465216214045484
6295.295295295296 0.10407679784300654
6305.305305305305 0.10350531604343305
6315.315315315315 0.10293768970685518
6325.325325325325 0.10237389197678236
6335.335335335335 0.10181389617291661
6345.345345345346 0.10125767578902832
