#lamb flux
1000.0 17.58281522730255
1010.01001001001 17.164129318481095
1020.0200200200201 16.7561653484075
1030.03003003003 16.358693226751527
1040.0400400400401 15.971481105357446
1050.05005005005 15.594296281580853
1060.06006006006 15.226905994141925
1070.07007007007 14.869078122094425
1080.08008008008 14.520581796534609
1090.0900900900901 14.181187933784733
1100.1001001001 13.850669697973016
1110.11011011011 13.528802900192462
1120.1201201201202 13.215366340746156
1130.13013013013 12.910142100373154
1140.1401401401401 12.61291578579025
1150.1501501501502 12.32347673437763
1160.16016016016 12.04161818237415
1170.1701701701702 11.767137400529307
1180.1801801801803 11.499835800777749
1190.1901901901902 11.239519017156653
1200.2002002002002 10.985996963872594
1210.2102102102103 10.739083873140157
1220.2202202202202 10.498598315156165
1230.2302302302303 10.26436320233985
1240.2402402402402 10.036205779757172
1250.2502502502502 9.813955823035153
1260.2602602602603 9.59744411487781
1270.2702702702702 9.386502125849328
1280.2802802802803 9.180975551021948
1290.2902902902902 8.980714121586974
1300.3003003003003 8.78557154830895
1310.3103103103103 8.595405459922281
1320.3203203203202 8.410077337271153
1330.3303303303303 8.229452443910422
1340.3403403403404 8.053399753808606
1350.3503503503503 7.881791876725425
1360.3603603603603 7.714504981774157
1370.3703703703704 7.551418719622701
1380.3803803803803 7.39241614373641
1390.3903903903904 7.237383631019775
1400.4004004004005 7.0862108021726185
1410.4104104104103 6.938790442038932
1420.4204204204204 6.795018420192796
1430.4304304304305 6.654793611975385
1440.4404404404404 6.518017820169659
1450.4504504504505 6.384595697474608
1460.4604604604606 6.254434669919005
1470.4704704704704 6.127444861334264
1480.4804804804805 6.003539018988644
1490.4904904904906 5.8826324404685835
1500.5005005005005 5.7646429018788945
1510.5105105105106 5.6494905874205
1520.5205205205207 5.537098020393201
1530.5305305305305 5.427389995660422
1540.5405405405404 5.32029351360414
1550.5505505505505 5.215737715589859
1560.5605605605606 5.113653820954503
1570.5705705705705 5.013975065523738
1580.5805805805805 4.916636641659715
1590.5905905905906 4.821575639835243
1600.6006006006005 4.728730991726292
1610.6106106106106 4.638043414810917
1620.6206206206207 4.549455358459594
1630.6306306306305 4.462910951499174
1640.6406406406406 4.378355951230314
1650.6506506506507 4.295737693876624
1660.6606606606606 4.21500504644177
1670.6706706706707 4.136108359949997
1680.6806806806808 4.058999424044363
1690.6906906906906 3.9836314229165657
1700.7007007007007 3.909958929176706
1710.7107107107108 3.8379379327521272
1720.7207207207207 3.7675255267714083
1730.7307307307308 3.698680019332981
1740.7407407407409 3.6313609162648124
1750.7507507507507 3.5655288840884856
1760.7607607607606 3.5011457141746996
1770.770770770771 3.438174288067398
1780.7807807807808 3.376578543956438
1790.7907907907907 3.316323444281767
1800.8008008008007 3.2573749444556244
1810.8108108108108 3.1996999626933578
1820.8208208208207 3.1432663509478536
1830.8308308308308 3.088042866947797
1840.8408408408409 3.033999147345282
1850.8508508508507 2.98110568198411
1860.8608608608608 2.92933378930594
1870.870870870871 2.878655592916925
1880.8808808808808 2.8290439993422716
1890.890890890891 2.780472676999055
1900.900900900901 2.73291603641822
1910.9109109109108 2.6863492117427206
1920.920920920921 2.6407480435192427
1930.930930930931 2.596089062782948
1940.940940940941 2.552349476406206
1950.950950950951 2.509507153640194
1960.960960960961 2.467540613720285
1970.970970970971 2.4264290143303144
1980.980980980981 2.386152140626744
1990.9909909909911 2.346690394413652
2001.001001001001 2.3080247829391425
2011.0110110110109 2.2701369066640344
2021.0210210210212 2.2330089452513984
2031.031031031031 2.1966236409629496
2041.0410410410411 2.1609642786532413
2051.051051051051 2.1260146616533024
2061.061061061061 2.0917590830564623
2071.071071071071 2.0581822922730875
2081.081081081081 2.0252694572003023
2091.091091091091 1.9930061229223157
2101.101101101101 1.961378168452125
2111.1111111111113 1.9303717635556847
2121.121121121121 1.899973328063193
2131.131131131131 1.8701694961758346
2141.141141141141 1.8409470880609176
2151.151151151151 1.8122930904883543
2161.161161161161 1.784194647455305
2171.1711711711714 1.756639060788159
2181.1811811811813 1.7296137997507226
2191.191191191191 1.7031065178737022
2201.201201201201 1.6771050746708673
2211.2112112112113 1.651597559682491
2221.221221221221 1.6265723163844303
2231.2312312312315 1.6020179638638132
2241.2412412412414 1.577923414697114
2251.2512512512512 1.5542778880704495
2261.261261261261 1.5310709177634356
2271.271271271271 1.50829235511001
2281.2812812812813 1.485932367415522
2291.2912912912916 1.4639814325402045
2301.3013013013015 1.442430330466475
2311.3113113113113 1.4212701326757895
2321.321321321321 1.4004921900986635
2331.331331331331 1.3800881202967994
2341.3413413413414 1.3600497944124947
2351.3513513513512 1.340369324294762
2361.3613613613616 1.321039050095583
2371.3713713713714 1.3020515285297305
2381.3813813813813 1.283399521910123
2391.391391391391 1.2650759880078062
2401.4014014014015 1.2470740707393697
2411.4114114114113 1.229387091652722
2421.4214214214217 1.2120085421616316
2431.4314314314315 1.1949320764678797
2441.4414414414414 1.1781515051047484
2451.4514514514512 1.161660789035149
2461.4614614614616 1.1454540342402237
2471.4714714714714 1.1295254867387663
2481.4814814814818 1.1138695279832223
2491.4914914914916 1.0984806705839496
2501.5015015015015 1.0833535543192316
2511.5115115115113 1.0684829423941278
2521.521521521521 1.053863717916367
2531.5315315315315 1.0394908805621152
2541.541541541542 1.0253595434085356
2551.5515515515517 1.0114649299136107
2561.5615615615616 0.9978023710267613
2571.5715715715714 0.9843673024164387
2581.5815815815813 0.9711552618030403
2591.5915915915916 0.9581618863873981
2601.6016016016015 0.945382910366633
2611.611611611612 0.9328141625304588
2621.6216216216217 0.9204515639321239
2631.6316316316315 0.9082911256290245
2641.6416416416414 0.896328946488807
2651.6516516516517 0.8845612110573332
2661.6616616616616 0.8729841874854085
2671.671671671672 0.8615942255115592
2681.6816816816818 0.8503877544984967
2691.6916916916916 0.8393612815211483
2701.7017017017015 0.8285113895043893
2711.711711711712 0.8178347354087669
2721.7217217217217 0.8073280484626776
2731.731731731732 0.7969881284395527
2741.741741741742 0.7868118439787526
2751.7517517517517 0.7767961309489013
2761.7617617617616 0.766937990852516
2771.7717717717715 0.7572344892708038
2781.781781781782 0.7476827543475658
2791.791791791792 0.7382799753112056
2801.801801801802 0.729023401033839
2811.811811811812 0.7199103386265762
2821.8218218218217 0.7109381520700512
2831.8318318318316 0.7021042608793044
2841.841841841842 0.6934061388021565
2851.851851851852 0.6848413125502266
2861.861861861862 0.6764073605617695
2871.871871871872 0.6681019117955291
2881.881881881882 0.6599226445548233
2891.8918918918916 0.6518672853410997
2901.901901901902 0.6439336077361996
2911.911911911912 0.6361194313126165
2921.921921921922 0.628422620571018
2931.931931931932 0.6208410839043482
2941.941941941942 0.6133727725878163
2951.9519519519517 0.6060156797941133
2961.961961961962 0.5987678396332065
2971.971971971972 0.5916273262160725
2981.9819819819822 0.5845922527417534
2991.991991991992 0.5776607706071313
3002.002002002002 0.5708310685388278
3012.012012012012 0.5641013717466601
3022.0220220220217 0.5574699410980856
3032.032032032032 0.5509402090065584
3042.0420420420423 0.5444995534939914
3052.052052052052 0.5381519853304563
3062.062062062062 0.5318959518109081
3072.072072072072 0.5257299240887368
3082.0820820820823 0.5196523974113967
3092.092092092092 0.5136618912755491
3102.102102102102 0.5077569495106028
3112.1121121121123 0.5019361402987375
3122.122122122122 0.496198056138694
3132.132132132132 0.49054131375993487
3142.1421421421423 0.48496455399314287
3152.152152152152 0.4794664416024516
3162.162162162162 0.4740456650842569
3172.1721721721724 0.4687009364370104
3182.1821821821823 0.463430990905941
3192.192192192192 0.45823458670625955
3202.202202202202 0.4531105047280495
3212.2122122122123 0.4480575482257173
3222.222222222222 0.44307454249458145
3232.232232232232 0.4381603345369071
3242.2422422422424 0.43331379271945986
3252.252252252252 0.42853380642442174
3262.262262262262 0.4238192856953196
3272.2722722722724 0.4191691608794323
3282.2822822822823 0.41458238226797745
3292.292292292292 0.410057919735239
3302.3023023023025 0.4055947623776493
3312.3123123123123 0.4011919181537335
3322.322322322322 0.39684841352570116
3332.3323323323325 0.392563293103382
3342.3423423423424 0.38833561929110877
3352.352352352352 0.38416447193806563
3362.3623623623625 0.3800489479925646
3372.3723723723724 0.37598816116062755
3382.3823823823823 0.37198124156920187
3392.3923923923926 0.3680273354342974
3402.4024024024025 0.36412560473426153
3412.4124124124123 0.3602752268883879
3422.4224224224226 0.35647539444100657
3432.4324324324325 0.35272531475117697
3442.4424424424424 0.34902420968806375
3452.4524524524522 0.3453713153320654
3462.4624624624626 0.341765881681727
3472.4724724724724 0.3382071723664613
3482.4824824824823 0.3346944643650676
3492.4924924924926 0.3312270477300429
3502.5025025025025 0.32780422531764636
3512.5125125125123 0.3244253125236776
3522.5225225225226 0.3210896370249149
3532.5325325325325 0.31779653852615036
3542.5425425425424 0.3145453685127515
3552.5525525525527 0.31133549000867267
3562.5625625625626 0.30816627733983354
3572.5725725725724 0.3050371159027755
3582.5825825825827 0.3019474019385087
3592.5925925925926 0.2988965423114502
3602.6026026026025 0.2958839542933613
3612.612612612613 0.2929090653521827
3622.6226226226227 0.28997131294566925
3632.6326326326325 0.28707014431972044
3642.642642642643 0.28420501631131123
3652.6526526526527 0.2813753951559178
3662.6626626626626 0.2785807562993355
3672.672672672673 0.27582058421379624
3682.6826826826828 0.2730943722182779
3692.6926926926926 0.2704016223029121
3702.7027027027025 0.2677418449573893
3712.712712712713 0.2651145590032684
3722.7227227227227 0.26251929143009717
3732.7327327327325 0.2599555772352424
3742.742742742743 0.25742295926735037
3752.7527527527527 0.2549209880733382
3762.7627627627626 0.2524492217488322
3772.772772772773 0.2500072257919678
3782.7827827827828 0.24759457296046494
3792.7927927927926 0.24521084313189712
3802.802802802803 0.24285562316707462
3812.812812812813 0.24052850677646256
3822.8228228228227 0.2382290943895561
3832.832832832833 0.2359569930271413
3842.842842842843 0.2337118161763643
3852.8528528528527 0.23149318366854227
3862.862862862863 0.22930072155964323
3872.872872872873 0.22713406201337075
3882.8828828828828 0.2249928431867829
3892.892892892893 0.22287670911839016
3902.902902902903 0.22078530961866036
3912.912912912913 0.21871830016287694
3922.922922922923 0.21667534178628925
3932.932932932933 0.21465610098149962
3942.942942942943 0.21266024959802812
3952.9529529529527 0.21068746474400413
3962.962962962963 0.2087374286899323
3972.972972972973 0.20680982877447954
3982.982982982983 0.2049043573122352
3992.992992992993 0.20302071150339468
4003.003003003003 0.20115859334532363
4013.013013013013 0.1993177095459509
4023.023023023023 0.19749777143895103
4033.033033033033 0.1956984949006712
4043.043043043043 0.19391960026876104
4053.053053053053 0.19216081226246487
4063.063063063063 0.1904218599045364
4073.073073073073 0.188702476444738
4083.0830830830832 0.1870023992848867
4093.093093093093 0.18532136990541112
4103.103103103103 0.18365913379338322
4113.113113113113 0.18201544037199183
4123.123123123123 0.1803900429314224
4133.133133133133 0.17878269856111295
4143.143143143143 0.17719316808335317
4153.153153153153 0.17562121598819622
4163.163163163163 0.1740666103696526
4173.173173173173 0.172529122863139
4183.183183183183 0.17100852858415144
4193.193193193193 0.16950460606813642
4203.203203203203 0.16801713721153286
4213.213213213214 0.16654590721395976
4223.223223223224 0.16509070452152189
4233.2332332332335 0.16365132077121078
4243.243243243243 0.16222755073637612
4253.253253253253 0.16081919227324384
4263.263263263263 0.15942604626845874
4273.273273273273 0.15804791658762818
4283.283283283283 0.15668461002484624
4293.293293293293 0.15533593625317701
4303.303303303303 0.15400170777607522
4313.313313313313 0.152681739879726
4323.323323323323 0.15137585058628167
4333.333333333334 0.15008386060797957
4343.343343343344 0.14880559330211926
4353.353353353354 0.14754087462688278
4363.3633633633635 0.14628953309797918
4373.373373373373 0.14505139974609738
4383.383383383383 0.14382630807514854
4393.393393393393 0.14261409402128297
4403.403403403403 0.14141459591266542
4413.413413413413 0.14022765442999144
4423.423423423424 0.13905311256773198
4433.4334334334335 0.1378908155960895
4443.443443443443 0.13674061102365098
4453.453453453454 0.13560234856072426
4463.463463463464 0.13447588008334527
4473.473473473474 0.13336105959793712
4483.483483483484 0.1322577432066157
4493.493493493494 0.13116578907312157
4503.503503503503 0.13008505738936965
4513.513513513513 0.12901541034260372
4523.523523523523 0.12795671208314122
4533.533533533533 0.12690882869270087
4543.543543543543 0.12587162815329667
4553.553553553554 0.12484498031669077
4563.563563563564 0.12382875687439224
4573.573573573573 0.12282283132819141
4583.583583583584 0.12182707896121917
4593.593593593594 0.12084137680952131
4603.603603603604 0.1198656036341366
4613.613613613614 0.11889963989367076
4623.623623623624 0.11794336771735404
4633.6336336336335 0.11699667087857557
4643.643643643643 0.11605943476888357
4653.653653653653 0.11513154637244244
4663.663663663663 0.11421289424093879
4673.673673673674 0.11330336846892694
4683.683683683684 0.11240286066960606
4693.693693693694 0.11151126395101947
4703.703703703704 0.11062847289266957
4713.713713713714 0.1097543835225396
4723.723723723724 0.10888889329451405
4733.733733733734 0.10803190106619069
4743.743743743744 0.10718330707707731
4753.753753753754 0.10634301292716415
4763.763763763764 0.10551092155586705
4773.773773773773 0.104686937221332
4783.783783783783 0.10387096548009672
4793.793793793793 0.10306291316710035
4803.803803803804 0.10226268837603585
4813.813813813814 0.10147020044003886
4823.823823823824 0.10068535991270569
4833.833833833834 0.09990807854943502
4843.843843843844 0.09913826928908788
4853.853853853854 0.09837584623595781
4863.863863863864 0.09762072464204825
4873.873873873874 0.09687282088964885
4883.883883883884 0.09613205247420731
4893.893893893894 0.09539833798748965
4903.9039039039035 0.09467159710102452
4913.913913913913 0.09395175054982575
4923.923923923924 0.09323872011638848
4933.933933933934 0.0925324286149539
4943.943943943944 0.09183279987603646
4953.953953953955 0.09113975873121061
4963.9639639639645 0.09045323099815128
4973.973973973974 0.08977314346592263
4983.983983983984 0.08909942388051274
4993.993993993994 0.08843200093060756
5004.004004004004 0.08777080423360095
5014.014014014014 0.08711576432183658
5024.024024024024 0.08646681262907634
5034.0340340340335 0.08582388147719315
5044.044044044043 0.08518690406308177
5054.054054054054 0.0845558144457856
5064.064064064064 0.08393054753383462
5074.074074074074 0.08331103907279074
5084.084084084085 0.08269722563299685
5094.0940940940945 0.08208904459752682
5104.104104104104 0.08148643415033077
5114.114114114114 0.08088933326457448
5124.124124124124 0.08029768169116795
5134.134134134134 0.0797114199474803
5144.144144144144 0.07913048930623721
5154.154154154154 0.07855483178459871
5164.1641641641645 0.07798439013341267
5174.174174174174 0.07741910782664234
5184.184184184184 0.07685892905096342
5194.194194194194 0.07630379869552881
5204.204204204204 0.07575366234189791
5214.214214214214 0.07520846625412661
5224.224224224225 0.07466815736901646
5234.2342342342345 0.07413268328651944
5244.244244244244 0.07360199226029546
5254.254254254254 0.07307603318842083
5264.264264264264 0.07255475560424371
5274.274274274274 0.07203810966738552
5284.284284284285 0.0715260461548843
5294.294294294295 0.0710185164524786
5304.304304304304 0.07051547254602869
5314.314314314314 0.07001686701307369
5324.324324324324 0.06952265301452082
5334.334334334334 0.06903278428646606
5344.344344344345 0.06854721513214272
5354.354354354355 0.06806590041399654
5364.3643643643645 0.06758879554588433
5374.374374374374 0.06711585648539502
5384.384384384384 0.06664703972628994
5394.394394394394 0.06618230229106138
5404.404404404404 0.06572160172360622
5414.414414414415 0.06526489608201377
5424.424424424425 0.06481214393146535
5434.4344344344345 0.06436330433724319
5444.444444444444 0.06391833685784792
5454.454454454454 0.06347720153822216
5464.464464464464 0.06303985890307805
5474.474474474475 0.06260626995032773
5484.484484484485 0.06217639614461455
5494.494494494495 0.06175019941094318
5504.504504504504 0.06132764212840784
5514.514514514514 0.06090868712401531
5524.524524524524 0.06049329766660316
5534.534534534535 0.060081437460850054
5544.544544544545 0.05967307064137711
5554.554554554555 0.05926816176693897
5564.5645645645645 0.05886667581470274
5574.574574574574 0.05846857817461375
5584.584584584584 0.05807383464384606
5594.594594594595 0.05768241142133678
5604.604604604605 0.0572942751024032
5614.614614614615 0.056909392673439814
5624.624624624625 0.056527731506695905
5634.6346346346345 0.05614925935513095
5644.644644644644 0.055773944347346956
5654.654654654654 0.055401754982596814
5664.664664664665 0.05503266012586652
5674.674674674675 0.05466662900303154
5684.684684684685 0.05430363119608416
5694.694694694695 0.05394363663843237
5704.704704704704 0.053586615610268215
5714.714714714714 0.05323253873400465
5724.724724724725 0.0528813769697798
5734.734734734735 0.052533101611027616
5744.744744744745 0.05218768428011371
5754.754754754755 0.051845096924035196
5764.764764764765 0.05150531181018394
5774.774774774774 0.051168301522171826
5784.784784784785 0.05083403895571685
5794.794794794795 0.05050249731458974
5804.804804804805 0.050173650106619276
5814.814814814815 0.04984747113975616
5824.824824824825 0.0495239345181939
5834.8348348348345 0.0492030146385459
5844.844844844845 0.048884686186078434
5854.854854854855 0.04856892413099761
5864.864864864865 0.048255703724790204
5874.874874874875 0.047945000496617346
5884.884884884885 0.0476367902497601
5894.894894894895 0.04733104905811602
5904.9049049049045 0.04702775326274628
5914.914914914915 0.04672687946847202
5924.924924924925 0.04642840454051975
5934.934934934935 0.04613230560121415
5944.944944944945 0.045838560026718815
5954.954954954955 0.045547145443822656
5964.964964964965 0.04525803972677258
5974.974974974975 0.04497122099415086
5984.984984984985 0.04468666760579693
5994.994994994995 0.04440435815977264
6005.005005005005 0.04412427148937042
6015.015015015015 0.043846386660163786
6025.025025025025 0.04357068296709938
6035.035035035035 0.04329713993162969
6045.045045045045 0.04302573729888648
6055.055055055055 0.04275645503489341
6065.065065065065 0.042489273323818015
6075.075075075075 0.04222417256526194
6085.085085085085 0.041961133371589056
6095.0950950950955 0.04170013656529088
6105.105105105105 0.041441163176388573
6115.115115115115 0.04118419443987106
6125.125125125125 0.040929211793168635
6135.135135135135 0.04067619687366182
6145.145145145145 0.04042513151622429
6155.155155155155 0.04017599775080008
6165.1651651651655 0.03992877780001397
6175.175175175175 0.03968345407681496
6185.185185185185 0.03944000918215188
6195.195195195195 0.03919842590268127
6205.205205205205 0.038958687208506336
6215.215215215215 0.038720776250946935
6225.225225225226 0.03848467636034026
6235.235235235235 0.03825037104387112
6245.245245245245 0.03801784398343217
6255.255255255255 0.037787079033513055
6265.265265265265 0.037558060219118075
6275.275275275275 0.03733077173371249
6285.285285285286 0.0371051979371962
6295.295295295296 0.036881323353905156
