#lamb flux
1000.0 3.319324053797713e+38
1010.01001001001 3.3789913657367823e+38
1020.0200200200201 3.429659348941405e+38
1030.03003003003 3.471794807632952e+38
1040.0400400400401 3.505903973564445e+38
1050.05005005005 3.532518268990504e+38
1060.06006006006 3.552182125047677e+38
1070.07007007007 3.5654427597103465e+38
1080.08008008008 3.572841775449287e+38
1090.0900900900901 3.574908410039916e+38
1100.1001001001 3.572154260881489e+38
1110.11011011011 3.5650693003769206e+38
1120.1201201201202 3.554119004560141e+38
1130.13013013013 3.5397424269174256e+38
1140.1401401401401 3.5223510623683785e+38
1150.1501501501502 3.502328361205387e+38
1160.16016016016 3.4800297683473756e+38
1170.1701701701702 3.455783178753126e+38
1180.1801801801803 3.4298897147109245e+38
1190.1901901901902 3.4026247446150064e+38
1200.2002002002002 3.3742390755434825e+38
1210.2102102102103 3.3449602633641496e+38
1220.2202202202202 3.314993994192276e+38
1230.2302302302303 3.2845254998414844e+38
1240.2402402402402 3.25372097751657e+38
1250.2502502502502 3.2224968637985785e+38
1260.2602602602603 3.1903097948724635e+38
1270.2702702702702 3.1560956405027856e+38
1280.2802802802803 3.1200814539390494e+38
1290.2902902902902 3.0824807934823758e+38
1300.3003003003003 3.0434938578482897e+38
1310.3103103103103 3.003307726805065e+38
1320.3203203203202 2.9620966869722924e+38
1330.3303303303303 2.92002262507476e+38
1340.3403403403404 2.877235473187352e+38
1350.3503503503503 2.833873692567982e+38
1360.3603603603603 2.7900647845539753e+38
1370.3703703703704 2.7459258186946528e+38
1380.3803803803803 2.7015639698149835e+38
1390.3903903903904 2.657077057060345e+38
1400.4004004004005 2.6125540791709155e+38
1410.4104104104103 2.5680757412871994e+38
1420.4204204204204 2.523714969507647e+38
1430.4304304304305 2.4795374102168848e+38
1440.4404404404404 2.4356019118909068e+38
1450.4504504504505 2.391960987674348e+38
1460.4604604604606 2.348661257526143e+38
1470.4704704704704 2.3057438691526875e+38
1480.4804804804805 2.263244897302124e+38
1490.4904904904906 2.221195721287473e+38
1500.5005005005005 2.1796233808482322e+38
1510.5105105105106 2.1385509106566095e+38
1520.5205205205207 2.097997653932156e+38
1530.5305305305305 2.057979555752854e+38
1540.5405405405404 2.018509436746881e+38
1550.5505505505505 1.9795972479217734e+38
1560.5605605605606 1.9412503074404798e+38
1570.5705705705705 1.9034735201907602e+38
1580.5805805805805 1.8662695810182414e+38
1590.5905905905906 1.8296391625075092e+38
1600.6006006006005 1.7935810882021624e+38
1610.6106106106106 1.7580924921563094e+38
1620.6206206206207 1.7231689657084594e+38
1630.6306306306305 1.6888046923664813e+38
1640.6406406406406 1.6549925716907413e+38
1650.6506506506507 1.621724333064066e+38
1660.6606606606606 1.58899064024294e+38
1670.6706706706707 1.5567811875969615e+38
1680.6806806806808 1.5250847889642425e+38
1690.6906906906906 1.4938894600815957e+38
1700.7007007007007 1.4631879388716757e+38
1710.7107107107108 1.4329881304506813e+38
1720.7207207207207 1.4032724704789005e+38
1730.7307307307308 1.3740205169730996e+38
1740.7407407407409 1.3452120795830742e+38
1750.7507507507507 1.3168272266164651e+38
1760.7607607607606 1.2888462996222184e+38
1770.770770770771 1.2612499370100136e+38
1780.7807807807808 1.2340191084270156e+38
1790.7907907907907 1.2071351618817247e+38
1800.8008008008007 1.1805798858939036e+38
1810.8108108108108 1.1543355892524385e+38
1820.8208208208207 1.1283852012678247e+38
1830.8308308308308 1.1027123956946687e+38
1840.8408408408409 1.0773017417453972e+38
1850.8508508508507 1.0521388857820824e+38
1860.8608608608608 1.0272107673078506e+38
1870.870870870871 1.0025058727159382e+38
1880.8808808808808 9.780145298077915e+37
1890.890890890891 9.537292452569188e+37
1900.900900900901 9.296450858494596e+37
1910.9109109109108 9.057601023381554e+37
1920.920920920921 8.820757919624037e+37
1930.930930930931 8.585975919846087e+37
1940.940940940941 8.3533539188357235e+37
1950.950950950951 8.123040461178154e+37
1960.960960960961 7.895238627404389e+37
1970.970970970971 7.670210359097325e+37
1980.980980980981 7.448279830326993e+37
1990.9909909909911 7.229835407205622e+37
2001.001001001001 7.015329690366173e+37
2011.0110110110109 6.805277120317161e+37
2021.0210210210212 6.6002486575869915e+37
2031.031031031031 6.400863141876323e+37
2041.0410410410411 6.20777509630247e+37
2051.051051051051 6.02165897545945e+37
2061.061061061061 5.843190149247346e+37
2071.071071071071 5.673023244679485e+37
2081.081081081081 5.511768798772331e+37
2091.091091091091 5.359969461897261e+37
2101.101101101101 5.218077185697044e+37
2111.1111111111113 5.086432893553199e+37
2121.121121121121 4.965250042127767e+37
2131.131131131131 4.854603240297585e+37
2141.141141141141 4.754422721956454e+37
2151.151151151151 4.66449501703545e+37
2161.161161161161 4.584469687509522e+37
2171.1711711711714 4.513871549603663e+37
2181.1811811811813 4.452117438147674e+37
2191.191191191191 4.398536316424396e+37
2201.201201201201 4.352391408876289e+37
2211.2112112112113 4.312903031455983e+37
2221.221221221221 4.279270898518514e+37
2231.2312312312315 4.25069487051419e+37
2241.2412412412414 4.2263933438883316e+37
2251.2512512512512 4.2056187440955004e+37
2261.261261261261 4.1876698382212924e+37
2271.271271271271 4.171900814414974e+37
2281.2812812812813 4.157727266690204e+37
2291.2912912912916 4.14462936788035e+37
2301.3013013013015 4.1321526090050315e+37
2311.3113113113113 4.119906533329169e+37
2321.321321321321 4.107561904716019e+37
2331.331331331331 4.094846731082529e+37
2341.3413413413414 4.0815415239068147e+37
2351.3513513513512 4.067474122248125e+37
2361.3613613613616 4.0525143517610337e+37
2371.3713713713714 4.0365687312408564e+37
2381.3813813813813 4.01957538519875e+37
2391.391391391391 4.001499273213508e+37
2401.4014014014015 3.9823278065017675e+37
2411.4114114114113 3.9620668895290245e+37
2421.4214214214217 3.9407373991622354e+37
2431.4314314314315 3.918372095071136e+37
2441.4414414414414 3.895012941863036e+37
2451.4514514514512 3.8707088147813587e+37
2461.4614614614616 3.8455135557518244e+37
2471.4714714714714 3.8194843442625174e+37
2481.4814814814818 3.792680347278517e+37
2491.4914914914916 3.765161613513024e+37
2501.5015015015015 3.7369881794227584e+37
2511.5115115115113 3.7082193568946646e+37
2521.521521521521 3.678913175466245e+37
2531.5315315315315 3.649125954873476e+37
2541.541541541542 3.6189119866103346e+37
2551.5515515515517 3.5883233059218375e+37
2561.5615615615616 3.557409538184265e+37
2571.5715715715714 3.5262178059237032e+37
2581.5815815815813 3.4947926847779193e+37
2591.5915915915916 3.463176198520663e+37
2601.6016016016015 3.4314078448530846e+37
2611.611611611612 3.3995246450413147e+37
2621.6216216216217 3.3675612116611894e+37
2631.6316316316315 3.335549829720994e+37
2641.6416416416414 3.3035205472909927e+37
2651.6516516516517 3.271501272492981e+37
2661.6616616616616 3.2395178743122694e+37
2671.671671671672 3.2075942852038043e+37
2681.6816816816818 3.1757526038883593e+37
2691.6916916916916 3.144013197086104e+37
2701.7017017017015 3.1123947992248086e+37
2711.711711711712 3.0809146093978306e+37
2721.7217217217217 3.0495883850412915e+37
2731.731731731732 3.0184305319574627e+37
2741.741741741742 2.987454190438648e+37
2751.7517517517517 2.956671317347537e+37
2761.7617617617616 2.9260927640909005e+37
2771.7717717717715 2.8957283504868616e+37
2781.781781781782 2.8655869345752515e+37
2791.791791791792 2.8356764784580533e+37
2801.801801801802 2.806004110284909e+37
2811.811811811812 2.776576182518982e+37
2821.8218218218217 2.747398326632506e+37
2831.8318318318316 2.718475504390322e+37
2841.841841841842 2.6898120558848744e+37
2851.851851851852 2.661411744487916e+37
2861.861861861862 2.6332777988837397e+37
2871.871871871872 2.605412952346245e+37
2881.881881881882 2.577819479418337e+37
2891.8918918918916 2.550499230147233e+37
2901.901901901902 2.5234536620235124e+37
2911.911911911912 2.496683869765687e+37
2921.921921921922 2.4701906130854243e+37
2931.931931931932 2.4439743425620157e+37
2941.941941941942 2.418035223747876e+37
2951.9519519519517 2.392373159620245e+37
2961.961961961962 2.366987811487727e+37
2971.971971971972 2.3418786184538816e+37
2981.9819819819822 2.317044815533994e+37
2991.991991991992 2.2924854505151887e+37
3002.002002002002 2.268199399644403e+37
3012.012012012012 2.2441853822233865e+37
3022.0220220220217 2.2204419741847237e+37
3032.032032032032 2.2051155548710385e+37
3042.0420420420423 2.18083898779876e+37
3052.052052052052 2.1565595299068245e+37
3062.062062062062 2.1323572167151553e+37
3072.072072072072 2.1082995510607612e+37
3082.0820820820823 2.0844429175047653e+37
3092.092092092092 2.0608338768314025e+37
3102.102102102102 2.037510344358684e+37
3112.1121121121123 2.0145026573409923e+37
3122.122122122122 1.9918345377640018e+37
3132.132132132132 1.9695239574332045e+37
3142.1421421421423 1.9475839125379114e+37
3152.152152152152 1.9260231149134562e+37
3162.162162162162 1.9048466070902848e+37
3172.1721721721724 1.8840563079606813e+37
3182.1821821821823 1.8636514955525828e+37
3192.192192192192 1.8436292330063242e+37
3202.202202202202 1.8239847434280408e+37
3212.2122122122123 1.8047117388606552e+37
3222.222222222222 1.7858027081830808e+37
3232.232232232232 1.7672491683297563e+37
3242.2422422422424 1.7490418828224157e+37
3252.252252252252 1.7311710512281544e+37
3262.262262262262 1.713626472804934e+37
3272.2722722722724 1.6963976872688043e+37
3282.2822822822823 1.6794740953164255e+37
3292.292292292292 1.6628450612616202e+37
3302.3023023023025 1.64649999989453e+37
3312.3123123123123 1.6304284494453592e+37
3322.322322322322 1.6146201323301082e+37
3332.3323323323325 1.599065005171501e+37
3342.3423423423424 1.5837532994230587e+37
3352.352352352352 1.568675553776078e+37
3362.3623623623625 1.5538226393969693e+37
3372.3723723723724 1.5391857789241073e+37
3382.3823823823823 1.5247565600479292e+37
3392.3923923923926 1.51052694440425e+37
3402.4024024024025 1.4964892724270692e+37
3412.4124124124123 1.4826362647329371e+37
3422.4224224224226 1.4689610205428672e+37
3432.4324324324325 1.4554570135890627e+37
3442.4424424424424 1.4421180859015753e+37
3452.4524524524522 1.4289384398236753e+37
3462.4624624624626 1.4159126285634997e+37
3472.4724724724724 1.4030355455529875e+37
3482.4824824824823 1.3903024128524937e+37
3492.4924924924926 1.3777087688106274e+37
3502.5025025025025 1.3652504551630256e+37
3512.5125125125123 1.3529236037309237e+37
3522.5225225225226 1.340724622859953e+37
3532.5325325325325 1.3286501837214278e+37
3542.5425425425424 1.3166972065822137e+37
3552.5525525525527 1.3048628471348156e+37
3562.5625625625626 1.2931444829664824e+37
3572.5725725725724 1.2815397002346446e+37
3582.5825825825827 1.2700462806057996e+37
3592.5925925925926 1.2586621885058216e+37
3602.6026026026025 1.247385558721581e+37
3612.612612612613 1.2362146843865262e+37
3622.6226226226227 1.2251480053764292e+37
3632.6326326326325 1.2141840971358178e+37
3642.642642642643 1.2033216599505272e+37
3652.6526526526527 1.1925595086773118e+37
3662.6626626626626 1.1818965629374843e+37
3672.672672672673 1.1713318377780893e+37
3682.6826826826828 1.1608644348009898e+37
3692.6926926926926 1.1504935337576014e+37
3702.7027027027025 1.1402183846046429e+37
3712.712712712713 1.1300383000142544e+37
3722.7227227227227 1.1199526483301071e+37
3732.7327327327325 1.109960846959586e+37
3742.742742742743 1.1000623561909589e+37
3752.7527527527527 1.090256673423316e+37
3762.7627627627626 1.0805433277962604e+37
3772.772772772773 1.0709218752056335e+37
3782.7827827827828 1.0613918936910095e+37
3792.7927927927926 1.0519529791803211e+37
3802.802802802803 1.0426047415766997e+37
3812.812812812813 1.0333468011724369e+37
3822.8228228228227 1.0241787853749423e+37
3832.832832832833 1.0151003257295601e+37
3842.842842842843 1.0061110552242372e+37
3852.8528528528527 9.972106058611809e+36
3862.862862862863 9.883986064808831e+36
3872.872872872873 9.796746808241641e+36
3882.8828828828828 9.710384458181876e+36
3892.892892892893 9.624895100728025e+36
3902.902902902903 9.540274725738941e+36
3912.912912912913 9.456519215608918e+36
3922.922922922923 9.373624335759783e+36
3932.932932932933 9.291585726730309e+36
3942.942942942943 9.21039889774735e+36
3952.9529529529527 9.130059221668292e+36
3962.962962962963 9.050561931188939e+36
3972.972972972973 8.971902116215565e+36
3982.982982982983 8.894074722304856e+36
3992.992992992993 8.817074550079995e+36
4003.003003003003 8.740896255536042e+36
4013.013013013013 8.665534351151843e+36
4023.023023023023 8.590983207730897e+36
4033.033033033033 8.517237056897391e+36
4043.043043043043 8.444289994178255e+36
4053.053053053053 8.372135982606169e+36
4063.063063063063 8.300768856782415e+36
4073.073073073073 8.230182327342493e+36
4083.0830830830832 8.160369985771084e+36
4093.093093093093 8.091325309516643e+36
4103.103103103103 8.023041667359294e+36
4113.113113113113 7.955512324989171e+36
4123.123123123123 7.888730450755266e+36
4133.133133133133 7.822689121548252e+36
4143.143143143143 7.757381328783328e+36
4153.153153153153 7.692799984451987e+36
4163.163163163163 7.62893792721422e+36
4173.173173173173 7.565787928505188e+36
4183.183183183183 7.50334269863259e+36
4193.193193193193 7.441594892843265e+36
4203.203203203203 7.380537117339555e+36
4213.213213213214 7.320161935228056e+36
4223.223223223224 7.260461872384963e+36
4233.2332332332335 7.201429423224098e+36
4243.243243243243 7.143057056355343e+36
4253.253253253253 7.08533722012251e+36
4263.263263263263 7.028262348011266e+36
4273.273273273273 6.971824863918851e+36
4283.283283283283 6.91601718727868e+36
4293.293293293293 6.860831738033925e+36
4303.303303303303 6.806260941455196e+36
4313.313313313313 6.752297232798513e+36
4323.323323323323 6.698933061800411e+36
4333.333333333334 6.646160897008053e+36
4343.343343343344 6.593973229942806e+36
4353.353353353354 6.542362579096407e+36
4363.3633633633635 6.491321493759568e+36
4373.373373373373 6.440842557683256e+36
4383.383383383383 6.390918392573541e+36
4393.393393393393 6.341541661421234e+36
4403.403403403403 6.292705071667982e+36
4413.413413413413 6.244401378210863e+36
4423.423423423424 6.196623386247855e+36
4433.4334334334335 6.149363953966749e+36
4443.443443443443 6.102615995080415e+36
4453.453453453454 6.056372481211502e+36
4463.463463463464 6.01062644412992e+36
4473.473473473474 5.965370977846335e+36
4483.483483483484 5.920599240565524e+36
4493.493493493494 5.876304456503012e+36
4503.503503503503 5.832479917568902e+36
4513.513513513513 5.789118984922685e+36
4523.523523523523 5.746215090402868e+36
4533.533533533533 5.703761737835421e+36
4543.543543543543 5.661752504224888e+36
4553.553553553554 5.620181040832121e+36
4563.563563563564 5.579041074142635e+36
4573.573573573573 5.538326406729366e+36
4583.583583583584 5.498030918013838e+36
4593.593593593594 5.458148564929526e+36
4603.603603603604 5.418673382491207e+36
4613.613613613614 5.379599484274109e+36
4623.623623623624 5.340921062806467e+36
4633.6336336336335 5.3026323898791965e+36
4643.643643643643 5.264727816776228e+36
4653.653653653653 5.227201774428942e+36
4663.663663663663 5.190048773498203e+36
4673.673673673674 5.1532634043872645e+36
4683.683683683684 5.1168403371888824e+36
4693.693693693694 5.0807743215697115e+36
4703.703703703704 5.045060186595188e+36
4713.713713713714 5.009692840497856e+36
4723.723723723724 4.9746672703920606e+36
4733.733733733734 4.939978541937866e+36
4743.743743743744 4.905621798956996e+36
4753.753753753754 4.871592263003366e+36
4763.763763763764 4.837885232890934e+36
4773.773773773773 4.804496084181219e+36
4783.783783783783 4.771420268633097e+36
4793.793793793793 4.738653313617012e+36
4803.803803803804 4.7061908214960245e+36
4813.813813813814 4.6740284689757953e+36
4823.823823823824 4.642162006425609e+36
4833.833833833834 4.610587257172501e+36
4843.843843843844 4.579300116770405e+36
4853.853853853854 4.548296552246188e+36
4863.863863863864 4.5175726013244055e+36
4873.873873873874 4.487124371632486e+36
4883.883883883884 4.456948039888034e+36
4893.893893893894 4.427039851069789e+36
4903.9039039039035 4.397396117573852e+36
4913.913913913913 4.3680132183565774e+36
4923.923923923924 4.3388875980655554e+36
4933.933933933934 4.310015766160085e+36
4943.943943943944 4.2813942960222786e+36
4953.953953953955 4.2530198240602194e+36
4963.9639639639645 4.2248890488041905e+36
4973.973973973974 4.196998729997154e+36
4983.983983983984 4.169345687680572e+36
4993.993993993994 4.1419268012765395e+36
5004.004004004004 4.11473900866723e+36
5014.014014014014 4.0877793052725856e+36
5024.024024024024 4.061044743127071e+36
5034.0340340340335 4.0345324299564324e+36
5044.044044044043 4.008239528255128e+36
5054.054054054054 3.982163254365282e+36
5064.064064064064 3.9563008775578305e+36
5074.074074074074 3.9306497191165227e+36
5084.084084084085 3.905207151425436e+36
5094.0940940940945 3.8799705970606385e+36
5104.104104104104 3.854937527886465e+36
5114.114114114114 3.830105464157074e+36
5124.124124124124 3.8054719736236856e+36
5134.134134134134 3.7810346706480363e+36
5144.144144144144 3.756791215322464e+36
5154.154154154154 3.732739312597044e+36
5164.1641641641645 3.7088767114142006e+36
5174.174174174174 3.685201203851098e+36
5184.184184184184 3.6617106242702053e+36
5194.194194194194 3.638402848478317e+36
5204.204204204204 3.615275792894355e+36
5214.214214214214 3.592327413726173e+36
5224.224224224225 3.569555706156667e+36
5234.2342342342345 3.5469587035393946e+36
5244.244244244244 3.524534476603894e+36
5254.254254254254 3.502281132670954e+36
5264.264264264264 3.480196814877935e+36
5274.274274274274 3.458279701414369e+36
5284.284284284285 3.4365280047679105e+36
5294.294294294295 3.4149399709808385e+36
5304.304304304304 3.393513878917132e+36
5314.314314314314 3.3722480395403087e+36
5324.324324324324 3.351140795202028e+36
5334.334334334334 3.330190518941589e+36
5344.344344344345 3.309395613796323e+36
5354.354354354355 3.2887545121229996e+36
5364.3643643643645 3.26826567493019e+36
5374.374374374374 3.2479275912216935e+36
5384.384384384384 3.227738777350983e+36
5394.394394394394 3.207697776386707e+36
5404.404404404404 3.1878031574892164e+36
5414.414414414415 3.168053515298117e+36
5424.424424424425 3.148447469330831e+36
5434.4344344344345 3.1289836633921017e+36
5444.444444444444 3.1096607649944403e+36
5454.454454454454 3.090477464789459e+36
5464.464464464464 3.071432476010016e+36
5474.474474474475 3.0525245339231415e+36
5484.484484484485 3.033752395293662e+36
5494.494494494495 3.0151148378584526e+36
5504.504504504504 2.9966106598112545e+36
5514.514514514514 2.978238679297951e+36
5524.524524524524 2.959997733922252e+36
5534.534534534535 2.9418866802616525e+36
5544.544544544545 2.9239043933936104e+36
5554.554554554555 2.906049766431812e+36
5564.5645645645645 2.888321710072451e+36
5574.574574574574 2.870719152150388e+36
5584.584584584584 2.853241037205115e+36
5594.594594594595 2.8358863260563555e+36
5604.604604604605 2.818653995389284e+36
5614.614614614615 2.801543037349114e+36
5624.624624624625 2.784552459145064e+36
5634.6346346346345 2.7676812826635004e+36
5644.644644644644 2.7509285440901574e+36
5654.654654654654 2.7342932935413193e+36
5664.664664664665 2.717774594703805e+36
5674.674674674675 2.701371524483695e+36
5684.684684684685 2.6850831726635705e+36
5694.694694694695 2.668908641568234e+36
5704.704704704704 2.6528470457387242e+36
5714.714714714714 2.6368975116144996e+36
5724.724724724725 2.62105917722368e+36
5734.734734734735 2.60533119188119e+36
5744.744744744745 2.5897127158946878e+36
5754.754754754755 2.5742029202781245e+36
5764.764764764765 2.5588009864728424e+36
5774.774774774774 2.54350610607603e+36
5784.784784784785 2.5283174805764303e+36
5794.794794794795 2.513234321097166e+36
5804.804804804805 2.498255848145541e+36
5814.814814814815 2.483381291369692e+36
5824.824824824825 2.4686098893219604e+36
5834.8348348348345 2.453940889228843e+36
5844.844844844845 2.4393735467674172e+36
5854.854854854855 2.4249071258480667e+36
5864.864864864865 2.4105408984034226e+36
5874.874874874875 2.3962741441833758e+36
5884.884884884885 2.3821061505560248e+36
