#lamb flux
1000.0 8.274626332412516e+40
1010.01001001001 8.547339516073429e+40
1020.0200200200201 8.81626469806725e+40
1030.03003003003 9.081151686405158e+40
1040.0400400400401 9.34177677577557e+40
1050.05005005005 9.597941303416643e+40
1060.06006006006 9.849470205651245e+40
1070.07007007007 1.0096210589260969e+41
1080.08008008008 1.0338030329210744e+41
1090.0900900900901 1.0574816701907293e+41
1100.1001001001 1.0806475061157777e+41
1110.11011011011 1.103292756226036e+41
1120.1201201201202 1.1254111938175909e+41
1130.13013013013 1.146998033047592e+41
1140.1401401401401 1.1680498176706337e+41
1150.1501501501502 1.18856431549294e+41
1160.16016016016 1.2085404185482139e+41
1170.1701701701702 1.2279780489400595e+41
1180.1801801801803 1.2468780702486463e+41
1190.1901901901902 1.2652422043618281e+41
1200.2002002002002 1.2830729535622582e+41
1210.2102102102103 1.3003735276803044e+41
1220.2202202202202 1.3171477761072048e+41
1230.2302302302303 1.3334001244524317e+41
1240.2402402402402 1.3491355156231363e+41
1250.2502502502502 1.3643445874029353e+41
1260.2602602602603 1.378988358960572e+41
1270.2702702702702 1.3929910341636235e+41
1280.2802802802803 1.4063588759280668e+41
1290.2902902902902 1.4190988306817501e+41
1300.3003003003003 1.4312184627743548e+41
1310.3103103103103 1.4427258923759535e+41
1320.3203203203202 1.4536297367797646e+41
1330.3303303303303 1.4639390550137117e+41
1340.3403403403404 1.4736632956564057e+41
1350.3503503503503 1.4828122477464221e+41
1360.3603603603603 1.491395994668543e+41
1370.3703703703704 1.499424870896988e+41
1380.3803803803803 1.5069094214733185e+41
1390.3903903903904 1.5138603640954401e+41
1400.4004004004005 1.5202885536937624e+41
1410.4104104104103 1.5262049493710896e+41
1420.4204204204204 1.5316205835839157e+41
1430.4304304304305 1.5365465334444256e+41
1440.4404404404404 1.5409938940246909e+41
1450.4504504504505 1.5449737535469018e+41
1460.4604604604606 1.5484971703463378e+41
1470.4704704704704 1.5515751514966177e+41
1480.4804804804805 1.5542186329899728e+41
1490.4904904904906 1.5564384613684533e+41
1500.5005005005005 1.5582453767053126e+41
1510.5105105105106 1.559649996839146e+41
1520.5205205205207 1.5606628027667604e+41
1530.5305305305305 1.5612941251041148e+41
1540.5405405405404 1.5615541315281165e+41
1550.5505505505505 1.5614528151154668e+41
1560.5605605605606 1.5609999834982178e+41
1570.5705705705705 1.5602052487592784e+41
1580.5805805805805 1.5590780179947096e+41
1590.5905905905906 1.5576274844735135e+41
1600.6006006006005 1.5558626193296385e+41
1610.6106106106106 1.553792163725391e+41
1620.6206206206207 1.5514246214302596e+41
1630.6306306306305 1.5487682517647053e+41
1640.6406406406406 1.5458310628647326e+41
1650.6506506506507 1.5426208052304835e+41
1660.6606606606606 1.5391449655307656e+41
1670.6706706706707 1.5354107606458457e+41
1680.6806806806808 1.5314251319434441e+41
1690.6906906906906 1.527194739798055e+41
1700.7007007007007 1.5227268096235708e+41
1710.7107107107108 1.5180308544885054e+41
1720.7207207207207 1.5131123022286078e+41
1730.7307307307308 1.5079758561186872e+41
1740.7407407407409 1.5026259699069885e+41
1750.7507507507507 1.4970668431621654e+41
1760.7607607607606 1.4913024178067423e+41
1770.770770770771 1.4853363761782843e+41
1780.7807807807808 1.4791721410461537e+41
1790.7907907907907 1.4728128781153e+41
1800.8008008008007 1.4662615016708859e+41
1810.8108108108108 1.459520684160901e+41
1820.8208208208207 1.452592870679708e+41
1830.8308308308308 1.4454802995043774e+41
1840.8408408408409 1.438185030046753e+41
1850.8508508508507 1.4307089798143137e+41
1860.8608608608608 1.4230539722151253e+41
1870.870870870871 1.4152217972847416e+41
1880.8808808808808 1.4072142876370069e+41
1890.890890890891 1.3990334121182675e+41
1900.900900900901 1.3906813897359818e+41
1910.9109109109108 1.3821608263838262e+41
1920.920920920921 1.3734748766261312e+41
1930.930930930931 1.3646274322469478e+41
1940.940940940941 1.3556233383100284e+41
1950.950950950951 1.3464686360015714e+41
1960.960960960961 1.3371708294248788e+41
1970.970970970971 1.3277391706920939e+41
1980.980980980981 1.3181849540690597e+41
1990.9909909909911 1.3085218056190758e+41
2001.001001001001 1.2987659499393769e+41
2011.0110110110109 1.288936430554066e+41
2021.0210210210212 1.2790552559070293e+41
2031.031031031031 1.2691474395115537e+41
2041.0410410410411 1.2592409016826637e+41
2051.051051051051 1.249366202515761e+41
2061.061061061061 1.2395560823891802e+41
2071.071071071071 1.2298447978928338e+41
2081.081081081081 1.2202672576706214e+41
2091.091091091091 1.2108579832062849e+41
2101.101101101101 1.20164994198958e+41
2111.1111111111113 1.1926733217038337e+41
2121.121121121121 1.1839543304460214e+41
2131.131131131131 1.1755141160237532e+41
2141.141141141141 1.1673678945309195e+41
2151.151151151151 1.1595243638631808e+41
2161.161161161161 1.151985452911352e+41
2171.1711711711714 1.1447464252248183e+41
2181.1811811811813 1.1377963217390335e+41
2191.191191191191 1.1311186958740735e+41
2201.201201201201 1.1246925703799382e+41
2211.2112112112113 1.1184935315702349e+41
2221.221221221221 1.1124948738610741e+41
2231.2312312312315 1.106668714696693e+41
2241.2412412412414 1.1009870144661975e+41
2251.2512512512512 1.095422454689582e+41
2261.261261261261 1.0899491474145789e+41
2271.271271271271 1.084543166844168e+41
2281.2812812812813 1.0791829090014937e+41
2291.2912912912916 1.0738492959319973e+41
2301.3013013013015 1.0685258475015704e+41
2311.3113113113113 1.0631986467655108e+41
2321.321321321321 1.0578562249344969e+41
2331.331331331331 1.0524893900119445e+41
2341.3413413413414 1.0470910200221692e+41
2351.3513513513512 1.0416558380492403e+41
2361.3613613613616 1.036180182549826e+41
2371.3713713713714 1.0306617829121418e+41
2381.3813813813813 1.0250995471902805e+41
2391.391391391391 1.019493366425466e+41
2401.4014014014015 1.0138439379763319e+41
2411.4114114114113 1.0081526087771626e+41
2421.4214214214217 1.0024212383602382e+41
2431.4314314314315 9.96652080741914e+40
2441.4414414414414 9.908476838089828e+40
2451.4514514514512 9.850108045867332e+40
2461.4614614614616 9.791443386668737e+40
2471.4714714714714 9.732512620766215e+40
2481.4814814814818 9.673345839439292e+40
2491.4914914914916 9.613973084308003e+40
2501.5015015015015 9.554424045470398e+40
2511.5115115115113 9.494727826062738e+40
2521.521521521521 9.434912762351329e+40
2531.5315315315315 9.375006289887892e+40
2541.541541541542 9.31503484757895e+40
2551.5515515515517 9.255023812714508e+40
2561.5615615615616 9.194997461065384e+40
2571.5715715715714 9.134978947093788e+40
2581.5815815815813 9.074990300133925e+40
2591.5915915915916 9.015052433099042e+40
2601.6016016016015 8.955185160868702e+40
2611.611611611612 8.895407226017022e+40
2621.6216216216217 8.83573632997032e+40
2631.6316316316315 8.776189168041202e+40
2641.6416416416414 8.716781467085988e+40
2651.6516516516517 8.65752802478117e+40
2661.6616616616616 8.598442749721043e+40
2671.671671671672 8.539538701708426e+40
2681.6816816816818 8.480828131750115e+40
2691.6916916916916 8.422322521382763e+40
2701.7017017017015 8.3640326210476975e+40
2711.711711711712 8.305968487308553e+40
2721.7217217217217 8.248139518766164e+40
2731.731731731732 8.190554490573613e+40
2741.741741741742 8.133221587493302e+40
2751.7517517517517 8.076148435467899e+40
2761.7617617617616 8.019342131701364e+40
2771.7717717717715 7.962809273264193e+40
2781.781781781782 7.906555984251246e+40
2791.791791791792 7.850587941530885e+40
2801.801801801802 7.7949103991314705e+40
2811.811811811812 7.739528211316765e+40
2821.8218218218217 7.684445854404882e+40
2831.8318318318316 7.629667447387559e+40
2841.841841841842 7.575196771407088e+40
2851.851851851852 7.521037288148363e+40
2861.861861861862 7.467192157202477e+40
2871.871871871872 7.413664252457207e+40
2881.881881881882 7.360456177567916e+40
2891.8918918918916 7.307570280560552e+40
2901.901901901902 7.255008667616271e+40
2911.911911911912 7.202773216084968e+40
2921.921921921922 7.15086558677274e+40
2931.931931931932 7.099287235546113e+40
2941.941941941942 7.04803942429331e+40
2951.9519519519517 6.997123231280943e+40
2961.961961961962 6.946539560942109e+40
2971.971971971972 6.896289153129836e+40
2981.9819819819822 6.846372591867846e+40
2991.991991991992 6.796790313628603e+40
3002.002002002002 6.747542615166875e+40
3012.012012012012 6.698629660935203e+40
3022.0220220220217 6.650051490106096e+40
3032.032032032032 6.605481462746239e+40
3042.0420420420423 6.557101566256358e+40
3052.052052052052 6.508930724764459e+40
3062.062062062062 6.461004430521741e+40
3072.072072072072 6.413352939069687e+40
3082.0820820820823 6.366001832910723e+40
3092.092092092092 6.31897253380361e+40
3102.102102102102 6.272282767623599e+40
3112.1121121121123 6.225946985526536e+40
3122.122122122122 6.179976744945199e+40
3132.132132132132 6.13438105373123e+40
3142.1421421421423 6.089166680541303e+40
3152.152152152152 6.044338434354751e+40
3162.162162162162 5.99989941580477e+40
3172.1721721721724 5.955851242807608e+40
3182.1821821821823 5.91219425278567e+40
3192.192192192192 5.868927683601601e+40
3202.202202202202 5.826049835151865e+40
3212.2122122122123 5.783558213410043e+40
3222.222222222222 5.741449658562196e+40
3232.232232232232 5.69972045873881e+40
3242.2422422422424 5.65836645072003e+40
3252.252252252252 5.617383108872198e+40
3262.262262262262 5.576765623464373e+40
3272.2722722722724 5.536508969412361e+40
3282.2822822822823 5.49660796640494e+40
3292.292292292292 5.457057331281332e+40
3302.3023023023025 5.4178517234506445e+40
3312.3123123123123 5.378985784071955e+40
3322.322322322322 5.340454169647883e+40
3332.3323323323325 5.302251580624152e+40
3342.3423423423424 5.264372785532592e+40
3352.352352352352 5.226812641164485e+40
3362.3623623623625 5.189566109215496e+40
3372.3723723723724 5.152628269801151e+40
3382.3823823823823 5.115994332203756e+40
3392.3923923923926 5.079659643176813e+40
3402.4024024024025 5.043619693101119e+40
3412.4124124124123 5.007870120257838e+40
3422.4224224224226 4.972406713457697e+40
3432.4324324324325 4.937225413241213e+40
3442.4424424424424 4.902322311843394e+40
3452.4524524524522 4.86769365209632e+40
3462.4624624624626 4.833335825425245e+40
3472.4724724724724 4.799245369077391e+40
3482.4824824824823 4.765418962707791e+40
3492.4924924924926 4.731853424433237e+40
3502.5025025025025 4.698545706453016e+40
3512.5125125125123 4.665492890324182e+40
3522.5225225225226 4.632692181969068e+40
3532.5325325325325 4.600140906483716e+40
3542.5425425425424 4.567836502807666e+40
3552.5525525525527 4.535776518308205e+40
3562.5625625625626 4.503958603325432e+40
3572.5725725725724 4.472380505718509e+40
3582.5825825825827 4.441040065448054e+40
3592.5925925925926 4.409935209224672e+40
3602.6026026026025 4.379063945249325e+40
3612.612612612613 4.348424358067222e+40
3622.6226226226227 4.3180146035534107e+40
3632.6326326326325 4.2878329040450737e+40
3642.642642642643 4.2578775436327803e+40
3652.6526526526527 4.2281468636203013e+40
3662.6626626626626 4.198639258160462e+40
3672.672672672673 4.1693531700725436e+40
3682.6826826826828 4.1402870868448607e+40
3692.6926926926926 4.1114395368247937e+40
3702.7027027027025 4.08280908559699e+40
3712.712712712713 4.0543943325494454e+40
3722.7227227227227 4.026193907626111e+40
3732.7327327327325 3.998206468263598e+40
3742.742742742743 3.970430696509149e+40
3752.7527527527527 3.942865296316033e+40
3762.7627627627626 3.9155089910122105e+40
3772.772772772773 3.888360520937575e+40
3782.7827827827828 3.861418641244707e+40
3792.7927927927926 3.834682119857783e+40
3802.802802802803 3.808149735584081e+40
3812.812812812813 3.7818202763722943e+40
3822.8228228228227 3.755692537711774e+40
3832.832832832833 3.729765321166771e+40
3842.842842842843 3.7040374330396433e+40
3852.8528528528527 3.6785076831570698e+40
3862.862862862863 3.653174883773276e+40
3872.872872872873 3.6280378485844065e+40
3882.8828828828828 3.6030953918481447e+40
3892.892892892893 3.5783463276029804e+40
3902.902902902903 3.5537894689813896e+40
3912.912912912913 3.529423627611535e+40
3922.922922922923 3.505247613102136e+40
3932.932932932933 3.4812602326053686e+40
3942.942942942943 3.4574602904527114e+40
3952.9529529529527 3.433846587858978e+40
3962.962962962963 3.410417922689834e+40
3972.972972972973 3.387173089288301e+40
3982.982982982983 3.364110878355951e+40
3992.992992992993 3.3412300768846276e+40
4003.003003003003 3.3185294681348056e+40
4013.013013013013 3.2960078316567217e+40
4023.023023023023 3.273663943350747e+40
4033.033033033033 3.251496575563536e+40
4043.043043043043 3.2295044972167107e+40
4053.053053053053 3.207686473964975e+40
4063.063063063063 3.186041268380761e+40
4073.073073073073 3.1645676401625943e+40
4083.0830830830832 3.143264346364616e+40
4093.093093093093 3.1221301416447614e+40
4103.103103103103 3.1011637785292934e+40
4113.113113113113 3.080364007691536e+40
4123.123123123123 3.0597295782426947e+40
4133.133133133133 3.0392592380329634e+40
4143.143143143143 3.018951733961026e+40
4153.153153153153 2.9988058122903705e+40
4163.163163163163 2.9788202189708107e+40
4173.173173173173 2.9589936999637977e+40
4183.183183183183 2.9393250015702147e+40
4193.193193193193 2.9198128707593546e+40
4203.203203203203 2.9004560554980173e+40
4213.213213213214 2.88125330507864e+40
4223.223223223224 2.8622033704455035e+40
4233.2332332332335 2.843305004518143e+40
4243.243243243243 2.824556962511169e+40
4253.253253253253 2.8059580022497495e+40
4263.263263263263 2.7875068844801386e+40
4273.273273273273 2.7692023731746107e+40
4283.283283283283 2.7510432358302994e+40
4293.293293293293 2.733028243761479e+40
4303.303303303303 2.7151561723848313e+40
4313.313313313313 2.697425801497383e+40
4323.323323323323 2.6798359155467447e+40
4333.333333333334 2.6623853038934317e+40
4343.343343343344 2.6450727610649907e+40
4353.353353353354 2.62789708700176e+40
4363.3633633633635 2.6108570872941076e+40
4373.373373373373 2.593951573411043e+40
4383.383383383383 2.577179362920061e+40
4393.393393393393 2.5605392796982235e+40
4403.403403403403 2.544030154134399e+40
4413.413413413413 2.527650823322652e+40
4423.423423423424 2.511400131246843e+40
4433.4334334334335 2.4952769289564045e+40
4443.443443443443 2.479280074733406e+40
4453.453453453454 2.463408434250941e+40
4463.463463463464 2.447660880722964e+40
4473.473473473474 2.4320362950456163e+40
4483.483483483484 2.41653356593023e+40
4493.493493493494 2.4011515900280795e+40
4503.503503503503 2.3858892720470484e+40
4513.513513513513 2.3707455248603483e+40
4523.523523523523 2.3557192696074313e+40
4533.533533533533 2.3408094357873045e+40
4543.543543543543 2.3260149613443413e+40
4553.553553553554 2.311334792746838e+40
4563.563563563564 2.296767885058441e+40
4573.573573573573 2.282313202002648e+40
4583.583583583584 2.2679697160205766e+40
4593.593593593594 2.2537364083221605e+40
4603.603603603604 2.239612268930992e+40
4613.613613613614 2.2255962967229813e+40
4623.623623623624 2.211687499459027e+40
4633.6336336336335 2.1978848938119005e+40
4643.643643643643 2.184187505387523e+40
4653.653653653653 2.1705943687408235e+40
4663.663663663663 2.1571045273863804e+40
4673.673673673674 2.1437170338040215e+40
4683.683683683684 2.1304309494395745e+40
4693.693693693694 2.1172453447009536e+40
4703.703703703704 2.1041592989497555e+40
4713.713713713714 2.0911719004885584e+40
4723.723723723724 2.0782822465440853e+40
4733.733733733734 2.0654894432464145e+40
4743.743743743744 2.0527926056044095e+40
4753.753753753754 2.0401908574775292e+40
4763.763763763764 2.0276833315441917e+40
4773.773773773773 2.0152691692668328e+40
4783.783783783783 2.0029475208538572e+40
4793.793793793793 1.9907175452185849e+40
4803.803803803804 1.9785784099353837e+40
4813.813813813814 1.9665292911931174e+40
4823.823823823824 1.9545693737460532e+40
4833.833833833834 1.9426978508623678e+40
4843.843843843844 1.9309139242703986e+40
4853.853853853854 1.919216804102752e+40
4863.863863863864 1.9076057088384156e+40
4873.873873873874 1.896079865242986e+40
4883.883883883884 1.8846385083071431e+40
4893.893893893894 1.8732808811834768e+40
4903.9039039039035 1.8620062351217927e+40
4913.913913913913 1.8508138294029898e+40
4923.923923923924 1.8397029312716309e+40
4933.933933933934 1.828672815867307e+40
4943.943943943944 1.8177227661548794e+40
4953.953953953955 1.8068520728537134e+40
4963.9639639639645 1.7960600343659956e+40
4973.973973973974 1.785345956704196e+40
4983.983983983984 1.7747091534178034e+40
4993.993993993994 1.7641489455193815e+40
5004.004004004004 1.7536646614100379e+40
5014.014014014014 1.74325563680439e+40
5024.024024024024 1.7329212146550775e+40
5034.0340340340335 1.7226607450769264e+40
5044.044044044043 1.7124735852707908e+40
5054.054054054054 1.7023590994471758e+40
5064.064064064064 1.6923166587496742e+40
5074.074074074074 1.682345641178291e+40
5084.084084084085 1.6724454315127047e+40
5094.0940940940945 1.6626154212355307e+40
5104.104104104104 1.6528550084556187e+40
5114.114114114114 1.6431635978314507e+40
5124.124124124124 1.6335406004946794e+40
5134.134134134134 1.6239854339738496e+40
5144.144144144144 1.6144975221183455e+40
5154.154154154154 1.6050762950226065e+40
5164.1641641641645 1.5957211889506468e+40
5174.174174174174 1.5864316462609155e+40
5184.184184184184 1.57720711533153e+40
5194.194194194194 1.5680470504859118e+40
5204.204204204204 1.5589509119188698e+40
5214.214214214214 1.5499181656231343e+40
5224.224224224225 1.5409482833163896e+40
5234.2342342342345 1.5320407423688241e+40
5244.244244244244 1.5231950257312129e+40
5254.254254254254 1.5144106218635698e+40
5264.264264264264 1.505687024664371e+40
5274.274274274274 1.4970237334003963e+40
5284.284284284285 1.488420252637168e+40
5294.294294294295 1.4798760921700423e+40
5304.304304304304 1.4713907669559349e+40
5314.314314314314 1.4629637970457256e+40
5324.324324324324 1.454594707517326e+40
5334.334334334334 1.4462830284094413e+40
5344.344344344345 1.438028294656027e+40
5354.354354354355 1.4298300460214588e+40
5364.3643643643645 1.4216878270364053e+40
5374.374374374374 1.4136011869344411e+40
5384.384384384384 1.4055696795893735e+40
5394.394394394394 1.3975928634533156e+40
5404.404404404404 1.389670301495489e+40
5414.414414414415 1.3818015611417813e+40
5424.424424424425 1.3739862142150452e+40
5434.4344344344345 1.366223836876144e+40
5444.444444444444 1.358514009565751e+40
5454.454454454454 1.3508563169469074e+40
5464.464464464464 1.3432503478483236e+40
5474.474474474475 1.3356956952084393e+40
5484.484484484485 1.328191956020234e+40
5494.494494494495 1.320738731276787e+40
5504.504504504504 1.313335625917592e+40
5514.514514514514 1.30598224877561e+40
5524.524524524524 1.2986782125250752e+40
5534.534534534535 1.291423133630039e+40
5544.544544544545 1.284216632293651e+40
5554.554554554555 1.2770583324081718e+40
5564.5645645645645 1.2699478615057217e+40
5574.574574574574 1.2628848507097484e+40
5584.584584584584 1.2558689346872196e+40
5594.594594594595 1.248899751601523e+40
5604.604604604605 1.2419769430660904e+40
5614.614614614615 1.2351001540987051e+40
5624.624624624625 1.2282690330765238e+40
5634.6346346346345 1.221483231691784e+40
5644.644644644644 1.214742404908193e+40
5654.654654654654 1.208046210918002e+40
5664.664664664665 1.2013943110997414e+40
5674.674674674675 1.1947863699766383e+40
5684.684684684685 1.1882220551756671e+40
5694.694694694695 1.1817010373872726e+40
5704.704704704704 1.1752229903257217e+40
5714.714714714714 1.1687875906900967e+40
5724.724724724725 1.1623945181259133e+40
5734.734734734735 1.1560434551873592e+40
5744.744744744745 1.1497340873001453e+40
5754.754754754755 1.1434661027249597e+40
5764.764764764765 1.1372391925215177e+40
5774.774774774774 1.1310530505132052e+40
5784.784784784785 1.1249073732522927e+40
5794.794794794795 1.1188018599857314e+40
5804.804804804805 1.1127362126215068e+40
5814.814814814815 1.1067101356955507e+40
5824.824824824825 1.1007233363392046e+40
5834.8348348348345 1.0947755242472122e+40
5844.844844844845 1.0888664116462608e+40
5854.854854854855 1.0829957132640311e+40
5864.864864864865 1.077163146298769e+40
5874.874874874875 1.0713684303893665e+40
5884.884884884885 1.0656112875859406e+40
