#lamb flux
1000.0 0.015120138479146974
1010.01001001001 0.016180049254042806
1020.0200200200201 0.01726056738145971
1030.03003003003 0.01835973691578305
1040.0400400400401 0.019475696152416677
1050.05005005005 0.02060668465606898
1060.06006006006 0.021751047938393425
1070.07007007007 0.02290724009248293
1080.08008008008 0.024073824678496454
1090.0900900900901 0.02524947413625428
1100.1001001001 0.026432967978849663
1110.11011011011 0.027623189997680327
1120.1201201201202 0.0288191246849823
1130.13013013013 0.030019853055835818
1140.1401401401401 0.031224548028360943
1150.1501501501502 0.03243246949887898
1160.16016016016 0.03364295922848009
1170.1701701701702 0.03485543563886799
1180.1801801801803 0.0360693885986263
1190.1901901901902 0.037284374266150125
1200.2002002002002 0.0385000100423703
1210.2102102102103 0.0397159696749553
1220.2202202202202 0.04093197854580295
1230.2302302302303 0.04214780916519188
1240.2402402402402 0.04336327688881742
1250.2502502502502 0.04457633986646005
1260.2602602602603 0.04578095037983434
1270.2702702702702 0.046965796968074104
1280.2802802802803 0.048129931908751616
1290.2902902902902 0.049272499053330414
1300.3003003003003 0.05039272965540119
1310.3103103103103 0.051489938105665385
1320.3203203203202 0.05256351761493708
1330.3303303303303 0.053612935880871286
1340.3403403403404 0.05463773076900896
1350.3503503503503 0.05563750603406017
1360.3603603603603 0.05661192710310638
1370.3703703703704 0.05756071693857112
1380.3803803803803 0.05848365199536931
1390.3903903903904 0.059380558283568315
1400.4004004004005 0.06025130754515579
1410.4104104104103 0.06109581355108919
1420.4204204204204 0.061914028522663485
1430.4304304304305 0.06270593967936389
1440.4404404404404 0.06347156591373723
1450.4504504504505 0.06421095459239817
1460.4604604604606 0.06492417848106713
1470.4704704704704 0.06561133279048759
1480.4804804804805 0.06627253233918542
1490.4904904904906 0.0669079088282808
1500.5005005005005 0.06751760822294432
1510.5105105105106 0.0681017882345823
1520.5205205205207 0.06866061589743055
1530.5305305305305 0.06919426523293146
1540.5405405405404 0.06970291499505073
1550.5505505505505 0.07018674648955979
1560.5605605605606 0.07064594146026561
1570.5705705705705 0.07108068003521574
1580.5805805805805 0.07149113872604537
1590.5905905905906 0.07187748847387716
1600.6006006006005 0.07223989273554991
1610.6106106106106 0.07257850560445686
1620.6206206206207 0.07289346996094005
1630.6306306306305 0.0731849156480627
1640.6406406406406 0.07345295766968597
1650.6506506506507 0.07369769440918733
1660.6606606606606 0.07391920586892399
1670.6706706706707 0.07411755193274766
1680.6806806806808 0.0742927706566246
1690.6906906906906 0.07444487659580869
1700.7007007007007 0.07457402299729236
1710.7107107107108 0.07468083790080722
1720.7207207207207 0.07476519687274248
1730.7307307307308 0.07482686126727907
1740.7407407407409 0.07486556906022498
1750.7507507507507 0.07488103382760258
1760.7607607607606 0.07487294399660922
1770.770770770771 0.07484096245328836
1780.7807807807808 0.07478472661021447
1790.7907907907907 0.07470384905978966
1800.8008008008007 0.07459791896468394
1810.8108108108108 0.0744665043667421
1820.8208208208207 0.07430915562938172
1830.8308308308308 0.07412541026588058
1840.8408408408409 0.07391479944636792
1850.8508508508507 0.07367685651852862
1860.8608608608608 0.07341112791890178
1870.870870870871 0.07311718688994688
1880.8808808808808 0.07279465044799037
1890.890890890891 0.07244320006210991
1900.900900900901 0.07206260649503336
1910.9109109109108 0.07165275921275045
1920.920920920921 0.07121370067563483
1930.930930930931 0.07074566566394727
1940.940940940941 0.07024912554667914
1950.950950950951 0.0697248370570967
1960.960960960961 0.06917389467663777
1970.970970970971 0.06859778514410263
1980.980980980981 0.06799844190586492
1990.9909909909911 0.06737829653178298
2001.001001001001 0.06674032329455984
2011.0110110110109 0.06608807233425075
2021.0210210210212 0.06542568622570076
2031.031031031031 0.0647578944854371
2041.0410410410411 0.06408998076079318
2051.051051051051 0.06342771829076325
2061.061061061061 0.06277727081989921
2071.071071071071 0.0621450584983539
2081.081081081081 0.06153759130098196
2091.091091091091 0.060961275887518436
2101.101101101101 0.06042220520828434
2111.1111111111113 0.05992594304882718
2121.121121121121 0.05947731760579887
2131.131131131131 0.05908023868996166
2141.141141141141 0.058737552043430806
2151.151151151151 0.05845094157320725
2161.161161161161 0.058220886342660774
2171.1711711711714 0.05804667444420513
2181.1811811811813 0.05792647103588406
2191.191191191191 0.0578574334946271
2201.201201201201 0.05783586333411258
2211.2112112112113 0.0578573825710315
2221.221221221221 0.057917121684614374
2231.2312312312315 0.05800990707157573
2241.2412412412414 0.05813043766480324
2251.2512512512512 0.05827344278771078
2261.261261261261 0.058433815975741904
2271.271271271271 0.05860672207992871
2281.2812812812813 0.05878767722846445
2291.2912912912916 0.05897260301360941
2301.3013013013015 0.05915785753808127
2311.3113113113113 0.05934024671616621
2321.321321321321 0.059517019548344804
2331.331331331331 0.059685851068222565
2341.3413413413414 0.05984481639720126
2351.3513513513512 0.05999235892835959
2361.3613613613616 0.0601272551737912
2371.3713713713714 0.0602485783080228
2381.3813813813813 0.060355661964763684
2391.391391391391 0.06044806541991933
2401.4014014014015 0.06052554093278312
2411.4114114114113 0.0605880037226776
2421.4214214214217 0.06063550482706008
2431.4314314314315 0.06066820691265147
2441.4414414414414 0.060686362985210365
2451.4514514514512 0.06069029785747415
2461.4614614614616 0.06068039218025849
2471.4714714714714 0.06065706881138153
2481.4814814814818 0.06062078128467524
2491.4914914914916 0.06057200414171351
2501.5015015015015 0.06051122489793231
2511.5115115115113 0.06043893742937918
2521.521521521521 0.06035563658404124
2531.5315315315315 0.06026181384083943
2541.541541541542 0.060157953858730705
2551.5515515515517 0.06004453177711345
2561.5615615615616 0.05992201114637234
2571.5715715715714 0.05979084238362776
2581.5815815815813 0.05965146166343252
2591.5915915915916 0.059504290166259154
2601.6016016016015 0.05934973361918134
2611.611611611612 0.05918818207326653
2621.6216216216217 0.05902000987097537
2631.6316316316315 0.05884557576443179
2641.6416416416414 0.05866522315192136
2651.6516516516517 0.05847928040551162
2661.6616616616616 0.058288061267394664
2671.671671671672 0.05809186529653202
2681.6816816816818 0.05789097835053668
2691.6916916916916 0.05768567309054529
2701.7017017017015 0.05747620949919183
2711.711711711712 0.0572628354037628
2721.7217217217217 0.05704578699825009
2731.731731731732 0.056825289359372616
2741.741741741742 0.05660155695276025
2751.7517517517517 0.05637479412641147
2761.7617617617616 0.05614519558929381
2771.7717717717715 0.055912946873568445
2781.781781781782 0.05567822477942124
2791.791791791792 0.0554411978018839
2801.801801801802 0.05520202653935005
2811.811811811812 0.054960864083746744
2821.8218218218217 0.05471785639252236
2831.8318318318316 0.05447314264276578
2841.841841841842 0.05422685556789032
2851.851851851852 0.053979121777403404
2861.861861861862 0.053730062060344516
2871.871871871872 0.0534797916730182
2881.881881881882 0.05322842061167449
2891.8918918918916 0.05297605387080313
2901.901901901902 0.05272279168771146
2911.911911911912 0.0524687297740511
2921.921921921922 0.052213959534948
2931.931931931932 0.05195856827637543
2941.941941941942 0.051702639401389014
2951.9519519519517 0.05144625259582315
2961.961961961962 0.05118948400402376
2971.971971971972 0.05093240639516808
2981.9819819819822 0.05067508932069776
2991.991991991992 0.050417599263365545
3002.002002002002 0.05015999977837189
3012.012012012012 0.049902351627041916
3022.0220220220217 0.04964471290347049
3032.032032032032 0.049495211971860215
3042.0420420420423 0.04922408578415212
3052.052052052052 0.048949373882432604
3062.062062062062 0.04867216864993185
3072.072072072072 0.048393415960303145
3082.0820820820823 0.048113930043341635
3092.092092092092 0.0478344071976044
3102.102102102102 0.04755543838825416
3112.1121121121123 0.04727752077913909
3122.122122122122 0.04700106825519637
3132.132132132132 0.04672642099550011
3142.1421421421423 0.046453854159299805
3152.152152152152 0.04618358574773248
3162.162162162162 0.04591578370297095
3172.1721721721724 0.04565057230472456
3182.1821821821823 0.0453880379215202
3192.192192192192 0.04512823417126838
3202.202202202202 0.044871186542436534
3212.2122122122123 0.04461689652383475
3222.222222222222 0.04436534528766945
3232.232232232232 0.044116496967213745
3242.2422422422424 0.04387030156722686
3252.252252252252 0.04362669754217338
3262.262262262262 0.04338561407436639
3272.2722722722724 0.04314697308140475
3282.2822822822823 0.042910690979699385
3292.292292292292 0.04267668022849077
3302.3023023023025 0.04244485067654521
3312.3123123123123 0.04221511073167851
3322.322322322322 0.04198736837138259
3332.3323323323325 0.04176153201111483
3342.3423423423424 0.04153751124524569
3352.352352352352 0.0413152174742301
3362.3623623623625 0.041094564430271534
3372.3723723723724 0.04087546861256537
3382.3823823823823 0.04065784964213742
3392.3923923923926 0.0404416305453224
3402.4024024024025 0.04022673797404578
3412.4124124124123 0.040013102370275576
3422.4224224224226 0.03980065808128852
3432.4324324324325 0.039589343431741614
3442.4424424424424 0.03937910075794821
3452.4524524524522 0.03916987640922244
3462.4624624624626 0.03896162072067147
3472.4724724724724 0.038754287961375755
3482.4824824824823 0.03854783626149979
3492.4924924924926 0.03834222752151659
3502.5025025025025 0.038137427306402134
3512.5125125125123 0.03793340472736006
3522.5225225225226 0.0377301323133695
3532.5325325325325 0.03752758587460443
3542.5425425425424 0.03732574435955326
3552.5525525525527 0.037124589707465794
3562.5625625625626 0.03692410669757364
3572.5725725725724 0.03672428279636445
3582.5825825825827 0.036525108004040435
3592.5925925925926 0.03632657470115563
3602.6026026026025 0.03612867749630236
3612.612612612613 0.0359314130756055
3622.6226226226227 0.03573478005468124
3632.6326326326325 0.03553877883362447
3642.642642642643 0.03534341145550625
3652.6526526526527 0.035148681468786136
3662.6626626626626 0.03495459379397604
3672.672672672673 0.034761154594831416
3682.6826826826828 0.03456837115428871
3692.6926926926926 0.03437625175531882
3702.7027027027025 0.03418480556682093
3712.712712712713 0.03399404253464113
3722.7227227227227 0.0338039732777647
3732.7327327327325 0.03361460898969733
3742.742742742743 0.0334259613450249
3752.7527527527527 0.03323804241111384
3762.7627627627626 0.03305086456489368
3772.772772772773 0.0328644404146439
3782.7827827827828 0.03267878272669027
3792.7927927927926 0.032493904356901714
3802.802802802803 0.03230981818686718
3812.812812812813 0.03212653706462073
3822.8228228228227 0.031944073749775474
3832.832832832833 0.031762440862919905
3842.842842842843 0.03158165083912476
3852.8528528528527 0.03140171588540449
3862.862862862863 0.03122264794197452
3872.872872872873 0.031044458647144224
3882.8828828828828 0.030867159305683282
3892.892892892893 0.030690760860501494
3902.902902902903 0.03051527386747996
3912.912912912913 0.030340708473295827
3922.922922922923 0.03016707439608262
3932.932932932933 0.029994380908772336
3942.942942942943 0.029822636824967354
3952.9529529529527 0.02965185048719428
3962.962962962963 0.02948202975739543
3972.972972972973 0.029313182009517453
3982.982982982983 0.02914531412406111
3992.992992992993 0.028978432484460047
4003.003003003003 0.02881254297516216
4013.013013013013 0.028647650981290098
4023.023023023023 0.02848376138976374
4033.033033033033 0.02832087859177126
4043.043043043043 0.028159006486480415
4053.053053053053 0.027998148485886838
4063.063063063063 0.027838307520700187
4073.073073073073 0.027679486047174354
4083.0830830830832 0.02752168605479186
4093.093093093093 0.02736490907471806
4103.103103103103 0.027209156188943987
4113.113113113113 0.027054428040042516
4123.123123123123 0.026900724841465055
4133.133133133133 0.026748046388311856
4143.143143143143 0.02659639206851177
4153.153153153153 0.026445760874351517
4163.163163163163 0.026296151414298696
4173.173173173173 0.026147561925065593
4183.183183183183 0.025999990283865206
4193.193193193193 0.02585343402081338
4203.203203203203 0.025707890331434797
4213.213213213214 0.02556335608923346
4223.223223223224 0.025419827858290833
4233.2332332332335 0.025277301905858304
4243.243243243243 0.025135774214912712
4253.253253253253 0.024995240496646354
4263.263263263263 0.024855696202865755
4273.273273273273 0.024717136538274814
4283.283283283283 0.02457955647262115
4293.293293293293 0.0244429507526857
4303.303303303303 0.02430731391409809
4313.313313313313 0.02417264029296179
4323.323323323323 0.02403892403727482
4333.333333333334 0.023906159118133662
4343.343343343344 0.023774339340709227
4353.353353353354 0.023643458354985138
4363.3633633633635 0.023513509666250206
4373.373373373373 0.023384486645337967
4383.383383383383 0.023256382538607418
4393.393393393393 0.023129190477659912
4403.403403403403 0.02300290348878883
4413.413413413413 0.022877514502158466
4423.423423423424 0.02275301636071085
4433.4334334334335 0.022629401828798534
4443.443443443443 0.022506663600543358
4453.453453453454 0.02238479430792099
4463.463463463464 0.022263786528572412
4473.473473473474 0.02214363279334305
4483.483483483484 0.022024325593552146
4493.493493493494 0.02190585738799415
4503.503503503503 0.02178822060967515
4513.513513513513 0.02167140767228737
4523.523523523523 0.02155541097642513
4533.533533533533 0.02144022291554646
4543.543543543543 0.021325835881683807
4553.553553553554 0.021212242270908645
4563.563563563564 0.02109943448855442
4573.573573573573 0.020987404954202225
4583.583583583584 0.02087614610643459
4593.593593593594 0.02076565040736194
4603.603603603604 0.02065591034692706
4613.613613613614 0.020546918446992867
4623.623623623624 0.02043866726521846
4633.6336336336335 0.020331149398729167
4643.643643643643 0.020224357487585807
4653.653653653653 0.020118284218058436
4663.663663663663 0.020012922325710374
4673.673673673674 0.01990826459829751
4683.683683683684 0.019804303878488704
4693.693693693694 0.019701033066412313
4703.703703703704 0.019598445122034496
4713.713713713714 0.01949653306737444
4723.723723723724 0.019395289988561847
4733.733733733734 0.019294709037741758
4743.743743743744 0.019194783434832198
4753.753753753754 0.0190955064691393
4763.763763763764 0.018996871500835188
4773.773773773773 0.018898871962303408
4783.783783783783 0.018801501359357018
4793.793793793793 0.01870475327233362
4803.803803803804 0.01860862135707238
4813.813813813814 0.01851309934577769
4823.823823823824 0.018418181047773482
4833.833833833834 0.018323860350153078
4843.843843843844 0.018230131218328664
4853.853853853854 0.01813698769648452
4863.863863863864 0.01804442390793827
4873.873873873874 0.017952434055413986
4883.883883883884 0.017861012421231184
4893.893893893894 0.0177701533674134
4903.9039039039035 0.017679851335720167
4913.913913913913 0.01759010084760588
4923.923923923924 0.017500896504109072
4933.933933933934 0.017412232985675655
4943.943943943944 0.017324105051919163
4953.953953953955 0.017236507541321448
4963.9639639639645 0.017149435370876945
4973.973973973974 0.017062883535683245
4983.983983983984 0.016976847108481314
4993.993993993994 0.016891321239147883
5004.004004004004 0.016806301154142913
5014.014014014014 0.01672178215591477
5024.024024024024 0.016637759622265613
5034.0340340340335 0.016554229005679676
5044.044044044043 0.016471185832616544
5054.054054054054 0.016388625702772098
5064.064064064064 0.01630654428830908
5074.074074074074 0.016224937333059623
5084.084084084085 0.016143800651701682
5094.0940940940945 0.016063130128911647
5104.104104104104 0.01598292171849468
5114.114114114114 0.015903171442494986
5124.124124124124 0.015823875390287668
5134.134134134134 0.015745029717653868
5144.144144144144 0.015666630645840902
5154.154154154154 0.01558867446060901
5164.1641641641645 0.015511157511266145
5174.174174174174 0.015434076209692393
5184.184184184184 0.015357427029355332
5194.194194194194 0.015281206504317689
5204.204204204204 0.015205411228238742
5214.214214214214 0.015130037853370373
5224.224224224225 0.015055083089549327
5234.2342342342345 0.01498054370318655
5244.244244244244 0.014906416516254689
5254.254254254254 0.01483269840527502
5264.264264264264 0.014759386300304426
5274.274274274274 0.01468647718392369
5284.284284284285 0.014613968090227726
5294.294294294295 0.01454185610381881
5304.304304304304 0.014470138358803357
5314.314314314314 0.014398812037793342
5324.324324324324 0.014327874370912645
5334.334334334334 0.014257322634809512
5344.344344344345 0.014187154151675225
5354.354354354355 0.014117366288270101
5364.3643643643645 0.014047956454956961
5374.374374374374 0.013978922104742936
5384.384384384384 0.013910260732329845
5394.394394394394 0.013841969873173862
5404.404404404404 0.013774047102554653
5414.414414414415 0.01370649003465468
5424.424424424425 0.013639296321648774
5434.4344344344345 0.013572463652804522
5444.444444444444 0.013505989753593732
5454.454454454454 0.013439872384815291
5464.464464464464 0.013374109341729647
5474.474474474475 0.013308698453205259
5484.484484484485 0.01324363758087714
5494.494494494495 0.0131789246183178
5504.504504504504 0.013114557490220738
5514.514514514514 0.01305053415159657
5524.524524524524 0.012986852586982154
5534.534534534535 0.012923510809662603
5544.544544544545 0.012860506860906435
5554.554554554555 0.012797838809213926
5564.5645645645645 0.012735504749578757
5574.574574574574 0.012673502802762988
5584.584584584584 0.012611831114585435
5594.594594594595 0.012550487855223422
5604.604604604605 0.01248947121852813
5614.614614614615 0.012428779421353177
5624.624624624625 0.012368410702896826
5634.6346346346345 0.01230836332405758
5644.644644644644 0.012248635566803098
5654.654654654654 0.012189225733552616
5664.664664664665 0.012130132146572511
5674.674674674675 0.012071353147385324
5684.684684684685 0.012012887096191773
5694.694694694695 0.011954732371305996
5704.704704704704 0.011896887368603766
5714.714714714714 0.011839350500983689
5724.724724724725 0.011782120197841162
5734.734734734735 0.01172519490455511
5744.744744744745 0.011668573081987309
5754.754754754755 0.011612253205994199
5764.764764764765 0.011556233766951057
5774.774774774774 0.011500513269288458
5784.784784784785 0.011445090231040721
5794.794794794795 0.011389963183406427
5804.804804804805 0.011335130670320692
5814.814814814815 0.011280591248039084
5824.824824824825 0.011226343484733137
5834.8348348348345 0.011172385960097087
5844.844844844845 0.011118717264965987
5854.854854854855 0.011065336000944656
5864.864864864865 0.01101224078004765
5874.874874874875 0.010959430224349882
5884.884884884885 0.010906902965647775
5894.894894894895 0.010854657645130812
5904.9049049049045 0.010802692913063237
5914.914914914915 0.010751007428475835
5924.924924924925 0.010699599858867537
5934.934934934935 0.010648468879916648
5944.944944944945 0.010597613175201717
5954.954954954955 0.010547031435931553
5964.964964964965 0.01049672236068453
5974.974974974975 0.010446684655156793
5984.984984984985 0.010396917031919294
5994.994994994995 0.010347418210183416
6005.005005005005 0.01029818691557507
6015.015015015015 0.010249221879917038
6025.025025025025 0.01020052184101944
6035.035035035035 0.010152085542478078
6045.045045045045 0.010103911733480575
6055.055055055055 0.010055999168620062
6065.065065065065 0.010008346607716236
6075.075075075075 0.009960952815643727
6085.085085085085 0.009913816562167459
6095.0950950950955 0.009866936621784955
6105.105105105105 0.00982031177357535
6115.115115115115 0.009773940801054955
6125.125125125125 0.009727822492039255
6135.135135135135 0.009681955638511158
6145.145145145145 0.009636339036495236
6155.155155155155 0.009590971485938035
