#lamb flux
1000.0 0.017960636779134877
1010.01001001001 0.019532073572848634
1020.0200200200201 0.02119575071971605
1030.03003003003 0.022953670527591168
1040.0400400400401 0.02480768694129054
1050.05005005005 0.026759499654514757
1060.06006006006 0.028810648979008452
1070.07007007007 0.030962511470763506
1080.08008008008 0.03321629630784618
1090.0900900900901 0.03557304240962873
1100.1001001001 0.03803361628285613
1110.11011011011 0.040598710576071784
1120.1201201201202 0.04326884332046349
1130.13013013013 0.046044357832161556
1140.1401401401401 0.048925423248416054
1150.1501501501502 0.05191203566788087
1160.16016016016 0.05500401986342538
1170.1701701701702 0.058201031534452406
1180.1801801801803 0.06150256006461525
1190.1901901901902 0.06490793175004994
1200.2002002002002 0.06841631346278379
1210.2102102102103 0.07202671671378146
1220.2202202202202 0.07573800208015649
1230.2302302302303 0.07954888396136955
1240.2402402402402 0.0834579356297205
1250.2502502502502 0.08746359432772668
1260.2602602602603 0.09156416653944428
1270.2702702702702 0.09575783353181955
1280.2802802802803 0.10004265905314641
1290.2902902902902 0.10441659423049518
1300.3003003003003 0.10887748370618627
1310.3103103103103 0.1134230718522095
1320.3203203203202 0.11805100903666717
1330.3303303303303 0.12275885791776629
1340.3403403403404 0.12754409974230513
1350.3503503503503 0.13240414062708875
1360.3603603603603 0.1373363178031439
1370.3703703703704 0.14233790580406908
1380.3803803803803 0.14740612258128657
1390.3903903903904 0.15253813553037646
1400.4004004004005 0.15773106741403906
1410.4104104104103 0.1629820021685993
1420.4204204204204 0.16828799058224458
1430.4304304304305 0.17364605583445716
1440.4404404404404 0.179053198887316
1450.4504504504505 0.18450640372048555
1460.4604604604606 0.19000264240283501
1470.4704704704704 0.19553887999466685
1480.4804804804805 0.20111207927554517
1490.4904904904906 0.20671920529364618
1500.5005005005005 0.21235722973344903
1510.5105105105106 0.2180231350994126
1520.5205205205207 0.22371391871406393
1530.5305305305305 0.2294265965296511
1540.5405405405404 0.23515820675318327
1550.5505505505505 0.24090581328530292
1560.5605605605606 0.24666650897400946
1570.5705705705705 0.25243741868477704
1580.5805805805805 0.25821570218908674
1590.5905905905906 0.2639985568738317
1600.6006006006005 0.2697832202744351
1610.6106106106106 0.2755669724348916
1620.6206206206207 0.28134713809822853
1630.6306306306305 0.287121088731187
1640.6406406406406 0.2928862443871484
1650.6506506506507 0.2986400754115346
1660.6606606606606 0.30438010399411897
1670.6706706706707 0.3101039055727935
1680.6806806806808 0.3158091100934949
1690.6906906906906 0.3214934031310689
1700.7007007007007 0.32715452691716945
1710.7107107107108 0.33279028128721455
1720.7207207207207 0.3383985241053173
1730.7307307307308 0.34397717203225797
1740.7407407407409 0.3495242010476641
1750.7507507507507 0.35503764683993444
1760.7607607607606 0.36051560509162894
1770.770770770771 0.365956231665208
1780.7807807807808 0.37135774269395416
1790.7907907907907 0.37671841458285443
1800.8008008008007 0.3820365839241484
1810.8108108108108 0.3873106473321817
1820.8208208208207 0.39253906120213494
1830.8308308308308 0.39772034139710943
1840.8408408408409 0.4028530628679791
1850.8508508508507 0.4079358592103392
1860.8608608608608 0.4129674221627913
1870.870870870871 0.41794650105074843
1880.8808808808808 0.4228719021798298
1890.890890890891 0.42774248818286764
1900.900900900901 0.43255717732444443
1910.9109109109108 0.43731494276678695
1920.920920920921 0.4420148118007505
1930.930930930931 0.44665586504546817
1940.940940940941 0.4512372356201182
1950.950950950951 0.4557581082910063
1960.960960960961 0.4602177185969134
1970.970970970971 0.46461535195528425
1980.980980980981 0.4689503427513853
1990.9909909909911 0.47322207341198974
2001.001001001001 0.4774299734644801
2011.0110110110109 0.481573518581502
2021.0210210210212 0.48565222961049476
2031.031031031031 0.4896656715866635
2041.0410410410411 0.4936134527273086
2051.051051051051 0.4974952234051003
2061.061061061061 0.5013106750979451
2071.071071071071 0.5050595393137435
2081.081081081081 0.5087415864896586
2091.091091091091 0.5123566248674662
2101.101101101101 0.5159044993490318
2111.1111111111113 0.519385090338711
2121.121121121121 0.5227983125819871
2131.131131131131 0.526144114011602
2141.141141141141 0.5294224746132861
2151.151151151151 0.5326334053226813
2161.161161161161 0.5357769469631415
2171.1711711711714 0.5388531692309738
2181.1811811811813 0.5418621697308439
2191.191191191191 0.5448040730600574
2201.201201201201 0.5476790299369358
2211.2112112112113 0.5504872163659076
2221.221221221221 0.5532288328305729
2231.2312312312315 0.5559041035058806
2241.2412412412414 0.5585132754814618
2251.2512512512512 0.5610566179897954
2261.261261261261 0.5635344216348943
2271.271271271271 0.5659469976191953
2281.2812812812813 0.5682946769681514
2291.2912912912916 0.5705778097534312
2301.3013013013015 0.5727967643166024
2311.3113113113113 0.5749519264957546
2321.321321321321 0.5770436988577214
2331.331331331331 0.5790724999385085
2341.3413413413414 0.581038763494291
2351.3513513513512 0.5829429377650276
2361.3613613613616 0.5847854847523325
2371.3713713713714 0.5865668795128879
2381.3813813813813 0.5882876094683245
2391.391391391391 0.5899481737322024
2401.4014014014015 0.5915490824544613
2411.4114114114113 0.5930908561835151
2421.4214214214217 0.5945740252460142
2431.4314314314315 0.5959991291441655
2441.4414414414414 0.5973667159704363
2451.4514514514512 0.5986773418393858
2461.4614614614616 0.5999315703363509
2471.4714714714714 0.6011299719826727
2481.4814814814818 0.6022731237171456
2491.4914914914916 0.603361608393358
2501.5015015015015 0.6043960142926028
2511.5115115115113 0.6053769346520248
2521.521521521521 0.6063049672076883
2531.5315315315315 0.6071807137522546
2541.541541541542 0.6080047797069479
2551.5515515515517 0.6087777737075216
2561.5615615615616 0.609500307203914
2571.5715715715714 0.6101729940733135
2581.5815815815813 0.6107964502463398
2591.5915915915916 0.6113712933460599
2601.6016016016015 0.6118981423395639
2611.611611611612 0.6123776172018254
2621.6216216216217 0.6128103385915761
2631.6316316316315 0.6131969275389234
2641.6416416416414 0.6135380051444591
2651.6516516516517 0.6138341922895821
2661.6616616616616 0.6140861093577894
2671.671671671672 0.6142943759666732
2681.6816816816818 0.6144596107103727
2691.6916916916916 0.6145824309122352
2701.7017017017015 0.6146634523874311
2711.711711711712 0.6147032892152791
2721.7217217217217 0.6147025535210541
2731.731731731732 0.6146618552670143
2741.741741741742 0.6145818020524325
2751.7517517517517 0.6144629989223906
2761.7617617617616 0.6143060481851033
2771.7717717717715 0.6141115492375523
2781.781781781782 0.6138800983992012
2791.791791791792 0.6136122887535768
2801.801801801802 0.6133087099974874
2811.811811811812 0.6129699482976854
2821.8218218218217 0.6125965861547382
2831.8318318318316 0.6121892022739258
2841.841841841842 0.6117483714429411
2851.851851851852 0.6112746644162051
2861.861861861862 0.6107686478056019
2871.871871871872 0.6102308839774291
2881.881881881882 0.6096619309553898
2891.8918918918916 0.6090623423294279
2901.901901901902 0.6084326671702349
2911.911911911912 0.6077734499492456
2921.921921921922 0.607085230463944
2931.931931931932 0.6063685437683225
2941.941941941942 0.6056239201083102
2951.9519519519517 0.6048518848620198
2961.961961961962 0.6040529584846486
2971.971971971972 0.6032276564578737
2981.9819819819822 0.6023764892435963
2991.991991991992 0.6014999622418802
3002.002002002002 0.6005985757529426
3012.012012012012 0.5996728249430493
3022.0220220220217 0.5987231998141844
3032.032032032032 0.5977502601313635
3042.0420420420423 0.5967543263443569
3052.052052052052 0.5957359543175934
3062.062062062062 0.5946956138644315
3072.072072072072 0.593633769443654
3082.0820820820823 0.5925508801577806
3092.092092092092 0.5914473997535608
3102.102102102102 0.59032377662458
3112.1121121121123 0.5891804538159124
3122.122122122122 0.5880178690307707
3132.132132132132 0.5868364546390824
3142.1421421421423 0.5856366376879353
3152.152152152152 0.5844188399138308
3162.162162162162 0.5831834777566821
3172.1721721721724 0.5819309623754987
3182.1821821821823 0.580661699665698
3192.192192192192 0.5793760902779778
3202.202202202202 0.5780745296386961
3212.2122122122123 0.5767574079717056
3222.222222222222 0.5754251103215661
3232.232232232232 0.5740780165780999
3242.2422422422424 0.5727165015022196
3252.252252252252 0.5713409347529795
3262.262262262262 0.569951680915792
3272.2722722722724 0.5685490995317637
3282.2822822822823 0.5671335451280878
3292.292292292292 0.5657053672494539
3302.3023023023025 0.564264910490413
3312.3123123123123 0.5628125145286614
3322.322322322322 0.5613485141591837
3332.3323323323325 0.5598732393292173
3342.3423423423424 0.5583870151739877
3352.352352352352 0.5568901620531724
3362.3623623623625 0.5553829955880508
3372.3723723723724 0.5538658266992945
3382.3823823823823 0.5523389616453601
3392.3923923923926 0.5508027020614471
3402.4024024024025 0.5492573449989725
3412.4124124124123 0.5477031829655375
3422.4224224224226 0.5461405039653382
3432.4324324324325 0.5445695915399935
3442.4424424424424 0.5429907248097507
3452.4524524524522 0.5414041785150357
3462.4624624624626 0.5398102230583215
3472.4724724724724 0.5382091245462739
3482.4824824824823 0.5366011448321535
3492.4924924924926 0.5349865415584395
3502.5025025025025 0.5333655681996491
3512.5125125125123 0.5317384741053269
3522.5225225225226 0.5301055045431721
3532.5325325325325 0.5284669007422854
3542.5425425425424 0.5268228999365082
3552.5525525525527 0.5251737354078281
3562.5625625625626 0.5235196365298351
3572.5725725725724 0.5218608288111976
3582.5825825825827 0.5201975339391427
3592.5925925925926 0.5185299698229253
3602.6026026026025 0.5168583506372529
3612.612612612613 0.5151828868656648
3622.6226226226227 0.5135037853438328
3632.6326326326325 0.5118212493027755
3642.642642642643 0.5101354784119687
3652.6526526526527 0.508446668822334
3662.6626626626626 0.5067550132090893
3672.672672672673 0.5050607008144546
3682.6826826826828 0.5033639174901884
3692.6926926926926 0.501664845739955
3702.7027027027025 0.49996366476149523
3712.712712712713 0.4982605504886018
3722.7227227227227 0.49655567563288466
3732.7327327327325 0.4948492097253065
3742.742742742743 0.4931413191574959
3752.7527527527527 0.49143216722281174
3762.7627627627626 0.4897219141571587
3772.772772772773 0.48801071717954503
3782.7827827827828 0.4862987305323725
3792.7927927927926 0.48458610552144854
3802.802802802803 0.48287299055572175
3812.812812812813 0.4811595311867238
3822.8228228228227 0.47944587014771806
3832.832832832833 0.4777321473925485
3842.842842842843 0.47601850013418034
3852.8528528528527 0.47430506288293117
3862.862862862863 0.4725919674843828
3872.872872872873 0.4708793431569764
3882.8828828828828 0.4691673165292771
3892.892892892893 0.4674560116769198
3902.902902902903 0.46574555015921093
3912.912912912913 0.46403605105540574
3922.922922922923 0.4623276310006405
3932.932932932933 0.4606204042215291
3942.942942942943 0.45891448257141493
3952.9529529529527 0.45720997556527715
3962.962962962963 0.4555069904142923
3972.972972972973 0.45380563206004776
3982.982982982983 0.45210600320840677
3992.992992992993 0.4504082043630178
4003.003003003003 0.44871233385848175
4013.013013013013 0.4470184878931595
4023.023023023023 0.445326760561632
4033.033033033033 0.443637243886805
4043.043043043043 0.4419500278516621
4053.053053053053 0.44026520043066714
4063.063063063063 0.43858284762081123
4073.073073073073 0.436903053472309
4083.0830830830832 0.4352259001189455
4093.093093093093 0.43355146780807
4103.103103103103 0.43187983493023996
4113.113113113113 0.43021107804852016
4123.123123123123 0.4285452719274281
4133.133133133133 0.42688248956153774
4143.143143143143 0.4252228022037361
4153.153153153153 0.4235662793931369
4163.163163163163 0.4219129889826512
4173.173173173173 0.42026299716621823
4183.183183183183 0.4186163685056975
4193.193193193193 0.4169731659574229
4203.203203203203 0.4153334508984226
4213.213213213214 0.4136972831523069
4223.223223223224 0.4120647210148232
4233.2332332332335 0.4104358212790816
4243.243243243243 0.4088106392604574
4253.253253253253 0.40718922882116343
4263.263263263263 0.4055716423945064
4273.273273273273 0.40395793100881816
4283.283283283283 0.4023481443110732
4293.293293293293 0.4007423305901888
4303.303303303303 0.39914053680001377
4313.313313313313 0.3975428085820084
4323.323323323323 0.395949190287613
4333.333333333334 0.3943597250003178
4343.343343343344 0.39277445455742444
4353.353353353354 0.39119341957151366
4363.3633633633635 0.3896166594516106
4373.373373373373 0.38804421242406234
4383.383383383383 0.3864761155531184
4393.393393393393 0.3849124047612262
4403.403403403403 0.3833531148490407
4413.413413413413 0.38179827951514766
4423.423423423424 0.3802479313755134
4433.4334334334335 0.3787021019826488
4443.443443443443 0.377160821844507
4453.453453453454 0.37562412044310295
4463.463463463464 0.37409202625286975
4473.473473473474 0.3725645667587429
4483.483483483484 0.37104176847398823
4493.493493493494 0.36952365695776374
4503.503503503503 0.3680102568324273
4513.513513513513 0.3665015918005895
4523.523523523523 0.36499768466191296
4533.533533533533 0.36349855732966607
4543.543543543543 0.3620042308470267
4553.553553553554 0.3605147254031455
4563.563563563564 0.3590300603489687
4573.573573573573 0.3575502542128218
4583.583583583584 0.3560753247157595
4593.593593593594 0.35460528878668424
4603.603603603604 0.35314016257723363
4613.613613613614 0.3516799614764438
4623.623623623624 0.3502247001251874
4633.6336336336335 0.3487743924303904
4643.643643643643 0.3473290515790334
4653.653653653653 0.3458886900519335
4663.663663663663 0.34445331963731635
4673.673673673674 0.3430229514441769
4683.683683683684 0.3415975959154328
4693.693693693694 0.34017726284087263
4703.703703703704 0.3387619613699026
4713.713713713714 0.3373517000240939
4723.723723723724 0.3359464867095312
4733.733733733734 0.33454632872896845
4743.743743743744 0.333151232793793
4753.753753753754 0.3317612050357985
4763.763763763764 0.3303762510187732
4773.773773773773 0.32899637574990104
4783.783783783783 0.3276215836909841
4793.793793793793 0.32625187876948336
4803.803803803804 0.3248872643893824
4813.813813813814 0.3235277434418779
4823.823823823824 0.3221733183158966
4833.833833833834 0.32082399090844216
4843.843843843844 0.3194797626347764
4853.853853853854 0.31814063443843166
4863.863863863864 0.31680660680106465
4873.873873873874 0.3154776797521452
4883.883883883884 0.31415385287848996
4893.893893893894 0.31283512533363755
4903.9039039039035 0.31152149584707084
4913.913913913913 0.3102129627332875
4923.923923923924 0.30890952390071896
4933.933933933934 0.30761117686050415
4943.943943943944 0.3063179187351164
4953.953953953955 0.3050297462668466
4963.9639639639645 0.3037466558261466
4973.973973973974 0.30246864341983065
4983.983983983984 0.30119570469914264
4993.993993993994 0.29992783496768555
5004.004004004004 0.2986650291892176
5014.014014014014 0.29740728199531985
5024.024024024024 0.29615458769292974
5034.0340340340335 0.2949069402717514
5044.044044044043 0.2936643334115371
5054.054054054054 0.2924267604892464
5064.064064064064 0.2911942145860833
5074.074074074074 0.2899666884944118
5084.084084084085 0.2887441747245545
5094.0940940940945 0.28752666551147427
5104.104104104104 0.2863141528213396
5114.114114114114 0.28510662835797884
5124.124124124124 0.28390408356922164
5134.134134134134 0.28270650965313016
5144.144144144144 0.2815138975641232
5154.154154154154 0.28032623801899426
5164.1641641641645 0.27914352150282157
5174.174174174174 0.2779657382747793
5184.184184184184 0.27679287837384314
5194.194194194194 0.27562493162439755
5204.204204204204 0.2744618876417446
5214.214214214214 0.2733037358375147
5224.224224224225 0.2721504654249818
5234.2342342342345 0.2710020654242854
5244.244244244244 0.26985852466755794
5254.254254254254 0.2687198318039638
5264.264264264264 0.2675859753046449
5274.274274274274 0.26645694346758053
5284.284284284285 0.2653327244223595
5294.294294294295 0.2642133061348656
5304.304304304304 0.2630986764118789
5314.314314314314 0.261988822905596
5324.324324324324 0.26088373311806473
5334.334334334334 0.25978339440554227
5344.344344344345 0.2586877939827707
5354.354354354355 0.25759691892717823
5364.3643643643645 0.25651075618299873
5374.374374374374 0.2554292925653219
5384.384384384384 0.2543525147640629
5394.394394394394 0.253280409347864
5404.404404404404 0.25221296276792005
5414.414414414415 0.2511501613617372
5424.424424424425 0.2500919913568185
5434.4344344344345 0.24903843887428243
5444.444444444444 0.24798948993241363
5454.454454454454 0.2469451304501482
5464.464464464464 0.24590534625049207
5474.474474474475 0.24487012306387634
5484.484484484485 0.24383944653144832
5494.494494494495 0.24281330220830194
5504.504504504504 0.2417916755666456
5514.514514514514 0.24077455199890918
5524.524524524524 0.23976191682079473
5534.534534534535 0.2387537552742654
5544.544544544545 0.23775005253048023
5554.554554554555 0.23675079369266902
5564.5645645645645 0.23575596379895558
5574.574574574574 0.23476554782512346
5584.584584584584 0.23377953068733
5594.594594594595 0.23279789724476538
5604.604604604605 0.23182063230226316
5614.614614614615 0.23084772061285597
5624.624624624625 0.22987914688028363
5634.6346346346345 0.22891489576145152
5644.644644644644 0.22795495186883832
5654.654654654654 0.22699929977285987
5664.664664664665 0.22604792400418186
5674.674674674675 0.2251008090559896
5684.684684684685 0.22415793938621056
5694.694694694695 0.2232192994196929
5704.704704704704 0.22228487355034
5714.714714714714 0.22135464614320224
5724.724724724725 0.22042860153652544
5734.734734734735 0.21950672404375854
5744.744744744745 0.21858899795551948
5754.754754754755 0.2176754075415211
5764.764764764765 0.21676593705245778
5774.774774774774 0.2158605707218523
5784.784784784785 0.21495929276786493
5794.794794794795 0.2140620873950647
5804.804804804805 0.21316893879616367
5814.814814814815 0.2122798311537145
5824.824824824825 0.2113947486417732
5834.8348348348345 0.21051367542752492
5844.844844844845 0.20963659567287746
5854.854854854855 0.20876349353601878
5864.864864864865 0.20789435317294222
5874.874874874875 0.20702915873893876
5884.884884884885 0.2061678943900569
5894.894894894895 0.20531054428453013
5904.9049049049045 0.2044570925841748
5914.914914914915 0.2036075234557562
5924.924924924925 0.202761821072325
5934.934934934935 0.20191996961452335
5944.944944944945 0.20108195327186354
5954.954954954955 0.20024775624397623
5964.964964964965 0.19941736274183205
5974.974974974975 0.1985907569889349
5984.984984984985 0.19776792322248854
5994.994994994995 0.19694884569453644
6005.005005005005 0.1961335086730747
6015.015015015015 0.19532189644314138
6025.025025025025 0.19451399330787816
6035.035035035035 0.19370978358956853
6045.045045045045 0.19290925163065192
6055.055055055055 0.19211238179471313
6065.065065065065 0.19131915846744788
6075.075075075075 0.19052956605760696
6085.085085085085 0.18974358899791577
6095.0950950950955 0.1889612117459733
6105.105105105105 0.1881824187851279
6115.115115115115 0.1874071946253322
6125.125125125125 0.18663552380397672
6135.135135135135 0.1858673908867035
6145.145145145145 0.18510278046819767
6155.155155155155 0.18434167717296124
6165.1651651651655 0.1835840656560651
6175.175175175175 0.1828299306038838
6185.185185185185 0.18207925673480937
6195.195195195195 0.18133202879994859
6205.205205205205 0.18058823158380063
6215.215215215215 0.1798478499049164
6225.225225225226 0.17911086861654252
6235.235235235235 0.1783772726072454
6245.245245245245 0.17764704680152005
6255.255255255255 0.17692017616038194
6265.265265265265 0.17619664568194185
6275.275275275275 0.17547644040196542
6285.285285285286 0.1747595453944169
6295.295295295296 0.17404594577198698
