#lamb flux
1000.0 2.7343805732816007e+34
1010.01001001001 3.3490200558107025e+34
1020.0200200200201 4.082884757892314e+34
1030.03003003003 4.955336477822301e+34
1040.0400400400401 5.988237003026716e+34
1050.05005005005 7.206178378641825e+34
1060.06006006006 8.636723567765063e+34
1070.07007007007 1.0310656943368848e+35
1080.08008008008 1.2262243958963176e+35
1090.0900900900901 1.4529499255165412e+35
1100.1001001001 1.7154462373294397e+35
1110.11011011011 2.0183480165772716e+35
1120.1201201201202 2.3667494917276707e+35
1130.13013013013 2.766233712089856e+35
1140.1401401401401 3.2229021790700123e+35
1150.1501501501502 3.743404713645731e+35
1160.16016016016 4.334969437856948e+35
1170.1701701701702 5.0054327441365585e+35
1180.1801801801803 5.763269123166066e+35
1190.1901901901902 6.6176207186539315e+35
1200.2002002002002 7.578326476007794e+35
1210.2102102102103 8.655950751303844e+35
1220.2202202202202 9.861811247240071e+35
1230.2302302302303 1.1208006143878863e+36
1240.2402402402402 1.2707440293915791e+36
1250.2502502502502 1.4373774161697575e+36
1260.2602602602603 1.6221315447766876e+36
1270.2702702702702 1.8264887960049396e+36
1280.2802802802803 2.052053870683054e+36
1290.2902902902902 2.3005176730017272e+36
1300.3003003003003 2.573658504670626e+36
1310.3103103103103 2.8733430558644413e+36
1320.3203203203202 3.2015271850069695e+36
1330.3303303303303 3.560256480325528e+36
1340.3403403403404 3.9516665970091295e+36
1350.3503503503503 4.377983364718163e+36
1360.3603603603603 4.8415226611090137e+36
1370.3703703703704 5.344690047950537e+36
1380.3803803803803 5.889980167311074e+36
1390.3903903903904 6.47997589617941e+36
1400.4004004004005 7.117347258741521e+36
1410.4104104104103 7.804850096365254e+36
1420.4204204204204 8.545324496136569e+36
1430.4304304304305 9.341692979539492e+36
1440.4404404404404 1.0196958453574818e+37
1450.4504504504505 1.1114201927259418e+37
1460.4604604604606 1.2096579997038833e+37
1470.4704704704704 1.3147322105172636e+37
1480.4804804804805 1.4269727575613362e+37
1490.4904904904906 1.546716243228834e+37
1500.5005005005005 1.674305600500871e+37
1510.5105105105106 1.8100897328466697e+37
1520.5205205205207 1.9544231339934983e+37
1530.5305305305305 2.107665488135298e+37
1540.5405405405404 2.27018125114658e+37
1550.5505505505505 2.4423392133570544e+37
1560.5605605605606 2.6245120444226953e+37
1570.5705705705705 2.8170758207989143e+37
1580.5805805805805 3.0204095362825045e+37
1590.5905905905906 3.234894596040354e+37
1600.6006006006005 3.4609142944843555e+37
1610.6106106106106 3.698853277284863e+37
1620.6206206206207 3.9490969877382837e+37
1630.6306306306305 4.2120310976205404e+37
1640.6406406406406 4.488040922566783e+37
1650.6506506506507 4.777510821921114e+37
1660.6606606606606 5.080823582901527e+37
1670.6706706706707 5.3983597888256e+37
1680.6806806806808 5.730497171049034e+37
1690.6906906906906 6.0776099441854775e+37
1700.7007007007007 6.44006988722117e+37
1710.7107107107108 6.818249990200061e+37
1720.7207207207207 7.212510661405484e+37
1730.7307307307308 7.623204869961319e+37
1740.7407407407409 8.05067831585175e+37
1750.7507507507507 8.495268644426785e+37
1760.7607607607606 8.957304642465887e+37
1770.770770770771 9.43710541680853e+37
1780.7807807807808 9.93497955741196e+37
1790.7907907907907 1.0451224287869149e+38
1800.8008008008007 1.0986124607996759e+38
1810.8108108108108 1.1539952435187956e+38
1820.8208208208207 1.21129657539366e+38
1830.8308308308308 1.2705407786412782e+38
1840.8408408408409 1.3317506201358594e+38
1850.8508508508507 1.394947238403855e+38
1860.8608608608608 1.4601500796675004e+38
1870.870870870871 1.527376846686925e+38
1880.8808808808808 1.5966434651031718e+38
1890.890890890891 1.6679640730818745e+38
1900.900900900901 1.7413510412829726e+38
1910.9109109109108 1.8168150314958007e+38
1920.920920920921 1.894365103606633e+38
1930.930930930931 1.974008881786608e+38
1940.940940940941 2.055752791721069e+38
1950.950950950951 2.1396023810932532e+38
1960.960960960961 2.2255627350533215e+38
1970.970970970971 2.3136389966355504e+38
1980.980980980981 2.4038369985624113e+38
1990.9909909909911 2.4961640071092985e+38
2001.001001001001 2.590629570282283e+38
2011.0110110110109 2.6872464512543637e+38
2021.0210210210212 2.786031613934309e+38
2031.031031031031 2.8870072113586423e+38
2041.0410410410411 2.9902015106521707e+38
2051.051051051051 3.095649672744858e+38
2061.061061061061 3.2033942937542644e+38
2071.071071071071 3.313485611306451e+38
2081.081081081081 3.4259812863645016e+38
2091.091091091091 3.540945691794399e+38
2101.101101101101 3.658448673598427e+38
2111.1111111111113 3.77856379762199e+38
2121.121121121121 3.901366148827336e+38
2131.131131131131 4.0269298045970425e+38
2141.141141141141 4.155325149208671e+38
2151.151151151151 4.286616225182015e+38
2161.161161161161 4.4208583225629785e+38
2171.1711711711714 4.558095987281972e+38
2181.1811811811813 4.698361587126649e+38
2191.191191191191 4.841674515438091e+38
2201.201201201201 4.988041047867432e+38
2211.2112112112113 5.13745480638877e+38
2221.221221221221 5.289897735585468e+38
2231.2312312312315 5.445341464227941e+38
2241.2412412412414 5.603748911900944e+38
2251.2512512512512 5.765076004212547e+38
2261.261261261261 5.9292733769556714e+38
2271.271271271271 6.09628797451363e+38
2281.2812812812813 6.266064475919308e+38
2291.2912912912916 6.4385465092876226e+38
2301.3013013013015 6.6136776390921746e+38
2311.3113113113113 6.791402129477558e+38
2321.321321321321 6.971665500092988e+38
2331.331331331331 7.154414899173325e+38
2341.3413413413414 7.339599322597357e+38
2351.3513513513512 7.527169708419548e+38
2361.3613613613616 7.71707893488884e+38
2371.3713713713714 7.909281747098882e+38
2381.3813813813813 8.103734633848045e+38
2391.391391391391 8.300395672525661e+38
2401.4014014014015 8.499224356221669e+38
2411.4114114114113 8.700181413983135e+38
2421.4214214214217 8.903228632311169e+38
2431.4314314314315 9.10832868363472e+38
2441.4414414414414 9.315444965598464e+38
2451.4514514514512 9.524541453512685e+38
2461.4614614614616 9.73558256718273e+38
2471.4714714714714 9.948533052500017e+38
2481.4814814814818 1.0163357877584308e+39
2491.4914914914916 1.0380022142862021e+39
2501.5015015015015 1.0598491004208584e+39
2511.5115115115113 1.0818729608135169e+39
2521.521521521521 1.1040703037932013e+39
2531.5315315315315 1.1264376269671816e+39
2541.541541541542 1.1489714137004572e+39
2551.5515515515517 1.1716681303730144e+39
2561.5615615615616 1.1945242243204693e+39
2571.5715715715714 1.2175361223714594e+39
2581.5815815815813 1.2407002299031736e+39
2591.5915915915916 1.2640129303443746e+39
2601.6016016016015 1.2874705850628561e+39
2611.611611611612 1.3110695335814183e+39
2621.6216216216217 1.3348060940730196e+39
2631.6316316316315 1.3586765640917682e+39
2641.6416416416414 1.3826772215017776e+39
2651.6516516516517 1.4068043255708313e+39
2661.6616616616616 1.4310541181999406e+39
2671.671671671672 1.4554228252638535e+39
2681.6816816816818 1.4799066580407444e+39
2691.6916916916916 1.504501814712351e+39
2701.7017017017015 1.5292044819183454e+39
2711.711711711712 1.554010836350906e+39
2721.7217217217217 1.5789170463775337e+39
2731.731731731732 1.603919273681668e+39
2741.741741741742 1.6290136749122477e+39
2751.7517517517517 1.6541964033346234e+39
2761.7617617617616 1.679463610476226e+39
2771.7717717717715 1.7048114477614876e+39
2781.781781781782 1.7302360681312128e+39
2791.791791791792 1.755733627642415e+39
2801.801801801802 1.7813002870451446e+39
2811.811811811812 1.8069322133334745e+39
2821.8218218218217 1.8326255812681757e+39
2831.8318318318316 1.8583765748690986e+39
2841.841841841842 1.8841813888755417e+39
2851.851851851852 1.9100362301732848e+39
2861.861861861862 1.9359373191871095e+39
2871.871871871872 1.9618808912379577e+39
2881.881881881882 1.9878631978640357e+39
2891.8918918918916 2.0138805081052765e+39
2901.901901901902 2.039929109750903e+39
2911.911911911912 2.0660053105497018e+39
2921.921921921922 2.0921054393829888e+39
2931.931931931932 2.1182258474001603e+39
2941.941941941942 2.144362909116899e+39
2951.9519519519517 2.1705130234761634e+39
2961.961961961962 2.1966726148721254e+39
2971.971971971972 2.2228381341372974e+39
2981.9819819819822 2.2490060594931853e+39
2991.991991991992 2.2751728974647286e+39
3002.002002002002 2.3013351837589778e+39
3012.012012012012 2.3274894841083212e+39
3022.0220220220217 2.3536323950788067e+39
3032.032032032032 2.380408939832749e+39
3042.0420420420423 2.4064462528501736e+39
3052.052052052052 2.432436297851262e+39
3062.062062062062 2.458381190519051e+39
3072.072072072072 2.4842825595436877e+39
3082.0820820820823 2.5101415813670074e+39
3092.092092092092 2.5359590133879694e+39
3102.102102102102 2.5617352256388195e+39
3112.1121121121123 2.587470230951045e+39
3122.122122122122 2.613163713637824e+39
3132.132132132132 2.6388150567254165e+39
3142.1421421421423 2.6644233677706485e+39
3152.152152152152 2.6899875033050158e+39
3162.162162162162 2.7155060919486605e+39
3172.1721721721724 2.740977556238987e+39
3182.1821821821823 2.76640013322008e+39
3192.192192192192 2.791771893839493e+39
3202.202202202202 2.817090761199249e+39
3212.2122122122123 2.842354527707735e+39
3222.222222222222 2.867560871178495e+39
3232.232232232232 2.892707369921635e+39
3242.2422422422424 2.917791516872201e+39
3252.252252252252 2.942810732799286e+39
3262.262262262262 2.967762378638227e+39
3272.2722722722724 2.992643766987258e+39
3282.2822822822823 3.0174521728086187e+39
3292.292292292292 3.042184843372869e+39
3302.3023023023025 3.066839007483921e+39
3312.3123123123123 3.0914118840208626e+39
3322.322322322322 3.1159006898315294e+39
3332.3323323323325 3.140302647011322e+39
3342.3423423423424 3.1646149895995384e+39
3352.352352352352 3.18883496972436e+39
3362.3623623623625 3.212959863226187e+39
3372.3723723723724 3.236986974787998e+39
3382.3823823823823 3.2609136426001714e+39
3392.3923923923926 3.2847372425860725e+39
3402.4024024024025 3.308455192213581e+39
3412.4124124124123 3.33206495391675e+39
3422.4224224224226 3.355564038150622e+39
3432.4324324324325 3.378950006101331e+39
3442.4424424424424 3.402220472072601e+39
3452.4524524524522 3.425373105568769e+39
3462.4624624624626 3.4484056330936565e+39
3472.4724724724724 3.471315839683614e+39
3482.4824824824823 3.4941015701922806e+39
3492.4924924924926 3.5167607303438e+39
3502.5025025025025 3.5392912875703746e+39
3512.5125125125123 3.5616912716493114e+39
3522.5225225225226 3.583958775153985e+39
3532.5325325325325 3.606091953732448e+39
3542.5425425425424 3.6280890262266506e+39
3552.5525525525527 3.649948274644666e+39
3562.5625625625626 3.671668043997696e+39
3572.5725725725724 3.6932467420128246e+39
3582.5825825825827 3.714682838732211e+39
3592.5925925925926 3.7359748660085755e+39
3602.6026026026025 3.7571214169064064e+39
3612.612612612613 3.7781211450178355e+39
3622.6226226226227 3.798972763701442e+39
3632.6326326326325 3.819675045252083e+39
3642.642642642643 3.84022682000898e+39
3652.6526526526527 3.8606269754092066e+39
3662.6626626626626 3.8808744549930886e+39
3672.672672672673 3.900968257367739e+39
3682.6826826826828 3.920907435134368e+39
3692.6926926926926 3.9406910937849674e+39
3702.7027027027025 3.96031839057323e+39
3712.712712712713 3.9797885333645275e+39
3722.7227227227227 3.99910077946931e+39
3732.7327327327325 4.018254434463929e+39
3742.742742742743 4.0372488510027646e+39
3752.7527527527527 4.056083427625095e+39
3762.7627627627626 4.0747576075599065e+39
3772.772772772773 4.093270877531742e+39
3782.7827827827828 4.1116227665701675e+39
3792.7927927927926 4.129812844825482e+39
3802.802802802803 4.1478407223929286e+39
3812.812812812813 4.165706048147484e+39
3822.8228228228227 4.1834085085911054e+39
3832.832832832833 4.200947826714188e+39
3842.842842842843 4.2183237608727666e+39
3852.8528528528527 4.2355361036827883e+39
3862.862862862863 4.252584680932743e+39
3872.872872872873 4.269469350515695e+39
3882.8828828828828 4.2861900013816424e+39
3892.892892892893 4.3027465525111505e+39
3902.902902902903 4.319138951910697e+39
3912.912912912913 4.335367175630658e+39
3922.922922922923 4.351431226806119e+39
3932.932932932933 4.36733113472109e+39
3942.942942942943 4.3830669538963646e+39
3952.9529529529527 4.39863876320121e+39
3962.962962962963 4.4140466649891016e+39
3972.972972972973 4.429290784257494e+39
3982.982982982983 4.444371267831711e+39
3992.992992992993 4.45928828357283e+39
4003.003003003003 4.4740420196094773e+39
4013.013013013013 4.488632683593404e+39
4023.023023023023 4.50306050197857e+39
4033.033033033033 4.5173257193235495e+39
4043.043043043043 4.531428597616926e+39
4053.053053053053 4.5453694156253525e+39
4063.063063063063 4.5591484682639935e+39
4073.073073073073 4.5727660659888464e+39
4083.0830830830832 4.586222534210664e+39
4093.093093093093 4.5995182127299886e+39
4103.103103103103 4.612653455192783e+39
4113.113113113113 4.6256286285664247e+39
4123.123123123123 4.6384441126352724e+39
4133.133133133133 4.651100299515616e+39
4143.143143143143 4.663597593189281e+39
4153.153153153153 4.6759364090556027e+39
4163.163163163163 4.688117173501035e+39
4173.173173173173 4.7001403234860845e+39
4183.183183183183 4.7120063061489074e+39
4193.193193193193 4.723715578425169e+39
4203.203203203203 4.735268606683548e+39
4213.213213213214 4.746665866376489e+39
4223.223223223224 4.757907841705566e+39
4233.2332332332335 4.768995025301051e+39
4243.243243243243 4.77992791791517e+39
4253.253253253253 4.7907070281284765e+39
4263.263263263263 4.801332872068998e+39
4273.273273273273 4.811805973143506e+39
4283.283283283283 4.8221268617805743e+39
4293.293293293293 4.832296075184885e+39
4303.303303303303 4.8423141571023636e+39
4313.313313313313 4.852181657595659e+39
4323.323323323323 4.861899132829557e+39
4333.333333333334 4.871467144865932e+39
4343.343343343344 4.880886261467703e+39
4353.353353353354 4.89015705591158e+39
4363.3633633633635 4.8992801068089595e+39
4373.373373373373 4.908255997934839e+39
4383.383383383383 4.917085318064157e+39
4393.393393393393 4.925768660815349e+39
4403.403403403403 4.934306624500684e+39
4413.413413413413 4.942699811983048e+39
4423.423423423424 4.9509488305388996e+39
4433.4334334334335 4.9590542917269605e+39
4443.443443443443 4.967016811262506e+39
4453.453453453454 4.974837008896761e+39
4463.463463463464 4.9825155083012754e+39
4473.473473473474 4.9900529369568966e+39
4483.483483483484 4.9974499260471205e+39
4493.493493493494 5.00470711035556e+39
4503.503503503503 5.011825128167257e+39
4513.513513513513 5.0188046211736756e+39
4523.523523523523 5.025646234380981e+39
4533.533533533533 5.0323506160216583e+39
4543.543543543543 5.038918417468946e+39
4553.553553553554 5.0453502931541524e+39
4563.563563563564 5.051646900486523e+39
4573.573573573573 5.057808899775478e+39
4583.583583583584 5.063836954155133e+39
4593.593593593594 5.0697317295108587e+39
4603.603603603604 5.0754938944077045e+39
4613.613613613614 5.0811241200206905e+39
4623.623623623624 5.0866230800666006e+39
4633.6336336336335 5.091991450737316e+39
4643.643643643643 5.0972299106345245e+39
4653.653653653653 5.10233914070562e+39
4663.663663663663 5.1073198241807677e+39
4673.673673673674 5.1121726465109654e+39
4683.683683683684 5.1168982953070135e+39
4693.693693693694 5.121497460279374e+39
4703.703703703704 5.1259708331786804e+39
4713.713713713714 5.130319107736965e+39
4723.723723723724 5.1345429796094406e+39
4733.733733733734 5.138643146316797e+39
4743.743743743744 5.142620307187943e+39
4753.753753753754 5.14647516330311e+39
4763.763763763764 5.1502084174372993e+39
4773.773773773773 5.1538207740039946e+39
4783.783783783783 5.1573129389990934e+39
4793.793793793793 5.160685619945021e+39
4803.803803803804 5.1639395258349685e+39
4813.813813813814 5.1670753670772567e+39
4823.823823823824 5.170093855439777e+39
4833.833833833834 5.172995703994421e+39
4843.843843843844 5.175781627061594e+39
4853.853853853854 5.178452340154663e+39
4863.863863863864 5.181008559924413e+39
4873.873873873874 5.1834510041034504e+39
4883.883883883884 5.185780391450543e+39
4893.893893893894 5.1879974416948845e+39
4903.9039039039035 5.1901028754802917e+39
4913.913913913913 5.1920974143092983e+39
4923.923923923924 5.193981780487183e+39
4933.933933933934 5.195756697065873e+39
4943.943943943944 5.197422887787761e+39
4953.953953953955 5.1989810770294246e+39
4963.9639639639645 5.2004319897452767e+39
4973.973973973974 5.201776351411067e+39
4983.983983983984 5.203014887967379e+39
4993.993993993994 5.20414832576297e+39
5004.004004004004 5.205177391498078e+39
5014.014014014014 5.206102812167692e+39
5024.024024024024 5.2069253150047214e+39
5034.0340340340335 5.20764562742314e+39
5044.044044044043 5.2082644769611266e+39
5054.054054054054 5.208782591224163e+39
5064.064064064064 5.209200697828138e+39
5074.074074074074 5.209519524342481e+39
5084.084084084085 5.2097397982332584e+39
5094.0940940940945 5.2098622468064163e+39
5104.104104104104 5.209887597150975e+39
5114.114114114114 5.209816576082385e+39
5124.124124124124 5.2096499100859057e+39
5134.134134134134 5.209388325260133e+39
5144.144144144144 5.2090325472606215e+39
5154.154154154154 5.208583301243698e+39
5164.1641641641645 5.2080413118103716e+39
5174.174174174174 5.207407302950468e+39
5184.184184184184 5.2066819979869236e+39
5194.194194194194 5.2058661195203297e+39
5204.204204204204 5.204960389373679e+39
5214.214214214214 5.203965528537347e+39
5224.224224224225 5.20288225711439e+39
5234.2342342342345 5.201711294266084e+39
5244.244244244244 5.2004533581577434e+39
5254.254254254254 5.199109165904931e+39
5264.264264264264 5.1976794335199245e+39
5274.274274274274 5.196164875858571e+39
5284.284284284285 5.194566206567525e+39
5294.294294294295 5.192884138031803e+39
5304.304304304304 5.191119381322824e+39
5314.314314314314 5.1892726461468056e+39
5324.324324324324 5.1873446407935826e+39
5334.334334334334 5.1853360720859354e+39
5344.344344344345 5.1832476453293076e+39
5354.354354354355 5.1810800642620143e+39
5364.3643643643645 5.1788340310059836e+39
5374.374374374374 5.1765102460179375e+39
5384.384384384384 5.17410940804111e+39
5394.394394394394 5.1716322140575144e+39
5404.404404404404 5.1690793592407054e+39
5414.414414414415 5.166451536909122e+39
5424.424424424425 5.163749438480012e+39
5434.4344344344345 5.160973753423855e+39
5444.444444444444 5.158125169219448e+39
5454.454454454454 5.1552043713095645e+39
5464.464464464464 5.1522120430571584e+39
5474.474474474475 5.149148865702292e+39
5484.484484484485 5.146015518319565e+39
5494.494494494495 5.142812677776258e+39
5504.504504504504 5.1395410186911007e+39
5514.514514514514 5.1362012133936187e+39
5524.524524524524 5.1327939318842405e+39
5534.534534534535 5.129319841794986e+39
5544.544544544545 5.1257796083508374e+39
5554.554554554555 5.1221738943317745e+39
5564.5645645645645 5.118503360035546e+39
5574.574574574574 5.1147686632410195e+39
5584.584584584584 5.110970459172309e+39
5594.594594594595 5.1071094004635346e+39
5604.604604604605 5.1031861371243175e+39
5614.614614614615 5.0992013165059483e+39
5624.624624624625 5.09515558326825e+39
5634.6346346346345 5.091049579347168e+39
5644.644644644644 5.0868839439230364e+39
5654.654654654654 5.082659313389604e+39
5664.664664664665 5.07837632132369e+39
5674.674674674675 5.0740355984556023e+39
5684.684684684685 5.069637772640284e+39
5694.694694694695 5.065183468829109e+39
5704.704704704704 5.060673309042443e+39
5714.714714714714 5.056107912342884e+39
5724.724724724725 5.051487894809224e+39
5734.734734734735 5.0468138695111356e+39
5744.744744744745 5.0420864464845347e+39
5754.754754754755 5.037306232707662e+39
5764.764764764765 5.0324738320778996e+39
5774.774774774774 5.027589845389239e+39
5784.784784784785 5.022654870310483e+39
5794.794794794795 5.01766950136415e+39
5804.804804804805 5.012634329906037e+39
5814.814814814815 5.007549944105527e+39
5824.824824824825 5.0024169289265335e+39
5834.8348348348345 4.997235866109154e+39
5844.844844844845 4.992007334152045e+39
5854.854854854855 4.986731908295364e+39
5864.864864864865 4.9814101605045034e+39
5874.874874874875 4.976042659454434e+39
5884.884884884885 4.9706299705147134e+39
5894.894894894895 4.9651726557351523e+39
