#lamb flux
1000.0 6.884415650540505e+40
1010.01001001001 7.127109836766597e+40
1020.0200200200201 7.363517646794066e+40
1030.03003003003 7.593451142942254e+40
1040.0400400400401 7.816773842925815e+40
1050.05005005005 8.033395646208771e+40
1060.06006006006 8.243267947225718e+40
1070.07007007007 8.44637898202265e+40
1080.08008008008 8.64274944073572e+40
1090.0900900900901 8.832428366562602e+40
1100.1001001001 9.015489352250094e+40
1110.11011011011 9.192027037374395e+40
1120.1201201201202 9.362153903581676e+40
1130.13013013013 9.525997360253809e+40
1140.1401401401401 9.683697109551587e+40
1150.1501501501502 9.835402777269103e+40
1160.16016016016 9.981271794234886e+40
1170.1701701701702 1.0121467511963284e+41
1180.1801801801803 1.0256157535762998e+41
1190.1901901901902 1.038551225843207e+41
1200.2002002002002 1.0509703577917811e+41
1210.2102102102103 1.0628903782812044e+41
1220.2202202202202 1.0743284590223016e+41
1230.2302302302303 1.0853016321359549e+41
1240.2402402402402 1.095826720103647e+41
1250.2502502502502 1.105889163744745e+41
1260.2602602602603 1.1154112033552075e+41
1270.2702702702702 1.1242375098881999e+41
1280.2802802802803 1.132384973662253e+41
1290.2902902902902 1.139870942104254e+41
1300.3003003003003 1.1467131118947032e+41
1310.3103103103103 1.1529294308318281e+41
1320.3203203203202 1.1585380088444521e+41
1330.3303303303303 1.1635570375828729e+41
1340.3403403403404 1.1680047180227824e+41
1350.3503503503503 1.1718991955283315e+41
1360.3603603603603 1.1752585018356283e+41
1370.3703703703704 1.1781005034362072e+41
1380.3803803803803 1.180442855860671e+41
1390.3903903903904 1.182302963384975e+41
1400.4004004004005 1.1836979437050628e+41
1410.4104104104103 1.1846445971495174e+41
1420.4204204204204 1.1851593800238846e+41
1430.4304304304305 1.1852583817042487e+41
1440.4404404404404 1.1849573051211774e+41
1450.4504504504505 1.1842714502980033e+41
1460.4604604604606 1.1832157006296145e+41
1470.4704704704704 1.1818045116092188e+41
1480.4804804804805 1.1800519017308814e+41
1490.4904904904906 1.1779714453150428e+41
1500.5005005005005 1.175576267022595e+41
1510.5105105105106 1.1728790378404774e+41
1520.5205205205207 1.169891972338197e+41
1530.5305305305305 1.1666268270101155e+41
1540.5405405405404 1.1630948995330526e+41
1550.5505505505505 1.1593070287825503e+41
1560.5605605605606 1.1552735954643217e+41
1570.5705705705705 1.1510045232300205e+41
1580.5805805805805 1.1465092801586469e+41
1590.5905905905906 1.1417968804967968e+41
1600.6006006006005 1.1368758865628179e+41
1610.6106106106106 1.131754410731981e+41
1620.6206206206207 1.1264401174321391e+41
1630.6306306306305 1.1209402250926047e+41
1640.6406406406406 1.1152615080032396e+41
1650.6506506506507 1.1094102980566648e+41
1660.6606606606606 1.1033924863644664e+41
1670.6706706706707 1.0972135247590228e+41
1680.6806806806808 1.0908784272167789e+41
1690.6906906906906 1.08439177126744e+41
1700.7007007007007 1.0777592654853175e+41
1710.7107107107108 1.070990893905176e+41
1720.7207207207207 1.0640892014940669e+41
1730.7307307307308 1.0570555388673078e+41
1740.7407407407409 1.0498909471041236e+41
1750.7507507507507 1.0425961571730076e+41
1760.7607607607606 1.0351715914637638e+41
1770.770770770771 1.027617368050531e+41
1780.7807807807808 1.019933308449836e+41
1790.7907907907907 1.0121189498016841e+41
1800.8008008008007 1.0041735625921746e+41
1810.8108108108108 9.960961752547452e+40
1820.8208208208207 9.878856072342795e+40
1830.8308308308308 9.795405123723691e+40
1840.8408408408409 9.710594347683027e+40
1850.8508508508507 9.62440879579779e+40
1860.8608608608608 9.536834015343854e+40
1870.870870870871 9.447857142036262e+40
1880.8808808808808 9.357468233103408e+40
1890.890890890891 9.265661874482306e+40
1900.900900900901 9.172439095221119e+40
1910.9109109109108 9.077809618826538e+40
1920.920920920921 8.981794474223769e+40
1930.930930930931 8.884428976933991e+40
1940.940940940941 8.78576607261447e+40
1950.950950950951 8.685880008835675e+40
1960.960960960961 8.584870265682418e+40
1970.970970970971 8.482865630791284e+40
1980.980980980981 8.380028250090938e+40
1990.9909909909911 8.276557423644404e+40
2001.001001001001 8.172692850585734e+40
2011.0110110110109 8.068716964819411e+40
2021.0210210210212 7.964955953421816e+40
2031.031031031031 7.861779024675368e+40
2041.0410410410411 7.759595506072716e+40
2051.051051051051 7.658849417702309e+40
2061.061061061061 7.560011293012767e+40
2071.071071071071 7.463567209906368e+40
2081.081081081081 7.370005242814974e+40
2091.091091091091 7.279799830490649e+40
2101.101101101101 7.193394841658467e+40
2111.1111111111113 7.111186369103366e+40
2121.121121121121 7.033506447362193e+40
2131.131131131131 6.960608931815469e+40
2141.141141141141 6.892658675638534e+40
2151.151151151151 6.829724897032959e+40
2161.161161161161 6.771779269124018e+40
2171.1711711711714 6.718698837204445e+40
2181.1811811811813 6.670273433325875e+40
2191.191191191191 6.626216877362227e+40
2201.201201201201 6.586180975450615e+40
2211.2112112112113 6.549771179512719e+40
2221.221221221221 6.516562759992691e+40
2231.2312312312315 6.486116451162614e+40
2241.2412412412414 6.457992722416171e+40
2251.2512512512512 6.43176407118537e+40
2261.261261261261 6.407024985874198e+40
2271.271271271271 6.383399459868513e+40
2281.2812812812813 6.360546129657292e+40
2291.2912912912916 6.338161251280098e+40
2301.3013013013015 6.315979818590916e+40
2311.3113113113113 6.293775169563701e+40
2321.321321321321 6.271357432148219e+40
2331.331331331331 6.24857113942817e+40
2341.3413413413414 6.225292305015239e+40
2351.3513513513512 6.201425202204293e+40
2361.3613613613616 6.176899040920656e+40
2371.3713713713714 6.151664689411746e+40
2381.3813813813813 6.125691545712192e+40
2391.391391391391 6.098964628482947e+40
2401.4014014014015 6.071481928215054e+40
2411.4114114114113 6.043252037657282e+40
2421.4214214214217 6.014292063949844e+40
2431.4314314314315 5.984625813427321e+40
2441.4414414414414 5.954282232465645e+40
2451.4514514514512 5.923294083222341e+40
2461.4614614614616 5.891696830891824e+40
2471.4714714714714 5.859527718529542e+40
2481.4814814814818 5.826825006074054e+40
2491.4914914914916 5.793627351513304e+40
2501.5015015015015 5.759973313897586e+40
2511.5115115115113 5.725900959875311e+40
2521.521521521521 5.691447557462958e+40
2531.5315315315315 5.656649342751993e+40
2541.541541541542 5.62154134713642e+40
2551.5515515515517 5.586157274375411e+40
2561.5615615615616 5.550529418368128e+40
2571.5715715715714 5.514688613906817e+40
2581.5815815815813 5.478664213893605e+40
2591.5915915915916 5.442484087566621e+40
2601.6016016016015 5.406174635194197e+40
2611.611611611612 5.369760815477479e+40
2621.6216216216217 5.333266182565901e+40
2631.6316316316315 5.296712930151295e+40
2641.6416416416414 5.260121940578813e+40
2651.6516516516517 5.223512837307857e+40
2661.6616616616616 5.186904039385777e+40
2671.671671671672 5.150312816870475e+40
2681.6816816816818 5.113755346364066e+40
2691.6916916916916 5.077246766005848e+40
2701.7017017017015 5.040801229425253e+40
2711.711711711712 5.004431958280003e+40
2721.7217217217217 4.968151293105719e+40
2731.731731731732 4.931970742284831e+40
2741.741741741742 4.895901029008306e+40
2751.7517517517517 4.85995213615577e+40
2761.7617617617616 4.824133349061132e+40
2771.7717717717715 4.788453296162902e+40
2781.781781781782 4.75291998756357e+40
2791.791791791792 4.717540851541331e+40
2801.801801801802 4.682322769071515e+40
2811.811811811812 4.647272106425418e+40
2821.8218218218217 4.612394745921171e+40
2831.8318318318316 4.577696114905908e+40
2841.841841841842 4.54318121305094e+40
2851.851851851852 4.508854638042733e+40
2861.861861861862 4.474720609752051e+40
2871.871871871872 4.440782992962616e+40
2881.881881881882 4.407045318738586e+40
2891.8918918918916 4.373510804507842e+40
2901.901901901902 4.340182372935143e+40
2911.911911911912 4.3070626696563013e+40
2921.921921921922 4.274154079941192e+40
2931.931931931932 4.241458744350277e+40
2941.941941941942 4.2089785734458374e+40
2951.9519519519517 4.176715261615997e+40
2961.961961961962 4.1446703000663055e+40
2971.971971971972 4.1128449890305317e+40
2981.9819819819822 4.0812404492493104e+40
2991.991991991992 4.0498576327623494e+40
3002.002002002002 4.018697333057154e+40
3012.012012012012 3.9877601946145366e+40
3022.0220220220217 3.9570467218886925e+40
3032.032032032032 3.9322386703298757e+40
3042.0420420420423 3.901242642495649e+40
3052.052052052052 3.8702783354689563e+40
3062.062062062062 3.8394015573019725e+40
3072.072072072072 3.8086599533833963e+40
3082.0820820820823 3.7780938891567753e+40
3092.092092092092 3.7477372552177773e+40
3102.102102102102 3.717618199585463e+40
3112.1121121121123 3.6877597920367335e+40
3122.122122122122 3.6581806253756896e+40
3132.132132132132 3.6288953584086427e+40
3142.1421421421423 3.5999152052342533e+40
3152.152152152152 3.5712483752544587e+40
3162.162162162162 3.5429004680805807e+40
3172.1721721721724 3.5148748272610076e+40
3182.1821821821823 3.4871728565014956e+40
3192.192192192192 3.459794301792566e+40
3202.202202202202 3.4327375026062047e+40
3212.2122122122123 3.40599961507924e+40
3222.222222222222 3.379576809866273e+40
3232.232232232232 3.353464447122429e+40
3242.2422422422424 3.3276572308665453e+40
3252.252252252252 3.30214934477908e+40
3262.262262262262 3.2769345713064993e+40
3272.2722722722724 3.252006395774533e+40
3282.2822822822823 3.2273580970565496e+40
3292.292292292292 3.2029828261994964e+40
3302.3023023023025 3.17887367427808e+40
3312.3123123123123 3.155023730627125e+40
3322.322322322322 3.1314261324919234e+40
3332.3323323323325 3.1080741070358446e+40
3342.3423423423424 3.0849610065531545e+40
3352.352352352352 3.0620803376517288e+40
3362.3623623623625 3.0394257850950416e+40
3372.3723723723724 3.0169912309242194e+40
3382.3823823823823 2.99477076941893e+40
3392.3923923923926 2.9727587183997714e+40
3402.4024024024025 2.950949627323788e+40
3412.4124124124123 2.9293382825788137e+40
3422.4224224224226 2.9079197103407e+40
3432.4324324324325 2.886689177319781e+40
3442.4424424424424 2.86564218968895e+40
3452.4524524524522 2.8447744904549457e+40
3462.4624624624626 2.8240820555066473e+40
3472.4724724724724 2.803561088549135e+40
3482.4824824824823 2.7832080151094825e+40
3492.4924924924926 2.7630194757799127e+40
3502.5025025025025 2.742992318845359e+40
3512.5125125125123 2.723123592425809e+40
3522.5225225225226 2.7034105362487993e+40
3532.5325325325325 2.683850573153755e+40
3542.5425425425424 2.664441300417699e+40
3552.5525525525527 2.6451804809807404e+40
3562.5625625625626 2.626066034639858e+40
3572.5725725725724 2.607096029270453e+40
3582.5825825825827 2.5882686721271864e+40
3592.5925925925926 2.569582301268256e+40
3602.6026026026025 2.551035377140816e+40
3612.612612612613 2.53262647435939e+40
3622.6226226226227 2.5143542737038664e+40
3632.6326326326325 2.4962175543589813e+40
3642.642642642643 2.4782151864130525e+40
3652.6526526526527 2.460346123629914e+40
3662.6626626626626 2.4426093965047157e+40
3672.672672672673 2.4250041056113467e+40
3682.6826826826828 2.4075294152465484e+40
3692.6926926926926 2.3901845473735337e+40
3702.7027027027025 2.37296877586588e+40
3712.712712712713 2.35588142105071e+40
3722.7227227227227 2.338921844548636e+40
3732.7327327327325 2.322089444406545e+40
3742.742742742743 2.3053836505182593e+40
3752.7527527527527 2.2888039203270297e+40
3762.7627627627626 2.27234973480304e+40
3772.772772772773 2.2560205946884173e+40
3782.7827827827828 2.2398160170016496e+40
3792.7927927927926 2.223735531792864e+40
3802.802802802803 2.207778679141094e+40
3812.812812812813 2.1919450063843573e+40
3822.8228228228227 2.1762340655731925e+40
3832.832832832833 2.1606454111382184e+40
3842.842842842843 2.145178597762162e+40
3852.8528528528527 2.1298331784468726e+40
3862.862862862863 2.114608702765836e+40
3872.872872872873 2.0995047152928345e+40
3882.8828828828828 2.0845207541974668e+40
3892.892892892893 2.0696563499985284e+40
3902.902902902903 2.0549110244662578e+40
3912.912912912913 2.0402842896648372e+40
3922.922922922923 2.0257756471266585e+40
3932.932932932933 2.0113845871501793e+40
3942.942942942943 1.997110588213373e+40
3952.9529529529527 1.9829531164951316e+40
3962.962962962963 1.968911625497214e+40
3972.972972972973 1.9549855557595925e+40
3982.982982982983 1.9411743346623862e+40
3992.992992992993 1.927477376307803e+40
4003.003003003003 1.9138940814758618e+40
4013.013013013013 1.9004238376478616e+40
4023.023023023023 1.8870660190919512e+40
4033.033033033033 1.8738199870053321e+40
4043.043043043043 1.8606850897079733e+40
4053.053053053053 1.8476606628829508e+40
4063.063063063063 1.8347460298587891e+40
4073.073073073073 1.8219405019294409e+40
4083.0830830830832 1.8092433787078024e+40
4093.093093093093 1.796653948508867e+40
4103.103103103103 1.7841714887588973e+40
4113.113113113113 1.771795266427199e+40
4123.123123123123 1.7595245384772667e+40
4133.133133133133 1.7473585523343506e+40
4143.143143143143 1.7352965463666356e+40
4153.153153153153 1.7233377503774295e+40
4163.163163163163 1.7114813861059488e+40
4173.173173173173 1.699726667734473e+40
4183.183183183183 1.6880728023997862e+40
4193.193193193193 1.6765189907069872e+40
4203.203203203203 1.665064427243929e+40
4213.213213213214 1.6537083010946554e+40
4223.223223223224 1.6424497963503577e+40
4233.2332332332335 1.631288092616502e+40
4243.243243243243 1.6202223655149042e+40
4253.253253253253 1.6092517871796345e+40
4263.263263263263 1.5983755267457542e+40
4273.273273273273 1.5875927508299765e+40
4283.283283283283 1.5769026240024502e+40
4293.293293293293 1.5663043092489602e+40
4303.303303303303 1.555796968422903e+40
4313.313313313313 1.5453797626864956e+40
4323.323323323323 1.5350518529407392e+40
4333.333333333334 1.5248124002437341e+40
4343.343343343344 1.5146605662170046e+40
4353.353353353354 1.5045955134395438e+40
4363.3633633633635 1.4946164058293631e+40
4373.373373373373 1.4847224090123696e+40
4383.383383383383 1.4749126906784346e+40
4393.393393393393 1.46518642092458e+40
4403.403403403403 1.4555427725852464e+40
4413.413413413413 1.4459809215496065e+40
4423.423423423424 1.436500047066001e+40
4433.4334334334335 1.4270993320335085e+40
4443.443443443443 1.4177779632807696e+40
4453.453453453454 1.4085351318321618e+40
4463.463463463464 1.3993700331614826e+40
4473.473473473474 1.3902818674332588e+40
4483.483483483484 1.3812698397319143e+40
4493.493493493494 1.3723331602789365e+40
4503.503503503503 1.3634710446382885e+40
4513.513513513513 1.3546827139102682e+40
4523.523523523523 1.345967394914048e+40
4533.533533533533 1.3373243203591569e+40
4543.543543543543 1.3287527290061261e+40
4553.553553553554 1.3202518658165837e+40
4563.563563563564 1.3118209820930526e+40
4573.573573573573 1.3034593356087112e+40
4583.583583583584 1.2951661907274109e+40
4593.593593593594 1.2869408185142138e+40
4603.603603603604 1.278782496836717e+40
4613.613613613614 1.270690510457476e+40
4623.623623623624 1.2626641511177655e+40
4633.6336336336335 1.2547027176129886e+40
4643.643643643643 1.2468055158599982e+40
4653.653653653653 1.2389718589566034e+40
4663.663663663663 1.231201067233544e+40
4673.673673673674 1.2234924682991997e+40
4683.683683683684 1.2158453970773046e+40
4693.693693693694 1.2082591958379271e+40
4703.703703703704 1.2007332142219834e+40
4713.713713713714 1.1932668092595406e+40
4723.723723723724 1.1858593453821545e+40
4733.733733733734 1.1785101944294998e+40
4743.743743743744 1.1712187356505377e+40
4753.753753753754 1.1639843556994463e+40
4763.763763763764 1.1568064486265677e+40
4773.773773773773 1.149684415864576e+40
4783.783783783783 1.142617666210117e+40
4793.793793793793 1.135605615801115e+40
4803.803803803804 1.1286476880899684e+40
4813.813813813814 1.1217433138128444e+40
4823.823823823824 1.1148919309552663e+40
4833.833833833834 1.1080929847141977e+40
4843.843843843844 1.1013459274568082e+40
4853.853853853854 1.094650218676106e+40
4863.863863863864 1.0880053249436247e+40
4873.873873873874 1.0814107198593241e+40
4883.883883883884 1.0748658839988915e+40
4893.893893893894 1.0683703048585896e+40
4903.9039039039035 1.0619234767978237e+40
4913.913913913913 1.0555249009795687e+40
4923.923923923924 1.0491740853088134e+40
4933.933933933934 1.042870544369164e+40
4943.943943943944 1.0366137993577312e+40
4953.953953953955 1.030403378018455e+40
4963.9639639639645 1.0242388145739802e+40
4973.973973973974 1.0181196496562074e+40
4983.983983983984 1.0120454302356444e+40
4993.993993993994 1.0060157095496666e+40
5004.004004004004 1.0000300470297967e+40
5014.014014014014 9.940880082281155e+39
5024.024024024024 9.88189164742889e+39
5034.0340340340335 9.823330941435337e+39
5044.044044044043 9.765193798949851e+39
5054.054054054054 9.707476112815797e+39
5064.064064064064 9.650173833305277e+39
5074.074074074074 9.593282967350536e+39
5084.084084084085 9.536799577772908e+39
5094.0940940940945 9.480719782510003e+39
5104.104104104104 9.425039753841841e+39
5114.114114114114 9.369755717616591e+39
5124.124124124124 9.314863952476638e+39
5134.134134134134 9.260360789085478e+39
5144.144144144144 9.206242609356108e+39
5154.154154154154 9.152505845681429e+39
5164.1641641641645 9.099146980167175e+39
5174.174174174174 9.0461625438679e+39
5184.184184184184 8.993549116026464e+39
5194.194194194194 8.941303323317411e+39
5204.204204204204 8.889421839094847e+39
5214.214214214214 8.837901382644921e+39
5224.224224224225 8.786738718443554e+39
5234.2342342342345 8.735930655419596e+39
5244.244244244244 8.685474046223779e+39
5254.254254254254 8.635365786503836e+39
5264.264264264264 8.585602814185934e+39
5274.274274274274 8.53618210876287e+39
5284.284284284285 8.487100690589083e+39
5294.294294294295 8.438355620182883e+39
5304.304304304304 8.389943997535959e+39
5314.314314314314 8.341862961430515e+39
5324.324324324324 8.294109688764047e+39
5334.334334334334 8.246681393882078e+39
5344.344344344345 8.199575327918891e+39
5354.354354354355 8.152788778146471e+39
5364.3643643643645 8.106319067331691e+39
5374.374374374374 8.06016355310196e+39
5384.384384384384 8.014319627319323e+39
5394.394394394394 7.968784715463187e+39
5404.404404404404 7.923556276021644e+39
5414.414414414415 7.878631799891582e+39
5424.424424424425 7.834008809787518e+39
5434.4344344344345 7.789684859659236e+39
5444.444444444444 7.745657534118285e+39
5454.454454454454 7.701924447873361e+39
5464.464464464464 7.658483245174516e+39
5474.474474474475 7.61533159926629e+39
5484.484484484485 7.5724672118497e+39
5494.494494494495 7.529887812553116e+39
5504.504504504504 7.487591158411996e+39
5514.514514514514 7.445575033357417e+39
5524.524524524524 7.403837247713467e+39
5534.534534534535 7.362375637703339e+39
5544.544544544545 7.321188064964218e+39
5554.554554554555 7.280272416070772e+39
5564.5645645645645 7.239626602067331e+39
5574.574574574574 7.199248558008609e+39
5584.584584584584 7.159136242508938e+39
5594.594594594595 7.119287637299936e+39
5604.604604604605 7.079700746796604e+39
5614.614614614615 7.040373597671621e+39
5624.624624624625 7.001304238437982e+39
5634.6346346346345 6.962490739039714e+39
5644.644644644644 6.923931190450648e+39
5654.654654654654 6.885623704281242e+39
5664.664664664665 6.847566412393191e+39
5674.674674674675 6.809757466521968e+39
5684.684684684685 6.772195037906942e+39
5694.694694694695 6.734877316929207e+39
5704.704704704704 6.6978025127569e+39
5714.714714714714 6.660968852997923e+39
5724.724724724725 6.624374583360035e+39
5734.734734734735 6.588017967318118e+39
5744.744744744745 6.551897285788596e+39
5754.754754754755 6.516010836810865e+39
5764.764764764765 6.480356935235641e+39
5774.774774774774 6.444933912420127e+39
5784.784784784785 6.409740115929871e+39
5794.794794794795 6.37477390924725e+39
5804.804804804805 6.34003367148644e+39
5814.814814814815 6.305517797114765e+39
5824.824824824825 6.271224695680374e+39
5834.8348348348345 6.23715279154604e+39
5844.844844844845 6.203300523629095e+39
5854.854854854855 6.16966634514729e+39
5864.864864864865 6.136248723370527e+39
5874.874874874875 6.103046139378376e+39
5884.884884884885 6.070057087823209e+39
5894.894894894895 6.037280076698899e+39
5904.9049049049045 6.004713627114973e+39
