#lamb flux
1000.0 1.698404825828266e+36
1010.01001001001 1.9559724155187984e+36
1020.0200200200201 2.2450226539742358e+36
1030.03003003003 2.5684063287098322e+36
1040.0400400400401 2.9291263489708827e+36
1050.05005005005 3.3303371039358126e+36
1060.06006006006 3.775343185581753e+36
1070.07007007007 4.267597476666411e+36
1080.08008008008 4.810698608502752e+36
1090.0900900900901 5.40838779725218e+36
1100.1001001001 6.064545071313049e+36
1110.11011011011 6.783184906002873e+36
1120.1201201201202 7.568451285107198e+36
1130.13013013013 8.424612211975007e+36
1140.1401401401401 9.356053695668174e+36
1150.1501501501502 1.0367273240210805e+37
1160.16016016016 1.1462872867227416e+37
1170.1701701701702 1.2647551704204757e+37
1180.1801801801803 1.3926098172260393e+37
1190.1901901901902 1.5303381808658048e+37
1200.2002002002002 1.6784344760376684e+37
1210.2102102102103 1.8373992985831168e+37
1220.2202202202202 2.0077387202363747e+37
1230.2302302302303 2.189963361738938e+37
1240.2402402402402 2.3845874481100214e+37
1250.2502502502502 2.5921182646601064e+37
1260.2602602602603 2.813041019940812e+37
1270.2702702702702 3.0478045392349673e+37
1280.2802802802803 3.2969043237674505e+37
1290.2902902902902 3.5608324112902124e+37
1300.3003003003003 3.840076342997032e+37
1310.3103103103103 4.1351181438624555e+37
1320.3203203203202 4.446433319674733e+37
1330.3303303303303 4.774489873830663e+37
1340.3403403403404 5.119747346749315e+37
1350.3503503503503 5.482655880544747e+37
1360.3603603603603 5.863655311375522e+37
1370.3703703703704 6.2631742916627075e+37
1380.3803803803803 6.681629444140922e+37
1390.3903903903904 7.119424549478165e+37
1400.4004004004005 7.576949768971766e+37
1410.4104104104103 8.054580903602448e+37
1420.4204204204204 8.552678690503229e+37
1430.4304304304305 9.071588137679917e+37
1440.4404404404404 9.611637897603107e+37
1450.4504504504505 1.017313968007901e+38
1460.4604604604606 1.0756387704599542e+38
1470.4704704704704 1.1361658192169984e+38
1480.4804804804805 1.1989208896416355e+38
1490.4904904904906 1.2639278673583804e+38
1500.5005005005005 1.33120870908528e+38
1510.5105105105106 1.4007834072221165e+38
1520.5205205205207 1.4726699581025821e+38
1530.5305305305305 1.5468843338012508e+38
1540.5405405405404 1.6234404573697904e+38
1550.5505505505505 1.7023501813613464e+38
1560.5605605605606 1.7836232694869184e+38
1570.5705705705705 1.8672673812329212e+38
1580.5805805805805 1.9532880592552767e+38
1590.5905905905906 2.0416887193518127e+38
1600.6006006006005 2.132470642802123e+38
1610.6106106106106 2.225632970851988e+38
1620.6206206206207 2.3211727011083136e+38
1630.6306306306305 2.4190846856005567e+38
1640.6406406406406 2.519361630255976e+38
1650.6506506506507 2.6219940955290132e+38
1660.6606606606606 2.7269704979208865e+38
1670.6706706706707 2.834277112123433e+38
1680.6806806806808 2.9438980735240905e+38
1690.6906906906906 3.055815380816015e+38
1700.7007007007007 3.1700095038819865e+38
1710.7107107107108 3.2864607845124355e+38
1720.7207207207207 3.405144925118893e+38
1730.7307307307308 3.526035136547723e+38
1740.7407407407409 3.6491024671546245e+38
1750.7507507507507 3.774315802721757e+38
1760.7607607607606 3.901641865884921e+38
1770.770770770771 4.031045215360253e+38
1780.7807807807808 4.162488245460759e+38
1790.7907907907907 4.295931186649108e+38
1800.8008008008007 4.431332108198103e+38
1810.8108108108108 4.568646924436837e+38
1820.8208208208207 4.707829406565664e+38
1830.8308308308308 4.8488312026425134e+38
1840.8408408408409 4.9916018690939415e+38
1850.8508508508507 5.13608891800293e+38
1860.8608608608608 5.282237885481393e+38
1870.870870870871 5.429992427654336e+38
1880.8808808808808 5.579294452152179e+38
1890.890890890891 5.730084294498762e+38
1900.900900900901 5.88230095033131e+38
1910.9109109109108 6.035882375889291e+38
1920.920920920921 6.19076587049674e+38
1930.930930930931 6.3468885555975644e+38
1940.940940940941 6.504187964957859e+38
1950.950950950951 6.6626027594938836e+38
1960.960960960961 6.822073577298298e+38
1970.970970970971 6.982544024221785e+38
1980.980980980981 7.143961802208556e+38
1990.9909909909911 7.306279960945886e+38
2001.001001001001 7.469458242964124e+38
2011.0110110110109 7.633464473239123e+38
2021.0210210210212 7.798275922400993e+38
2031.031031031031 7.963880549547836e+38
2041.0410410410411 8.130278009181961e+38
2051.051051051051 8.297480290786823e+38
2061.061061061061 8.465511853695256e+38
2071.071071071071 8.634409128968457e+38
2081.081081081081 8.804219287947593e+38
2091.091091091091 8.974998225745046e+38
2101.101101101101 9.146807775592584e+38
2111.1111111111113 9.319712250795746e+38
2121.121121121121 9.493774494989073e+38
2131.131131131131 9.669051695408424e+38
2141.141141141141 9.845591264363755e+38
2151.151151151151 1.0023427109890155e+39
2161.161161161161 1.0202576592035524e+39
2171.1711711711714 1.0383038398111557e+39
2181.1811811811813 1.0564791477618262e+39
2191.191191191191 1.0747795070110093e+39
2201.201201201201 1.0931989753881444e+39
2211.2112112112113 1.1117299355364764e+39
2221.221221221221 1.1303633499306756e+39
2231.2312312312315 1.1490890552670285e+39
2241.2412412412414 1.1678960719218115e+39
2251.2512512512512 1.1867729070612738e+39
2261.261261261261 1.2057078344832737e+39
2271.271271271271 1.2246891394625655e+39
2281.2812812812813 1.2437053219772143e+39
2291.2912912912916 1.2627452561546715e+39
2301.3013013013015 1.2817983072809848e+39
2311.3113113113113 1.3008544101702373e+39
2321.321321321321 1.3199041141578541e+39
2331.331331331331 1.3389386006205629e+39
2341.3413413413414 1.3579496789381492e+39
2351.3513513513512 1.3769297663976184e+39
2361.3613613613616 1.3958718568738833e+39
2371.3713713713714 1.4147694823406712e+39
2381.3813813813813 1.4336166704708337e+39
2391.391391391391 1.4524079008410176e+39
2401.4014014014015 1.4711380615988527e+39
2411.4114114114113 1.4898024078969724e+39
2421.4214214214217 1.508396522949157e+39
2431.4314314314315 1.526916282212344e+39
2441.4414414414414 1.5453578209326168e+39
2451.4514514514512 1.5637175050996837e+39
2461.4614614614616 1.581991905719348e+39
2471.4714714714714 1.6001777762244872e+39
2481.4814814814818 1.6182720327911953e+39
2491.4914914914916 1.636271737298939e+39
2501.5015015015015 1.654174082664482e+39
2511.5115115115113 1.671976380283148e+39
2521.521521521521 1.689676049323287e+39
2531.5315315315315 1.7072706076373742e+39
2541.541541541542 1.724757664073391e+39
2551.5515515515517 1.7421349119915336e+39
2561.5615615615616 1.7594001238125194e+39
2571.5715715715714 1.7765511464441665e+39
2581.5815815815813 1.7935858974519925e+39
2591.5915915915916 1.810502361856983e+39
2601.6016016016015 1.8272985894595545e+39
2611.611611611612 1.8439726926027448e+39
2621.6216216216217 1.8605228443001827e+39
2631.6316316316315 1.8769472766652408e+39
2641.6416416416414 1.8932442795874334e+39
2651.6516516516517 1.9094121996102623e+39
2661.6616616616616 1.9254494389719133e+39
2671.671671671672 1.9413544547763727e+39
2681.6816816816818 1.957125758267681e+39
2691.6916916916916 1.9727619141846906e+39
2701.7017017017015 1.988261540177357e+39
2711.711711711712 2.0036233062689574e+39
2721.7217217217217 2.018845934351354e+39
2731.731731731732 2.0339281977027158e+39
2741.741741741742 2.0488689205191327e+39
2751.7517517517517 2.06366697745318e+39
2761.7617617617616 2.0783212931538887e+39
2771.7717717717715 2.092830841803726e+39
2781.781781781782 2.1071946466492194e+39
2791.791791791792 2.121411779522607e+39
2801.801801801802 2.1354813603526057e+39
2811.811811811812 2.149402556662943e+39
2821.8218218218217 2.1631745830577477e+39
2831.8318318318316 2.1767967006933217e+39
2841.841841841842 2.190268216736011e+39
2851.851851851852 2.2035884838063287e+39
2861.861861861862 2.216756899409458e+39
2871.871871871872 2.2297729053526234e+39
2881.881881881882 2.2426359871498496e+39
2891.8918918918916 2.255345673414688e+39
2901.901901901902 2.2679015352416794e+39
2911.911911911912 2.2803031855772548e+39
2921.921921921922 2.292550278580894e+39
2931.931931931932 2.3046425089773567e+39
2941.941941941942 2.316579611400795e+39
2951.9519519519517 2.328361359731587e+39
2961.961961961962 2.3399875664267112e+39
2971.971971971972 2.3514580818444897e+39
2981.9819819819822 2.362772793564482e+39
2991.991991991992 2.373931625703302e+39
3002.002002002002 2.384934538227151e+39
3012.012012012012 2.3957815262617462e+39
3022.0220220220217 2.4064726194004013e+39
3032.032032032032 2.4174672555656823e+39
3042.0420420420423 2.4277925583709136e+39
3052.052052052052 2.4379448851236095e+39
3062.062062062062 2.4479284780853862e+39
3072.072072072072 2.4577471449906312e+39
3082.0820820820823 2.4674042968008867e+39
3092.092092092092 2.4769029829353488e+39
3102.102102102102 2.4862459241036242e+39
3112.1121121121123 2.4954355428651504e+39
3122.122122122122 2.5044739920371197e+39
3132.132132132132 2.513363181069545e+39
3142.1421421421423 2.5221048005024128e+39
3152.152152152152 2.5307003446158158e+39
3162.162162162162 2.5391511323797987e+39
3172.1721721721724 2.5474583268060398e+39
3182.1821821821823 2.555622952799229e+39
3192.192192192192 2.5636459136012533e+39
3202.202202202202 2.5715280059169948e+39
3212.2122122122123 2.5792699338060318e+39
3222.222222222222 2.5868723214201616e+39
3232.232232232232 2.5943357246625938e+39
3242.2422422422424 2.6016606418403605e+39
3252.252252252252 2.6088475233777706e+39
3262.262262262262 2.6158967806547483e+39
3272.2722722722724 2.622808794030369e+39
3282.2822822822823 2.629583920108421e+39
3292.292292292292 2.6362224982984006e+39
3302.3023023023025 2.6427248567223485e+39
3312.3123123123123 2.6490913175147255e+39
3322.322322322322 2.65532220155985e+39
3332.3323323323325 2.66141783270858e+39
3342.3423423423424 2.667378541513398e+39
3352.352352352352 2.6732046685186244e+39
3362.3623623623625 2.6788965671401904e+39
3372.3723723723724 2.6844546061671427e+39
3382.3823823823823 2.6898791719151465e+39
3392.3923923923926 2.695170670060162e+39
3402.4024024024025 2.7003295271787074e+39
3412.4124124124123 2.7053561920193898e+39
3422.4224224224226 2.7102511365287592e+39
3432.4324324324325 2.7150148566529638e+39
3442.4424424424424 2.7196478729352943e+39
3452.4524524524522 2.724150730928283e+39
3462.4624624624626 2.728524001437812e+39
3472.4724724724724 2.7327682806153966e+39
3482.4824824824823 2.736884189913745e+39
3492.4924924924926 2.7408723759195776e+39
3502.5025025025025 2.744733510076714e+39
3512.5125125125123 2.748468288311496e+39
3522.5225225225226 2.752077430571669e+39
3532.5325325325325 2.755561680289131e+39
3542.5425425425424 2.7589218037760354e+39
3552.5525525525527 2.7621585895631236e+39
3562.5625625625626 2.7652728476883995e+39
3572.5725725725724 2.768265408943622e+39
3582.5825825825827 2.771137124085558e+39
3592.5925925925926 2.773888863018264e+39
3602.6026026026025 2.776521513952212e+39
3612.612612612613 2.7790359825455945e+39
3622.6226226226227 2.7814331910325655e+39
3632.6326326326325 2.783714077342925e+39
3642.642642642643 2.7858795942171665e+39
3652.6526526526527 2.7879307083205773e+39
3662.6626626626626 2.789868399359589e+39
3672.672672672673 2.791693659203473e+39
3682.6826826826828 2.793407491013828e+39
3692.6926926926926 2.7950109083844153e+39
3702.7027027027025 2.796504934493332e+39
3712.712712712713 2.797890601269395e+39
3722.7227227227227 2.7991689485744174e+39
3732.7327327327325 2.8003410234027577e+39
3742.742742742743 2.801407879099386e+39
3752.7527527527527 2.8023705745975246e+39
3762.7627627627626 2.8032301736767594e+39
3772.772772772773 2.8039877442423514e+39
3782.7827827827828 2.804644357626343e+39
3792.7927927927926 2.805201087910949e+39
3802.802802802803 2.805659011274586e+39
3812.812812812813 2.8060192053607686e+39
3822.8228228228227 2.806282748670037e+39
3832.832832832833 2.8064507199750036e+39
3842.842842842843 2.806524197758459e+39
3852.8528528528527 2.806504259674488e+39
3862.862862862863 2.806391982032393e+39
3872.872872872873 2.806188439303296e+39
3882.8828828828828 2.8058947036490286e+39
3892.892892892893 2.80551184447316e+39
3902.902902902903 2.8050409279936227e+39
3912.912912912913 2.80448301683672e+39
3922.922922922923 2.8038391696519875e+39
3932.932932932933 2.8031104407474904e+39
3942.942942942943 2.8022978797450903e+39
3952.9529529529527 2.8014025312551793e+39
3962.962962962963 2.800425434570385e+39
3972.972972972973 2.7993676233777077e+39
3982.982982982983 2.7982301254885944e+39
3992.992992992993 2.79701396258633e+39
4003.003003003003 2.7957201499902985e+39
4013.013013013013 2.7943496964365085e+39
4023.023023023023 2.7929036038738345e+39
4033.033033033033 2.7913828672754204e+39
4043.043043043043 2.7897884744647325e+39
4053.053053053053 2.7881214059556774e+39
4063.063063063063 2.7863826348062626e+39
4073.073073073073 2.784573126485254e+39
4083.0830830830832 2.7826938387513147e+39
4093.093093093093 2.7807457215441253e+39
4103.103103103103 2.7787297168868944e+39
4113.113113113113 2.776646758799891e+39
4123.123123123123 2.774497773224364e+39
4133.133133133133 2.772283677956479e+39
4143.143143143143 2.770005382590728e+39
4153.153153153153 2.767663788472432e+39
4163.163163163163 2.765259788658792e+39
4173.173173173173 2.762794267888152e+39
4183.183183183183 2.760268102556966e+39
4193.193193193193 2.757682160704144e+39
4203.203203203203 2.7550373020023046e+39
4213.213213213214 2.7523343777555904e+39
4223.223223223224 2.749574230903685e+39
4233.2332332332335 2.746757696031612e+39
4243.243243243243 2.743885599385068e+39
4253.253253253253 2.7409587588908267e+39
4263.263263263263 2.737977984182037e+39
4273.273273273273 2.734944076627961e+39
4283.283283283283 2.731857829367975e+39
4293.293293293293 2.728720027349466e+39
4303.303303303303 2.725531447369379e+39
4313.313313313313 2.722292858119161e+39
4323.323323323323 2.719005020232816e+39
4333.333333333334 2.7156686863378736e+39
4343.343343343344 2.7122846011089934e+39
4353.353353353354 2.7088535013240238e+39
4363.3633633633635 2.7053761159222653e+39
4373.373373373373 2.701853166064795e+39
4383.383383383383 2.6982853651965712e+39
4393.393393393393 2.6946734191102427e+39
4403.403403403403 2.6910180260113922e+39
4413.413413413413 2.687319876585126e+39
4423.423423423424 2.6835796540637907e+39
4433.4334334334335 2.679798034295717e+39
4443.443443443443 2.675975685814831e+39
4453.453453453454 2.6721132699109813e+39
4463.463463463464 2.668211440700912e+39
4473.473473473474 2.664270845199687e+39
4483.483483483484 2.660292123392528e+39
4493.493493493494 2.6562759083069072e+39
4503.503503503503 2.652222826084841e+39
4513.513513513513 2.6481334960552417e+39
4523.523523523523 2.644008530806292e+39
4533.533533533533 2.6398485362577293e+39
4543.543543543543 2.6356541117329704e+39
4553.553553553554 2.6314258500310192e+39
4563.563563563564 2.627164337498075e+39
4573.573573573573 2.6228701540987834e+39
4583.583583583584 2.6185438734871058e+39
4593.593593593594 2.6141860630766894e+39
4603.603603603604 2.609797284110753e+39
4613.613613613614 2.6053780917314353e+39
4623.623623623624 2.600929035048516e+39
4633.6336336336335 2.5964506572075283e+39
4643.643643643643 2.5919434954572297e+39
4653.653653653653 2.5874080812163417e+39
4663.663663663663 2.5828449401396104e+39
4673.673673673674 2.5782545921830973e+39
4683.683683683684 2.5736375516687252e+39
4693.693693693694 2.5689943273480397e+39
4703.703703703704 2.5643254224651724e+39
4713.713713713714 2.5596313348189885e+39
4723.723723723724 2.5549125568244232e+39
4733.733733733734 2.5501695755729698e+39
4743.743743743744 2.5454028728923482e+39
4753.753753753754 2.5406129254053122e+39
4763.763763763764 2.5358002045876147e+39
4773.773773773773 2.530965176825114e+39
4783.783783783783 2.5261083034700364e+39
4793.793793793793 2.521230040896383e+39
4803.803803803804 2.516330840554472e+39
4813.813813813814 2.511411149024658e+39
4823.823823823824 2.5064714080701854e+39
4833.833833833834 2.5015120546892084e+39
4843.843843843844 2.4965335211659846e+39
4853.853853853854 2.491536235121235e+39
4863.863863863864 2.4865206195616832e+39
4873.873873873874 2.481487092928797e+39
4883.883883883884 2.4764360691467078e+39
4893.893893893894 2.4713679576693646e+39
4903.9039039039035 2.466283163526883e+39
4913.913913913913 2.4611820873711402e+39
4923.923923923924 2.4560651255206022e+39
4933.933933933934 2.4509326700044106e+39
4943.943943943944 2.4457851086057266e+39
4953.953953953955 2.4406228249043587e+39
4963.9639639639645 2.435446198318682e+39
4973.973973973974 2.4302556041468467e+39
4983.983983983984 2.4250514136073244e+39
4993.993993993994 2.4198339938787656e+39
5004.004004004004 2.4146037081392042e+39
5014.014014014014 2.4093609156046304e+39
5024.024024024024 2.404105971566906e+39
5034.0340340340335 2.3988392274310994e+39
5044.044044044043 2.3935610307521842e+39
5054.054054054054 2.3882717252711714e+39
5064.064064064064 2.382971650950653e+39
5074.074074074074 2.377661144009789e+39
5084.084084084085 2.3723405369587407e+39
5094.0940940940945 2.3670101586325797e+39
5104.104104104104 2.3616703342246578e+39
5114.114114114114 2.356321385319486e+39
5124.124124124124 2.3509636299251e+39
5134.134134134134 2.3455973825049607e+39
5144.144144144144 2.340222954009363e+39
5154.154154154154 2.334840651906414e+39
5164.1641641641645 2.329450780212533e+39
5174.174174174174 2.3240536395225518e+39
5184.184184184184 2.3186495270393652e+39
5194.194194194194 2.3132387366031884e+39
5204.204204204204 2.3078215587204138e+39
5214.214214214214 2.302398280592077e+39
5224.224224224225 2.296969186141948e+39
5234.2342342342345 2.2915345560442623e+39
5244.244244244244 2.286094667751089e+39
5254.254254254254 2.2806497955193703e+39
5264.264264264264 2.275200210437605e+39
5274.274274274274 2.2697461804522324e+39
5284.284284284285 2.2642879703936866e+39
5294.294294294295 2.2588258420021543e+39
5304.304304304304 2.2533600539530254e+39
5314.314314314314 2.2478908618820806e+39
5324.324324324324 2.2424185184103735e+39
5334.334334334334 2.2369432731688684e+39
5344.344344344345 2.2314653728228003e+39
5354.354354354355 2.225985061095791e+39
5364.3643643643645 2.2205025787937156e+39
5374.374374374374 2.2150181638283404e+39
5384.384384384384 2.2095320512407212e+39
5394.394394394394 2.2040444732243796e+39
5404.404404404404 2.19855565914827e+39
5414.414414414415 2.1930658355795335e+39
5424.424424424425 2.1875752263060487e+39
5434.4344344344345 2.1820840523587872e+39
5444.444444444444 2.1765925320339696e+39
5454.454454454454 2.171100880915062e+39
5464.464464464464 2.165609311894557e+39
5474.474474474475 2.1601180351956142e+39
5484.484484484485 2.154627258393507e+39
5494.494494494495 2.1491371864369258e+39
5504.504504504504 2.14364802166911e+39
5514.514514514514 2.138159963848822e+39
5524.524524524524 2.1326732101711877e+39
5534.534534534535 2.1271879552883796e+39
5544.544544544545 2.121704391330158e+39
5554.554554554555 2.1162227079242774e+39
5564.5645645645645 2.110743092216763e+39
5574.574574574574 2.105265728892048e+39
5584.584584584584 2.0997908001929956e+39
5594.594594594595 2.0943184859407783e+39
5604.604604604605 2.0888489635546662e+39
5614.614614614615 2.0833824080716665e+39
5624.624624624625 2.077918992166067e+39
5634.6346346346345 2.0724588861688657e+39
5644.644644644644 2.0670022580870824e+39
5654.654654654654 2.0615492736229756e+39
5664.664664664665 2.056100096193138e+39
5674.674674674675 2.0506548869475093e+39
5684.684684684685 2.0452138047882718e+39
5694.694694694695 2.0397770063886542e+39
5704.704704704704 2.0343446462116388e+39
5714.714714714714 2.0289168765285722e+39
5724.724724724725 2.0234938474376826e+39
5734.734734734735 2.0180757068825028e+39
5744.744744744745 2.0126626006702084e+39
5754.754754754755 2.0072546724898593e+39
5764.764764764765 2.0018520639305584e+39
5774.774774774774 1.9964549144995225e+39
5784.784784784785 1.9910633616400618e+39
5794.794794794795 1.9856775407494822e+39
5804.804804804805 1.9802975851969015e+39
5814.814814814815 1.9749236263409745e+39
5824.824824824825 1.9695557935475498e+39
5834.8348348348345 1.964194214207225e+39
5844.844844844845 1.9588390137528505e+39
5854.854854854855 1.9534903156769163e+39
5864.864864864865 1.9481482415488833e+39
5874.874874874875 1.9428129110324345e+39
