#lamb flux
1000.0 6.783457834436701e-13
1010.01001001001 9.788754395537606e-13
1020.0200200200201 1.4017339602239647e-12
1030.03003003003 1.9923473514258616e-12
1040.0400400400401 2.8113918551385692e-12
1050.05005005005 3.939367083572212e-12
1060.06006006006 5.482373690832471e-12
1070.07007007007 7.57936733874884e-12
1080.08008008008 1.0411211075770578e-11
1090.0900900900901 1.4211905658438212e-11
1100.1001001001 1.9282442383363377e-11
1110.11011011011 2.600779622799731e-11
1120.1201201201202 3.487765905890339e-11
1130.13013013013 4.6511603857622595e-11
1140.1401401401401 6.16894717882641e-11
1150.1501501501502 8.138788487822346e-11
1160.16016016016 1.068239084211272e-10
1170.1701701701702 1.3950701917109723e-10
1180.1801801801803 1.8130067811469487e-10
1190.1901901901902 2.344949601084562e-10
1200.2002002002002 3.0189185686497265e-10
1210.2102102102103 3.869050444407922e-10
1220.2202202202202 4.936760911726385e-10
1230.2302302302303 6.272092764303226e-10
1240.2402402402402 7.935273939660845e-10
1250.2502502502502 9.998510639440976e-10
1260.2602602602603 1.254804327791221e-09
1270.2702702702702 1.5686495373662e-09
1280.2802802802803 1.95355570282415e-09
1290.2902902902902 2.4239021229491555e-09
1300.3003003003003 2.9966221536592996e-09
1310.3103103103103 3.6915908050744506e-09
1320.3203203203202 4.532060362758528e-09
1330.3303303303303 5.545148459854022e-09
1340.3403403403404 6.762383252805912e-09
1350.3503503503503 8.220310572225619e-09
1360.3603603603603 9.961168130112324e-09
1370.3703703703704 1.203363206303997e-08
1380.3803803803803 1.4493641275925556e-08
1390.3903903903904 1.7405305220506334e-08
1400.4004004004005 2.0841900894590287e-08
1410.4104104104103 2.488696498046305e-08
1420.4204204204204 2.96354871515497e-08
1430.4304304304305 3.519521066364458e-08
1440.4404404404404 4.1688046408934805e-08
1450.4504504504505 4.925160664596929e-08
1460.4604604604606 5.804086462510997e-08
1470.4704704704704 6.822994630545075e-08
1480.4804804804805 8.001406030446486e-08
1490.4904904904906 9.361157213467189e-08
1500.5005005005005 1.0926622866152933e-07
1510.5105105105106 1.2724953856291133e-07
1520.5205205205207 1.478633143823567e-07
1530.5305305305305 1.7144238154565813e-07
1540.5405405405404 1.983574594530719e-07
1550.5505505505505 2.2901821946778987e-07
1560.5605605605606 2.63876524295598e-07
1570.5705705705705 3.0342985289148873e-07
1580.5805805805805 3.482249146371794e-07
1590.5905905905906 3.9886145611003625e-07
1600.6006006006005 4.559962633099532e-07
1610.6106106106106 5.20347361727811e-07
1620.6206206206207 5.926984161285813e-07
1630.6306306306305 6.739033313859091e-07
1640.6406406406406 7.648910551449363e-07
1650.6506506506507 8.666705825079004e-07
1660.6606606606606 9.803361623356263e-07
1670.6706706706707 1.1070727041386411e-06
1680.6806806806808 1.248161383897544e-06
1690.6906906906906 1.4049854465055228e-06
1700.7007007007007 1.5790362068697054e-06
1710.7107107107108 1.7719192506060215e-06
1720.7207207207207 1.9853607698503016e-06
1730.7307307307308 2.2212141298762953e-06
1740.7407407407409 2.4814665991998353e-06
1750.7507507507507 2.768246245970546e-06
1760.7607607607606 3.0838289961894416e-06
1770.770770770771 3.4306458461373742e-06
1780.7807807807808 3.8112902207637416e-06
1790.7907907907907 4.22852546916637e-06
1800.8008008008007 4.68529248769657e-06
1810.8108108108108 5.184717460651651e-06
1820.8208208208207 5.730119707977709e-06
1830.8308308308308 6.325019628901041e-06
1840.8408408408409 6.9731467299474426e-06
1850.8508508508507 7.678447725400628e-06
1860.8608608608608 8.445094697903092e-06
1870.870870870871 9.277493306629293e-06
1880.8808808808808 1.0180291030267218e-05
1890.890890890891 1.1158385431950788e-05
1900.900900900901 1.2216932433299576e-05
1910.9109109109108 1.336135458485961e-05
1920.920920920921 1.4597349320506602e-05
1930.930930930931 1.5930897183775238e-05
1940.940940940941 1.7368270014607692e-05
1950.950950950951 1.891603908564495e-05
1960.960960960961 2.0581083177871378e-05
1970.970970970971 2.2370596586082118e-05
1980.980980980981 2.4292097045163203e-05
1990.9909909909911 2.6353433568389253e-05
2001.001001001001 2.856279418865287e-05
2011.0110110110109 3.0928713592518794e-05
2021.0210210210212 3.3460080635004406e-05
2031.031031031031 3.6166145719859484e-05
2041.0410410410411 3.905652802575669e-05
2051.051051051051 4.2141222553361626e-05
2061.061061061061 4.543060696207414e-05
2071.071071071071 4.893544815905997e-05
2081.081081081081 5.266690859798765e-05
2091.091091091091 5.66365522418883e-05
2101.101101101101 6.0856350144933414e-05
2111.1111111111113 6.533868561265641e-05
2121.121121121121 7.009635890946375e-05
2131.131131131131 7.514259149576513e-05
2141.141141141141 8.049102979317062e-05
2151.151151151151 8.615574849278024e-05
2161.161161161161 9.215125343606308e-05
2171.1711711711714 9.84924841078088e-05
2181.1811811811813 0.00010519481578453127
2191.191191191191 0.00011227406137908617
2201.201201201201 0.00011974647301387373
2211.2112112112113 0.0001276287433426445
2221.221221221221 0.00013593800662684694
2231.2312312312315 0.00014469183955905735
2241.2412412412414 0.00015390826181500822
2251.2512512512512 0.0001636057363082685
2261.261261261261 0.00017380316911800363
2271.271271271271 0.00018451990906009986
2281.2812812812813 0.00019577574687455916
2291.2912912912916 0.00020759091400644156
2301.3013013013015 0.00021998608096294276
2311.3113113113113 0.00023298235523459826
2321.321321321321 0.00024660127877362034
2331.331331331331 0.00026086482502672465
2341.3413413413414 0.00027579539552322746
2351.3513513513512 0.00029141581602190283
2361.3613613613616 0.0003077493322219603
2371.3713713713714 0.00032481960504480734
2381.3813813813813 0.00034265070549412423
2391.391391391391 0.00036126710910224706
2401.4014014014015 0.00038069368997114205
2411.4114114114113 0.0004009557144164078
2421.4214214214217 0.00042207883422278747
2431.4314314314315 0.00044408907951973064
2441.4414414414414 0.00046701285128560125
2451.4514514514512 0.0004908769134891783
2461.4614614614616 0.0005157083848772204
2471.4714714714714 0.0005415347304169386
2481.4814814814818 0.0005683837524024694
2491.4914914914916 0.0005962835812344989
2501.5015015015015 0.0006252626658825
2511.5115115115113 0.0006553497640391776
2521.521521521521 0.0006865739319769278
2531.5315315315315 0.0007189645141164269
2541.541541541542 0.000752551132317547
2551.5515515515517 0.0007873636749031218
2561.5615615615616 0.000823432285426201
2571.5715715715714 0.0008607873511916914
2581.5815815815813 0.0008994594915434056
2591.5915915915916 0.0009394795459277182
2601.6016016016015 0.000980878561745192
2611.611611611612 0.0010236877820016326
2621.6216216216217 0.0010679386327702087
2631.6316316316315 0.0011136627104762213
2641.6416416416414 0.0011608917690164244
2651.6516516516517 0.001209657706724591
2661.6616616616616 0.0012599925531952614
2671.671671671672 0.0013119284559775643
2681.6816816816818 0.0013654976671509432
2691.6916916916916 0.0014207325297947815
2701.7017017017015 0.0014776654643637135
2711.711711711712 0.001536328954980451
2721.7217217217217 0.0015967555356579772
2731.731731731732 0.0016589777764627043
2741.741741741742 0.0017230282696302928
2751.7517517517517 0.001788939615645632
2761.7617617617616 0.0018567444092983606
2771.7717717717715 0.0019264752257252902
2781.781781781782 0.0019981646064508012
2791.791791791792 0.002071845045436274
2801.801801801802 0.0021475489751494035
2811.811811811812 0.0022253087526640718
2821.8218218218217 0.002305156645801223
2831.8318318318316 0.0023871248193212125
2841.841841841842 0.0024712453211775546
2851.851851851852 0.0025575500688421603
2861.861861861862 0.0026460708357116795
2871.871871871872 0.0027368392376044388
2881.881881881882 0.002829886719357318
2891.8918918918916 0.002925244541531447
2901.901901901902 0.003022943767235737
2911.911911911912 0.0031230152490765548
2921.921921921922 0.0032254896162420455
2931.931931931932 0.0033303972617290865
2941.941941941942 0.0034377683297206816
2951.9519519519517 0.003547632703121293
2961.961961961962 0.00366001999125752
2971.971971971972 0.003774959517751018
2981.9819819819822 0.0038924803085705604
2991.991991991992 0.004012611080269526
3002.002002002002 0.0041353802284154
3012.012012012012 0.00426081581621678
3022.0220220220217 0.004388945563353997
3032.032032032032 0.00451981107827968
3042.0420420420423 0.0046534095093412366
3052.052052052052 0.004789782443595829
3062.062062062062 0.004928956210973141
3072.072072072072 0.0050709567412272755
3082.0820820820823 0.005215809554070154
3092.092092092092 0.005363539749553018
3102.102102102102 0.005514171998699228
3112.1121121121123 0.005667730534390696
3122.122122122122 0.00582423914251091
3132.132132132132 0.005983721153346547
3142.1421421421423 0.006146199433249873
3152.152152152152 0.006311696376563164
3162.162162162162 0.006480233897807651
3172.1721721721724 0.006651833424137224
3182.1821821821823 0.006826515888058784
3192.192192192192 0.007004301720419605
3202.202202202202 0.007185210843662482
3212.2122122122123 0.007369262665349489
3222.222222222222 0.007556476071953571
3232.232232232232 0.007746869422919291
3242.2422422422424 0.007940460544991581
3252.252252252252 0.008137266726812493
3262.262262262262 0.00833730471378544
3272.2722722722724 0.008540590703206266
3282.2822822822823 0.00874714033966
3292.292292292292 0.008956968710682552
3302.3023023023025 0.009170090342685917
3312.3123123123123 0.009386519197145617
3322.322322322322 0.009606268667048853
3332.3323323323325 0.009829351573601687
3342.3423423423424 0.010055780163193431
3352.352352352352 0.010285566104616414
3362.3623623623625 0.010518720486538879
3372.3723723723724 0.010755253815228896
3382.3823823823823 0.010995176012527124
3392.3923923923926 0.01123849641406575
3402.4024024024025 0.011485223767731157
3412.4124124124123 0.011735366232367851
3422.4224224224226 0.011988931376720625
3432.4324324324325 0.012245926178612213
3442.4424424424424 0.012506357024353824
3452.4524524524522 0.01277022970838485
3462.4624624624626 0.013037549433139506
3472.4724724724724 0.013308320809136303
3482.4824824824823 0.013582547855288197
3492.4924924924926 0.013860233999428791
3502.5025025025025 0.014141382079052656
3512.5125125125123 0.01442599434226504
3522.5225225225226 0.014714072448938124
3532.5325325325325 0.015005617472070517
3542.5425425425424 0.01530062989934557
3552.5525525525527 0.015599109634885637
3562.5625625625626 0.01590105600119836
3572.5725725725724 0.01620646774131104
3582.5825825825827 0.016515343021089538
3592.5925925925926 0.01682767943173804
3602.6026026026025 0.0171434739924755
3612.612612612613 0.017462723153385602
3622.6226226226227 0.017785422798435205
3632.6326326326325 0.01811156824865911
3642.642642642643 0.018441154265505393
3652.6526526526527 0.01877417505433886
3662.6626626626626 0.019110624268097853
3672.672672672673 0.019450495011101486
3682.6826826826828 0.01979377984300139
3692.6926926926926 0.02014047078287696
3702.7027027027025 0.020490559313467493
3712.712712712713 0.020844036385539014
3722.7227227227227 0.021200892422380897
3732.7327327327325 0.021561117324429373
3742.742742742743 0.02192470047401296
3752.7527527527527 0.022291630740216724
3762.7627627627626 0.022661896483861313
3772.772772772773 0.023035485562592814
3782.7827827827828 0.023412385336079845
3792.7927927927926 0.023792582671313525
3802.802802802803 0.024176063948007802
3812.812812812813 0.024562815064095057
3822.8228228228227 0.024952821441313455
3832.832832832833 0.025346068030883784
3842.842842842843 0.02574253931927003
3852.8528528528527 0.02614221933402192
3862.862862862863 0.02654509164969422
3872.872872872873 0.026951139393840976
3882.8828828828828 0.02736034525307937
3892.892892892893 0.02777269147922151
3902.902902902903 0.028188159895468724
3912.912912912913 0.028606731902667135
3922.922922922923 0.029028388485619616
3932.932932932933 0.029453110219450785
3942.942942942943 0.02988087727602313
3952.9529529529527 0.030311669430399386
3962.962962962963 0.030745466067349306
3972.972972972973 0.031182246187896338
3982.982982982983 0.03162198841590307
3992.992992992993 0.03206467100468982
4003.003003003003 0.032510271843685365
4013.013013013013 0.03295876846510691
4023.023023023023 0.03341013805066412
4033.033033033033 0.033864357438287564
4043.043043043043 0.034321403128875654
4053.053053053053 0.03478125129305993
4063.063063063063 0.03524387777798421
4073.073073073073 0.03570925811409547
4083.0830830830832 0.03617736752194437
4093.093093093093 0.03664818091899179
4103.103103103103 0.03712167292641978
4113.113113113113 0.03759781787594453
4123.123123123123 0.038076589816627336
4133.133133133133 0.038557962521683885
4143.143143143143 0.03904190949528668
4153.153153153153 0.03952840397936089
4163.163163163163 0.04001741896036913
4173.173173173173 0.040508927176085084
4183.183183183183 0.041002901122351935
4193.193193193193 0.04149931305982535
4203.203203203203 0.04199813502069729
4213.213213213214 0.04249933881540003
4223.223223223224 0.04300289603928787
4233.2332332332335 0.04350877807929426
4243.243243243243 0.0440169561205641
4253.253253253253 0.044527401153056576
4263.263263263263 0.04504008397812042
4273.273273273273 0.045554975215036674
4283.283283283283 0.04607204530752967
4293.293293293293 0.04659126453024275
4303.303303303303 0.04711260299517906
4313.313313313313 0.0476360306581045
4323.323323323323 0.04816151732491148
4333.333333333334 0.04868903265794379
4343.343343343344 0.049218546182278146
4353.353353353354 0.049750027291964614
4363.3633633633635 0.05028344525622156
4373.373373373373 0.05081876922558659
4383.383383383383 0.05135596823801924
4393.393393393393 0.051895011224957856
4403.403403403403 0.05243586701732661
4413.413413413413 0.05297850435149291
4423.423423423424 0.05352289187517474
4433.4334334334335 0.05406899815329479
4443.443443443443 0.05461679167378354
4453.453453453454 0.055166240853327615
4463.463463463464 0.0557173140430645
4473.473473473474 0.056269979534221276
4483.483483483484 0.05682420556369794
4493.493493493494 0.057379960319594074
4503.503503503503 0.057937211946677176
4513.513513513513 0.058495928551794224
4523.523523523523 0.05905607820922345
4533.533533533533 0.059617628965967416
4543.543543543543 0.06018054884698594
4553.553553553554 0.060744805860368435
4563.563563563564 0.061310368002446394
4573.573573573573 0.06187720326284279
4583.583583583584 0.06244527962946169
4593.593593593594 0.06301456509341419
4603.603603603604 0.06358502765388217
4613.613613613614 0.06415663532292043
4623.623623623624 0.06472935613019354
4633.6336336336335 0.06530315812765075
4643.643643643643 0.0658780093941375
4653.653653653653 0.06645387803994122
4663.663663663663 0.06703073221127526
4673.673673673674 0.06760854009469712
4683.683683683684 0.06818726992146244
4693.693693693694 0.06876688997181517
4703.703703703704 0.06934736857921268
4713.713713713714 0.069928674134486
4723.723723723724 0.07051077508993603
4733.733733733734 0.07109363996336418
4743.743743743744 0.0716772373420389
4753.753753753754 0.07226153588659788
4763.763763763764 0.07284650433488431
4773.773773773773 0.07343211150571993
4783.783783783783 0.07401832630261328
4793.793793793793 0.07460511771740275
4803.803803803804 0.07519245483383641
4813.813813813814 0.07578030683108693
4823.823823823824 0.07636864298720407
4833.833833833834 0.07695743268250121
4843.843843843844 0.0775466454028802
4853.853853853854 0.07813625074309187
4863.863863863864 0.07872621840993405
4873.873873873874 0.07931651822538649
4883.883883883884 0.07990712012968275
4893.893893893894 0.0804979941843211
4903.9039039039035 0.08108911057501159
4913.913913913913 0.0816804396145635
4923.923923923924 0.08227195174570956
4933.933933933934 0.08286361754386994
4943.943943943944 0.08345540771985602
4953.953953953955 0.08404729312251306
4963.9639639639645 0.08463924474130327
4973.973973973974 0.08523123370882889
4983.983983983984 0.08582323130329704
4993.993993993994 0.08641520895092443
5004.004004004004 0.0870071382282852
5014.014014014014 0.08759899086459932
5024.024024024024 0.08819073874396463
5034.0340340340335 0.08878235390753111
5044.044044044043 0.08937380855561837
5054.054054054054 0.08996507504977855
5064.064064064064 0.090556125914801
5074.074074074074 0.09114693384066334
5084.084084084085 0.09173747168442778
5094.0940940940945 0.09232771247208255
5104.104104104104 0.0929176294003291
5114.114114114114 0.0935071958383184
5124.124124124124 0.09409638532933061
5134.134134134134 0.09468517159240558
5144.144144144144 0.09527352852392061
5154.154154154154 0.09586143019911654
5164.1641641641645 0.09644885087357341
5174.174174174174 0.09703576498463624
5184.184184184184 0.0976221471527905
5194.194194194194 0.09820797218298821
5204.204204204204 0.09879321506592682
5214.214214214214 0.09937785097927873
5224.224224224225 0.09996185528887312
5234.2342342342345 0.10054520354983208
5244.244244244244 0.1011278715076581
5254.254254254254 0.10170983509927885
5264.264264264264 0.10229107045404336
5274.274274274274 0.1028715538946752
5284.284284284285 0.10345126193818094
5294.294294294295 0.10403017129671467
5304.304304304304 0.10460825887840003
5314.314314314314 0.10518550178810905
5324.324324324324 0.10576187732819876
5334.334334334334 0.10633736299920703
5344.344344344345 0.10691193650050708
5354.354354354355 0.10748557573092081
5364.3643643643645 0.10805825878929408
5374.374374374374 0.10862996397503136
5384.384384384384 0.1092006697885915
5394.394394394394 0.10977035493194648
5404.404404404404 0.11033899830900089
5414.414414414415 0.11090657902597648
5424.424424424425 0.11147307639175805
5434.4344344344345 0.11203846991820436
5444.444444444444 0.11260273932042379
5454.454454454454 0.11316586451701478
5464.464464464464 0.11372782563027149
5474.474474474475 0.1142886029863568
5484.484484484485 0.11484817711543989
5494.494494494495 0.11540652875180436
5504.504504504504 0.11596363883392094
5514.514514514514 0.11651948850448973
5524.524524524524 0.11707405911045214
5534.534534534535 0.11762733220297056
5544.544544544545 0.11817928953737943
5554.554554554555 0.1187299130731049
5564.5645645645645 0.11927918497355793
5574.574574574574 0.119827087605996
5584.584584584584 0.12037360354135915
5594.594594594595 0.12091871555407668
5604.604604604605 0.12146240662184762
5614.614614614615 0.122004659925395
5624.624624624625 0.12254545884819305
5634.6346346346345 0.12308478697616965
5644.644644644644 0.12362262809738274
5654.654654654654 0.1241589662016738
5664.664664664665 0.1246937854802952
5674.674674674675 0.12522707032551514
5684.684684684685 0.1257588053301993
5694.694694694695 0.12628897528736924
5704.704704704704 0.12681756518973894
5714.714714714714 0.12734456022922988
5724.724724724725 0.12786994579646374
5734.734734734735 0.12839370748023513
5744.744744744745 0.12891583106696416
5754.754754754755 0.12943630254012722
5764.764764764765 0.1299551080796707
5774.774774774774 0.13047223406140418
5784.784784784785 0.13098766705637396
5794.794794794795 0.13150139383022075
5804.804804804805 0.1320134013425177
5814.814814814815 0.13252367674609172
5824.824824824825 0.13303220738632746
5834.8348348348345 0.1335389808004546
5844.844844844845 0.13404398471682044
5854.854854854855 0.1345472070541435
5864.864864864865 0.13504863592075525
5874.874874874875 0.13554825961382458
5884.884884884885 0.13604606661856875
5894.894894894895 0.13654204560744904
5904.9049049049045 0.13703618543935384
5914.914914914915 0.1375284751587675
5924.924924924925 0.13801890399492564
5934.934934934935 0.13850746136095857
5944.944944944945 0.13899413685302295
5954.954954954955 0.13947892024941835
5964.964964964965 0.1399618015096963
5974.974974974975 0.1404427707737549
5984.984984984985 0.14092181836092332
5994.994994994995 0.14139893476903692
6005.005005005005 0.14187411067349928
6015.015015015015 0.14234733692633755
6025.025025025025 0.14281860455524542
6035.035035035035 0.14328790476261805
6045.045045045045 0.14375522892457807
6055.055055055055 0.14422056858999222
6065.065065065065 0.14468391547947967
6075.075075075075 0.14514526148441267
