#lamb flux
1000.0 1.1005951033099444e+41
1010.01001001001 1.1244473205507273e+41
1020.0200200200201 1.1459951280211863e+41
1030.03003003003 1.1653213771127188e+41
1040.0400400400401 1.1825196618684112e+41
1050.05005005005 1.1976915294858814e+41
1060.06006006006 1.2109440281175119e+41
1070.07007007007 1.2223875817057725e+41
1080.08008008008 1.232134174453942e+41
1090.0900900900901 1.2402958228020702e+41
1100.1001001001 1.2469833099807238e+41
1110.11011011011 1.2523051569292953e+41
1120.1201201201202 1.256366803226322e+41
1130.13013013013 1.2592699723797867e+41
1140.1401401401401 1.2611121971128787e+41
1150.1501501501502 1.2619864819527367e+41
1160.16016016016 1.2619810823266452e+41
1170.1701701701702 1.2611793813701946e+41
1180.1801801801803 1.2596598476639823e+41
1190.1901901901902 1.2574960590740985e+41
1200.2002002002002 1.2547567797320265e+41
1210.2102102102103 1.2515060789226023e+41
1220.2202202202202 1.2478034822379218e+41
1230.2302302302303 1.2437041467933196e+41
1240.2402402402402 1.2392590535883911e+41
1250.2502502502502 1.2344502969902337e+41
1260.2602602602603 1.2291299939320372e+41
1270.2702702702702 1.2229993495645778e+41
1280.2802802802803 1.2161198598310745e+41
1290.2902902902902 1.2085504393430015e+41
1300.3003003003003 1.2003473664774997e+41
1310.3103103103103 1.1915642563099819e+41
1320.3203203203202 1.1822520573810226e+41
1330.3303303303303 1.172459068681026e+41
1340.3403403403404 1.162230973602943e+41
1350.3503503503503 1.1516108879596217e+41
1360.3603603603603 1.1406394194861437e+41
1370.3703703703704 1.1293547365476506e+41
1380.3803803803803 1.117792644049402e+41
1390.3903903903904 1.105986664798388e+41
1400.4004004004005 1.093968124795311e+41
1410.4104104104103 1.0817662411431847e+41
1420.4204204204204 1.0694082114452907e+41
1430.4304304304305 1.056919303732058e+41
1440.4404404404404 1.0443229461050635e+41
1450.4504504504505 1.0316408154180337e+41
1460.4604604604606 1.018892924431049e+41
1470.4704704704704 1.006097706976286e+41
1480.4804804804805 9.932721007631218e+40
1490.4904904904906 9.804316275282834e+40
1500.5005005005005 9.675904703043714e+40
1510.5105105105106 9.547615476384943e+40
1520.5205205205207 9.419565846430102e+40
1530.5305305305305 9.291861808034463e+40
1540.5405405405404 9.164598745054515e+40
1550.5505505505505 9.037862042740003e+40
1560.5605605605606 8.911727667446645e+40
1570.5705705705705 8.786262714095124e+40
1580.5805805805805 8.661525921995343e+40
1590.5905905905906 8.537568159822517e+40
1600.6006006006005 8.414432880678287e+40
1610.6106106106106 8.292156548302243e+40
1620.6206206206207 8.170769035622244e+40
1630.6306306306305 8.050293996952348e+40
1640.6406406406406 7.930749215269651e+40
1650.6506506506507 7.812146926134062e+40
1660.6606606606606 7.694494119962032e+40
1670.6706706706707 7.577792824536336e+40
1680.6806806806808 7.462040369834897e+40
1690.6906906906906 7.347229637502059e+40
1700.7007007007007 7.233368942005099e+40
1710.7107107107108 7.120520389070951e+40
1720.7207207207207 7.008653153015733e+40
1730.7307307307308 6.897723931211159e+40
1740.7407407407409 6.787688223630882e+40
1750.7507507507507 6.678500399098048e+40
1760.7607607607606 6.570113786340111e+40
1770.770770770771 6.462480796208735e+40
1780.7807807807808 6.355553082581294e+40
1790.7907907907907 6.249281750775255e+40
1800.8008008008007 6.143617623776692e+40
1810.8108108108108 6.038511578196904e+40
1820.8208208208207 5.933914963596591e+40
1830.8308308308308 5.829780120602115e+40
1840.8408408408409 5.726061014993092e+40
1850.8508508508507 5.622714006532283e+40
1860.8608608608608 5.519698772541958e+40
1870.870870870871 5.416979406836212e+40
1880.8808808808808 5.31452571423361e+40
1890.890890890891 5.212314719029826e+40
1900.900900900901 5.110332401921272e+40
1910.9109109109108 5.008575673238826e+40
1920.920920920921 4.907054580187245e+40
1930.930930930931 4.805794731261639e+40
1940.940940940941 4.70483990135825e+40
1950.950950950951 4.60425475575189e+40
1960.960960960961 4.504127599944366e+40
1970.970970970971 4.4045730259736915e+40
1980.980980980981 4.305734285728329e+40
1990.9909909909911 4.207785181118809e+40
2001.001001001001 4.1109312242262386e+40
2011.0110110110109 4.015409794054971e+40
2021.0210210210212 3.9214890079379995e+40
2031.031031031031 3.8294650432792386e+40
2041.0410410410411 3.739657696773896e+40
2051.051051051051 3.6524040586075626e+40
2061.061061061061 3.5680503088504277e+40
2071.071071071071 3.4869418062616703e+40
2081.081081081081 3.4094118223253043e+40
2091.091091091091 3.3357694546866816e+40
2101.101101101101 3.2662874084966637e+40
2111.1111111111113 3.201190435002351e+40
2121.121121121121 3.1406452420916745e+40
2131.131131131131 3.0847526291664037e+40
2141.141141141141 3.033542449788453e+40
2151.151151151151 2.986971785344749e+40
2161.161161161161 2.944926448760454e+40
2171.1711711711714 2.9072256632605177e+40
2181.1811811811813 2.8736295121085127e+40
2191.191191191191 2.843848560323993e+40
2201.201201201201 2.8175549276653585e+40
2211.2112112112113 2.7943940505436706e+40
2221.221221221221 2.7739964041598586e+40
2231.2312312312315 2.7559885509550807e+40
2241.2412412412414 2.740003017768835e+40
2251.2512512512512 2.7256866605556744e+40
2261.261261261261 2.7127073324361105e+40
2271.271271271271 2.700758812606961e+40
2281.2812812812813 2.68956406979536e+40
2291.2912912912916 2.6788770194266783e+40
2301.3013013013015 2.6684829880274184e+40
2311.3113113113113 2.65819812457192e+40
2321.321321321321 2.647868001581982e+40
2331.331331331331 2.6373656347594354e+40
2341.3413413413414 2.6265891246583443e+40
2351.3513513513512 2.615459092559801e+40
2361.3613613613616 2.6039160494302934e+40
2371.3713713713714 2.5919178046239635e+40
2381.3813813813813 2.579436991774913e+40
2391.391391391391 2.5664587641805866e+40
2401.4014014014015 2.552978691288174e+40
2411.4114114114113 2.539000871578297e+40
2421.4214214214217 2.524536264813483e+40
2431.4314314314315 2.5096012377459643e+40
2441.4414414414414 2.494216311367694e+40
2451.4514514514512 2.4784050940544484e+40
2461.4614614614616 2.4621933829769484e+40
2471.4714714714714 2.4456084154691513e+40
2481.4814814814818 2.4286782522793164e+40
2491.4914914914916 2.411431275481859e+40
2501.5015015015015 2.393895785063722e+40
2511.5115115115113 2.3760996796434967e+40
2521.521521521521 2.3580702083081105e+40
2531.5315315315315 2.3398337820725967e+40
2541.541541541542 2.32141583492461e+40
2551.5515515515517 2.3028407257712996e+40
2561.5615615615616 2.284131673841957e+40
2571.5715715715714 2.2653107212079817e+40
2581.5815815815813 2.246398717061762e+40
2591.5915915915916 2.227415319253764e+40
2601.6016016016015 2.2083790093304794e+40
2611.611611611612 2.189307117955271e+40
2621.6216216216217 2.170215858140289e+40
2631.6316316316315 2.1511203641811323e+40
2641.6416416416414 2.1320347345773803e+40
2651.6516516516517 2.1129720775507888e+40
2661.6616616616616 2.093944558047781e+40
2671.671671671672 2.074963445341514e+40
2681.6816816816818 2.0560391605382695e+40
2691.6916916916916 2.0371813234491068e+40
2701.7017017017015 2.0183987984159844e+40
2711.711711711712 1.999699738786286e+40
2721.7217217217217 1.9810916298148205e+40
2731.731731731732 1.9625813298410643e+40
2741.741741741742 1.944175109644656e+40
2751.7517517517517 1.9258786899259556e+40
2761.7617617617616 1.9076972768932706e+40
2771.7717717717715 1.889635595965218e+40
2781.781781781782 1.871697923617611e+40
2791.791791791792 1.8538881174198923e+40
2801.801801801802 1.8362096443177213e+40
2811.811811811812 1.8186656072265623e+40
2821.8218218218217 1.8012587700066967e+40
2831.8318318318316 1.7839915808934672e+40
2841.841841841842 1.766866194458329e+40
2851.851851851852 1.749884492176658e+40
2861.861861861862 1.7330481016776624e+40
2871.871871871872 1.7163584147503144e+40
2881.881881881882 1.6998166041772444e+40
2891.8918918918916 1.683423639466115e+40
2901.901901901902 1.6671803015452306e+40
2911.911911911912 1.6510871964873075e+40
2921.921921921922 1.635144768322199e+40
2931.931931931932 1.619353310996371e+40
2941.941941941942 1.6037129795337966e+40
2951.9519519519517 1.5882238004499154e+40
2961.961961961962 1.5728856814673331e+40
2971.971971971972 1.5576984205790397e+40
2981.9819819819822 1.542661714502158e+40
2991.991991991992 1.5277751665625747e+40
3002.002002002002 1.5130382940482456e+40
3012.012012012012 1.4984505350665765e+40
3022.0220220220217 1.484011254938986e+40
3032.032032032032 1.4736969693267078e+40
3042.0420420420423 1.4590338750643543e+40
3052.052052052052 1.44438464694679e+40
3062.062062062062 1.4297880768536737e+40
3072.072072072072 1.4152769826791272e+40
3082.0820820820823 1.4008788751611388e+40
3092.092092092092 1.3866165668003056e+40
3102.102102102102 1.372508725525139e+40
3112.1121121121123 1.3585703761929023e+40
3122.122122122122 1.3448133532684398e+40
3132.132132132132 1.3312467081399465e+40
3142.1421421421423 1.3178770745438745e+40
3152.152152152152 1.3047089955080096e+40
3162.162162162162 1.2917452151042568e+40
3172.1721721721724 1.2789869381476555e+40
3182.1821821821823 1.2664340607992317e+40
3192.192192192192 1.254085374837729e+40
3202.202202202202 1.2419387481669226e+40
3212.2122122122123 1.2299912839269351e+40
3222.222222222222 1.2182394603840266e+40
3232.232232232232 1.2066792535866965e+40
3242.2422422422424 1.195306244598681e+40
3252.252252252252 1.1841157129526842e+40
3262.262262262262 1.1731027178132757e+40
3272.2722722722724 1.1622621681934456e+40
3282.2822822822823 1.1515888834367582e+40
3292.292292292292 1.1410776450556475e+40
3302.3023023023025 1.1307232409055675e+40
3312.3123123123123 1.1205205025739725e+40
3322.322322322322 1.1104643367717607e+40
3332.3323323323325 1.1005497514321892e+40
3342.3423423423424 1.090771877147776e+40
3352.352352352352 1.0811259845085054e+40
3362.3623623623625 1.07160749784437e+40
3372.3723723723724 1.0622120058209884e+40
3382.3823823823823 1.0529352692884084e+40
3392.3923923923926 1.0437732267396669e+40
3402.4024024024025 1.0347219976965298e+40
3412.4124124124123 1.0257778843049525e+40
3422.4224224224226 1.0169373713914739e+40
3432.4324324324325 1.008197125203797e+40
3442.4424424424424 9.99553991033755e+39
3452.4524524524522 9.910049898984948e+39
3462.4624624624626 9.825473144356818e+39
3472.4724724724724 9.741783241506398e+39
3482.4824824824823 9.658955401372917e+39
3492.4924924924926 9.576966393804994e+39
3502.5025025025025 9.49579448734527e+39
3512.5125125125123 9.415419386609381e+39
3522.5225225225226 9.335822167989443e+39
3532.5325325325325 9.256985214320604e+39
3542.5425425425424 9.178892149067016e+39
3552.5525525525527 9.101527770510074e+39
3562.5625625625626 9.024877986356042e+39
3572.5725725725724 8.948929749121224e+39
3582.5825825825827 8.873670992600514e+39
3592.5925925925926 8.799090569677827e+39
3602.6026026026025 8.725178191695199e+39
3612.612612612613 8.651924369559789e+39
3622.6226226226227 8.579320356734579e+39
3632.6326326326325 8.507358094228968e+39
3642.642642642643 8.436030157679088e+39
3652.6526526526527 8.365329706584053e+39
3662.6626626626626 8.29525043574378e+39
3672.672672672673 8.225786528925898e+39
3682.6826826826828 8.156932614772827e+39
3692.6926926926926 8.088683724946291e+39
3702.7027027027025 8.021035254494158e+39
3712.712712712713 7.953982924413859e+39
3722.7227227227227 7.887522746377459e+39
3732.7327327327325 7.821650989575433e+39
3742.742742742743 7.756364149629846e+39
3752.7527527527527 7.691658919521751e+39
3762.7627627627626 7.627532162473135e+39
3772.772772772773 7.56398088672007e+39
3782.7827827827828 7.50100222211062e+39
3792.7927927927926 7.438593398458914e+39
3802.802802802803 7.376751725585239e+39
3812.812812812813 7.315474574970743e+39
3822.8228228228227 7.25475936295498e+39
3832.832832832833 7.194603535404407e+39
3842.842842842843 7.135004553780026e+39
3852.8528528528527 7.075959882533259e+39
3862.862862862863 7.017466977759811e+39
3872.872872872873 6.959523277042653e+39
3882.8828828828828 6.902126190416424e+39
3892.892892892893 6.845273092387518e+39
3902.902902902903 6.788961314945326e+39
3912.912912912913 6.733188141502509e+39
3922.922922922923 6.677950801703785e+39
3932.932932932933 6.623246467045067e+39
3942.942942942943 6.569072247246559e+39
3952.9529529529527 6.515425187326021e+39
3962.962962962963 6.462302265320293e+39
3972.972972972973 6.409700390605502e+39
3982.982982982983 6.357616402768628e+39
3992.992992992993 6.306047070985226e+39
4003.003003003003 6.254989093860474e+39
4013.013013013013 6.204439099692563e+39
4023.023023023023 6.154393647119959e+39
4033.033033033033 6.104849226115825e+39
4043.043043043043 6.055802259295109e+39
4053.053053053053 6.007249103501763e+39
4063.063063063063 5.959186051645424e+39
4073.073073073073 5.911609334758765e+39
4083.0830830830832 5.864515124248653e+39
4093.093093093093 5.817899534315774e+39
4103.103103103103 5.771758624519243e+39
4113.113113113113 5.726088402464292e+39
4123.123123123123 5.680884826592485e+39
4133.133133133133 5.636143809055709e+39
4143.143143143143 5.591861218656325e+39
4153.153153153153 5.548032883837295e+39
4163.163163163163 5.504654595707377e+39
4173.173173173173 5.46172211108773e+39
4183.183183183183 5.4192311555673457e+39
4193.193193193193 5.3771774265557956e+39
4203.203203203203 5.3355565963229764e+39
4213.213213213214 5.294364315016253e+39
4223.223223223224 5.253596213646521e+39
4233.2332332332335 5.213247907035446e+39
4243.243243243243 5.1733149967169844e+39
4253.253253253253 5.133793073787079e+39
4263.263263263263 5.0946777216960457e+39
4273.273273273273 5.0559645189788753e+39
4283.283283283283 5.017649041919321e+39
4293.293293293293 4.979726867144141e+39
4303.303303303303 4.942193574144459e+39
4313.313313313313 4.9050447477216493e+39
4323.323323323323 4.868275980355648e+39
4333.333333333334 4.831882874494005e+39
4343.343343343344 4.7958610447603656e+39
4353.353353353354 4.7602061200814125e+39
4363.3633633633635 4.724913745731691e+39
4373.373373373373 4.689979585295967e+39
4383.383383383383 4.65539932254908e+39
4393.393393393393 4.6211686632534973e+39
4403.403403403403 4.587283336874993e+39
4413.413413413413 4.553739098217064e+39
4423.423423423424 4.520531728974957e+39
4433.4334334334335 4.4876570392102136e+39
4443.443443443443 4.455110868746905e+39
4453.453453453454 4.422889088490795e+39
4463.463463463464 4.390987601672851e+39
4473.473473473474 4.359402345018445e+39
4483.483483483484 4.3281292898439945e+39
4493.493493493494 4.297164443082493e+39
4503.503503503503 4.2665038482397564e+39
4513.513513513513 4.23614358628308e+39
4523.523523523523 4.20607977646407e+39
4533.533533533533 4.176308577077582e+39
4543.543543543543 4.146826186158483e+39
4553.553553553554 4.117628842118216e+39
4563.563563563564 4.088712824323014e+39
4573.573573573573 4.060074453615625e+39
4583.583583583584 4.0317100927824874e+39
4593.593593593594 4.003616146968207e+39
4603.603603603604 3.9757890640392036e+39
4613.613613613614 3.9482253348984316e+39
4623.623623623624 3.920921493752935e+39
4633.6336336336335 3.8938741183361583e+39
4643.643643643643 3.867079830086718e+39
4653.653653653653 3.840535294285451e+39
4663.663663663663 3.8142372201524814e+39
4673.673673673674 3.7881823609059714e+39
4683.683683683684 3.7623675137843066e+39
4693.693693693694 3.736789520033262e+39
4703.703703703704 3.7114452648598315e+39
4713.713713713714 3.6863316773542567e+39
4723.723723723724 3.661445730381779e+39
4733.733733733734 3.636784440445612e+39
4743.743743743744 3.61234486752261e+39
4753.753753753754 3.588124114873005e+39
4763.763763763764 3.564119328825625e+39
4773.773773773773 3.540327698539891e+39
4783.783783783783 3.516746455745945e+39
4793.793793793793 3.493372874464091e+39
4803.803803803804 3.470204270704825e+39
4813.813813813814 3.447238002150615e+39
4823.823823823824 3.4244714678205556e+39
4833.833833833834 3.401902107719011e+39
4843.843843843844 3.379527402469337e+39
4853.853853853854 3.35734487293364e+39
4863.863863863864 3.335352079819643e+39
4873.873873873874 3.313546623275562e+39
4883.883883883884 3.2919261424739416e+39
4893.893893893894 3.270488315185299e+39
4903.9039039039035 3.2492308573424874e+39
4913.913913913913 3.2281515225965304e+39
4923.923923923924 3.2072481018647667e+39
4933.933933933934 3.18651842287205e+39
4943.943943943944 3.165960349685682e+39
4953.953953953955 3.145571782244859e+39
4963.9639639639645 3.1253506558852235e+39
4973.973973973974 3.1052949408591874e+39
4983.983983983984 3.0854026418526447e+39
4993.993993993994 3.0656717974986407e+39
5004.004004004004 3.0461004798885605e+39
5014.014014014014 3.0266867940813776e+39
5024.024024024024 3.007428877611444e+39
5034.0340340340335 2.988324899995347e+39
5044.044044044043 2.969373062238249e+39
5054.054054054054 2.950571596340177e+39
5064.064064064064 2.9319187648026756e+39
5074.074074074074 2.913412860136197e+39
5084.084084084085 2.895052204368629e+39
5094.0940940940945 2.87683514855532e+39
5104.104104104104 2.8587600722909014e+39
5114.114114114114 2.840825383223261e+39
5124.124124124124 2.8230295165699683e+39
5134.134134134134 2.805370934637404e+39
5144.144144144144 2.787848126342899e+39
5154.154154154154 2.7704596067401096e+39
5164.1641641641645 2.7532039165478767e+39
5174.174174174174 2.736079621682785e+39
5184.184184184184 2.719085312795644e+39
5194.194194194194 2.7022196048120465e+39
5204.204204204204 2.6854811364772532e+39
5214.214214214214 2.6688685699054952e+39
5224.224224224225 2.6523805901339076e+39
5234.2342342342345 2.6360159046812155e+39
5244.244244244244 2.6197732431113012e+39
5254.254254254254 2.6036513566017913e+39
5264.264264264264 2.587649017517761e+39
5274.274274274274 2.5717650189906763e+39
5284.284284284285 2.555998174502644e+39
5294.294294294295 2.5403473174760736e+39
5304.304304304304 2.5248113008688083e+39
5314.314314314314 2.5093889967748246e+39
5324.324324324324 2.4940792960305027e+39
5334.334334334334 2.4788811078265923e+39
5344.344344344345 2.4637933593258425e+39
5354.354354354355 2.4488149952864037e+39
5364.3643643643645 2.433944977690967e+39
5374.374374374374 2.419182285381723e+39
5384.384384384384 2.404525913701111e+39
5394.394394394394 2.3899748741384043e+39
5404.404404404404 2.3755281939821157e+39
5414.414414414415 2.3611849159782442e+39
5424.424424424425 2.3469440979943452e+39
5434.4344344344345 2.3328048126894162e+39
5444.444444444444 2.318766147189592e+39
5454.454454454454 2.304827202769644e+39
5464.464464464464 2.2909870945402263e+39
5474.474474474475 2.2772449511408837e+39
5484.484484484485 2.2635999144387693e+39
5494.494494494495 2.250051139233048e+39
5504.504504504504 2.2365977929649535e+39
5514.514514514514 2.2232390554334457e+39
5524.524524524524 2.2099741185164582e+39
5534.534534534535 2.196802185897657e+39
5544.544544544545 2.1837224727986882e+39
5554.554554554555 2.1707342057168518e+39
5564.5645645645645 2.1578366221681727e+39
5574.574574574574 2.1450289704357827e+39
5584.584584584584 2.1323105093235944e+39
5594.594594594595 2.1196805079151756e+39
5604.604604604605 2.107138245337814e+39
5614.614614614615 2.0946830105316474e+39
5624.624624624625 2.0823141020238575e+39
5634.6346346346345 2.0700308277078446e+39
5644.644644644644 2.057832504627294e+39
5654.654654654654 2.0457184587651256e+39
5664.664664664665 2.033688024837194e+39
5674.674674674675 2.0217405460907418e+39
5684.684684684685 2.009875374107477e+39
5694.694694694695 1.9980918686112506e+39
5704.704704704704 1.9863893972802486e+39
5714.714714714714 1.974767335563625e+39
5724.724724724725 1.9632250665025218e+39
5734.734734734735 1.9517619805553958e+39
5744.744744744745 1.940377475427581e+39
5754.754754754755 1.9290709559050214e+39
5764.764764764765 1.9178418336921108e+39
5774.774774774774 1.9066895272535548e+39
5784.784784784785 1.895613461660194e+39
5794.794794794795 1.8846130684387176e+39
5804.804804804805 1.8736877854251975e+39
5814.814814814815 1.862837056622369e+39
5824.824824824825 1.8520603320605973e+39
5834.8348348348345 1.8413570676624482e+39
5844.844844844845 1.8307267251108098e+39
5854.854854854855 1.8201687717204807e+39
5864.864864864865 1.8096826803131622e+39
5874.874874874875 1.799267929095801e+39
5884.884884884885 1.7889240015421862e+39
