#lamb flux
1000.0 1.3964630469165624e+39
1010.01001001001 1.4974290008986923e+39
1020.0200200200201 1.5979476128120273e+39
1030.03003003003 1.6976300282242315e+39
1040.0400400400401 1.7961385507700635e+39
1050.05005005005 1.893186152074741e+39
1060.06006006006 1.9885348995875854e+39
1070.07007007007 2.081993553181533e+39
1080.08008008008 2.173414556989006e+39
1090.0900900900901 2.2626906246951868e+39
1100.1001001001 2.3497510868763588e+39
1110.11011011011 2.4345581397806553e+39
1120.1201201201202 2.517103107463524e+39
1130.13013013013 2.5974028042089904e+39
1140.1401401401401 2.6754960621213456e+39
1150.1501501501502 2.751440469816774e+39
1160.16016016016 2.825309352237909e+39
1170.1701701701702 2.8971890085811505e+39
1180.1801801801803 2.967176214908907e+39
1190.1901901901902 3.0353759899159835e+39
1200.2002002002002 3.101899616215954e+39
1210.2102102102103 3.1668629051000166e+39
1220.2202202202202 3.230384689706671e+39
1230.2302302302303 3.2925855296615433e+39
1240.2402402402402 3.3535866092692744e+39
1250.2502502502502 3.413171549432079e+39
1260.2602602602603 3.470424461740339e+39
1270.2702702702702 3.523545756781212e+39
1280.2802802802803 3.572595582226492e+39
1290.2902902902902 3.617647341201683e+39
1300.3003003003003 3.6587858045548046e+39
1310.3103103103103 3.696105346912244e+39
1320.3203203203202 3.729708310176069e+39
1330.3303303303303 3.7597034954916097e+39
1340.3403403403404 3.7862047825649146e+39
1350.3503503503503 3.8093298734862854e+39
1360.3603603603603 3.8291991568668305e+39
1370.3703703703704 3.845934687071036e+39
1380.3803803803803 3.859659272584169e+39
1390.3903903903904 3.8704956670463334e+39
1400.4004004004005 3.878565856176528e+39
1410.4104104104103 3.8839904336663113e+39
1420.4204204204204 3.88688805911225e+39
1430.4304304304305 3.8873749911531994e+39
1440.4404404404404 3.8855646891592567e+39
1450.4504504504505 3.881567477063694e+39
1460.4604604604606 3.875490263221476e+39
1470.4704704704704 3.8674363105027825e+39
1480.4804804804805 3.857505051176837e+39
1490.4904904904906 3.8457919414999975e+39
1500.5005005005005 3.83238835128516e+39
1510.5105105105106 3.8173814840915425e+39
1520.5205205205207 3.800854324029502e+39
1530.5305305305305 3.782885605521866e+39
1540.5405405405404 3.763549802698628e+39
1550.5505505505505 3.7429171354245846e+39
1560.5605605605606 3.7210535892693304e+39
1570.5705705705705 3.698020947026277e+39
1580.5805805805805 3.67387682967255e+39
1590.5905905905906 3.6486747449369913e+39
1600.6006006006005 3.622464141910214e+39
1610.6106106106106 3.5952904703923197e+39
1620.6206206206207 3.567195243932465e+39
1630.6306306306305 3.5382161057748384e+39
1640.6406406406406 3.5083868971907975e+39
1650.6506506506507 3.477737727952844e+39
1660.6606606606606 3.446295048997264e+39
1670.6706706706707 3.414081727635682e+39
1680.6806806806808 3.381117126017699e+39
1690.6906906906906 3.3474171839253833e+39
1700.7007007007007 3.313011413899897e+39
1710.7107107107108 3.277976412933097e+39
1720.7207207207207 3.242309431922373e+39
1730.7307307307308 3.205996626386395e+39
1740.7407407407409 3.1690227342855876e+39
1750.7507507507507 3.131371163057983e+39
1760.7607607607606 3.09302410776036e+39
1770.770770770771 3.05396270693329e+39
1780.7807807807808 3.0141672438848096e+39
1790.7907907907907 2.9736174022628e+39
1800.8008008008007 2.9322925860411705e+39
1810.8108108108108 2.89017231534355e+39
1820.8208208208207 2.847236710812983e+39
1830.8308308308308 2.8034670804205214e+39
1840.8408408408409 2.7588466235648116e+39
1850.8508508508507 2.7133612678771334e+39
1860.8608608608608 2.667000654081666e+39
1870.870870870871 2.6197592832718486e+39
1880.8808808808808 2.5716378386793123e+39
1890.890890890891 2.522644689985885e+39
1900.900900900901 2.4727975819520432e+39
1910.9109109109108 2.422125500059276e+39
1920.920920920921 2.3706706934577617e+39
1930.930930930931 2.3184908193411446e+39
1940.940940940941 2.2656611527276152e+39
1950.950950950951 2.2122767816892298e+39
1960.960960960961 2.1584546811073853e+39
1970.970970970971 2.10433552961378e+39
1980.980980980981 2.050085107068833e+39
1990.9909909909911 1.9958950873892823e+39
2001.001001001001 1.9419830284291835e+39
2011.0110110110109 1.8885913622679752e+39
2021.0210210210212 1.8359852109508765e+39
2031.031031031031 1.7844488986554352e+39
2041.0410410410411 1.7342811032173277e+39
2051.051051051051 1.685788686008251e+39
2061.061061061061 1.6392793527070738e+39
2071.071071071071 1.595053417110619e+39
2081.081081081081 1.553395050578266e+39
2091.091091091091 1.5145634843197996e+39
2101.101101101101 1.4787846756510897e+39
2111.1111111111113 1.4462439429546323e+39
2121.121121121121 1.4170800156649867e+39
2131.131131131131 1.3913808421420023e+39
2141.141141141141 1.3691813641475102e+39
2151.151151151151 1.35046332028598e+39
2161.161161161161 1.33515700072507e+39
2171.1711711711714 1.3231447566598126e+39
2181.1811811811813 1.3142659793751856e+39
2191.191191191191 1.3083232083102142e+39
2201.201201201201 1.305089003271857e+39
2211.2112112112113 1.3043132180812207e+39
2221.221221221221 1.3057303357292293e+39
2231.2312312312315 1.3090665631786498e+39
2241.2412412412414 1.3140464326641711e+39
2251.2512512512512 1.3203987117688265e+39
2261.261261261261 1.3278614830940511e+39
2271.271271271271 1.3361863125243213e+39
2281.2812812812813 1.3451414796059238e+39
2291.2912912912916 1.3545142914948179e+39
2301.3013013013015 1.3641125410582774e+39
2311.3113113113113 1.3737651987492253e+39
2321.321321321321 1.3833224465354268e+39
2331.331331331331 1.3926551711076026e+39
2341.3413413413414 1.4016540341668387e+39
2351.3513513513512 1.410228231580305e+39
2361.3613613613616 1.4183040425158283e+39
2371.3713713713714 1.4258232561509626e+39
2381.3813813813813 1.432741548784553e+39
2391.391391391391 1.4390268694102834e+39
2401.4014014014015 1.4446578779435043e+39
2411.4114114114113 1.4496224678993182e+39
2421.4214214214217 1.4539163947013884e+39
2431.4314314314315 1.4575420220446126e+39
2441.4414414414414 1.4605071917774925e+39
2451.4514514514512 1.4628242174526042e+39
2461.4614614614616 1.4645089978046536e+39
2471.4714714714714 1.465580243725139e+39
2481.4814814814818 1.466058810583676e+39
2491.4914914914916 1.4659671267897967e+39
2501.5015015015015 1.465328709111869e+39
2511.5115115115113 1.4641677553164812e+39
2521.521521521521 1.462508805035061e+39
2531.5315315315315 1.4603764603036285e+39
2541.541541541542 1.4577951578780892e+39
2551.5515515515517 1.4547889861426986e+39
2561.5615615615616 1.4513815401603596e+39
2571.5715715715714 1.4475958091302827e+39
2581.5815815815813 1.4434540912010522e+39
2591.5915915915916 1.4389779312230252e+39
2601.6016016016015 1.4341880776062218e+39
2611.611611611612 1.429104454975956e+39
2621.6216216216217 1.4237461497883983e+39
2631.6316316316315 1.418131406484241e+39
2641.6416416416414 1.4122776321239622e+39
2651.6516516516517 1.406201407766774e+39
2661.6616616616616 1.3999185051316517e+39
2671.671671671672 1.393443907317101e+39
2681.6816816816818 1.3867918325608906e+39
2691.6916916916916 1.37997576019584e+39
2701.7017017017015 1.3730084581065832e+39
2711.711711711712 1.36590201111853e+39
2721.7217217217217 1.3586678498569073e+39
2731.731731731732 1.35131677970362e+39
2741.741741741742 1.343859009555083e+39
2751.7517517517517 1.3363041801471807e+39
2761.7617617617616 1.3286613917660528e+39
2771.7717717717715 1.3209392312069008e+39
2781.781781781782 1.3131457978790514e+39
2791.791791791792 1.3052887289850422e+39
2801.801801801802 1.2973752237256801e+39
2811.811811811812 1.2894120665026758e+39
2821.8218218218217 1.2814056491062883e+39
2831.8318318318316 1.2733619918880883e+39
2841.841841841842 1.265286763928965e+39
2851.851851851852 1.2571853022203182e+39
2861.861861861862 1.2490626298823877e+39
2871.871871871872 1.2409234734481485e+39
2881.881881881882 1.2327722792444997e+39
2891.8918918918916 1.2246132289046887e+39
2901.901901901902 1.2164502540473833e+39
2911.911911911912 1.2082870501585522e+39
2921.921921921922 1.2001270897125734e+39
2931.931931931932 1.1919736345687999e+39
2941.941941941942 1.1838297476793144e+39
2951.9519519519517 1.1756983041428177e+39
2961.961961961962 1.1675820016386693e+39
2971.971971971972 1.159483370273966e+39
2981.9819819819822 1.1514047818753621e+39
2991.991991991992 1.1433484587560563e+39
3002.002002002002 1.1353164819870635e+39
3012.012012012012 1.127310799200572e+39
3022.0220220220217 1.1193332319518375e+39
3032.032032032032 1.1170434187710129e+39
3042.0420420420423 1.1084010256661136e+39
3052.052052052052 1.0995986004275987e+39
3062.062062062062 1.0906932508171363e+39
3072.072072072072 1.081733994221387e+39
3082.0820820820823 1.0727625924283731e+39
3092.092092092092 1.0638143300105339e+39
3102.102102102102 1.0549187342121315e+39
3112.1121121121123 1.0461002361261303e+39
3122.122122122122 1.0373787743303612e+39
3132.132132132132 1.0287703431346384e+39
3142.1421421421423 1.020287488253849e+39
3152.152152152152 1.0119397531370225e+39
3162.162162162162 1.0037340794071959e+39
3172.1721721721724 9.956751649481029e+38
3182.1821821821823 9.877657831495533e+38
3192.192192192192 9.800070667236244e+38
3202.202202202202 9.723987593522123e+38
3212.2122122122123 9.649394382412889e+38
3222.222222222222 9.576267104524617e+38
3232.232232232232 9.504573856686728e+38
3242.2422422422424 9.434276278358346e+38
3252.252252252252 9.365330879114337e+38
3262.262262262262 9.297690197486677e+38
3272.2722722722724 9.231303809528912e+38
3282.2822822822823 9.16611920367707e+38
3292.292292292292 9.102082536817209e+38
3302.3023023023025 9.039139284939975e+38
3312.3123123123123 8.97723480036469e+38
3322.322322322322 8.916314786245366e+38
3332.3323323323325 8.856325697921202e+38
3342.3423423423424 8.797215079639042e+38
3352.352352352352 8.738931844244229e+38
3362.3623623623625 8.681426502603413e+38
3372.3723723723724 8.624651348777932e+38
3382.3823823823823 8.568560606301384e+38
3392.3923923923926 8.513110540324254e+38
3402.4024024024025 8.458259539861057e+38
3412.4124124124123 8.403968173908039e+38
3422.4224224224226 8.350199224783778e+38
3432.4324324324325 8.296917701675786e+38
3442.4424424424424 8.244090837048677e+38
3452.4524524524522 8.191688068278217e+38
3462.4624624624626 8.13968100661712e+38
3472.4724724724724 8.088043395368446e+38
3482.4824824824823 8.036751058937844e+38
3492.4924924924926 7.985781844253723e+38
3502.5025025025025 7.935115555881708e+38
3512.5125125125123 7.88473388601483e+38
3522.5225225225226 7.834620340390837e+38
3532.5325325325325 7.784760161071718e+38
3542.5425425425424 7.735140246916405e+38
3552.5525525525527 7.685749072483433e+38
3562.5625625625626 7.636576606016289e+38
3572.5725725725724 7.58761422708768e+38
3582.5825825825827 7.538854644410573e+38
3592.5925925925926 7.490291814261338e+38
3602.6026026026025 7.441920859904258e+38
3612.612612612613 7.393737992355666e+38
3622.6226226226227 7.345740432779492e+38
3632.6326326326325 7.297926336764323e+38
3642.642642642643 7.250294720693738e+38
3652.6526526526527 7.2028453903872e+38
3662.6626626626626 7.15557887215726e+38
3672.672672672673 7.108496346400636e+38
3682.6826826826828 7.061599583814668e+38
3692.6926926926926 7.01489088430747e+38
3702.7027027027025 6.968373018649007e+38
3712.712712712713 6.922049172891437e+38
3722.7227227227227 6.87592289557e+38
3732.7327327327325 6.829998047680344e+38
3742.742742742743 6.784278755414934e+38
3752.7527527527527 6.7387693656287965e+38
3762.7627627627626 6.693474403994442e+38
3772.772772772773 6.648398535796414e+38
3782.7827827827828 6.6035465293078556e+38
3792.7927927927926 6.5589232216844585e+38
3802.802802802803 6.5145334873053564e+38
3812.812812812813 6.470382208485416e+38
3822.8228228228227 6.426474248479408e+38
3832.832832832833 6.3828144266952564e+38
3842.842842842843 6.33940749603098e+38
3852.8528528528527 6.296258122248198e+38
3862.862862862863 6.253370865293729e+38
3872.872872872873 6.210750162480293e+38
3882.8828828828828 6.1684003134369494e+38
3892.892892892893 6.126325466740565e+38
3902.902902902903 6.084529608139827e+38
3912.912912912913 6.043016550284809e+38
3922.922922922923 6.001789923876248e+38
3932.932932932933 5.960853170150469e+38
3942.942942942943 5.920209534617639e+38
3952.9529529529527 5.879862061973352e+38
3962.962962962963 5.839813592105705e+38
3972.972972972973 5.800066757122455e+38
3982.982982982983 5.760623979325455e+38
3992.992992992993 5.721487470062112e+38
4003.003003003003 5.68265922938655e+38
4013.013013013013 5.644141046465524e+38
4023.023023023023 5.605934500667381e+38
4033.033033033033 5.568040963274782e+38
4043.043043043043 5.530461599764947e+38
4053.053053053053 5.49319737260384e+38
4063.063063063063 5.456249044503529e+38
4073.073073073073 5.419617182094598e+38
4083.0830830830832 5.383302159968253e+38
4093.093093093093 5.3473041650452955e+38
4103.103103103103 5.311623201231654e+38
4113.113113113113 5.276259094322794e+38
4123.123123123123 5.24121149712145e+38
4133.133133133133 5.2064798947357665e+38
4143.143143143143 5.172063610026899e+38
4153.153153153153 5.137961809177437e+38
4163.163163163163 5.104173507353993e+38
4173.173173173173 5.0706975744393356e+38
4183.183183183183 5.037532740811305e+38
4193.193193193193 5.004677603147558e+38
4203.203203203203 4.9721306302368896e+38
4213.213213213214 4.939890168779594e+38
4223.223223223224 4.9079544491606996e+38
4233.2332332332335 4.876321591181585e+38
4243.243243243243 4.8449896097367024e+38
4253.253253253253 4.813956420423517e+38
4263.263263263263 4.78321984507499e+38
4273.273273273273 4.752777617205038e+38
4283.283283283283 4.722627387358551e+38
4293.293293293293 4.692766728358516e+38
4303.303303303303 4.663193140443715e+38
4313.313313313313 4.6339040562914236e+38
4323.323323323323 4.604896845920259e+38
4333.333333333334 4.5761688214691665e+38
4343.343343343344 4.5477172418491835e+38
4353.353353353354 4.519539317265287e+38
4363.3633633633635 4.491632213606238e+38
4373.373373373373 4.463993056700875e+38
4383.383383383383 4.436618936439831e+38
4393.393393393393 4.409506910762073e+38
4403.403403403403 4.382654009506155e+38
4413.413413413413 4.356057238126359e+38
4423.423423423424 4.329713581274382e+38
4433.4334334334335 4.303620006247394e+38
4443.443443443443 4.277773466303695e+38
4453.453453453454 4.252170903847383e+38
4463.463463463464 4.226809253483735e+38
4473.473473473474 4.201685444947072e+38
4483.483483483484 4.176796405903285e+38
4493.493493493494 4.1521390646290925e+38
4503.503503503503 4.127710352570448e+38
4513.513513513513 4.103507206782491e+38
4523.523523523523 4.0795265722536054e+38
4533.533533533533 4.055765404116253e+38
4543.543543543543 4.032220669747197e+38
4553.553553553554 4.008889350759917e+38
4563.563563563564 3.9857684448920265e+38
4573.573573573573 3.9628549677904356e+38
4583.583583583584 3.940145954697186e+38
4593.593593593594 3.917638462038739e+38
4603.603603603604 3.89532956892159e+38
4613.613613613614 3.8732163785370905e+38
4623.623623623624 3.851296019478215e+38
4633.6336336336335 3.8295656469711854e+38
4643.643643643643 3.808022444024678e+38
4653.653653653653 3.786663622499365e+38
4663.663663663663 3.765486424100549e+38
4673.673673673674 3.744488121296509e+38
4683.683683683684 3.723666018165292e+38
4693.693693693694 3.703017451172427e+38
4703.703703703704 3.6825397898821965e+38
4713.713713713714 3.6622304376049264e+38
4723.723723723724 3.642086831982755e+38
4733.733733733734 3.622106445516229e+38
4743.743743743744 3.602286786034155e+38
4753.753753753754 3.582625397108869e+38
4763.763763763764 3.5631198584192856e+38
4773.773773773773 3.5437677860637605e+38
4783.783783783783 3.5245668328250226e+38
4793.793793793793 3.5055146883891184e+38
4803.803803803804 3.48660907952043e+38
4813.813813813814 3.467847770194726e+38
4823.823823823824 3.449228561692091e+38
4833.833833833834 3.430749292651612e+38
4843.843843843844 3.412407839089595e+38
4853.853853853854 3.3942021143830252e+38
4863.863863863864 3.376130069219968e+38
4873.873873873874 3.358189691518523e+38
4883.883883883884 3.3403790063159256e+38
4893.893893893894 3.3226960756292748e+38
4903.9039039039035 3.305138998289423e+38
4913.913913913913 3.2877059097493966e+38
4923.923923923924 3.2703949818687536e+38
4933.933933933934 3.2532044226752347e+38
4943.943943943944 3.2361324761049126e+38
4953.953953953955 3.219177421722201e+38
4963.9639639639645 3.2023375744208187e+38
4973.973973973974 3.1856112841069153e+38
4983.983983983984 3.168996935365485e+38
4993.993993993994 3.152492947111116e+38
5004.004004004004 3.136097772224126e+38
5014.014014014014 3.119809897173109e+38
5024.024024024024 3.1036278416248014e+38
5034.0340340340335 3.0875501580422683e+38
5044.044044044043 3.0715754312722425e+38
5054.054054054054 3.055702278122509e+38
5064.064064064064 3.0399293469301595e+38
5074.074074074074 3.024255317121499e+38
5084.084084084085 3.008678898764388e+38
5094.0940940940945 2.9931988321137507e+38
5104.104104104104 2.9778138871509384e+38
5114.114114114114 2.9625228631176565e+38
5124.124124124124 2.9473245880450847e+38
5134.134134134134 2.932217918278821e+38
5144.144144144144 2.9172017380002455e+38
5154.154154154154 2.9022749587448938e+38
5164.1641641641645 2.8874365189183608e+38
5174.174174174174 2.8726853833103005e+38
5184.184184184184 2.858020542606985e+38
5194.194194194194 2.8434410129029293e+38
5204.204204204204 2.8289458352120606e+38
5214.214214214214 2.8145340749788154e+38
5224.224224224225 2.8002048215896464e+38
5234.2342342342345 2.7859571878853094e+38
5244.244244244244 2.771790309674306e+38
5254.254254254254 2.757703345247883e+38
5264.264264264264 2.7436954748968784e+38
5274.274274274274 2.72976590043081e+38
5284.284284284285 2.7159138446994638e+38
5294.294294294295 2.70213855111732e+38
5304.304304304304 2.6884392831910605e+38
5314.314314314314 2.6748153240504698e+38
5324.324324324324 2.661265975982942e+38
5334.334334334334 2.6477905599718625e+38
5344.344344344345 2.6343884152390617e+38
5354.354354354355 2.6210588987915847e+38
5364.3643643643645 2.6078013849729413e+38
5374.374374374374 2.594615265019066e+38
5384.384384384384 2.581499946619112e+38
5394.394394394394 2.5684548534812906e+38
5404.404404404404 2.5554794249038834e+38
5414.414414414415 2.542573115351567e+38
5424.424424424425 2.5297353940372038e+38
5434.4344344344345 2.516965744509189e+38
5444.444444444444 2.5042636642444983e+38
5454.454454454454 2.491628664247517e+38
5464.464464464464 2.4790602686547473e+38
5474.474474474475 2.4665580143454947e+38
5484.484484484485 2.4541214505585803e+38
5494.494494494495 2.441750138515176e+38
5504.504504504504 2.429443651047813e+38
5514.514514514514 2.4172015722356028e+38
5524.524524524524 2.4050234970457472e+38
5534.534534534535 2.3929090309813406e+38
5544.544544544545 2.3808577897355257e+38
5554.554554554555 2.3688693988520063e+38
5564.5645645645645 2.3569434933919543e+38
5574.574574574574 2.3450797176073154e+38
5584.584584584584 2.333277724620517e+38
5594.594594594595 2.3215371761105777e+38
5604.604604604605 2.3098577420056556e+38
5614.614614614615 2.298239100181948e+38
5624.624624624625 2.2866809361690036e+38
5634.6346346346345 2.275182942861403e+38
5644.644644644644 2.2637448202367606e+38
5654.654654654654 2.2523662750800706e+38
5664.664664664665 2.2410470207143073e+38
5674.674674674675 2.2297867767373196e+38
5684.684684684685 2.2185852687648942e+38
5694.694694694695 2.207442228180017e+38
5704.704704704704 2.1963573918882582e+38
5714.714714714714 2.1853305020792283e+38
5724.724724724725 2.174361305994066e+38
5734.734734734735 2.1634495556988957e+38
5744.744744744745 2.152595007864206e+38
5754.754754754755 2.1417974235500735e+38
5764.764764764765 2.1310565679971975e+38
5774.774774774774 2.120372210423653e+38
5784.784784784785 2.1097441238273135e+38
5794.794794794795 2.099172084793867e+38
5804.804804804805 2.0886558733103656e+38
5814.814814814815 2.078195272584221e+38
5824.824824824825 2.0677900688675914e+38
5834.8348348348345 2.0574400512870674e+38
5844.844844844845 2.0471450116786027e+38
5854.854854854855 2.0369047444275825e+38
5864.864864864865 2.026719046313979e+38
5874.874874874875 2.0165877163625058e+38
5884.884884884885 2.0065105556976825e+38
5894.894894894895 1.996487367403742e+38
