#lamb flux
1000.0 4.406623856955286e+40
1010.01001001001 4.504478359587393e+40
1020.0200200200201 4.589987019637952e+40
1030.03003003003 4.663663631345284e+40
1040.0400400400401 4.726097046146877e+40
1050.05005005005 4.7779300522992215e+40
1060.06006006006 4.819840885551842e+40
1070.07007007007 4.852527344270974e+40
1080.08008008008 4.876693397548906e+40
1090.0900900900901 4.893038117080536e+40
1100.1001001001 4.902246727890688e+40
1110.11011011011 4.904983554666725e+40
1120.1201201201202 4.901886635333096e+40
1130.13013013013 4.8935637780457995e+40
1140.1401401401401 4.880589849041851e+40
1150.1501501501502 4.863505094387156e+40
1160.16016016016 4.842814316775505e+40
1170.1701701701702 4.818986747740072e+40
1180.1801801801803 4.792456474919178e+40
1190.1901901901902 4.763623302647138e+40
1200.2002002002002 4.732853941640106e+40
1210.2102102102103 4.700483439623695e+40
1220.2202202202202 4.666816779254859e+40
1230.2302302302303 4.632130582579813e+40
1240.2402402402402 4.596674872570966e+40
1250.2502502502502 4.560324921467586e+40
1260.2602602602603 4.522260871658314e+40
1270.2702702702702 4.480869990358355e+40
1280.2802802802803 4.436485656287296e+40
1290.2902902902902 4.389423573890264e+40
1300.3003003003003 4.339981643872019e+40
1310.3103103103103 4.2884400213083534e+40
1320.3203203203202 4.2350613300141613e+40
1330.3303303303303 4.1800910051932436e+40
1340.3403403403404 4.123757739576677e+40
1350.3503503503503 4.0662740112424017e+40
1360.3603603603603 4.007836674078024e+40
1370.3703703703704 3.948627594391896e+40
1380.3803803803803 3.8888143194920503e+40
1390.3903903903904 3.8285507661424326e+40
1400.4004004004005 3.7679779186788014e+40
1410.4104104104103 3.707224528233852e+40
1420.4204204204204 3.646407805995612e+40
1430.4304304304305 3.585634104718727e+40
1440.4404404404404 3.524999583840235e+40
1450.4504504504505 3.464590854533668e+40
1460.4604604604606 3.404485601883283e+40
1470.4704704704704 3.3447531820867346e+40
1480.4804804804805 3.2854551932135865e+40
1490.4904904904906 3.226646018570444e+40
1500.5005005005005 3.168373342162778e+40
1510.5105105105106 3.1106786361093103e+40
1520.5205205205207 3.0535976201664587e+40
1530.5305305305305 2.997160693766608e+40
1540.5405405405404 2.941393341172886e+40
1550.5505505505505 2.8863165105114745e+40
1560.5605605605606 2.831946967566804e+40
1570.5705705705705 2.7782976253210825e+40
1580.5805805805805 2.7253778502923705e+40
1590.5905905905906 2.673193746779694e+40
1600.6006006006005 2.6217484201636367e+40
1610.6106106106106 2.5710422204402476e+40
1620.6206206206207 2.5210729671885463e+40
1630.6306306306305 2.471836157190741e+40
1640.6406406406406 2.423325155942497e+40
1650.6506506506507 2.375531374311656e+40
1660.6606606606606 2.3284444316300307e+40
1670.6706706706707 2.2820523065382334e+40
1680.6806806806808 2.2363414769501446e+40
1690.6906906906906 2.1912970505655426e+40
1700.7007007007007 2.1469113954332633e+40
1710.7107107107108 2.103200485215622e+40
1720.7207207207207 2.060140382579844e+40
1730.7307307307308 2.0177025280452384e+40
1740.7407407407409 1.9758586365593862e+40
1750.7507507507507 1.934580715408502e+40
1760.7607607607606 1.8938410940020488e+40
1770.770770770771 1.8536124678774925e+40
1780.7807807807808 1.8138679596497276e+40
1790.7907907907907 1.774581200044271e+40
1800.8008008008007 1.7357264325972559e+40
1810.8108108108108 1.697278646066553e+40
1820.8208208208207 1.6592137390573241e+40
1830.8308308308308 1.621508721792354e+40
1840.8408408408409 1.584141960309043e+40
1850.8508508508507 1.5470934685811264e+40
1860.8608608608608 1.5103452540624065e+40
1870.870870870871 1.4738817218261134e+40
1880.8808808808808 1.4376901416928142e+40
1890.890890890891 1.4017611813386193e+40
1900.900900900901 1.3660895061638496e+40
1910.9109109109108 1.3306744434707957e+40
1920.920920920921 1.29552070403658e+40
1930.930930930931 1.2606391482873545e+40
1940.940940940941 1.2260475768665755e+40
1950.950950950951 1.1917715164544294e+40
1960.960960960961 1.1578449614534787e+40
1970.970970970971 1.1243110211127413e+40
1980.980980980981 1.091222410697052e+40
1990.9909909909911 1.0586417157302385e+40
2001.001001001001 1.0266413518923387e+40
2011.0110110110109 9.953031419180847e+39
2021.0210210210212 9.647174370335819e+39
2031.031031031031 9.349817260430404e+39
2041.0410410410411 9.061987013585078e+39
2051.051051051051 8.784737879755552e+39
2061.061061061061 8.519121867741603e+39
2071.071071071071 8.266155336750148e+39
2081.081081081081 8.02678325355415e+39
2091.091091091091 7.801843035006301e+39
2101.101101101101 7.59203016001056e+39
2111.1111111111113 7.397867795838285e+39
2121.121121121121 7.21968251314998e+39
2131.131131131131 7.057587770189896e+39
2141.141141141141 6.91147627332775e+39
2151.151151151151 6.781021640298394e+39
2161.161161161161 6.665689089591311e+39
2171.1711711711714 6.564754237178985e+39
2181.1811811811813 6.477328566277495e+39
2191.191191191191 6.402389788393834e+39
2201.201201201201 6.338815149130554e+39
2211.2112112112113 6.285415741300715e+39
2221.221221221221 6.240970044875399e+39
2231.2312312312315 6.204255181835206e+39
2241.2412412412414 6.174074713629094e+39
2251.2512512512512 6.149282179836296e+39
2261.261261261261 6.128799943234107e+39
2271.271271271271 6.111633240031545e+39
2281.2812812812813 6.096879614047304e+39
2291.2912912912916 6.083734128365228e+39
2301.3013013013015 6.071490894044681e+39
2311.3113113113113 6.05954153630408e+39
2321.321321321321 6.047371242820381e+39
2331.331331331331 6.034553017978029e+39
2341.3413413413414 6.020740713690688e+39
2351.3513513513512 6.005661333913882e+39
2361.3613613613616 5.989107026676544e+39
2371.3713713713714 5.970927092721026e+39
2381.3813813813813 5.951020259673869e+39
2391.391391391391 5.929327398931334e+39
2401.4014014014015 5.905824801171393e+39
2411.4114114114113 5.880518076229011e+39
2421.4214214214217 5.853436703634105e+39
2431.4314314314315 5.824629230425026e+39
2441.4414414414414 5.794159091595003e+39
2451.4514514514512 5.762101014270613e+39
2461.4614614614616 5.728537958056055e+39
2471.4714714714714 5.693558539626455e+39
2481.4814814814818 5.657254888505639e+39
2491.4914914914916 5.619720882094451e+39
2501.5015015015015 5.581050710678939e+39
2511.5115115115113 5.541337726763147e+39
2521.521521521521 5.500673537199546e+39
2531.5315315315315 5.45914730091082e+39
2541.541541541542 5.416845199284066e+39
2551.5515515515517 5.373850050421413e+39
2561.5615615615616 5.33024104225578e+39
2571.5715715715714 5.286093563034585e+39
2581.5815815815813 5.2414791108160185e+39
2591.5915915915916 5.1964652664115686e+39
2601.6016016016015 5.1511157166576493e+39
2611.611611611612 5.1054903170308924e+39
2621.6216216216217 5.059645184462302e+39
2631.6316316316315 5.013632812783976e+39
2641.6416416416414 4.9675022045878764e+39
2651.6516516516517 4.9212990144166326e+39
2661.6616616616616 4.875065699168514e+39
2671.671671671672 4.8288416724060886e+39
2681.6816816816818 4.782663459932713e+39
2691.6916916916916 4.736564854561977e+39
2701.7017017017015 4.690577068469663e+39
2711.711711711712 4.6447288819004354e+39
2721.7217217217217 4.5990467873151914e+39
2731.731731731732 4.553555128320697e+39
2741.741741741742 4.508276232930619e+39
2751.7517517517517 4.4632305408737735e+39
2761.7617617617616 4.418436724798939e+39
2771.7717717717715 4.373911805330857e+39
2781.781781781782 4.329671260014776e+39
2791.791791791792 4.2857291262504986e+39
2801.801801801802 4.2420980983650815e+39
2811.811811811812 4.1987896190090625e+39
2821.8218218218217 4.1558139650864754e+39
2831.8318318318316 4.1131803284460685e+39
2841.841841841842 4.070896891571851e+39
2851.851851851852 4.028970898516314e+39
2861.861861861862 3.9874087213209884e+39
2871.871871871872 3.946215922166978e+39
2881.881881881882 3.905397311493667e+39
2891.8918918918916 3.8649570023174936e+39
2901.901901901902 3.8248984609749797e+39
2911.911911911912 3.7852245545056695e+39
2921.921921921922 3.745937594881269e+39
2931.931931931932 3.7070393802777484e+39
2941.941941941942 3.668531233577263e+39
2951.9519519519517 3.630414038277012e+39
2961.961961961962 3.5926882719723754e+39
2971.971971971972 3.5553540375721896e+39
2981.9819819819822 3.5184110923947523e+39
2991.991991991992 3.481858875284264e+39
3002.002002002002 3.44569653187882e+39
3012.012012012012 3.40992293815292e+39
3022.0220220220217 3.374536722349638e+39
3032.032032032032 3.352731457458635e+39
3042.0420420420423 3.316384957084634e+39
3052.052052052052 3.27998476012143e+39
3062.062062062062 3.2436612432333805e+39
3072.072072072072 3.207524549550673e+39
3082.0820820820823 3.1716668572373466e+39
3092.092092092092 3.1361644594805315e+39
3102.102102102102 3.101079660547268e+39
3112.1121121121123 3.066462495398896e+39
3122.122122122122 3.032352282256331e+39
3132.132132132132 2.9987790186801014e+39
3142.1421421421423 2.965764632337281e+39
3152.152152152152 2.9333240978121524e+39
3162.162162162162 2.901466430690882e+39
3172.1721721721724 2.8701955698011445e+39
3182.1821821821823 2.839511157985936e+39
3192.192192192192 2.80940923119099e+39
3202.202202202202 2.7798828249889776e+39
3212.2122122122123 2.750922506982345e+39
3222.222222222222 2.722516842843459e+39
3232.232232232232 2.6946528030824333e+39
3242.2422422422424 2.667316116991124e+39
3252.252252252252 2.6404915796038693e+39
3262.262262262262 2.6141633169465444e+39
3272.2722722722724 2.5883150143174628e+39
3282.2822822822823 2.5629301118574806e+39
3292.292292292292 2.5379919712217508e+39
3302.3023023023025 2.513484016760582e+39
3312.3123123123123 2.4893898542497896e+39
3322.322322322322 2.4656933698795927e+39
3332.3323323323325 2.442378811912779e+39
3342.3423423423424 2.419430857155277e+39
3352.352352352352 2.3968346641424483e+39
3362.3623623623625 2.3745759147303323e+39
3372.3723723723724 2.3526408455898447e+39
3382.3823823823823 2.3310162709315553e+39
3392.3923923923926 2.3096895976372854e+39
3402.4024024024025 2.2886488338396997e+39
3412.4124124124123 2.267882591871446e+39
3422.4224224224226 2.247380086398859e+39
3432.4324324324325 2.2271311284608048e+39
3442.4424424424424 2.2071261160492485e+39
3452.4524524524522 2.1873560217936794e+39
3462.4624624624626 2.1678123782452894e+39
3472.4724724724724 2.148487261198107e+39
3482.4824824824823 2.1293732714319272e+39
3492.4924924924926 2.1104635152156045e+39
3502.5025025025025 2.0917515838678325e+39
3512.5125125125123 2.073231532635911e+39
3522.5225225225226 2.0548978591202112e+39
3532.5325325325325 2.036745481442939e+39
3542.5425425425424 2.0187697163338455e+39
3552.5525525525527 2.000966257282349e+39
3562.5625625625626 1.9833311528849065e+39
3572.5725725725724 1.965860785498033e+39
3582.5825825825827 1.948551850290951e+39
3592.5925925925926 1.9314013347771655e+39
3602.6026026026025 1.9144064988911783e+39
3612.612612612613 1.8975648556649084e+39
3622.6226226226227 1.8808741525479508e+39
3632.6326326326325 1.8643323534065878e+39
3642.642642642643 1.847937621228218e+39
3652.6526526526527 1.831688301550569e+39
3662.6626626626626 1.8155829066285486e+39
3672.672672672673 1.7996201003459484e+39
3682.6826826826828 1.7837986838741017e+39
3692.6926926926926 1.7681175820751826e+39
3702.7027027027025 1.7525758306439976e+39
3712.712712712713 1.737172563978729e+39
3722.7227227227227 1.7219070037682034e+39
3732.7327327327325 1.7067784482807254e+39
3742.742742742743 1.6917862623374738e+39
3752.7527527527527 1.6769298679516045e+39
3762.7627627627626 1.662208735612784e+39
3772.772772772773 1.647622376195681e+39
3782.7827827827828 1.6331703334699905e+39
3792.7927927927926 1.618852177188851e+39
3802.802802802803 1.6046674967320392e+39
3812.812812812813 1.5906158952799442e+39
3822.8228228228227 1.5766969844942022e+39
3832.832832832833 1.5629103796808342e+39
3842.842842842843 1.549255695411835e+39
3852.8528528528527 1.5357325415813807e+39
3862.862862862863 1.5223405198731535e+39
3872.872872872873 1.5090792206156763e+39
3882.8828828828828 1.4959482200030122e+39
3892.892892892893 1.4829470776587885e+39
3902.902902902903 1.470075334522016e+39
3912.912912912913 1.4573325110338793e+39
3922.922922922923 1.4447181056053244e+39
3932.932932932933 1.4322315933459953e+39
3942.942942942943 1.4198724250357572e+39
3952.9529529529527 1.407640026320837e+39
3962.962962962963 1.395533797117346e+39
3972.972972972973 1.383553111205684e+39
3982.982982982983 1.3716973160001264e+39
3992.992992992993 1.3599657324786076e+39
4003.003003003003 1.3483576552585248e+39
4013.013013013013 1.336872352805032e+39
4023.023023023023 1.3255090677591168e+39
4033.033033033033 1.3142670173734049e+39
4043.043043043043 1.3031453940443431e+39
4053.053053053053 1.29214336593011e+39
4063.063063063063 1.2812600776442202e+39
4073.073073073073 1.2704946510154622e+39
4083.0830830830832 1.2598461859053966e+39
4093.093093093093 1.2493137610752413e+39
4103.103103103103 1.2388964350945392e+39
4113.113113113113 1.2285932472845435e+39
4123.123123123123 1.2184032186897706e+39
4133.133133133133 1.2083253530716838e+39
4143.143143143143 1.1983586379189307e+39
4153.153153153153 1.1885020454690042e+39
4163.163163163163 1.1787545337366338e+39
4173.173173173173 1.1691150475446158e+39
4183.183183183183 1.159582519553173e+39
4193.193193193193 1.1501558712842841e+39
4203.203203203203 1.1408340141377828e+39
4213.213213213214 1.1316158503963437e+39
4223.223223223224 1.1225002742167431e+39
4233.2332332332335 1.1134861726051055e+39
4243.243243243243 1.1045724263740846e+39
4253.253253253253 1.0957579110801755e+39
4263.263263263263 1.0870414979395958e+39
4273.273273273273 1.0784220547213684e+39
4283.283283283283 1.069898446616448e+39
4293.293293293293 1.0614695370819213e+39
4303.303303303303 1.0531341886594611e+39
4313.313313313313 1.0448912637673918e+39
4323.323323323323 1.0367396254658495e+39
4333.333333333334 1.028678138194664e+39
4343.343343343344 1.0207056684837125e+39
4353.353353353354 1.0128210856355807e+39
4363.3633633633635 1.0050232623805098e+39
4373.373373373373 9.9731107550365e+38
4383.383383383383 9.896834064447688e+38
4393.393393393393 9.821391418706038e+38
4403.403403403403 9.746771742201304e+38
4413.413413413413 9.672964022230703e+38
4423.423423423424 9.599957313920325e+38
4433.4334334334335 9.527740744886965e+38
4443.443443443443 9.4563035196452e+38
4453.453453453454 9.385634923764638e+38
4463.463463463464 9.315724327782897e+38
4473.473473473474 9.246561190879497e+38
4483.483483483484 9.178135064317057e+38
4493.493493493494 9.110435594655262e+38
4503.503503503503 9.043452526744176e+38
4513.513513513513 8.977175706502901e+38
4523.523523523523 8.91159508349e+38
4533.533533533533 8.846700713272248e+38
4543.543543543543 8.78248275959786e+38
4553.553553553554 8.718931496380931e+38
4563.563563563564 8.656037309503365e+38
4573.573573573573 8.593790698440729e+38
4583.583583583584 8.532182277718473e+38
4593.593593593594 8.47120277820476e+38
4603.603603603604 8.410843048246146e+38
4613.613613613614 8.351094054652332e+38
4623.623623623624 8.291946883535952e+38
4633.6336336336335 8.233392741013467e+38
4643.643643643643 8.17542295377296e+38
4653.653653653653 8.118028969514531e+38
4663.663663663663 8.061202357269017e+38
4673.673673673674 8.004934807600403e+38
4683.683683683684 7.949218132697416e+38
4693.693693693694 7.894044266359389e+38
4703.703703703704 7.839405263881582e+38
4713.713713713714 7.785293301844927e+38
4723.723723723724 7.731700677814937e+38
4733.733733733734 7.678619809954468e+38
4743.743743743744 7.626043236555017e+38
4753.753753753754 7.57396361549071e+38
4763.763763763764 7.52237372359952e+38
4773.773773773773 7.471266455995529e+38
4783.783783783783 7.420634825316614e+38
4793.793793793793 7.370471960911011e+38
4803.803803803804 7.320771107966776e+38
4813.813813813814 7.271525626587628e+38
4823.823823823824 7.222728990818606e+38
4833.833833833834 7.174374787624959e+38
4843.843843843844 7.126456715827484e+38
4853.853853853854 7.078968584997299e+38
4863.863863863864 7.031904314313207e+38
4873.873873873874 6.985257931384348e+38
4883.883883883884 6.939023571041032e+38
4893.893893893894 6.893195474096277e+38
4903.9039039039035 6.847767986080687e+38
4913.913913913913 6.802735555953019e+38
4923.923923923924 6.7580927347888295e+38
4933.933933933934 6.713834174449442e+38
4943.943943943944 6.66995462623326e+38
4953.953953953955 6.6264489395116435e+38
4963.9639639639645 6.583312060351173e+38
4973.973973973974 6.540539030124182e+38
4983.983983983984 6.498124984109432e+38
4993.993993993994 6.456065150084515e+38
5004.004004004004 6.4143548469116726e+38
5014.014014014014 6.372989483118585e+38
5024.024024024024 6.331964555475537e+38
5034.0340340340335 6.291275647570465e+38
5044.044044044043 6.2509184283830994e+38
5054.054054054054 6.210888650859561e+38
5064.064064064064 6.171182150488574e+38
5074.074074074074 6.1317948438804245e+38
5084.084084084085 6.092722727349757e+38
5094.0940940940945 6.053961875503261e+38
5104.104104104104 6.015508439833141e+38
5114.114114114114 5.977358647317353e+38
5124.124124124124 5.939508799027436e+38
5134.134134134134 5.9019552687447506e+38
5144.144144144144 5.8646945015859e+38
5154.154154154154 5.827723012638028e+38
5164.1641641641645 5.791037385604712e+38
5174.174174174174 5.754634271463034e+38
5184.184184184184 5.7185103871324445e+38
5194.194194194194 5.682662514155963e+38
5204.204204204204 5.647087497394258e+38
5214.214214214214 5.6117822437330225e+38
5224.224224224225 5.576743720804151e+38
5234.2342342342345 5.541968955721093e+38
5244.244244244244 5.507455033828761e+38
5254.254254254254 5.473199097468364e+38
5264.264264264264 5.439198344757434e+38
5274.274274274274 5.4054500283854215e+38
5284.284284284285 5.37195145442501e+38
5294.294294294295 5.338699981159487e+38
5304.304304304304 5.305693017926314e+38
5314.314314314314 5.272928023977124e+38
5324.324324324324 5.240402507354284e+38
5334.334334334334 5.208114023784199e+38
5344.344344344345 5.1760601755874204e+38
5354.354354354355 5.1442386106057655e+38
5364.3643643643645 5.1126470211463855e+38
5374.374374374374 5.081283142943002e+38
5384.384384384384 5.050144754134245e+38
5394.394394394394 5.019229674259178e+38
5404.404404404404 4.988535763270019e+38
5414.414414414415 4.95806092056205e+38
5424.424424424425 4.927803084020717e+38
5434.4344344344345 4.8977602290858675e+38
5444.444444444444 4.867930367833111e+38
5454.454454454454 4.8383115480722544e+38
5464.464464464464 4.8089018524627226e+38
5474.474474474475 4.779699397645907e+38
5484.484484484485 4.7507023333943695e+38
5494.494494494495 4.721908841777768e+38
5504.504504504504 4.693317136345458e+38
5514.514514514514 4.664925461325589e+38
5524.524524524524 4.636732090840651e+38
5534.534534534535 4.608735328139272e+38
5544.544544544545 4.580933504844177e+38
5554.554554554555 4.553324980216139e+38
5564.5645645645645 4.525908140433796e+38
5574.574574574574 4.498681397889159e+38
5584.584584584584 4.471643190498668e+38
5594.594594594595 4.444791981029583e+38
5604.604604604605 4.418126256441651e+38
5614.614614614615 4.391644527243704e+38
5624.624624624625 4.3653453268651685e+38
5634.6346346346345 4.339227211042224e+38
5644.644644644644 4.3132887572184085e+38
5654.654654654654 4.2875285639595456e+38
5664.664664664665 4.261945250382718e+38
5674.674674674675 4.2365374555992e+38
5684.684684684685 4.2113038381710084e+38
5694.694694694695 4.186243075581012e+38
5704.704704704704 4.161353863716305e+38
5714.714714714714 4.13663491636468e+38
5724.724724724725 4.112084964723977e+38
5734.734734734735 4.0877027569241285e+38
5744.744744744745 4.063487057561663e+38
5754.754754754755 4.039436647246462e+38
5764.764764764765 4.015550322160606e+38
5774.774774774774 3.991826893629034e+38
5784.784784784785 3.968265187701857e+38
5794.794794794795 3.944864044748102e+38
5804.804804804805 3.921622319060667e+38
5814.814814814815 3.8985388784722955e+38
5824.824824824825 3.875612603982357e+38
5834.8348348348345 3.852842389394208e+38
5844.844844844845 3.830227140962982e+38
5854.854854854855 3.807765777053522e+38
5864.864864864865 3.785457227808315e+38
5874.874874874875 3.763300434825215e+38
5884.884884884885 3.7412943508447185e+38
5894.894894894895 3.7194379394466284e+38
5904.9049049049045 3.697730174755903e+38
