#lamb flux
1000.0 0.04869751209940069
1010.01001001001 0.04965139415367801
1020.0200200200201 0.05051067953149966
1030.03003003003 0.05127908717750699
1040.0400400400401 0.05196068703243567
1050.05005005005 0.05255979899036595
1060.06006006006 0.05308090487287983
1070.07007007007 0.05352857278043861
1080.08008008008 0.05390739298598571
1090.0900900900901 0.05422192441677129
1100.1001001001 0.05447665071140154
1110.11011011011 0.05467594482601013
1120.1201201201202 0.0548240411842835
1130.13013013013 0.05492501441098811
1140.1401401401401 0.054982763749662995
1150.1501501501502 0.05500100233596431
1160.16016016016 0.05498325057390136
1170.1701701701702 0.0549328329392314
1180.1801801801803 0.05485287760991013
1190.1901901901902 0.05474631839585281
1200.2002002002002 0.05461589850812144
1210.2102102102103 0.05446417577026334
1220.2202202202202 0.05429352893152343
1230.2302302302303 0.054106164792945194
1240.2402402402402 0.05390412590307197
1250.2502502502502 0.053686800297060154
1260.2602602602603 0.05344857261637147
1270.2702702702702 0.05317802097585852
1280.2802802802803 0.05287758558938836
1290.2902902902902 0.05254960161780103
1300.3003003003003 0.052196297861534915
1310.3103103103103 0.051819796410945834
1320.3203203203202 0.051422113112315246
1330.3303303303303 0.05100515872175968
1340.3403403403404 0.050570740632666804
1350.3503503503503 0.050120565074833645
1360.3603603603603 0.049656239695124775
1370.3703703703704 0.04917927644019255
1380.3803803803803 0.04869109467161779
1390.3903903903904 0.04819302445276348
1400.4004004004005 0.04768630995471915
1410.4104104104103 0.04717211293599738
1420.4204204204204 0.046651516257172496
1430.4304304304305 0.04612552739747764
1440.4404404404404 0.045595081945555345
1450.4504504504505 0.04506104704113648
1460.4604604604606 0.044524224748461516
1470.4704704704704 0.04398535534579916
1480.4804804804805 0.04344512051851555
1490.4904904904906 0.04290414644584139
1500.5005005005005 0.042363006773820204
1510.5105105105106 0.041822225468938705
1520.5205205205207 0.04128227954867284
1530.5305305305305 0.0407436016866686
1540.5405405405404 0.04020658269154404
1550.5505505505505 0.03967157385937976
1560.5605605605606 0.03913888920088145
1570.5705705705705 0.03860880754498364
1580.5805805805805 0.038081574521332325
1590.5905905905906 0.03755740442466706
1600.6006006006005 0.03703648196463582
1610.6106106106106 0.0365189639050437
1620.6206206206207 0.03600498059697718
1630.6306306306305 0.035494637410684676
1640.6406406406406 0.034988016071547626
1650.6506506506507 0.03448517590597727
1660.6606606606606 0.033986155003632876
1670.6706706706707 0.033490971303020554
1680.6806806806808 0.03299962360831388
1690.6906906906906 0.032512092546184215
1700.7007007007007 0.03202841844769441
1710.7107107107108 0.03154885197285494
1720.7207207207207 0.031073279168130994
1730.7307307307308 0.03060153619151675
1740.7407407407409 0.030133453481258135
1750.7507507507507 0.029668856010395577
1760.7607607607606 0.029207563635225347
1770.770770770771 0.028749391562943778
1780.7807807807808 0.028294150968467317
1790.7907907907907 0.02784164979582377
1800.8008008008007 0.027391693785595986
1810.8108108108108 0.02694408777663743
1820.8208208208207 0.026498637337573114
1830.8308308308308 0.026055150791259706
1840.8408408408409 0.025613441703078398
1850.8508508508507 0.025173331911169026
1860.8608608608608 0.02473465518273666
1870.870870870871 0.02429726158431694
1880.8808808808808 0.02386102265393887
1890.890890890891 0.023425837457588413
1900.900900900901 0.02299163959887193
1910.9109109109108 0.022558405226407886
1920.920920920921 0.022126162044911125
1930.930930930931 0.021694999279577954
1940.940940940941 0.02126507846574812
1950.950950950951 0.02083664483411198
1960.960960960961 0.020410038934714474
1970.970970970971 0.019985707992170545
1980.980980980981 0.019564216315461437
1990.9909909909911 0.01914625390964068
2001.001001001001 0.018732642271797467
2011.0110110110109 0.018324336225138405
2021.0210210210212 0.01792242058508197
2031.031031031031 0.017528100495692985
2041.0410410410411 0.017142684458202315
2051.051051051051 0.01676755942153425
2061.061061061061 0.016404157825580114
2071.071071071071 0.01605391716257704
2081.081081081081 0.015718233398858965
2091.091091091091 0.01539841039413485
2101.101101101101 0.01509560815914714
2111.1111111111113 0.014810793287441249
2121.121121121121 0.014544695079507761
2131.131131131131 0.014297770682102704
2141.141141141141 0.014070181982926956
2151.151151151151 0.013861786085799025
2161.161161161161 0.013672140055939287
2171.1711711711714 0.01350051941821835
2181.1811811811813 0.013345948771498157
2191.191191191191 0.0132072419876263
2201.201201201201 0.013083048889005367
2211.2112112112113 0.012971905083098246
2221.221221221221 0.012872281759333089
2231.2312312312315 0.012782632662215356
2241.2412412412414 0.01270143605465777
2251.2512512512512 0.012627230179121582
2261.261261261261 0.012558641420093487
2271.271271271271 0.012494404997737876
2281.2812812812813 0.012433378532069208
2291.2912912912916 0.01237454918755287
2301.3013013013015 0.012317035338921466
2311.3113113113113 0.012260083804970815
2321.321321321321 0.01220306370210734
2331.331331331331 0.012145457900836319
2341.3413413413414 0.012086852952721416
2351.3513513513512 0.01202692821548799
2361.3613613613616 0.011965444757806379
2371.3713713713714 0.011902234485591605
2381.3813813813813 0.011837189806390121
2391.391391391391 0.01177025404172581
2401.4014014014015 0.011701412710393313
2411.4114114114113 0.011630685737899358
2421.4214214214217 0.011558120596657043
2431.4314314314315 0.011483786345639294
2441.4414414414414 0.011407768514337129
2451.4514514514512 0.01133016476149682
2461.4614614614616 0.011251081231943728
2471.4714714714714 0.011170629532897285
2481.4814814814818 0.011088924252950166
2491.4914914914916 0.011006080951070255
2501.5015015015015 0.010922214548626257
2511.5115115115113 0.010837438063825932
2521.521521521521 0.01075186163458234
2531.5315315315315 0.010665591782340026
2541.541541541542 0.010578730875574406
2551.5515515515517 0.010491376757388985
2561.5615615615616 0.010403622506808331
2571.5715715715714 0.010315556307977482
2581.5815815815813 0.010227261405539229
2591.5915915915916 0.010138816127998572
2601.6016016016015 0.010050293963938134
2611.611611611612 0.009961763678565766
2621.6216216216217 0.009873289460303603
2631.6316316316315 0.009784931089012463
2641.6416416416414 0.00969674411903223
2651.6516516516517 0.009608780071546833
2661.6616616616616 0.009521086631889645
2671.671671671672 0.00943370784832349
2681.6816816816818 0.00934668432958798
2691.6916916916916 0.0092600534391303
2701.7017017017015 0.009173849484445972
2711.711711711712 0.009088103900371233
2721.7217217217217 0.009002845425505036
2731.731731731732 0.00891810027120899
2741.741741741742 0.00883389228284985
2751.7517517517517 0.008750243093120079
2761.7617617617616 0.00866717226740652
2771.7717717717715 0.008584697441280991
2781.781781781782 0.008502834450266018
2791.791791791792 0.008421597452088246
2801.801801801802 0.008340999041674858
2811.811811811812 0.008261050359178483
2821.8218218218217 0.008181761191335608
2831.8318318318316 0.008103140066474434
2841.841841841842 0.008025194343493225
2851.851851851852 0.007947930295129475
2861.861861861862 0.007871353185836039
2871.871871871872 0.007795467344573195
2881.881881881882 0.007720276232816064
2891.8918918918916 0.007645782508065931
2901.901901901902 0.0075719880831419135
2911.911911911912 0.007498894181516802
2921.921921921922 0.0074265013889477805
2931.931931931932 0.007354809701639744
2941.941941941942 0.0072838185711657085
2951.9519519519517 0.0072135269463561805
2961.961961961962 0.007143933312356802
2971.971971971972 0.007075035727041519
2981.9819819819822 0.007006831854957078
2991.991991991992 0.006939318998963457
3002.002002002002 0.006872494129724459
3012.012012012012 0.0068063539131926285
3022.0220220220217 0.006740894736223235
3032.032032032032 0.006692097887364366
3042.0420420420423 0.0066259051405891485
3052.052052052052 0.006559849158853342
3062.062062062062 0.006494084725868364
3072.072072072072 0.00642874266011238
3082.0820820820823 0.006363932497042517
3092.092092092092 0.006299744934651485
3102.102102102102 0.006236254054621897
3112.1121121121123 0.006173519332621584
3122.122122122122 0.006111587451959326
3132.132132132132 0.006050493935029403
3142.1421421421423 0.00599026460683227
3152.152152152152 0.005930916904463156
3162.162162162162 0.005872461045886073
3172.1721721721724 0.005814901070617123
3182.1821821821823 0.005758235764174558
3192.192192192192 0.005702459477349502
3202.202202202202 0.00564756285053742
3212.2122122122123 0.005593533452566055
3222.222222222222 0.0055403563426751614
3232.232232232232 0.005488014563556759
3242.2422422422424 0.00543648957265843
3252.252252252252 0.005385761618289855
3262.262262262262 0.005335810066456742
3272.2722722722724 0.005286613683776425
3282.2822822822823 0.00523815088130515
3292.292292292292 0.005190399923626846
3302.3023023023025 0.005143339107114967
3312.3123123123123 0.005096946910880366
3322.322322322322 0.005051202123556574
3332.3323323323325 0.005006083948746418
3342.3423423423424 0.004961572091658488
3352.352352352352 0.004917646829195117
3362.3623623623625 0.0048742890655137485
3372.3723723723724 0.004831480374867505
3382.3823823823823 0.004789203033336736
3392.3923923923926 0.0047474400408895005
3402.4024024024025 0.004706175135052348
3412.4124124124123 0.004665392797332942
3422.4224224224226 0.004625078253410488
3432.4324324324325 0.004585217467997413
3442.4424424424424 0.0045457971351749804
3452.4524524524522 0.004506804664915366
3462.4624624624626 0.004468228166421805
3472.4724724724724 0.004430056428846153
3482.4824824824823 0.004392278899878252
3492.4924924924926 0.004354885662643633
3502.5025025025025 0.004317867411293909
3512.5125125125123 0.004281215425627834
3522.5225225225226 0.004244921545039223
3532.5325325325325 0.00420897814205062
3542.5425425425424 0.004173378095658202
3552.5525525525527 0.004138114764683471
3562.5625625625626 0.004103181961300546
3572.5725725725724 0.004068573924883849
3582.5825825825827 0.004034285296299691
3592.5925925925926 0.004000311092746007
3602.6026026026025 0.003966646683227536
3612.612612612613 0.003933287764738396
3622.6226226226227 0.003900230339210571
3632.6326326326325 0.0038674706912746456
3642.642642642643 0.0038350053668685636
3652.6526526526527 0.0038028311527205285
3662.6626626626626 0.0037709450567239445
3672.672672672673 0.003739344289214843
3682.6826826826828 0.003708026245155761
3692.6926926926926 0.003676988487224369
3702.7027027027025 0.0036462287298002238
3712.712712712713 0.0036157448238387487
3722.7227227227227 0.0035855347426178887
3732.7327327327325 0.0035555965683396495
3742.742742742743 0.0035259284795662693
3752.7527527527527 0.0034965287394683755
3762.7627627627626 0.003467395684860765
3772.772772772773 0.003438527715999963
3782.7827827827828 0.0034099232871165485
3792.7927927927926 0.0033815808976543865
3802.802802802803 0.003353499084188297
3812.812812812813 0.0033256764129912775
3822.8228228228227 0.003298111473222239
3832.832832832833 0.0032708028707051956
3842.842842842843 0.0032437492222709466
3852.8528528528527 0.0032169491506326446
3862.862862862863 0.003190401279766957
3872.872872872873 0.003164104230773094
3882.8828828828828 0.0031380566181824477
3892.892892892893 0.0031122570466924596
3902.902902902903 0.0030867041082987432
3912.912912912913 0.0030613963798005366
3922.922922922923 0.003036332420655199
3932.932932932933 0.0030115107711584017
3942.942942942943 0.0029869299509274186
3952.9529529529527 0.0029625884576659207
3962.962962962963 0.002938484766189523
3972.972972972973 0.002914617327692157
3982.982982982983 0.0028909845692343676
3992.992992992993 0.0028675848934353945
4003.003003003003 0.002844416678351916
4013.013013013013 0.0028214782775270227
4023.023023023023 0.0027987680201940223
4033.033033033033 0.002776284211620402
4043.043043043043 0.002754025133578107
4053.053053053053 0.002731989044927124
4063.063063063063 0.002710174182300083
4073.073073073073 0.0026885787608763754
4083.0830830830832 0.002667200975234969
4093.093093093093 0.0026460390002758334
4103.103103103103 0.002625090992200525
4113.113113113113 0.002604355089543156
4123.123123123123 0.0025838294142435272
4133.133133133133 0.0025635120727548776
4143.143143143143 0.002543401157179187
4153.153153153153 0.0025234947464235474
4163.163163163163 0.0025037909073715985
4173.173173173173 0.0024842876960645393
4183.183183183183 0.0024649831588866547
4193.193193193193 0.0024458753337507364
4203.203203203203 0.0024269622512792027
4213.213213213214 0.0024082419359770985
4223.223223223224 0.0023897124073935035
4233.2332332332335 0.0023713716812682442
4243.243243243243 0.0023532177706611242
4253.253253253253 0.002335248687061165
4263.263263263263 0.0023174624414736716
4273.273273273273 0.002299857045483151
4283.283283283283 0.0022824305122904004
4293.293293293293 0.002265180857722306
4303.303303303303 0.002248106101213058
4313.313313313313 0.002231204266755773
4323.323323323323 0.002214473383823598
4333.333333333334 0.0021979114882596236
4343.343343343344 0.0021815166231350398
4353.353353353354 0.0021652868395751384
4363.3633633633635 0.0021492201975528637
4373.373373373373 0.002133314766649787
4383.383383383383 0.002117568626784442
4393.393393393393 0.002101979868908076
4403.403403403403 0.002086546595667986
4413.413413413413 0.002071266922038631
4423.423423423424 0.0020561389759208774
4433.4334334334335 0.002041160898709702
4443.443443443443 0.0020263308458308127
4453.453453453454 0.0020116469872466626
4463.463463463464 0.0019971075079324046
4473.473473473474 0.0019827106083223156
4483.483483483484 0.0019684545047273694
4493.493493493494 0.0019543374297245337
4503.503503503503 0.0019403576325185015
4513.513513513513 0.0019265133792765253
4523.523523523523 0.0019128029534370566
4533.533533533533 0.0018992246559929522
4543.543543543543 0.0018857768057499184
4553.553553553554 0.0018724577395609866
4563.563563563564 0.0018592658125377553
4573.573573573573 0.0018461993982391268
4583.583583583584 0.001833256888838318
4593.593593593594 0.0018204366952688864
4603.603603603604 0.0018077372473504997
4613.613613613614 0.0017951569938952287
4623.623623623624 0.0017826944027950515
4633.6336336336335 0.0017703479610913363
4643.643643643643 0.0017581161750270012
4653.653653653653 0.0017459975700820543
4663.663663663663 0.0017339906909932237
4673.673673673674 0.0017220941017583524
4683.683683683684 0.0017103063856262351
4693.693693693694 0.0016986261450725457
4703.703703703704 0.0016870520017625067
4713.713713713714 0.0016755825965009377
4723.723723723724 0.0016642165891702708
4733.733733733734 0.0016529526586571612
4743.743743743744 0.0016417895027682674
4753.753753753754 0.0016307258381357548
4763.763763763764 0.0016197604001131033
4773.773773773773 0.0016088919426617244
4783.783783783783 0.0015981192382289464
4793.793793793793 0.0015874410776178345
4803.803803803804 0.0015768562698493607
4813.813813813814 0.0015663636420173996
4823.823823823824 0.0015559620391369909
4833.833833833834 0.001545650323986328
4843.843843843844 0.001535427376942902
4853.853853853854 0.0015252920958142046
4863.863863863864 0.001515243395663399
4873.873873873874 0.0015052802086303395
4883.883883883884 0.0014954014837483143
4893.893893893894 0.0014856061867568663
4903.9039039039035 0.0014758932999110375
4913.913913913913 0.0014662618217873614
4923.923923923924 0.0014567107670869293
4933.933933933934 0.0014472391664358388
4943.943943943944 0.0014378460661832887
4953.953953953955 0.0014285305281976463
4963.9639639639645 0.0014192916296607175
4973.973973973974 0.001410128462860483
4983.983983983984 0.001401040134982572
4993.993993993994 0.0013920257679006728
5004.004004004004 0.001383084497966128
5014.014014014014 0.001374215475796924
5024.024024024024 0.0013654178660662654
5034.0340340340335 0.001356690847290957
5044.044044044043 0.001348033611619745
5054.054054054054 0.001339445364621819
5064.064064064064 0.00133092532507563
5074.074074074074 0.0013224727247581817
5084.084084084085 0.0013140868082349567
5094.0940940940945 0.0013057668326506096
5104.104104104104 0.0012975120675205616
5114.114114114114 0.001289321794523632
5124.124124124124 0.00128119530729582
5134.134134134134 0.0012731319112253548
5144.144144144144 0.0012651309232491125
5154.154154154154 0.001257191671650511
5164.1641641641645 0.0012493134958589682
5174.174174174174 0.0012414957462510174
5184.184184184184 0.001233737783953154
5194.194194194194 0.001226038980646498
5204.204204204204 0.0012183987183733466
5214.214214214214 0.0012108163893456653
5224.224224224225 0.0012032913957556021
5234.2342342342345 0.0011958231495880663
5244.244244244244 0.0011884110724354215
5254.254254254254 0.0011810545953143592
5264.264264264264 0.0011737531584849695
5274.274274274274 0.0011665062112720755
5284.284284284285 0.0011593132118888447
5294.294294294295 0.0011521736272627253
5304.304304304304 0.001145086932863721
5314.314314314314 0.0011380526125350484
5324.324324324324 0.001131070158326175
5334.334334334334 0.001124139070328282
5344.344344344345 0.001117258856512141
5354.354354354355 0.001110429032568447
5364.3643643643645 0.0011036491217505848
5374.374374374374 0.001096918654719869
5384.384384384384 0.0010902371693932373
5394.394394394394 0.0010836042107934146
5404.404404404404 0.0010770193309015438
5414.414414414415 0.0010704820885122797
5424.424424424425 0.001063992049091351
5434.4344344344345 0.0010575487846355698
5444.444444444444 0.0010511518735352979
5454.454454454454 0.0010448009004393533
5464.464464464464 0.0010384954561223436
5474.474474474475 0.0010322351373544215
5484.484484484485 0.0010260195467734418
5494.494494494495 0.0010198482927595114
5504.504504504504 0.0010137209893119118
5514.514514514514 0.0010076372559283783
5524.524524524524 0.0010015967174867213
5534.534534534535 0.0009955990041287603
5544.544544544545 0.0009896437511465635
5554.554554554555 0.0009837305988709588
5564.5645645645645 0.0009778591925623033
5574.574574574574 0.0009720291823034861
5584.584584584584 0.0009662402228951358
5594.594594594595 0.0009604919737530123
5604.604604604605 0.0009547840988075668
5614.614614614615 0.000949116266405617
5624.624624624625 0.0009434881492141471
5634.6346346346345 0.0009378994241261803
5644.644644644644 0.000932349772168704
5654.654654654654 0.0009268388784126254
5664.664664664665 0.0009213664318847176
5674.674674674675 0.0009159321254815473
5684.684684684685 0.0009105356558853331
5694.694694694695 0.0009051767234817222
5704.704704704704 0.0008998550322794509
5714.714714714714 0.0008945702898318594
5724.724724724725 0.0008893222071602326
5734.734734734735 0.000884110498678938
5744.744744744745 0.0008789348821223322
5754.754754754755 0.000873795078473401
5764.764764764765 0.000868690811894114
5774.774774774774 0.0008636218096574558
5784.784784784785 0.0008585878020811055
5794.794794794795 0.0008535885224627416
5804.804804804805 0.0008486237070169319
5814.814814814815 0.0008436930948135912
5824.824824824825 0.0008387964277179692
5834.8348348348345 0.0008339334503321438
5844.844844844845 0.0008291039099379929
5854.854854854855 0.0008243075564416064
5864.864864864865 0.0008195441423191232
5874.874874874875 0.0008148134225639575
5884.884884884885 0.0008101151546353853
5894.894894894895 0.0008054490984084681
5904.9049049049045 0.0008008150161252835
5914.914914914915 0.0007962126723474349
5924.924924924925 0.0007916418339098183
5934.934934934935 0.0007871022698756054
5944.944944944945 0.0007825937514924426
5954.954954954955 0.0007781160521498072
5964.964964964965 0.0007736689473375233
5974.974974974975 0.000769252214605395
5984.984984984985 0.0007648656335239373
5994.994994994995 0.0007605089856461805
6005.005005005005 0.0007561820544705199
6015.015015015015 0.0007518846254045909
6025.025025025025 0.0007476164857301446
6035.035035035035 0.0007433774245688929
6045.045045045045 0.0007391672328493157
