#lamb flux
1000.0 0.005537475052100429
1010.01001001001 0.006140974525010883
1020.0200200200201 0.006793118578005197
1030.03003003003 0.007496205256510905
1040.0400400400401 0.008252523214632646
1050.05005005005 0.009064344478204698
1060.06006006006 0.009933917277902422
1070.07007007007 0.010863458990787438
1080.08008008008 0.011855149226411748
1090.0900900900901 0.012911123091173107
1100.1001001001 0.014033464662045246
1110.11011011011 0.015224200698131105
1120.1201201201202 0.016485294615743613
1130.13013013013 0.017818640749937588
1140.1401401401401 0.019226058922625973
1150.1501501501502 0.02070928933464104
1160.16016016016 0.022269987796373205
1170.1701701701702 0.023909721308950374
1180.1801801801803 0.025629964005338797
1190.1901901901902 0.02743209345825482
1200.2002002002002 0.0293173873594031
1210.2102102102103 0.0312870205722983
1220.2202202202202 0.03334206255880412
1230.2302302302303 0.03548347517753535
1240.2402402402402 0.0377121108504194
1250.2502502502502 0.040028709094852115
1260.2602602602603 0.04243389275665177
1270.2702702702702 0.04492816512432559
1280.2802802802803 0.047511926607490595
1290.2902902902902 0.05018546416389036
1300.3003003003003 0.05294895151871385
1310.3103103103103 0.05580244968700241
1320.3203203203202 0.05874590778577082
1330.3303303303303 0.06177916412187109
1340.3403403403404 0.06490194754114592
1350.3503503503503 0.0681138790240478
1360.3603603603603 0.0714144735126347
1370.3703703703704 0.07480314195368368
1380.3803803803803 0.07827919354258776
1390.3903903903904 0.0818418381527086
1400.4004004004005 0.08549018893493504
1410.4104104104103 0.0892232650723588
1420.4204204204204 0.09303999467519
1430.4304304304305 0.09693921780130713
1440.4404404404404 0.10091968958816486
1450.4504504504505 0.10498008348214773
1460.4604604604606 0.10911899455186636
1470.4704704704704 0.11333494287233241
1480.4804804804805 0.11762637696742088
1490.4904904904906 0.12199167729851458
1500.5005005005005 0.12642915978773994
1510.5105105105106 0.13093707936473412
1520.5205205205207 0.13551363352640486
1530.5305305305305 0.1401569658997067
1540.5405405405404 0.14486516979798483
1550.5505505505505 0.14963629176200358
1560.5605605605606 0.15446833507730298
1570.5705705705705 0.1593592632600867
1580.5805805805805 0.16430700350436087
1590.5905905905906 0.16930945008358225
1600.6006006006005 0.17436446770057884
1610.6106106106106 0.17946989478001923
1620.6206206206207 0.18462354669818182
1630.6306306306305 0.18982321894526885
1640.6406406406406 0.19506669021596
1650.6506506506507 0.2003517254243439
1660.6606606606606 0.20567607863981113
1670.6706706706707 0.21103749594089055
1680.6806806806808 0.21643371818442314
1690.6906906906906 0.22186248368784736
1700.7007007007007 0.2273215314085171
1710.7107107107108 0.23280860474822107
1720.7207207207207 0.2383214495902994
1730.7307307307308 0.2438578187703957
1740.7407407407409 0.24941547462670693
1750.7507507507507 0.2549921911356355
1760.7607607607606 0.2605857559548784
1770.770770770771 0.2661939723745067
1780.7807807807808 0.2718146611769301
1790.7907907907907 0.2774456624070326
1800.8008008008007 0.283084837054158
1810.8108108108108 0.2887300686480506
1820.8208208208207 0.29437926477136667
1830.8308308308308 0.3000303584918683
1840.8408408408409 0.3056813097180326
1850.8508508508507 0.3113301064824648
1860.8608608608608 0.3169747661582255
1870.870870870871 0.32261333661400254
1880.8808808808808 0.32824389731489984
1890.890890890891 0.33386456037649326
1900.900900900901 0.3394734715806755
1910.9109109109108 0.3450688113625662
1920.920920920921 0.350648795778289
1930.930930930931 0.35621167746361404
1940.940940940941 0.36175574659303017
1950.950950950951 0.3672793318475381
1960.960960960961 0.3727808013970244
1970.970970970971 0.3782585638991095
1980.980980980981 0.38371106951058465
1990.9909909909911 0.38913681089963686
2001.001001001001 0.3945343242370171
2011.0110110110109 0.39990219013231526
2021.0210210210212 0.4052390344682482
2031.031031031031 0.41054352907267283
2041.0410410410411 0.41581439215669497
2051.051051051051 0.4210503884404305
2061.061061061061 0.42625032888840536
2071.071071071071 0.43141306998716306
2081.081081081081 0.43653751252032097
2091.091091091091 0.4416225998314979
2101.101101101101 0.44666731561132544
2111.1111111111113 0.45167068129658405
2121.121121121121 0.4566317532201409
2131.131131131131 0.4615496196914264
2141.141141141141 0.46642339821016326
2151.151151151151 0.4712522330149466
2161.161161161161 0.4760352931409971
2171.1711711711714 0.48077177111088076
2181.1811811811813 0.4854608823156661
2191.191191191191 0.4901018650724815
2201.201201201201 0.49469398127880543
2211.2112112112113 0.4992365175334411
2221.221221221221 0.5037287865646052
2231.2312312312315 0.5081701287983432
2241.2412412412414 0.5125599139128337
2251.2512512512512 0.5168975422508617
2261.261261261261 0.5211824459974301
2271.271271271271 0.5254140900659405
2281.2812812812813 0.5295919726699476
2291.2912912912916 0.5337156255849265
2301.3013013013015 0.5377846141245729
2311.3113113113113 0.5417985368687731
2321.321321321321 0.5457570251865079
2331.331331331331 0.5496597425979965
2341.3413413413414 0.5535063840178347
2351.3513513513512 0.5572966749161259
2361.3613613613616 0.561030370428781
2371.3713713713714 0.5647072544421072
2381.3813813813813 0.5683271386710672
2391.391391391391 0.5718898617455074
2401.4014014014015 0.5753952883143517
2411.4114114114113 0.5788433081742939
2421.4214214214217 0.582233835426812
2431.4314314314315 0.5855668076652947
2441.4414414414414 0.5888421851926275
2451.4514514514512 0.5920599502685653
2461.4614614614616 0.59522010638559
2471.4714714714714 0.5983226775715649
2481.4814814814818 0.6013677077173306
2491.4914914914916 0.6043552599273377
2501.5015015015015 0.6072854158914679
2511.5115115115113 0.6101582752763172
2521.521521521521 0.6129739551343394
2531.5315315315315 0.6157325893294305
2541.541541541542 0.6184343279776864
2551.5515515515517 0.6210793369022355
2561.5615615615616 0.6236677971011733
2571.5715715715714 0.6261999042278044
2581.5815815815813 0.6286758680824699
2591.5915915915916 0.6310959121153843
2601.6016016016015 0.6334602729399794
2611.611611611612 0.6357691998563371
2621.6216216216217 0.6380229543843615
2631.6316316316315 0.6402218098064024
2641.6416416416414 0.6423660507190759
2651.6516516516517 0.644455972594094
2661.6616616616616 0.6464918813479131
2671.671671671672 0.6484740929200699
2681.6816816816818 0.6504029328600699
2691.6916916916916 0.6522787359227287
2701.7017017017015 0.6541018456718648
2711.711711711712 0.6558726140922604
2721.7217217217217 0.657591401209813
2731.731731731732 0.6592585747198056
2741.741741741742 0.6608745096232225
2751.7517517517517 0.6624395878710412
2761.7617617617616 0.6639541980164463
2771.7717717717715 0.6654187348748799
2781.781781781782 0.6668335991918736
2791.791791791792 0.6681991973185915
2801.801801801802 0.669515940895006
2811.811811811812 0.670784246540647
2821.8218218218217 0.6720045355528338
2831.8318318318316 0.6731772336123292
2841.841841841842 0.6743027704963197
2851.851851851852 0.6753815797986541
2861.861861861862 0.6764140986572537
2871.871871871872 0.6774007674885933
2881.881881881882 0.678342029729193
2891.8918918918916 0.6792383315840009
2901.901901901902 0.6800901217815929
2911.911911911912 0.6808978513360924
2921.921921921922 0.6816619733157061
2931.931931931932 0.6823829426177932
2941.941941941942 0.6830612157503531
2951.9519519519517 0.6836972506198467
2961.961961961962 0.6842915063252402
2971.971971971972 0.6848444429581767
2981.9819819819822 0.6853565214091668
2991.991991991992 0.6858282031797042
3002.002002002002 0.6862599502001957
3012.012012012012 0.6866522246535988
3022.0220220220217 0.6870054888046793
3032.032032032032 0.6873219672364493
3042.0420420420423 0.6875983830470296
3052.052052052052 0.6878371097558135
3062.062062062062 0.6880386245606434
3072.072072072072 0.6882034019597048
3082.0820820820823 0.6883319137970707
3092.092092092092 0.6884246292988898
3102.102102102102 0.6884820151010923
3112.1121121121123 0.6885045352694165
3122.122122122122 0.6884926513125146
3132.132132132132 0.6884468221888326
3142.1421421421423 0.6883675043079256
3152.152152152152 0.6882551515267896
3162.162162162162 0.688110215141805
3172.1721721721724 0.687933143876774
3182.1821821821823 0.6877243838675637
3192.192192192192 0.6874843786437759
3202.202202202202 0.6872135691078666
3212.2122122122123 0.6869123935120953
3222.222222222222 0.6865812874336358
3232.232232232232 0.6862206837481984
3242.2422422422424 0.6858310126024243
3252.252252252252 0.6854127013853509
3262.262262262262 0.6849661746991774
3272.2722722722724 0.6844918543295615
3282.2822822822823 0.6839901592156622
3292.292292292292 0.6834615054200945
3302.3023023023025 0.6829063060989925
3312.3123123123123 0.6823249714723129
3322.322322322322 0.6817179087945296
3332.3323323323325 0.6810855223258392
3342.3423423423424 0.6804282133039917
3352.352352352352 0.6797463799168433
3362.3623623623625 0.6790404172757242
3372.3723723723724 0.6783107173896946
3382.3823823823823 0.6775576691407541
3392.3923923923926 0.6767816582600799
3402.4024024024025 0.6759830673053223
3412.4124124124123 0.6751622756390203
3422.4224224224226 0.674319659408161
3432.4324324324325 0.6734555915249207
3442.4424424424424 0.6725704416486061
3452.4524524524522 0.6716645761688195
3462.4624624624626 0.6707383581898554
3472.4724724724724 0.6697921475163444
3482.4824824824823 0.6688263006401411
3492.4924924924926 0.6678411707284636
3502.5025025025025 0.6668371076132785
3512.5125125125123 0.6658144577819289
3522.5225225225226 0.664773564368989
3532.5325325325325 0.6637147671493435
3542.5425425425424 0.6626384025324726
3552.5525525525527 0.6615448035579272
3562.5625625625626 0.6604342998919815
3572.5725725725724 0.6593072178254321
3582.5825825825827 0.6581638802725407
3592.5925925925926 0.6570046067710774
3602.6026026026025 0.6558297134834616
3612.612612612613 0.654639513198965
3622.6226226226227 0.6534343153369461
3632.6326326326325 0.6522144259511091
3642.642642642643 0.6509801477347462
3652.6526526526527 0.6497317800269369
3662.6626626626626 0.6484696188196827
3672.672672672673 0.6471939567659557
3682.6826826826828 0.6459050831886097
3692.6926926926926 0.6446032840901627
3702.7027027027025 0.6432888421633836
3712.712712712713 0.6419620368026856
3722.7227227227227 0.6406231441162886
3732.7327327327325 0.639272436939116
3742.742742742743 0.637910184846409
3752.7527527527527 0.6365366541680288
3762.7627627627626 0.6351521080034142
3772.772772772773 0.6337568062371778
3782.7827827827828 0.6323510055553081
3792.7927927927926 0.6309349594619497
3802.802802802803 0.629508918296747
3812.812812812813 0.6280731292527159
3822.8228228228227 0.6266278363946225
3832.832832832833 0.6251732806778435
3842.842842842843 0.623709699967696
3852.8528528528527 0.6222373290591912
3862.862862862863 0.6207563996972129
3872.872872872873 0.6192671405970838
3882.8828828828828 0.6177697774655021
3892.892892892893 0.6162645330218358
3902.902902902903 0.6147516270197337
3912.912912912913 0.6132312762690593
3922.922922922923 0.6117036946581063
3932.932932932933 0.6101690931760896
3942.942942942943 0.6086276799358876
3952.9529529529527 0.6070796601970209
3962.962962962963 0.6055252363888469
3972.972972972973 0.6039646081339581
3982.982982982983 0.6023979722717635
3992.992992992993 0.6008255228822346
4003.003003003003 0.5992474513098142
4013.013013013013 0.597663946187454
4023.023023023023 0.5960751934607811
4033.033033033033 0.5944813764123744
4043.043043043043 0.5928826756861342
4053.053053053053 0.591279269311739
4063.063063063063 0.589671332729172
4073.073073073073 0.5880590388133037
4083.0830830830832 0.5864425578985237
4093.093093093093 0.5848220578034095
4103.103103103103 0.5831977038554143
4113.113113113113 0.5815696589155769
4123.123123123123 0.5799380834032278
4133.133133133133 0.5783031353206926
4143.143143143143 0.5766649702779818
4153.153153153153 0.5750237415174544
4163.163163163163 0.5733795999384481
4173.173173173173 0.5717326941218699
4183.183183183183 0.5700831703547362
4193.193193193193 0.5684311726546574
4203.203203203203 0.5667768427942547
4213.213213213214 0.5651203203255116
4223.223223223224 0.5634617426040426
4233.2332332332335 0.5618012448132792
4243.243243243243 0.560138959988566
4253.253253253253 0.5584750190411577
4263.263263263263 0.5568095507821191
4273.273273273273 0.5551426819461126
4283.283283283283 0.5534745372150766
4293.293293293293 0.5518052392417854
4303.303303303303 0.5501349086732875
4313.313313313313 0.5484636641742195
4323.323323323323 0.5467916224499856
4333.333333333334 0.5451188982698079
4343.343343343344 0.5434456044896339
4353.353353353354 0.5417718520749083
4363.3633633633635 0.5400977501231938
4373.373373373373 0.53842340588665
4383.383383383383 0.5367489247943569
4393.393393393393 0.5350744104744874
4403.403403403403 0.5333999647763251
4413.413413413413 0.5317256877921187
4423.423423423424 0.5300516778787818
4433.4334334334335 0.5283780316794255
4443.443443443443 0.5267048441447282
4453.453453453454 0.5250322085541375
4463.463463463464 0.5233602165369079
4473.473473473474 0.5216889580929623
4483.483483483484 0.5200185216135886
4493.493493493494 0.51834899390196
4503.503503503503 0.5166804601934836
4513.513513513513 0.5150130041759754
4523.523523523523 0.5133467080096552
4533.533533533533 0.5116816523469736
4543.543543543543 0.5100179163522524
4553.553553553554 0.508355577721155
4563.563563563564 0.5066947126999758
4573.573573573573 0.5050353961047496
4583.583583583584 0.5033777013401862
4593.593593593594 0.5017217004184223
4603.603603603604 0.5000674639775953
4613.613613613614 0.4984150613002402
4623.623623623624 0.49676456033150185
4633.6336336336335 0.49511602769717417
4643.643643643643 0.4934695287215564
4653.653653653653 0.4918251274451307
4663.663663663663 0.49018288664206366
4673.673673673674 0.4885428678375252
4683.683683683684 0.48690513132483465
4693.693693693694 0.48526973618242425
4703.703703703704 0.4836367402906301
4713.713713713714 0.4820062003483043
4723.723723723724 0.4803781718892508
4733.733733733734 0.47875270929848684
4743.743743743744 0.4771298658283303
4753.753753753754 0.4755096936143123
4763.763763763764 0.4738922436909181
4773.773773773773 0.47227756600715215
4783.783783783783 0.4706657094419368
4793.793793793793 0.4690567218193365
4803.803803803804 0.467450649923613
4813.813813813814 0.46584753951411345
4823.823823823824 0.46424743533998886
4833.833833833834 0.4626503811547461
4843.843843843844 0.461056419730635
4853.853853853854 0.4594655928728691
4863.863863863864 0.4578779414336844
4873.873873873874 0.45629350532623325
4883.883883883884 0.45471232353831886
4893.893893893894 0.45313443414596755
4903.9039039039035 0.4515598743268437
4913.913913913913 0.4499886803735041
4923.923923923924 0.4484208877064966
4933.933933933934 0.4468565308873027
4943.943943943944 0.4452956436311263
4953.953953953955 0.4437382588195264
4963.9639639639645 0.4421844085129019
4973.973973973974 0.4406341239628202
4983.983983983984 0.4390874356242002
4993.993993993994 0.43754437316734485
5004.004004004004 0.4360049654898259
5014.014014014014 0.43446924072822524
5024.024024024024 0.4329372262697265
5034.0340340340335 0.43140894876357
5044.044044044043 0.4298844341323589
5054.054054054054 0.42836370758322795
5064.064064064064 0.4268467936188718
5074.074074074074 0.42533371604843606
5084.084084084085 0.4238244979982664
5094.0940940940945 0.42231916192252994
5104.104104104104 0.42081772961369424
5114.114114114114 0.4193202222128778
5124.124124124124 0.41782666022006587
5134.134134134134 0.4163370635041979
5144.144144144144 0.4148514513131236
5154.154154154154 0.4133698422834313
5164.1641641641645 0.4118922544501501
5174.174174174174 0.4104187052563268
5184.184184184184 0.4089492115624756
5194.194194194194 0.40748378965590787
5204.204204204204 0.40602245525994
5214.214214214214 0.40456522354297797
5224.224224224225 0.4031121091274851
5234.2342342342345 0.40166312609883154
5244.244244244244 0.40021828801402487
5254.254254254254 0.3987776079103289
5264.264264264264 0.3973410983137636
5274.274274274274 0.3959087712474956
5284.284284284285 0.39448063824011537
5294.294294294295 0.39305671033380374
5304.304304304304 0.3916369980923879
5314.314314314314 0.3902215116092927
5324.324324324324 0.38881026051537987
5334.334334334334 0.3874032539866862
5344.344344344345 0.386000500752053
5354.354354354355 0.38460200910065534
5364.3643643643645 0.38320778688942586
5374.374374374374 0.3818178415503811
5384.384384384384 0.3804321800978442
5394.394394394394 0.3790508091355704
5404.404404404404 0.37767373486377553
5414.414414414415 0.37630096308606514
5424.424424424425 0.3749324992162725
5434.4344344344345 0.37356834828519736
5444.444444444444 0.3722085149472543
5454.454454454454 0.3708530034870294
5464.464464464464 0.36950181782574265
5474.474474474475 0.3681549615276247
5484.484484484485 0.3668124378062001
5494.494494494495 0.36547424953048574
5504.504504504504 0.3641403992311018
5514.514514514514 0.36281088910629544
5524.524524524524 0.36148572102788207
5534.534534534535 0.36016489654710054
5544.544544544545 0.3588484169003872
5554.554554554555 0.3575362830150671
5564.5645645645645 0.3562284955149653
5574.574574574574 0.3549250547259376
5584.584584584584 0.3536259606813239
5594.594594594595 0.35233121312732046
5604.604604604605 0.35104081152828065
5614.614614614615 0.3497547550719344
5624.624624624625 0.34847304267453505
5634.6346346346345 0.34719567298593385
5644.644644644644 0.34592264439457693
5654.654654654654 0.3446539550324353
5664.664664664665 0.3433896027798586
5674.674674674675 0.3421295852703625
5684.684684684685 0.34087389989534395
5694.694694694695 0.33962254380872864
5704.704704704704 0.33837551393155074
5714.714714714714 0.33713280695646636
5724.724724724725 0.3358944193521997
5734.734734734735 0.33466034736792394
5744.744744744745 0.33343058703758005
5754.754754754755 0.33220513418412867
5764.764764764765 0.3309839844237417
5774.774774774774 0.3297671331699314
5784.784784784785 0.3285545756376174
5794.794794794795 0.32734630684713484
5804.804804804805 0.3261423216281817
5814.814814814815 0.3249426146237078
5824.824824824825 0.3237471802937468
5834.8348348348345 0.3225560129191874
5844.844844844845 0.32136910660549434
5854.854854854855 0.3201864552863664
5864.864864864865 0.31900805272734456
5874.874874874875 0.3178338925293638
5884.884884884885 0.31666396813225106
5894.894894894895 0.31549827281817105
5904.9049049049045 0.31433679971501965
5914.914914914915 0.3131795417997657
5924.924924924925 0.31202649190174253
5934.934934934935 0.3108776427058872
5944.944944944945 0.3097329867559337
5954.954954954955 0.30859251645755426
5964.964964964965 0.3074562240814543
5974.974974974975 0.3063241017664187
5984.984984984985 0.30519614152231284
5994.994994994995 0.3040723352330349
6005.005005005005 0.30295267465942477
6015.015015015015 0.30183715144212664
6025.025025025025 0.3007257571044081
6035.035035035035 0.2996184830549343
6045.045045045045 0.29851532059050045
6055.055055055055 0.2974162608987199
6065.065065065065 0.2963212950606711
6075.075075075075 0.2952304140535034
6085.085085085085 0.29414360875300183
6095.0950950950955 0.29306086993611014
6105.105105105105 0.2919821882834163
6115.115115115115 0.2909075543815973
6125.125125125125 0.28983695872582443
6135.135135135135 0.28877039172213426
6145.145145145145 0.2877078436897552
6155.155155155155 0.2866493048634045
6165.1651651651655 0.2855947653955429
6175.175175175175 0.28454421535859625
6185.185185185185 0.2834976447471398
6195.195195195195 0.28245504348004885
6205.205205205205 0.28141640140261387
6215.215215215215 0.28038170828862063
6225.225225225226 0.27935095384239955
6235.235235235235 0.2783241277008376
6245.245245245245 0.2773012194353617
6255.255255255255 0.27628221855388707
6265.265265265265 0.27526711450273433
6275.275275275275 0.2742558966685164
6285.285285285286 0.2732485543799922
6295.295295295296 0.27224507690989264
6305.305305305305 0.2712454534767135
