#lamb flux
1000.0 1.5380857847839093
1010.01001001001 1.5548273391818377
1020.0200200200201 1.5682606898609028
1030.03003003003 1.5786025251320936
1040.0400400400401 1.5860728854166082
1050.05005005005 1.5908915942972288
1060.06006006006 1.5932753371774513
1070.07007007007 1.5934353232870544
1080.08008008008 1.591575464513501
1090.0900900900901 1.5878910052237418
1100.1001001001 1.582567540009365
1110.11011011011 1.5757803604429927
1120.1201201201202 1.5676940769253935
1130.13013013013 1.5584624671105611
1140.1401401401401 1.5482285079067262
1150.1501501501502 1.537124553441428
1160.16016016016 1.5252726264953713
1170.1701701701702 1.5127847956562266
1180.1801801801803 1.4997636147652549
1190.1901901901902 1.4863026051040993
1200.2002002002002 1.4724867641965507
1210.2102102102103 1.4583930880963143
1220.2202202202202 1.4440910966232463
1230.2302302302303 1.4296433532294732
1240.2402402402402 1.415105973058864
1250.2502502502502 1.4004554706259094
1260.2602602602603 1.3855224794909284
1270.2702702702702 1.3699728562743771
1280.2802802802803 1.353881741058454
1290.2902902902902 1.3373194123956627
1300.3003003003003 1.3203514295719312
1310.3103103103103 1.303038793676634
1320.3203203203202 1.2854381227735623
1330.3303303303303 1.2676018371186784
1340.3403403403404 1.2495783509583975
1350.3503503503503 1.2314122679689823
1360.3603603603603 1.2131445778666536
1370.3703703703704 1.1948128521330326
1380.3803803803803 1.1764514371655903
1390.3903903903904 1.158091643482141
1400.4004004004005 1.1397619298860568
1410.4104104104103 1.12148808173901
1420.4204204204204 1.1032933826944058
1430.4304304304305 1.085198779420895
1440.4404404404404 1.067223038994952
1450.4504504504505 1.049382898767373
1460.4604604604606 1.031693208613888
1470.4704704704704 1.014167065567122
1480.4804804804805 0.9968159408986128
1490.4904904904906 0.9796497997773135
1500.5005005005005 0.9626772136771172
1510.5105105105106 0.9459054657419613
1520.5205205205207 0.9293406493446564
1530.5305305305305 0.912987760095937
1540.5405405405404 0.8968507815746798
1550.5505505505505 0.8809327650597316
1560.5605605605606 0.8652359035492801
1570.5705705705705 0.8497616003560989
1580.5805805805805 0.8345105325669115
1590.5905905905906 0.8194827096523515
1600.6006006006005 0.80467752751105
1610.6106106106106 0.7900938182279161
1620.6206206206207 0.7757298958231271
1630.6306306306305 0.761583598265333
1640.6406406406406 0.7476523260205001
1650.6506506506507 0.73393307740734
1660.6606606606606 0.720422481031702
1670.6706706706707 0.7071168255765345
1680.6806806806808 0.6940120872313139
1690.6906906906906 0.6811039550561871
1700.7007007007007 0.6683896698089863
1710.7107107107108 0.6558715295906475
1720.7207207207207 0.6435433359755426
1730.7307307307308 0.631397889359587
1740.7407407407409 0.6194280303054158
1750.7507507507507 0.6076266414656583
1760.7607607607606 0.595986651828305
1770.770770770771 0.5845010438099011
1780.7807807807808 0.5731628638164852
1790.7907907907907 0.5619652369984534
1800.8008008008007 0.5509013870435386
1810.8108108108108 0.5399646619805062
1820.8208208208207 0.5291485671021681
1830.8308308308308 0.5184468062550455
1840.8408408408409 0.5078533328765936
1850.8508508508507 0.4973624122778173
1860.8608608608608 0.4869686967526793
1870.870870870871 0.4766673151231706
1880.8808808808808 0.4664539782699382
1890.890890890891 0.4563251020140244
1900.900900900901 0.44627794835759466
1910.9109109109108 0.4363107855036005
1920.920920920921 0.4264230661928803
1930.930930930931 0.4166156226568233
1940.940940940941 0.40689087482555375
1950.950950950951 0.3972530463159126
1960.960960960961 0.38770838014805026
1970.970970970971 0.3782653431623756
1980.980980980981 0.36893480487530217
1990.9909909909911 0.35973017328108003
2001.001001001001 0.3506674672681968
2011.0110110110109 0.3417653033958922
2021.0210210210212 0.33304477439895186
2031.031031031031 0.32452919862617496
2041.0410410410411 0.31624372426619707
2051.051051051051 0.3082147800454096
2061.061061061061 0.3004693750728848
2071.071071071071 0.2930342640878706
2081.081081081081 0.28593500934593663
2091.091091091091 0.27919498499631895
2101.101101101101 0.27283438192295967
2111.1111111111113 0.2668692784960572
2121.121121121121 0.2613108437814902
2131.131131131131 0.2561647335932498
2141.141141141141 0.25143072657856796
2151.151151151151 0.24710262869159477
2161.161161161161 0.2431684522842781
2171.1711711711714 0.23961085348790642
2181.1811811811813 0.23640779142804874
2191.191191191191 0.2335333574462742
2201.201201201201 0.23095871335851578
2211.2112112112113 0.22865307530499807
2221.221221221221 0.2265846834224587
2231.2312312312315 0.22472170614060802
2241.2412412412414 0.22303303969025626
2251.2512512512512 0.22148897662673528
2261.261261261261 0.2200617302067337
2271.271271271271 0.2187258130545303
2281.2812812812813 0.21745827790501152
2291.2912912912916 0.2162388349496264
2301.3013013013015 0.2150498644483164
2311.3113113113113 0.21387634509023007
2321.321321321321 0.2127057185354081
2331.331331331331 0.21152770915665267
2341.3413413413414 0.21033411571758948
2351.3513513513512 0.20911858899546218
2361.3613613613616 0.20787640652054168
2371.3713713713714 0.2066042528971445
2381.3813813813813 0.20530001174523907
2391.391391391391 0.20396257323509667
2401.4014014014015 0.20259165950441654
2411.4114114114113 0.20118766893432494
2421.4214214214217 0.19975153928124748
2431.4314314314315 0.19828462896795185
2441.4414414414414 0.19678861537774137
2451.4514514514512 0.19526540872147935
2461.4614614614616 0.19371707991343792
2471.4714714714714 0.19214580086104383
2481.4814814814818 0.19055379561431915
2491.4914914914916 0.1889433009086318
2501.5015015015015 0.18731653475040175
2511.5115115115113 0.18567567182570996
2521.521521521521 0.1840228246463263
2531.5315315315315 0.18236002947966815
2541.541541541542 0.180689236234192
2551.5515515515517 0.1790123015870639
2561.5615615615616 0.17733098474533182
2571.5715715715714 0.17564694532481523
2581.5815815815813 0.1739617429127288
2591.5915915915916 0.1722768379512737
2601.6016016016015 0.17059359364086818
2611.611611611612 0.16891327861429892
2621.6216216216217 0.16723707017780703
2631.6316316316315 0.16556605795293786
2641.6416416416414 0.16390124778477122
2651.6516516516517 0.162243565808732
2661.6616616616616 0.16059386259030536
2671.671671671672 0.15895291727030383
2681.6816816816818 0.15732144166344386
2691.6916916916916 0.1557000842703761
2701.7017017017015 0.15408943417343346
2711.711711711712 0.15249002479456933
2721.7217217217217 0.15090233750058454
2731.731731731732 0.14932680504604917
2741.741741741742 0.1477638148485507
2751.7517517517517 0.14621371209422113
2761.7617617617616 0.14467680267409222
2771.7717717717715 0.14315335595380954
2781.781781781782 0.14164360738074375
2791.791791791792 0.14014776093363637
2801.801801801802 0.1386659914207011
2811.811811811812 0.13719844663263267
2821.8218218218217 0.13574524935729468
2831.8318318318316 0.13430649926302293
2841.841841841842 0.13288227465751742
2851.851851851852 0.13147263412923496
2861.861861861862 0.13007761807805934
2871.871871871872 0.12869725014183914
2881.881881881882 0.1273315385251509
2891.8918918918916 0.12598047723639247
2901.901901901902 0.12464404723903223
2911.911911911912 0.12332221752255983
2921.921921921922 0.12201494609839207
2931.931931931932 0.1207221809257012
2941.941941941942 0.11944386077184783
2951.9519519519517 0.11817991601182429
2961.961961961962 0.11693026937084613
2971.971971971972 0.11569483661397051
2981.9819819819822 0.1144735271863736
2991.991991991992 0.11326624480768624
3002.002002002002 0.11207288802355916
3012.012012012012 0.11089335071742432
3022.0220220220217 0.10972752258521479
3032.032032032032 0.10886910579776572
3042.0420420420423 0.10769181562803902
3052.052052052052 0.10651819240430395
3062.062062062062 0.10535105993101523
3072.072072072072 0.1041927929899864
3082.0820820820823 0.10304536843982531
3092.092092092092 0.10191041176250293
3102.102102102102 0.10078923928531393
3112.1121121121123 0.09968289633582753
3122.122122122122 0.09859219160354174
3132.132132132132 0.09751772798799069
3142.1421421421423 0.09645993021155033
3152.152152152152 0.09541906946818345
3162.162162162162 0.09439528536849826
3172.1721721721724 0.09338860542803631
3182.1821821821823 0.09239896233065163
3192.192192192192 0.09142620918295871
3202.202202202202 0.0904701329596833
3212.2122122122123 0.08953046632376664
3222.222222222222 0.08860689798956173
3232.232232232232 0.0876990817826216
3242.2422422422424 0.08680664453555983
3252.252252252252 0.08592919294632996
3262.262262262262 0.08506631951307843
3272.2722722722724 0.08421760764846728
3282.2822822822823 0.08338263606602912
3292.292292292292 0.0825609825216746
3302.3023023023025 0.08175222698487819
3312.3123123123123 0.080955954306269
3322.322322322322 0.08017175644130085
3332.3323323323325 0.07939923428330804
3342.3423423423424 0.07863799915352256
3352.352352352352 0.07788767399047047
3362.3623623623625 0.07714789427654407
3372.3723723723724 0.07641830873539414
3382.3823823823823 0.07569857983007278
3392.3923923923926 0.07498838408853804
3402.4024024024025 0.07428741228015275
3412.4124124124123 0.0735953694641596
3422.4224224224226 0.07291197492874035
3432.4324324324325 0.07223696203714809
3442.4424424424424 0.07157007799551113
3452.4524524524522 0.07091108355521843
3462.4624624624626 0.07025975266129023
3472.4724724724724 0.06961587205679245
3482.4824824824823 0.06897924085215185
3492.4924924924926 0.06834967006716085
3502.5025025025025 0.06772698215250021
3512.5125125125123 0.06711101049675837
3522.5225225225226 0.06650159892416137
3532.5325325325325 0.065898601187549
3542.5425425425424 0.06530188046052494
3552.5525525525527 0.06471130883216815
3562.5625625625626 0.06412676680720862
3572.5725725725724 0.06354814281414055
3582.5825825825827 0.06297533272336298
3592.5925925925926 0.0624082393770942
3602.6026026026025 0.06184677213250431
3612.612612612613 0.06129084641923877
3622.6226226226227 0.06074038331226636
3632.6326326326325 0.0601953091207722
3642.642642642643 0.059655554993629935
3652.6526526526527 0.05912105654181888
3662.6626626626626 0.058591753478008345
3672.672672672673 0.05806758927340285
3682.6826826826828 0.05754851083182946
3692.6926926926926 0.05703446818095217
3702.7027027027025 0.05652541418041361
3712.712712712713 0.0560213042466328
3722.7227227227227 0.055522096093925805
3732.7327327327325 0.05502774949156304
3742.742742742743 0.054538226036336235
3752.7527527527527 0.054053488940169134
3762.7627627627626 0.05357350283227989
3772.772772772773 0.05309823357537935
3782.7827827827828 0.05262764809537236
3792.7927927927926 0.052161714224017636
3802.802802802803 0.051700400553993886
3812.812812812813 0.0512436763058161
3822.8228228228227 0.05079151120604512
3832.832832832833 0.050343875376237225
3842.842842842843 0.04990073923208477
3852.8528528528527 0.04946207339220707
3862.862862862863 0.04902784859605984
3872.872872872873 0.04859803563044375
3882.8828828828828 0.04817260526410291
3892.892892892893 0.04775152818992209
3902.902902902903 0.047334774974241295
3912.912912912913 0.046922316012826065
3922.922922922923 0.04651412149304588
3932.932932932933 0.04611016136183086
3942.942942942943 0.04571040529899256
3952.9529529529527 0.04531482269551376
3962.962962962963 0.04492338263642794
3972.972972972973 0.044536053887926905
3982.982982982983 0.044152804888352236
3992.992992992993 0.04377360374274316
4003.003003003003 0.0433984182206305
4013.013013013013 0.04302721575678179
4023.023023023023 0.04265996345462005
4033.033033033033 0.042296628092053604
4043.043043043043 0.041937176129469414
4053.053053053053 0.0415815737196582
4063.063063063063 0.041229786719452544
4073.073073073073 0.040881780702874446
4083.0830830830832 0.0405375209756008
4093.093093093093 0.0401969725905693
4103.103103103103 0.03986010036455826
4113.113113113113 0.039526868895587104
4123.123123123123 0.039197242580993746
4133.133133133133 0.038871185636057445
4143.143143143143 0.038548662113044994
4153.153153153153 0.03822963592056779
4163.163163163163 0.037914070843146845
4173.173173173173 0.03760193056089144
4183.183183183183 0.03729317866920518
4193.193193193193 0.036987778698440874
4203.203203203203 0.0366856941334336
4213.213213213214 0.0363868884328476
4223.223223223224 0.03609132504827882
4233.2332332332335 0.03579896744306224
4243.243243243243 0.03550977911073729
4253.253253253253 0.035223723593131105
4263.263263263263 0.03494076449802368
4273.273273273273 0.03466086551636385
4283.283283283283 0.03438399043900918
4293.293293293293 0.03411010317296707
4303.303303303303 0.03383916775711756
4313.313313313313 0.03357114837740247
4323.323323323323 0.03330600938146768
4333.333333333334 0.03304371529274934
4343.343343343344 0.03278423082399655
4353.353353353354 0.032527520890225814
4363.3633633633635 0.03227355062110503
4373.373373373373 0.032022285372766336
4383.383383383383 0.031773690739049364
4393.393393393393 0.031527732562177835
4403.403403403403 0.031284376942874184
4413.413413413413 0.031043590249917784
4423.423423423424 0.030805339129154435
4433.4334334334335 0.030569590511964718
4443.443443443443 0.030336311623200676
4453.453453453454 0.030105469988600517
4463.463463463464 0.029877033441692635
4473.473473473474 0.029650970130198965
4483.483483483484 0.029427248521951225
4493.493493493494 0.029205837410330764
4503.503503503503 0.028986705919245657
4513.513513513513 0.02876982350765781
4523.523523523523 0.028555159973672733
4533.533533533533 0.028342685458206368
4543.543543543543 0.028132370448241416
4553.553553553554 0.027924185779687444
4563.563563563564 0.02771810263985812
4573.573573573573 0.02751409256957905
4583.583583583584 0.02731212746493991
4593.593593593594 0.027112179578704328
4603.603603603604 0.026914221521390457
4613.613613613614 0.026718226262036134
4623.623623623624 0.026524167128660688
4633.6336336336335 0.02633201780843711
4643.643643643643 0.026141752347586627
4653.653653653653 0.025953345151008115
4663.663663663663 0.025766770981654783
4673.673673673674 0.025582004959669637
4683.683683683684 0.02539902256129172
4693.693693693694 0.025217799617544074
4703.703703703704 0.025038312312714875
4713.713713713714 0.024860537182642403
4723.723723723724 0.024684451112814237
4733.733733733734 0.024510031336290945
4743.743743743744 0.024337255431464516
4753.753753753754 0.02416610131966054
4763.763763763764 0.023996547262594176
4773.773773773773 0.023828571859688265
4783.783783783783 0.023662154045263135
4793.793793793793 0.023497273085605716
4803.803803803804 0.023333908575926852
4813.813813813814 0.023172040437214346
4823.823823823824 0.023011648912989492
4833.833833833834 0.022852714565974323
4843.843843843844 0.02269521827467696
4853.853853853854 0.022539141229901367
4863.863863863864 0.022384464931188706
4873.873873873874 0.02223117118319597
4883.883883883884 0.022079242092018482
4893.893893893894 0.021928660061461654
4903.9039039039035 0.02177940778926789
4913.913913913913 0.02163146826330374
4923.923923923924 0.021484824757712535
4933.933933933934 0.02133946082903753
4943.943943943944 0.02119536031231978
4953.953953953955 0.021052507317175832
4963.9639639639645 0.020910886223859025
4973.973973973974 0.020770481679308662
4983.983983983984 0.02063127859319092
4993.993993993994 0.0204932621339352
5004.004004004004 0.020356417724769343
5014.014014014014 0.020220731039757203
5024.024024024024 0.02008618799984156
5034.0340340340335 0.019952774768895638
5044.044044044043 0.019820477749785768
5054.054054054054 0.019689283580448174
5064.064064064064 0.019559179129982285
5074.074074074074 0.01943015149476297
5084.084084084085 0.01930218799457409
5094.0940940940945 0.019175276168765413
5104.104104104104 0.019049403772434907
5114.114114114114 0.018924558772638347
5124.124124124124 0.018800729344628002
5134.134134134134 0.01867790386812206
5144.144144144144 0.018556070923606262
5154.154154154154 0.0184352192886694
5164.1641641641645 0.018315337934373715
5174.174174174174 0.0181964160216618
5184.184184184184 0.018078442897800837
5194.194194194194 0.017961408092865404
5204.204204204204 0.017845301316259908
5214.214214214214 0.017730112453281294
5224.224224224225 0.01761583156172304
5234.2342342342345 0.017502448868521234
5244.244244244244 0.017389954766443092
5254.254254254254 0.017278339810818923
5264.264264264264 0.017167594716317732
5274.274274274274 0.017057710353767214
5284.284284284285 0.01694867774701827
5294.294294294295 0.016840488069854657
5304.304304304304 0.016733132642947852
5314.314314314314 0.016626602930857548
5324.324324324324 0.01652089053907785
5334.334334334334 0.016415987211129423
5344.344344344345 0.01631188482569752
5354.354354354355 0.01620857539381622
5364.3643643643645 0.016106051056098594
5374.374374374374 0.01600430408001299
5384.384384384384 0.01590332685720526
5394.394394394394 0.015803111900866914
5404.404404404404 0.01570365184314895
5414.414414414415 0.015604939432621354
5424.424424424425 0.015506967531777988
5434.4344344344345 0.015409729114586582
5444.444444444444 0.01531321726408372
5454.454454454454 0.015217425170014516
5464.464464464464 0.015122346126516554
5474.474474474475 0.015027973529847971
5484.484484484485 0.014934300876159165
5494.494494494495 0.014841321759307885
5504.504504504504 0.014749029868717303
5514.514514514514 0.014657418987276592
5524.524524524524 0.014566482989283777
5534.534534534535 0.014476215838430185
5544.544544544545 0.014386611585826327
5554.554554554555 0.0142976643680685
5564.5645645645645 0.014209368405345842
5574.574574574574 0.014121717999587313
5584.584584584584 0.014034707532648027
5594.594594594595 0.013948331464534497
5604.604604604605 0.0138625843316685
5614.614614614615 0.013777460745188532
5624.624624624625 0.013692955389288964
5634.6346346346345 0.013609063019595937
5644.644644644644 0.01352577846157958
5654.654654654654 0.013443096609002182
5664.664664664665 0.013361012422401475
5674.674674674675 0.013279520927608863
5684.684684684685 0.013198617214301683
5694.694694694695 0.013118296434589241
5704.704704704704 0.01303855380163196
5714.714714714714 0.012959384588293047
5724.724724724725 0.012880784125822262
5734.734734734735 0.012802747802571166
5744.744744744745 0.012725271062739253
5754.754754754755 0.012648349405150555
5764.764764764765 0.012571978382060072
5774.774774774774 0.012496153597989529
5784.784784784785 0.012420870708591887
5794.794794794795 0.012346125419544161
5804.804804804805 0.012271913485467852
5814.814814814815 0.012198230708876637
5824.824824824825 0.012125072939150694
5834.8348348348345 0.0120524360715371
5844.844844844845 0.011980316046175955
5854.854854854855 0.011908708847151478
5864.864864864865 0.011837610501567718
5874.874874874875 0.011767017078648414
5884.884884884885 0.011696924688860336
5894.894894894895 0.011627329483059725
5904.9049049049045 0.011558227651661371
5914.914914914915 0.011489615423829706
5924.924924924925 0.011421489066691614
5934.934934934935 0.011353844884570238
5944.944944944945 0.011286679218239637
5954.954954954955 0.011219988444199493
5964.964964964965 0.011153768973969656
5974.974974974975 0.011088017253403963
5984.984984984985 0.011022729762022909
5994.994994994995 0.01095790301236469
6005.005005005005 0.0108935335493543
6015.015015015015 0.010829617949690094
6025.025025025025 0.010766152821247554
6035.035035035035 0.010703134802499684
6045.045045045045 0.010640560561953815
6055.055055055055 0.010578426797604188
6065.065065065065 0.01051673023640015
6075.075075075075 0.010455467633729409
6085.085085085085 0.01039463577291604
6095.0950950950955 0.010334231464732859
6105.105105105105 0.010274251546927777
6115.115115115115 0.010214692883763771
6125.125125125125 0.010155552365572142
6135.135135135135 0.010096826908318703
6145.145145145145 0.010038513453182487
6155.155155155155 0.009980608966146793
6165.1651651651655 0.009923110437602021
6175.175175175175 0.009866014881960218
6185.185185185185 0.009809319337280764
6195.195195195195 0.009753020864907133
6205.205205205205 0.009697116549114211
