#lamb flux
1000.0 0.2000934090023475
1010.01001001001 0.2162762661484923
1020.0200200200201 0.2322502250945761
1030.03003003003 0.24792120882353227
1040.0400400400401 0.26320959373185593
1050.05005005005 0.27805018696381606
1060.06006006006 0.2923917758518999
1070.07007007007 0.30619635105580784
1080.08008008008 0.3194380970088753
1090.0900900900901 0.3321022322049844
1100.1001001001 0.34418376927241584
1110.11011011011 0.35568625188468334
1120.1201201201202 0.36662051320237693
1130.13013013013 0.3770034892749436
1140.1401401401401 0.38685711096591624
1150.1501501501502 0.3962072896249366
1160.16016016016 0.4050830049089743
1170.1701701701702 0.41351549776012836
1180.1801801801803 0.4215375674327925
1190.1901901901902 0.429182968457331
1200.2002002002002 0.43648590135290455
1210.2102102102103 0.4434805895868817
1220.2202202202202 0.45020093456485466
1230.2302302302303 0.45668024018456344
1240.2402402402402 0.46295099858015176
1250.2502502502502 0.46897390340397066
1260.2602602602603 0.4745638838526371
1270.2702702702702 0.47935538300617536
1280.2802802802803 0.4833749537449811
1290.2902902902902 0.4866515738676601
1300.3003003003003 0.4892161058809333
1310.3103103103103 0.49110080627330954
1320.3203203203202 0.4923388842156627
1330.3303303303303 0.49296410866665125
1340.3403403403404 0.4930104621153152
1350.3503503503503 0.4925118386388946
1360.3603603603603 0.4915017835633607
1370.3703703703704 0.4900132717613159
1380.3803803803803 0.4880785214829491
1390.3903903903904 0.485728840569075
1400.4004004004005 0.4829945019218301
1410.4104104104103 0.4799046451918266
1420.4204204204204 0.476487201766189
1430.4304304304305 0.47276884029792987
1440.4404404404404 0.46877493019360855
1450.4504504504505 0.4645295206648941
1460.4604604604606 0.4600553331440885
1470.4704704704704 0.45537376505849886
1480.4804804804805 0.4505049031499912
1490.4904904904906 0.445467544710934
1500.5005005005005 0.44027922528407315
1510.5105105105106 0.43495625154016104
1520.5205205205207 0.4295137382025207
1530.5305305305305 0.42396564803180126
1540.5405405405404 0.418324834016906
1550.5505505505505 0.4126030830396856
1560.5605605605606 0.4068111603919568
1570.5705705705705 0.40095885462440306
1580.5805805805805 0.395055022298589
1590.5905905905906 0.3891076322966247
1600.6006006006005 0.38312380941877106
1610.6106106106106 0.3771098770684656
1620.6206206206207 0.3710713988878147
1630.6306306306305 0.3650132192655474
1640.6406406406406 0.358939502694739
1650.6506506506507 0.35285377201031976
1660.6606606606606 0.3467589455874245
1670.6706706706707 0.34065737363210824
1680.6806806806808 0.3345508737467279
1690.6906906906906 0.32844076600443545
1700.7007007007007 0.3223304217500947
1710.7107107107108 0.31623011916639154
1720.7207207207207 0.31013826639703285
1730.7307307307308 0.30405179069019017
1740.7407407407409 0.29796759658254324
1750.7507507507507 0.291882585742227
1760.7607607607606 0.2857936811436667
1770.770770770771 0.2796978562948685
1780.7807807807808 0.27359217031598104
1790.7907907907907 0.26747380974274837
1800.8008008008007 0.26134013799407163
1810.8108108108108 0.25518875349133197
1820.8208208208207 0.24901755743764176
1830.8308308308308 0.24282483224368315
1840.8408408408409 0.23660933150522342
1850.8508508508507 0.23037038227345047
1860.8608608608608 0.22410800008611853
1870.870870870871 0.2178230168142451
1880.8808808808808 0.21151722079199448
1890.890890890891 0.2051935079021605
1900.900900900901 0.19885604125586268
1910.9109109109108 0.19251041581213482
1920.920920920921 0.1861638227295407
1930.930930930931 0.17982520645665342
1940.940940940941 0.17350540562434957
1950.950950950951 0.16721726683192137
1960.960960960961 0.16097571862325086
1970.970970970971 0.1547977916069941
1980.980980980981 0.1487025701331816
1990.9909909909911 0.1427110615874709
2001.001001001001 0.13684597158382503
2011.0110110110109 0.13113137741892394
2021.0210210210212 0.12559229820126624
2031.031031031031 0.12025416789565127
2041.0410410410411 0.1151422265656838
2051.051051051051 0.11028085439280595
2061.061061061061 0.10569288131652427
2071.071071071071 0.10139891095666047
2081.081081081081 0.09741669957201046
2091.091091091091 0.09376062838201353
2101.101101101101 0.09044130057903696
2111.1111111111113 0.08746528361092801
2121.121121121121 0.08483500441209188
2131.131131131131 0.08254879225184694
2141.141141141141 0.08060105277750487
2151.151151151151 0.07898254918858656
2161.161161161161 0.07768076299291346
2171.1711711711714 0.07668030725214381
2181.1811811811813 0.07596336865665132
2191.191191191191 0.07551015980098583
2201.201201201201 0.07529936827611432
2211.2112112112113 0.0753085935900612
2221.221221221221 0.07551476591384008
2231.2312312312315 0.07589454217626605
2241.2412412412414 0.07642467543817826
2251.2512512512512 0.07708235329712704
2261.261261261261 0.0778455008441681
2271.271271271271 0.07869304381526881
2281.2812812812813 0.07960512824898609
2291.2912912912916 0.0805632941786253
2301.3013013013015 0.08155060250197266
2311.3113113113113 0.08255171595877853
2321.321321321321 0.08355293687035632
2331.331331331331 0.08454220576285568
2341.3413413413414 0.08550906607980502
2351.3513513513512 0.08644460083748083
2361.3613613613616 0.08734134729924346
2371.3713713713714 0.08819319559850594
2381.3813813813813 0.0889952768067687
2391.391391391391 0.08974384531382484
2401.4014014014015 0.09043615964787782
2411.4114114114113 0.09107036508713934
2421.4214214214217 0.09164538065813785
2431.4314314314315 0.0921607924189776
2441.4414414414414 0.09261675431219532
2451.4514514514512 0.09301389735298617
2461.4614614614616 0.09335324749608932
2471.4714714714714 0.09363615219359524
2481.4814814814818 0.0938642154072579
2491.4914914914916 0.09403924066139728
2501.5015015015015 0.09416318160433236
2511.5115115115113 0.09423809947604841
2521.521521521521 0.09426612684700912
2531.5315315315315 0.09424943698852266
2541.541541541542 0.09419021825112009
2551.5515515515517 0.09409065285767278
2561.5615615615616 0.09395289955740008
2571.5715715715714 0.09377907963159024
2581.5815815815813 0.09357126578880685
2591.5915915915916 0.0933314735344279
2601.6016016016015 0.09306165464504174
2611.611611611612 0.09276369242149267
2621.6216216216217 0.09243939843459648
2631.6316316316315 0.09209051051440646
2641.6416416416414 0.09171869176727857
2651.6516516516517 0.09132553043488835
2661.6616616616616 0.0909125404359353
2671.671671671672 0.09048116245471612
2681.6816816816818 0.09003276546131239
2691.6916916916916 0.0895686485660596
2701.7017017017015 0.08909004312651506
2711.711711711712 0.08859811503856937
2721.7217217217217 0.08809396715489122
2731.731731731732 0.08757864178378366
2741.741741741742 0.08705312322996935
2751.7517517517517 0.08651834034599541
2761.7617617617616 0.08597516906902657
2771.7717717717715 0.0854244349229214
2781.781781781782 0.08486691546980395
2791.791791791792 0.0843033426989529
2801.801801801802 0.08373440534384223
2811.811811811812 0.08316075112067327
2821.8218218218217 0.08258298888380036
2831.8318318318316 0.08200169069515173
2841.841841841842 0.08141739380613315
2851.851851851852 0.08083060255162015
2861.861861861862 0.08024179015654799
2871.871871871872 0.07965140045631817
2881.881881881882 0.07905984953280143
2891.8918918918916 0.07846752726814243
2901.901901901902 0.07787479881889312
2911.911911911912 0.07728200601323246
2921.921921921922 0.07668946867418841
2931.931931931932 0.07609748587187565
2941.941941941942 0.07550633710781236
2951.9519519519517 0.0749162834343889
2961.961961961962 0.07432756851254
2971.971971971972 0.07374041961062588
2981.9819819819822 0.07315504854746258
2991.991991991992 0.07257165258236006
3002.002002002002 0.07199041525493839
3012.012012012012 0.07141150717739025
3022.0220220220217 0.0708350867817558
3032.032032032032 0.07080871295315712
3042.0420420420423 0.0701668910571496
3052.052052052052 0.06950948939333472
3062.062062062062 0.06884208195794081
3072.072072072072 0.06816943506176028
3082.0820820820823 0.06749559052612503
3092.092092092092 0.06682394415527483
3102.102102102102 0.06615731885764986
3112.1121121121123 0.06549803210030172
3122.122122122122 0.06484795761395741
3132.132132132132 0.064208581436227
3142.1421421421423 0.06358105249990433
3152.152152152152 0.06296622805314064
3162.162162162162 0.062364714247557074
3172.1721721721724 0.06177690225645889
3182.1821821821823 0.061203000294238974
3192.192192192192 0.06064306190453655
3202.202202202202 0.06009701087249981
3212.2122122122123 0.05956466309847164
3222.222222222222 0.05904574574879614
3232.232232232232 0.05853991397588507
3242.2422422422424 0.05804676547540757
3252.252252252252 0.0575658531243559
3262.262262262262 0.057096695920403735
3272.2722722722724 0.05663878842081803
3282.2822822822823 0.05619160885845953
3292.292292292292 0.05575462609325084
3302.3023023023025 0.05532730553994806
3312.3123123123123 0.054909114197118164
3322.322322322322 0.054499524887847976
3332.3323323323325 0.05409801980980146
3342.3423423423424 0.05370409348072423
3352.352352352352 0.0533172551552371
3362.3623623623625 0.05293703077967723
3372.3723723723724 0.052562964543714466
3382.3823823823823 0.052194620080384765
3392.3923923923926 0.05183158135996202
3402.4024024024025 0.05147345331761145
3412.4124124124123 0.05111986224997457
3422.4224224224226 0.05077045601162951
3432.4324324324325 0.050424904038690876
3442.4424424424424 0.05008289722359128
3452.4524524524522 0.04974414766226546
3462.4624624624626 0.04940838829248966
3472.4724724724724 0.04907537243996422
3482.4824824824823 0.04874487328682726
3492.4924924924926 0.048416683275622215
3502.5025025025025 0.04809061346026952
3512.5125125125123 0.047766492814301675
3522.5225225225226 0.04744416750547301
3532.5325325325325 0.04712350014484063
3542.5425425425424 0.04680436901751138
3552.5525525525527 0.04648666730144226
3562.5625625625626 0.046170302279962425
3572.5725725725724 0.04585519455303692
3582.5825825825827 0.045541277251710366
3592.5925925925926 0.04522849525964109
3602.6026026026025 0.04491680444515967
3612.612612612613 0.04460617090685271
3622.6226226226227 0.044296570235277055
3632.6326326326325 0.04398798679305029
3642.642642642643 0.04368041301523401
3652.6526526526527 0.04337384873162572
3662.6626626626626 0.0430683005122987
3672.672672672673 0.04276378103747891
3682.6826826826828 0.04246030849261595
3692.6926926926926 0.042157905989294704
3702.7027027027025 0.04185660101244214
3712.712712712713 0.04155642489410877
3722.7227227227227 0.0412574123139454
3732.7327327327325 0.040959600826350744
3742.742742742743 0.040663030414137706
3752.7527527527527 0.0403677430684485
3762.7627627627626 0.040073782394544774
3772.772772772773 0.03978119324300858
3782.7827827827828 0.0394900213658075
3792.7927927927926 0.039200313096607674
3802.802802802803 0.03891211505465848
3812.812812812813 0.038625473871520065
3822.8228228228227 0.03834043593986328
3832.832832832833 0.038057047183536356
3842.842842842843 0.03777535284806483
3852.8528528528527 0.03749539731073182
3862.862862862863 0.03721722390937004
3872.872872872873 0.036940874788989955
3882.8828828828828 0.03666639076536377
3892.892892892893 0.0363938112046884
3902.902902902903 0.03612317391845392
3912.912912912913 0.03585451507265647
3922.922922922923 0.0355878691105054
3932.932932932933 0.035323268687792626
3942.942942942943 0.035060744620108844
3952.9529529529527 0.03480032584111453
3962.962962962963 0.034542039371095255
3972.972972972973 0.03428591029505576
3982.982982982983 0.0340319617496336
3992.992992992993 0.033780214918139644
4003.003003003003 0.03353068903306148
4013.013013013013 0.03328340138539241
4023.023023023023 0.03303836734017948
4033.033033033033 0.03279560035771154
4043.043043043043 0.03255511201979731
4053.053053053053 0.03231691206061301
4063.063063063063 0.03208100840162631
4073.073073073073 0.03184740719013224
4083.0830830830832 0.031616112840963634
4093.093093093093 0.031387128080965984
4103.103103103103 0.031160453995851767
4113.113113113113 0.030936090079076183
4123.123123123123 0.03071403428239871
4133.133133133133 0.03049428306782068
4143.143143143143 0.030276831460610398
4153.153153153153 0.030061673103149392
4163.163163163163 0.029848800309354856
4173.173173173173 0.02963820411945264
4183.183183183183 0.02942987435489451
4193.193193193193 0.029223799673231198
4203.203203203203 0.029019967622769975
4213.213213213214 0.02881836469686197
4223.223223223224 0.028618976387678713
4233.2332332332335 0.028421787239353048
4243.243243243243 0.028226780900371968
4253.253253253253 0.028033940175122177
4263.263263263263 0.027843247074500876
4273.273273273273 0.02765468286551491
4283.283283283283 0.02746822811980242
4293.293293293293 0.02728386276102001
4303.303303303303 0.02710156611104755
4313.313313313313 0.026921316934971025
4323.323323323323 0.02674309348481099
4333.333333333334 0.026566873541971625
4343.343343343344 0.026392634458391368
4353.353353353354 0.02622035319638191
4363.3633633633635 0.026050006367147938
4373.373373373373 0.02588157026798455
4383.383383383383 0.025715020918153704
4393.393393393393 0.025550334093445027
4403.403403403403 0.025387485359429883
4413.413413413413 0.025226450103420575
4423.423423423424 0.02506720356514968
4433.4334334334335 0.024909720866186775
4443.443443443443 0.02475397703811186
4453.453453453454 0.024599947049467354
4463.463463463464 0.024447605831511326
4473.473473473474 0.024296928302796415
4483.483483483484 0.024147889392600704
4493.493493493494 0.024000464063236377
4503.503503503503 0.02385462733126443
4513.513513513513 0.023710354287643037
4523.523523523523 0.02356762011683831
4533.533533533533 0.023426400114926766
4543.543543543543 0.023286669706717982
4553.553553553554 0.023148404461927397
4563.563563563564 0.023011580110428156
4573.573573573573 0.02287617255661131
4583.583583583584 0.022742157892883304
4593.593593593594 0.02260951241232973
4603.603603603604 0.02247821262057342
4613.613613613614 0.022348235246855454
4623.623623623624 0.02221955725436628
4633.6336336336335 0.02209215584985441
4643.643643643643 0.02196600849253942
4653.653653653653 0.02184109290235515
4663.663663663663 0.0217173870675491
4673.673673673674 0.021594869251662686
4683.683683683684 0.02147351799991711
4693.693693693694 0.021353312145028364
4703.703703703704 0.02123423081247487
4713.713713713714 0.021116253425240112
4723.723723723724 0.020999359708052424
4733.733733733734 0.02088352969114294
4743.743743743744 0.020768743713542835
4753.753753753754 0.02065498242593956
4763.763763763764 0.020542226793111722
4773.773773773773 0.020430458095961293
4783.783783783783 0.020319657933161647
4793.793793793793 0.020209808222438713
4803.803803803804 0.020100891201502644
4813.813813813814 0.0199928894286461
4823.823823823824 0.019885785783025533
4833.833833833834 0.019779563464640305
4843.843843843844 0.019674205994025
4853.853853853854 0.019569697211668714
4863.863863863864 0.01946602127717563
4873.873873873874 0.01936316266817968
4883.883883883884 0.01926110617902658
4893.893893893894 0.01915983691923519
4903.9039039039035 0.019059340311750394
4913.913913913913 0.018959602090998697
4923.923923923924 0.018860608300757798
4933.933933933934 0.01876234529185066
4943.943943943944 0.018664799719674188
4953.953953953955 0.018567958541572574
4963.9639639639645 0.01847180901406457
4973.973973973974 0.018376338689933873
4983.983983983984 0.01828153541519139
4993.993993993994 0.018187387325917778
5004.004004004004 0.0180938828449943
5014.014014014014 0.018001010678729917
5024.024024024024 0.0179087598133919
5034.0340340340335 0.017817119511647418
5044.044044044043 0.017726079308922702
5054.054054054054 0.017635629009686685
5064.064064064064 0.017545758683665407
5074.074074074074 0.017456458661993236
5084.084084084085 0.017367719533306958
5094.0940940940945 0.0172795321397883
5104.104104104104 0.01719188757316029
5114.114114114114 0.017104777170642734
5124.124124124124 0.017018192510871846
5134.134134134134 0.016932125409788754
5144.144144144144 0.016846567916501527
5154.154154154154 0.016761512309125242
5164.1641641641645 0.016676951090604165
5174.174174174174 0.016592876984520367
5184.184184184184 0.01650928293089231
5194.194194194194 0.01642616208196759
5204.204204204204 0.01634350779801314
5214.214214214214 0.01626131364310634
5224.224224224225 0.016179573380930404
5234.2342342342345 0.016098280970577267
5244.244244244244 0.016017430562360685
5254.254254254254 0.01593701649364285
5264.264264264264 0.015857033284676837
5274.274274274274 0.015777475634467908
5284.284284284285 0.015698338416655792
5294.294294294295 0.015619616675420738
5304.304304304304 0.015541305621415188
5314.314314314314 0.01546340062772361
5324.324324324324 0.015385897225852305
5334.334334334334 0.015308791101751297
5344.344344344345 0.015232078091869999
5354.354354354355 0.015155754179248658
5364.3643643643645 0.015079815489646934
5374.374374374374 0.015004258287711509
5384.384384384384 0.014929078973183909
5394.394394394394 0.01485427407715024
5404.404404404404 0.014779840258333829
5414.414414414415 0.014705774299432314
5424.424424424425 0.014632073103500145
5434.4344344344345 0.014558733690377575
5444.444444444444 0.014485753193167262
5454.454454454454 0.014413128854759337
5464.464464464464 0.014340858024405764
5474.474474474475 0.014268938154344895
5484.484484484485 0.0141973667964768
5494.494494494495 0.014126141599090163
5504.504504504504 0.014055260303641294
5514.514514514514 0.013984720741585731
5524.524524524524 0.013914520831263067
5534.534534534535 0.01384465857483524
5544.544544544545 0.013775132055278796
5554.554554554555 0.01370593943343135
5564.5645645645645 0.013637078945092536
5574.574574574574 0.013568548898179699
5584.584584584584 0.013500347669938413
5594.594594594595 0.013432473704207902
5604.604604604605 0.013364925508741727
5614.614614614615 0.013297701652583226
5624.624624624625 0.01323080076349626
5634.6346346346345 0.013164221525450845
5644.644644644644 0.0130979626761636
5654.654654654654 0.013032023004693123
5664.664664664665 0.012966401349089692
5674.674674674675 0.012901096594099614
5684.684684684685 0.012836107668923426
5694.694694694695 0.012771433545028077
5704.704704704704 0.012707073234012652
5714.714714714714 0.012643025785527173
5724.724724724725 0.012579290285244335
5734.734734734735 0.012515865852883617
5744.744744744745 0.012452751640287371
5754.754754754755 0.012389946829548509
5764.764764764765 0.012327450631189266
5774.774774774774 0.012265262282390527
5784.784784784785 0.012203381045271255
5794.794794794795 0.01214180620521743
5804.804804804805 0.012080537069260018
5814.814814814815 0.012019572964501263
5824.824824824825 0.011958913236588906
5834.8348348348345 0.011898557248237508
5844.844844844845 0.011838504377796471
5854.854854854855 0.011778754017863916
5864.864864864865 0.011719305573945921
5874.874874874875 0.01166015846316039
5884.884884884885 0.011601312112984931
5894.894894894895 0.011542765960047939
5904.9049049049045 0.01148451944896239
5914.914914914915 0.01142657203120145
5924.924924924925 0.011368923164015375
5934.934934934935 0.011311572309388748
5944.944944944945 0.01125451893303766
5954.954954954955 0.011197762503445799
5964.964964964965 0.011141302490938905
5974.974974974975 0.011085138366796808
5984.984984984985 0.011029269602402308
5994.994994994995 0.010973695668426172
6005.005005005005 0.010918416034047482
6015.015015015015 0.010863430166208657
6025.025025025025 0.010808737528904372
6035.035035035035 0.01075433758250359
6045.045045045045 0.010700229783104106
6055.055055055055 0.010646413581918682
6065.065065065065 0.010592888424692219
6075.075075075075 0.010539653751149144
6085.085085085085 0.010486708994470247
6095.0950950950955 0.010434053580798394
6105.105105105105 0.010381686928772242
6115.115115115115 0.010329608449087308
6125.125125125125 0.010277817544083688
6135.135135135135 0.010226313607359766
6145.145145145145 0.010175096023411082
6155.155155155155 0.010124164167293843
6165.1651651651655 0.010073517404312239
6175.175175175175 0.01002315508972901
6185.185185185185 0.009973076568498497
