#lamb flux
1000.0 3.0224516002776204e+40
1010.01001001001 3.07744241748556e+40
1020.0200200200201 3.1256573046813087e+40
1030.03003003003 3.1674127264278814e+40
1040.0400400400401 3.2030502102636726e+40
1050.05005005005 3.232927860119001e+40
1060.06006006006 3.2574130542426244e+40
1070.07007007007 3.276876263567602e+40
1080.08008008008 3.291685907503291e+40
1090.0900900900901 3.3022041530544564e+40
1100.1001001001 3.3087835582000763e+40
1110.11011011011 3.311764460107339e+40
1120.1201201201202 3.311473011742113e+40
1130.13013013013 3.3082197757280405e+40
1140.1401401401401 3.3022987910713954e+40
1150.1501501501502 3.2939870359615344e+40
1160.16016016016 3.2835442177867036e+40
1170.1701701701702 3.2712128294116787e+40
1180.1801801801803 3.257218418393004e+40
1190.1901901901902 3.2417700229890227e+40
1200.2002002002002 3.2250607354507136e+40
1210.2102102102103 3.2072683591006795e+40
1220.2202202202202 3.1885561311029517e+40
1230.2302302302303 3.169073487604306e+40
1240.2402402402402 3.1489568521143865e+40
1250.2502502502502 3.128154848052984e+40
1260.2602602602603 3.10626608761369e+40
1270.2702702702702 3.0824875004350855e+40
1280.2802802802803 3.0569912367438874e+40
1290.2902902902902 3.0299406361952973e+40
1300.3003003003003 3.0014902416482064e+40
1310.3103103103103 2.971785883081817e+40
1320.3203203203202 2.94096481973541e+40
1330.3303303303303 2.9091559298753707e+40
1340.3403403403404 2.876479938828191e+40
1350.3503503503503 2.843049677060822e+40
1360.3603603603603 2.8089703611382947e+40
1370.3703703703704 2.774339891343587e+40
1380.3803803803803 2.7392491606090054e+40
1390.3903903903904 2.703782370185563e+40
1400.4004004004005 2.6680173481717037e+40
1410.4104104104103 2.632025867640669e+40
1420.4204204204204 2.595873961652378e+40
1430.4304304304305 2.5596222329166425e+40
1440.4404404404404 2.523326156295761e+40
1450.4504504504505 2.487036372701269e+40
1460.4604604604606 2.4507989732576565e+40
1470.4704704704704 2.414655772879781e+40
1480.4804804804805 2.378644572645717e+40
1490.4904904904906 2.3427994105469086e+40
1500.5005005005005 2.3071508003670455e+40
1510.5105105105106 2.271725958583765e+40
1520.5205205205207 2.23654901930641e+40
1530.5305305305305 2.2016412373618436e+40
1540.5405405405404 2.1670211797215882e+40
1550.5505505505505 2.132704905529794e+40
1560.5605605605606 2.0987061350451193e+40
1570.5705705705705 2.0650364078527705e+40
1580.5805805805805 2.0317052307373751e+40
1590.5905905905906 1.9987202156351776e+40
1600.6006006006005 1.9660872081066244e+40
1610.6106106106106 1.9338104067895824e+40
1620.6206206206207 1.9018924743104983e+40
1630.6306306306305 1.8703346401474458e+40
1640.6406406406406 1.8391367959565407e+40
1650.6506506506507 1.808297583893341e+40
1660.6606606606606 1.777814478484876e+40
1670.6706706706707 1.747683862637967e+40
1680.6806806806808 1.717901098406863e+40
1690.6906906906906 1.6884605931902903e+40
1700.7007007007007 1.6593606723409705e+40
1710.7107107107108 1.630612917114485e+40
1720.7207207207207 1.6022062438871287e+40
1730.7307307307308 1.5741266956582836e+40
1740.7407407407409 1.5463602054641627e+40
1750.7507507507507 1.5188926093054738e+40
1760.7607607607606 1.4917096652185993e+40
1770.770770770771 1.4647970799646272e+40
1780.7807807807808 1.438140545072111e+40
1790.7907907907907 1.4117257842643096e+40
1800.8008008008007 1.3855386146288359e+40
1810.8108108108108 1.359565024243288e+40
1820.8208208208207 1.3337912693465073e+40
1830.8308308308308 1.3082039945278601e+40
1840.8408408408409 1.282790379774308e+40
1850.8508508508507 1.2575383185346367e+40
1860.8608608608608 1.2324366311855687e+40
1870.870870870871 1.207475318352042e+40
1880.8808808808808 1.182645858359473e+40
1890.890890890891 1.1579415525714445e+40
1900.900900900901 1.1333579213593825e+40
1910.9109109109108 1.1088931518049178e+40
1920.920920920921 1.0845485957775114e+40
1930.930930930931 1.0603293135818311e+40
1940.940940940941 1.0362446537735998e+40
1950.950950950951 1.012308853896394e+40
1960.960960960961 9.885416397982951e+39
1970.970970970971 9.649687930183369e+39
1980.980980980981 9.416226469017094e+39
1990.9909909909911 9.185424633333685e+39
2001.001001001001 8.957746343538427e+39
2011.0110110110109 8.733726478772709e+39
2021.0210210210212 8.513967559845182e+39
2031.031031031031 8.299132896140481e+39
2041.0410410410411 8.089935764954918e+39
2051.051051051051 7.887124408008794e+39
2061.061061061061 7.691462930647091e+39
2071.071071071071 7.503708557999194e+39
2081.081081081081 7.32458610601257e+39
2091.091091091091 7.154760915715316e+39
2101.101101101101 6.994811819083041e+39
2111.1111111111113 6.845205897797894e+39
2121.121121121121 6.706276817498194e+39
2131.131131131131 6.578208348330312e+39
2141.141141141141 6.461024326047366e+39
2151.151151151151 6.354585805192039e+39
2161.161161161161 6.258595569728205e+39
2171.1711711711714 6.172609571958332e+39
2181.1811811811813 6.096054341375257e+39
2191.191191191191 6.028249000880279e+39
2201.201201201201 5.968430285465766e+39
2211.2112112112113 5.915778888877274e+39
2221.221221221221 5.86944555361383e+39
2231.2312312312315 5.828575537091526e+39
2241.2412412412414 5.792330389345152e+39
2251.2512512512512 5.759906319959337e+39
2261.261261261261 5.730548772664091e+39
2271.271271271271 5.703563132524402e+39
2281.2812812812813 5.678321741214441e+39
2291.2912912912916 5.654267579969993e+39
2301.3013013013015 5.630915096615368e+39
2311.3113113113113 5.607848708960613e+39
2321.321321321321 5.58471952273555e+39
2331.331331331331 5.561240770864673e+39
2341.3413413413414 5.537182424981118e+39
2351.3513513513512 5.512365360840704e+39
2361.3613613613616 5.486655385731773e+39
2371.3713713713714 5.45995736465967e+39
2381.3813813813813 5.432209617314723e+39
2391.391391391391 5.403378701983517e+39
2401.4014014014015 5.373454656528046e+39
2411.4114114114113 5.342446730183601e+39
2421.4214214214217 5.310379612400829e+39
2431.4314314314315 5.2772901451112916e+39
2441.4414414414414 5.2432244913278725e+39
2451.4514514514512 5.208235724620169e+39
2461.4614614614616 5.1723817995579764e+39
2471.4714714714714 5.1357238616789365e+39
2481.4814814814818 5.0983248560654705e+39
2491.4914914914916 5.0602483955366015e+39
2501.5015015015015 5.021557852248104e+39
2511.5115115115113 4.982315639756251e+39
2521.521521521521 4.942582656051039e+39
2531.5315315315315 4.9024178615043395e+39
2541.541541541542 4.861877968974977e+39
2551.5515515515517 4.821017226383613e+39
2561.5615615615616 4.779887274871437e+39
2571.5715715715714 4.7385370681690124e+39
2581.5815815815813 4.6970128410248534e+39
2591.5915915915916 4.655358116489618e+39
2601.6016016016015 4.613613743538983e+39
2611.611611611612 4.5718179579700414e+39
2621.6216216216217 4.530006460746052e+39
2631.6316316316315 4.488212509016944e+39
2641.6416416416414 4.446467015932061e+39
2651.6516516516517 4.4047986561077697e+39
2661.6616616616616 4.363233974236794e+39
2671.671671671672 4.3217974948450465e+39
2681.6816816816818 4.28051183163178e+39
2691.6916916916916 4.239397795183158e+39
2701.7017017017015 4.198474498140182e+39
2711.711711711712 4.157759457139263e+39
2721.7217217217217 4.1172686910364196e+39
2731.731731731732 4.077016815081509e+39
2741.741741741742 4.0370171308336985e+39
2751.7517517517517 3.9972817117082775e+39
2761.7617617617616 3.957821484123044e+39
2771.7717717717715 3.918646304273157e+39
2781.781781781782 3.879765030609934e+39
2791.791791791792 3.841185592134137e+39
2801.801801801802 3.802915052639876e+39
2811.811811811812 3.764959671063477e+39
2821.8218218218217 3.727324958103712e+39
2831.8318318318316 3.6900157292869785e+39
2841.841841841842 3.6530361546545435e+39
2851.851851851852 3.6163898052493363e+39
2861.861861861862 3.5800796965779704e+39
2871.871871871872 3.5441083292200495e+39
2881.881881881882 3.508477726751928e+39
2891.8918918918916 3.4731894711462393e+39
2901.901901901902 3.438244735801947e+39
2911.911911911912 3.4036443163528904e+39
2921.921921921922 3.3693886593954717e+39
2931.931931931932 3.335477889269039e+39
2941.941941941942 3.3019118330151715e+39
2951.9519519519517 3.2686900436350525e+39
2961.961961961962 3.235811821757106e+39
2971.971971971972 3.2032762358203804e+39
2981.9819819819822 3.1710821408726796e+39
2991.991991991992 3.13922819607625e+39
3002.002002002002 3.1077128810079385e+39
3012.012012012012 3.0765345108351134e+39
3022.0220220220217 3.04569125044334e+39
3032.032032032032 3.0238912892369417e+39
3042.0420420420423 2.9925734227842904e+39
3052.052052052052 2.961295716046127e+39
3062.062062062062 2.9301429683770627e+39
3072.072072072072 2.899186781746685e+39
3082.0820820820823 2.8684870438944485e+39
3092.092092092092 2.8380932824212306e+39
3102.102102102102 2.8080458955347347e+39
3112.1121121121123 2.7783772662231625e+39
3122.122122122122 2.749112767264363e+39
3132.132132132132 2.720271664784164e+39
3142.1421421421423 2.6918679281376097e+39
3152.152152152152 2.6639109537647713e+39
3162.162162162162 2.636406210420367e+39
3172.1721721721724 2.609355812834276e+39
3182.1821821821823 2.5827590304600122e+39
3192.192192192192 2.5566127375348815e+39
3202.202202202202 2.530911810227533e+39
3212.2122122122123 2.505649476199776e+39
3222.222222222222 2.4808176214698492e+39
3232.232232232232 2.4564070590412272e+39
3242.2422422422424 2.432407763358933e+39
3252.252252252252 2.408809074277316e+39
3262.262262262262 2.3855998738710884e+39
3272.2722722722724 2.3627687390954287e+39
3282.2822822822823 2.3403040730011184e+39
3292.292292292292 2.3181942169362447e+39
3302.3023023023025 2.296427545915853e+39
3312.3123123123123 2.274992549113738e+39
3322.322322322322 2.2538778972249197e+39
3332.3323323323325 2.23307249826149e+39
3342.3423423423424 2.2125655431773086e+39
3352.352352352352 2.1923465425662932e+39
3362.3623623623625 2.1724053555441003e+39
3372.3723723723724 2.152732211801675e+39
3382.3823823823823 2.1333177277105517e+39
3392.3923923923926 2.114152917262823e+39
3402.4024024024025 2.095229198541613e+39
3412.4124124124123 2.076538396340393e+39
3422.4224224224226 2.0580727414800558e+39
3432.4324324324325 2.0398248673107587e+39
3442.4424424424424 2.0217878038301856e+39
3452.4524524524522 2.0039549698005512e+39
3462.4624624624626 1.9863201632025416e+39
3472.4724724724724 1.9688775503250528e+39
3482.4824824824823 1.95162165375439e+39
3492.4924924924926 1.9345473394952613e+39
3502.5025025025025 1.9176498034278085e+39
3512.5125125125123 1.9009245572798902e+39
3522.5225225225226 1.8843674142714595e+39
3532.5325325325325 1.8679744745678676e+39
3542.5425425425424 1.8517421106610697e+39
3552.5525525525527 1.8356669527817416e+39
3562.5625625625626 1.819745874431043e+39
3572.5725725725724 1.8039759781080252e+39
3582.5825825825827 1.7883545812973282e+39
3592.5925925925926 1.77287920277161e+39
3602.6026026026025 1.7575475492541562e+39
3612.612612612613 1.74235750247899e+39
3622.6226226226227 1.72730710667868e+39
3632.6326326326325 1.7123945565235956e+39
3642.642642642643 1.6976181855307776e+39
3652.6526526526527 1.6829764549555015e+39
3662.6626626626626 1.6684679431742055e+39
3672.672672672673 1.6540913355635842e+39
3682.6826826826828 1.6398454148771842e+39
3692.6926926926926 1.625729052117849e+39
3702.7027027027025 1.6117411979017616e+39
3712.712712712713 1.5978808743075804e+39
3722.7227227227227 1.584147167202226e+39
3732.7327327327325 1.5705392190331818e+39
3742.742742742743 1.557056222075858e+39
3752.7527527527527 1.5436974121233207e+39
3762.7627627627626 1.53046206260479e+39
3772.772772772773 1.517349479118522e+39
3782.7827827827828 1.5043589943641028e+39
3792.7927927927926 1.4914899634587214e+39
3802.802802802803 1.4787417596217054e+39
3812.812812812813 1.466113770211377e+39
3822.8228228228227 1.4536053930982352e+39
3832.832832832833 1.4412160333584573e+39
3842.842842842843 1.4289451002718226e+39
3852.8528528528527 1.416792004608308e+39
3862.862862862863 1.4047561561878544e+39
3872.872872872873 1.392836961698075e+39
3882.8828828828828 1.3810338227549854e+39
3892.892892892893 1.369346134192278e+39
3902.902902902903 1.3577732825649518e+39
3912.912912912913 1.346314644853646e+39
3922.922922922923 1.3349695873564066e+39
3932.932932932933 1.3237374647551348e+39
3942.942942942943 1.3126176193443827e+39
3952.9529529529527 1.301609380410719e+39
3962.962962962963 1.290712063751347e+39
3972.972972972973 1.279924971321145e+39
3982.982982982983 1.2692473909978206e+39
3992.992992992993 1.258678596455341e+39
4003.003003003003 1.248217847136322e+39
4013.013013013013 1.237864388314479e+39
4023.023023023023 1.227617451238782e+39
4033.033033033033 1.217476253351376e+39
4043.043043043043 1.2074399985717852e+39
4053.053053053053 1.1975078776403714e+39
4063.063063063063 1.1876790685144233e+39
4073.073073073073 1.1779527368106724e+39
4083.0830830830832 1.168328036288435e+39
4093.093093093093 1.1588041093679466e+39
4103.103103103103 1.1493800876788297e+39
4113.113113113113 1.1400550926339991e+39
4123.123123123123 1.1308282360246121e+39
4133.133133133133 1.1216986206320372e+39
4143.143143143143 1.112665340853089e+39
4153.153153153153 1.1037274833350783e+39
4163.163163163163 1.0948841276175083e+39
4173.173173173173 1.0861343467775048e+39
4183.183183183183 1.0774772080763228e+39
4193.193193193193 1.0689117736045004e+39
4203.203203203203 1.0604371009234603e+39
4213.213213213214 1.0520522437015699e+39
4223.223223223224 1.0437562523428523e+39
4233.2332332332335 1.0355481746067437e+39
4243.243243243243 1.0274270562174599e+39
4253.253253253253 1.0193919414616924e+39
4263.263263263263 1.0114418737735114e+39
4273.273273273273 1.0035758963054898e+39
4283.283283283283 9.957930524851982e+38
4293.293293293293 9.88092386556342e+38
4303.303303303303 9.804729441039218e+38
4313.313313313313 9.729337725629097e+38
4323.323323323323 9.654739217100166e+38
4333.333333333334 9.580924441382413e+38
4343.343343343344 9.507883957139477e+38
4353.353353353354 9.435608360163002e+38
4363.3633633633635 9.364088287589667e+38
4373.373373373373 9.293314421940492e+38
4383.383383383383 9.223277494982648e+38
4393.393393393393 9.153968291414475e+38
4403.403403403403 9.085377652374967e+38
4413.413413413413 9.01749647877926e+38
4423.423423423424 8.950315734482298e+38
4433.4334334334335 8.883826449272805e+38
4443.443443443443 8.81801972170038e+38
4453.453453453454 8.752886721738546e+38
4463.463463463464 8.688418693286989e+38
4473.473473473474 8.6246069565161e+38
4483.483483483484 8.561442910057689e+38
4493.493493493494 8.49891803304521e+38
4503.503503503503 8.43702388700749e+38
4513.513513513513 8.375752117619796e+38
4523.523523523523 8.31509445631612e+38
4533.533533533533 8.255042721766934e+38
4543.543543543543 8.19558882122621e+38
4553.553553553554 8.136724751752071e+38
4563.563563563564 8.078442601305008e+38
4573.573573573573 8.020734549727883e+38
4583.583583583584 7.963592869611825e+38
4593.593593593594 7.907009927052059e+38
4603.603603603604 7.850978182297762e+38
4613.613613613614 7.795490190300017e+38
4623.623623623624 7.74053860116172e+38
4633.6336336336335 7.686116160493503e+38
4643.643643643643 7.632215709679461e+38
4653.653653653653 7.578830186056452e+38
4663.663663663663 7.525952623010801e+38
4673.673673673674 7.473576149995966e+38
4683.683683683684 7.42169399247485e+38
4693.693693693694 7.370299471790124e+38
4703.703703703704 7.319386004966133e+38
4713.713713713714 7.268947104445643e+38
4723.723723723724 7.218976377764676e+38
4733.733733733734 7.16946752716859e+38
4743.743743743744 7.120414349172643e+38
4753.753753753754 7.071810734069735e+38
4763.763763763764 7.023650665388558e+38
4773.773773773773 6.975928219304704e+38
4783.783783783783 6.928637564007717e+38
4793.793793793793 6.881772959026473e+38
4803.803803803804 6.83532875451566e+38
4813.813813813814 6.789299390505742e+38
4823.823823823824 6.743679396118799e+38
4833.833833833834 6.69846338875257e+38
4843.843843843844 6.6536460732349386e+38
4853.853853853854 6.609222240950971e+38
4863.863863863864 6.565186768944629e+38
4873.873873873874 6.5215346189970876e+38
4883.883883883884 6.478260836683648e+38
4893.893893893894 6.435360550411027e+38
4903.9039039039035 6.392828970436819e+38
4913.913913913913 6.3506613878728244e+38
4923.923923923924 6.308853173673891e+38
4933.933933933934 6.2673997776138385e+38
4943.943943943944 6.22629672724987e+38
4953.953953953955 6.185539626877097e+38
4963.9639639639645 6.145124156474343e+38
4973.973973973974 6.1050460706426704e+38
4983.983983983984 6.065301197537848e+38
4993.993993993994 6.025885437797939e+38
5004.004004004004 5.986794763467175e+38
5014.014014014014 5.948025216917208e+38
5024.024024024024 5.909572909766716e+38
5034.0340340340335 5.8714340218004765e+38
5044.044044044043 5.8336047998887025e+38
5054.054054054054 5.796081556907616e+38
5064.064064064064 5.7588606706621075e+38
5074.074074074074 5.721938582811219e+38
5084.084084084085 5.68531179779729e+38
5094.0940940940945 5.6489768817794415e+38
5104.104104104104 5.612930461572056e+38
5114.114114114114 5.577169223588945e+38
5124.124124124124 5.541689912793789e+38
5134.134134134134 5.506489331657392e+38
5144.144144144144 5.471564339122318e+38
5154.154154154154 5.436911849575412e+38
5164.1641641641645 5.402528831828619e+38
5174.174174174174 5.3684123081086515e+38
5184.184184184184 5.3345593530557845e+38
5194.194194194194 5.300967092732249e+38
5204.204204204204 5.267632703640573e+38
5214.214214214214 5.2345534117521425e+38
5224.224224224225 5.2017264915463386e+38
5234.2342342342345 5.16914926506053e+38
5244.244244244244 5.1368191009511294e+38
5254.254254254254 5.104733413566006e+38
5264.264264264264 5.072889662028427e+38
5274.274274274274 5.041285349332757e+38
5284.284284284285 5.009918021452037e+38
5294.294294294295 4.9787852664576675e+38
5304.304304304304 4.9478847136512556e+38
5314.314314314314 4.9172140327088145e+38
5324.324324324324 4.8867709328373746e+38
5334.334334334334 4.856553161944124e+38
5344.344344344345 4.826558505818109e+38
5354.354354354355 4.796784787324637e+38
5364.3643643643645 4.767229865612306e+38
5374.374374374374 4.737891635332818e+38
5384.384384384384 4.708768025873501e+38
5394.394394394394 4.6798570006026185e+38
5404.404404404404 4.651156556127401e+38
5414.414414414415 4.6226647215648455e+38
5424.424424424425 4.5943795578252334e+38
5434.4344344344345 4.5662991569083036e+38
5444.444444444444 4.538421641212094e+38
5454.454454454454 4.510745162854397e+38
5464.464464464464 4.483267903006706e+38
5474.474474474475 4.455988071240673e+38
5484.484484484485 4.428903904886941e+38
5494.494494494495 4.402013668406298e+38
5504.504504504504 4.3753156527730805e+38
5514.514514514514 4.348808174870685e+38
5524.524524524524 4.322489576899162e+38
5534.534534534535 4.296358225794714e+38
5544.544544544545 4.27041251266105e+38
5554.554554554555 4.2446508522124345e+38
5564.5645645645645 4.21907168222836e+38
5574.574574574574 4.193673463019688e+38
5584.584584584584 4.168454676906154e+38
5594.594594594595 4.143413827705079e+38
5604.604604604605 4.11854944023122e+38
5614.614614614615 4.093860059807528e+38
5624.624624624625 4.0693442517867685e+38
5634.6346346346345 4.045000601083831e+38
5644.644644644644 4.020827711718542e+38
5654.654654654654 3.9968242063689365e+38
5664.664664664665 3.972988725934725e+38
5674.674674674675 3.949319929110929e+38
5684.684684684685 3.925816491971422e+38
5694.694694694695 3.902477107562319e+38
5704.704704704704 3.879300485505017e+38
5714.714714714714 3.856285351608731e+38
5724.724724724725 3.83343044749242e+38
5734.734734734735 3.810734530215887e+38
5744.744744744745 3.788196371919947e+38
5754.754754754755 3.76581475947549e+38
5764.764764764765 3.743588494141306e+38
5774.774774774774 3.721516391230486e+38
5784.784784784785 3.6995972797852766e+38
5794.794794794795 3.6778300022602214e+38
5804.804804804805 3.656213414213434e+38
5814.814814814815 3.634746384005871e+38
5824.824824824825 3.6134277925084305e+38
5834.8348348348345 3.592256532816729e+38
5844.844844844845 3.571231509973445e+38
5854.854854854855 3.550351640698006e+38
5864.864864864865 3.529615853123547e+38
5874.874874874875 3.509023086540959e+38
5884.884884884885 3.488572291149875e+38
5894.894894894895 3.468262427816463e+38
5904.9049049049045 3.448092467837889e+38
