#lamb flux
1000.0 5.009193911222926
1010.01001001001 5.035813134218872
1020.0200200200201 5.059349463212505
1030.03003003003 5.079902186563363
1040.0400400400401 5.097570856668518
1050.05005005005 5.112454926694904
1060.06006006006 5.124653427011811
1070.07007007007 5.134264678281288
1080.08008008008 5.141386038317414
1090.0900900900901 5.146113679981727
1100.1001001001 5.148542397539728
1110.11011011011 5.148765439060081
1120.1201201201202 5.1468743625918725
1130.13013013013 5.142958914005267
1140.1401401401401 5.137106924525532
1150.1501501501502 5.129404226129856
1160.16016016016 5.119934583109124
1170.1701701701702 5.108779638223317
1180.1801801801803 5.0960188719991875
1190.1901901901902 5.081729573831626
1200.2002002002002 5.0659868236567585
1210.2102102102103 5.048863483064526
1220.2202202202202 5.030430194811817
1230.2302302302303 5.010755389784528
1240.2402402402402 4.989905300538005
1250.2502502502502 4.967934122550545
1260.2602602602603 4.944874756126426
1270.2702702702702 4.920735630087823
1280.2802802802803 4.895578232374101
1290.2902902902902 4.8694619973247075
1300.3003003003003 4.84244432907257
1310.3103103103103 4.8145806287978
1320.3203203203202 4.785924325334226
1330.3303303303303 4.756526908665137
1340.3403403403404 4.726437965884724
1350.3503503503503 4.695705219239431
1360.3603603603603 4.664374565898256
1370.3703703703704 4.632490119133439
1380.3803803803803 4.600094250622842
1390.3903903903904 4.567227633612996
1400.4004004004005 4.5339292867073455
1410.4104104104103 4.50023661806772
1420.4204204204204 4.46618546983874
1430.4304304304305 4.431810162624719
1440.4404404404404 4.397143539866981
1450.4504504504505 4.362217011986124
1460.4604604604606 4.327060600169281
1470.4704704704704 4.291702979696202
1480.4804804804805 4.256171522711016
1490.4904904904906 4.220492340358032
1500.5005005005005 4.184690324210572
1510.5105105105106 4.148789186931611
1520.5205205205207 4.112811502113602
1530.5305305305305 4.076778743252938
1540.5405405405404 4.040711321821713
1550.5505505505505 4.004628624405966
1560.5605605605606 3.9685490488855595
1570.5705705705705 3.9324900396362956
1580.5805805805805 3.896468121739773
1590.5905905905906 3.860498934191087
1600.6006006006005 3.824597262098611
1610.6106106106106 3.7887770678741934
1620.6206206206207 3.7530515214157076
1630.6306306306305 3.717433029287749
1640.6406406406406 3.6819332629097965
1650.6506506506507 3.646563185765114
1660.6606606606606 3.611333079647541
1670.6706706706707 3.576252569967829
1680.6806806806808 3.5413306501460595
1690.6906906906906 3.506575705122437
1700.7007007007007 3.4719958898525594
1710.7107107107108 3.437599856176893
1720.7207207207207 3.4033941124462124
1730.7307307307308 3.3693844761571383
1740.7407407407409 3.335576293868209
1750.7507507507507 3.301974458448397
1760.7607607607606 3.2685834260740503
1770.770770770771 3.235407233109545
1780.7807807807808 3.2024495130358033
1790.7907907907907 3.1697135136250107
1800.8008008008007 3.137202114600259
1810.8108108108108 3.1049178460657925
1820.8208208208207 3.0728629080477297
1830.8308308308308 3.0410391915467136
1840.8408408408409 3.009448301572253
1850.8508508508507 2.9780915827028593
1860.8608608608608 2.9469701477935106
1870.870870870871 2.9160849105289133
1880.8808808808808 2.8854366225906625
1890.890890890891 2.85502591625932
1900.900900900901 2.824853353295307
1910.9109109109108 2.7949194809165974
1920.920920920921 2.7652248955931986
1930.930930930931 2.735770315178203
1940.940940940941 2.7065566595580224
1950.950950950951 2.6775851394915704
1960.960960960961 2.6488573525814916
1970.970970970971 2.6203753843484963
1980.980980980981 2.5921419111480453
1990.9909909909911 2.5641603001926665
2001.001001001001 2.5364347002858714
2011.0110110110109 2.5089701151621155
2021.0210210210212 2.4817724497673135
2031.031031031031 2.4548485186954987
2041.0410410410411 2.42820600568035
2051.051051051051 2.4018533639195243
2061.061061061061 2.3757996494433153
2071.071071071071 2.3500542839523884
2081.081081081081 2.3246267495199637
2091.091091091091 2.29952622491178
2101.101101101101 2.2747611812526873
2111.1111111111113 2.2503389622315697
2121.121121121121 2.226265379649472
2131.131131131131 2.2025443575959756
2141.141141141141 2.1791776569745664
2151.151151151151 2.1561647062347027
2161.161161161161 2.133502554567102
2171.1711711711714 2.1111859518096634
2181.1811811811813 2.089207546737518
2191.191191191191 2.067558184224502
2201.201201201201 2.0462272735938205
2211.2112112112113 2.0252031962944743
2221.221221221221 2.0044737210189085
2231.2312312312315 1.9840263979535575
2241.2412412412414 1.9638489099584482
2251.2512512512512 1.943929365830735
2261.261261261261 1.924256528221261
2271.271271271271 1.9048199753175283
2281.2812812812813 1.8856102005167772
2291.2912912912916 1.8666186577789607
2301.3013013013015 1.847837762241889
2311.3113113113113 1.829260856251842
2321.321321321321 1.8108821505484654
2331.331331331331 1.7926966492860779
2341.3413413413414 1.7747000661763273
2351.3513513513512 1.756888737534147
2361.3613613613616 1.7392595365643346
2371.3713713713714 1.721809791939458
2381.3813813813813 1.7045372126396776
2391.391391391391 1.6874398201634775
2401.4014014014015 1.670515888563131
2411.4114114114113 1.6537638922851434
2421.4214214214217 1.6371824614730657
2431.4314314314315 1.6207703441870527
2441.4414414414414 1.6045263748825693
2451.4514514514512 1.5884494484452805
2461.4614614614616 1.5725384990800786
2471.4714714714714 1.556792483383699
2481.4814814814818 1.541210366980383
2491.4914914914916 1.5257911141598188
2501.5015015015015 1.51053368001995
2511.5115115115113 1.4954370046800125
2521.521521521521 1.48050000918874
2531.5315315315315 1.4657215928074894
2541.541541541542 1.4511006313973718
2551.5515515515517 1.436635976683057
2561.5615615615616 1.422326456203942
2571.5715715715714 1.408170873796145
2581.5815815815813 1.394168010476731
2591.5915915915916 1.380316625625272
2601.6016016016015 1.3666154583777528
2611.611611611612 1.353063229164456
2621.6216216216217 1.339658641337304
2631.6316316316315 1.3264003828435122
2641.6416416416414 1.3132871279118477
2651.6516516516517 1.3003175387254227
2661.6616616616616 1.2874902670612147
2671.671671671672 1.2748039558815931
2681.6816816816818 1.262257240867172
2691.6916916916916 1.2498487518835957
2701.7017017017015 1.2375771143774634
2711.711711711712 1.225440950698621
2721.7217217217217 1.2134388813476944
2731.731731731732 1.2015695261489134
2741.741741741742 1.1898315053493005
2751.7517517517517 1.1782234406459076
2761.7617617617616 1.1667439561434112
2771.7717717717715 1.155391679244625
2781.781781781782 1.144165241476826
2791.791791791792 1.1330632792568884
2801.801801801802 1.1220844345982934
2811.811811811812 1.1112273557631236
2821.8218218218217 1.1004906978620999
2831.8318318318316 1.0898731234056656
2841.841841841842 1.0793733028090333
2851.851851851852 1.0689899148540174
2861.861861861862 1.0587216471103356
2871.871871871872 1.048567196318971
2881.881881881882 1.0385252687400375
2891.8918918918916 1.028594580467474
2901.901901901902 1.0187738577127585
2911.911911911912 1.0090618370597202
2921.921921921922 0.9994572656923855
2931.931931931932 0.9899589015977097
2941.941941941942 0.9805655137448902
2951.9519519519517 0.9712758822428915
2961.961961961962 0.962088798477686
2971.971971971972 0.9530030652306156
2981.9819819819822 0.9440174967792083
2991.991991991992 0.9351309189816727
3002.002002002002 0.9263421693462354
3012.012012012012 0.9176500970863882
3022.0220220220217 0.9090535631630619
3032.032032032032 0.9006432839681541
3042.0420420420423 0.892222516613439
3052.052052052052 0.8838908755681879
3062.062062062062 0.8756481785120371
3072.072072072072 0.8674941199430143
3082.0820820820823 0.8594282864971418
3092.092092092092 0.8514501707537133
3102.102102102102 0.8435591836613882
3112.1121121121123 0.835754665709181
3122.122122122122 0.8280358969560981
3132.132132132132 0.8204021060236572
3142.1421421421423 0.8128524781467237
3152.152152152152 0.8053861623699622
3162.162162162162 0.7980022779697116
3172.1721721721724 0.7906999201741947
3182.1821821821823 0.7834781652486367
3192.192192192192 0.7763360750060166
3202.202202202202 0.7692727007988401
3212.2122122122123 0.762287087042403
3222.222222222222 0.7553782743155103
3232.232232232232 0.7485453020804865
3242.2422422422424 0.7417872110605443
3252.252252252252 0.7351030453091104
3262.262262262262 0.7284918540025532
3272.2722722722724 0.7219526929848578
3282.2822822822823 0.7154846260901647
3292.292292292292 0.7090867262666635
3302.3023023023025 0.702758076523139
3312.3123123123123 0.6964977707174596
3322.322322322322 0.6903049142044558
3332.3323323323325 0.6841786243589828
3342.3423423423424 0.6781180309884252
3352.352352352352 0.6721222766475137
3362.3623623623625 0.6661905168670911
3372.3723723723724 0.6603219203072715
3382.3823823823823 0.6545156688444267
3392.3923923923926 0.6487709576004803
3402.4024024024025 0.6430869949221105
3412.4124124124123 0.6374630023166928
3422.4224224224226 0.6318982143511067
3432.4324324324325 0.6263918785188741
3442.4424424424424 0.6209432550805165
3452.4524524524522 0.6155516168814931
3462.4624624624626 0.6102162491515969
3472.4724724724724 0.6049364492892574
3482.4824824824823 0.599711526633794
3492.4924924924926 0.5945408022283295
3502.5025025025025 0.5894236085757361
3512.5125125125123 0.584359289389703
3522.5225225225226 0.5793471993427625
3532.5325325325325 0.5743867038128624
3542.5425425425424 0.5694771786298783
3552.5525525525527 0.5646180098232616
3562.5625625625626 0.5598085933718495
3572.5725725725724 0.5550483349567156
3582.5825825825827 0.5503366497178042
3592.5925925925926 0.5456729620149676
3602.6026026026025 0.5410567051939179
3612.612612612613 0.5364873213575185
3622.6226226226227 0.5319642611427359
3632.6326326326325 0.5274869835035195
3642.642642642643 0.5230549554998
3652.6526526526527 0.518667652092736
3662.6626626626626 0.5143245559462883
3672.672672672673 0.5100251572351717
3682.6826826826828 0.5057689534591713
3692.6926926926926 0.5015554492637943
3702.7027027027025 0.49738415626719207
3712.712712712713 0.4932545928932677
3722.7227227227227 0.4891662842108597
3732.7327327327325 0.4851187617788705
3742.742742742743 0.4811115634972098
3752.7527527527527 0.477144233463391
3762.7627627627626 0.47321632183462536
3772.772772772773 0.4693273846952431
3782.7827827827828 0.46547698392926873
3792.7927927927926 0.4616646870979702
3802.802802802803 0.45789006732220744
3812.812812812813 0.4541527031693935
3822.8228228228227 0.45045217854489067
3832.832832832833 0.4467880825876619
3842.842842842843 0.44316000956999807
3852.8528528528527 0.4395675588011473
3862.862862862863 0.4360103345346721
3872.872872872873 0.43248794587936923
3882.8828828828828 0.42900000671357974
3892.892892892893 0.4255461356027439
3902.902902902903 0.4221259557200263
3912.912912912913 0.41873909476987686
3922.922922922923 0.4153851849143716
3932.932932932933 0.4120638627022004
3942.942942942943 0.40877476900015897
3952.9529529529527 0.40551754892701936
3962.962962962963 0.40229185178965604
3972.972972972973 0.39909733102130235
3982.982982982983 0.3959336441218272
3992.992992992993 0.39280045259991975
4003.003003003003 0.3896974219170836
4013.013013013013 0.3866242214333314
4023.023023023023 0.38358052435449547
4033.033033033033 0.3805660076810572
4043.043043043043 0.3775803521584133
4053.053053053053 0.37462324222849847
4063.063063063063 0.37169436598268557
4073.073073073073 0.3687934151158916
4083.0830830830832 0.3659200848818229
4093.093093093093 0.3630740740492928
4103.103103103103 0.36025508485954927
4113.113113113113 0.3574628229845623
4123.123123123123 0.35469699748620465
4133.133133133133 0.3519573207762889
4143.143143143143 0.34924350857740266
4153.153153153153 0.34655527988450313
4163.163163163163 0.3438923569272248
4173.173173173173 0.34125446513286545
4183.183183183183 0.3386413330900102
4193.193193193193 0.33605269251276076
4203.203203203203 0.33348827820553734
4213.213213213214 0.33094782802842554
4223.223223223224 0.3284310828630368
4233.2332332332335 0.3259377865788586
4243.243243243243 0.32346768600007214
4253.253253253253 0.32102053087281046
4263.263263263263 0.31859607383284233
4273.273273273273 0.31619407037365804
4283.283283283283 0.3138142788149414
4293.293293293293 0.3114564602714125
4303.303303303303 0.3091203786220239
4313.313313313313 0.3068058004794995
4323.323323323323 0.30451249516019946
4333.333333333334 0.30224023465430344
4343.343343343344 0.2999887935962996
4353.353353353354 0.29775794923576887
4363.3633633633635 0.2955474814084575
4373.373373373373 0.29335717250762783
4383.383383383383 0.2911868074556813
4393.393393393393 0.2890361736760466
4403.403403403403 0.28690506106532654
4413.413413413413 0.2847932619656969
4423.423423423424 0.28270057113755653
4433.4334334334335 0.2806267857324189
4443.443443443443 0.2785717052660441
4453.453453453454 0.2765351315918072
4463.463463463464 0.2745168688743012
4473.473473473474 0.27251672356316575
4483.483483483484 0.27053450436714876
4493.493493493494 0.2685700222283894
4503.503503503503 0.26662309029692577
4513.513513513513 0.2646935239054244
4523.523523523523 0.2627811405441279
4533.533533533533 0.26088575983602413
4543.543543543543 0.25900720351222917
4553.553553553554 0.25714529538758857
4563.563563563564 0.25529986133649435
4573.573573573573 0.2534707292689144
4583.583583583584 0.25165772910663775
4593.593593593594 0.24986069275973216
4603.603603603604 0.24807945410321341
4613.613613613614 0.246313848953929
4623.623623623624 0.24456371504765112
4633.6336336336335 0.24282889201638233
4643.643643643643 0.24110922136587243
4653.653653653653 0.2394045464533448
4663.663663663663 0.23771471246543405
4673.673673673674 0.2360395663963326
4683.683683683684 0.23437895702614928
4693.693693693694 0.23273273489947352
4703.703703703704 0.23110075230415264
4713.713713713714 0.2294828632502751
4723.723723723724 0.2278789234493634
4733.733733733734 0.22628879029377424
4743.743743743744 0.22471232283630707
4753.753753753754 0.22314938177001972
4763.763763763764 0.2215998294082503
4773.773773773773 0.22006352966484485
4783.783783783783 0.21854034803459316
4793.793793793793 0.21703015157386685
4803.803803803804 0.2155328088814636
4813.813813813814 0.21404819007965548
4823.823823823824 0.21257616679544017
4833.833833833834 0.21111661214199426
4843.843843843844 0.20966940070033016
4853.853853853854 0.20823440850115188
4863.863863863864 0.2068115130069132
4873.873873873874 0.2054005930940734
4883.883883883884 0.20400152903555324
4893.893893893894 0.20261420248338735
4903.9039039039035 0.2012384964515737
4913.913913913913 0.19987429529911885
4923.923923923924 0.19852148471327696
4933.933933933934 0.1971799516929844
4943.943943943944 0.19584958453248363
4953.953953953955 0.19453027280514087
4963.9639639639645 0.19322190734745354
4973.973973973974 0.19192438024324493
4983.983983983984 0.19063758480804877
4993.993993993994 0.1893614155736782
5004.004004004004 0.18809576827298113
5014.014014014014 0.18684053982477927
5024.024024024024 0.1855956283189881
5034.0340340340335 0.18436093300192047
5044.044044044043 0.18313635426176716
5054.054054054054 0.18192179361425792
5064.064064064064 0.18071715368849767
5074.074074074074 0.1795223382129791
5084.084084084085 0.17833725200176825
5094.0940940940945 0.17716180094086387
5104.104104104104 0.17599589197472587
5114.114114114114 0.1748394330929744
5124.124124124124 0.17369233331725664
5134.134134134134 0.17255450268827935
5144.144144144144 0.1714258522530065
5154.154154154154 0.17030629405202
5164.1641641641645 0.16919574110704186
5174.174174174174 0.16809410740861686
5184.184184184184 0.1670013079039529
5194.194194194194 0.16591725848491828
5204.204204204204 0.16484187597619493
5214.214214214214 0.16377507812358436
5224.224224224225 0.16271678358246597
5234.2342342342345 0.16166691190640572
5244.244244244244 0.16062538353591332
5254.254254254254 0.15959211978734714
5264.264264264264 0.15856704284196335
5274.274274274274 0.15755007573511107
5284.284284284285 0.15654114234556746
5294.294294294295 0.1555401673850155
5304.304304304304 0.15454707638765897
5314.314314314314 0.153561795699977
5324.324324324324 0.15258425247061203
5334.334334334334 0.15161437464039476
5344.344344344345 0.15065209093249898
5354.354354354355 0.14969733084273024
5364.3643643643645 0.14875002462994133
5374.374374374374 0.14781010330657815
5384.384384384384 0.14687749862935023
5394.394394394394 0.14595214309002705
5404.404404404404 0.14503396990635692
5414.414414414415 0.14412291301310842
5424.424424424425 0.14321890705323156
5434.4344344344345 0.1423218873691375
5444.444444444444 0.1414317899940956
5454.454454454454 0.14054855164374674
5464.464464464464 0.13967210970773
5474.474474474475 0.13880240224142254
5484.484484484485 0.1379393679577907
5494.494494494495 0.13708294621935072
5504.504504504504 0.13623307703023838
5514.514514514514 0.13538970102838463
5524.524524524524 0.13455275947779805
5534.534534534535 0.13372219426095025
5544.544544544545 0.13289794787126494
5554.554554554555 0.1320799634057075
5564.5645645645645 0.13126818455747524
5574.574574574574 0.13046255560878642
5584.584584584584 0.12966302142376585
5594.594594594595 0.12886952744142668
5604.604604604605 0.12808201966874816
5614.614614614615 0.1273004446738445
5624.624624624625 0.12652474957922782
5634.6346346346345 0.12575488205516108
5644.644644644644 0.1249907903131005
5654.654654654654 0.12423242309922691
5664.664664664665 0.12347972968806316
5674.674674674675 0.12273265987617912
5684.684684684685 0.12199116397597946
5694.694694694695 0.12125519280957628
5704.704704704704 0.12052469770274354
5714.714714714714 0.11979963047895294
5724.724724724725 0.11907994345348967
5734.734734734735 0.11836558942764691
5744.744744744745 0.11765652168299866
5754.754754754755 0.1169526939757485
5764.764764764765 0.11625406053115481
5774.774774774774 0.11556057603802984
5784.784784784785 0.11487219564331251
5794.794794794795 0.11418887494671386
5804.804804804805 0.11351056999543344
5814.814814814815 0.11283723727894615
5824.824824824825 0.11216883372385912
5834.8348348348345 0.11150531668883555
5844.844844844845 0.11084664395958782
5854.854854854855 0.11019277374393521
5864.864864864865 0.10954366466692819
5874.874874874875 0.10889927576603682
5884.884884884885 0.10825956648640309
5894.894894894895 0.10762449667615509
5904.9049049049045 0.10699402658178431
5914.914914914915 0.10636811684358242
5924.924924924925 0.10574672849113931
5934.934934934935 0.10512982293889879
5944.944944944945 0.10451736198177448
5954.954954954955 0.10390930779082118
5964.964964964965 0.10330562290896445
5974.974974974975 0.10270627024678475
5984.984984984985 0.10211121307835769
5994.994994994995 0.10152041503714748
6005.005005005005 0.10093384011195425
6015.015015015015 0.1003514526429142
6025.025025025025 0.09977321731755127
6035.035035035035 0.09919909916687991
6045.045045045045 0.09862906356155879
6055.055055055055 0.09806307620809337
6065.065065065065 0.09750110314508796
6075.075075075075 0.0969431107395459
6085.085085085085 0.09638906568321717
6095.0950950950955 0.09583893498899301
6105.105105105105 0.09529268598734666
6115.115115115115 0.09475028632281939
6125.125125125125 0.09421170395055174
6135.135135135135 0.0936769071328589
6145.145145145145 0.09314586443584924
6155.155155155155 0.09261854472608652
6165.1651651651655 0.09209491716729364
6175.175175175175 0.09157495121709897
6185.185185185185 0.0910586166238227
6195.195195195195 0.09054588342330504
6205.205205205205 0.09003672193577313
6215.215215215215 0.08953110276274817
6225.225225225226 0.08902899678399112
6235.235235235235 0.08853037515448639
6245.245245245245 0.08803520930146361
6255.255255255255 0.08754347092145665
6265.265265265265 0.08705513197739861
6275.275275275275 0.08657016469575395
6285.285285285286 0.0860885415636853
6295.295295295296 0.08561023532625607
6305.305305305305 0.08513521898366697
6315.315315315315 0.08466346578852763
6325.325325325325 0.08419494924316072
