#lamb flux
1000.0 1.867706237958361e+39
1010.01001001001 1.9179072966813086e+39
1020.0200200200201 1.9647505694150812e+39
1030.03003003003 2.008298191128312e+39
1040.0400400400401 2.0486324322888888e+39
1050.05005005005 2.0858519355171732e+39
1060.06006006006 2.1200683041368676e+39
1070.07007007007 2.1514030482506393e+39
1080.08008008008 2.1799848831076892e+39
1090.0900900900901 2.205947366507082e+39
1100.1001001001 2.2294268563344773e+39
1110.11011011011 2.2505607656317806e+39
1120.1201201201202 2.2694860904615157e+39
1130.13013013013 2.2863381849112162e+39
1140.1401401401401 2.301249757596455e+39
1150.1501501501502 2.3143500647204248e+39
1160.16016016016 2.3257642759323912e+39
1170.1701701701702 2.3356129907348534e+39
1180.1801801801803 2.344011884891782e+39
1190.1901901901902 2.3510714680883317e+39
1200.2002002002002 2.356896935911194e+39
1210.2102102102103 2.3615881010027208e+39
1220.2202202202202 2.3652393899523036e+39
1230.2302302302303 2.3679398940988905e+39
1240.2402402402402 2.369773463913004e+39
1250.2502502502502 2.370708516722734e+39
1260.2602602602603 2.3704912434962725e+39
1270.2702702702702 2.3686050894732236e+39
1280.2802802802803 2.365145195548203e+39
1290.2902902902902 2.360204189525285e+39
1300.3003003003003 2.3538719592374037e+39
1310.3103103103103 2.3462354738250564e+39
1320.3203203203202 2.3373786477492474e+39
1330.3303303303303 2.327382242505025e+39
1340.3403403403404 2.316323801393532e+39
1350.3503503503503 2.304277613095958e+39
1360.3603603603603 2.2913147001664977e+39
1370.3703703703704 2.2775028289195708e+39
1380.3803803803803 2.2629065375265487e+39
1390.3903903903904 2.247587179457076e+39
1400.4004004004005 2.2316029796989255e+39
1410.4104104104103 2.2150091014676622e+39
1420.4204204204204 2.1978577213733067e+39
1430.4304304304305 2.1801981112460405e+39
1440.4404404404404 2.1620767250377016e+39
1450.4504504504505 2.1435372894108636e+39
1460.4604604604606 2.1246208968042352e+39
1470.4704704704704 2.1053660999225312e+39
1480.4804804804805 2.0858090067425975e+39
1490.4904904904906 2.0659833752560496e+39
1500.5005005005005 2.0459207072836763e+39
1510.5105105105106 2.0256503407993178e+39
1520.5205205205207 2.0051995402919706e+39
1530.5305305305305 1.9845935847757945e+39
1540.5405405405404 1.9638558531293863e+39
1550.5505505505505 1.9430079065093853e+39
1560.5605605605606 1.922069567639928e+39
1570.5705705705705 1.9010589968299904e+39
1580.5805805805805 1.8799927646158572e+39
1590.5905905905906 1.8588859209670525e+39
1600.6006006006005 1.8377520610318237e+39
1610.6106106106106 1.8166033874337795e+39
1620.6206206206207 1.7954507691653692e+39
1630.6306306306305 1.7743037971578393e+39
1640.6406406406406 1.7531708366418582e+39
1650.6506506506507 1.7320590764498705e+39
1660.6606606606606 1.710974575451114e+39
1670.6706706706707 1.689922306355276e+39
1680.6806806806808 1.6689061971719822e+39
1690.6906906906906 1.6479291706731012e+39
1700.7007007007007 1.6269970924993127e+39
1710.7107107107108 1.6061264745297093e+39
1720.7207207207207 1.5853152585585695e+39
1730.7307307307308 1.5645587087195964e+39
1740.7407407407409 1.5438516509175454e+39
1750.7507507507507 1.5231884865602545e+39
1760.7607607607606 1.5025632112785958e+39
1770.770770770771 1.4819694399981393e+39
1780.7807807807808 1.4614004399886008e+39
1790.7907907907907 1.4408491738177128e+39
1800.8008008008007 1.4203083544759865e+39
1810.8108108108108 1.3997705153168205e+39
1820.8208208208207 1.379228097867942e+39
1830.8308308308308 1.3586735610055547e+39
1840.8408408408409 1.3380995154249784e+39
1850.8508508508507 1.3174988877642606e+39
1860.8608608608608 1.2968651191003983e+39
1870.870870870871 1.2761924027846343e+39
1880.8808808808808 1.2554759666360764e+39
1890.890890890891 1.2347124042688016e+39
1900.900900900901 1.2139000596560024e+39
1910.9109109109108 1.1930394677757325e+39
1920.920920920921 1.1721338521509646e+39
1930.930930930931 1.1511896770899833e+39
1940.940940940941 1.1302172482523458e+39
1950.950950950951 1.1092313496458212e+39
1960.960960960961 1.0882518982175838e+39
1970.970970970971 1.0673045889003311e+39
1980.980980980981 1.0464214935958242e+39
1990.9909909909911 1.025641567715328e+39
2001.001001001001 1.0050110085170125e+39
2011.0110110110109 9.845834019656302e+38
2021.0210210210212 9.644195909469423e+38
2031.031031031031 9.445871993894568e+38
2041.0410410410411 9.251597561280453e+38
2051.051051051051 9.062153806858466e+38
2061.061061061061 8.878350210980284e+38
2071.071071071071 8.701002705515372e+38
2081.081081081081 8.530908322710433e+38
2091.091091091091 8.368817462155505e+38
2101.101101101101 8.215405308106349e+38
2111.1111111111113 8.071244216275724e+38
2121.121121121121 7.936779008127386e+38
2131.131131131131 7.812307023456673e+38
2141.141141141141 7.697964480889102e+38
2151.151151151151 7.593720208229093e+38
2161.161161161161 7.499377189636851e+38
2171.1711711711714 7.414581715120792e+38
2181.1811811811813 7.338839296701536e+38
2191.191191191191 7.271536011810046e+38
2201.201201201201 7.21196360208927e+38
2211.2112112112113 7.159346518743484e+38
2221.221221221221 7.112869157354638e+38
2231.2312312312315 7.071701733949716e+38
2241.2412412412414 7.035023572310886e+38
2251.2512512512512 7.002042946558489e+38
2261.261261261261 6.972013002784699e+38
2271.271271271271 6.944243628795539e+38
2281.2812812812813 6.918109424948011e+38
2291.2912912912916 6.89305413843387e+38
2301.3013013013015 6.868592056767608e+38
2311.3113113113113 6.844306921000244e+38
2321.321321321321 6.819848927873594e+38
2331.331331331331 6.794930357449865e+38
2341.3413413413414 6.7693203031175446e+38
2351.3513513513512 6.742838906862361e+38
2361.3613613613616 6.715351424250748e+38
2371.3713713713714 6.686762367849638e+38
2381.3813813813813 6.6570099093724965e+38
2391.391391391391 6.626060662141478e+38
2401.4014014014015 6.5939049173273455e+38
2411.4114114114113 6.560552369603349e+38
2421.4214214214217 6.52602833937626e+38
2431.4314314314315 6.490370478337383e+38
2441.4414414414414 6.453625931294245e+38
2451.4514514514512 6.415848918729451e+38
2461.4614614614616 6.377098700047184e+38
2471.4714714714714 6.337437875949081e+38
2481.4814814814818 6.296930988954448e+38
2491.4914914914916 6.2556433830511165e+38
2501.5015015015015 6.213640286297494e+38
2511.5115115115113 6.170986083495239e+38
2521.521521521521 6.127743749528279e+38
2531.5315315315315 6.083974417418474e+38
2541.541541541542 6.039737058450515e+38
2551.5515515515517 5.9950882547880444e+38
2561.5615615615616 5.950082047797122e+38
2571.5715715715714 5.904769847795166e+38
2581.5815815815813 5.859200393154256e+38
2591.5915915915916 5.813419748620431e+38
2601.6016016016015 5.767471334384648e+38
2611.611611611612 5.721395978879822e+38
2621.6216216216217 5.675231989506662e+38
2631.6316316316315 5.6290152365330924e+38
2641.6416416416414 5.582779246291824e+38
2651.6516516516517 5.536555300539073e+38
2661.6616616616616 5.490372539455066e+38
2671.671671671672 5.4442580662806825e+38
2681.6816816816818 5.3982370520103896e+38
2691.6916916916916 5.3523328389128205e+38
2701.7017017017015 5.3065670419387724e+38
2711.711711711712 5.260959647312226e+38
2721.7217217217217 5.215529107791708e+38
2731.731731731732 5.170292434244273e+38
2741.741741741742 5.125265283299165e+38
2751.7517517517517 5.080462040947344e+38
2761.7617617617616 5.0358959020318915e+38
2771.7717717717715 4.991578945635541e+38
2781.781781781782 4.94752220641921e+38
2791.791791791792 4.9037357420014234e+38
2801.801801801802 4.8602286964951506e+38
2811.811811811812 4.817009360337948e+38
2821.8218218218217 4.774085226564478e+38
2831.8318318318316 4.7314630436787055e+38
2841.841841841842 4.6891488652878005e+38
2851.851851851852 4.647148096661153e+38
2861.861861861862 4.605465538377129e+38
2871.871871871872 4.564105427217598e+38
2881.881881881882 4.5230714744662674e+38
2891.8918918918916 4.482366901761926e+38
2901.901901901902 4.441994474651971e+38
2911.911911911912 4.401956533985557e+38
2921.921921921922 4.362255025279172e+38
2931.931931931932 4.322891526181002e+38
2941.941941941942 4.283867272153721e+38
2951.9519519519517 4.245183180488959e+38
2961.961961961962 4.206839872760193e+38
2971.971971971972 4.168837695814629e+38
2981.9819819819822 4.1311767413986494e+38
2991.991991991992 4.093856864505592e+38
3002.002002002002 4.0568777005291726e+38
3012.012012012012 4.020238681300584e+38
3022.0220220220217 3.983939050082309e+38
3032.032032032032 3.9574308384728656e+38
3042.0420420420423 3.9205795576294e+38
3052.052052052052 3.883747964591671e+38
3062.062062062062 3.8470285119542436e+38
3072.072072072072 3.8104996472969446e+38
3082.0820820820823 3.7742273601829404e+38
3092.092092092092 3.738266594989177e+38
3102.102102102102 3.702662536147513e+38
3112.1121121121123 3.6674517731920274e+38
3122.122122122122 3.6326633534627355e+38
3132.132132132132 3.598319730493026e+38
3142.1421421421423 3.564437616076261e+38
3152.152152152152 3.531028743821392e+38
3162.162162162162 3.498100551713051e+38
3172.1721721721724 3.465656790822727e+38
3182.1821821821823 3.4336980669023896e+38
3192.192192192192 3.4022223211509365e+38
3202.202202202202 3.3712252559934634e+38
3212.2122122122123 3.3407007112652904e+38
3222.222222222222 3.3106409957558098e+38
3232.232232232232 3.2810371786475572e+38
3242.2422422422424 3.2518793449875553e+38
3252.252252252252 3.2231568189533808e+38
3262.262262262262 3.194858358327015e+38
3272.2722722722724 3.1669723232656535e+38
3282.2822822822823 3.1394868221600942e+38
3292.292292292292 3.1123898370973063e+38
3302.3023023023025 3.0856693311933905e+38
3312.3123123123123 3.0593133398348986e+38
3322.322322322322 3.0333100476592604e+38
3332.3323323323325 3.0076478529170702e+38
3342.3423423423424 2.98231542068918e+38
3352.352352352352 2.957301726277946e+38
3362.3623623623625 2.9325960899538227e+38
3372.3723723723724 2.9081882041138063e+38
3382.3823823823823 2.8840681537961474e+38
3392.3923923923926 2.860226431395228e+38
3402.4024024024025 2.836653946329816e+38
3412.4124124124123 2.8133420303368597e+38
3422.4224224224226 2.790282438990053e+38
3432.4324324324325 2.7674673499770744e+38
3442.4424424424424 2.7448893586107104e+38
3452.4524524524522 2.7225414709965775e+38
3462.4624624624626 2.700417095232933e+38
3472.4724724724724 2.678510030975859e+38
3482.4824824824823 2.656814457665086e+38
3492.4924924924926 2.6353249216718372e+38
3502.5025025025025 2.6140363225994624e+38
3512.5125125125123 2.5929438989403467e+38
3522.5225225225226 2.5720432132680178e+38
3532.5325325325325 2.5513301371213376e+38
3542.5425425425424 2.530800835717973e+38
3552.5525525525527 2.5104517526165843e+38
3562.5625625625626 2.4902795944313367e+38
3572.5725725725724 2.47028131568805e+38
3582.5825825825827 2.4504541038986358e+38
3592.5925925925926 2.430795364918972e+38
3602.6026026026025 2.411302708645194e+38
3612.612612612613 2.391973935094235e+38
3622.6226226226227 2.372807020906291e+38
3632.6326326326325 2.3538001062996003e+38
3642.642642642643 2.3349514825014903e+38
3652.6526526526527 2.3162595796738263e+38
3662.6626626626626 2.2977229553459254e+38
3672.672672672673 2.279340283363509e+38
3682.6826826826828 2.26111034335823e+38
3692.6926926926926 2.2430320107388496e+38
3702.7027027027025 2.2251042472020584e+38
3712.712712712713 2.2073260917582907e+38
3722.7227227227227 2.189696652265567e+38
3732.7327327327325 2.1722150974623706e+38
3742.742742742743 2.154880649488967e+38
3752.7527527527527 2.1376925768850444e+38
3762.7627627627626 2.1206501880504366e+38
3772.772772772773 2.1037528251546746e+38
3782.7827827827828 2.0869998584803555e+38
3792.7927927927926 2.0703906811846825e+38
3802.802802802803 2.0539247044631046e+38
3812.812812812813 2.0376013530986315e+38
3822.8228228228227 2.0214200613802418e+38
3832.832832832833 2.0053802693737057e+38
3842.842842842843 1.9894814195281315e+38
3852.8528528528527 1.973722953601687e+38
3862.862862862863 1.9581043098900828e+38
3872.872872872873 1.9426249207416645e+38
3882.8828828828828 1.9272842103432092e+38
3892.892892892893 1.9120815927609623e+38
3902.902902902903 1.8970164702216848e+38
3912.912912912913 1.8820882316190306e+38
3922.922922922923 1.8672962512309302e+38
3932.932932932933 1.8526398876341786e+38
3942.942942942943 1.83811848280284e+38
3952.9529529529527 1.8237313613776507e+38
3962.962962962963 1.8094778300940588e+38
3972.972972972973 1.7953571773570613e+38
3982.982982982983 1.7813686729515006e+38
3992.992992992993 1.7675115678770074e+38
4003.003003003003 1.7537850942973117e+38
4013.013013013013 1.740188465594045e+38
4023.023023023023 1.7267208765157936e+38
4033.033033033033 1.713381503413533e+38
4043.043043043043 1.7001695045541113e+38
4053.053053053053 1.687084020503893e+38
4063.063063063063 1.6741241745751367e+38
4073.073073073073 1.6612890733281056e+38
4083.0830830830832 1.6485778071223565e+38
4093.093093093093 1.6359894507110448e+38
4103.103103103103 1.6235230638724794e+38
4113.113113113113 1.611177692073578e+38
4123.123123123123 1.5989523671601644e+38
4133.133133133133 1.5868461080694974e+38
4143.143143143143 1.5748579215606694e+38
4153.153153153153 1.5629868029588934e+38
4163.163163163163 1.551231736909952e+38
4173.173173173173 1.5395916981414325e+38
4183.183183183183 1.5280656522275866e+38
4193.193193193193 1.5166525563549545e+38
4203.203203203203 1.5053513600861294e+38
4213.213213213214 1.4941610061192738e+38
4223.223223223224 1.4830804310412125e+38
4233.2332332332335 1.4721085660721427e+38
4243.243243243243 1.4612443378002001e+38
4253.253253253253 1.4504866689043013e+38
4263.263263263263 1.4398344788638473e+38
4273.273273273273 1.4292866846540435e+38
4283.283283283283 1.4188422014257456e+38
4293.293293293293 1.4084999431688746e+38
4303.303303303303 1.3982588233585668e+38
4313.313313313313 1.388117755583381e+38
4323.323323323323 1.3780756541549416e+38
4333.333333333334 1.3681314346985716e+38
4343.343343343344 1.358284014724501e+38
4353.353353353354 1.348532314179365e+38
4363.3633633633635 1.3388752559777801e+38
4373.373373373373 1.3293117665138617e+38
4383.383383383383 1.3198407761525994e+38
4393.393393393393 1.310461219701109e+38
4403.403403403403 1.301172036859794e+38
4413.413413413413 1.2919721726535272e+38
4423.423423423424 1.282860577843013e+38
4433.4334334334335 1.2738362093165166e+38
4443.443443443443 1.264898030462195e+38
4453.453453453454 1.256045011521304e+38
4463.463463463464 1.2472761299225858e+38
4473.473473473474 1.2385903705981333e+38
4483.483483483484 1.2299867262811304e+38
4493.493493493494 1.2214641977857889e+38
4503.503503503503 1.2130217942699128e+38
4513.513513513513 1.2046585334804636e+38
4523.523523523523 1.1963734419825544e+38
4533.533533533533 1.188165555372315e+38
4543.543543543543 1.1800339184740294e+38
4553.553553553554 1.1719775855220214e+38
4563.563563563564 1.1639956203277226e+38
4573.573573573573 1.1560870964323606e+38
4583.583583583584 1.1482510972457428e+38
4593.593593593594 1.1404867161715712e+38
4603.603603603604 1.1327930567197394e+38
4613.613613613614 1.1251692326060802e+38
4623.623623623624 1.1176143678399752e+38
4633.6336336336335 1.1101275968003079e+38
4643.643643643643 1.1027080643001699e+38
4653.653653653653 1.095354925640763e+38
4663.663663663663 1.0880673466549268e+38
4673.673673673674 1.0808445037406993e+38
4683.683683683684 1.0736855838853422e+38
4693.693693693694 1.066589784680212e+38
4703.703703703704 1.0595563143268958e+38
4713.713713713714 1.0525843916349904e+38
4723.723723723724 1.0456732460119019e+38
4733.733733733734 1.0388221174450417e+38
4743.743743743744 1.0320302564767894e+38
4753.753753753754 1.0252969241725582e+38
4763.763763763764 1.018621392082327e+38
4773.773773773773 1.0120029421959528e+38
4783.783783783783 1.0054408668926188e+38
4793.793793793793 9.989344688847025e+37
4803.803803803804 9.924830611563944e+37
4813.813813813814 9.860859668973583e+37
4823.823823823824 9.7974251943172e+37
4833.833833833834 9.734520621426664e+37
4843.843843843844 9.6721394839293e+37
4853.853853853854 9.610275414414125e+37
4863.863863863864 9.548922143562092e+37
4873.873873873874 9.488073499242726e+37
4883.883883883884 9.427723405579568e+37
4893.893893893894 9.367865881986666e+37
4903.9039039039035 9.308495042178317e+37
4913.913913913913 9.249605093154171e+37
4923.923923923924 9.191190334161738e+37
4933.933933933934 9.13324515563831e+37
4943.943943943944 9.07576403813401e+37
4953.953953953955 9.018741551218e+37
4963.9639639639645 8.96217235236945e+37
4973.973973973974 8.906051185854895e+37
4983.983983983984 8.850372881593719e+37
4993.993993993994 8.795132354013177e+37
5004.004004004004 8.740324600894447e+37
5014.014014014014 8.685944702211164e+37
5024.024024024024 8.631987818961647e+37
5034.0340340340335 8.578449191996308e+37
5044.044044044043 8.52532414084122e+37
5054.054054054054 8.472608062519191e+37
5064.064064064064 8.4202964303694e+37
5074.074074074074 8.36838479286657e+37
5084.084084084085 8.316868772440827e+37
5094.0940940940945 8.265744064299101e+37
5104.104104104104 8.215006435248986e+37
5114.114114114114 8.164651722525941e+37
5124.124124124124 8.1146758326246575e+37
5134.134134134134 8.065074740135335e+37
5144.144144144144 8.015844486585585e+37
5154.154154154154 7.966981179288718e+37
5164.1641641641645 7.918480990198973e+37
5174.174174174174 7.870340154774381e+37
5184.184184184184 7.822554970847773e+37
5194.194194194194 7.775121797506496e+37
5204.204204204204 7.728037053981411e+37
5214.214214214214 7.681297218545485e+37
5224.224224224225 7.634898827422589e+37
5234.2342342342345 7.588838473706806e+37
5244.244244244244 7.543112806292671e+37
5254.254254254254 7.497718528816687e+37
5264.264264264264 7.452652398610427e+37
5274.274274274274 7.407911225665605e+37
5284.284284284285 7.363491871611234e+37
5294.294294294295 7.319391248703312e+37
5304.304304304304 7.275606318827067e+37
5314.314314314314 7.232134092512197e+37
5324.324324324324 7.188971627961024e+37
5334.334334334334 7.146116030090007e+37
5344.344344344345 7.103564449584492e+37
5354.354354354355 7.061314081967078e+37
5364.3643643643645 7.01936216667948e+37
5374.374374374374 6.977705986178185e+37
5384.384384384384 6.936342865043806e+37
5394.394394394394 6.895270169104328e+37
5404.404404404404 6.854485304572201e+37
5414.414414414415 6.8139857171953765e+37
5424.424424424425 6.773768891422291e+37
5434.4344344344345 6.73383234958073e+37
5444.444444444444 6.6941736510707055e+37
5454.454454454454 6.654790391571226e+37
5464.464464464464 6.61568020226095e+37
5474.474474474475 6.576840749052713e+37
5484.484484484485 6.538269731841852e+37
5494.494494494495 6.499964883768286e+37
5504.504504504504 6.461923970492284e+37
5514.514514514514 6.424144789483835e+37
5524.524524524524 6.386625169325563e+37
5534.534534534535 6.349362969029066e+37
5544.544544544545 6.312356077364611e+37
5554.554554554555 6.275602412204047e+37
5564.5645645645645 6.239099919876873e+37
5574.574574574574 6.202846574539312e+37
5584.584584584584 6.16684037755628e+37
5594.594594594595 6.131079356896102e+37
5604.604604604605 6.095561566537938e+37
5614.614614614615 6.060285085891615e+37
5624.624624624625 6.025248019229903e+37
5634.6346346346345 5.99044849513299e+37
5644.644644644644 5.955884665945023e+37
5654.654654654654 5.921554707242619e+37
5664.664664664665 5.887456817315083e+37
5674.674674674675 5.853589216656351e+37
5684.684684684685 5.819950147468311e+37
5694.694694694695 5.78653787317548e+37
5704.704704704704 5.753350677950832e+37
5714.714714714714 5.720386866252587e+37
5724.724724724725 5.687644762371865e+37
5734.734734734735 5.655122709990959e+37
5744.744744744745 5.622819071752127e+37
5754.754754754755 5.590732228836707e+37
5764.764764764765 5.558860580554393e+37
5774.774774774774 5.527202543942505e+37
5784.784784784785 5.495756553375084e+37
5794.794794794795 5.464521060181646e+37
5804.804804804805 5.433494532275423e+37
5814.814814814815 5.402675453790928e+37
5824.824824824825 5.372062324730685e+37
5834.8348348348345 5.3416536606209105e+37
5844.844844844845 5.311447992176076e+37
5854.854854854855 5.281443864972068e+37
5864.864864864865 5.251639839127853e+37
5874.874874874875 5.222034488995497e+37
5884.884884884885 5.192626402858304e+37
5894.894894894895 5.163414182636977e+37
