#lamb flux
1000.0 3.674247533864681e+40
1010.01001001001 3.843554424807131e+40
1020.0200200200201 4.0071209396925126e+40
1030.03003003003 4.164663574097877e+40
1040.0400400400401 4.3159866659491356e+40
1050.05005005005 4.460973599249605e+40
1060.06006006006 4.599577913332006e+40
1070.07007007007 4.73181455793104e+40
1080.08008008008 4.857751476970988e+40
1090.0900900900901 4.977501653925147e+40
1100.1001001001 5.091215709102853e+40
1110.11011011011 5.199075104000924e+40
1120.1201201201202 5.301285979388871e+40
1130.13013013013 5.398073631392568e+40
1140.1401401401401 5.48967761273401e+40
1150.1501501501502 5.576347433701129e+40
1160.16016016016 5.658338828615877e+40
1170.1701701701702 5.735910547853458e+40
1180.1801801801803 5.809321632224798e+40
1190.1901901901902 5.87882912522969e+40
1200.2002002002002 5.944686178860338e+40
1210.2102102102103 6.007140509897836e+40
1220.2202202202202 6.066433165681034e+40
1230.2302302302303 6.122797560880862e+40
1240.2402402402402 6.176458749680974e+40
1250.2502502502502 6.227217618394057e+40
1260.2602602602603 6.274028956013729e+40
1270.2702702702702 6.314815696117195e+40
1280.2802802802803 6.349799942367813e+40
1290.2902902902902 6.379208020072991e+40
1300.3003003003003 6.4032686694150525e+40
1310.3103103103103 6.422211443693223e+40
1320.3203203203202 6.4362652994297985e+40
1330.3303303303303 6.44565736479729e+40
1340.3403403403404 6.4506118727220095e+40
1350.3503503503503 6.451349245155346e+40
1360.3603603603603 6.448085315324826e+40
1370.3703703703704 6.441030675239095e+40
1380.3803803803803 6.430390136287497e+40
1390.3903903903904 6.416362291414215e+40
1400.4004004004005 6.399139168033303e+40
1410.4104104104103 6.378905961563652e+40
1420.4204204204204 6.35584084018423e+40
1430.4304304304305 6.330114812126845e+40
1440.4404404404404 6.301891647525705e+40
1450.4504504504505 6.271327847521686e+40
1460.4604604604606 6.238572653969462e+40
1470.4704704704704 6.203768093712651e+40
1480.4804804804805 6.167049051974207e+40
1490.4904904904906 6.128543369954211e+40
1500.5005005005005 6.088371962235426e+40
1510.5105105105106 6.046648950068412e+40
1520.5205205205207 6.003481807044085e+40
1530.5305305305305 5.958971514063535e+40
1540.5405405405404 5.913212720885174e+40
1550.5505505505505 5.866293911869993e+40
1560.5605605605606 5.818297573859121e+40
1570.5705705705705 5.769300364407824e+40
1580.5805805805805 5.71937327886842e+40
1590.5905905905906 5.66858181506557e+40
1600.6006006006005 5.616986134544209e+40
1610.6106106106106 5.564641219596772e+40
1620.6206206206207 5.511597025496364e+40
1630.6306306306305 5.457898627581171e+40
1640.6406406406406 5.403586363056489e+40
1650.6506506506507 5.3486959676112485e+40
1660.6606606606606 5.293258707189992e+40
1670.6706706706707 5.237301505527493e+40
1680.6806806806808 5.180847068347683e+40
1690.6906906906906 5.123914005460785e+40
1700.7007007007007 5.066534402139608e+40
1710.7107107107108 5.0087883306951675e+40
1720.7207207207207 4.950673407741536e+40
1730.7307307307308 4.892175413708978e+40
1740.7407407407409 4.833278272871213e+40
1750.7507507507507 4.773964120095258e+40
1760.7607607607606 4.714213394228746e+40
1770.770770770771 4.654004964605929e+40
1780.7807807807808 4.593316298336429e+40
1790.7907907907907 4.532123677374888e+40
1800.8008008008007 4.470402475850228e+40
1810.8108108108108 4.408127509743914e+40
1820.8208208208207 4.3452734727113966e+40
1830.8308308308308 4.281815473578851e+40
1840.8408408408409 4.2177296927203124e+40
1850.8508508508507 4.15299417598428e+40
1860.8608608608608 4.087589785887197e+40
1870.870870870871 4.021501330142348e+40
1880.8808808808808 3.954718886873878e+40
1890.890890890891 3.8872393436013274e+40
1900.900900900901 3.819068162688268e+40
1910.9109109109108 3.75022137874642e+40
1920.920920920921 3.680727822723875e+40
1930.930930930931 3.6106315523228303e+40
1940.940940940941 3.5399944483288797e+40
1950.950950950951 3.468898910987221e+40
1960.960960960961 3.3974505598071375e+40
1970.970970970971 3.325780804941781e+40
1980.980980980981 3.2540491204578832e+40
1990.9909909909911 3.1824448125954944e+40
2001.001001001001 3.111188044242359e+40
2011.0110110110109 3.0405298564826547e+40
2021.0210210210212 2.9707509264393186e+40
2031.031031031031 2.9021588250970813e+40
2041.0410410410411 2.8350835955594123e+40
2051.051051051051 2.769871564504338e+40
2061.061061061061 2.7068774259320317e+40
2071.071071071071 2.6464547889040693e+40
2081.081081081081 2.5889455454615073e+40
2091.091091091091 2.534668571254937e+40
2101.101101101101 2.4839083966933397e+40
2111.1111111111113 2.4369045588616576e+40
2121.121121121121 2.3938423480741255e+40
2131.131131131131 2.3548455913755223e+40
2141.141141141141 2.3199719738853885e+40
2151.151151151151 2.2892112040017723e+40
2161.161161161161 2.2624861045913506e+40
2171.1711711711714 2.239656487223156e+40
2181.1811811811813 2.2205254664582486e+40
2191.191191191191 2.2048477166489465e+40
2201.201201201201 2.1923390769052873e+40
2211.2112112112113 2.1826868743560955e+40
2221.221221221221 2.1755603572551506e+40
2231.2312312312315 2.1706206976733892e+40
2241.2412412412414 2.1675301247755566e+40
2251.2512512512512 2.1659598691154836e+40
2261.261261261261 2.1655967219127054e+40
2271.271271271271 2.1661481290960121e+40
2281.2812812812813 2.1673458393997762e+40
2291.2912912912916 2.1689482038501664e+40
2301.3013013013015 2.170741278744173e+40
2311.3113113113113 2.1725389165838448e+40
2321.321321321321 2.174182042196491e+40
2331.331331331331 2.1755373083767075e+40
2341.3413413413414 2.1764953111341723e+40
2351.3513513513512 2.1769685231386574e+40
2361.3613613613616 2.176889078776832e+40
2371.3713713713714 2.176206518183088e+40
2381.3813813813813 2.1748855727029314e+40
2391.391391391391 2.1729040517935108e+40
2401.4014014014015 2.1702508720611858e+40
2411.4114114114113 2.1669242532189658e+40
2421.4214214214217 2.1629300931327194e+40
2431.4314314314315 2.1582805245259962e+40
2441.4414414414414 2.1529926489320457e+40
2451.4514514514512 2.1470874386821083e+40
2461.4614614614616 2.1405887946723608e+40
2471.4714714714714 2.1335227459663337e+40
2481.4814814814818 2.1259167766234245e+40
2491.4914914914916 2.1177992652126467e+40
2501.5015015015015 2.1091990230434772e+40
2511.5115115115113 2.1001449180423034e+40
2521.521521521521 2.0906655722864792e+40
2531.5315315315315 2.0807891223773309e+40
2541.541541541542 2.0705430330167596e+40
2551.5515515515517 2.0599539553003095e+40
2561.5615615615616 2.049047622321303e+40
2571.5715715715714 2.0378487756774263e+40
2581.5815815815813 2.026381117373941e+40
2591.5915915915916 2.0146672824243828e+40
2601.6016016016015 2.0027288281621854e+40
2611.611611611612 1.9905862369003793e+40
2621.6216216216217 1.978258929118026e+40
2631.6316316316315 1.965765284818949e+40
2641.6416416416414 1.953122671108587e+40
2651.6516516516517 1.9403474743759015e+40
2661.6616616616616 1.9274551357567377e+40
2671.671671671672 1.914460188799431e+40
2681.6816816816818 1.90137629845903e+40
2691.6916916916916 1.8882163007186082e+40
2701.7017017017015 1.8749922422798087e+40
2711.711711711712 1.8617154198840437e+40
2721.7217217217217 1.848396418924542e+40
2731.731731731732 1.8350451510907715e+40
2741.741741741742 1.8216708908535114e+40
2751.7517517517517 1.8082823106532884e+40
2761.7617617617616 1.7948875146990927e+40
2771.7717717717715 1.7814940713198748e+40
2781.781781781782 1.7681090438398706e+40
2791.791791791792 1.7547390199713868e+40
2801.801801801802 1.7413901397363722e+40
2811.811811811812 1.7280681219418686e+40
2821.8218218218217 1.7147782892448044e+40
2831.8318318318316 1.7015255918493274e+40
2841.841841841842 1.6883146298854274e+40
2851.851851851852 1.6751496745213364e+40
2861.861861861862 1.662034687864548e+40
2871.871871871872 1.648973341707495e+40
2881.881881881882 1.6359690351742382e+40
2891.8918918918916 1.623024911324108e+40
2901.901901901902 1.6101438727672883e+40
2911.911911911912 1.5973285963460083e+40
2921.921921921922 1.5845815469333033e+40
2931.931931931932 1.5719049903994665e+40
2941.941941941942 1.5593010057942625e+40
2951.9519519519517 1.5467714967908478e+40
2961.961961961962 1.5343182024352234e+40
2971.971971971972 1.521942707242786e+40
2981.9819819819822 1.5096464506814799e+40
2991.991991991992 1.4974307360788427e+40
3002.002002002002 1.4852967389882182e+40
3012.012012012012 1.4732455150473987e+40
3022.0220220220217 1.461278007361008e+40
3032.032032032032 1.4543709232817645e+40
3042.0420420420423 1.441930730203219e+40
3052.052052052052 1.4294084606285627e+40
3062.062062062062 1.4168538672483767e+40
3072.072072072072 1.4043094473976027e+40
3082.0820820820823 1.3918112210924891e+40
3092.092092092092 1.3793894473866724e+40
3102.102102102102 1.3670692803475939e+40
3112.1121121121123 1.3548713668758987e+40
3122.122122122122 1.3428123892204736e+40
3132.132132132132 1.3309055554427692e+40
3142.1421421421423 1.3191610413076583e+40
3152.152152152152 1.3075863871664627e+40
3162.162162162162 1.296186853385488e+40
3172.1721721721724 1.2849657377875138e+40
3182.1821821821823 1.273924658436426e+40
3192.192192192192 1.263063804923349e+40
3202.202202202202 1.2523821611196823e+40
3212.2122122122123 1.241877702158418e+40
3222.222222222222 1.231547568197575e+40
3232.232232232232 1.2213882173142872e+40
3242.2422422422424 1.2113955596788133e+40
3252.252252252252 1.201565074967346e+40
3262.262262262262 1.1918919147928165e+40
3272.2722722722724 1.1823709917647926e+40
3282.2822822822823 1.1729970566336994e+40
3292.292292292292 1.1637647648308835e+40
3302.3023023023025 1.1546687335843655e+40
3312.3123123123123 1.1457035906699148e+40
3322.322322322322 1.1368640157479116e+40
3332.3323323323325 1.1281447751374578e+40
3342.3423423423424 1.1195407507898703e+40
3352.352352352352 1.111046964143074e+40
3362.3623623623625 1.1026585954660048e+40
3372.3723723723724 1.0943709992370307e+40
3382.3823823823823 1.0861797160420138e+40
3392.3923923923926 1.0780804814254459e+40
3402.4024024024025 1.0700692320811812e+40
3412.4124124124123 1.0621421097275234e+40
3422.4224224224226 1.0542954629739406e+40
3432.4324324324325 1.0465258474532436e+40
3442.4424424424424 1.0388300244631486e+40
3452.4524524524522 1.0312049583343973e+40
3462.4624624624626 1.0236478127187238e+40
3472.4724724724724 1.016155945968561e+40
3482.4824824824823 1.0087269057612334e+40
3492.4924924924926 1.0013584231033044e+40
3502.5025025025025 9.940484058353458e+39
3512.5125125125123 9.867949317436972e+39
3522.5225225225226 9.795962413734477e+39
3532.5325325325325 9.724507306257776e+39
3542.5425425425424 9.653569432129206e+39
3552.5525525525527 9.583135630350427e+39
3562.5625625625626 9.513194065353398e+39
3572.5725725725724 9.443734150824371e+39
3582.5825825825827 9.374746474227035e+39
3592.5925925925926 9.306222722392471e+39
3602.6026026026025 9.238155608491285e+39
3612.612612612613 9.170538800656049e+39
3622.6226226226227 9.103366852479714e+39
3632.6326326326325 9.036635135577717e+39
3642.642642642643 8.970339774367133e+39
3652.6526526526527 8.904477583185714e+39
3662.6626626626626 8.839046005845895e+39
3672.672672672673 8.774043057694756e+39
3682.6826826826828 8.709467270228508e+39
3692.6926926926926 8.645317638290966e+39
3702.7027027027025 8.58159356986785e+39
3712.712712712713 8.518294838473807e+39
3722.7227227227227 8.455421538115321e+39
3732.7327327327325 8.392974040800803e+39
3742.742742742743 8.330952956559343e+39
3752.7527527527527 8.269359095920109e+39
3762.7627627627626 8.208193434797253e+39
3772.772772772773 8.147457081718414e+39
3782.7827827827828 8.087151247329724e+39
3792.7927927927926 8.027277216105497e+39
3802.802802802803 7.967836320187497e+39
3812.812812812813 7.908829915275586e+39
3822.8228228228227 7.850259358489651e+39
3832.832832832833 7.79212598812118e+39
3842.842842842843 7.734431105191875e+39
3852.8528528528527 7.677175956736555e+39
3862.862862862863 7.620361720727351e+39
3872.872872872873 7.563989492557034e+39
3882.8828828828828 7.508060272999818e+39
3892.892892892893 7.45257495756952e+39
3902.902902902903 7.397534327195971e+39
3912.912912912913 7.342939040142612e+39
3922.922922922923 7.288789625089845e+39
3932.932932932933 7.23508647531092e+39
3942.942942942943 7.181829843869105e+39
3952.9529529529527 7.12901983976743e+39
3962.962962962963 7.07665642498457e+39
3972.972972972973 7.0247394123328e+39
3982.982982982983 6.973268464076667e+39
3992.992992992993 6.922243091253359e+39
4003.003003003003 6.871662653638522e+39
4013.013013013013 6.821526360303567e+39
4023.023023023023 6.771833270713312e+39
4033.033033033033 6.722582296315173e+39
4043.043043043043 6.673772202573612e+39
4053.053053053053 6.6254016114061e+39
4063.063063063063 6.577469003979115e+39
4073.073073073073 6.529972723825141e+39
4083.0830830830832 6.482910980243852e+39
4093.093093093093 6.436281851952938e+39
4103.103103103103 6.390083290956086e+39
4113.113113113113 6.344313126597865e+39
4123.123123123123 6.298969069776985e+39
4133.133133133133 6.254048717291687e+39
4143.143143143143 6.209549556292577e+39
4153.153153153153 6.165468968820107e+39
4163.163163163163 6.121804236405544e+39
4173.173173173173 6.078552544716002e+39
4183.183183183183 6.035710988225508e+39
4193.193193193193 5.99327657489558e+39
4203.203203203203 5.951246230850239e+39
4213.213213213214 5.90961680503166e+39
4223.223223223224 5.868385073823833e+39
4233.2332332332335 5.827547745632903e+39
4243.243243243243 5.787101465413928e+39
4253.253253253253 5.74704281913474e+39
4263.263263263263 5.707368338168751e+39
4273.273273273273 5.668074503609289e+39
4283.283283283283 5.629157750498999e+39
4293.293293293293 5.59061447196868e+39
4303.303303303303 5.552441023280562e+39
4313.313313313313 5.514633725771856e+39
4323.323323323323 5.477188870694929e+39
4333.333333333334 5.4401027229512e+39
4343.343343343344 5.403371524716289e+39
4353.353353353354 5.3669914989545024e+39
4363.3633633633635 5.330958852821266e+39
4373.373373373373 5.295269780952459e+39
4383.383383383383 5.2599204686401e+39
4393.393393393393 5.22490709489412e+39
4403.403403403403 5.190225835390333e+39
4413.413413413413 5.1558728653050117e+39
4423.423423423424 5.121844362036783e+39
4433.4334334334335 5.0881365078167194e+39
4443.443443443443 5.054745492207825e+39
4453.453453453454 5.021667514495252e+39
4463.463463463464 4.9888987859688416e+39
4473.473473473474 4.9564355320995326e+39
4483.483483483484 4.924273994611703e+39
4493.493493493494 4.8924104334531715e+39
4503.503503503503 4.8608411286650936e+39
4513.513513513513 4.829562382153811e+39
4523.523523523523 4.798570519366895e+39
4533.533533533533 4.767861890875761e+39
4543.543543543543 4.737432873867063e+39
4553.553553553554 4.707279873545378e+39
4563.563563563564 4.677399324449544e+39
4573.573573573573 4.6477876916850806e+39
4583.583583583584 4.618441472075193e+39
4593.593593593594 4.589357195232787e+39
4603.603603603604 4.5605314245559335e+39
4613.613613613614 4.5319607581493155e+39
4623.623623623624 4.5036418296739654e+39
4633.6336336336335 4.47557130912787e+39
4643.643643643643 4.447745903559703e+39
4653.653653653653 4.4201623577181254e+39
4663.663663663663 4.3928174546389917e+39
4673.673673673674 4.365708016172722e+39
4683.683683683684 4.338830903454199e+39
4693.693693693694 4.312183017317291e+39
4703.703703703704 4.2857612986563126e+39
4713.713713713714 4.2595627287365047e+39
4723.723723723724 4.233584329455635e+39
4733.733733733734 4.207823163558787e+39
4743.743743743744 4.182276334808359e+39
4753.753753753754 4.1569409881112036e+39
4763.763763763764 4.1318143096048416e+39
4773.773773773773 4.106893526704585e+39
4783.783783783783 4.082175908113446e+39
4793.793793793793 4.057658763796516e+39
4803.803803803804 4.0333394449215786e+39
4813.813813813814 4.00921534376763e+39
4823.823823823824 3.9852838936028873e+39
4833.833833833834 3.961542568533889e+39
4843.843843843844 3.9379888833271985e+39
4853.853853853854 3.9146203932051693e+39
4863.863863863864 3.8914346936172326e+39
4873.873873873874 3.868429419988046e+39
4883.883883883884 3.8456022474438944e+39
4893.893893893894 3.822950890518576e+39
4903.9039039039035 3.800473102840068e+39
4913.913913913913 3.778166676799139e+39
4923.923923923924 3.7560294432011056e+39
4933.933933933934 3.734059270901847e+39
4943.943943943944 3.7122540664291044e+39
4953.953953953955 3.6906117735902066e+39
4963.9639639639645 3.669130373067143e+39
4973.973973973974 3.6478078819999613e+39
4983.983983983984 3.6266423535594684e+39
4993.993993993994 3.605631876510063e+39
5004.004004004004 3.5847745747635904e+39
5014.014014014014 3.564068606925052e+39
5024.024024024024 3.543512165830925e+39
5034.0340340340335 3.5231034780809e+39
5044.044044044043 3.5028408035637066e+39
5054.054054054054 3.482722434977778e+39
5064.064064064064 3.462746697347388e+39
5074.074074074074 3.4429119475349036e+39
5084.084084084085 3.4232165737497786e+39
5094.0940940940945 3.40365899505487e+39
5104.104104104104 3.384237660870611e+39
5114.114114114114 3.3649510504776e+39
5124.124124124124 3.345797672518126e+39
5134.134134134134 3.3267760644970584e+39
5144.144144144144 3.307884792282629e+39
5154.154154154154 3.289122449607506e+39
5164.1641641641645 3.270487657570585e+39
5174.174174174174 3.251979064139909e+39
5184.184184184184 3.233595343657072e+39
5194.194194194194 3.215335196343475e+39
5204.204204204204 3.1971973478087895e+39
5214.214214214214 3.179180548561913e+39
5224.224224224225 3.161283573524753e+39
5234.2342342342345 3.1435052215491085e+39
5244.244244244244 3.1258443149369235e+39
5254.254254254254 3.1082996989641674e+39
5264.264264264264 3.0908702414085725e+39
5274.274274274274 3.0735548320814803e+39
5284.284284284285 3.056352382363965e+39
5294.294294294295 3.039261824747472e+39
5304.304304304304 3.02228211237911e+39
5314.314314314314 3.0054122186118307e+39
5324.324324324324 2.988651136559577e+39
5334.334334334334 2.971997878657623e+39
5344.344344344345 2.9554514762281693e+39
5354.354354354355 2.9390109790513926e+39
5364.3643643643645 2.922675454941987e+39
5374.374374374374 2.9064439893313693e+39
5384.384384384384 2.890315684855599e+39
5394.394394394394 2.874289660949112e+39
5404.404404404404 2.858365053444349e+39
5414.414414414415 2.8425410141773417e+39
5424.424424424425 2.826816710599316e+39
5434.4344344344345 2.811191325394365e+39
5444.444444444444 2.79566405610323e+39
5454.454454454454 2.780234114753245e+39
5464.464464464464 2.764900727494458e+39
5474.474474474475 2.749663134241948e+39
5484.484484484485 2.734520588324378e+39
5494.494494494495 2.71947235613877e+39
5504.504504504504 2.7045177168115267e+39
5514.514514514514 2.6896559618656824e+39
5524.524524524524 2.674886394894402e+39
5534.534534534535 2.6602083312406903e+39
5544.544544544545 2.645621097683316e+39
5554.554554554555 2.6311240321289177e+39
5564.5645645645645 2.6167164833102805e+39
5574.574574574574 2.6023978104907502e+39
5584.584584584584 2.5881673831747477e+39
5594.594594594595 2.5740245808243456e+39
5604.604604604605 2.5599687925819022e+39
5614.614614614615 2.545999416998644e+39
5624.624624624625 2.5321158617692237e+39
5634.6346346346345 2.5183175434721567e+39
5644.644644644644 2.5046038873160986e+39
5654.654654654654 2.4909743268919252e+39
5664.664664664665 2.4774283039305228e+39
5674.674674674675 2.4639652680662887e+39
5684.684684684685 2.450584676606203e+39
5694.694694694695 2.4372859943044853e+39
5704.704704704704 2.4240686931427253e+39
5714.714714714714 2.410932252115434e+39
5724.724724724725 2.3978761570209553e+39
5734.734734734735 2.3848999002576554e+39
5744.744744744745 2.372002980625332e+39
5754.754754754755 2.3591849031317582e+39
5764.764764764765 2.346445178804312e+39
5774.774774774774 2.3337833245065846e+39
5784.784784784785 2.3211988627599256e+39
5794.794794794795 2.308691321569824e+39
5804.804804804805 2.2962602342570685e+39
5814.814814814815 2.2839051392935942e+39
5824.824824824825 2.27162558014296e+39
5834.8348348348345 2.25942110510534e+39
5844.844844844845 2.2472912671670165e+39
5854.854854854855 2.2352356238542195e+39
5864.864864864865 2.2232537370912888e+39
5874.874874874875 2.2113451730630694e+39
5884.884884884885 2.1995095020814425e+39
5894.894894894895 2.1877462984559372e+39
