#lamb flux
1000.0 3.3367341292411695e+32
1010.01001001001 4.32091468100434e+32
1020.0200200200201 5.56346653898183e+32
1030.03003003003 7.12378634141717e+32
1040.0400400400401 9.072946879227227e+32
1050.05005005005 1.1495586280978504e+33
1060.06006006006 1.4492031359075412e+33
1070.07007007007 1.8180673596681963e+33
1080.08008008008 2.2700616430194396e+33
1090.0900900900901 2.821461251252956e+33
1100.1001001001 3.491230951928387e+33
1110.11011011011 4.301382277561365e+33
1120.1201201201202 5.277365253081801e+33
1130.13013013013 6.448496308610253e+33
1140.1401401401401 7.84842401867161e+33
1150.1501501501502 9.515634212225137e+33
1160.16016016016 1.1493995883996162e+34
1170.1701701701702 1.3833349206880832e+34
1180.1801801801803 1.6590136798187472e+34
1190.1901901901902 1.9828079229862302e+34
1200.2002002002002 2.3618895595495345e+34
1210.2102102102103 2.80430697558123e+34
1220.2202202202202 3.319066268071108e+34
1230.2302302302303 3.9162171090963625e+34
1240.2402402402402 4.606943237788638e+34
1250.2502502502502 5.403628910780016e+34
1260.2602602602603 6.319901789484528e+34
1270.2702702702702 7.370660277823109e+34
1280.2802802802803 8.572442053452938e+34
1290.2902902902902 9.943393905606077e+34
1300.3003003003003 1.1503380800388977e+35
1310.3103103103103 1.3274097970600237e+35
1320.3203203203202 1.527918577388299e+35
1330.3303303303303 1.754434703949153e+35
1340.3403403403404 2.009746660137466e+35
1350.3503503503503 2.296873269380131e+35
1360.3603603603603 2.6190759865498408e+35
1370.3703703703704 2.97987130493356e+35
1380.3803803803803 3.383043240708257e+35
1390.3903903903904 3.832655855273849e+35
1400.4004004004005 4.333065774345521e+35
1410.4104104104103 4.888934661418967e+35
1420.4204204204204 5.505241602092952e+35
1430.4304304304305 6.187295354765586e+35
1440.4404404404404 6.940746422410853e+35
1450.4504504504505 7.771598899487178e+35
1460.4604604604606 8.686222047523258e+35
1470.4704704704704 9.691361552562022e+35
1480.4804804804805 1.0794150417409056e+36
1490.4904904904906 1.2002119441518595e+36
1500.5005005005005 1.3323207241341486e+36
1510.5105105105106 1.476576976404359e+36
1520.5205205205207 1.6338589247656215e+36
1530.5305305305305 1.8050882580933675e+36
1540.5405405405404 1.9912309016433425e+36
1550.5505505505505 2.1932977190588304e+36
1560.5605605605606 2.4123451404782562e+36
1570.5705705705705 2.6494757121643383e+36
1580.5805805805805 2.9058385630897953e+36
1590.5905905905906 3.182629783919268e+36
1600.6006006006005 3.4810927138198297e+36
1610.6106106106106 3.8025181305111274e+36
1620.6206206206207 4.148244338927832e+36
1630.6306306306305 4.519657153810142e+36
1640.6406406406406 4.918189771461249e+36
1650.6506506506507 5.345322525811816e+36
1660.6606606606606 5.802582523814418e+36
1670.6706706706707 6.29154315505279e+36
1680.6806806806808 6.813823470301218e+36
1690.6906906906906 7.371087423612206e+36
1700.7007007007007 7.965045152963131e+36
1710.7107107107108 8.597457626088007e+36
1720.7207207207207 9.270119381011626e+36
1730.7307307307308 9.984864026576605e+36
1740.7407407407409 1.074356381964147e+37
1750.7507507507507 1.1548127934201524e+37
1760.7607607607606 1.2400500553720025e+37
1770.770770770771 1.3302658782890106e+37
1780.7807807807808 1.4256610376493602e+37
1790.7907907907907 1.5264391285142275e+37
1800.8008008008007 1.6328063020689416e+37
1810.8108108108108 1.7449709848258104e+37
1820.8208208208207 1.8631435817469305e+37
1830.8308308308308 1.987536165295466e+37
1840.8408408408409 2.118362153407781e+37
1850.8508508508507 2.2558359806469995e+37
1860.8608608608608 2.4001727684096076e+37
1870.870870870871 2.5515880020693976e+37
1880.8808808808808 2.7102972254115236e+37
1890.890890890891 2.87651576567807e+37
1900.900900900901 3.0504585060287387e+37
1910.9109109109108 3.2323397261873127e+37
1920.920920920921 3.4223730363901056e+37
1930.930930930931 3.6207714342675487e+37
1940.940940940941 3.8277475186106853e+37
1950.950950950951 4.0435138975492355e+37
1960.960960960961 4.268283830707491e+37
1970.970970970971 4.5022721443612335e+37
1980.980980980981 4.745696454196217e+37
1990.9909909909911 4.998778720485537e+37
2001.001001001001 5.26174714385548e+37
2011.0110110110109 5.534838385035008e+37
2021.0210210210212 5.818300058464387e+37
2031.031031031031 6.112393407903005e+37
2041.0410410410411 6.417396024448979e+37
2051.051051051051 6.733604418047983e+37
2061.061061061061 7.061336209335018e+37
2071.071071071071 7.400931678230524e+37
2081.081081081081 7.752754398754481e+37
2091.091091091091 8.117190714834041e+37
2101.101101101101 8.494647875026452e+37
2111.1111111111113 8.885550744951229e+37
2121.121121121121 9.29033714725592e+37
2131.131131131131 9.709452024866732e+37
2141.141141141141 1.0143340762921972e+38
2151.151151151151 1.05924421149154e+38
2161.161161161161 1.105718123898249e+38
2171.1711711711714 1.1537963348720627e+38
2181.1811811811813 1.203516841847069e+38
2191.191191191191 1.254914726634027e+38
2201.201201201201 1.3080219189298998e+38
2211.2112112112113 1.3628671167718695e+38
2221.221221221221 1.4194758514997186e+38
2231.2312312312315 1.4778706739018793e+38
2241.2412412412414 1.5380714315575226e+38
2251.2512512512512 1.6000956050455124e+38
2261.261261261261 1.6639586720812612e+38
2271.271271271271 1.729674472758371e+38
2281.2812812812813 1.797255554770806e+38
2291.2912912912916 1.8667134837206114e+38
2301.3013013013015 1.9380591095539944e+38
2311.3113113113113 2.011302785276987e+38
2321.321321321321 2.086454538112188e+38
2331.331331331331 2.163524196118275e+38
2341.3413413413414 2.2425214750983026e+38
2351.3513513513512 2.3234560315488804e+38
2361.3613613613616 2.406337487656128e+38
2371.3713713713714 2.4911754341272955e+38
2381.3813813813813 2.577979416132894e+38
2391.391391391391 2.6667589069616437e+38
2401.4014014014015 2.7575232732616364e+38
2411.4114114114113 2.8502817350253754e+38
2421.4214214214217 2.9450433228169243e+38
2431.4314314314315 3.041816834158727e+38
2441.4414414414414 3.140610790502643e+38
2451.4514514514512 3.241433395803438e+38
2461.4614614614616 3.3442924973866926e+38
2471.4714714714714 3.449195549547472e+38
2481.4814814814818 3.556149580121161e+38
2491.4914914914916 3.665161160121733e+38
2501.5015015015015 3.776236376438312e+38
2511.5115115115113 3.8893808075066445e+38
2521.521521521521 4.004599501823885e+38
2531.5315315315315 4.1218969591448496e+38
2541.541541541542 4.241277114181635e+38
2551.5515515515517 4.362743322622544e+38
2561.5615615615616 4.4862983492873225e+38
2571.5715715715714 4.6119443582413916e+38
2581.5815815815813 4.739682904701002e+38
2591.5915915915916 4.869514928571847e+38
2601.6016016016015 5.0014407494754625e+38
2611.611611611612 5.1354600631297924e+38
2621.6216216216217 5.2715719389619e+38
2631.6316316316315 5.4097748188421936e+38
2641.6416416416414 5.550066516840184e+38
2651.6516516516517 5.692444219911381e+38
2661.6616616616616 5.836904489434074e+38
2671.671671671672 5.9834432635229876e+38
2681.6816816816818 6.132055860053691e+38
2691.6916916916916 6.282736980338834e+38
2701.7017017017015 6.4354807134026845e+38
2711.711711711712 6.590280540805662e+38
2721.7217217217217 6.747129341975661e+38
2731.731731731732 6.906019400006338e+38
2741.741741741742 7.066942407886679e+38
2751.7517517517517 7.229889475129166e+38
2761.7617617617616 7.394851134766652e+38
2771.7717717717715 7.561817350690419e+38
2781.781781781782 7.730777525304345e+38
2791.791791791792 7.901720507471896e+38
2801.801801801802 8.074634600734061e+38
2811.811811811812 8.249507571778621e+38
2821.8218218218217 8.426326659141324e+38
2831.8318318318316 8.605078582122088e+38
2841.841841841842 8.785749549899067e+38
2851.851851851852 8.968325270825515e+38
2861.861861861862 9.152790961894247e+38
2871.871871871872 9.339131358356123e+38
2881.881881881882 9.527330723478985e+38
2891.8918918918916 9.71737285843439e+38
2901.901901901902 9.909241112300357e+38
2911.911911911912 1.0102918392167937e+39
2921.921921921922 1.0298387173341325e+39
2931.931931931932 1.0495629509620078e+39
2941.941941941942 1.0694627043653808e+39
2951.9519519519517 1.0895361017359072e+39
2961.961961961962 1.1097812282389405e+39
2971.971971971972 1.1301961310648803e+39
2981.9819819819822 1.1507788204840658e+39
2991.991991991992 1.1715272709042696e+39
3002.002002002002 1.1924394219300683e+39
3012.012012012012 1.2135131794232213e+39
3022.0220220220217 1.234746416563331e+39
3032.032032032032 1.2564792248548593e+39
3042.0420420420423 1.2779883799128049e+39
3052.052052052052 1.2996361610344542e+39
3062.062062062062 1.3214229678672315e+39
3072.072072072072 1.3433489604792769e+39
3082.0820820820823 1.3654140704952777e+39
3092.092092092092 1.3876180120707273e+39
3102.102102102102 1.4099602926750333e+39
3112.1121121121123 1.43244022365905e+39
3122.122122122122 1.4550569305875033e+39
3132.132132132132 1.4778093633205048e+39
3142.1421421421423 1.5006963058318715e+39
3152.152152152152 1.5237163857548246e+39
3162.162162162162 1.546868083648193e+39
3172.1721721721724 1.570149741978275e+39
3182.1821821821823 1.5935595738134273e+39
3192.192192192192 1.6170956712298672e+39
3202.202202202202 1.6407560134285996e+39
3212.2122122122123 1.664538474564443e+39
3222.222222222222 1.6884408312889707e+39
3232.232232232232 1.7124607700101983e+39
3242.2422422422424 1.7365958938722686e+39
3252.252252252252 1.7608437294591226e+39
3262.262262262262 1.7852017332265303e+39
3272.2722722722724 1.8096672976672813e+39
3282.2822822822823 1.834237757214652e+39
3292.292292292292 1.8589103938895362e+39
3302.3023023023025 1.883682442696866e+39
3312.3123123123123 1.9085510967770606e+39
3322.322322322322 1.933513512318511e+39
3332.3323323323325 1.9585668132371055e+39
3342.3423423423424 1.9837080956289187e+39
3352.352352352352 2.0089344320022913e+39
3362.3623623623625 2.0342428752955372e+39
3372.3723723723724 2.059630462686489e+39
3382.3823823823823 2.085094219200237e+39
3392.3923923923926 2.1106311611212616e+39
3402.4024024024025 2.1362382992162204e+39
3412.4124124124123 2.161912641773631e+39
3422.4224224224226 2.1876511974666094e+39
3432.4324324324325 2.2134509780447485e+39
3442.4424424424424 2.2393090008613353e+39
3452.4524524524522 2.2652222912417236e+39
3462.4624624624626 2.2911878846989606e+39
3472.4724724724724 2.3172028290024316e+39
3482.4824824824823 2.3432641861052862e+39
3492.4924924924926 2.3693690339363688e+39
3502.5025025025025 2.395514468062182e+39
3512.5125125125123 2.421697603224381e+39
3522.5225225225226 2.4479155747581674e+39
3532.5325325325325 2.4741655398968427e+39
3542.5425425425424 2.5004446789676698e+39
3552.5525525525527 2.5267501964840572e+39
3562.5625625625626 2.5530793221390508e+39
3572.5725725725724 2.5794293117047812e+39
3582.5825825825827 2.6057974478427223e+39
3592.5925925925926 2.6321810408291298e+39
3602.6026026026025 2.658577429200205e+39
3612.612612612613 2.68498398032123e+39
3622.6226226226227 2.7113980908837595e+39
3632.6326326326325 2.7378171873350676e+39
3642.642642642643 2.764238726243605e+39
3652.6526526526527 2.790660194604281e+39
3662.6626626626626 2.8170791100872614e+39
3672.672672672673 2.8434930212337794e+39
3682.6826826826828 2.8698995076022607e+39
3692.6926926926926 2.8962961798681865e+39
3702.7027027027025 2.9226806798806785e+39
3712.712712712713 2.949050680678936e+39
3722.7227227227227 2.9754038864713276e+39
3732.7327327327325 3.001738032579951e+39
3742.742742742743 3.0280508853533206e+39
3752.7527527527527 3.054340242049708e+39
3762.7627627627626 3.0806039306934944e+39
3772.772772772773 3.106839809906994e+39
3782.7827827827828 3.133045768719752e+39
3792.7927927927926 3.159219726357565e+39
3802.802802802803 3.185359632013151e+39
3812.812812812813 3.2114634646003216e+39
3822.8228228228227 3.2375292324935044e+39
3832.832832832833 3.263554973254235e+39
3842.842842842843 3.289538753346316e+39
3852.8528528528527 3.3154786678410114e+39
3862.862862862863 3.341372840113799e+39
3872.872872872873 3.367219421533986e+39
3882.8828828828828 3.39301659114837e+39
3892.892892892893 3.4187625553602636e+39
3902.902902902903 3.444455547604776e+39
3912.912912912913 3.4700938280215664e+39
3922.922922922923 3.4956756831258765e+39
3932.932932932933 3.521199425478786e+39
3942.942942942943 3.5466633933574987e+39
3952.9529529529527 3.572065950426435e+39
3962.962962962963 3.597405485409721e+39
3972.972972972973 3.622680411765877e+39
3982.982982982983 3.6478891673651586e+39
3992.992992992993 3.673030214170083e+39
4003.003003003003 3.6981020379197134e+39
4013.013013013013 3.723103147818061e+39
4023.023023023023 3.7480320762269734e+39
4033.033033033033 3.77288737836395e+39
4043.043043043043 3.797667632005071e+39
4053.053053053053 3.822371437193412e+39
4063.063063063063 3.846997415953124e+39
4073.073073073073 3.871544212009347e+39
4083.0830830830832 3.896010490514222e+39
4093.093093093093 3.9203949377790314e+39
4103.103103103103 3.94469626101262e+39
4113.113113113113 3.9689131880662354e+39
4123.123123123123 3.993044467184693e+39
4133.133133133133 4.0170888667641084e+39
4143.143143143143 4.041045175115981e+39
4153.153153153153 4.064912200237843e+39
4163.163163163163 4.088688769590272e+39
4173.173173173173 4.1123737298803324e+39
4183.183183183183 4.1359659468513285e+39
4193.193193193193 4.159464305078848e+39
4203.203203203203 4.182867707772932e+39
4213.213213213214 4.2061750765864e+39
4223.223223223224 4.229385351429057e+39
4233.2332332332335 4.2524974902878257e+39
4243.243243243243 4.2755104690525633e+39
4253.253253253253 4.298423281347452e+39
4263.263263263263 4.3212349383679057e+39
4273.273273273273 4.343944468722681e+39
4283.283283283283 4.3665509182812097e+39
4293.293293293293 4.389053350025875e+39
4303.303303303303 4.4114508439091233e+39
4313.313313313313 4.433742496715247e+39
4323.323323323323 4.4559274219266195e+39
4333.333333333334 4.478004749594314e+39
4343.343343343344 4.4999736262127763e+39
4353.353353353354 4.5218332145986155e+39
4363.3633633633635 4.543582693773023e+39
4373.373373373373 4.5652212588480166e+39
4383.383383383383 4.5867481209159335e+39
4393.393393393393 4.6081625069424313e+39
4403.403403403403 4.629463659662439e+39
4413.413413413413 4.6506508374791325e+39
4423.423423423424 4.671723314365705e+39
4433.4334334334335 4.692680379769723e+39
4443.443443443443 4.713521338519941e+39
4453.453453453454 4.734245510735478e+39
4463.463463463464 4.7548522317370473e+39
4473.473473473474 4.7753408519602613e+39
4483.483483483484 4.7957107368707195e+39
4493.493493493494 4.8159612668808044e+39
4503.503503503503 4.836091837268065e+39
4513.513513513513 4.8561018580949916e+39
4523.523523523523 4.875990754130035e+39
4533.533533533533 4.895757964769832e+39
4543.543543543543 4.91540294396242e+39
4553.553553553554 4.9349251601313575e+39
4563.563563563564 4.9543240961006085e+39
4573.573573573573 4.973599249020108e+39
4583.583583583584 4.9927501302918775e+39
4593.593593593594 5.011776265496571e+39
4603.603603603604 5.0306771943203727e+39
4613.613613613614 5.049452470482158e+39
4623.623623623624 5.068101661660764e+39
4633.6336336336335 5.086624349422354e+39
4643.643643643643 5.1050201291477515e+39
4653.653653653653 5.123288609959641e+39
4663.663663663663 5.141429414649627e+39
4673.673673673674 5.15944217960499e+39
4683.683683683684 5.1773265547351316e+39
4693.693693693694 5.1950822033976405e+39
4703.703703703704 5.2127088023238826e+39
4713.713713713714 5.230206041544062e+39
4723.723723723724 5.24757362431176e+39
4733.733733733734 5.264811267027788e+39
4743.743743743744 5.281918699163424e+39
4753.753753753754 5.298895663182917e+39
4763.763763763764 5.315741914465238e+39
4773.773773773773 5.3324572212250486e+39
4783.783783783783 5.349041364432832e+39
4793.793793793793 5.365494137734192e+39
4803.803803803804 5.381815347368231e+39
4813.813813813814 5.398004812085058e+39
4823.823823823824 5.4140623630623854e+39
4833.833833833834 5.429987843821092e+39
4843.843843843844 5.445781110139939e+39
4853.853853853854 5.46144202996921e+39
4863.863863863864 5.476970483343425e+39
4873.873873873874 5.492366362293042e+39
4883.883883883884 5.507629570755132e+39
4893.893893893894 5.522760024483083e+39
4903.9039039039035 5.537757650955306e+39
4913.913913913913 5.55262238928287e+39
4923.923923923924 5.567354190116228e+39
4933.933933933934 5.581953015550834e+39
4943.943943943944 5.596418839031904e+39
4953.953953953955 5.610751645258052e+39
4963.9639639639645 5.624951430084057e+39
4973.973973973974 5.639018200422624e+39
4983.983983983984 5.652951974145209e+39
4993.993993993994 5.666752779981902e+39
5004.004004004004 5.680420657420405e+39
5014.014014014014 5.693955656604114e+39
5024.024024024024 5.707357838229302e+39
5034.0340340340335 5.720627273441458e+39
5044.044044044043 5.733764043730795e+39
5054.054054054054 5.746768240826908e+39
5064.064064064064 5.75963996659271e+39
5074.074074074074 5.772379332917506e+39
5084.084084084085 5.784986461609398e+39
5094.0940940940945 5.797461484286935e+39
5104.104104104104 5.809804542270093e+39
5114.114114114114 5.822015786470604e+39
5124.124124124124 5.834095377281575e+39
5134.134134134134 5.846043484466608e+39
5144.144144144144 5.857860287048255e+39
5154.154154154154 5.869545973195999e+39
5164.1641641641645 5.881100740113625e+39
5174.174174174174 5.892524793926204e+39
5184.184184184184 5.903818349566546e+39
5194.194194194194 5.914981630661245e+39
5204.204204204204 5.926014869416373e+39
5214.214214214214 5.936918306502734e+39
5224.224224224225 5.947692190940837e+39
5234.2342342342345 5.958336779985562e+39
5244.244244244244 5.968852339010531e+39
5254.254254254254 5.979239141392289e+39
5264.264264264264 5.989497468394211e+39
5274.274274274274 5.999627609050294e+39
5284.284284284285 6.009629860048779e+39
5294.294294294295 6.019504525615642e+39
5304.304304304304 6.029251917398049e+39
5314.314314314314 6.038872354347734e+39
5324.324324324324 6.048366162604329e+39
5334.334334334334 6.057733675378753e+39
5344.344344344345 6.066975232836657e+39
5354.354354354355 6.076091181981815e+39
5364.3643643643645 6.085081876539787e+39
5374.374374374374 6.09394767684159e+39
5384.384384384384 6.102688949707586e+39
5394.394394394394 6.111306068331523e+39
5404.404404404404 6.119799412164793e+39
5414.414414414415 6.128169366800975e+39
5424.424424424425 6.136416323860616e+39
5434.4344344344345 6.144540680876291e+39
5444.444444444444 6.152542841178013e+39
5454.454454454454 6.160423213779025e+39
5464.464464464464 6.168182213261874e+39
5474.474474474475 6.175820259665006e+39
5484.484484484485 6.183337778369668e+39
5494.494494494495 6.190735199987347e+39
5504.504504504504 6.198012960247669e+39
5514.514514514514 6.205171499886729e+39
5524.524524524524 6.212211264536042e+39
5534.534534534535 6.219132704611929e+39
5544.544544544545 6.225936275205586e+39
5554.554554554555 6.232622435973583e+39
5564.5645645645645 6.239191651029158e+39
5574.574574574574 6.245644388833943e+39
5584.584584584584 6.251981122090475e+39
5594.594594594595 6.258202327635294e+39
5604.604604604605 6.264308486332768e+39
5614.614614614615 6.270300082969584e+39
5624.624624624625 6.276177606149945e+39
5634.6346346346345 6.281941548191573e+39
5644.644644644644 6.287592405022359e+39
5654.654654654654 6.293130676077858e+39
5664.664664664665 6.29855686419952e+39
5674.674674674675 6.303871475533742e+39
5684.684684684685 6.309075019431687e+39
5694.694694694695 6.314168008349999e+39
5704.704704704704 6.319150957752255e+39
5714.714714714714 6.324024386011355e+39
5724.724724724725 6.328788814312705e+39
5734.734734734735 6.333444766558306e+39
5744.744744744745 6.337992769271708e+39
5754.754754754755 6.342433351503868e+39
5764.764764764765 6.346767044739891e+39
5774.774774774774 6.350994382806694e+39
5784.784784784785 6.355115901781597e+39
5794.794794794795 6.359132139901802e+39
5804.804804804805 6.363043637474865e+39
5814.814814814815 6.366850936790059e+39
5824.824824824825 6.370554582030715e+39
5834.8348348348345 6.374155119187492e+39
5844.844844844845 6.37765309597269e+39
5854.854854854855 6.381049061735367e+39
5864.864864864865 6.384343567377599e+39
5874.874874874875 6.387537165271636e+39
5884.884884884885 6.390630409178027e+39
5894.894894894895 6.393623854164757e+39
5904.9049049049045 6.396518056527358e+39
