#lamb flux
1000.0 1.5015926498729215
1010.01001001001 1.5702434656363184
1020.0200200200201 1.6397954038120828
1030.03003003003 1.7101708464694338
1040.0400400400401 1.7812917907545462
1050.05005005005 1.8530800970489993
1060.06006006006 1.9254577242137563
1070.07007007007 1.9983469515810877
1080.08008008008 2.071670587477804
1090.0900900900901 2.14535216417231
1100.1001001001 2.2193161192367867
1110.11011011011 2.293487963403947
1120.1201201201202 2.367794435075887
1130.13013013013 2.4421636417112036
1140.1401401401401 2.516525188376201
1150.1501501501502 2.5908102937971367
1160.16016016016 2.664951894293807
1170.1701701701702 2.7388847360108213
1180.1801801801803 2.812545455892228
1190.1901901901902 2.8858726518682314
1200.2002002002002 2.9588069427404586
1210.2102102102103 3.0312910182644375
1220.2202202202202 3.1032696799360684
1230.2302302302303 3.1746898729925155
1240.2402402402402 3.245500710138067
1250.2502502502502 3.3156534290587687
1260.2602602602603 3.3851013371587713
1270.2702702702702 3.4537997786461605
1280.2802802802803 3.521706607638624
1290.2902902902902 3.588781859436867
1300.3003003003003 3.6549877349551707
1310.3103103103103 3.7202885802248753
1320.3203203203202 3.784650861397186
1330.3303303303303 3.8480431356553986
1340.3403403403404 3.9104360184290528
1350.3503503503503 3.971802147285072
1360.3603603603603 4.032116142853043
1370.3703703703704 4.091354567123645
1380.3803803803803 4.149495879441553
1390.3903903903904 4.2065203904961095
1400.4004004004005 4.2624102145955565
1410.4104104104103 4.317149220493386
1420.4204204204204 4.3707229810184245
1430.4304304304305 4.423118721743741
1440.4404404404404 4.474325268913656
1450.4504504504505 4.52433299683249
1460.4604604604606 4.573133774903845
1470.4704704704704 4.6207209144948775
1480.4804804804805 4.66708911578626
1490.4904904904906 4.712234414755309
1500.5005005005005 4.756154130427187
1510.5105105105106 4.798846812517364
1520.5205205205207 4.840312189576702
1530.5305305305305 4.880551117740273
1540.5405405405404 4.919565530170499
1550.5505505505505 4.957358387275735
1560.5605605605606 4.9939336277763475
1570.5705705705705 5.029296120681909
1580.5805805805805 5.063451618235081
1590.5905905905906 5.096406709870363
1600.6006006006005 5.12816877722897
1610.6106106106106 5.158745950264507
1620.6206206206207 5.188147064468313
1630.6306306306305 5.216381619237517
1640.6406406406406 5.243459737403939
1650.6506506506507 5.269392125937072
1660.6606606606606 5.2941900378301066
1670.6706706706707 5.317865235173964
1680.6806806806808 5.340429953420604
1690.6906906906906 5.361896866833732
1700.7007007007007 5.382279060021779
1710.7107107107108 5.401590005920095
1720.7207207207207 5.419843498112465
1730.7307307307308 5.437053639983236
1740.7407407407409 5.45323481872849
1750.7507507507507 5.468401677743145
1760.7607607607606 5.4825690901154776
1770.770770770771 5.495752133211946
1780.7807807807808 5.507966064334447
1790.7907907907907 5.519226297431947
1800.8008008008007 5.5295483808484756
1810.8108108108108 5.538947976089588
1820.8208208208207 5.5474408375903375
1830.8308308308308 5.555042793468618
1840.8408408408409 5.561769727249099
1850.8508508508507 5.5676375605447
1860.8608608608608 5.572662236684342
1870.870870870871 5.576859705278061
1880.8808808808808 5.580245907712575
1890.890890890891 5.582836763572767
1900.900900900901 5.5846481579861615
1910.9109109109108 5.585695929888638
1920.920920920921 5.585995861209243
1930.930930930931 5.5855636669698425
1940.940940940941 5.584414986290288
1950.950950950951 5.582565374281035
1960.960960960961 5.5800302947911895
1970.970970970971 5.576825113960708
1980.980980980981 5.572965094498937
1990.9909909909911 5.568465390578539
2001.001001001001 5.563341043194576
2011.0110110110109 5.557606975794924
2021.0210210210212 5.551277989944848
2031.031031031031 5.54436876075096
2041.0410410410411 5.536893831746558
2051.051051051051 5.528867608941506
2061.061061061061 5.520304353774131
2071.071071071071 5.511218174779649
2081.081081081081 5.501623017910969
2091.091091091091 5.49153265561021
2101.101101101101 5.480960674918108
2111.1111111111113 5.469920465100775
2121.121121121121 5.458425205437926
2131.131131131131 5.446487853920983
2141.141141141141 5.434121137627307
2151.151151151151 5.421337545452947
2161.161161161161 5.408149323706371
2171.1711711711714 5.394568474812446
2181.1811811811813 5.3806067590885975
2191.191191191191 5.3662756992785
2201.201201201201 5.351586587305151
2211.2112112112113 5.336550492563215
2221.221221221221 5.32117827102272
2231.2312312312315 5.305480574456222
2241.2412412412414 5.289467859209636
2251.2512512512512 5.27315039408658
2261.261261261261 5.256538267079089
2271.271271271271 5.239641390830917
2281.2812812812813 5.222469506847547
2291.2912912912916 5.205032188561294
2301.3013013013015 5.187338843419471
2311.3113113113113 5.1693987141922575
2321.321321321321 5.151220879700947
2331.331331331331 5.132814255153814
2341.3413413413414 5.114187592252917
2351.3513513513512 5.095349479206241
2361.3613613613616 5.076308340749733
2371.3713713713714 5.057072438255953
2381.3813813813813 5.0376498699816885
2391.391391391391 5.018048571486897
2401.4014014014015 4.998276316241181
2411.4114114114113 4.978340716422143
2421.4214214214217 4.9582492239014115
2431.4314314314315 4.938009131408154
2441.4414414414414 4.91762757385634
2451.4514514514512 4.897111529820076
2461.4614614614616 4.876467823140535
2471.4714714714714 4.855703124648163
2481.4814814814818 4.834823953984442
2491.4914914914916 4.813836681508621
2501.5015015015015 4.792747530275923
2511.5115115115113 4.771562578075069
2521.521521521521 4.750287759514248
2531.5315315315315 4.728928868145831
2541.541541541542 4.707491558621358
2551.5515515515517 4.685981348869279
2561.5615615615616 4.664403622288866
2571.5715715715714 4.6427636299547155
2581.5815815815813 4.621066492826733
2591.5915915915916 4.5993172039613714
2601.6016016016015 4.577520630720324
2611.611611611612 4.555681516973403
2621.6216216216217 4.533804485292819
2631.6316316316315 4.511894039136277
2641.6416416416414 4.489954565016877
2651.6516516516517 4.46799033465783
2661.6616616616616 4.446005507130394
2671.671671671672 4.424004130973628
2681.6816816816818 4.4019901462946835
2691.6916916916916 4.379967386848542
2701.7017017017015 4.3579395820962885
2711.711711711712 4.335910359241051
2721.7217217217217 4.313883245240935
2731.731731731732 4.291861668798261
2741.741741741742 4.269848962324653
2751.7517517517517 4.247848363881415
2761.7617617617616 4.225863019094918
2771.7717717717715 4.203895983046544
2781.781781781782 4.181950222136976
2791.791791791792 4.160028615924626
2801.801801801802 4.138133958937932
2811.811811811812 4.116268962461455
2821.8218218218217 4.094436256295661
2831.8318318318316 4.072638390490283
2841.841841841842 4.050877837051245
2851.851851851852 4.029156991621171
2861.861861861862 4.007478175133445
2871.871871871872 3.9858436354398803
2881.881881881882 3.9642555489121007
2891.8918918918916 3.9427160220166795
2901.901901901902 3.9212270928641644
2911.911911911912 3.8997907327321024
2921.921921921922 3.8784088475622167
2931.931931931932 3.8570832794319263
2941.941941941942 3.835815808000294
2951.9519519519517 3.8146081519286947
2961.961961961962 3.7934619702763284
2971.971971971972 3.772378863870825
2981.9819819819822 3.7513603766541546
2991.991991991992 3.730407997004061
3002.002002002002 3.7095231590312836
3012.012012012012 3.6887072438527904
3022.0220220220217 3.6679615808412906
3032.032032032032 3.647290752864114
3042.0420420420423 3.62668896261891
3052.052052052052 3.6061609999995405
3062.062062062062 3.58570803130456
3072.072072072072 3.5653311725541372
3082.0820820820823 3.545031491071585
3092.092092092092 3.5248100070005774
3102.102102102102 3.5046676947618183
3112.1121121121123 3.4846054844527283
3122.122122122122 3.464624263193435
3132.132132132132 3.444724876422114
3142.1421421421423 3.42490812914252
3152.152152152152 3.405174787126361
3162.162162162162 3.385525578072945
3172.1721721721724 3.3659611927283923
3182.1821821821823 3.346482285966555
3192.192192192192 3.327089477833591
3202.202202202202 3.3077833545580297
3212.2122122122123 3.2885644695280978
3222.222222222222 3.269433344237824
3232.232232232232 3.250390469203487
3242.2422422422424 3.2314363048517385
3252.252252252252 3.212571282380754
3262.262262262262 3.1937958045955686
3272.2722722722724 3.1751102467187815
3282.2822822822823 3.156514957177669
3292.292292292292 3.1380102583686846
3302.3023023023025 3.1195964474003053
3312.3123123123123 3.101273796815085
3322.322322322322 3.083042555291722
3332.3323323323325 3.0649029483279264
3342.3423423423424 3.046855178904816
3352.352352352352 3.0288994281334762
3362.3623623623625 3.011035855884401
3372.3723723723724 2.9932646014003454
3382.3823823823823 2.9755857838931923
3392.3923923923926 2.957999503125385
3402.4024024024025 2.940505839976409
3412.4124124124123 2.923104856994812
3422.4224224224226 2.9057965989362273
3432.4324324324325 2.888581093287836
3442.4424424424424 2.871458350779661
3452.4524524524522 2.8544283658830993
3462.4624624624626 2.837491117297066
3472.4724724724724 2.8206465684221143
3482.4824824824823 2.803894667822819
3492.4924924924926 2.787235349678838
3502.5025025025025 2.7706685342248667
3512.5125125125123 2.754194128179857
3522.5225225225226 2.737812025165733
3532.5325325325325 2.721522106115908
3542.5425425425424 2.705324239673849
3552.5525525525527 2.689218282581948
3562.5625625625626 2.6732040800609496
3572.5725725725724 2.657281466180138
3582.5825825825827 2.6414502642185504
3592.5925925925926 2.6257102870174136
3602.6026026026025 2.610061337323996
3612.612612612613 2.5945032081271346
3622.6226226226227 2.5790356829845624
3632.6326326326325 2.563658536342273
3642.642642642643 2.548371533846116
3652.6526526526527 2.5331744326457617
3662.6626626626626 2.5180669816912298
3672.672672672673 2.50304892202218
3682.6826826826828 2.488119987050077
3692.6926926926926 2.473279902833425
3702.7027027027025 2.458528388346226
3712.712712712713 2.4438651557397892
3722.7227227227227 2.4292899105980874
3732.7327327327325 2.414802352186735
3742.742742742743 2.4004021736958108
3752.7527527527527 2.386089062476587
3762.7627627627626 2.371862700272351
3772.772772772773 2.357722763443428
3782.7827827827828 2.3436689231865397
3792.7927927927926 2.329700845748607
3802.802802802803 2.3158181926351626
3812.812812812813 2.3020206208134377
3822.8228228228227 2.2883077829102705
3832.832832832833 2.2746793274049626
3842.842842842843 2.2611348988171622
3852.8528528528527 2.247674137889907
3862.862862862863 2.2342966817679297
3872.872872872873 2.22100216417133
3882.8828828828828 2.207790215564696
3892.892892892893 2.1946604633218336
3902.902902902903 2.181612531886122
3912.912912912913 2.1686460429266594
3922.922922922923 2.1557606154902524
3932.932932932933 2.142955866149367
3942.942942942943 2.1302314091461145
3952.9529529529527 2.117586856532368
3962.962962962963 2.1050218183060943
3972.972972972973 2.0925359025439976
3982.982982982983 2.080128715530539
3992.992992992993 2.0677998618834166
4003.003003003003 2.055548944675619
4013.013013013013 2.0433755655540784
4023.023023023023 2.031279324855036
4033.033033033033 2.0192598217161897
4043.043043043043 2.007316654185686
4053.053053053053 1.9954494193280428
4063.063063063063 1.9836577133270636
4073.073073073073 1.9719411315858095
4083.0830830830832 1.9602992688237182
4093.093093093093 1.9487317191709057
4103.103103103103 1.9372380762597394
4113.113113113113 1.9258179333137453
4123.123123123123 1.9144708832338853
4133.133133133133 1.9031965186823034
4143.143143143143 1.891994432163574
4153.153153153153 1.8808642161035307
4163.163163163163 1.869805462925701
4173.173173173173 1.8588177651254456
4183.183183183183 1.8479007153418248
4193.193193193193 1.8370539064272595
4203.203203203203 1.8262769315150325
4213.213213213214 1.8155693840846983
4223.223223223224 1.804930858025426
4233.2332332332335 1.7943609476973517
4243.243243243243 1.7838592479909616
4253.253253253253 1.773425354384578
4263.263263263263 1.763058862999985
4273.273273273273 1.7527593706562292
4283.283283283283 1.742526474921654
4293.293293293293 1.7323597741642125
4303.303303303303 1.7222588676000796
4313.313313313313 1.7122233553406376
4323.323323323323 1.7022528384378424
4333.333333333334 1.692346918928037
4343.343343343344 1.6825051998742377
4353.353353353354 1.6727272854069344
4363.3633633633635 1.6630127807634327
4373.373373373373 1.6533612923258016
4383.383383383383 1.6437724276574266
4393.393393393393 1.6342457955382261
4403.403403403403 1.6247810059985688
4413.413413413413 1.6153776703518945
4423.423423423424 1.606035401226117
4433.4334334334335 1.5967538125937981
4443.443443443443 1.5875325198011496
4453.453453453454 1.578371139595882
4463.463463463464 1.569269290153949
4473.473473473474 1.5602265911051665
4483.483483483484 1.5512426635578143
4493.493493493494 1.542317130122165
4503.503503503503 1.5334496149330306
4513.513513513513 1.5246397436713153
4523.523523523523 1.5158871435846162
4533.533533533533 1.507191443506897
4543.543543543543 1.4985522738772556
4553.553553553554 1.489969266757808
4563.563563563564 1.481442055850719
4573.573573573573 1.4729702765143948
4583.583583583584 1.4645535657788664
4593.593593593594 1.4561915623603856
4603.603603603604 1.4478839066752422
4613.613613613614 1.439630240852851
4623.623623623624 1.4314302087480941
4633.6336336336335 1.4232834559529657
4643.643643643643 1.4151896298075342
4653.653653653653 1.4071483794102202
4663.663663663663 1.399159355627444
4673.673673673674 1.391222211102623
4683.683683683684 1.3833366002645706
4693.693693693694 1.375502179335289
4703.703703703704 1.3677186063371851
4713.713713713714 1.359985541099726
4723.723723723724 1.3523026452655433
4733.733733733734 1.3446695822960053
4743.743743743744 1.3370860174762804
4753.753753753754 1.32955161791989
4763.763763763764 1.3220660525727876
4773.773773773773 1.3146289922169423
4783.783783783783 1.3072401094734976
4793.793793793793 1.299899078805456
4803.803803803804 1.2926055765199453
4813.813813813814 1.2853592807700676
4823.823823823824 1.2781598715563363
4833.833833833834 1.271007030727723
4843.843843843844 1.2639004419823245
4853.853853853854 1.2568397908676534
4863.863863863864 1.2498247647805785
4873.873873873874 1.2428550529669107
4883.883883883884 1.2359303465206541
4893.893893893894 1.2290503383829376
4903.9039039039035 1.222214723340619
4913.913913913913 1.2154231980245949
4923.923923923924 1.2086754609078045
4933.933933933934 1.2019712123029587
4943.943943943944 1.1953101543599804
4953.953953953955 1.1886919910631835
4963.9639639639645 1.1821164282281968
4973.973973973974 1.175583173498626
4983.983983983984 1.169091936342485
4993.993993993994 1.1626424280483885
5004.004004004004 1.1562343617215156
5014.014014014014 1.1498674522793673
5024.024024024024 1.1435414164472948
5034.0340340340335 1.1372559727538463
5044.044044044043 1.1310108415259008
5054.054054054054 1.1248057448836233
5064.064064064064 1.1186404067352338
5074.074074074074 1.1125145527716014
5084.084084084085 1.1064279104606716
5094.0940940940945 1.1003802090417314
5104.104104104104 1.0943711795195137
5114.114114114114 1.088400554658157
5124.124124124124 1.0824680689750197
5134.134134134134 1.076573458734352
5144.144144144144 1.070716461940838
5154.154154154154 1.0648968183330116
5164.1641641641645 1.0591142693765447
5174.174174174174 1.0533685582574237
5184.184184184184 1.0476594298750093
5194.194194194194 1.041986630834989
5204.204204204204 1.0363499094422333
5214.214214214214 1.0307490156935437
5224.224224224225 1.025183701270313
5234.2342342342345 1.019653719531098
5244.244244244244 1.0141588255040985
5254.254254254254 1.0086987758795667
5264.264264264264 1.003273329002127
5274.274274274274 0.9978822448630353
5284.284284284285 0.9925252850923582
5294.294294294295 0.9872022129510946
5304.304304304304 0.9819127933232261
5314.314314314314 0.9766567927077213
5324.324324324324 0.9714339792104685
5334.334334334334 0.9662441225361746
5344.344344344345 0.9610869939801986
5354.354354354355 0.9559623664203502
5364.3643643643645 0.9508700143086409
5374.374374374374 0.9458097136629977
5384.384384384384 0.9407812420589363
5394.394394394394 0.935784378621205
5404.404404404404 0.9308189040153928
5414.414414414415 0.9258846004395105
5424.424424424425 0.9209812516155469
5434.4344344344345 0.9161086427809965
5444.444444444444 0.9112665606803697
5454.454454454454 0.9064547935566845
5464.464464464464 0.9016731311429362
5474.474474474475 0.8969213646535583
5484.484484484485 0.8921992867758666
5494.494494494495 0.8875066916614932
5504.504504504504 0.8828433749178151
5514.514514514514 0.8782091335993691
5524.524524524524 0.8736037661992719
5534.534534534535 0.8690270726406271
5544.544544544545 0.8644788542679396
5554.554554554555 0.8599589138385216
5564.5645645645645 0.8554670555139089
5574.574574574574 0.8510030848512758
5584.584584584584 0.8465668087948586
5594.594594594595 0.8421580356673788
5604.604604604605 0.8377765751614886
5614.614614614615 0.8334222383312071
5624.624624624625 0.8290948375833842
5634.6346346346345 0.8247941866691677
5644.644644644644 0.8205201006754841
5654.654654654654 0.8162723960165413
5664.664664664665 0.812050890425334
5674.674674674675 0.8078554029451827
5684.684684684685 0.8036857539212763
5694.694694694695 0.7995417649922423
5704.704704704704 0.7954232590817342
5714.714714714714 0.7913300603900416
5724.724724724725 0.7872619943857204
5734.734734734735 0.7832188877972494
5744.744744744745 0.7792005686047073
5754.754754754755 0.7752068660314764
5764.764764764765 0.771237610535972
5774.774774774774 0.7672926338034005
5784.784784784785 0.7633717687375375
5794.794794794795 0.7594748494525444
5804.804804804805 0.755601711264804
5814.814814814815 0.751752190684791
5824.824824824825 0.7479261254089735
5834.8348348348345 0.7441233543117374
5844.844844844845 0.740343717437354
5854.854854854855 0.7365870559919686
5864.864864864865 0.7328532123356272
5874.874874874875 0.7291420299743356
5884.884884884885 0.7254533535521505
5894.894894894895 0.7217870288433041
5904.9049049049045 0.7181429027443661
5914.914914914915 0.7145208232664383
5924.924924924925 0.7109206395273837
5934.934934934935 0.707342201744092
5944.944944944945 0.7037853612247847
5954.954954954955 0.7002499703613484
5964.964964964965 0.6967358826217132
5974.974974974975 0.6932429525422634
5984.984984984985 0.689771035720288
5994.994994994995 0.6863199888064654
6005.005005005005 0.6828896694973903
6015.015015015015 0.679479936528136
6025.025025025025 0.6760906496648558
6035.035035035035 0.6727216696974233
6045.045045045045 0.6693728584321121
6055.055055055055 0.6660440786843124
6065.065065065065 0.6627351942712894
6075.075075075075 0.6594460700049793
6085.085085085085 0.6561765716848258
6095.0950950950955 0.652926566090657
6105.105105105105 0.6496959209756
6115.115115115115 0.6464845050590372
6125.125125125125 0.6432921880196015
6135.135135135135 0.640118840488215
6145.145145145145 0.6369643340411607
6155.155155155155 0.6338285411932042
6165.1651651651655 0.6307113353907463
6175.175175175175 0.6276125910050248
6185.185185185185 0.6245321833253479
6195.195195195195 0.621469988552378
6205.205205205205 0.618425883791446
6215.215215215215 0.6153997470459137
6225.225225225226 0.6123914572105749
6235.235235235235 0.6094008940650927
6245.245245245245 0.6064279382674853
6255.255255255255 0.6034724713476459
6265.265265265265 0.6005343757009054
6275.275275275275 0.5976135345816359
6285.285285285286 0.5947098320968949
6295.295295295296 0.5918231532001097
6305.305305305305 0.5889533836847992
6315.315315315315 0.5861004101783435
6325.325325325325 0.5832641201357853
6335.335335335335 0.5804444018336773
6345.345345345346 0.5776411443639664
6355.355355355356 0.5748542376279214
6365.3653653653655 0.5720835723300963
6375.375375375375 0.5693290399723383
6385.385385385385 0.5665905328478299
6395.395395395395 0.563867944035177
6405.405405405405 0.5611611673925327
6415.415415415416 0.5584700975517602
