#lamb flux
1000.0 7.822794334590649e+40
1010.01001001001 7.7421112212336e+40
1020.0200200200201 7.660254375060151e+40
1030.03003003003 7.577381556991777e+40
1040.0400400400401 7.493641184544061e+40
1050.05005005005 7.40917272690551e+40
1060.06006006006 7.32410709516517e+40
1070.07007007007 7.238567026089916e+40
1080.08008008008 7.152667458131707e+40
1090.0900900900901 7.066515898590949e+40
1100.1001001001 6.980212781077017e+40
1110.11011011011 6.893851812595676e+40
1120.1201201201202 6.80752030975632e+40
1130.13013013013 6.721299523734643e+40
1140.1401401401401 6.635264953748589e+40
1150.1501501501502 6.549486648911551e+40
1160.16016016016 6.46402949841672e+40
1170.1701701701702 6.378953510083657e+40
1180.1801801801803 6.29431407736314e+40
1190.1901901901902 6.210162234950549e+40
1200.2002002002002 6.126544903203639e+40
1210.2102102102103 6.043505121597497e+40
1220.2202202202202 5.961082271479454e+40
1230.2302302302303 5.879312288410798e+40
1240.2402402402402 5.798227864400379e+40
1250.2502502502502 5.717856497598769e+40
1260.2602602602603 5.638218776471253e+40
1270.2702702702702 5.559328053318178e+40
1280.2802802802803 5.481207194806395e+40
1290.2902902902902 5.403876640311254e+40
1300.3003003003003 5.327354550820819e+40
1310.3103103103103 5.251656950276424e+40
1320.3203203203202 5.176797859647497e+40
1330.3303303303303 5.102789424036267e+40
1340.3403403403404 5.029642033103621e+40
1350.3503503503503 4.957364435102327e+40
1360.3603603603603 4.885963844797764e+40
1370.3703703703704 4.815446045549606e+40
1380.3803803803803 4.745815485820519e+40
1390.3903903903904 4.677075370370213e+40
1400.4004004004005 4.609227746385074e+40
1410.4104104104103 4.542273584785317e+40
1420.4204204204204 4.47621285694306e+40
1430.4304304304305 4.411044607036254e+40
1440.4404404404404 4.3467670202548436e+40
1450.4504504504505 4.283377487066864e+40
1460.4604604604606 4.2208726637440223e+40
1470.4704704704704 4.159248529337646e+40
1480.4804804804805 4.0985004392880357e+40
1490.4904904904906 4.0386231758420276e+40
1500.5005005005005 3.979610995445844e+40
1510.5105105105106 3.921457673272805e+40
1520.5205205205207 3.8641565450379455e+40
1530.5305305305305 3.8077005462445696e+40
1540.5405405405404 3.752082249000863e+40
1550.5505505505505 3.6972938965379834e+40
1560.5605605605606 3.6433274355547036e+40
1570.5705705705705 3.590174546507552e+40
1580.5805805805805 3.537826671959469e+40
1590.5905905905906 3.486275043094361e+40
1600.6006006006005 3.435510704499605e+40
1610.6106106106106 3.3855245373133944e+40
1620.6206206206207 3.33630728082894e+40
1630.6306306306305 3.2878495526430165e+40
1640.6406406406406 3.240141867431821e+40
1650.6506506506507 3.1931746544333146e+40
1660.6606606606606 3.146938273711072e+40
1670.6706706706707 3.10142303127145e+40
1680.6806806806808 3.056619193102454e+40
1690.6906906906906 3.0125169981998625e+40
1700.7007007007007 2.969106728109234e+40
1710.7107107107108 2.926378830152578e+40
1720.7207207207207 2.8843234980537557e+40
1730.7307307307308 2.842930915558984e+40
1740.7407407407409 2.802191297597333e+40
1750.7507507507507 2.76209489799755e+40
1760.7607607607606 2.7226320166378783e+40
1770.770770770771 2.683793006083813e+40
1780.7807807807808 2.645568277770637e+40
1790.7907907907907 2.60794830779028e+40
1800.8008008008007 2.5709236423457136e+40
1810.8108108108108 2.534484902940689e+40
1820.8208208208207 2.498622791378204e+40
1830.8308308308308 2.4633280946479086e+40
1840.8408408408409 2.4285916897900856e+40
1850.8508508508507 2.394404548832348e+40
1860.8608608608608 2.3607577439037873e+40
1870.870870870871 2.327642452639924e+40
1880.8808808808808 2.29504996399903e+40
1890.890890890891 2.2629716846151835e+40
1900.900900900901 2.2313991458138007e+40
1910.9109109109108 2.200324011408585e+40
1920.920920920921 2.1697380863819122e+40
1930.930930930931 2.1396333265191805e+40
1940.940940940941 2.1100018490171481e+40
1950.950950950951 2.0808359440113557e+40
1960.960960960961 2.0521280868635879e+40
1970.970970970971 2.0238709509129452e+40
1980.980980980981 1.996057420222062e+40
1990.9909909909911 1.9686806016463843e+40
2001.001001001001 1.941733835328682e+40
2011.0110110110109 1.9152107024917834e+40
2021.0210210210212 1.8891050291993065e+40
2031.031031031031 1.8634108846174627e+40
2041.0410410410411 1.8381225722909917e+40
2051.051051051051 1.8132346130964495e+40
2061.061061061061 1.7887417189038763e+40
2071.071071071071 1.7646387565908686e+40
2081.081081081081 1.740920702903236e+40
2091.091091091091 1.717582591686432e+40
2101.101101101101 1.6946194561095878e+40
2111.1111111111113 1.6720262695079904e+40
2121.121121121121 1.6497978891939267e+40
2131.131131131131 1.6279290078548393e+40
2141.141141141141 1.606414116853412e+40
2151.151151151151 1.5852474848432232e+40
2161.161161161161 1.5644231537079395e+40
2171.1711711711714 1.5439349521193515e+40
2181.1811811811813 1.5237765252547547e+40
2191.191191191191 1.5039413776904725e+40
2201.201201201201 1.4844229254171226e+40
2211.2112112112113 1.4652145524272252e+40
2221.221221221221 1.4463096674164151e+40
2231.2312312312315 1.4277017567233588e+40
2241.2412412412414 1.4093844305504946e+40
2251.2512512512512 1.391351460574424e+40
2261.261261261261 1.3735968081032938e+40
2271.271271271271 1.3561146428432069e+40
2281.2812812812813 1.3388993530239454e+40
2291.2912912912916 1.3219455480837002e+40
2301.3013013013015 1.3052480553391739e+40
2311.3113113113113 1.2888019121115577e+40
2321.321321321321 1.2726023546905331e+40
2331.331331331331 1.2566448053470323e+40
2341.3413413413414 1.2409248583935655e+40
2351.3513513513512 1.225438266070421e+40
2361.3613613613616 1.210180924829001e+40
2371.3713713713714 1.1951488624025235e+40
2381.3813813813813 1.1803382259048682e+40
2391.391391391391 1.1657452710811812e+40
2401.4014014014015 1.1513663527463905e+40
2411.4114114114113 1.1371979163859915e+40
2421.4214214214217 1.1232364908526429e+40
2431.4314314314315 1.109478682067645e+40
2441.4414414414414 1.0959211676241607e+40
2451.4514514514512 1.0825606921856083e+40
2461.4614614614616 1.0693940635751448e+40
2471.4714714714714 1.0564181494584856e+40
2481.4814814814818 1.0436298745307349e+40
2491.4914914914916 1.031026218127419e+40
2501.5015015015015 1.0186042121895665e+40
2511.5115115115113 1.0063609395220537e+40
2521.521521521521 9.942935322931758e+39
2531.5315315315315 9.82399170731304e+39
2541.541541541542 9.706750819815655e+39
2551.5515515515517 9.591185390916259e+39
2561.5615615615616 9.477268601009905e+39
2571.5715715715714 9.364974072128147e+39
2581.5815815815813 9.25427586031041e+39
2591.5915915915916 9.145148448489496e+39
2601.6016016016015 9.037566739779051e+39
2611.611611611612 8.931506051073265e+39
2621.6216216216217 8.82694210688773e+39
2631.6316316316315 8.723851033385317e+39
2641.6416416416414 8.62220935254367e+39
2651.6516516516517 8.521993976430621e+39
2661.6616616616616 8.423182201562178e+39
2671.671671671672 8.325751703324175e+39
2681.6816816816818 8.2296805304439e+39
2691.6916916916916 8.134947099501999e+39
2701.7017017017015 8.041530189478384e+39
2711.711711711712 7.949408936328217e+39
2721.7217217217217 7.858562827586098e+39
2731.731731731732 7.768971696997813e+39
2741.741741741742 7.680615719180491e+39
2751.7517517517517 7.593475404312332e+39
2761.7617617617616 7.50753159285403e+39
2771.7717717717715 7.422765450304045e+39
2781.781781781782 7.339158461990305e+39
2791.791791791792 7.256692427901022e+39
2801.801801801802 7.175349457557097e+39
2811.811811811812 7.09511196492882e+39
2821.8218218218217 7.015962663399302e+39
2831.8318318318316 6.937884560777014e+39
2841.841841841842 6.860860954359575e+39
2851.851851851852 6.784875426050888e+39
2861.861861861862 6.709911837533403e+39
2871.871871871872 6.635954325497196e+39
2881.881881881882 6.562987296927332e+39
2891.8918918918916 6.490995424450866e+39
2901.901901901902 6.41996364174449e+39
2911.911911911912 6.34987713900393e+39
2921.921921921922 6.280721358475754e+39
2931.931931931932 6.212481990052377e+39
2941.941941941942 6.145144966930648e+39
2951.9519519519517 6.078696461334487e+39
2961.961961961962 6.013122880301814e+39
2971.971971971972 5.948410861535861e+39
2981.9819819819822 5.884547269320968e+39
2991.991991991992 5.8215191905028e+39
3002.002002002002 5.759313930532781e+39
3012.012012012012 5.697919009576611e+39
3022.0220220220217 5.637322158686507e+39
3032.032032032032 5.577618736173368e+39
3042.0420420420423 5.518567961025704e+39
3052.052052052052 5.460276136515036e+39
3062.062062062062 5.4027328727034244e+39
3072.072072072072 5.345927809856501e+39
3082.0820820820823 5.289850633901993e+39
3092.092092092092 5.234491090034419e+39
3102.102102102102 5.179838994643455e+39
3112.1121121121123 5.1258842457280365e+39
3122.122122122122 5.072616831943498e+39
3132.132132132132 5.020026840416003e+39
3142.1421421421423 4.968104463446397e+39
3152.152152152152 4.916840004214607e+39
3162.162162162162 4.866223881585474e+39
3172.1721721721724 4.8162466341079423e+39
3182.1821821821823 4.7668989232908604e+39
3192.192192192192 4.718171536231131e+39
3202.202202202202 4.670055387662888e+39
3212.2122122122123 4.622541521489977e+39
3222.222222222222 4.5756211118582267e+39
3232.232232232232 4.529285463818592e+39
3242.2422422422424 4.483526013627541e+39
3252.252252252252 4.4383343287265216e+39
3262.262262262262 4.393702107438411e+39
3272.2722722722724 4.349621178415117e+39
3282.2822822822823 4.306083499867247e+39
3292.292292292292 4.263081158603656e+39
3302.3023023023025 4.220606368905987e+39
3312.3123123123123 4.178651471260777e+39
3322.322322322322 4.1372089309694374e+39
3332.3323323323325 4.0962713366543347e+39
3342.3423423423424 4.055831398677366e+39
3352.352352352352 4.0158819474855966e+39
3362.3623623623625 3.9764159318972136e+39
3372.3723723723724 3.9374264173393395e+39
3382.3823823823823 3.898906584048231e+39
3392.3923923923926 3.8608497252411657e+39
3402.4024024024025 3.8232492452681874e+39
3412.4124124124123 3.786098657751051e+39
3422.4224224224226 3.749391583715824e+39
3432.4324324324325 3.713121749724831e+39
3442.4424424424424 3.677282986012881e+39
3452.4524524524522 3.6418692246322004e+39
3462.4624624624626 3.6068744976098256e+39
3472.4724724724724 3.57229293512081e+39
3482.4824824824823 3.538118763679976e+39
3492.4924924924926 3.504346304354763e+39
3502.5025025025025 3.47096997100115e+39
3512.5125125125123 3.4379842685244224e+39
3522.5225225225226 3.4053837911662067e+39
3532.5325325325325 3.3731632208189726e+39
3542.5425425425424 3.341317325368915e+39
3552.5525525525527 3.3098409570679926e+39
3562.5625625625626 3.2787290509356524e+39
3572.5725725725724 3.24797662319062e+39
3582.5825825825827 3.217578769713033e+39
3592.5925925925926 3.1875306645370193e+39
3602.6026026026025 3.1578275583737104e+39
3612.612612612613 3.128464777164657e+39
3622.6226226226227 3.099437720665397e+39
3632.6326326326325 3.070741861058993e+39
3642.642642642643 3.042372741599195e+39
3652.6526526526527 3.0143259752828985e+39
3662.6626626626626 2.9865972435514175e+39
3672.672672672673 2.959182295020217e+39
3682.6826826826828 2.932076944236572e+39
3692.6926926926926 2.9052770704646325e+39
3702.7027027027025 2.87877861649742e+39
3712.712712712713 2.852577587495153e+39
3722.7227227227227 2.826670049849425e+39
3732.7327327327325 2.8010521300725617e+39
3742.742742742743 2.7757200137117044e+39
3752.7527527527527 2.7506699442869605e+39
3762.7627627627626 2.7258982222530916e+39
3772.772772772773 2.7014012039841664e+39
3782.7827827827828 2.6771753007805984e+39
3792.7927927927926 2.653216977898014e+39
3802.802802802803 2.6295227535974038e+39
3812.812812812813 2.6060891982160007e+39
3822.8228228228227 2.5829129332583537e+39
3832.832832832833 2.5599906305070664e+39
3842.842842842843 2.5373190111526887e+39
3852.8528528528527 2.5148948449422492e+39
3862.862862862863 2.492714949345934e+39
3872.872872872873 2.4707761887414458e+39
3882.8828828828828 2.449075473615516e+39
3892.892892892893 2.4276097597822165e+39
3902.902902902903 2.4063760476175005e+39
3912.912912912913 2.3853713813096264e+39
3922.922922922923 2.3645928481250002e+39
3932.932932932933 2.3440375776890557e+39
3942.942942942943 2.3237027412817312e+39
3952.9529529529527 2.303585551147193e+39
3962.962962962963 2.2836832598174257e+39
3972.972972972973 2.2639931594493052e+39
3982.982982982983 2.244512581174823e+39
3992.992992992993 2.2252388944640963e+39
4003.003003003003 2.206169506500881e+39
4013.013013013013 2.1873018615701985e+39
4023.023023023023 2.1686334404578264e+39
4033.033033033033 2.1501617598613216e+39
4043.043043043043 2.1318843718122874e+39
4053.053053053053 2.1137988631096206e+39
4063.063063063063 2.0959028547634437e+39
4073.073073073073 2.078194001449472e+39
4083.0830830830832 2.0606699909735614e+39
4093.093093093093 2.043328543746184e+39
4103.103103103103 2.0261674122665926e+39
4113.113113113113 2.0091843806164595e+39
4123.123123123123 1.992377263962729e+39
4133.133133133133 1.9757439080695087e+39
4143.143143143143 1.9592821888187706e+39
4153.153153153153 1.9429900117396535e+39
4163.163163163163 1.9268653115461768e+39
4173.173173173173 1.9109060516831804e+39
4183.183183183183 1.8951102238803003e+39
4193.193193193193 1.879475847713794e+39
4203.203203203203 1.8640009701760562e+39
4213.213213213214 1.848683665252659e+39
4223.223223223224 1.8335220335067305e+39
4233.2332332332335 1.8185142016705365e+39
4243.243243243243 1.8036583222441048e+39
4253.253253253253 1.7889525731007407e+39
4263.263263263263 1.7743951570992955e+39
4273.273273273273 1.759984301703041e+39
4283.283283283283 1.7457182586050137e+39
4293.293293293293 1.7315953033597098e+39
4303.303303303303 1.717613735020982e+39
4313.313313313313 1.7037718757860318e+39
4323.323323323323 1.690068070645357e+39
4333.333333333334 1.67650068703856e+39
4343.343343343344 1.6630681145158792e+39
4353.353353353354 1.6497687644053455e+39
4363.3633633633635 1.6366010694854464e+39
4373.373373373373 1.623563483663205e+39
4383.383383383383 1.6106544816575506e+39
4393.393393393393 1.5978725586878987e+39
4403.403403403403 1.5852162301678352e+39
4413.413413413413 1.5726840314037996e+39
4423.423423423424 1.560274517298694e+39
4433.4334334334335 1.5479862620603138e+39
4443.443443443443 1.535817858914507e+39
4453.453453453454 1.5237679198229817e+39
4463.463463463464 1.5118350752056993e+39
4473.473473473474 1.5000179736677098e+39
4483.483483483484 1.4883152817304236e+39
4493.493493493494 1.4767256835671828e+39
4503.503503503503 1.4652478807430878e+39
4513.513513513513 1.45388059195899e+39
4523.523523523523 1.4426225527995726e+39
4533.533533533533 1.43147251548547e+39
4543.543543543543 1.4204292486293257e+39
4553.553553553554 1.4094915369957368e+39
4563.563563563564 1.3986581812650235e+39
4573.573573573573 1.3879279978007353e+39
4583.583583583584 1.377299818420851e+39
4593.593593593594 1.3667724901726015e+39
4603.603603603604 1.3563448751108411e+39
4613.613613613614 1.3460158500799347e+39
4623.623623623624 1.3357843064990676e+39
4633.6336336336335 1.3256491501509449e+39
4643.643643643643 1.3156093009738167e+39
4653.653653653653 1.3056636928567604e+39
4663.663663663663 1.2958112734381852e+39
4673.673673673674 1.2860510039074859e+39
4683.683683683684 1.2763818588098134e+39
4693.693693693694 1.2668028258538834e+39
4703.703703703704 1.2573129057227997e+39
4713.713713713714 1.247911111887824e+39
4723.723723723724 1.2385964704250498e+39
4733.733733733734 1.2293680198349278e+39
4743.743743743744 1.2202248108646051e+39
4753.753753753754 1.2111659063330187e+39
4763.763763763764 1.2021903809587131e+39
4773.773773773773 1.1932973211903116e+39
4783.783783783783 1.184485825039638e+39
4793.793793793793 1.1757550019174009e+39
4803.803803803804 1.1671039724714266e+39
4813.813813813814 1.1585318684273979e+39
4823.823823823824 1.1500378324320377e+39
4833.833833833834 1.1416210178987201e+39
4843.843843843844 1.1332805888554613e+39
4853.853853853854 1.125015719795241e+39
4863.863863863864 1.1168255955286337e+39
4873.873873873874 1.1087094110387015e+39
4883.883883883884 1.1006663713381128e+39
4893.893893893894 1.0926956913284549e+39
4903.9039039039035 1.0847965956616999e+39
4913.913913913913 1.0769683186037889e+39
4923.923923923924 1.0692101039003072e+39
4933.933933933934 1.0615212046442112e+39
4943.943943943944 1.0539008831455666e+39
4953.953953953955 1.0463484108032834e+39
4963.9639639639645 1.0388630679788015e+39
4973.973973973974 1.0314441438716921e+39
4983.983983983984 1.0240909363971627e+39
4993.993993993994 1.0168027520654146e+39
5004.004004004004 1.009578905862833e+39
5014.014014014014 1.0024187211349816e+39
5024.024024024024 9.953215294713661e+38
5034.0340340340335 9.882866705919461e+38
5044.044044044043 9.813134922353566e+38
5054.054054054054 9.744013500488248e+38
5064.064064064064 9.675496074797463e+38
5074.074074074074 9.607576356688906e+38
5084.084084084085 9.540248133452203e+38
5094.0940940940945 9.473505267222962e+38
5104.104104104104 9.407341693962293e+38
5114.114114114114 9.341751422451741e+38
5124.124124124124 9.276728533303255e+38
5134.134134134134 9.212267177984024e+38
5144.144144144144 9.148361577855861e+38
5154.154154154154 9.08500602322901e+38
5164.1641641641645 9.022194872430045e+38
5174.174174174174 8.959922550883706e+38
5184.184184184184 8.898183550208423e+38
5194.194194194194 8.83697242732526e+38
5204.204204204204 8.776283803580224e+38
5214.214214214214 8.716112363879495e+38
5224.224224224225 8.656452855837568e+38
5234.2342342342345 8.59730008893801e+38
5244.244244244244 8.538648933706635e+38
5254.254254254254 8.480494320896944e+38
5264.264264264264 8.422831240687539e+38
5274.274274274274 8.365654741891484e+38
5284.284284284285 8.308959931177238e+38
5294.294294294295 8.252741972301113e+38
5304.304304304304 8.196996085350992e+38
5314.314314314314 8.1417175460012e+38
5324.324324324324 8.086901684778281e+38
5334.334334334334 8.03254388633755e+38
5344.344344344345 7.978639588750249e+38
5354.354354354355 7.92518428280113e+38
5364.3643643643645 7.872173511296275e+38
5374.374374374374 7.819602868381069e+38
5384.384384384384 7.767467998868056e+38
5394.394394394394 7.71576459757464e+38
5404.404404404404 7.66448840867035e+38
5414.414414414415 7.613635225033649e+38
5424.424424424425 7.563200887618049e+38
5434.4344344344345 7.513181284827397e+38
5444.444444444444 7.46357235190019e+38
5454.454454454454 7.41437007030286e+38
5464.464464464464 7.365570467131741e+38
5474.474474474475 7.317169614523668e+38
5484.484484484485 7.269163629075117e+38
5494.494494494495 7.221548671269632e+38
5504.504504504504 7.174320944913521e+38
5514.514514514514 7.127476696579612e+38
5524.524524524524 7.081012215059021e+38
5534.534534534535 7.034923830820715e+38
5544.544544544545 6.98920791547886e+38
5554.554554554555 6.943860881267674e+38
5564.5645645645645 6.898879180523878e+38
5574.574574574574 6.85425930517643e+38
5584.584584584584 6.809997786243557e+38
5594.594594594595 6.766091193336879e+38
5604.604604604605 6.722536134172661e+38
5614.614614614615 6.6793292540898536e+38
5624.624624624625 6.6364672355750516e+38
5634.6346346346345 6.593946797794124e+38
5644.644644644644 6.551764696130438e+38
5654.654654654654 6.509917721729619e+38
5664.664664664665 6.468402701050664e+38
5674.674674674675 6.42721649542343e+38
5684.684684684685 6.3863560006122546e+38
5694.694694694695 6.345818146385739e+38
5704.704704704704 6.305599896092534e+38
5714.714714714714 6.265698246243058e+38
5724.724724724725 6.226110226097035e+38
5734.734734734735 6.186832897256795e+38
5744.744744744745 6.147863353266232e+38
5754.754754754755 6.109198719215313e+38
5764.764764764765 6.0708361513501006e+38
5774.774774774774 6.032772836688174e+38
5784.784784784785 5.995005992639348e+38
5794.794794794795 5.957532866631663e+38
5804.804804804805 5.920350735742521e+38
5814.814814814815 5.883456906334884e+38
5824.824824824825 5.846848713698532e+38
5834.8348348348345 5.8105235216961756e+38
5844.844844844845 5.774478722414506e+38
5854.854854854855 5.738711735819954e+38
5864.864864864865 5.703220009419195e+38
5874.874874874875 5.6680010179242955e+38
5884.884884884885 5.633052262922408e+38
5894.894894894895 5.598371272549985e+38
5904.9049049049045 5.5639556011714024e+38
