#lamb flux
1000.0 1.1513535035924216e+39
1010.01001001001 1.2310454512262155e+39
1020.0200200200201 1.3099814115454711e+39
1030.03003003003 1.3878603589308964e+39
1040.0400400400401 1.4644256636246218e+39
1050.05005005005 1.5394639836599855e+39
1060.06006006006 1.612803333309936e+39
1070.07007007007 1.6843105425624488e+39
1080.08008008008 1.7538882973464325e+39
1090.0900900900901 1.8214719232722918e+39
1100.1001001001 1.8870260484845066e+39
1110.11011011011 1.9505412552437656e+39
1120.1201201201202 2.0120308059764335e+39
1130.13013013013 2.0715275082783147e+39
1140.1401401401401 2.129080764970876e+39
1150.1501501501502 2.1847538397998516e+39
1160.16016016016 2.238621356608865e+39
1170.1701701701702 2.290767039590173e+39
1180.1801801801803 2.3412816942351904e+39
1190.1901901901902 2.3902614225808846e+39
1200.2002002002002 2.437806061977851e+39
1210.2102102102103 2.4840178336092857e+39
1220.2202202202202 2.5290001851094673e+39
1230.2302302302303 2.572856810636246e+39
1240.2402402402402 2.615690831445762e+39
1250.2502502502502 2.6573415435253097e+39
1260.2602602602603 2.6971055116593962e+39
1270.2702702702702 2.7335983838942473e+39
1280.2802802802803 2.7668852891589435e+39
1290.2902902902902 2.797040597464865e+39
1300.3003003003003 2.8241464225006876e+39
1310.3103103103103 2.8482912363305925e+39
1320.3203203203202 2.8695685968677934e+39
1330.3303303303303 2.888075986893738e+39
1340.3403403403404 2.9039137618767953e+39
1350.3503503503503 2.917184202666526e+39
1360.3603603603603 2.9279906682554537e+39
1370.3703703703704 2.936436843166955e+39
1380.3803803803803 2.942626073607253e+39
1390.3903903903904 2.9466607862756164e+39
1400.4004004004005 2.948641983628369e+39
1410.4104104104103 2.9486688094116694e+39
1420.4204204204204 2.946838178390347e+39
1430.4304304304305 2.943244464384849e+39
1440.4404404404404 2.9379792409676016e+39
1450.4504504504505 2.9311310694483285e+39
1460.4604604604606 2.9227853290832333e+39
1470.4704704704704 2.913024084764211e+39
1480.4804804804805 2.901925987773864e+39
1490.4904904904906 2.889566205522657e+39
1500.5005005005005 2.876016376511399e+39
1510.5105105105106 2.8613445870811594e+39
1520.5205205205207 2.845615366820993e+39
1530.5305305305305 2.8288896997995037e+39
1540.5405405405404 2.8112250490683935e+39
1550.5505505505505 2.792675392154009e+39
1560.5605605605606 2.7732912655068567e+39
1570.5705705705705 2.7531198161198325e+39
1580.5805805805805 2.732204858754183e+39
1590.5905905905906 2.7105869374301007e+39
1600.6006006006005 2.6883033900474294e+39
1610.6106106106106 2.6653884152042123e+39
1620.6206206206207 2.6418731404785232e+39
1630.6306306306305 2.617785691635761e+39
1640.6406406406406 2.5931512624220006e+39
1650.6506506506507 2.567992184808395e+39
1660.6606606606606 2.5423279997653835e+39
1670.6706706706707 2.516175528873972e+39
1680.6806806806808 2.4895489473288764e+39
1690.6906906906906 2.4624598591611702e+39
1700.7007007007007 2.434929801404678e+39
1710.7107107107108 2.4070148084243716e+39
1720.7207207207207 2.3787125058514197e+39
1730.7307307307308 2.3500124004702903e+39
1740.7407407407409 2.3209030027059425e+39
1750.7507507507507 2.2913718933695882e+39
1760.7607607607606 2.261405812694574e+39
1770.770770770771 2.2309907763864917e+39
1780.7807807807808 2.2001122241713555e+39
1790.7907907907907 2.1687552071537925e+39
1800.8008008008007 2.136904621178861e+39
1810.8108108108108 2.104545494300035e+39
1820.8208208208207 2.071663337350359e+39
1830.8308308308308 2.0382445674311683e+39
1840.8408408408409 2.0042770147832607e+39
1850.8508508508507 1.9697505238658954e+39
1860.8608608608608 1.9346576593746542e+39
1870.870870870871 1.8989945271680962e+39
1880.8808808808808 1.8627617183808404e+39
1890.890890890891 1.825965382060762e+39
1900.900900900901 1.788618427119758e+39
1910.9109109109108 1.7507418478454184e+39
1920.920920920921 1.71236615831319e+39
1930.930930930931 1.673532909466403e+39
1940.940940940941 1.634296248258831e+39
1950.950950950951 1.5947244612248238e+39
1960.960960960961 1.554901425721948e+39
1970.970970970971 1.5149278720209417e+39
1980.980980980981 1.4749223402443533e+39
1990.9909909909911 1.4350217004961346e+39
2001.001001001001 1.3953810957050682e+39
2011.0110110110109 1.3561731685027237e+39
2021.0210210210212 1.3175864495979165e+39
2031.031031031031 1.2798228185178515e+39
2041.0410410410411 1.2430939994491448e+39
2051.051051051051 1.2076171237479475e+39
2061.061061061061 1.1736094716791657e+39
2071.071071071071 1.1412825908591435e+39
2081.081081081081 1.1108360668332435e+39
2091.091091091091 1.0824512803625626e+39
2101.101101101101 1.0562855158270633e+39
2111.1111111111113 1.0324667789958447e+39
2121.121121121121 1.0110896392396842e+39
2131.131131131131 9.922123362468844e+38
2141.141141141141 9.758552948364376e+38
2151.151151151151 9.620010868014034e+38
2161.161161161161 9.505957790631747e+38
2171.1711711711714 9.415515233118995e+38
2181.1811811811813 9.347501800834491e+38
2191.191191191191 9.300477318202268e+38
2201.201201201201 9.272792233558188e+38
2211.2112112112113 9.262639709195242e+38
2221.221221221221 9.268107980157819e+38
2231.2312312312315 9.287230844989071e+38
2241.2412412412414 9.318034505202676e+38
2251.2512512512512 9.358579369504734e+38
2261.261261261261 9.40699585810727e+38
2271.271271271271 9.46151365729584e+38
2281.2812812812813 9.520484261431607e+38
2291.2912912912916 9.582396978353816e+38
2301.3013013013015 9.645888849286746e+38
2311.3113113113113 9.709749137081549e+38
2321.321321321321 9.772919165367056e+38
2331.331331331331 9.834488350893247e+38
2341.3413413413414 9.893687271918245e+38
2351.3513513513512 9.949878569720538e+38
2361.3613613613616 1.0002546401950683e+39
2371.3713713713714 1.005128506860106e+39
2381.3813813813813 1.0095787325091224e+39
2391.391391391391 1.0135832791170768e+39
2401.4014014014015 1.0171276765352279e+39
2411.4114114114113 1.0202039666398038e+39
2421.4214214214217 1.0228097248043284e+39
2431.4314314314315 1.0249471671192317e+39
2441.4414414414414 1.0266223468760414e+39
2451.4514514514512 1.027844440097538e+39
2461.4614614614616 1.0286251171758144e+39
2471.4714714714714 1.0289779958112725e+39
2481.4814814814818 1.028918169264134e+39
2491.4914914914916 1.0284618032868277e+39
2501.5015015015015 1.0276257948695762e+39
2511.5115115115113 1.0264274859923106e+39
2521.521521521521 1.0248844258435261e+39
2531.5315315315315 1.0230141753692978e+39
2541.541541541542 1.020834148498267e+39
2551.5515515515517 1.0183614849095926e+39
2561.5615615615616 1.0156129497407062e+39
2571.5715715715714 1.0126048561492094e+39
2581.5815815815813 1.0093530071345303e+39
2591.5915915915916 1.0058726534815282e+39
2601.6016016016015 1.0021784651054688e+39
2611.611611611612 9.982845134541435e+38
2621.6216216216217 9.94204262958522e+38
2631.6316316316315 9.899505698200443e+38
2641.6416416416414 9.85535686682847e+38
2651.6516516516517 9.809712719658681e+38
2661.6616616616616 9.762684028260943e+38
2671.671671671672 9.71437590893298e+38
2681.6816816816818 9.664888000616445e+38
2691.6916916916916 9.614314657473218e+38
2701.7017017017015 9.562745151266332e+38
2711.711711711712 9.510263879581659e+38
2721.7217217217217 9.456950576679272e+38
2731.731731731732 9.40288052439609e+38
2741.741741741742 9.348124761052298e+38
2751.7517517517517 9.292750286756279e+38
2761.7617617617616 9.236820263871583e+38
2771.7717717717715 9.18039421171377e+38
2781.781781781782 9.123528194796967e+38
2791.791791791792 9.066275004155668e+38
2801.801801801802 9.008684331435658e+38
2811.811811811812 8.950802935584217e+38
2821.8218218218217 8.892674802079133e+38
2831.8318318318316 8.834341294723283e+38
2841.841841841842 8.77584130010028e+38
2851.851851851852 8.71721136483982e+38
2861.861861861862 8.658485825881916e+38
2871.871871871872 8.59969693395928e+38
2881.881881881882 8.540874970538657e+38
2891.8918918918916 8.482048358476194e+38
2901.901901901902 8.42324376665092e+38
2911.911911911912 8.364486208844504e+38
2921.921921921922 8.305799137136154e+38
2931.931931931932 8.24720453007907e+38
2941.941941941942 8.188722975920508e+38
2951.9519519519517 8.130373751121003e+38
2961.961961961962 8.072174894421052e+38
2971.971971971972 8.014143276694698e+38
2981.9819819819822 7.956294666820641e+38
2991.991991991992 7.898643793791694e+38
3002.002002002002 7.84120440527375e+38
3012.012012012012 7.78398932281555e+38
3022.0220220220217 7.727010493900599e+38
3032.032032032032 7.709327552460372e+38
3042.0420420420423 7.64783472195803e+38
3052.052052052052 7.5852808642141e+38
3062.062062062062 7.522060126564867e+38
3072.072072072072 7.458510496765171e+38
3082.0820820820823 7.394919629929687e+38
3092.092092092092 7.331530277146762e+38
3102.102102102102 7.268545302162723e+38
3112.1121121121123 7.206132285536444e+38
3122.122122122122 7.144427725176918e+38
3132.132132132132 7.083540848896995e+38
3142.1421421421423 7.023557059132147e+38
3152.152152152152 6.964541032771891e+38
3162.162162162162 6.906539500537964e+38
3172.1721721721724 6.849583730840807e+38
3182.1821821821823 6.7936917428196675e+38
3192.192192192192 6.738870272527784e+38
3202.202202202202 6.685116515127275e+38
3212.2122122122123 6.632419664634155e+38
3222.222222222222 6.580762271299373e+38
3232.232232232232 6.530121435199651e+38
3242.2422422422424 6.480469853095033e+38
3252.252252252252 6.431776734126679e+38
3262.262262262262 6.3840085985058466e+38
3272.2722722722724 6.337129971999203e+38
3282.2822822822823 6.291103987758105e+38
3292.292292292292 6.245892905874897e+38
3302.3023023023025 6.2014585599791e+38
3312.3123123123123 6.157762739209108e+38
3322.322322322322 6.1147675130078544e+38
3332.3323323323325 6.0724355053879645e+38
3342.3423423423424 6.030730124589755e+38
3352.352352352352 5.989615753406058e+38
3362.3623623623625 5.949057904867262e+38
3372.3723723723724 5.909023347460816e+38
3382.3823823823823 5.869480203596368e+38
3392.3923923923926 5.830398024616283e+38
3402.4024024024025 5.7917478452842685e+38
3412.4124124124123 5.753502220359704e+38
3422.4224224224226 5.71563524557598e+38
3432.4324324324325 5.678122565084664e+38
3442.4424424424424 5.6409413671994665e+38
3452.4524524524522 5.604070370071819e+38
3462.4624624624626 5.5674897987502226e+38
3472.4724724724724 5.531181354916019e+38
3482.4824824824823 5.495128180446053e+38
3492.4924924924926 5.459314815826558e+38
3502.5025025025025 5.423727154329606e+38
3512.5125125125123 5.388352392763083e+38
3522.5225225225226 5.3531789795151724e+38
3532.5325325325325 5.31819656053368e+38
3542.5425425425424 5.283395923808546e+38
3552.5525525525527 5.248768942860882e+38
3562.5625625625626 5.2143085196835925e+38
3572.5725725725724 5.180008527526024e+38
3582.5825825825827 5.145863753867796e+38
3592.5925925925926 5.1118698438839295e+38
3602.6026026026025 5.07802324466475e+38
3612.612612612613 5.044321150418956e+38
3622.6226226226227 5.010761448856341e+38
3632.6326326326325 4.9773426689179444e+38
3642.642642642643 4.944063929995237e+38
3652.6526526526527 4.9109248927562004e+38
3662.6626626626626 4.877925711674695e+38
3672.672672672673 4.845066989340159e+38
3682.6826826826828 4.812349732606971e+38
3692.6926926926926 4.7797753106269456e+38
3702.7027027027025 4.747345414794134e+38
3712.712712712713 4.715062020618234e+38
3722.7227227227227 4.682927351531366e+38
3732.7327327327325 4.65094384462255e+38
3742.742742742743 4.6191141182852664e+38
3752.7527527527527 4.5874409417551394e+38
3762.7627627627626 4.555927206507773e+38
3772.772772772773 4.5245758994805084e+38
3782.7827827827828 4.493390078076428e+38
3792.7927927927926 4.4623728469043204e+38
3802.802802802803 4.431527336204441e+38
3812.812812812813 4.400856681906547e+38
3822.8228228228227 4.370364007264114e+38
3832.832832832833 4.3400524060064734e+38
3842.842842842843 4.309924926949029e+38
3852.8528528528527 4.279984560000569e+38
3862.862862862863 4.250234223505925e+38
3872.872872872873 4.2206767528619934e+38
3882.8828828828828 4.191314890344923e+38
3892.892892892893 4.162151276086891e+38
3902.902902902903 4.1331884401410986e+38
3912.912912912913 4.1044287955747374e+38
3922.922922922923 4.075874632530532e+38
3932.932932932933 4.047528113198816e+38
3942.942942942943 4.019391267643267e+38
3952.9529529529527 3.991465990425216e+38
3962.962962962963 3.963754037972864e+38
3972.972972972973 3.9362570266435155e+38
3982.982982982983 3.908976431428827e+38
3992.992992992993 3.88191358525473e+38
4003.003003003003 3.855069678829933e+38
4013.013013013013 3.8284457609983494e+38
4023.023023023023 3.802042739553251e+38
4033.033033033033 3.7758613824725596e+38
4043.043043043043 3.7499023195367416e+38
4053.053053053053 3.72416604429276e+38
4063.063063063063 3.698652916329362e+38
4073.073073073073 3.6733631638308905e+38
4083.0830830830832 3.648296886378662e+38
4093.093093093093 3.6234540579707695e+38
4103.103103103103 3.598834530232835e+38
4113.113113113113 3.574438035794106e+38
4123.123123123123 3.5502641918047156e+38
4133.133133133133 3.5263125035717725e+38
4143.143143143143 3.5025823682932675e+38
4153.153153153153 3.4790730788703904e+38
4163.163163163163 3.455783827780226e+38
4173.173173173173 3.432713710992139e+38
4183.183183183183 3.409861731912513e+38
4193.193193193193 3.3872268053436362e+38
4203.203203203203 3.364807761443829e+38
4213.213213213214 3.3426033496769333e+38
4223.223223223224 3.3206122427403612e+38
4233.2332332332335 3.2988330404618997e+38
4243.243243243243 3.2772642736564455e+38
4253.253253253253 3.2559044079346532e+38
4263.263263263263 3.2347518474564105e+38
4273.273273273273 3.2138049386227432e+38
4283.283283283283 3.193061973700559e+38
4293.293293293293 3.172521194375295e+38
4303.303303303303 3.152180795227152e+38
4313.313313313313 3.1320389271272685e+38
4323.323323323323 3.1120937005505997e+38
4333.333333333334 3.0923431888029886e+38
4343.343343343344 3.072785431160171e+38
4353.353353353354 3.0534184359170515e+38
4363.3633633633635 3.0342401833459324e+38
4373.373373373373 3.0152486285627304e+38
4383.383383383383 2.996441704300613e+38
4393.393393393393 2.977817323590741e+38
4403.403403403403 2.9593733823501236e+38
4413.413413413413 2.9411077618768184e+38
4423.423423423424 2.923018331253009e+38
4433.4334334334335 2.905102949656595e+38
4443.443443443443 2.8873594685822224e+38
4453.453453453454 2.8697857339727896e+38
4463.463463463464 2.852379588262664e+38
4473.473473473474 2.8351388723338774e+38
4483.483483483484 2.8180614273868564e+38
4493.493493493494 2.8011450967271483e+38
4503.503503503503 2.784387727469857e+38
4513.513513513513 2.7677871721634755e+38
4523.523523523523 2.7513412903349002e+38
4533.533533533533 2.7350479499574993e+38
4543.543543543543 2.7189050288440577e+38
4553.553553553554 2.7029104159665636e+38
4563.563563563564 2.6870620127047523e+38
4573.573573573573 2.6713577340253578e+38
4583.583583583584 2.6557955095940617e+38
4593.593593593594 2.6403732848220814e+38
4603.603603603604 2.625089021849384e+38
4613.613613613614 2.6099407004665014e+38
4623.623623623624 2.5949263189768474e+38
4633.6336336336335 2.5800438950015323e+38
4643.643643643643 2.565291466228556e+38
4653.653653653653 2.550667091108273e+38
4663.663663663663 2.5361688494970076e+38
4673.673673673674 2.5217948432506485e+38
4683.683683683684 2.507543196770055e+38
4693.693693693694 2.4934120575000067e+38
4703.703703703704 2.479399596383488e+38
4713.713713713714 2.4655040082729873e+38
4723.723723723724 2.451723512300496e+38
4733.733733733734 2.438056352207811e+38
4743.743743743744 2.4245007966388054e+38
4753.753753753754 2.4110551393951337e+38
4763.763763763764 2.397717699656978e+38
4773.773773773773 2.384486822170242e+38
4783.783783783783 2.371360877401701e+38
4793.793793793793 2.358338261663452e+38
4803.803803803804 2.3454173972080642e+38
4813.813813813814 2.3325967322957332e+38
4823.823823823824 2.3198747412347464e+38
4833.833833833834 2.3072499243964767e+38
4843.843843843844 2.2947208082061496e+38
4853.853853853854 2.2822859451105264e+38
4863.863863863864 2.2699439135236602e+38
4873.873873873874 2.2576933177518124e+38
4883.883883883884 2.2455327878986135e+38
4893.893893893894 2.233460979751465e+38
4903.9039039039035 2.221476574650226e+38
4913.913913913913 2.2095782793391e+38
4923.923923923924 2.1977648258026884e+38
4933.933933933934 2.1860349710870992e+38
4943.943943943944 2.174387497106964e+38
4953.953953953955 2.1628212104392286e+38
4963.9639639639645 2.1513349421045108e+38
4973.973973973974 2.1399275473367915e+38
4983.983983983984 2.128597905342229e+38
4993.993993993994 2.1173449190477838e+38
5004.004004004004 2.1061675148403633e+38
5014.014014014014 2.0950646422971797e+38
5024.024024024024 2.0840352739079282e+38
5034.0340340340335 2.0730784047894533e+38
5044.044044044043 2.062193052393464e+38
5054.054054054054 2.0513782562079027e+38
5064.064064064064 2.0406330774525043e+38
5074.074074074074 2.0299565987690844e+38
5084.084084084085 2.019347923907071e+38
5094.0940940940945 2.0088061774047698e+38
5104.104104104104 1.9983305042668297e+38
5114.114114114114 1.9879200696383667e+38
5124.124124124124 1.977574058476175e+38
5134.134134134134 1.967291675217456e+38
5144.144144144144 1.957072143446437e+38
5154.154154154154 1.9469147055592918e+38
5164.1641641641645 1.9368186224277017e+38
5174.174174174174 1.9267831730614315e+38
5184.184184184184 1.9168076542702334e+38
5194.194194194194 1.90689138032541e+38
5204.204204204204 1.8970336826213438e+38
5214.214214214214 1.8872339093372757e+38
5224.224224224225 1.877491425099614e+38
5234.2342342342345 1.8678056106450462e+38
5244.244244244244 1.858175862484689e+38
5254.254254254254 1.8486015925695405e+38
5264.264264264264 1.839082227957432e+38
5274.274274274274 1.829617210481731e+38
5284.284284284285 1.82020599642197e+38
5294.294294294295 1.81084805617662e+38
5304.304304304304 1.8015428739381698e+38
5314.314314314314 1.792289947370714e+38
5324.324324324324 1.7830887872901863e+38
5334.334334334334 1.7739389173474156e+38
5344.344344344345 1.7648398737141343e+38
5354.354354354355 1.755791204772093e+38
5364.3643643643645 1.7467924708053936e+38
5374.374374374374 1.737843243696178e+38
5384.384384384384 1.7289431066237673e+38
5394.394394394394 1.7200916537673797e+38
5404.404404404404 1.7112884900125028e+38
5414.414414414415 1.70253323066102e+38
5424.424424424425 1.693825501145187e+38
5434.4344344344345 1.6851649367455053e+38
5444.444444444444 1.676551182312594e+38
5454.454454454454 1.667983891993117e+38
5464.464464464464 1.6594627289598014e+38
5474.474474474475 1.6509873651456338e+38
5484.484484484485 1.6425574809822573e+38
5494.494494494495 1.6341727651426187e+38
5504.504504504504 1.625832914287905e+38
5514.514514514514 1.6175376328187947e+38
5524.524524524524 1.6092866326310571e+38
5534.534534534535 1.6010796328755148e+38
5544.544544544545 1.5929163597223939e+38
5554.554554554555 1.5847965461300655e+38
5564.5645645645645 1.5767199316181999e+38
5574.574574574574 1.5686862620453284e+38
5584.584584584584 1.5606952893908215e+38
5594.594594594595 1.5527467715412665e+38
5604.604604604605 1.5448404720812742e+38
5614.614614614615 1.5369761600886506e+38
5624.624624624625 1.5291536099339728e+38
5634.6346346346345 1.5213726010845304e+38
5644.644644644644 1.5136329179126049e+38
5654.654654654654 1.505934349508097e+38
5664.664664664665 1.498276689495432e+38
5674.674674674675 1.490659735854778e+38
5684.684684684685 1.4830832907474791e+38
5694.694694694695 1.4755471603457325e+38
5704.704704704704 1.46805115466644e+38
5714.714714714714 1.4605950874092118e+38
5724.724724724725 1.4531787757984867e+38
5734.734734734735 1.445802040429722e+38
5744.744744744745 1.438464705119622e+38
5754.754754754755 1.431166596760352e+38
5764.764764764765 1.4239075451777045e+38
5774.774774774774 1.4166873829931713e+38
5784.784784784785 1.409505945489857e+38
5794.794794794795 1.4023630704822166e+38
5804.804804804805 1.3952585981895418e+38
5814.814814814815 1.388192371113157e+38
5824.824824824825 1.3811642339172765e+38
5834.8348348348345 1.3741740333134596e+38
5844.844844844845 1.367221617948631e+38
5854.854854854855 1.3603068382965845e+38
5864.864864864865 1.353429546552941e+38
5874.874874874875 1.3465895965334956e+38
5884.884884884885 1.3397868435758944e+38
