#lamb flux
1000.0 5.805131604868006
1010.01001001001 5.941112719988656
1020.0200200200201 6.064502030359361
1030.03003003003 6.175706962551225
1040.0400400400401 6.275203006840622
1050.05005005005 6.3635174039500235
1060.06006006006 6.441214686768629
1070.07007007007 6.508884052283295
1080.08008008008 6.567128490070873
1090.0900900900901 6.616555559851
1100.1001001001 6.657769689010863
1110.11011011011 6.691365849172409
1120.1201201201202 6.717924466558787
1130.13013013013 6.738007422235729
1140.1401401401401 6.752155003672267
1150.1501501501502 6.7608836771967455
1160.16016016016 6.764684560792878
1170.1701701701702 6.764022487490364
1180.1801801801803 6.759335560752054
1190.1901901901902 6.751035114301638
1200.2002002002002 6.7395059994605075
1210.2102102102103 6.725107133059142
1220.2202202202202 6.708172248229437
1230.2302302302303 6.68901079880199
1240.2402402402402 6.667908975605098
1250.2502502502502 6.64475782893248
1260.2602602602603 6.618701313886505
1270.2702702702702 6.588014560218926
1280.2802802802803 6.553042994200685
1290.2902902902902 6.514118175708153
1300.3003003003003 6.471557369102666
1310.3103103103103 6.425663285704363
1320.3203203203202 6.376723974070639
1330.3303303303303 6.325012836470423
1340.3403403403404 6.27078875204948
1350.3503503503503 6.214296289187148
1360.3603603603603 6.1557659914335
1370.3703703703704 6.0954147231789895
1380.3803803803803 6.033446062840296
1390.3903903903904 5.970050732845887
1400.4004004004005 5.905407057073555
1410.4104104104103 5.83968143763471
1420.4204204204204 5.773028844021347
1430.4304304304305 5.705593308638187
1440.4404404404404 5.637508423642148
1450.4504504504505 5.568897834810892
1460.4604604604606 5.499875728870628
1470.4704704704704 5.430547311337278
1480.4804804804805 5.361009272473094
1490.4904904904906 5.291350239439464
1500.5005005005005 5.221651213143164
1510.5105105105106 5.151985988634515
1520.5205205205207 5.082421558227312
1530.5305305305305 5.013018496778483
1540.5405405405404 4.943831328795029
1550.5505505505505 4.8749088772320635
1560.5605605605606 4.806294594013218
1570.5705705705705 4.738026872448024
1580.5805805805805 4.670139341843309
1590.5905905905906 4.602661144711915
1600.6006006006005 4.535617197075122
1610.6106106106106 4.469028432438867
1620.6206206206207 4.402912030101384
1630.6306306306305 4.337281628525146
1640.6406406406406 4.272147524581676
1650.6506506506507 4.207516859558765
1660.6606606606606 4.1433937929081
1670.6706706706707 4.079779664813303
1680.6806806806808 4.016673148776573
1690.6906906906906 3.954070395562926
1700.7007007007007 3.891976452303698
1710.7107107107108 3.8304272767534235
1720.7207207207207 3.7694054711432448
1730.7307307307308 3.708886515555435
1740.7407407407409 3.6488452483579583
1750.7507507507507 3.5892559054902864
1760.7607607607606 3.5300921742801283
1770.770770770771 3.471327265428306
1780.7807807807808 3.412934007452292
1790.7907907907907 3.3548849686176667
1800.8008008008007 3.2971526122088926
1810.8108108108108 3.2397094918880973
1820.8208208208207 3.1825284948441874
1830.8308308308308 3.125583141411995
1840.8408408408409 3.0688479507892508
1850.8508508508507 3.012298883319594
1860.8608608608608 2.955913870429117
1870.870870870871 2.8996734435465803
1880.8808808808808 2.8435614729958494
1890.890890890891 2.7875660266568363
1900.900900900901 2.7316803558187557
1910.9109109109108 2.6759040117063266
1920.920920920921 2.620244090210462
1930.930930930931 2.5647165939494885
1940.940940940941 2.509347889518745
1950.950950950951 2.4541762233793256
1960.960960960961 2.399253242269582
1970.970970970971 2.344645443687067
1980.980980980981 2.2904354598686507
1990.9909909909911 2.2367230565463307
2001.001001001001 2.183625708223791
2011.0110110110109 2.131278598353151
2021.0210210210212 2.0798338898537803
2031.031031031031 2.02945912342097
2041.0410410410411 1.9803346320296238
2051.051051051051 1.9326499124212253
2061.061061061061 1.8865989679700326
2071.071071071071 1.8423747282950371
2081.081081081081 1.8001627513105785
2091.091091091091 1.760134511305183
2101.101101101101 1.722440657944474
2111.1111111111113 1.6872046816355564
2121.121121121121 1.6545174291673588
2131.131131131131 1.624432874238218
2141.141141141141 1.596965462019297
2151.151151151151 1.5720892244463698
2161.161161161161 1.5497387187162883
2171.1711711711714 1.5298116939706778
2181.1811811811813 1.5121732586975978
2191.191191191191 1.4966612189738913
2201.201201201201 1.4830921947938636
2211.2112112112113 1.4712681014637585
2221.221221221221 1.4609826024506964
2231.2312312312315 1.4520271915699288
2241.2412412412414 1.4441966356197997
2251.2512512512512 1.437293592372666
2261.261261261261 1.4311323029291418
2271.271271271271 1.4255413336407188
2281.2812812812813 1.4203654055796153
2291.2912912912916 1.415466396113821
2301.3013013013015 1.4107236271684338
2311.3113113113113 1.4060335696811432
2321.321321321321 1.4013090961936638
2331.331331331331 1.3964784065769247
2341.3413413413414 1.3914837386857588
2351.3513513513512 1.386279959056239
2361.3613613613616 1.380833110842361
2371.3713713713714 1.3751189786932692
2381.3813813813813 1.369121714291217
2391.391391391391 1.3628325524207165
2401.4014014014015 1.3562486359671408
2411.4114114114113 1.3493719591317441
2421.4214214214217 1.3422084312145601
2431.4314314314315 1.3347670582792368
2441.4414414414414 1.3270592365605303
2451.4514514514512 1.31909814929353
2461.4614614614616 1.31089825744608
2471.4714714714714 1.3024748743721484
2481.4814814814818 1.2938438144649698
2491.4914914914916 1.2850211063067352
2501.5015015015015 1.276022761455368
2511.5115115115113 1.2668645907797704
2521.521521521521 1.2575620610806433
2531.5315315315315 1.2481301855638969
2541.541541541542 1.2385834425336644
2551.5515515515517 1.2289357174206403
2561.5615615615616 1.2192002639468642
2571.5715715715714 1.209389680844788
2581.5815815815813 1.1995159010957257
2591.5915915915916 1.1895901911330387
2601.6016016016015 1.1796231578727399
2611.611611611612 1.1696247617940532
2621.6216216216217 1.159604334600478
2631.6316316316315 1.1495706002539334
2641.6416416416414 1.1395316983962855
2651.6516516516517 1.1294952093590933
2661.6616616616616 1.1194681801187312
2671.671671671672 1.1094571506843394
2681.6816816816818 1.0994681805142246
2691.6916916916916 1.089506874645722
2701.7017017017015 1.0795784092970524
2711.711711711712 1.0696875567599253
2721.7217217217217 1.0598387094506534
2731.731731731732 1.0500359030272295
2741.741741741742 1.040282838511828
2751.7517517517517 1.0305829033836356
2761.7617617617616 1.0209391916271977
2771.7717717717715 1.0113545227372427
2781.781781781782 1.0018314596932345
2791.791791791792 0.9923723259262041
2801.801801801802 0.9829792213073343
2811.811811811812 0.9736540371927747
2821.8218218218217 0.9643984705626131
2831.8318318318316 0.9552140372941073
2841.841841841842 0.9461020846105062
2851.851851851852 0.9370638027472008
2861.861861861862 0.9281002358767724
2871.871871871872 0.9192122923338605
2881.881881881882 0.9104007541797677
2891.8918918918916 0.9016662861454837
2901.901901901902 0.8930094439903234
2911.911911911912 0.8844306823118739
2921.921921921922 0.875930361841245
2931.931931931932 0.8675087562559808
2941.941941941942 0.8591660585412773
2951.9519519519517 0.8509023869284877
2961.961961961962 0.8427177904382667
2971.971971971972 0.834612254054079
2981.9819819819822 0.8265857035502899
2991.991991991992 0.8186380099975484
3002.002002002002 0.8107689939667749
3012.012012012012 0.8029784294517068
3022.0220220220217 0.7952660475286821
3032.032032032032 0.789906825315134
3042.0420420420423 0.7820531996455925
3052.052052052052 0.7742010015098979
3062.062062062062 0.7663725156166891
3072.072072072072 0.7585866084424181
3082.0820820820823 0.75085910884821
3092.092092092092 0.7432031559943337
3102.102102102102 0.7356295159293852
3112.1121121121123 0.728146868516359
3122.122122122122 0.7207620665323312
3132.132132132132 0.7134803688677648
3142.1421421421423 0.7063056497760848
3152.152152152152 0.6992405861007998
3162.162162162162 0.6922868243494879
3172.1721721721724 0.6854451294019386
3182.1821821821823 0.6787155165420027
3192.192192192192 0.6720973683955993
3202.202202202202 0.6655895382458094
3212.2122122122123 0.6591904410836542
3222.222222222222 0.6528981336426876
3232.232232232232 0.6467103845588839
3242.2422422422424 0.6406247356956897
3252.252252252252 0.6346385555783706
3262.262262262262 0.6287490857924382
3272.2722722722724 0.6229534811180768
3282.2822822822823 0.6172488440961942
3292.292292292292 0.6116322546517592
3302.3023023023025 0.6061007953362755
3312.3123123123123 0.6006515726931947
3322.322322322322 0.5952817351974863
3332.3323323323325 0.5899884881730149
3342.3423423423424 0.5847691060485208
3352.352352352352 0.5796209422743654
3362.3623623623625 0.5745414371875481
3372.3723723723724 0.569528124081348
3382.3823823823823 0.5645786337080262
3392.3923923923926 0.5596906974180663
3402.4024024024025 0.5548621491170125
3412.4124124124123 0.5500909262009901
3422.4224224224226 0.5453750696140884
3432.4324324324325 0.5407127231547968
3442.4424424424424 0.5361021321443926
3452.4524524524522 0.531541641557413
3462.4624624624626 0.5270296937029255
3472.4724724724724 0.5225648255351184
3482.4824824824823 0.518145665662609
3492.4924924924926 0.5137709311177268
3502.5025025025025 0.5094394239397327
3512.5125125125123 0.5051500276194257
3522.5225225225226 0.5009017034467571
3532.5325325325325 0.49669348679785374
3542.5425425425424 0.4925244833931926
3552.5525525525527 0.48839386555449016
3562.5625625625626 0.4843008684841363
3572.5725725725724 0.480244786587655
3582.5825825825827 0.4762249698567049
3592.5925925925926 0.4722408203274316
3602.6026026026025 0.4682917886266277
3612.612612612613 0.46437737061600565
3622.6226226226227 0.46049710414299583
3632.6326326326325 0.4566505659047879
3642.642642642643 0.4528373684308377
3652.6526526526527 0.44905715718770767
3662.6626626626626 0.44530960780894097
3672.672672672673 0.4415944234516214
3682.6826826826828 0.43791133228034573
3692.6926926926926 0.4342600850785284
3702.7027027027025 0.4306404529862576
3712.712712712713 0.42705222536330106
3722.7227227227227 0.4234952077753431
3732.7327327327325 0.41996922010105636
3742.742742742743 0.41647409475725505
3752.7527527527527 0.41300967503902913
3762.7627627627626 0.4095758135715004
3772.772772772773 0.4061723708696224
3782.7827827827828 0.4027992140022678
3792.7927927927926 0.3994562153567195
3802.802802802803 0.3961432514995795
3812.812812812813 0.3928602021300476
3822.8228228228227 0.38960694912148597
3832.832832832833 0.38638337564717395
3842.842842842843 0.38318936538617004
3852.8528528528527 0.3800248018052312
3862.862862862863 0.3768895675127863
3872.872872872873 0.3737835436810297
3882.8828828828828 0.3707066095322664
3892.892892892893 0.3676586418857536
3902.902902902903 0.36463951476134515
3912.912912912913 0.36164909903638676
3922.922922922923 0.3586872621523941
3932.932932932933 0.35575386786818536
3942.942942942943 0.3528487760562373
3952.9529529529527 0.34997184253917796
3962.962962962963 0.3471229189634453
3972.972972972973 0.3443018527072634
3982.982982982983 0.3415084868202251
3992.992992992993 0.3387426599918848
4003.003003003003 0.3360042065469039
4013.013013013013 0.33329295646439755
4023.023023023023 0.3306087354192703
4033.033033033033 0.32795136484343773
4043.043043043043 0.3253206620049476
4053.053053053053 0.32271644010313605
4063.063063063063 0.3201385083780536
4073.073073073073 0.3175866722325115
4083.0830830830832 0.3150607333651996
4093.093093093093 0.31256048991342494
4103.103103103103 0.31008573660411987
4113.113113113113 0.30763626491186
4123.123123123123 0.30521186322271554
4133.133133133133 0.3028123170028541
4143.143143143143 0.3004374089708873
4153.153153153153 0.2980869192730288
4163.163163163163 0.2957606256602109
4173.173173173173 0.2934583036663721
4183.183183183183 0.2911797267871965
4193.193193193193 0.2889246666586439
4203.203203203203 0.28669289323467567
4213.213213213214 0.2844841749636322
4223.223223223224 0.2822982789627692
4233.2332332332335 0.28013497119051295
4243.243243243243 0.27799401661604045
4253.253253253253 0.2758751793858305
4263.263263263263 0.2737782229868777
4273.273273273273 0.27170291040629163
4283.283283283283 0.2696490042870477
4293.293293293293 0.2676162670796831
4303.303303303303 0.2656044611897615
4313.313313313313 0.26361334912096474
4323.323323323323 0.2616426936136853
4333.333333333334 0.25969225777903043
4343.343343343344 0.2577618052281599
4353.353353353354 0.25585110019690577
4363.3633633633635 0.2539599076656398
4373.373373373373 0.25208799347437294
4383.383383383383 0.2502351244330823
4393.393393393393 0.24840106842728207
4403.403403403403 0.24658559451886158
4413.413413413413 0.24478847304222837
4423.423423423424 0.24300947569580653
4433.4334334334335 0.2412483756289444
4443.443443443443 0.23950494752429824
4453.453453453454 0.23777896767576687
4463.463463463464 0.23607021406205675
4473.473473473474 0.23437846641595741
4483.483483483484 0.23270350628942696
4493.493493493494 0.23104511711457415
4503.503503503503 0.22940308426063924
4513.513513513513 0.2277771950870741
4523.523523523523 0.22616723899282373
4533.533533533533 0.22457300746191725
4543.543543543543 0.22299429410547242
4553.553553553554 0.22143089470022412
4563.563563563564 0.21988260722368386
4573.573573573573 0.21834923188603886
4583.583583583584 0.21683057115890178
4593.593593593594 0.21532642980101643
4603.603603603604 0.21383661488102942
4613.613613613614 0.21236093579743445
4623.623623623624 0.21089920429579345
4633.6336336336335 0.20945123448334194
4643.643643643643 0.20801684284107985
4653.653653653653 0.20659584823344931
4663.663663663663 0.20518807191570101
4673.673673673674 0.2037933375390449
4683.683683683684 0.20241147115368452
4693.693693693694 0.20104230120982536
4703.703703703704 0.19968565855675222
4713.713713713714 0.19834137644006505
4723.723723723724 0.19700929049716015
4733.733733733734 0.19568923875104186
4743.743743743744 0.19438106160255156
4753.753753753754 0.19308460182109002
4763.763763763764 0.19179970453391615
4773.773773773773 0.19052621721409524
4783.783783783783 0.1892639896671756
4793.793793793793 0.1880128740166598
4803.803803803804 0.18677272468834497
4813.813813813814 0.18554339839359782
4823.823823823824 0.1843247541116292
4833.833833833834 0.1831166530708331
4843.843843843844 0.18191895872924957
4853.853853853854 0.18073153675421044
4863.863863863864 0.17955425500122646
4873.873873873874 0.17838698349216806
4883.883883883884 0.1772295943927949
4893.893893893894 0.17608196198968315
4903.9039039039035 0.1749439626666006
4913.913913913913 0.17381547488037552
4923.923923923924 0.17269637913630564
4933.933933933934 0.17158655796315025
4943.943943943944 0.17048589588774504
4953.953953953955 0.16939427940928323
4963.9639639639645 0.16831159697329864
4973.973973973974 0.16723773894538702
4983.983983983984 0.16617259758470265
4993.993993993994 0.16511606701726245
5004.004004004004 0.16406804320908935
5014.014014014014 0.16302842393922654
5024.024024024024 0.16199710877265
5034.0340340340335 0.16097399903311063
5044.044044044043 0.1599589977759276
5054.054054054054 0.15895200976076232
5064.064064064064 0.1579529414243955
5074.074074074074 0.1569617008535289
5084.084084084085 0.15597819775763547
5094.0940940940945 0.15500234344187805
5104.104104104104 0.15403405078011434
5114.114114114114 0.15307323418800872
5124.124124124124 0.15211980959626714
5134.134134134134 0.15117369442401227
5144.144144144144 0.15023480755231325
5154.154154154154 0.14930306929788628
5164.1641641641645 0.1483784013869782
5174.174174174174 0.14746072692944762
5184.184184184184 0.14654997039305373
5194.194194194194 0.14564605757796578
5204.204204204204 0.14474891559150369
5214.214214214214 0.14385847282311837
5224.224224224225 0.14297465891962205
5234.2342342342345 0.1420974047606773
5244.244244244244 0.14122664243455113
5254.254254254254 0.14036230521414378
5264.264264264264 0.13950432753329603
5274.274274274274 0.1386526449633841
5284.284284284285 0.13780719419020535
5294.294294294295 0.13696791299116087
5304.304304304304 0.13613474021273944
5314.314314314314 0.13530761574830705
5324.324324324324 0.1344864805162046
5334.334334334334 0.13367127643815907
5344.344344344345 0.13286194641800808
5354.354354354355 0.13205843432074293
5364.3643643643645 0.13126068495186985
5374.374374374374 0.13046864403709332
5384.384384384384 0.12968225820231988
5394.394394394394 0.12890147495398654
5404.404404404404 0.12812624265971156
5414.414414414415 0.12735651052927
5424.424424424425 0.126592228595893
5434.4344344344345 0.12583334769789062
5444.444444444444 0.1250798194605977
5454.454454454454 0.12433159627864307
5464.464464464464 0.12358863129853918
5474.474474474475 0.12285087840159253
5484.484484484485 0.12211829218713297
5494.494494494495 0.12139082795605975
5504.504504504504 0.12066844169470371
5514.514514514514 0.11995109005900197
5524.524524524524 0.11923873035898483
5534.534534534535 0.11853132054357111
5544.544544544545 0.11782881918567013
5554.554554554555 0.11713118546758734
5564.5645645645645 0.11643837916673169
5574.574574574574 0.11575036064162085
5584.584584584584 0.1150670908181823
5594.594594594595 0.11438853117634594
5604.604604604605 0.11371464373692743
5614.614614614615 0.11304539104879521
5624.624624624625 0.11238073617632229
5634.6346346346345 0.11172064268711605
5644.644644644644 0.11106507464002378
5654.654654654654 0.11041399657341099
5664.664664664665 0.10976737349370733
5674.674674674675 0.10912517086421879
5684.684684684685 0.10848735459419956
5694.694694694695 0.10785389102818244
5704.704704704704 0.10722474693556258
5714.714714714714 0.1065998895004311
5724.724724724725 0.10597928631165483
5734.734734734735 0.10536290535319812
5744.744744744745 0.10475071499468297
5754.754754754755 0.10414268398218365
5764.764764764765 0.10353878142925185
5774.774774774774 0.10293897680816838
5784.784784784785 0.10234323994141749
5794.794794794795 0.1017515409933801
5804.804804804805 0.10116385046224181
5814.814814814815 0.1005801391721119
5824.824824824825 0.10000037826534945
5834.8348348348345 0.09942453919509239
5844.844844844845 0.09885259371798664
5854.854854854855 0.09828451388710965
5864.864864864865 0.09772027204508626
5874.874874874875 0.09715984081739247
5884.884884884885 0.09660319310584295
5894.894894894895 0.09605030208225898
5904.9049049049045 0.09550114118231295
5914.914914914915 0.0949556840995458
5924.924924924925 0.09441390477955384
5934.934934934935 0.09387577741434042
5944.944944944945 0.09334127643683064
5954.954954954955 0.09281037651554355
5964.964964964965 0.09228305254941988
5974.974974974975 0.09175927966280059
5984.984984984985 0.091239033200554
5994.994994994995 0.09072228872334702
6005.005005005005 0.09020902200305725
6015.015015015015 0.08969920901832397
6025.025025025025 0.08919282595023256
6035.035035035035 0.08868984917813098
6045.045045045045 0.08819025527557389
6055.055055055055 0.08769402100639219
6065.065065065065 0.087201123320884
6075.075075075075 0.08671153935212478
6085.085085085085 0.08622524641239294
6095.0950950950955 0.08574222198970873
6105.105105105105 0.08526244374448257
6115.115115115115 0.0847858895062707
6125.125125125125 0.08431253727063483
6135.135135135135 0.08384236519610366
6145.145145145145 0.08337535160123248
6155.155155155155 0.08291147496175931
6165.1651651651655 0.08245071390785423
6175.175175175175 0.08199304722145952
6185.185185185185 0.0815384538337181
6195.195195195195 0.08108691282248784
6205.205205205205 0.08063840340993887
6215.215215215215 0.0801929049602322
6225.225225225226 0.07975039697727683
6235.235235235235 0.07931085910256282
6245.245245245245 0.07887427111306898
6255.255255255255 0.07844061291924191
6265.265265265265 0.07800986456304461
6275.275275275275 0.0775820062160731
6285.285285285286 0.07715701817773811
6295.295295295296 0.0767348808735103
6305.305305305305 0.07631557485322667
6315.315315315315 0.07589908078945705
6325.325325325325 0.07548537947592765
