#lamb flux
1000.0 12.64048446865064
1010.01001001001 13.014570832183853
1020.0200200200201 13.381206001834206
1030.03003003003 13.740124455895355
1040.0400400400401 14.091100240224879
1050.05005005005 14.43394420941302
1060.06006006006 14.76850134631824
1070.07007007007 15.094648175303057
1080.08008008008 15.412290280542456
1090.0900900900901 15.721359937417803
1100.1001001001 16.021813862187425
1110.11011011011 16.313631082777402
1120.1201201201202 16.596810931604413
1130.13013013013 16.871371159771837
1140.1401401401401 17.13734617072256
1150.1501501501502 17.394785370441113
1160.16016016016 17.643751630536723
1170.1701701701702 17.88431985996878
1180.1801801801803 18.116575680771106
1190.1901901901902 18.340614202857495
1200.2002002002002 18.55653889283329
1210.2102102102103 18.764460531667034
1220.2202202202202 18.96449625608221
1230.2302302302303 19.156768678592716
1240.2402402402402 19.34140508121586
1250.2502502502502 19.51832541122803
1260.2602602602603 19.687025894848183
1270.2702702702702 19.846480839946345
1280.2802802802803 19.996838021777155
1290.2902902902902 20.13825210013135
1300.3003003003003 20.270883717935114
1310.3103103103103 20.39489865863909
1320.3203203203202 20.5104670599706
1330.3303303303303 20.617762681570373
1340.3403403403404 20.716962224004863
1350.3503503503503 20.808244696641964
1360.3603603603603 20.891790831890578
1370.3703703703704 20.967782543333797
1380.3803803803803 21.036402425328966
1390.3903903903904 21.097833291699295
1400.4004004004005 21.15225775120314
1410.4104104104103 21.199857817534802
1420.4204204204204 21.240814551681886
1430.4304304304305 21.275307734539915
1440.4404404404404 21.303515567762364
1450.4504504504505 21.325614400902854
1460.4604604604606 21.34177848298473
1470.4704704704704 21.35217973671202
1480.4804804804805 21.35698755361336
1490.4904904904906 21.35636860848612
1500.5005005005005 21.350486691582592
1510.5105105105106 21.339502557053123
1520.5205205205207 21.323573786230753
1530.5305305305305 21.302854664411328
1540.5405405405404 21.277496069849075
1550.5505505505505 21.247645373753613
1560.5605605605606 21.2134463501373
1570.5705705705705 21.175039094426
1580.5805805805805 21.132559949808716
1590.5905905905906 21.08614144036598
1600.6006006006005 21.035912210082476
1610.6106106106106 20.981996966919226
1620.6206206206207 20.9245164311938
1630.6306306306305 20.863587287599948
1640.6406406406406 20.799322140287313
1650.6506506506507 20.731829470527643
1660.6606606606606 20.661213596613408
1670.6706706706707 20.58757463577726
1680.6806806806808 20.51100846809
1690.6906906906906 20.4316067024983
1700.7007007007007 20.349468021255447
1710.7107107107108 20.264721151102464
1720.7207207207207 20.17743973380678
1730.7307307307308 20.0876874020678
1740.7407407407409 19.995524163281555
1750.7507507507507 19.901006365079645
1760.7607607607606 19.804186675936936
1770.770770770771 19.70511408529183
1780.7807807807808 19.603833928740432
1790.7907907907907 19.500387945198216
1800.8008008008007 19.39481437449449
1810.8108108108108 19.287148105702574
1820.8208208208207 19.177420888629612
1830.8308308308308 19.065661623301498
1840.8408408408409 18.951896744966284
1850.8508508508507 18.836150725060097
1860.8608608608608 18.71844671164111
1870.870870870871 18.598807335845386
1880.8808808808808 18.477255713704977
1890.890890890891 18.353816674833038
1900.900900900901 18.22851825050509
1910.9109109109108 18.101393452854854
1920.920920920921 17.972482373352182
1930.930930930931 17.841834621315012
1940.940940940941 17.709512110607903
1950.950950950951 17.575592183448162
1960.960960960961 17.440171032954012
1970.970970970971 17.30336734957199
1980.980980980981 17.165326070304616
1990.9909909909911 17.026222054360332
2001.001001001001 16.88626344685203
2011.0110110110109 16.745694428237513
2021.0210210210212 16.604796988950348
2031.031031031031 16.463891326737812
2041.0410410410411 16.32333445172292
2051.051051051051 16.18351661532235
2061.061061061061 16.044855266617237
2071.071071071071 15.907786391403334
2081.081081081081 15.772753303877305
2091.091091091091 15.640193225383838
2101.101101101101 15.510522271581149
2111.1111111111113 15.384119739130986
2121.121121121121 15.261312788975161
2131.131131131131 15.142362720803622
2141.141141141141 15.027453990534875
2151.151151151151 14.916686929878392
2161.161161161161 14.810074802193213
2171.1711711711714 14.707545415846797
2181.1811811811813 14.608947076829335
2191.191191191191 14.514058262792725
2201.201201201201 14.422600097590475
2211.2112112112113 14.334250534511487
2221.221221221221 14.24865912724734
2231.2312312312315 14.165461364983392
2241.2412412412414 14.084291738722417
2251.2512512512512 14.004794948511755
2261.261261261261 13.92663491500976
2271.271271271271 13.849501490916568
2281.2812812812813 13.773114956622289
2291.2912912912916 13.697228520060397
2301.3013013013015 13.62162912302865
2311.3113113113113 13.546136891737596
2321.321321321321 13.470603568258523
2331.331331331331 13.394910233033386
2341.3413413413414 13.318964586994172
2351.3513513513512 13.242698013561093
2361.3613613613616 13.166062592067997
2371.3713713713714 13.08902818908379
2381.3813813813813 13.011579714951605
2391.391391391391 12.93371460058617
2401.4014014014015 12.855440524149305
2411.4114114114113 12.776773398090402
2421.4214214214217 12.697735613320567
2431.4314314314315 12.618354528016686
2441.4414414414414 12.538661182779341
2451.4514514514512 12.458689220747887
2461.4614614614616 12.37847399008546
2471.4714714714714 12.2980518064014
2481.4814814814818 12.217459353718423
2491.4914914914916 12.136733204171033
2501.5015015015015 12.05590943848444
2511.5115115115113 11.975023351250618
2521.521521521521 11.894109226968244
2531.5315315315315 11.813200174667585
2541.541541541542 11.732328010654747
2551.5515515515517 11.65152318045766
2561.5615615615616 11.570814712432758
2571.5715715715714 11.49023019669805
2581.5815815815813 11.409795784105235
2591.5915915915916 11.329536200863297
2601.6016016016015 11.249474775193873
2611.611611611612 11.169633473048593
2621.6216216216217 11.090032940466811
2631.6316316316315 11.010692550610774
2641.6416416416414 10.931630453898233
2651.6516516516517 10.852863629970036
2661.6616616616616 10.774407940492994
2671.671671671672 10.696278182014362
2681.6816816816818 10.61848813826159
2691.6916916916916 10.541050631425408
2701.7017017017015 10.463977572081888
2711.711711711712 10.387280007504055
2721.7217217217217 10.31096816818996
2731.731731731732 10.235051512494854
2741.741741741742 10.159538769303849
2751.7517517517517 10.084437978718917
2761.7617617617616 10.009756530764227
2771.7717717717715 9.935501202135775
2781.781781781782 9.861678191038937
2791.791791791792 9.788293150169956
2801.801801801802 9.715351217906097
2811.811811811812 9.642857047775712
2821.8218218218217 9.570814836282937
2831.8318318318316 9.499228349163744
2841.841841841842 9.42810094615081
2851.851851851852 9.357435604323934
2861.861861861862 9.28723494012148
2871.871871871872 9.21750123008629
2881.881881881882 9.148236430417269
2891.8918918918916 9.079442195394863
2901.901901901902 9.011119894745862
2911.911911911912 8.943270630009955
2921.921921921922 8.87589524996721
2931.931931931932 8.808994365182713
2941.941941941942 8.742568361721439
2951.9519519519517 8.676617414083442
2961.961961961962 8.611141497406628
2971.971971971972 8.546140398981438
2981.9819819819822 8.48161372911931
2991.991991991992 8.417560931413968
3002.002002002002 8.35398129243241
3012.012012012012 8.29087395087001
3022.0220220220217 8.228237906202033
3032.032032032032 8.170615868733355
3042.0420420420423 8.108335180427533
3052.052052052052 8.046367667566347
3062.062062062062 7.984756339023836
3072.072072072072 7.92353769487832
3082.0820820820823 7.8627424328136275
3092.092092092092 7.80239608964104
3102.102102102102 7.742519622971428
3112.1121121121123 7.683129937803097
3122.122122122122 7.624240362515678
3132.132132132132 7.565861078481436
3142.1421421421423 7.507999507227708
3152.152152152152 7.450660658811927
3162.162162162162 7.393847444806834
3172.1721721721724 7.337560959040038
3182.1821821821823 7.2818007289910405
3192.192192192192 7.226564940519899
3202.202202202202 7.171850638387063
3212.2122122122123 7.11765390482206
3222.222222222222 7.063970018210455
3232.232232232232 7.010793593793578
3242.2422422422424 6.95811870811294
3252.252252252252 6.905939008780981
3262.262262262262 6.854247811021008
3272.2722722722724 6.803038182291312
3282.2822822822823 6.752303016190875
3292.292292292292 6.702035096735914
3302.3023023023025 6.652227153997553
3312.3123123123123 6.602871912000044
3322.322322322322 6.553962129695878
3332.3323323323325 6.5054906357581626
3342.3423423423424 6.457450357861284
3352.352352352352 6.40983434705732
3362.3623623623625 6.36263579779823
3372.3723723723724 6.315848064100747
3382.3823823823823 6.269464672303091
3392.3923923923926 6.223479330818969
3402.4024024024025 6.1778859372543105
3412.4124124124123 6.132678583216067
3422.4224224224226 6.087851557109566
3432.4324324324325 6.043399345190818
3442.4424424424424 5.999316631112997
3452.4524524524522 5.955598294181714
3462.4624624624626 5.9122394065111585
3472.4724724724724 5.8692352292528644
3482.4824824824823 5.82658120805041
3492.4924924924926 5.784272967856616
3502.5025025025025 5.742306307234671
3512.5125125125123 5.700677192250823
3522.5225225225226 5.659381750053926
3532.5325325325325 5.618416262225875
3542.5425425425424 5.577777157976771
3552.5525525525527 5.537461007249616
3562.5625625625626 5.497464513790903
3572.5725725725724 5.457784508236163
3582.5825825825827 5.418417941252802
3592.5925925925926 5.379361876776476
3602.6026026026025 5.340613485371895
3612.612612612613 5.302170037744123
3622.6226226226227 5.264028898422013
3632.6326326326325 5.226187519631651
3642.642642642643 5.188643435374141
3652.6526526526527 5.151394255719059
3662.6626626626626 5.114437661322051
3672.672672672673 5.0777713981728505
3682.6826826826828 5.041393272577646
3692.6926926926926 5.005301146377986
3702.7027027027025 4.969492932406679
3712.712712712713 4.933966590179872
3722.7227227227227 4.898720121823085
3732.7327327327325 4.863751568227947
3742.742742742743 4.829059005435633
3752.7527527527527 4.7946405412419555
3762.7627627627626 4.7604943120186665
3772.772772772773 4.726618479744844
3782.7827827827828 4.693011229241872
3792.7927927927926 4.659670765605107
3802.802802802803 4.626595311825182
3812.812812812813 4.593783106591571
3822.8228228228227 4.561232402270974
3832.832832832833 4.528941463053028
3842.842842842843 4.496908563255769
3852.8528528528527 4.4651319857833185
3862.862862862863 4.433610020728309
3872.872872872873 4.402340964111686
3882.8828828828828 4.371323116752519
3892.892892892893 4.3405547832608455
3902.902902902903 4.310034271146359
3912.912912912913 4.279759890036301
3922.922922922923 4.249729950995835
3932.932932932933 4.219942765944559
3942.942942942943 4.190396647162856
3952.9529529529527 4.161089906882165
3962.962962962963 4.132020856953381
3972.972972972973 4.103187808587788
3982.982982982983 4.074589072165262
3992.992992992993 4.0462229571045745
4003.003003003003 4.018087771791023
4013.013013013013 3.9901818235566022
4023.023023023023 3.962503418708414
4033.033033033033 3.9350508626010092
4043.043043043043 3.9078224597487097
4053.053053053053 3.8808165139740978
4063.063063063063 3.8540313285891026
4073.073073073073 3.827465206605254
4083.0830830830832 3.801116450969965
4093.093093093093 3.774983364825769
4103.103103103103 3.7490642517897146
4113.113113113113 3.7233574162502823
4123.123123123123 3.697861163679248
4133.133133133133 3.672573800956279
4143.143143143143 3.647493636703984
4153.153153153153 3.62261898163148
4163.163163163163 3.597948148884507
4173.173173173173 3.573479454400411
4183.183183183183 3.549211217266352
4193.193193193193 3.5251417600792174
4203.203203203203 3.501269409305898
4213.213213213214 3.47759249564266
4223.223223223224 3.4541093543724166
4233.2332332332335 3.430818325718872
4243.243243243243 3.407717755196559
4253.253253253253 3.3848059939558968
4263.263263263263 3.3620813991224865
4273.273273273273 3.33954233412991
4283.283283283283 3.317187169045422
4293.293293293293 3.2950142808879606
4303.303303303303 3.2730220539379635
4313.313313313313 3.2512088800385874
4323.323323323323 3.2295731588879035
4333.333333333334 3.2081132983217926
4343.343343343344 3.1868277145872463
4353.353353353354 3.1657148326058304
4363.3633633633635 3.144773086227165
4373.373373373373 3.1240009184722584
4383.383383383383 3.1033967817665866
4393.393393393393 3.08295913816287
4403.403403403403 3.0626864595535035
4413.413413413413 3.04257722787261
4423.423423423424 3.022629935287793
4433.4334334334335 3.00284308438158
4443.443443443443 2.9832151883226556
4453.453453453454 2.9637447710269686
4463.463463463464 2.944430367308838
4473.473473473474 2.925270523022134
4483.483483483484 2.906263795191749
4493.493493493494 2.887408752135458
4503.503503503503 2.8687039735763578
4513.513513513513 2.8501480507460726
4523.523523523523 2.8317395864788812
4533.533533533533 2.8134771952970303
4543.543543543543 2.7953595034873477
4553.553553553554 2.777385149169446
4563.563563563564 2.759552782355694
4573.573573573573 2.741861065003172
4583.583583583584 2.7243086710578637
4593.593593593594 2.7068942864912904
4603.603603603604 2.6896166093297955
4613.613613613614 2.6724743496767744
4623.623623623624 2.655466229727993
4633.6336336336335 2.6385909837803037
4643.643643643643 2.621847358233942
4653.653653653653 2.6052341115886333
4663.663663663663 2.588750014433769
4673.673673673674 2.5723938494328324
4683.683683683684 2.556164411302349
4693.693693693694 2.540060506785519
4703.703703703704 2.524080954620813
4713.713713713714 2.5082245855057015
4723.723723723724 2.4924902420557427
4733.733733733734 2.4768767787592365
4743.743743743744 2.461383061927655
4753.753753753754 2.446007969642035
4763.763763763764 2.430750391695537
4773.773773773773 2.4156092295323544
4783.783783783783 2.4005833961831806
4793.793793793793 2.385671816197382
4803.803803803804 2.3708734255720856
4813.813813813814 2.356187171678345
4823.823823823824 2.3416120131845473
4833.833833833834 2.327146919977227
4843.843843843844 2.3127908730794666
4853.853853853854 2.298542864567
4863.863863863864 2.2844018974822142
4873.873873873874 2.27036698574616
4883.883883883884 2.2564371540687325
4893.893893893894 2.2426114378571573
4903.9039039039035 2.228888883122902
4913.913913913913 2.2152685463871604
4923.923923923924 2.2017494945850165
4933.933933933934 2.188330804968423
4943.943943943944 2.1750115650080932
4953.953953953955 2.161790872294431
4963.9639639639645 2.1486678344376107
4973.973973973974 2.1356415689668764
4983.983983983984 2.122711203229217
4993.993993993994 2.1098758742874506
5004.004004004004 2.0971347288178555
5014.014014014014 2.0844869230074226
5024.024024024024 2.0719316224507844
5034.0340340340335 2.0594680020469633
5044.044044044043 2.047095245895952
5054.054054054054 2.0348125471952394
5064.064064064064 2.0226191081363347
5074.074074074074 2.010514139801372
5084.084084084085 1.9984968620598396
5094.0940940940945 1.986566503465516
5104.104104104104 1.9747223011536514
5114.114114114114 1.9629635007384676
5124.124124124124 1.9512893562110136
5134.134134134134 1.9396991298374409
5144.144144144144 1.9281920920577287
5154.154154154154 1.916767521384924
5164.1641641641645 1.9054247043049186
5174.174174174174 1.8941629351768172
5184.184184184184 1.8829815161339305
5194.194194194194 1.871879756985416
5204.204204204204 1.8608569751186272
5214.214214214214 1.8499124954021726
5224.224224224225 1.8390456500897299
5234.2342342342345 1.8282557787246423
5244.244244244244 1.8175422280453104
5254.254254254254 1.8069043518914212
5264.264264264264 1.7963415111110146
5274.274274274274 1.7858530734684317
5284.284284284285 1.7754384135531385
5294.294294294295 1.7650969126894562
5304.304304304304 1.754827958847215
5314.314314314314 1.744630946553338
5324.324324324324 1.7345052768043623
5334.334334334334 1.7244503569799352
5344.344344344345 1.7144656007572552
5354.354354354355 1.704550428026508
5364.3643643643645 1.6947042648072648
5374.374374374374 1.68492654316589
5384.384384384384 1.6752167011339292
5394.394394394394 1.6655741826275012
5404.404404404404 1.6559984373676913
5414.414414414415 1.6464889208019506
5424.424424424425 1.6370450940265024
5434.4344344344345 1.6276664237097507
5444.444444444444 1.6183523820166994
5454.454454454454 1.6091024465343817
5464.464464464464 1.5999161001982884
5474.474474474475 1.5907928312198014
5484.484484484485 1.5817321330146266
5494.494494494495 1.5727335041322255
5504.504504504504 1.563796448186236
5514.514514514514 1.554920473785883
5524.524524524524 1.5461050944683736
5534.534534534535 1.5373498286322675
5544.544544544545 1.5286541994718204
5554.554554554555 1.52001773491229
5564.5645645645645 1.5114399675462047
5574.574574574574 1.502920434570578
5584.584584584584 1.4944586777250726
5594.594594594595 1.4860542432310886
5604.604604604605 1.4777066817318045
5614.614614614615 1.4694155482331004
5624.624624624625 1.461180402045422
5634.6346346346345 1.4530008067265359
5644.644644644644 1.4448763300251706
5654.654654654654 1.4368065438255537
5664.664664664665 1.4287910240928026
5674.674674674675 1.4208293508192062
5684.684684684685 1.4129211079713313
5694.694694694695 1.4050658834379932
5704.704704704704 1.3972632689790492
5714.714714714714 1.3895128601750186
5724.724724724725 1.3818142563775164
5734.734734734735 1.3741670606604866
5744.744744744745 1.3665708797722296
5754.754754754755 1.3590253240882069
5764.764764764765 1.351530007564623
5774.774774774774 1.3440845476927619
5784.784784784785 1.3366885654540739
5794.794794794795 1.3293416852760036
5804.804804804805 1.322043534988541
5814.814814814815 1.3147937457814944
5824.824824824825 1.3075919521624697
5834.8348348348345 1.3004377919155374
5844.844844844845 1.293330906060603
5854.854854854855 1.2862709388134306
5864.864864864865 1.279257537546342
5874.874874874875 1.2722903527495748
5884.884884884885 1.2653690379932714
5894.894894894895 1.2584932498901067
5904.9049049049045 1.2516626480585404
5914.914914914915 1.2448768950866784
5924.924924924925 1.2381356564967412
5934.934934934935 1.2314386007101101
5944.944944944945 1.2247853990129793
5954.954954954955 1.2181757255225572
5964.964964964965 1.2116092571538428
5974.974974974975 1.2050856735869504
5984.984984984985 1.1986046572349809
5994.994994994995 1.19216589321242
6005.005005005005 1.1857690693040648
6015.015015015015 1.179413875934465
6025.025025025025 1.1731000061378694
6035.035035035035 1.1668271555286662
6045.045045045045 1.1605950222723138
6055.055055055055 1.154403307056747
6065.065065065065 1.1482517130642547
6075.075075075075 1.1421399459438166
6085.085085085085 1.1360677137838966
6095.0950950950955 1.1300347270856737
6105.105105105105 1.1240406987367146
6115.115115115115 1.1180853439850684
6125.125125125125 1.1121683804137836
6135.135135135135 1.1062895279158382
6145.145145145145 1.1004485086694666
6155.155155155155 1.094645047113891
6165.1651651651655 1.0888788699254317
6175.175175175175 1.0831497059940087
6185.185185185185 1.0774572864000043
6195.195195195195 1.0718013443915035
6205.205205205205 1.0661816153618835
6215.215215215215 1.0605978368277627
6225.225225225226 1.0550497484072894
6235.235235235235 1.0495370917987692
6245.245245245245 1.0440596107596294
6255.255255255255 1.0386170510857022
6265.265265265265 1.0332091605908258
6275.275275275275 1.0278356890867644
6285.285285285286 1.0224963883634266
6295.295295295296 1.0171910121693917
6305.305305305305 1.0119193161927185
6315.315315315315 1.0066810580420538
6325.325325325325 1.001475997228019
6335.335335335335 0.9963038951448682
6345.345345345346 0.9911645150524248
6355.355355355356 0.9860576220582793
6365.3653653653655 0.9809829831002488
6375.375375375375 0.9759403669290913
6385.385385385385 0.970929544091466
6395.395395395395 0.9659502869131481
6405.405405405405 0.9610023694824745
6415.415415415416 0.9560855676340241
