#lamb flux
1000.0 2.9502255240273267e-08
1010.01001001001 3.751659072197369e-08
1020.0200200200201 4.746036381076687e-08
1030.03003003003 5.97374013578775e-08
1040.0400400400401 7.48228956552816e-08
1050.05005005005 9.32735357928859e-08
1060.06006006006 1.1573867922730464e-07
1070.07007007007 1.4297261726725237e-07
1080.08008008008 1.7584798498732243e-07
1090.0900900900901 2.1537036220838262e-07
1100.1001001001 2.626941076388142e-07
1110.11011011011 3.1913946307455075e-07
1120.1201201201202 3.862109587343715e-07
1130.13013013013 4.6561714439533434e-07
1140.1401401401401 5.592916640344306e-07
1150.1501501501502 6.6941568422645e-07
1160.16016016016 7.984416786512619e-07
1170.1701701701702 9.491185627879947e-07
1180.1801801801803 1.1245181642860788e-06
1190.1901901901902 1.3280630056740108e-06
1200.2002002002002 1.5635553670703858e-06
1210.2102102102103 1.8352075874728152e-06
1220.2202202202202 2.147673554096438e-06
1230.2302302302303 2.5060813201910157e-06
1240.2402402402402 2.9160667828599577e-06
1250.2502502502502 3.383808136223247e-06
1260.2602602602603 3.916061033385526e-06
1270.2702702702702 4.520194434209871e-06
1280.2802802802803 5.204229551010445e-06
1290.2902902902902 5.976876473213417e-06
1300.3003003003003 6.84757226254786e-06
1310.3103103103103 7.826519401873756e-06
1320.3203203203202 8.924724470931247e-06
1330.3303303303303 1.0154036917547113e-05
1340.3403403403404 1.1527187788784275e-05
1350.3503503503503 1.3057828283193317e-05
1360.3603603603603 1.4760567982738325e-05
1370.3703703703704 1.665101262113708e-05
1380.3803803803803 1.874580124428595e-05
1390.3903903903904 2.106264261812719e-05
1400.4004004004005 2.3620350739761468e-05
1410.4104104104103 2.6438879308798178e-05
1420.4204204204204 2.9539355017850414e-05
1430.4304304304305 3.294410952370585e-05
1440.4404404404404 3.66767099640052e-05
1450.4504504504505 4.076198788821813e-05
1460.4604604604606 4.522606647626987e-05
1470.4704704704704 5.0096385923329165e-05
1480.4804804804805 5.540172687495519e-05
1490.4904904904906 6.11722318029861e-05
1500.5005005005005 6.74394242192002e-05
1510.5105105105106 7.423622563082576e-05
1520.5205205205207 8.159697014938513e-05
1530.5305305305305 8.955741667208686e-05
1540.5405405405404 9.815475856296314e-05
1550.5505505505505 0.00010742763076916331
1560.5605605605606 0.0001174161143161764
1570.5705705705705 0.00012816173813427225
1580.5805805805805 0.00013970747817700858
1590.5905905905906 0.00015209775380126787
1600.6006006006005 0.00016537842138687292
1610.6106106106106 0.00017959676518238527
1620.6206206206207 0.00019480148537211672
1630.6306306306305 0.00021104268336772896
1640.6406406406406 0.00022837184433592518
1650.6506506506507 0.00024684181698169294
1660.6606606606606 0.0002665067906143209
1670.6706706706707 0.0002874222695308303
1680.6806806806808 0.00030964504475869994
1690.6906906906906 0.000333233163206658
1700.7007007007007 0.0003582458954134343
1710.7107107107108 0.0003847437026058181
1720.7207207207207 0.0004127881900591943
1730.7307307307308 0.0004424420701202811
1740.7407407407409 0.0004737691199290626
1750.7507507507507 0.0005068341363741759
1760.7607607607606 0.0005417028889641107
1770.770770770771 0.0005784420707071825
1780.7807807807808 0.0006171192470975617
1790.7907907907907 0.0006578028033089415
1800.8008008008007 0.0007005618897017482
1810.8108108108108 0.0007454663657541296
1820.8208208208207 0.000792586742531822
1830.8308308308308 0.0008419941238169651
1840.8408408408409 0.0008937601460218063
1850.8508508508507 0.000947956917019975
1860.8608608608608 0.0010046569540356589
1870.870870870871 0.0010639331207404487
1880.8808808808808 0.00112585856371821
1890.890890890891 0.0011905066484712186
1900.900900900901 0.0012579508951551127
1910.9109109109108 0.0013282649142465559
1920.920920920921 0.0014015223423648052
1930.930930930931 0.001477796778486019
1940.940940940941 0.001557161720805475
1950.950950950951 0.0016396905045150234
1960.960960960961 0.001725456240768045
1970.970970970971 0.0018145317570969603
1980.980980980981 0.001906989539523208
1990.9909909909911 0.002002901676550086
2001.001001001001 0.0021023398051485207
2011.0110110110109 0.0022053750587290046
2021.0210210210212 0.0023120780169375295
2031.031031031031 0.0024225186569222855
2041.0410410410411 0.00253676630550152
2051.051051051051 0.0026548895914423136
2061.061061061061 0.0027769563968656347
2071.071071071071 0.0029030338066651953
2081.081081081081 0.0030331880548100255
2091.091091091091 0.003167484466532631
2101.101101101101 0.003305987395709443
2111.1111111111113 0.0034487601572161415
2121.121121121121 0.0035958649546464112
2131.131131131131 0.0037473628044484703
2141.141141141141 0.0039033134581559683
2151.151151151151 0.004063775324862543
2161.161161161161 0.004228805396320237
2171.1711711711714 0.004398459176979527
2181.1811811811813 0.004572790620935846
2191.191191191191 0.004751852077162197
2201.201201201201 0.004935694243688536
2211.2112112112113 0.00512436613065378
2221.221221221221 0.005317915031511696
2231.2312312312315 0.0055163865011992365
2241.2412412412414 0.005719824339807462
2251.2512512512512 0.0059282705802329826
2261.261261261261 0.006141765478393402
2271.271271271271 0.006360347504814241
2281.2812812812813 0.006584053336680619
2291.2912912912916 0.006812917849745101
2301.3013013013015 0.007046974109757613
2311.3113113113113 0.007286253363311261
2321.321321321321 0.007530785028169304
2331.331331331331 0.007780596683255621
2341.3413413413414 0.00803571405855635
2351.3513513513512 0.008296161025209426
2361.3613613613616 0.008561959586055497
2371.3713713713714 0.008833129866903383
2381.3813813813813 0.009109690108730802
2391.391391391391 0.0093916566610033
2401.4014014014015 0.009679043976256338
2411.4114114114113 0.009971864606049305
2421.4214214214217 0.01027012919836815
2431.4314314314315 0.010573846496524826
2441.4414414414414 0.01088302333957953
2451.4514514514512 0.01119766466429172
2461.4614614614616 0.011517773508591964
2471.4714714714714 0.011843351016554305
2481.4814814814818 0.012174396444840736
2491.4914914914916 0.012510907170582494
2501.5015015015015 0.012852878700658345
2511.5115115115113 0.01320030468232722
2521.521521521521 0.013553176915169754
2531.5315315315315 0.01391148536429301
2541.541541541542 0.014275218174750904
2551.5515515515517 0.014644361687134035
2561.5615615615616 0.015018900454281345
2571.5715715715714 0.015398817259067448
2581.5815815815813 0.015784093133219757
2591.5915915915916 0.016174707377119575
2601.6016016016015 0.01657063758054313
2611.611611611612 0.01697185964429826
2621.6216216216217 0.017378347802713585
2631.6316316316315 0.017790074646937964
2641.6416416416414 0.018207011149008277
2651.6516516516517 0.01862912668664515
2661.6616616616616 0.01905638906873596
2671.671671671672 0.019488764561466074
2681.6816816816818 0.019926217915059434
2691.6916916916916 0.02036871239109098
2701.7017017017015 0.020816209790333145
2711.711711711712 0.02126867048110042
2721.7217217217217 0.021726053428056145
2731.731731731732 0.02218831622144649
2741.741741741742 0.02265541510672712
2751.7517517517517 0.02312730501454956
2761.7617617617616 0.023603939591073906
2771.7717717717715 0.024085271228576156
2781.781781781782 0.02457125109631815
2791.791791791792 0.02506182917165098
2801.801801801802 0.025556954271319782
2811.811811811812 0.026056574082943422
2821.8218218218217 0.026560635196637955
2831.8318318318316 0.027069083136758612
2841.841841841842 0.02758186239373177
2851.851851851852 0.028098916455951636
2861.861861861862 0.028620187841716136
2871.871871871872 0.029145618131176762
2881.881881881882 0.029675147998279725
2891.8918918918916 0.030208717242673534
2901.901901901902 0.030746264821562546
2911.911911911912 0.03128772888148295
2921.921921921922 0.03183304678998181
2931.931931931932 0.03238215516717783
2941.941941941942 0.03293498991718502
2951.9519519519517 0.033491486259380344
2961.961961961962 0.034051578759496874
2971.971971971972 0.034615201360525795
2981.9819819819822 0.03518228741341046
2991.991991991992 0.03575276970751549
3002.002002002002 0.03632658050085775
3012.012012012012 0.03690365155008239
3022.0220220220217 0.03748391414017115
3032.032032032032 0.0380674190755628
3042.0420420420423 0.03865384387420143
3052.052052052052 0.03924324658594036
3062.062062062062 0.039835557847435345
3072.072072072072 0.04043070788734615
3082.0820820820823 0.04102862655849002
3092.092092092092 0.04162924336951304
3102.102102102102 0.042232487516071275
3112.1121121121123 0.04283828791150994
3122.122122122122 0.0434465732170352
3132.132132132132 0.04405727187137148
3142.1421421421423 0.044670312119896805
3152.152152152152 0.04528562204325127
3162.162162162162 0.04590312958541606
3172.1721721721724 0.04652276258125543
3182.1821821821823 0.04714444878352327
3192.192192192192 0.047768115889327126
3202.202202202202 0.04839369156605089
3212.2122122122123 0.04902110347673471
3222.222222222222 0.04965027930490905
3232.232232232232 0.0502811467788864
3242.2422422422424 0.050913633695507686
3252.252252252252 0.05154766794334674
3262.262262262262 0.052183177525371896
3272.2722722722724 0.0528200905810684
3282.2822822822823 0.053458335408023035
3292.292292292292 0.05409784048297234
3302.3023023023025 0.054738534482319544
3312.3123123123123 0.055380346302121256
3322.322322322322 0.05602320507754899
3332.3323323323325 0.05666704020182774
3342.3423423423424 0.05731178134465754
3352.352352352352 0.0579573584701208
3362.3623623623625 0.05860370185408104
3372.3723723723724 0.059250742101076385
3382.3823823823823 0.05989841016071473
3392.3923923923926 0.0605466373435744
3402.4024024024025 0.06119535533661569
3412.4124124124123 0.0618444962181098
3422.4224224224226 0.0624939924720895
3432.4324324324325 0.06314377700232812
3442.4424424424424 0.06379378314585363
3452.4524524524522 0.06444394468600059
3462.4624624624626 0.06509419586501117
3472.4724724724724 0.06574447139618655
3482.4824824824823 0.06639470647559809
3492.4924924924926 0.06704483679336293
3502.5025025025025 0.06769479854449255
3512.5125125125123 0.06834452843931828
3522.5225225225226 0.06899396371350094
3532.5325325325325 0.06964304213763395
3542.5425425425424 0.07029170202644136
3552.5525525525527 0.0709398822475824
3562.5625625625626 0.07158752223006673
3572.5725725725724 0.07223456197228624
3582.5825825825827 0.07288094204967278
3592.5925925925926 0.07352660362198621
3602.6026026026025 0.07417148844023923
3612.612612612613 0.07481553885326914
3622.6226226226227 0.07545869781395714
3632.6326326326325 0.07610090888510786
3642.642642642643 0.07674211624499196
3652.6526526526527 0.07738226469255922
3662.6626626626626 0.07802129965232864
3672.672672672673 0.07865916717896415
3682.6826826826828 0.07929581396153701
3692.6926926926926 0.07993118732748798
3702.7027027027025 0.0805652352462906
3712.712712712713 0.0811979063328239
3722.7227227227227 0.08182914985046086
3732.7327327327325 0.08245891571387824
3742.742742742743 0.08308715449159458
3752.7527527527527 0.08371381740824188
3762.7627627627626 0.08433885634657666
3772.772772772773 0.08496222384923836
3782.7827827827828 0.0855838731202582
3792.7927927927926 0.08620375802632603
3802.802802802803 0.08682183309782171
3812.812812812813 0.08743805352961444
3822.8228228228227 0.0880523751816376
3832.832832832833 0.0886647545792439
3842.842842842843 0.08927514891334698
3852.8528528528527 0.08988351604035397
3862.862862862863 0.09048981448189518
3872.872872872873 0.09109400342435617
3882.8828828828828 0.09169604271821644
3892.892892892893 0.0922958928772026
3902.902902902903 0.09289351507725703
3912.912912912913 0.09348887115533068
3922.922922922923 0.09408192360800433
3932.932932932933 0.09467263558993992
3942.942942942943 0.09526097091217244
3952.9529529529527 0.0958468940402422
3962.962962962963 0.09643037009217405
3972.972972972973 0.09701136483630894
3982.982982982983 0.09758984468899166
3992.992992992993 0.09816577671211743
4003.003003003003 0.09873912861054528
4013.013013013013 0.09930986872938005
4023.023023023023 0.09987796605112771
4033.033033033033 0.10044339019272806
4043.043043043043 0.10100611140247033
4053.053053053053 0.10156610055679316
4063.063063063063 0.10212332915697529
4073.073073073073 0.10267776932571993
4083.0830830830832 0.1032293938036359
4093.093093093093 0.10377817594562146
4103.103103103103 0.10432408971715064
4113.113113113113 0.10486710969047147
4123.123123123123 0.10540721104071302
4133.133133133133 0.10594436954191089
4143.143143143143 0.10647856156294928
4153.153153153153 0.1070097640634275
4163.163163163163 0.10753795458945092
4173.173173173173 0.10806311126935159
4183.183183183183 0.10858521280933983
4193.193193193193 0.10910423848909295
4203.203203203203 0.10962016815727983
4213.213213213214 0.1101329822270285
4223.223223223224 0.11064266167133713
4233.2332332332335 0.11114918801843186
4243.243243243243 0.11165254334707518
4253.253253253253 0.1121527102818251
4263.263263263263 0.11264967198825154
4273.273273273273 0.11314341216810911
4283.283283283283 0.11363391505447061
4293.293293293293 0.11412116540682343
4303.303303303303 0.11460514850613125
4313.313313313313 0.11508585014986339
4323.323323323323 0.11556325664699363
4333.333333333334 0.11603735481297275
4343.343343343344 0.11650813196467337
4353.353353353354 0.11697557591531381
4363.3633633633635 0.11743967496935903
4373.373373373373 0.11790041791740372
4383.383383383383 0.1183577940310367
4393.393393393393 0.1188117930576921
4403.403403403403 0.11926240521548633
4413.413413413413 0.1197096211880426
4423.423423423424 0.12015343211930932
4433.4334334334335 0.12059382960836608
4443.443443443443 0.12103080570422838
4453.453453453454 0.12146435290064439
4463.463463463464 0.12189446413089107
4473.473473473474 0.12232113276256878
4483.483483483484 0.12274435259239605
4493.493493493494 0.1231641178410065
4503.503503503503 0.12358042314774957
4513.513513513513 0.12399326356549603
4523.523523523523 0.12440263455544925
4533.533533533533 0.12480853198196543
4543.543543543543 0.12521095210738079
4553.553553553554 0.12560989158685065
4563.563563563564 0.1260053474632005
4573.573573573573 0.12639731716178654
4583.583583583584 0.12678579848537422
4593.593593593594 0.12717078960902872
4603.603603603604 0.12755228907502236
4613.613613613614 0.12793029578775983
4623.623623623624 0.12830480900872043
4633.6336336336335 0.12867582835141964
4643.643643643643 0.1290433537763916
4653.653653653653 0.12940738558619144
4663.663663663663 0.1297679244204199
4673.673673673674 0.13012497125077063
4683.683683683684 0.13047852737610138
4693.693693693694 0.13082859441752884
4703.703703703704 0.13117517431354933
4713.713713713714 0.1315182693151843
4723.723723723724 0.13185788198115392
4733.733733733734 0.13219401517307589
4743.743743743744 0.132526672050694
4753.753753753754 0.13285585606713426
4763.763763763764 0.13318157096419042
4773.773773773773 0.13350382076763864
4783.783783783783 0.13382260978258315
4793.793793793793 0.134137942588833
4803.803803803804 0.134449824036308
4813.813813813814 0.1347582592404794
4823.823823823824 0.1350632535778403
4833.833833833834 0.13536481268141046
4843.843843843844 0.13566294243627303
4853.853853853854 0.13595764897514495
4863.863863863864 0.1362489386739819
4873.873873873874 0.1365368181476171
4883.883883883884 0.13682129424543338
4893.893893893894 0.13710237404707237
4903.9039039039035 0.1373800648581773
4913.913913913913 0.13765437420617138
4923.923923923924 0.13792530983607207
4933.933933933934 0.13819287970634123
4943.943943943944 0.13845709198477157
4953.953953953955 0.13871795504440892
4963.9639639639645 0.13897547745951147
4973.973973973974 0.13922966800154588
4983.983983983984 0.13948053563521925
4993.993993993994 0.13972808951454962
5004.004004004004 0.13997233897897213
5014.014014014014 0.1402132935494832
5024.024024024024 0.1404509629248222
5034.0340340340335 0.14068535697768952
5044.044044044043 0.14091648575100368
5054.054054054054 0.14114435945419468
5064.064064064064 0.14136898845953538
5074.074074074074 0.1415903832985111
5084.084084084085 0.14180855465822562
5094.0940940940945 0.14202351337784586
5104.104104104104 0.14223527044508424
5114.114114114114 0.14244383699271845
5124.124124124124 0.14264922429514787
5134.134134134134 0.14285144376498998
5144.144144144144 0.14305050694971094
5154.154154154154 0.14324642552829836
5164.1641641641645 0.14343921130796577
5174.174174174174 0.14362887622090012
5184.184184184184 0.14381543232104213
5194.194194194194 0.14399889178090639
5204.204204204204 0.1441792668884381
5214.214214214214 0.14435657004390606
5224.224224224225 0.1445308137568333
5234.2342342342345 0.14470201064296465
5244.244244244244 0.14487017342126968
5254.254254254254 0.14503531491098423
5264.264264264264 0.14519744802868637
5274.274274274274 0.14535658578540986
5284.284284284285 0.14551274128379268
5294.294294294295 0.14566592771526285
5304.304304304304 0.14581615835725836
5314.314314314314 0.1459634465704845
5324.324324324324 0.14610780579620458
5334.334334334334 0.146249249553568
5344.344344344345 0.1463877914369717
5354.354354354355 0.14652344511345708
5364.3643643643645 0.14665622432014183
5374.374374374374 0.14678614286168595
5384.384384384384 0.14691321460779241
5394.394394394394 0.147037453490741
5404.404404404404 0.14715887350295642
5414.414414414415 0.14727748869461094
5424.424424424425 0.1473933131712594
5434.4344344344345 0.14750636109150703
5444.444444444444 0.14761664666471147
5454.454454454454 0.14772418414871716
5464.464464464464 0.1478289878476213
5474.474474474475 0.14793107210957301
5484.484484484485 0.14803045132460493
5494.494494494495 0.1481271399224949
5504.504504504504 0.14822115237066114
5514.514514514514 0.14831250317208752
5524.524524524524 0.1484012068632805
5534.534534534535 0.1484872780122557
5544.544544544545 0.14857073121655806
5554.554554554555 0.1486515811013073
5564.5645645645645 0.14872984231727937
5574.574574574574 0.14880552953901247
5584.584584584584 0.14887865746294662
5594.594594594595 0.14894924080558908
5604.604604604605 0.1490172943017121
5614.614614614615 0.1490828327025774
5624.624624624625 0.14914587077418898
5634.6346346346345 0.1492064232955761
5644.644644644644 0.14926450505710245
5654.654654654654 0.14932013085880375
5664.664664664665 0.14937331550875307
5674.674674674675 0.1494240738214528
5684.684684684685 0.14947242061625435
5694.694694694695 0.14951837071580368
5704.704704704704 0.1495619389445144
5714.714714714714 0.1496031401270655
5724.724724724725 0.14964198908692672
5734.734734734735 0.14967850064490854
5744.744744744745 0.1497126896177375
5754.754754754755 0.1497445708166574
5764.764764764765 0.14977415904605473
5774.774774774774 0.1498014691021089
5784.784784784785 0.14982651577146733
5794.794794794795 0.14984931382994346
5804.804804804805 0.14986987804123997
5814.814814814815 0.14988822315569467
5824.824824824825 0.14990436390905024
5834.8348348348345 0.1499183150212462
5844.844844844845 0.14993009119523545
5854.854854854855 0.1499397071158211
5864.864864864865 0.14994717744851724
5874.874874874875 0.14995251683843158
5884.884884884885 0.14995573990916908
5894.894894894895 0.14995686126175747
5904.9049049049045 0.14995589547359536
5914.914914914915 0.14995285709741898
5924.924924924925 0.14994776066029172
5934.934934934935 0.14994062066261346
5944.944944944945 0.14993145157715065
5954.954954954955 0.149920267848085
5964.964964964965 0.1499070838900846
5974.974974974975 0.14989191408739208
5984.984984984985 0.14987477279293357
5994.994994994995 0.14985567432744656
6005.005005005005 0.14983463297862598
6015.015015015015 0.14981166300028986
6025.025025025025 0.14978677861156284
6035.035035035035 0.14975999399607756
6045.045045045045 0.14973132330119485
6055.055055055055 0.14970078063724118
6065.065065065065 0.14966838007676314
6075.075075075075 0.14963413565379954
6085.085085085085 0.14959806136317144
6095.0950950950955 0.14956017115978723
6105.105105105105 0.14952047895796572
6115.115115115115 0.14947899863077488
6125.125125125125 0.1494357440093866
6135.135135135135 0.14939072888244895
