#lamb flux
1000.0 1.876952565863079e+40
1010.01001001001 1.96404666430593e+40
1020.0200200200201 2.0523552360254422e+40
1030.03003003003 2.1417807408117962e+40
1040.0400400400401 2.2322249280633747e+40
1050.05005005005 2.323589157029769e+40
1060.06006006006 2.4157747014642405e+40
1070.07007007007 2.5086830381569336e+40
1080.08008008008 2.602216118977615e+40
1090.0900900900901 2.6962766261997944e+40
1100.1001001001 2.790768211008091e+40
1110.11011011011 2.8855957152078827e+40
1120.1201201201202 2.9806653762603265e+40
1130.13013013013 3.075885015858568e+40
1140.1401401401401 3.1711642123416674e+40
1150.1501501501502 3.2664144573133095e+40
1160.16016016016 3.3615492968923384e+40
1170.1701701701702 3.456484458073095e+40
1180.1801801801803 3.551137960715749e+40
1190.1901901901902 3.645430215720751e+40
1200.2002002002002 3.7392841099685857e+40
1210.2102102102103 3.832625078625986e+40
1220.2202202202202 3.9253811654338963e+40
1230.2302302302303 4.0174830716012554e+40
1240.2402402402402 4.108864193932153e+40
1250.2502502502502 4.1994605787915654e+40
1260.2602602602603 4.2892108593843896e+40
1270.2702702702702 4.378056220856023e+40
1280.2802802802803 4.465941006672915e+40
1290.2902902902902 4.552812308921508e+40
1300.3003003003003 4.638619954729681e+40
1310.3103103103103 4.723316486109867e+40
1320.3203203203202 4.806857133765414e+40
1330.3303303303303 4.889199785382469e+40
1340.3403403403404 4.97030494890884e+40
1350.3503503503503 5.050135711300573e+40
1360.3603603603603 5.128657693195051e+40
1370.3703703703704 5.205838999947749e+40
1380.3803803803803 5.28165016944781e+40
1390.3903903903904 5.356064117105718e+40
1400.4004004004005 5.429056078384457e+40
1410.4104104104103 5.500603549224387e+40
1420.4204204204204 5.57068622469079e+40
1430.4304304304305 5.639285936152422e+40
1440.4404404404404 5.706386587279499e+40
1450.4504504504505 5.771974089129906e+40
1460.4604604604606 5.836036294573626e+40
1470.4704704704704 5.898562932287092e+40
1480.4804804804805 5.95954554053183e+40
1490.4904904904906 6.018977400914818e+40
1500.5005005005005 6.076853472311899e+40
1510.5105105105106 6.13317032512043e+40
1520.5205205205207 6.187926075992461e+40
1530.5305305305305 6.241120323186159e+40
1540.5405405405404 6.292754082659809e+40
1550.5505505505505 6.342829725020302e+40
1560.5605605605606 6.391350913426445e+40
1570.5705705705705 6.438322542536141e+40
1580.5805805805805 6.48375067857621e+40
1590.5905905905906 6.527642500603912e+40
1600.6006006006005 6.57000624301987e+40
1610.6106106106106 6.610851139383935e+40
1620.6206206206207 6.650187367577221e+40
1630.6306306306305 6.688025996346441e+40
1640.6406406406406 6.724378933259647e+40
1650.6506506506507 6.759258874096255e+40
1660.6606606606606 6.792679253688413e+40
1670.6706706706707 6.824654198225357e+40
1680.6806806806808 6.8551984790274895e+40
1690.6906906906906 6.884327467792652e+40
1700.7007007007007 6.912057099605198e+40
1710.7107107107108 6.93840384419359e+40
1720.7207207207207 6.963384618500228e+40
1730.7307307307308 6.987016772183978e+40
1740.7407407407409 7.009318053660723e+40
1750.7507507507507 7.030306574030813e+40
1760.7607607607606 7.050000772403711e+40
1770.770770770771 7.068419382600927e+40
1780.7807807807808 7.085581401217489e+40
1790.7907907907907 7.1015060570214315e+40
1800.8008008008007 7.116212781670732e+40
1810.8108108108108 7.129721181727444e+40
1820.8208208208207 7.142051011949375e+40
1830.8308308308308 7.15322214984087e+40
1840.8408408408409 7.163254571445824e+40
1850.8508508508507 7.172168328368092e+40
1860.8608608608608 7.179983526006675e+40
1870.870870870871 7.186720302996066e+40
1880.8808808808808 7.192398811844517e+40
1890.890890890891 7.197039200765934e+40
1900.900900900901 7.200661596703387e+40
1910.9109109109108 7.203286089543173e+40
1920.920920920921 7.204932717518345e+40
1930.930930930931 7.205621453797318e+40
1940.940940940941 7.20537219424705e+40
1950.950950950951 7.204204746348469e+40
1960.960960960961 7.202138819224107e+40
1970.970970970971 7.199194014712713e+40
1980.980980980981 7.195389819391285e+40
1990.9909909909911 7.190745597402101e+40
2001.001001001001 7.185280583891111e+40
2011.0110110110109 7.179013878807901e+40
2021.0210210210212 7.17196444076057e+40
2031.031031031031 7.164151080570361e+40
2041.0410410410411 7.155592454140277e+40
2051.051051051051 7.146307054252737e+40
2061.061061061061 7.136313200955754e+40
2071.071071071071 7.125629030295855e+40
2081.081081081081 7.114272481313114e+40
2091.091091091091 7.102261281423394e+40
2101.101101101101 7.089612930557645e+40
2111.1111111111113 7.076344684677317e+40
2121.121121121121 7.06247353949855e+40
2131.131131131131 7.048016215394032e+40
2141.141141141141 7.03298914446533e+40
2151.151151151151 7.017408460670994e+40
2161.161161161161 7.001289993663931e+40
2171.1711711711714 6.984649266663954e+40
2181.1811811811813 6.9675014983198775e+40
2191.191191191191 6.949861608156905e+40
2201.201201201201 6.931744224915059e+40
2211.2112112112113 6.9131636968998625e+40
2221.221221221221 6.894134103403221e+40
2231.2312312312315 6.874669266303561e+40
2241.2412412412414 6.854782761093411e+40
2251.2512512512512 6.834487926775743e+40
2261.261261261261 6.813797874281279e+40
2271.271271271271 6.7927254932574e+40
2281.2812812812813 6.771283457245247e+40
2291.2912912912916 6.749484227383583e+40
2301.3013013013015 6.727340054855907e+40
2311.3113113113113 6.704862982334306e+40
2321.321321321321 6.68206484467943e+40
2331.331331331331 6.65895726913852e+40
2341.3413413413414 6.635551675252876e+40
2351.3513513513512 6.61185927464872e+40
2361.3613613613616 6.587891070846793e+40
2371.3713713713714 6.563657859190199e+40
2381.3813813813813 6.539170226958319e+40
2391.391391391391 6.514438553708791e+40
2401.4014014014015 6.489473011868586e+40
2411.4114114114113 6.464283567579889e+40
2421.4214214214217 6.438879981795304e+40
2431.4314314314315 6.413271811609187e+40
2441.4414414414414 6.38746841180728e+40
2451.4514514514512 6.361478936614271e+40
2461.4614614614616 6.33531234161786e+40
2471.4714714714714 6.308977385848017e+40
2481.4814814814818 6.28248263399114e+40
2491.4914914914916 6.25583645871986e+40
2501.5015015015015 6.229047043121049e+40
2511.5115115115113 6.202122383206076e+40
2521.521521521521 6.175070290489096e+40
2531.5315315315315 6.147898394620671e+40
2541.541541541542 6.120614146065563e+40
2551.5515515515517 6.093224818814866e+40
2561.5615615615616 6.065737513123785e+40
2571.5715715715714 6.038159158267649e+40
2581.5815815815813 6.01049651530947e+40
2591.5915915915916 5.982756179873349e+40
2601.6016016016015 5.954944584918756e+40
2611.611611611612 5.92706800351124e+40
2621.6216216216217 5.89913255158585e+40
2631.6316316316315 5.871144190699842e+40
2641.6416416416414 5.843108730771852e+40
2651.6516516516517 5.815031832804883e+40
2661.6616616616616 5.786919011590965e+40
2671.671671671672 5.758775638395435e+40
2681.6816816816818 5.730606943619176e+40
2691.6916916916916 5.702418019437258e+40
2701.7017017017015 5.674213822412645e+40
2711.711711711712 5.645999176083822e+40
2721.7217217217217 5.617778773525303e+40
2731.731731731732 5.589557179880046e+40
2741.741741741742 5.561338834863102e+40
2751.7517517517517 5.533128055235684e+40
2761.7617617617616 5.504929037249155e+40
2771.7717717717715 5.476745859058345e+40
2781.781781781782 5.448582483103748e+40
2791.791791791792 5.420442758462317e+40
2801.801801801802 5.39233042316637e+40
2811.811811811812 5.364249106490532e+40
2821.8218218218217 5.336202331206351e+40
2831.8318318318316 5.30819351580451e+40
2841.841841841842 5.280225976684474e+40
2851.851851851852 5.252302930311548e+40
2861.861861861862 5.224427495341223e+40
2871.871871871872 5.196602694710853e+40
2881.881881881882 5.168831457698702e+40
2891.8918918918916 5.141116621950387e+40
2901.901901901902 5.113460935472789e+40
2911.911911911912 5.085867058595572e+40
2921.921921921922 5.058337565900422e+40
2931.931931931932 5.030874948118179e+40
2941.941941941942 5.003481613994005e+40
2951.9519519519517 4.976159892120801e+40
2961.961961961962 4.948912032741086e+40
2971.971971971972 4.921740209517574e+40
2981.9819819819822 4.89464652127267e+40
2991.991991991992 4.867632993697138e+40
3002.002002002002 4.840701581028254e+40
3012.012012012012 4.813854167697674e+40
3022.0220220220217 4.787092569949339e+40
3032.032032032032 4.760422849806189e+40
3042.0420420420423 4.733837520720941e+40
3052.052052052052 4.70734291323451e+40
3062.062062062062 4.680940628011128e+40
3072.072072072072 4.6546321993987475e+40
3082.0820820820823 4.628419097483645e+40
3092.092092092092 4.602302730062104e+40
3102.102102102102 4.576284444533987e+40
3112.1121121121123 4.550365529722824e+40
3122.122122122122 4.524547217626631e+40
3132.132132132132 4.4988306851034015e+40
3142.1421421421423 4.473217055494942e+40
3152.152152152152 4.447707400192418e+40
3162.162162162162 4.422302740146834e+40
3172.1721721721724 4.397004047327321e+40
3182.1821821821823 4.371812246130008e+40
3192.192192192192 4.3467282147400217e+40
3202.202202202202 4.321752786448953e+40
3212.2122122122123 4.296886750930068e+40
3222.222222222222 4.2721308554732284e+40
3232.232232232232 4.2474858061815196e+40
3242.2422422422424 4.2229522691313453e+40
3252.252252252252 4.198530871497655e+40
3262.262262262262 4.174222202645881e+40
3272.2722722722724 4.1500268151920315e+40
3282.2822822822823 4.1259452260323216e+40
3292.292292292292 4.101977917343604e+40
3302.3023023023025 4.0781253375557944e+40
3312.3123123123123 4.0543879022974427e+40
3322.322322322322 4.030765995315458e+40
3332.3323323323325 4.0072599693700243e+40
3342.3423423423424 3.9838701471055943e+40
3352.352352352352 3.9605968218988536e+40
3362.3623623623625 3.9374402586844956e+40
3372.3723723723724 3.9144006947595605e+40
3382.3823823823823 3.891478340567042e+40
3392.3923923923926 3.8686733804595567e+40
3402.4024024024025 3.8459859734435943e+40
3412.4124124124123 3.8234162539050673e+40
3422.4224224224226 3.8009643323167124e+40
3432.4324324324325 3.7786302959278964e+40
3442.4424424424424 3.756414209437366e+40
3452.4524524524522 3.7343161156494237e+40
3462.4624624624626 3.7123360361140503e+40
3472.4724724724724 3.6904739717513845e+40
3482.4824824824823 3.6687299034610125e+40
3492.4924924924926 3.647103792716498e+40
3502.5025025025025 3.6255955821455285e+40
3512.5125125125123 3.6042051960960714e+40
3522.5225225225226 3.5829325411888957e+40
3532.5325325325325 3.561777506856825e+40
3542.5425425425424 3.540739965871038e+40
3552.5525525525527 3.519819774854759e+40
3562.5625625625626 3.499016774784642e+40
3572.5725725725724 3.4783307914801393e+40
3582.5825825825827 3.4577616360811713e+40
3592.5925925925926 3.4373091055143417e+40
3602.6026026026025 3.416972982947997e+40
3612.612612612613 3.3967530382363937e+40
3622.6226226226227 3.3766490283531926e+40
3632.6326326326325 3.3566606978145573e+40
3642.642642642643 3.3367877790920956e+40
3652.6526526526527 3.3170299930158646e+40
3662.6626626626626 3.297387049167642e+40
3672.672672672673 3.2778586462647404e+40
3682.6826826826828 3.2584444725345183e+40
3692.6926926926926 3.239144206079831e+40
3702.7027027027025 3.2199575152355974e+40
3712.712712712713 3.200884058916686e+40
3722.7227227227227 3.181923486957367e+40
3732.7327327327325 3.163075440442379e+40
3742.742742742743 3.144339552029962e+40
3752.7527527527527 3.125715446266907e+40
3762.7627627627626 3.107202739895844e+40
3772.772772772773 3.0888010421549536e+40
3782.7827827827828 3.070509955070232e+40
3792.7927927927926 3.052329073740484e+40
3802.802802802803 3.0342579866152247e+40
3812.812812812813 3.016296275765614e+40
3822.8228228228227 2.998443517148576e+40
3832.832832832833 2.9806992808642865e+40
3842.842842842843 2.963063131407134e+40
3852.8528528528527 2.9455346279103145e+40
3862.862862862863 2.9281133243841903e+40
3872.872872872873 2.9107987699485855e+40
3882.8828828828828 2.8935905090590556e+40
3892.892892892893 2.8764880817274147e+40
3902.902902902903 2.8594910237364823e+40
3912.912912912913 2.8425988668492967e+40
3922.922922922923 2.8258111390128595e+40
3932.932932932933 2.8091273645565537e+40
3942.942942942943 2.7925470643853376e+40
3952.9529529529527 2.776069756167836e+40
3962.962962962963 2.759694954519457e+40
3972.972972972973 2.7434221711806195e+40
3982.982982982983 2.727250915190225e+40
3992.992992992993 2.7111806930544335e+40
4003.003003003003 2.69521100891094e+40
4013.013013013013 2.67934136468874e+40
4023.023023023023 2.663571260263573e+40
4033.033033033033 2.647900193609095e+40
4043.043043043043 2.632327660943892e+40
4053.053053053053 2.616853156874433e+40
4063.063063063063 2.60147617453404e+40
4073.073073073073 2.5861962057179797e+40
4083.0830830830832 2.571012741014758e+40
4093.093093093093 2.5559252699337085e+40
4103.103103103103 2.5409332810289465e+40
4113.113113113113 2.5260362620198134e+40
4123.123123123123 2.5112336999078154e+40
4133.133133133133 2.49652508109023e+40
4143.143143143143 2.481909891470379e+40
4153.153153153153 2.467387616564708e+40
4163.163163163163 2.452957741606687e+40
4173.173173173173 2.4386197516476605e+40
4183.183183183183 2.424373131654685e+40
4193.193193193193 2.410217366605436e+40
4203.203203203203 2.3961519415802503e+40
4213.213213213214 2.3821763418513815e+40
4223.223223223224 2.3682900529695196e+40
4233.2332332332335 2.35449256084765e+40
4243.243243243243 2.340783351842312e+40
4253.253253253253 2.3271619128323107e+40
4263.263263263263 2.3136277312949756e+40
4273.273273273273 2.3001802953799757e+40
4283.283283283283 2.2868190939807866e+40
4293.293293293293 2.273543616803859e+40
4303.303303303303 2.260353354435535e+40
4313.313313313313 2.247247798406782e+40
4323.323323323323 2.2342264412557645e+40
4333.333333333334 2.221288776588367e+40
4343.343343343344 2.208434299136652e+40
4353.353353353354 2.1956625048153477e+40
4363.3633633633635 2.182972890776392e+40
4373.373373373373 2.170364955461607e+40
4383.383383383383 2.1578381986535015e+40
4393.393393393393 2.1453921215243135e+40
4403.403403403403 2.1330262266832802e+40
4413.413413413413 2.1207400182222081e+40
4423.423423423424 2.10853300175938e+40
4433.4334334334335 2.0964046844818447e+40
4443.443443443443 2.0843545751861208e+40
4453.453453453454 2.0723821843173564e+40
4463.463463463464 2.060487024007015e+40
4473.473473473474 2.0486686081090503e+40
4483.483483483484 2.036926452234706e+40
4493.493493493494 2.0252600737858952e+40
4503.503503503503 2.0136689919872357e+40
4513.513513513513 2.002152727916782e+40
4523.523523523523 1.99071080453544e+40
4533.533533533533 1.979342746715175e+40
4543.543543543543 1.9680480812659658e+40
4553.553553553554 1.9568263369615932e+40
4563.563563563564 1.9456770445642703e+40
4573.573573573573 1.9345997368481424e+40
4583.583583583584 1.923593948621705e+40
4593.593593593594 1.9126592167491483e+40
4603.603603603604 1.901795080170666e+40
4613.613613613614 1.891001079921758e+40
4623.623623623624 1.8802767591515517e+40
4633.6336336336335 1.8696216631401635e+40
4643.643643643643 1.8590353393151437e+40
4653.653653653653 1.8485173372669967e+40
4663.663663663663 1.8380672087638468e+40
4673.673673673674 1.827684507765223e+40
4683.683683683684 1.817368790435038e+40
4693.693693693694 1.8071196151537387e+40
4703.703703703704 1.7969365425296803e+40
4713.713713713714 1.7868191354097351e+40
4723.723723723724 1.7767669588891584e+40
4733.733733733734 1.7667795803207247e+40
4743.743743743744 1.756856569323182e+40
4753.753753753754 1.7469974977889997e+40
4763.763763763764 1.7372019398914788e+40
4773.773773773773 1.7274694720911916e+40
4783.783783783783 1.717799673141829e+40
4793.793793793793 1.7081921240954125e+40
4803.803803803804 1.6986464083069342e+40
4813.813813813814 1.6891621114384175e+40
4823.823823823824 1.6797388214624292e+40
4833.833833833834 1.6703761286650451e+40
4843.843843843844 1.6610736256483015e+40
4853.853853853854 1.6518309073321317e+40
4863.863863863864 1.6426475709558174e+40
4873.873873873874 1.6335232160789599e+40
4883.883883883884 1.62445744458199e+40
4893.893893893894 1.6154498606662289e+40
4903.9039039039035 1.6065000708535158e+40
4913.913913913913 1.5976076839854137e+40
4923.923923923924 1.5887723112220072e+40
4933.933933933934 1.5799935660403097e+40
4943.943943943944 1.5712710642322758e+40
4953.953953953955 1.5626044239024576e+40
4963.9639639639645 1.5539932654652993e+40
4973.973973973974 1.5454372116420735e+40
4983.983983983984 1.5369358874574965e+40
4993.993993993994 1.528488920236013e+40
5004.004004004004 1.5200959395977614e+40
5014.014014014014 1.5117565774542489e+40
5024.024024024024 1.503470468003715e+40
5034.0340340340335 1.4952372477262335e+40
5044.044044044043 1.4870565553785187e+40
5054.054054054054 1.4789280319884846e+40
5064.064064064064 1.4708513208495413e+40
5074.074074074074 1.4628260675146452e+40
5084.084084084085 1.4548519197901106e+40
5094.0940940940945 1.446928527729201e+40
5104.104104104104 1.439055543625489e+40
5114.114114114114 1.43123262200601e+40
5124.124124124124 1.423459419624209e+40
5134.134134134134 1.4157355954526942e+40
5144.144144144144 1.4080608106757935e+40
5154.154154154154 1.400434728681939e+40
5164.1641641641645 1.3928570150558656e+40
5174.174174174174 1.3853273375706534e+40
5184.184184184184 1.3778453661795953e+40
5194.194194194194 1.3704107730079188e+40
5204.204204204204 1.3630232323443594e+40
5214.214214214214 1.3556824206325874e+40
5224.224224224225 1.3483880164624977e+40
5234.2342342342345 1.3411397005613773e+40
5244.244244244244 1.3339371557849364e+40
5254.254254254254 1.3267800671082307e+40
5264.264264264264 1.3196681216164607e+40
5274.274274274274 1.3126010084956744e+40
5284.284284284285 1.3055784190233533e+40
5294.294294294295 1.2986000465589126e+40
5304.304304304304 1.2916655865340935e+40
5314.314314314314 1.2847747364432858e+40
5324.324324324324 1.2779271958337448e+40
5334.334334334334 1.271122666295749e+40
5344.344344344345 1.2643608514526647e+40
5354.354354354355 1.2576414569509546e+40
5364.3643643643645 1.2509641904501067e+40
5374.374374374374 1.2443287616125103e+40
5384.384384384384 1.2377348820932655e+40
5394.394394394394 1.231182265529944e+40
5404.404404404404 1.2246706275322883e+40
5414.414414414415 1.2181996856718763e+40
5424.424424424425 1.211769159471731e+40
5434.4344344344345 1.205378770395891e+40
5444.444444444444 1.1990282418389424e+40
5454.454454454454 1.1927172991155234e+40
5464.464464464464 1.186445669449786e+40
5474.474474474475 1.1802130819648359e+40
5484.484484484485 1.174019267672145e+40
5494.494494494495 1.1678639594609388e+40
5504.504504504504 1.1617468920875687e+40
5514.514514514514 1.155667802164859e+40
5524.524524524524 1.1496264281514465e+40
5534.534534534535 1.1436225103411018e+40
5544.544544544545 1.1376557908520475e+40
5554.554554554555 1.1317260136162558e+40
5564.5645645645645 1.1258329243687562e+40
5574.574574574574 1.1199762706369278e+40
5584.584584584584 1.1141558017297993e+40
5594.594594594595 1.1083712687273393e+40
5604.604604604605 1.1026224244697641e+40
5614.614614614615 1.0969090235468347e+40
5624.624624624625 1.0912308222871732e+40
5634.6346346346345 1.0855875787475807e+40
5644.644644644644 1.0799790527023669e+40
5654.654654654654 1.0744050056326954e+40
5664.664664664665 1.068865200715934e+40
5674.674674674675 1.0633594028150354e+40
5684.684684684685 1.0578873784679168e+40
5694.694694694695 1.0524488958768705e+40
5704.704704704704 1.0470437248979909e+40
5714.714714714714 1.0416716370306219e+40
5724.724724724725 1.0363324054068262e+40
5734.734734734735 1.0310258047808819e+40
5744.744744744745 1.0257516115188013e+40
5754.754754754755 1.0205096035878745e+40
5764.764764764765 1.0152995605462466e+40
5774.774774774774 1.0101212635325184e+40
5784.784784784785 1.0049744952553781e+40
5794.794794794795 9.998590399832644e+39
5804.804804804805 9.947746835340612e+39
5814.814814814815 9.897212132648248e+39
5824.824824824825 9.846984180615482e+39
5834.8348348348345 9.797060883289496e+39
5844.844844844845 9.747440159803146e+39
5854.854854854855 9.698119944273547e+39
5864.864864864865 9.649098185701178e+39
5874.874874874875 9.600372847869289e+39
5884.884884884885 9.551941909243736e+39
5894.894894894895 9.503803362873169e+39
5904.9049049049045 9.455955216289666e+39
