#lamb flux
1000.0 2.502933002256258e+39
1010.01001001001 2.7248394672440786e+39
1020.0200200200201 2.9511948894727075e+39
1030.03003003003 3.18118337890876e+39
1040.0400400400401 3.4140442311086494e+39
1050.05005005005 3.649078532508249e+39
1060.06006006006 3.885653458083183e+39
1070.07007007007 4.1232045547174337e+39
1080.08008008008 4.3612363131198016e+39
1090.0900900900901 4.599321325613722e+39
1100.1001001001 4.837098310817398e+39
1110.11011011011 5.0742692627450197e+39
1120.1201201201202 5.310595954164716e+39
1130.13013013013 5.545895994486043e+39
1140.1401401401401 5.780038612782948e+39
1150.1501501501502 6.012940308054258e+39
1160.16016016016 6.244560482331005e+39
1170.1701701701702 6.47489714827268e+39
1180.1801801801803 6.703982781707052e+39
1190.1901901901902 6.931880371220973e+39
1200.2002002002002 7.158679701326208e+39
1210.2102102102103 7.384493892733999e+39
1220.2202202202202 7.609456212649647e+39
1230.2302302302303 7.833717159487309e+39
1240.2402402402402 8.057441819740801e+39
1250.2502502502502 8.279989329007354e+39
1260.2602602602603 8.498987308410161e+39
1270.2702702702702 8.70979682726083e+39
1280.2802802802803 8.912257390242773e+39
1290.2902902902902 9.106251919410788e+39
1300.3003003003003 9.291703323805116e+39
1310.3103103103103 9.468571096984776e+39
1320.3203203203202 9.636847978530712e+39
1330.3303303303303 9.796556708720339e+39
1340.3403403403404 9.94774689943714e+39
1350.3503503503503 1.0090492038942104e+40
1360.3603603603603 1.0224886643370605e+40
1370.3703703703704 1.0351043563691603e+40
1380.3803803803803 1.04690914533323e+40
1390.3903903903904 1.0579172398681252e+40
1400.4004004004005 1.0681439712186186e+40
1410.4104104104103 1.0776055885709765e+40
1420.4204204204204 1.0863190700146123e+40
1430.4304304304305 1.0943019485988317e+40
1440.4404404404404 1.1015721528526173e+40
1450.4504504504505 1.1081478610604444e+40
1460.4604604604606 1.114047368534684e+40
1470.4704704704704 1.1192889670916627e+40
1480.4804804804805 1.1238908359210881e+40
1490.4904904904906 1.127870943034544e+40
1500.5005005005005 1.1312469564858446e+40
1510.5105105105106 1.1340361645722828e+40
1520.5205205205207 1.1362554042493966e+40
1530.5305305305305 1.137920997021583e+40
1540.5405405405404 1.1390486916054686e+40
1550.5505505505505 1.1396536127015663e+40
1560.5605605605606 1.1397502152517736e+40
1570.5705705705705 1.1393522436053413e+40
1580.5805805805805 1.1384726950637282e+40
1590.5905905905906 1.1371237873254813e+40
1600.6006006006005 1.1353169294059967e+40
1610.6106106106106 1.1330626956643751e+40
1620.6206206206207 1.1303708026310003e+40
1630.6306306306305 1.1272500883962468e+40
1640.6406406406406 1.1237084943936448e+40
1650.6506506506507 1.1197530494916793e+40
1660.6606606606606 1.1153898563987345e+40
1670.6706706706707 1.1106240804877334e+40
1680.6806806806808 1.10545994126307e+40
1690.6906906906906 1.0999007068254838e+40
1700.7007007007007 1.0939542743578214e+40
1710.7107107107108 1.0876443951968713e+40
1720.7207207207207 1.0809688933223275e+40
1730.7307307307308 1.073921890551253e+40
1740.7407407407409 1.0664969762235338e+40
1750.7507507507507 1.0586872266178279e+40
1760.7607607607606 1.0504852359912138e+40
1770.770770770771 1.041883161804374e+40
1780.7807807807808 1.0328727871329367e+40
1790.7907907907907 1.0234456037504488e+40
1800.8008008008007 1.0135929198935871e+40
1810.8108108108108 1.00330599727373e+40
1820.8208208208207 9.925762224610199e+39
1830.8308308308308 9.813953183063625e+39
1840.8408408408409 9.697556015377255e+39
1850.8508508508507 9.576502930052236e+39
1860.8608608608608 9.45073887167318e+39
1870.870870870871 9.320225871933957e+39
1880.8808808808808 9.184948113605883e+39
1890.890890890891 9.04491775067924e+39
1900.900900900901 8.90018150572501e+39
1910.9109109109108 8.750828032440909e+39
1920.920920920921 8.596995985088881e+39
1930.930930930931 8.438882675120412e+39
1940.940940940941 8.276753117513518e+39
1950.950950950951 8.110949175413954e+39
1960.960960960961 7.941898404002628e+39
1970.970970970971 7.770122078616796e+39
1980.980980980981 7.596241777470175e+39
1990.9909909909911 7.420983789698187e+39
2001.001001001001 7.245180553019939e+39
2011.0110110110109 7.06976831325886e+39
2021.0210210210212 6.895780262031446e+39
2031.031031031031 6.724334567361209e+39
2041.0410410410411 6.556616974449009e+39
2051.051051051051 6.393858015971288e+39
2061.061061061061 6.23730531052345e+39
2071.071071071071 6.088191902233732e+39
2081.081081081081 5.947702046141928e+39
2091.091091091091 5.816936207061985e+39
2101.101101101101 5.696877253597598e+39
2111.1111111111113 5.588359851607228e+39
2121.121121121121 5.492044880087881e+39
2131.131131131131 5.4084003284453564e+39
2141.141141141141 5.3376896385436406e+39
2151.151151151151 5.279967897021278e+39
2161.161161161161 5.235085734923873e+39
2171.1711711711714 5.202700312527482e+39
2181.1811811811813 5.182292395880831e+39
2191.191191191191 5.1731882833467725e+39
2201.201201201201 5.174585211413925e+39
2211.2112112112113 5.1855788437036413e+39
2221.221221221221 5.2051915054573185e+39
2231.2312312312315 5.2323999484402906e+39
2241.2412412412414 5.266161601158918e+39
2251.2512512512512 5.305438461659927e+39
2261.261261261261 5.3492180109642015e+39
2271.271271271271 5.3965307504802556e+39
2281.2812812812813 5.44646418288936e+39
2291.2912912912916 5.498173250567048e+39
2301.3013013013015 5.550887408706692e+39
2311.3113113113113 5.603914635635145e+39
2321.321321321321 5.656642768103031e+39
2331.331331331331 5.708538596143477e+39
2341.3413413413414 5.759145164990736e+39
2351.3513513513512 5.80807771702485e+39
2361.3613613613616 5.855018672062283e+39
2371.3713713713714 5.899711996702782e+39
2381.3813813813813 5.941957259211037e+39
2391.391391391391 5.981603610694262e+39
2401.4014014014015 6.018543879940145e+39
2411.4114114114113 6.052708920737786e+39
2421.4214214214217 6.084062308254529e+39
2431.4314314314315 6.11259544565377e+39
2441.4414414414414 6.138323113550577e+39
2451.4514514514512 6.16127947263268e+39
2461.4614614614616 6.181514513099894e+39
2471.4714714714714 6.199090932665366e+39
2481.4814814814818 6.21408141687146e+39
2491.4914914914916 6.226566290608111e+39
2501.5015015015015 6.236631507270293e+39
2511.5115115115113 6.244366941344732e+39
2521.521521521521 6.249864950867012e+39
2531.5315315315315 6.253219177730731e+39
2541.541541541542 6.25452355593945e+39
2551.5515515515517 6.25387150032499e+39
2561.5615615615616 6.251355250830215e+39
2571.5715715715714 6.247065350040113e+39
2581.5815815815813 6.241090234150902e+39
2591.5915915915916 6.23351591993466e+39
2601.6016016016015 6.224425772450359e+39
2611.611611611612 6.213900340253926e+39
2621.6216216216217 6.202017246663719e+39
2631.6316316316315 6.188851127247205e+39
2641.6416416416414 6.174473605118556e+39
2651.6516516516517 6.158953296886969e+39
2661.6616616616616 6.142355843187032e+39
2671.671671671672 6.124743958669699e+39
2681.6816816816818 6.10617749715069e+39
2691.6916916916916 6.086713528317042e+39
2701.7017017017015 6.066406422995488e+39
2711.711711711712 6.045307944501005e+39
2721.7217217217217 6.023467344021825e+39
2731.731731731732 6.00093145836813e+39
2741.741741741742 5.977744808725786e+39
2751.7517517517517 5.953949699320312e+39
2761.7617617617616 5.929586315118643e+39
2771.7717717717715 5.904692817881531e+39
2781.781781781782 5.879305440034766e+39
2791.791791791792 5.853458575955774e+39
2801.801801801802 5.827184870378657e+39
2811.811811811812 5.800515303708602e+39
2821.8218218218217 5.773479274108172e+39
2831.8318318318316 5.746104676276559e+39
2841.841841841842 5.718417976890253e+39
2851.851851851852 5.69044428671126e+39
2861.861861861862 5.662207429399233e+39
2871.871871871872 5.633730007087286e+39
2881.881881881882 5.605033462799409e+39
2891.8918918918916 5.576138139801051e+39
2901.901901901902 5.5470633379842e+39
2911.911911911912 5.517827367395439e+39
2921.921921921922 5.488447599019554e+39
2931.931931931932 5.458940512934006e+39
2941.941941941942 5.4293217439500955e+39
2951.9519519519517 5.3996061248562815e+39
2961.961961961962 5.369807727377694e+39
2971.971971971972 5.3399399009633085e+39
2981.9819819819822 5.310015309509681e+39
2991.991991991992 5.280045966126491e+39
3002.002002002002 5.25004326604568e+39
3012.012012012012 5.2200180177719265e+39
3022.0220220220217 5.1899804725682584e+39
3032.032032032032 5.186209017272618e+39
3042.0420420420423 5.152834665617894e+39
3052.052052052052 5.118568649396049e+39
3062.062062062062 5.083675588566538e+39
3072.072072072072 5.0483837321205887e+39
3082.0820820820823 5.01288859724967e+39
3092.092092092092 4.9773563790219634e+39
3102.102102102102 4.94192711767382e+39
3112.1121121121123 4.906717619450862e+39
3122.122122122122 4.871824133499522e+39
3132.132132132132 4.8373247920520084e+39
3142.1421421421423 4.803281824437685e+39
3152.152152152152 4.7697435576030423e+39
3162.162162162162 4.736746217089902e+39
3172.1721721721724 4.7043155430165665e+39
3182.1821821821823 4.672468235701862e+39
3192.192192192192 4.6412132453022414e+39
3202.202202202202 4.6105529193066407e+39
3212.2122122122123 4.5804840210358395e+39
3222.222222222222 4.5509986314884987e+39
3232.232232232232 4.5220849460141474e+39
3242.2422422422424 4.493727976410908e+39
3252.252252252252 4.4659101681696507e+39
3262.262262262262 4.4386119417362036e+39
3272.2722722722724 4.411812165851585e+39
3282.2822822822823 4.385488570265793e+39
3292.292292292292 4.359618104408246e+39
3302.3023023023025 4.334177247939446e+39
3312.3123123123123 4.3091422785041734e+39
3322.322322322322 4.284489501455596e+39
3332.3323323323325 4.260195445818964e+39
3342.3423423423424 4.2362370303117606e+39
3352.352352352352 4.2125917028294755e+39
3362.3623623623625 4.189237556440575e+39
3372.3723723723724 4.1661534246065137e+39
3382.3823823823823 4.143318958049399e+39
3392.3923923923926 4.1207146854288284e+39
3402.4024024024025 4.098322059755964e+39
3412.4124124124123 4.076123492265559e+39
3422.4224224224226 4.054102375281812e+39
3432.4324324324325 4.032243095449647e+39
3442.4424424424424 4.0105310385567824e+39
3452.4524524524522 3.988952587041856e+39
3462.4624624624626 3.9674951111681186e+39
3472.4724724724724 3.9461469547390335e+39
3482.4824824824823 3.924897416140034e+39
3492.4924924924926 3.903736725408763e+39
3502.5025025025025 3.882656017962443e+39
3512.5125125125123 3.8616473055455127e+39
3522.5225225225226 3.840703444901611e+39
3532.5325325325325 3.8198181046209584e+39
3542.5425425425424 3.7989857305666725e+39
3552.5525525525527 3.7782015102403796e+39
3562.5625625625626 3.757461336408785e+39
3572.5725725725724 3.7367617702775465e+39
3582.5825825825827 3.716100004467096e+39
3592.5925925925926 3.695473826015887e+39
3602.6026026026025 3.674881579610377e+39
3612.612612612613 3.6543221312169485e+39
3622.6226226226227 3.63379483226912e+39
3632.6326326326325 3.613299484543477e+39
3642.642642642643 3.5928363058394847e+39
3652.6526526526527 3.5724058965617036e+39
3662.6626626626626 3.5520092072877134e+39
3672.672672672673 3.531647507391265e+39
3682.6826826826828 3.51132235477738e+39
3692.6926926926926 3.491035566774728e+39
3702.7027027027025 3.470789192219992e+39
3712.712712712713 3.4505854847595155e+39
3722.7227227227227 3.430426877384853e+39
3732.7327327327325 3.410315958210969e+39
3742.742742742743 3.390255447498958e+39
3752.7527527527527 3.370248175918728e+39
3762.7627627627626 3.3502970640415e+39
3772.772772772773 3.330405103047044e+39
3782.7827827827828 3.310575336626029e+39
3792.7927927927926 3.2908108440541115e+39
3802.802802802803 3.271114724410968e+39
3812.812812812813 3.251490081914585e+39
3822.8228228228227 3.231940012338682e+39
3832.832832832833 3.2124675904790906e+39
3842.842842842843 3.193075858633201e+39
3852.8528528528527 3.173767816055304e+39
3862.862862862863 3.154546409349564e+39
3872.872872872873 3.135414523761723e+39
3882.8828828828828 3.116374975330009e+39
3892.892892892893 3.0974305038557247e+39
3902.902902902903 3.0785837666536755e+39
3912.912912912913 3.059837333043053e+39
3922.922922922923 3.0411936795395456e+39
3932.932932932933 3.022655185710074e+39
3942.942942942943 3.0042241306520636e+39
3952.9529529529527 2.985902690060069e+39
3962.962962962963 2.9676929338433033e+39
3972.972972972973 2.9495968242586394e+39
3982.982982982983 2.9316162145246474e+39
3992.992992992993 2.913752847883304e+39
4003.003003003003 2.896008357077235e+39
4013.013013013013 2.878384264211339e+39
4023.023023023023 2.860881980969052e+39
4033.033033033033 2.843502809154596e+39
4043.043043043043 2.826247941533824e+39
4053.053053053053 2.80911846294754e+39
4063.063063063063 2.79211535167237e+39
4073.073073073073 2.775239481005515e+39
4083.0830830830832 2.758491621050905e+39
4093.093093093093 2.74187244068552e+39
4103.103103103103 2.7253825096857233e+39
4113.113113113113 2.7090223009947578e+39
4123.123123123123 2.6927921931134623e+39
4133.133133133133 2.6766924725975794e+39
4143.143143143143 2.660723336645926e+39
4153.153153153153 2.6448848957647692e+39
4163.163163163163 2.6291771764947584e+39
4173.173173173173 2.6136001241876787e+39
4183.183183183183 2.598153605821221e+39
4193.193193193193 2.5828374128408194e+39
4203.203203203203 2.5676512640184766e+39
4213.213213213214 2.5525948083192515e+39
4223.223223223224 2.537667627766856e+39
4233.2332332332335 2.5228692403005524e+39
4243.243243243243 2.5081991026161856e+39
4253.253253253253 2.493656612984863e+39
4263.263263263263 2.4792411140434e+39
4273.273273273273 2.464951895551201e+39
4283.283283283283 2.4507881971088296e+39
4293.293293293293 2.4367492108340007e+39
4303.303303303303 2.4228340839912163e+39
4313.313313313313 2.409041921571725e+39
4323.323323323323 2.3953717888208665e+39
4333.333333333334 2.3818227137103228e+39
4343.343343343344 2.3683936893530814e+39
4353.353353353354 2.3550836763593158e+39
4363.3633633633635 2.341891605131663e+39
4373.373373373373 2.3288163780986982e+39
4383.383383383383 2.3158568718856464e+39
4393.393393393393 2.3030119394216437e+39
4403.403403403403 2.2902804119830598e+39
4413.413413413413 2.2776611011726235e+39
4423.423423423424 2.265152800834291e+39
4433.4334334334335 2.2527542889039254e+39
4443.443443443443 2.240464329196062e+39
4453.453453453454 2.228281673127153e+39
4463.463463463464 2.2162050613758332e+39
4473.473473473474 2.2042332254808002e+39
4483.483483483484 2.1923648893771268e+39
4493.493493493494 2.1805987708717725e+39
4503.503503503503 2.168933583059267e+39
4513.513513513513 2.1573680356785285e+39
4523.523523523523 2.1459008364118603e+39
4533.533533533533 2.1345306921272784e+39
4543.543543543543 2.123256310065267e+39
4553.553553553554 2.112076398971186e+39
4563.563563563564 2.10098967017456e+39
4573.573573573573 2.089994838616471e+39
4583.583583583584 2.0790906238263568e+39
4593.593593593594 2.0682757508494753e+39
4603.603603603604 2.057548951126346e+39
4613.613613613614 2.0469089633254813e+39
4623.623623623624 2.036354534130673e+39
4633.6336336336335 2.0258844189841914e+39
4643.643643643643 2.015497382787157e+39
4653.653653653653 2.0051922005583954e+39
4663.663663663663 1.9949676580530552e+39
4673.673673673674 1.984822552342253e+39
4683.683683683684 1.9747556923550213e+39
4693.693693693694 1.9647658993837704e+39
4703.703703703704 1.9548520075545185e+39
4713.713713713714 1.945012864263078e+39
4723.723723723724 1.935247330578381e+39
4733.733733733734 1.9255542816141107e+39
4743.743743743744 1.9159326068697957e+39
4753.753753753754 1.9063812105424467e+39
4763.763763763764 1.8968990118098886e+39
4773.773773773773 1.887484945086788e+39
4783.783783783783 1.8781379602545015e+39
4793.793793793793 1.8688570228657086e+39
4803.803803803804 1.8596411143248453e+39
4813.813813813814 1.850489232045331e+39
4823.823823823824 1.8414003895845178e+39
4833.833833833834 1.8323736167572825e+39
4843.843843843844 1.823407959729193e+39
4853.853853853854 1.814502481090081e+39
4863.863863863864 1.8056562599089156e+39
4873.873873873874 1.7968683917707727e+39
4883.883883883884 1.7881379887967266e+39
4893.893893893894 1.7794641796474345e+39
4903.9039039039035 1.770846109511175e+39
4913.913913913913 1.7622829400770766e+39
4923.923923923924 1.753773849494244e+39
4933.933933933934 1.7453180323174944e+39
4943.943943943944 1.736914699440337e+39
4953.953953953955 1.728563078015888e+39
4963.9639639639645 1.7202624113663208e+39
4973.973973973974 1.7120119588814662e+39
4983.983983983984 1.7038109959071636e+39
4993.993993993994 1.695658813623921e+39
5004.004004004004 1.6875547189164342e+39
5014.014014014014 1.6794980342345166e+39
5024.024024024024 1.671488097445926e+39
5034.0340340340335 1.6635242616816203e+39
5044.044044044043 1.6556058951738905e+39
5054.054054054054 1.6477323810878593e+39
5064.064064064064 1.6399031173467832e+39
5074.074074074074 1.6321175164515934e+39
5084.084084084085 1.624375005295089e+39
5094.0940940940945 1.616675024971198e+39
5104.104104104104 1.6090170305796774e+39
5114.114114114114 1.601400491026637e+39
5124.124124124124 1.5938248888212484e+39
5134.134134134134 1.5862897198689787e+39
5144.144144144144 1.578794493261693e+39
5154.154154154154 1.571338731064942e+39
5164.1641641641645 1.5639219681027375e+39
5174.174174174174 1.556543751740135e+39
5184.184184184184 1.5492036416638828e+39
5194.194194194194 1.541901209661429e+39
5204.204204204204 1.5346360393985547e+39
5214.214214214214 1.5274077261958683e+39
5224.224224224225 1.520215876804418e+39
5234.2342342342345 1.5130601091806585e+39
5244.244244244244 1.5059400522609795e+39
5254.254254254254 1.4988553457360317e+39
5264.264264264264 1.4918056398250273e+39
5274.274274274274 1.4847905950502427e+39
5284.284284284285 1.477809882011889e+39
5294.294294294295 1.4708631811635307e+39
5304.304304304304 1.463950182588232e+39
5314.314314314314 1.4570705857755898e+39
5324.324324324324 1.450224099399804e+39
5334.334334334334 1.4434104410989402e+39
5344.344344344345 1.4366293372555167e+39
5354.354354354355 1.4298805227785607e+39
5364.3643643643645 1.423163740887242e+39
5374.374374374374 1.416478742896229e+39
5384.384384384384 1.4098252880028508e+39
5394.394394394394 1.4032031430762026e+39
5404.404404404404 1.3966120824482702e+39
5414.414414414415 1.390051887707183e+39
5424.424424424425 1.383522347492685e+39
5434.4344344344345 1.3770232572938935e+39
5444.444444444444 1.3705544192494456e+39
5454.454454454454 1.3641156419500882e+39
5464.464464464464 1.357706740243788e+39
5474.474474474475 1.3513275350434206e+39
5484.484484484485 1.3449778531371056e+39
5494.494494494495 1.3386575270012268e+39
5504.504504504504 1.3323663946162048e+39
5514.514514514514 1.3261042992850525e+39
5524.524524524524 1.3198710894547668e+39
5534.534534534535 1.3136666185405821e+39
5544.544544544545 1.3074907447531286e+39
5554.554554554555 1.3013433309285185e+39
5564.5645645645645 1.2952242443613896e+39
5574.574574574574 1.2891333566409301e+39
5584.584584584584 1.283070543489898e+39
5594.594594594595 1.2770356846066519e+39
5604.604604604605 1.2710286635102203e+39
5614.614614614615 1.2650493673883911e+39
5624.624624624625 1.2590976869488539e+39
5634.6346346346345 1.2531735162733928e+39
5644.644644644644 1.247276752675113e+39
5654.654654654654 1.241407296558735e+39
5664.664664664665 1.23556505128391e+39
5674.674674674675 1.2297499230315962e+39
5684.684684684685 1.2239618206734444e+39
5694.694694694695 1.2182006556442117e+39
5704.704704704704 1.2124663418171838e+39
5714.714714714714 1.2067587953825807e+39
5724.724724724725 1.2010779347289449e+39
5734.734734734735 1.1954236803274815e+39
5744.744744744745 1.1897959546193408e+39
5754.754754754755 1.184194681905805e+39
5764.764764764765 1.1786197882413817e+39
5774.774774774774 1.1730712013297546e+39
5784.784784784785 1.1675488504225783e+39
5794.794794794795 1.1620526662210847e+39
5804.804804804805 1.1565825807804825e+39
5814.814814814815 1.1511385274171003e+39
5824.824824824825 1.1457204406182664e+39
5834.8348348348345 1.1403282559548699e+39
5844.844844844845 1.1349619099965937e+39
5854.854854854855 1.129621340229763e+39
5864.864864864865 1.12430648497779e+39
5874.874874874875 1.1190172833241742e+39
5884.884884884885 1.1137536750380247e+39
5894.894894894895 1.108515600502059e+39
