#lamb flux
1000.0 4.6097645730535155e-11
1010.01001001001 6.374341490202792e-11
1020.0200200200201 8.75404441220333e-11
1030.03003003003 1.1942321377893442e-10
1040.0400400400401 1.6186820920464684e-10
1050.05005005005 2.1802686605495122e-10
1060.06006006006 2.9188632196653615e-10
1070.07007007007 3.884627193238178e-10
1080.08008008008 5.14032407683619e-10
1090.0900900900901 6.764070413926272e-10
1100.1001001001 8.852592565954732e-10
1110.11011011011 1.1525063398572504e-09
1120.1201201201202 1.4927600649597265e-09
1130.13013013013 1.9238516712664908e-09
1140.1401401401401 2.467441781823534e-09
1150.1501501501502 3.1497259067555183e-09
1160.16016016016 4.002247041501464e-09
1170.1701701701702 5.062827743283216e-09
1180.1801801801803 6.376634945558528e-09
1190.1901901901902 7.997391641135605e-09
1200.2002002002002 9.988750421676274e-09
1210.2102102102103 1.2425844695610622e-08
1220.2202202202202 1.539703420882511e-08
1230.2302302302303 1.900586225341068e-08
1240.2402402402402 2.337324265968236e-08
1250.2502502502502 2.8639875071291852e-08
1260.2602602602603 3.49689019878159e-08
1270.2702702702702 4.254882682420271e-08
1280.2802802802803 5.1596993973504326e-08
1290.2902902902902 6.2363110763437e-08
1300.3003003003003 7.513320792942625e-08
1310.3103103103103 9.023396706939178e-08
1320.3203203203202 1.0803743547659737e-07
1330.3303303303303 1.2896614855812475e-07
1340.3403403403404 1.5349867972570502e-07
1350.3503503503503 1.8217563718884926e-07
1360.3603603603603 2.156061264842201e-07
1370.3703703703704 2.5447469683809486e-07
1380.3803803803803 2.9954878857955736e-07
1390.3903903903904 3.516866978008149e-07
1400.4004004004005 4.1184607329893907e-07
1410.4104104104103 4.810929595327462e-07
1420.4204204204204 5.606113978925733e-07
1430.4304304304305 6.517135970138203e-07
1440.4404404404404 7.55850681172658e-07
1450.4504504504505 8.746240239902625e-07
1460.4604604604606 1.0097971727476099e-06
1470.4704704704704 1.1633083665840913e-06
1480.4804804804805 1.3372836497282499e-06
1490.4904904904906 1.5340505786977001e-06
1500.5005005005005 1.7561525201163835e-06
1510.5105105105106 2.0063635334424465e-06
1520.5205205205207 2.287703830487631e-06
1530.5305305305305 2.6034558011524255e-06
1540.5405405405404 2.9571805923084248e-06
1550.5505505505505 3.3527352242438133e-06
1560.5605605605606 3.7942902265581453e-06
1570.5705705705705 4.286347772861624e-06
1580.5805805805805 4.833760291109351e-06
1590.5905905905906 5.441749523895729e-06
1600.6006006006005 6.115926010554492e-06
1610.6106106106106 6.862308960468265e-06
1620.6206206206207 7.687346484592476e-06
1630.6306306306305 8.597936149854262e-06
1640.6406406406406 9.601445818801294e-06
1650.6506506506507 1.0705734734654846e-05
1660.6606606606606 1.1919174809779367e-05
1670.6706706706707 1.3250672073508916e-05
1680.6806806806808 1.4709688233293448e-05
1690.6906906906906 1.630626230123481e-05
1700.7007007007007 1.8051032895296435e-05
1710.7107107107108 1.9955261687678655e-05
1720.7207207207207 2.2030850126828594e-05
1730.7307307307308 2.4290362740723153e-05
1740.7407407407409 2.6747048630548342e-05
1750.7507507507507 2.9414862371468706e-05
1760.7607607607606 3.230848459792633e-05
1770.770770770771 3.5443342215256864e-05
1780.7807807807808 3.883562817924535e-05
1790.7907907907907 4.250232078555567e-05
1800.8008008008007 4.6461202411911906e-05
1810.8108108108108 5.0730877657629966e-05
1820.8208208208207 5.533079082788878e-05
1830.8308308308308 6.02812427142143e-05
1840.8408408408409 6.560340662846e-05
1850.8508508508507 7.131934365552296e-05
1860.8608608608608 7.745201710065592e-05
1870.870870870871 8.402530612118585e-05
1880.8808808808808 9.106401855033753e-05
1890.890890890891 9.859390294344583e-05
1900.900900900901 0.00010664165990471892
1910.9109109109108 0.00011523495278639453
1920.920920920921 0.0001244024178916905
1930.930930930931 0.0001341736743579269
1940.940940940941 0.00014457933394515016
1950.950950950951 0.0001556510110056638
1960.960960960961 0.00016742133295645202
1970.970970970971 0.00017992395161257042
1980.980980980981 0.00019319355575555107
1990.9909909909911 0.00020726588529443568
2001.001001001001 0.000222177747313778
2011.0110110110109 0.0002379670341777476
2021.0210210210212 0.00025467274365895284
2031.031031031031 0.0002723350007772535
2041.0410410410411 0.0002909950806704355
2051.051051051051 0.00031069543139401214
2061.061061061061 0.00033147969510048664
2071.071071071071 0.00035339272563956965
2081.081081081081 0.00037648060032873464
2091.091091091091 0.00040079062355408607
2101.101101101101 0.0004263713200515379
2111.1111111111113 0.0004532724162332838
2121.121121121121 0.00048154480875758774
2131.131131131131 0.0005112405206195438
2141.141141141141 0.0005424126462306525
2151.151151151151 0.0005751152880765476
2161.161161161161 0.000609403488406999
2171.1711711711714 0.000645333159867419
2181.1811811811813 0.000682961018945409
2191.191191191191 0.0007223445255913209
2201.201201201201 0.000763541831477877
2211.2112112112113 0.0008066117382531211
2221.221221221221 0.0008516136659968589
2231.2312312312315 0.0008986076310798179
2241.2412412412414 0.0009476542318633257
2251.2512512512512 0.0009988146402209286
2261.261261261261 0.001052150596707441
2271.271271271271 0.001107724407297115
2281.2812812812813 0.0011655989398881715
2291.2912912912916 0.001225837619147613
2301.3013013013015 0.0012885044186793126
2311.3113113113113 0.0013536638498867861
2321.321321321321 0.001421380947237015
2331.331331331331 0.0014917212498968917
2341.3413413413414 0.0015647507799061108
2351.3513513513512 0.0016405360171764562
2361.3613613613616 0.0017191438716780286
2371.3713713713714 0.0018006416532001623
2381.3813813813813 0.0018850970390721442
2391.391391391391 0.0019725780402053542
2401.4014014014015 0.0020631529657839875
2411.4114114114113 0.002156890386891456
2421.4214214214217 0.0022538590993191193
2431.4314314314315 0.002354128085765172
2441.4414414414414 0.002457766477596899
2451.4514514514512 0.00256484351631893
2461.4614614614616 0.0026754285148645612
2471.4714714714714 0.0027895908188056507
2481.4814814814818 0.0029073997675596306
2491.4914914914916 0.003028924655658057
2501.5015015015015 0.0031542346941305197
2511.5115115115113 0.0032833989720492483
2521.521521521521 0.0034164864182733064
2531.5315315315315 0.0035535657634265787
2541.541541541542 0.0036947055021399567
2551.5515515515517 0.003839973855585739
2561.5615615615616 0.0039894387343299064
2571.5715715715714 0.004143167701526859
2581.5815815815813 0.004301227936480041
2591.5915915915916 0.00446368619859084
2601.6016016016015 0.004630608791717914
2611.611611611612 0.004802061528968286
2621.6216216216217 0.004978109697941156
2631.6316316316315 0.005158818026445023
2641.6416416416414 0.0053442506487081575
2651.6516516516517 0.005534471072102113
2661.6616616616616 0.005729542144397467
2671.671671671672 0.005929526021570467
2681.6816816816818 0.006134484136178481
2691.6916916916916 0.0063444771663222705
2701.7017017017015 0.006559565005211497
2711.711711711712 0.006779806731349924
2721.7217217217217 0.007005260579355998
2731.731731731732 0.007235983911433607
2741.741741741742 0.0074720331895069304
2751.7517517517517 0.007713463948033149
2761.7617617617616 0.007960330767505245
2771.7717717717715 0.008212687248656885
2781.781781781782 0.008470585987380432
2791.791791791792 0.00873407855036808
2801.801801801802 0.009003215451485658
2811.811811811812 0.00927804612888775
2821.8218218218217 0.009558618922881547
2831.8318318318316 0.009844981054546913
2841.841841841842 0.010137178605118095
2851.851851851852 0.010435256496133204
2861.861861861862 0.010739258470355418
2871.871871871872 0.011049227073469824
2881.881881881882 0.01136520363655933
2891.8918918918916 0.011687228259360857
2901.901901901902 0.012015339794304762
2911.911911911912 0.012349575831336761
2921.921921921922 0.012689972683523593
2931.931931931932 0.013036565373441137
2941.941941941942 0.013389387620343913
2951.9519519519517 0.013748471828113814
2961.961961961962 0.014113849073985793
2971.971971971972 0.014485549098046642
2981.9819819819822 0.014863600293504121
2991.991991991992 0.015248029697720355
3002.002002002002 0.015638862984006498
3012.012012012012 0.01603612445417128
3022.0220220220217 0.01643983703181855
3032.032032032032 0.016850634397221415
3042.0420420420423 0.01726725115291591
3052.052052052052 0.017690352555746875
3062.062062062062 0.01811996022736681
3072.072072072072 0.018556094138675795
3082.0820820820823 0.01899877261255484
3092.092092092092 0.019448012327648926
3102.102102102102 0.01990382832315306
3112.1121121121123 0.020366234004554677
3122.122122122122 0.02083524115028923
3132.132132132132 0.021310859919265217
3142.1421421421423 0.021793098859218048
3152.152152152152 0.022281964915850813
3162.162162162162 0.022777463442725503
3172.1721721721724 0.0232795982118646
3182.1821821821823 0.02378837142502817
3192.192192192192 0.024303783725629937
3202.202202202202 0.024825834211258935
3212.2122122122123 0.02535452044677381
3222.222222222222 0.02588983847793622
3232.232232232232 0.026431782845554995
3242.2422422422424 0.026980346600108913
3252.252252252252 0.027535521316820723
3262.262262262262 0.028097297111153594
3272.2722722722724 0.02866566265470439
3282.2822822822823 0.02924060519146679
3292.292292292292 0.029822110554440343
3302.3023023023025 0.03041016318256096
3312.3123123123123 0.031004746137929844
3322.322322322322 0.0316058411233194
3332.3323323323325 0.032213428499933985
3342.3423423423424 0.03282748730540593
3352.352352352352 0.03344799527200688
3362.3623623623625 0.034074928845055946
3372.3723723723724 0.034708263201506016
3382.3823823823823 0.03534797226869263
3392.3923923923926 0.035994028743227165
3402.4024024024025 0.03664640411001997
3412.4124124124123 0.037305068661417785
3422.4224224224226 0.0379699915164414
3432.4324324324325 0.038641140640109414
3442.4424424424424 0.03931848286283664
3452.4524524524522 0.04000198389989174
3462.4624624624626 0.040691608370905866
3472.4724724724724 0.04138731981941807
3482.4824824824823 0.042089080732448575
3492.4924924924926 0.04279685256008864
3502.5025025025025 0.04351059573509861
3512.5125125125123 0.044230269692503384
3522.5225225225226 0.04495583288917766
3532.5325325325325 0.04568724282341236
3542.5425425425424 0.046424456054454485
3552.5525525525527 0.047167428222012454
3562.5625625625626 0.047916114065720945
3572.5725725725724 0.04867046744455691
3582.5825825825827 0.049430441356202
3592.5925925925926 0.05019598795634478
3602.6026026026025 0.050967058577915975
3612.612612612613 0.05174360375025424
3622.6226226226227 0.05252557321819288
3632.6326326326325 0.05331291596106829
3642.642642642643 0.05410558021163967
3652.6526526526527 0.05490351347492049
3662.6626626626626 0.05570666254691451
3672.672672672673 0.05651497353325498
3682.6826826826828 0.05732839186773955
3692.6926926926926 0.05814686233076311
3702.7027027027025 0.05897032906763893
3712.712712712713 0.059798735606810115
3722.7227227227227 0.060632024877945306
3732.7327327327325 0.061470139229917294
3742.742742742743 0.062313020448661396
3752.7527527527527 0.063160609774911
3762.7627627627626 0.0640128479218082
3772.772772772773 0.06486967509238746
3782.7827827827828 0.0657310309969288
3792.7927927927926 0.06659685487017986
3802.802802802803 0.06746708548844531
3812.812812812813 0.06834166118654031
3822.8228228228227 0.06922051987460558
3832.832832832833 0.0701035990547865
3842.842842842843 0.0709908358377686
3852.8528528528527 0.07188216695917468
3862.862862862863 0.07277752879581484
3872.872872872873 0.07367685738179507
3882.8828828828828 0.07458008842447733
3892.892892892893 0.07548715732029421
3902.902902902903 0.0763979991704135
3912.912912912913 0.07731254879625446
3922.922922922923 0.07823074075485227
3932.932932932933 0.07915250935407128
3942.942942942943 0.08007778866766511
3952.9529529529527 0.08100651255018403
3962.962962962963 0.08193861465172533
3972.972972972973 0.08287402843253097
3982.982982982983 0.08381268717742742
3992.992992992993 0.08475452401010784
4003.003003003003 0.08569947190725756
4013.013013013013 0.08664746371252056
4023.023023023023 0.08759843215030605
4033.033033033033 0.08855230983943643
4043.043043043043 0.08950902930663313
4053.053053053053 0.09046852299984307
4063.063063063063 0.09143072330140178
4073.073073073073 0.09239556254103584
4083.0830830830832 0.09336297300870201
4093.093093093093 0.09433288696726329
4103.103103103103 0.09530523666500162
4113.113113113113 0.09627995434796761
4123.123123123123 0.09725697227216461
4133.133133133133 0.09823622271556999
4143.143143143143 0.09921763798998955
4153.153153153153 0.10020115045274969
4163.163163163163 0.10118669251822239
4173.173173173173 0.10217419666918545
4183.183183183183 0.10316359546801768
4193.193193193193 0.10415482156772778
4203.203203203203 0.10514780772281808
4213.213213213214 0.10614248679998221
4223.223223223224 0.10713879178863729
4233.2332332332335 0.10813665581129074
4243.243243243243 0.10913601213374097
4253.253253253253 0.11013679417511128
4263.263263263263 0.1111389355177218
4273.273273273273 0.1121423699167922
4283.283283283283 0.113147031309982
4293.293293293293 0.11415285382676414
4303.303303303303 0.11515977179763554
4313.313313313313 0.11616771976316209
4323.323323323323 0.1171766324828598
4333.333333333334 0.11818644494391302
4343.343343343344 0.11919709236972716
4353.353353353354 0.12020851022832266
4363.3633633633635 0.12122063424056002
4373.373373373373 0.12223340038821098
4383.383383383383 0.12324674492185972
4393.393393393393 0.12426060436864933
4403.403403403403 0.12527491553986544
4413.413413413413 0.12628961553835927
4423.423423423424 0.12730464176581374
4433.4334334334335 0.12831993192984814
4443.443443443443 0.12933542405096798
4453.453453453454 0.13035105646935546
4463.463463463464 0.1313667678515043
4473.473473473474 0.13238249719669937
4483.483483483484 0.1333981838433408
4493.493493493494 0.13441376747511427
4503.503503503503 0.13542918812700858
4513.513513513513 0.13644438619118116
4523.523523523523 0.13745930242267096
4533.533533533533 0.1384738779449619
4543.543543543543 0.13948805425539773
4553.553553553554 0.1405017732304465
4563.563563563564 0.14151497713081884
4573.573573573573 0.14252760860644043
4583.583583583584 0.14353961070127724
4593.593593593594 0.14455092685801876
4603.603603603604 0.14556150092261577
4613.613613613614 0.14657127714867962
4623.623623623624 0.14758020020173576
4633.6336336336335 0.1485882151633413
4643.643643643643 0.14959526753506466
4653.653653653653 0.15060130324232338
4663.663663663663 0.1516062686380912
4673.673673673674 0.15261011050646722
4683.683683683684 0.1536127760661115
4693.693693693694 0.1546142129735509
4703.703703703704 0.15561436932635103
4713.713713713714 0.15661319366616028
4723.723723723724 0.1576106349816248
4733.733733733734 0.15860664271117692
4743.743743743744 0.1596011667456983
4753.753753753754 0.16059415743105748
4763.763763763764 0.16158556557052667
4773.773773773773 0.16257534242707458
4783.783783783783 0.16356343972554144
4793.793793793793 0.1645498096546943
4803.803803803804 0.16553440486916488
4813.813813813814 0.1665171784912718
4823.823823823824 0.16749808411272968
4833.833833833834 0.16847707579624346
4843.843843843844 0.16945410807699252
4853.853853853854 0.17042913596400386
4863.863863863864 0.1714021149414183
4873.873873873874 0.17237300096964853
4883.883883883884 0.17334175048643083
4893.893893893894 0.174308320407775
4903.9039039039035 0.17527266812880948
4913.913913913913 0.17623475152452686
4923.923923923924 0.17719452895042945
4933.933933933934 0.1781519592430754
4943.943943943944 0.17910700172053093
4953.953953953955 0.1800596161827249
4963.9639639639645 0.18100976291171075
4973.973973973974 0.18195740267183694
4983.983983983984 0.18290249670982592
4993.993993993994 0.18384500675476448
5004.004004004004 0.18478489501800535
5014.014014014014 0.1857221241929848
5024.024024024024 0.18665665745495386
5034.0340340340335 0.18758845846062608
5044.044044044043 0.18851749134774595
5054.054054054054 0.18944372073457422
5064.064064064064 0.19036711171929682
5074.074074074074 0.19128762987935508
5084.084084084085 0.1922052412707
5094.0940940940945 0.19311991242697413
5104.104104104104 0.19403161035861788
5114.114114114114 0.19494030255190725
5124.124124124124 0.19584595696791826
5134.134134134134 0.19674854204142547
5144.144144144144 0.197648026679732
5154.154154154154 0.19854438026143517
5164.1641641641645 0.19943757263512515
5174.174174174174 0.2003275741180239
5184.184184184184 0.20121435549455968
5194.194194194194 0.20209788801488374
5204.204204204204 0.20297814339332637
5214.214214214214 0.2038550938067962
5224.224224224225 0.20472871189312358
5234.2342342342345 0.2055989707493496
5244.244244244244 0.2064658439299594
5254.254254254254 0.20732930544506706
5264.264264264264 0.20818932975854598
5274.274274274274 0.20904589178611205
5284.284284284285 0.20989896689335774
5294.294294294295 0.21074853089373952
5304.304304304304 0.21159456004651808
5314.314314314314 0.21243703105465825
5324.324324324324 0.21327592106267898
5334.334334334334 0.21411120765446817
5344.344344344345 0.2149428688510525
5354.354354354355 0.2157708831083272
5364.3643643643645 0.21659522931475153
5374.374374374374 0.21741588678900292
5384.384384384384 0.21823283527759665
5394.394394394394 0.21904605495247062
5404.404404404404 0.2198555264085351
5414.414414414415 0.2206612306611917
5424.424424424425 0.22146314914381984
5434.4344344344345 0.2222612637052318
5444.444444444444 0.22305555660709903
5454.454454454454 0.2238460105213511
5464.464464464464 0.2246326085275453
5474.474474474475 0.22541533411021222
5484.484484484485 0.22619417115617263
5494.494494494495 0.22696910395183495
5504.504504504504 0.22774011718046497
5514.514514514514 0.22850719591943566
5524.524524524524 0.22927032563745522
5534.534534534535 0.23002949219177354
5544.544544544545 0.23078468182537212
5554.554554554555 0.23153588116413176
5564.5645645645645 0.23228307721398592
5574.574574574574 0.23302625735805457
5584.584584584584 0.2337654093537651
5594.594594594595 0.2345005213299556
5604.604604604605 0.23523158178396503
5614.614614614615 0.23595857957871189
5624.624624624625 0.23668150393975673
5634.6346346346345 0.23740034445235703
5644.644644644644 0.23811509105850745
5654.654654654654 0.2388257340539743
5664.664664664665 0.23953226408531605
5674.674674674675 0.240234672146899
5684.684684684685 0.240932949577904
5694.694694694695 0.24162708805932512
5704.704704704704 0.24231707961096363
5714.714714714714 0.24300291658841539
5724.724724724725 0.24368459168005374
5734.734734734735 0.24436209790400737
5744.744744744745 0.24503542860513694
5754.754754754755 0.2457045774520042
5764.764764764765 0.2463695384338448
5774.774774774774 0.24703030585753483
5784.784784784785 0.2476868743445582
5794.794794794795 0.2483392388279727
5804.804804804805 0.24898739454937824
5814.814814814815 0.24963133705588267
5824.824824824825 0.2502710621970728
5834.8348348348345 0.2509065661219822
5844.844844844845 0.25153784527606854
5854.854854854855 0.2521648963981855
5864.864864864865 0.25278771651756415
5874.874874874875 0.2534063029507979
5884.884884884885 0.2540206532988283
5894.894894894895 0.2546307654439383
5904.9049049049045 0.25523663754675163
5914.914914914915 0.25583826804323767
5924.924924924925 0.25643565564171905
5934.934934934935 0.2570287993198921
5944.944944944945 0.25761769832185066
5954.954954954955 0.25820235215511694
5964.964964964965 0.2587827605876834
5974.974974974975 0.2593589236450604
5984.984984984985 0.2599308416073343
5994.994994994995 0.2604985150062343
6005.005005005005 0.2610619446222068
6015.015015015015 0.2616211314815046
6025.025025025025 0.2621760768532814
6035.035035035035 0.26272678224669865
6045.045045045045 0.26327324940804436
6055.055055055055 0.2638154803178622
6065.065065065065 0.264353477188092
6075.075075075075 0.264887242459222
6085.085085085085 0.2654167787974551
6095.0950950950955 0.2659420890918846
6105.105105105105 0.2664631764516847
6115.115115115115 0.2669800442033133
