#lamb flux
1000.0 2.6453628206354266e+41
1010.01001001001 2.586331777999235e+41
1020.0200200200201 2.5286450315337728e+41
1030.03003003003 2.472283247538367e+41
1040.0400400400401 2.4172260196812536e+41
1050.05005005005 2.363452042213333e+41
1060.06006006006 2.310939266061684e+41
1070.07007007007 2.2596650392959173e+41
1080.08008008008 2.2096062333395987e+41
1090.0900900900901 2.1607393561870624e+41
1100.1001001001 2.113040653782052e+41
1110.11011011011 2.0664862006188142e+41
1120.1201201201202 2.0210519805375352e+41
1130.13013013013 1.9767139586043695e+41
1140.1401401401401 1.933448144890874e+41
1150.1501501501502 1.891230650898424e+41
1160.16016016016 1.8500377393092866e+41
1170.1701701701702 1.8098458676874793e+41
1180.1801801801803 1.770631726698663e+41
1190.1901901901902 1.7323722733688642e+41
1200.2002002002002 1.6950447598565325e+41
1210.2102102102103 1.6586267581708377e+41
1220.2202202202202 1.6230961812310307e+41
1230.2302302302303 1.588431300626784e+41
1240.2402402402402 1.5546107614075254e+41
1250.2502502502502 1.5216133181526965e+41
1260.2602602602603 1.4894176119841135e+41
1270.2702702702702 1.4580021327108408e+41
1280.2802802802803 1.4273473343004232e+41
1290.2902902902902 1.3974340691728957e+41
1300.3003003003003 1.368243591285294e+41
1310.3103103103103 1.3397575578269526e+41
1320.3203203203202 1.3119580296776173e+41
1330.3303303303303 1.2848274707666795e+41
1340.3403403403404 1.258348746459127e+41
1350.3503503503503 1.2325051210822474e+41
1360.3603603603603 1.207280254696567e+41
1370.3703703703704 1.1826581992048448e+41
1380.3803803803803 1.1586233938841043e+41
1390.3903903903904 1.1351606604176535e+41
1400.4004004004005 1.1122551974966743e+41
1410.4104104104103 1.0898925750542515e+41
1420.4204204204204 1.0680587281886032e+41
1430.4304304304305 1.0467399508266647e+41
1440.4404404404404 1.0259228891741248e+41
1450.4504504504505 1.0055945349933226e+41
1460.4604604604606 9.85742218746246e+40
1470.4704704704704 9.663536026359618e+40
1480.4804804804805 9.474166735763586e+40
1490.4904904904906 9.289197361168517e+40
1500.5005005005005 9.108514053458298e+40
1510.5105105105106 8.932005997939598e+40
1520.5205205205207 8.759565343561082e+40
1530.5305305305305 8.591087132484193e+40
1540.5405405405404 8.426469230151558e+40
1550.5505505505505 8.2656122559809645e+40
1560.5605605605606 8.108419514796731e+40
1570.5705705705705 7.95479692909566e+40
1580.5805805805805 7.804652972231507e+40
1590.5905905905906 7.657898602589842e+40
1600.6006006006005 7.514447198814576e+40
1610.6106106106106 7.374214496137597e+40
1620.6206206206207 7.237118523854309e+40
1630.6306306306305 7.103079543980153e+40
1640.6406406406406 6.972019991116009e+40
1650.6506506506507 6.843864413544724e+40
1660.6606606606606 6.718539415574946e+40
1670.6706706706707 6.595973601144306e+40
1680.6806806806808 6.47609751868954e+40
1690.6906906906906 6.358843607287842e+40
1700.7007007007007 6.2441462025762315e+40
1710.7107107107108 6.131941598027442e+40
1720.7207207207207 6.022167557504486e+40
1730.7307307307308 5.914763506986411e+40
1740.7407407407409 5.809670519897038e+40
1750.7507507507507 5.706831270208692e+40
1760.7607607607606 5.606189986853505e+40
1770.770770770771 5.507692409436285e+40
1780.7807807807808 5.411285745245844e+40
1790.7907907907907 5.316918627565084e+40
1800.8008008008007 5.224541075284461e+40
1810.8108108108108 5.134104453828713e+40
1820.8208208208207 5.0455614374126e+40
1830.8308308308308 4.958865972648748e+40
1840.8408408408409 4.87397324353806e+40
1850.8508508508507 4.790839637881676e+40
1860.8608608608608 4.709422715161853e+40
1870.870870870871 4.629681175947253e+40
1880.8808808808808 4.551574832884912e+40
1890.890890890891 4.475064583345415e+40
1900.900900900901 4.400112383787869e+40
1910.9109109109108 4.3266812259044277e+40
1920.920920920921 4.254735114588142e+40
1930.930930930931 4.1842390477382843e+40
1940.940940940941 4.11515899787077e+40
1950.950950950951 4.0474618954326003e+40
1960.960960960961 3.9811156136249403e+40
1970.970970970971 3.916088954415842e+40
1980.980980980981 3.852351635270477e+40
1990.9909909909911 3.7898742759471996e+40
2001.001001001001 3.7286283845112585e+40
2011.0110110110109 3.6685863415221006e+40
2021.0210210210212 3.6097213811819097e+40
2031.031031031031 3.5520075681288356e+40
2041.0410410410411 3.495419768563088e+40
2051.051051051051 3.439933614554017e+40
2061.061061061061 3.385525460731566e+40
2071.071071071071 3.332172333137185e+40
2081.081081081081 3.2798518707852867e+40
2091.091091091091 3.22854226141085e+40
2101.101101101101 3.1782221738467734e+40
2111.1111111111113 3.128870690339989e+40
2121.121121121121 3.080467242712246e+40
2131.131131131131 3.0329915564480176e+40
2141.141141141141 2.9864236064509755e+40
2151.151151151151 2.940743587341521e+40
2161.161161161161 2.8959318998644213e+40
2171.1711711711714 2.8519691534228534e+40
2181.1811811811813 2.808836183194246e+40
2191.191191191191 2.766514078956822e+40
2201.201201201201 2.7249842218554425e+40
2211.2112112112113 2.6842283249613503e+40
2221.221221221221 2.644228473630353e+40
2231.2312312312315 2.604967162245259e+40
2241.2412412412414 2.5664273247915316e+40
2251.2512512512512 2.528592357693017e+40
2261.261261261261 2.4914461342782954e+40
2271.271271271271 2.454973011048395e+40
2281.2812812812813 2.4191578265132297e+40
2291.2912912912916 2.383985893741905e+40
2301.3013013013015 2.3494429879495273e+40
2311.3113113113113 2.3155153304593797e+40
2321.321321321321 2.282189570280892e+40
2331.331331331331 2.249452764375611e+40
2341.3413413413414 2.2172923574836195e+40
2351.3513513513512 2.1856961621793756e+40
2361.3613613613616 2.154652339637872e+40
2371.3713713713714 2.1241493814296276e+40
2381.3813813813813 2.0941760925305823e+40
2391.391391391391 2.0647215756304796e+40
2401.4014014014015 2.0357752167478453e+40
2411.4114114114113 2.0073266721074306e+40
2421.4214214214217 1.9793658562023394e+40
2431.4314314314315 1.9518829309438724e+40
2441.4414414414414 1.9248682957935356e+40
2451.4514514514512 1.8983125787706586e+40
2461.4614614614616 1.8722066282329786e+40
2471.4714714714714 1.84654150533464e+40
2481.4814814814818 1.8213084770747344e+40
2491.4914914914916 1.7964990098589324e+40
2501.5015015015015 1.7721047635061403e+40
2511.5115115115113 1.7481175856410737e+40
2521.521521521521 1.7245295064218921e+40
2531.5315315315315 1.701332733559493e+40
2541.541541541542 1.6785196475916546e+40
2551.5515515515517 1.6560827973809342e+40
2561.5615615615616 1.634014895810178e+40
2571.5715715715714 1.6123088156537518e+40
2581.5815815815813 1.590957585606115e+40
2591.5915915915916 1.56995438645242e+40
2601.6016016016015 1.5492925473682862e+40
2611.611611611612 1.5289655423380068e+40
2621.6216216216217 1.508966986682195e+40
2631.6316316316315 1.48929063368724e+40
2641.6416416416414 1.4699303713302115e+40
2651.6516516516517 1.4508802190937213e+40
2661.6616616616616 1.4321343248661037e+40
2671.671671671672 1.4136869619228841e+40
2681.6816816816818 1.3955325259860637e+40
2691.6916916916916 1.3776655323581264e+40
2701.7017017017015 1.3600806131280773e+40
2711.711711711712 1.3427725144470633e+40
2721.7217217217217 1.3257360938713876e+40
2731.731731731732 1.3089663177708788e+40
2741.741741741742 1.2924582588007854e+40
2751.7517517517517 1.2762070934354268e+40
2761.7617617617616 1.260208099562004e+40
2771.7717717717715 1.244456654132992e+40
2781.781781781782 1.2289482308756572e+40
2791.791791791792 1.2136783980572942e+40
2801.801801801802 1.1986428163047965e+40
2811.811811811812 1.1838372364772668e+40
2821.8218218218217 1.1692574975903752e+40
2831.8318318318316 1.1548995247912343e+40
2841.841841841842 1.140759327382566e+40
2851.851851851852 1.1268329968949942e+40
2861.861861861862 1.113116705206292e+40
2871.871871871872 1.099606702706461e+40
2881.881881881882 1.0862993165075388e+40
2891.8918918918916 1.0731909486970528e+40
2901.901901901902 1.0602780746340492e+40
2911.911911911912 1.047557241286675e+40
2921.921921921922 1.0350250656102843e+40
2931.931931931932 1.0226782329650839e+40
2941.941941941942 1.0105134955723327e+40
2951.9519519519517 9.985276710081525e+39
2961.961961961962 9.867176407340157e+39
2971.971971971972 9.75080348662989e+39
2981.9819819819822 9.636127997608519e+39
2991.991991991992 9.523120586812128e+39
3002.002002002002 9.411752484337671e+39
3012.012012012012 9.301995490848712e+39
3022.0220220220217 9.193821964896166e+39
3032.032032032032 9.087289535930057e+39
3042.0420420420423 8.982191010705294e+39
3052.052052052052 8.878593489214782e+39
3062.062062062062 8.776472292058549e+39
3072.072072072072 8.675803107731197e+39
3082.0820820820823 8.576561997201084e+39
3092.092092092092 8.478725397149546e+39
3102.102102102102 8.38227012201594e+39
3112.1121121121123 8.287173364981301e+39
3122.122122122122 8.193412698010289e+39
3132.132132132132 8.100966071060055e+39
3142.1421421421423 8.009811810554227e+39
3152.152152152152 7.919928617210781e+39
3162.162162162162 7.831295563303823e+39
3172.1721721721724 7.743892089431814e+39
3182.1821821821823 7.65769800085738e+39
3192.192192192192 7.572693463477488e+39
3202.202202202202 7.488858999476964e+39
3212.2122122122123 7.406175482712917e+39
3222.222222222222 7.324624133872848e+39
3232.232232232232 7.244186515444717e+39
3242.2422422422424 7.164844526533446e+39
3252.252252252252 7.086580397554533e+39
3262.262262262262 7.009376684832259e+39
3272.2722722722724 6.933216265127003e+39
3282.2822822822823 6.858082330113433e+39
3292.292292292292 6.783958380828993e+39
3302.3023023023025 6.710828222109762e+39
3312.3123123123123 6.638675957028957e+39
3322.322322322322 6.567485981351339e+39
3332.3323323323325 6.497242978015333e+39
3342.3423423423424 6.427931911653116e+39
3352.352352352352 6.359538023157526e+39
3362.3623623623625 6.292046824303737e+39
3372.3723723723724 6.225444092432206e+39
3382.3823823823823 6.159715865198597e+39
3392.3923923923926 6.094848435395742e+39
3402.4024024024025 6.030828345851445e+39
3412.4124124124123 5.967642384405655e+39
3422.4224224224226 5.905277578969737e+39
3432.4324324324325 5.843721192670033e+39
3442.4424424424424 5.782960719077374e+39
3452.4524524524522 5.722983877523856e+39
3462.4624624624626 5.663778608507701e+39
3472.4724724724724 5.605333069186793e+39
3482.4824824824823 5.547635628960976e+39
3492.4924924924926 5.4906748651432e+39
3502.5025025025025 5.434439558719118e+39
3512.5125125125123 5.378918690194667e+39
3522.5225225225226 5.324101435530951e+39
3532.5325325325325 5.269977162165592e+39
3542.5425425425424 5.216535425119536e+39
3552.5525525525527 5.163765963188261e+39
3562.5625625625626 5.111658695216194e+39
3572.5725725725724 5.060203716453027e+39
3582.5825825825827 5.009391294990638e+39
3592.5925925925926 4.959211868279177e+39
3602.6026026026025 4.909656039720909e+39
3612.612612612613 4.8607145753403113e+39
3622.6226226226227 4.812378400528943e+39
3632.6326326326325 4.764638596863509e+39
3642.642642642643 4.717486398995677e+39
3652.6526526526527 4.670913191612047e+39
3662.6626626626626 4.624910506462682e+39
3672.672672672673 4.579470019456809e+39
3682.6826826826828 4.534583547824031e+39
3692.6926926926926 4.4902430473395946e+39
3702.7027027027025 4.446440609612204e+39
3712.712712712713 4.403168459432897e+39
3722.7227227227227 4.3604189521835724e+39
3732.7327327327325 4.3181845713036054e+39
3742.742742742743 4.2764579258133004e+39
3752.7527527527527 4.235231747892666e+39
3762.7627627627626 4.1944988905142176e+39
3772.772772772773 4.154252325128437e+39
3782.7827827827828 4.1144851394006196e+39
3792.7927927927926 4.075190534997783e+39
3802.802802802803 4.0363618254244337e+39
3812.812812812813 3.997992433905949e+39
3822.8228228228227 3.9600758913183623e+39
3832.832832832833 3.922605834163443e+39
3842.842842842843 3.885576002587874e+39
3852.8528528528527 3.8489802384454744e+39
3862.862862862863 3.812812483401341e+39
3872.872872872873 3.7770667770769234e+39
3882.8828828828828 3.741737255234902e+39
3892.892892892893 3.706818148003033e+39
3902.902902902903 3.672303778135832e+39
3912.912912912913 3.638188559313251e+39
3922.922922922923 3.604466994475386e+39
3932.932932932933 3.571133674192387e+39
3942.942942942943 3.538183275068602e+39
3952.9529529529527 3.5056105581801975e+39
3962.962962962963 3.473410367545407e+39
3972.972972972973 3.4415776286266014e+39
3982.982982982983 3.410107346863418e+39
3992.992992992993 3.3789946062361674e+39
4003.003003003003 3.348234567858862e+39
4013.013013013013 3.3178224686010404e+39
4023.023023023023 3.28775361973779e+39
4033.033033033033 3.25802340562726e+39
4043.043043043043 3.2286272824149936e+39
4053.053053053053 3.1995607767644775e+39
4063.063063063063 3.170819484613269e+39
4073.073073073073 3.142399069954097e+39
4083.0830830830832 3.114295263640373e+39
4093.093093093093 3.086503862215521e+39
4103.103103103103 3.059020726765584e+39
4113.113113113113 3.03184178179458e+39
4123.123123123123 3.004963014122052e+39
4133.133133133133 2.9783804718023386e+39
4143.143143143143 2.952090263065061e+39
4153.153153153153 2.926088555276334e+39
4163.163163163163 2.900371573920231e+39
4173.173173173173 2.87493560160007e+39
4183.183183183183 2.849776977059056e+39
4193.193193193193 2.8248920942198473e+39
4203.203203203203 2.8002774012426395e+39
4213.213213213214 2.775929399601354e+39
4223.223223223224 2.7518446431775214e+39
4233.2332332332335 2.7280197373714745e+39
4243.243243243243 2.7044513382304916e+39
4253.253253253253 2.6811361515934908e+39
4263.263263263263 2.6580709322519487e+39
4273.273273273273 2.6352524831266635e+39
4283.283283283283 2.612677654460044e+39
4293.293293293293 2.590343343023587e+39
4303.303303303303 2.5682464913402052e+39
4313.313313313313 2.5463840869211193e+39
4323.323323323323 2.5247531615169655e+39
4333.333333333334 2.5033507903828596e+39
4343.343343343344 2.482174091557107e+39
4353.353353353354 2.4612202251532548e+39
4363.3633633633635 2.440486392665244e+39
4373.373373373373 2.4199698362853616e+39
4383.383383383383 2.3996678382347404e+39
4393.393393393393 2.379577720106143e+39
4403.403403403403 2.3596968422187815e+39
4413.413413413413 2.340022602984911e+39
4423.423423423424 2.3205524382879873e+39
4433.4334334334335 2.301283820872121e+39
4443.443443443443 2.282214259742614e+39
4453.453453453454 2.2633412995773493e+39
4463.463463463464 2.2446625201488402e+39
4473.473473473474 2.2261755357566587e+39
4483.483483483484 2.2078779946701236e+39
4493.493493493494 2.1897675785809686e+39
4503.503503503503 2.171842002065829e+39
4513.513513513513 2.1540990120583555e+39
4523.523523523523 2.1365363873307176e+39
4533.533533533533 2.1191519379843958e+39
4543.543543543543 2.1019435049499795e+39
4553.553553553554 2.0849089594958736e+39
4563.563563563564 2.0680462027456994e+39
4573.573573573573 2.0513531652042217e+39
4583.583583583584 2.0348278062916517e+39
4593.593593593594 2.018468113886153e+39
4603.603603603604 2.0022721038743772e+39
4613.613613613614 1.98623781970991e+39
4623.623623623624 1.97036333197943e+39
4633.6336336336335 1.9546467379764696e+39
4643.643643643643 1.939086161282615e+39
4653.653653653653 1.923679751355988e+39
4663.663663663663 1.908425683126905e+39
4673.673673673674 1.8933221566005417e+39
4683.683683683684 1.878367396466498e+39
4693.693693693694 1.8635596517150996e+39
4703.703703703704 1.8488971952603444e+39
4713.713713713714 1.8343783235693446e+39
4723.723723723724 1.8200013562981405e+39
4733.733733733734 1.8057646359337777e+39
4743.743743743744 1.7916665274425295e+39
4753.753753753754 1.7777054179241292e+39
4763.763763763764 1.7638797162719337e+39
4773.773773773773 1.7501878528388603e+39
4783.783783783783 1.7366282791090466e+39
4793.793793793793 1.7231994673750743e+39
4803.803803803804 1.7098999104206764e+39
4813.813813813814 1.696728121208837e+39
4823.823823823824 1.6836826325751563e+39
4833.833833833834 1.670761996926404e+39
4843.843843843844 1.657964785944162e+39
4853.853853853854 1.6452895902934474e+39
4863.863863863864 1.6327350193362506e+39
4873.873873873874 1.6202997008498685e+39
4883.883883883884 1.607982280749971e+39
4893.893893893894 1.595781422818292e+39
4903.9039039039035 1.5836958084348816e+39
4913.913913913913 1.57172413631481e+39
4923.923923923924 1.5598651222492693e+39
4933.933933933934 1.5481174988509782e+39
4943.943943943944 1.536480015303802e+39
4953.953953953955 1.524951437116537e+39
4963.9639639639645 1.5135305458807683e+39
4973.973973973974 1.50221613903271e+39
4983.983983983984 1.4910070296190013e+39
4993.993993993994 1.4799020460663378e+39
5004.004004004004 1.4689000319549017e+39
5014.014014014014 1.4579998457955123e+39
5024.024024024024 1.4472003608104177e+39
5034.0340340340335 1.4365004647176924e+39
5044.044044044043 1.4258990595191396e+39
5054.054054054054 1.4153950612916673e+39
5064.064064064064 1.4049873999820554e+39
5074.074074074074 1.3946750192050595e+39
5084.084084084085 1.3844568760447954e+39
5094.0940940940945 1.37433194085935e+39
5104.104104104104 1.3642991970885375e+39
5114.114114114114 1.354357641064779e+39
5124.124124124124 1.344506281827026e+39
5134.134134134134 1.3347441409376812e+39
5144.144144144144 1.3250702523024669e+39
5154.154154154154 1.3154836619931839e+39
5164.1641641641645 1.3059834280733092e+39
5174.174174174174 1.2965686204263957e+39
5184.184184184184 1.2872383205872017e+39
5194.194194194194 1.2779916215755224e+39
5204.204204204204 1.2688276277326708e+39
5214.214214214214 1.2597454545605542e+39
5224.224224224225 1.2507442285633067e+39
5234.2342342342345 1.2418230870914434e+39
5244.244244244244 1.2329811781884643e+39
5254.254254254254 1.2242176604399009e+39
5264.264264264264 1.2155317028247293e+39
5274.274274274274 1.2069224845691405e+39
5284.284284284285 1.1983891950025983e+39
5294.294294294295 1.1899310334161665e+39
5304.304304304304 1.1815472089230515e+39
5314.314314314314 1.1732369403213373e+39
5324.324324324324 1.164999455958855e+39
5334.334334334334 1.1568339936001752e+39
5344.344344344345 1.1487398002956596e+39
5354.354354354355 1.1407161322525629e+39
5364.3643643643645 1.1327622547081267e+39
5374.374374374374 1.1248774418046509e+39
5384.384384384384 1.1170609764664907e+39
5394.394394394394 1.1093121502789655e+39
5404.404404404404 1.1016302633691288e+39
5414.414414414415 1.09401462428838e+39
5424.424424424425 1.0864645498968863e+39
5434.4344344344345 1.0789793652497705e+39
5444.444444444444 1.0715584034850534e+39
5454.454454454454 1.0642010057133118e+39
5464.464464464464 1.0569065209090213e+39
5474.474474474475 1.0496743058035573e+39
5484.484484484485 1.0425037247798335e+39
5494.494494494495 1.0353941497685346e+39
5504.504504504504 1.0283449601459367e+39
5514.514514514514 1.0213555426332662e+39
5524.524524524524 1.0144252911975958e+39
5534.534534534535 1.0075536069542302e+39
5544.544544544545 1.0007398980705707e+39
5554.554554554555 9.939835796714257e+38
5564.5645645645645 9.872840737457507e+38
5574.574574574574 9.806408090547881e+38
5584.584584584584 9.740532210415846e+38
5594.594594594595 9.675207517418632e+38
5604.604604604605 9.61042849696238e+38
5614.614614614615 9.546189698637231e+38
5624.624624624625 9.482485735365471e+38
5634.6346346346345 9.419311282562293e+38
5644.644644644644 9.356661077309004e+38
5654.654654654654 9.29452991753859e+38
5664.664664664665 9.232912661233238e+38
5674.674674674675 9.171804225633861e+38
5684.684684684685 9.111199586461178e+38
5694.694694694695 9.05109377714835e+38
5704.704704704704 8.99148188808491e+38
5714.714714714714 8.93235906587179e+38
5724.724724724725 8.87372051258731e+38
5734.734734734735 8.815561485063898e+38
5744.744744744745 8.757877294175414e+38
5754.754754754755 8.70066330413486e+38
5764.764764764765 8.643914931802383e+38
5774.774774774774 8.587627646003308e+38
5784.784784784785 8.531796966856114e+38
5794.794794794795 8.476418465110174e+38
5804.804804804805 8.421487761493061e+38
5814.814814814815 8.367000526067339e+38
5824.824824824825 8.312952477596632e+38
5834.8348348348345 8.259339382920828e+38
5844.844844844845 8.206157056340323e+38
5854.854854854855 8.153401359009081e+38
5864.864864864865 8.101068198336425e+38
5874.874874874875 8.04915352739741e+38
5884.884884884885 7.997653344351639e+38
5894.894894894895 7.946563691870374e+38
