#lamb flux
1000.0 2.732803022320173e+40
1010.01001001001 2.745037827239142e+40
1020.0200200200201 2.755618367055911e+40
1030.03003003003 2.764601993796393e+40
1040.0400400400401 2.772045892772238e+40
1050.05005005005 2.7780069003368697e+40
1060.06006006006 2.782541343212685e+40
1070.07007007007 2.785704897622423e+40
1080.08008008008 2.787552466559755e+40
1090.0900900900901 2.788138073635566e+40
1100.1001001001 2.787514772036721e+40
1110.11011011011 2.785734567231929e+40
1120.1201201201202 2.7828483521540757e+40
1130.13013013013 2.7789058536794803e+40
1140.1401401401401 2.773955589311618e+40
1150.1501501501502 2.7680448330596803e+40
1160.16016016016 2.7612195895807533e+40
1170.1701701701702 2.75352457572836e+40
1180.1801801801803 2.74500320871967e+40
1190.1901901901902 2.735697600198722e+40
1200.2002002002002 2.725648555534014e+40
1210.2102102102103 2.7148955777455127e+40
1220.2202202202202 2.7034768755088593e+40
1230.2302302302303 2.6914293747336446e+40
1240.2402402402402 2.6787887332579116e+40
1250.2502502502502 2.665584068817988e+40
1260.2602602602603 2.6518330145065476e+40
1270.2702702702702 2.6375400482582294e+40
1280.2802802802803 2.6227380634121503e+40
1290.2902902902902 2.6074587877251866e+40
1300.3003003003003 2.5917328014167953e+40
1310.3103103103103 2.575589556970835e+40
1320.3203203203202 2.5590574004332017e+40
1330.3303303303303 2.542163593967813e+40
1340.3403403403404 2.5249343394554042e+40
1350.3503503503503 2.50739480293979e+40
1360.3603603603603 2.4895691397450275e+40
1370.3703703703704 2.471480520104214e+40
1380.3803803803803 2.4531511551565344e+40
1390.3903903903904 2.434602323183866e+40
1400.4004004004005 2.4158543959717035e+40
1410.4104104104103 2.396926865191513e+40
1420.4204204204204 2.377838368712972e+40
1430.4304304304305 2.3586067167648635e+40
1440.4404404404404 2.339248917872928e+40
1450.4504504504505 2.319781204511519e+40
1460.4604604604606 2.300219058413897e+40
1470.4704704704704 2.2805772354930075e+40
1480.4804804804805 2.2608697903312285e+40
1490.4904904904906 2.241110100203361e+40
1500.5005005005005 2.221310888602539e+40
1510.5105105105106 2.201484248243526e+40
1520.5205205205207 2.181641663522248e+40
1530.5305305305305 2.1617940324143164e+40
1540.5405405405404 2.1419516877988896e+40
1550.5505505505505 2.1221244181973463e+40
1560.5605605605606 2.1023214879191826e+40
1570.5705705705705 2.082551656610144e+40
1580.5805805805805 2.062823198199932e+40
1590.5905905905906 2.0431439192490175e+40
1600.6006006006005 2.0235211766960788e+40
1610.6106106106106 2.0039618950094295e+40
1620.6206206206207 1.9844725827475798e+40
1630.6306306306305 1.965059348535831e+40
1640.6406406406406 1.945727916467483e+40
1650.6506506506507 1.9264836409401245e+40
1660.6606606606606 1.9073315209393141e+40
1670.6706706706707 1.888276213784166e+40
1680.6806806806808 1.8693220483517457e+40
1690.6906906906906 1.8504730378000206e+40
1700.7007007007007 1.8317330795374627e+40
1710.7107107107108 1.8131063386071832e+40
1720.7207207207207 1.7945958549343055e+40
1730.7307307307308 1.7762043104178792e+40
1740.7407407407409 1.7579341451248642e+40
1750.7507507507507 1.7397875665126186e+40
1760.7607607607606 1.7217665584990672e+40
1770.770770770771 1.7038728904529174e+40
1780.7807807807808 1.68610812619129e+40
1790.7907907907907 1.6684736330899478e+40
1800.8008008008007 1.6509705914322859e+40
1810.8108108108108 1.6336000041477217e+40
1820.8208208208207 1.6163627071183285e+40
1830.8308308308308 1.5992593802645978e+40
1840.8408408408409 1.5822905596568058e+40
1850.8508508508507 1.5654566509370753e+40
1860.8608608608608 1.5487579443775126e+40
1870.870870870871 1.5321946319396833e+40
1880.8808808808808 1.515766826736748e+40
1890.890890890891 1.4994745853267867e+40
1900.900900900901 1.4833179332772787e+40
1910.9109109109108 1.4672968944265048e+40
1920.920920920921 1.4514115242157038e+40
1930.930930930931 1.4356619473603015e+40
1940.940940940941 1.4200483999514548e+40
1950.950950950951 1.4045712758101642e+40
1960.960960960961 1.3892311765355868e+40
1970.970970970971 1.374028964180541e+40
1980.980980980981 1.3589658148431672e+40
1990.9909909909911 1.344043270692662e+40
2001.001001001001 1.3292632870822113e+40
2011.0110110110109 1.3146282705101062e+40
2021.0210210210212 1.3001411023787035e+40
2031.031031031031 1.2858051429214603e+40
2041.0410410410411 1.2716242095095418e+40
2051.051051051051 1.257602524016885e+40
2061.061061061061 1.2437446252026524e+40
2071.071071071071 1.2300552442792716e+40
2081.081081081081 1.2165391449596231e+40
2091.091091091091 1.203200933123459e+40
2101.101101101101 1.190044845407098e+40
2111.1111111111113 1.1770745299105212e+40
2121.121121121121 1.1642928351336257e+40
2131.131131131131 1.1517016245294167e+40
2141.141141141141 1.1393016332226177e+40
2151.151151151151 1.127092380357937e+40
2161.161161161161 1.1150721455095868e+40
2171.1711711711714 1.1032380113002702e+40
2181.1811811811813 1.0915859678084783e+40
2191.191191191191 1.0801110685073911e+40
2201.201201201201 1.0688076232263296e+40
2211.2112112112113 1.0576694114613129e+40
2221.221221221221 1.0466898993711106e+40
2231.2312312312315 1.0358624456822728e+40
2241.2412412412414 1.0251804849301857e+40
2251.2512512512512 1.0146376803165436e+40
2261.261261261261 1.0042280423405231e+40
2271.271271271271 9.939460127786766e+39
2281.2812812812813 9.837865162537938e+39
2291.2912912912916 9.737449834372097e+39
2301.3013013013015 9.638173509105057e+39
2311.3113113113113 9.540000430038675e+39
2321.321321321321 9.442899407057386e+39
2331.331331331331 9.346843421814867e+39
2341.3413413413414 9.251809187052807e+39
2351.3513513513512 9.15777669021768e+39
2361.3613613613616 9.064728743980589e+39
2371.3713713713714 8.97265055953733e+39
2381.3813813813813 8.881529352923019e+39
2391.391391391391 8.791353990077676e+39
2401.4014014014015 8.702114672982313e+39
2411.4114114114113 8.613802666717563e+39
2421.4214214214217 8.526410065617414e+39
2431.4314314314315 8.439929595636806e+39
2441.4414414414414 8.354354449472854e+39
2451.4514514514512 8.269678150747964e+39
2461.4614614614616 8.1858944435724e+39
2471.4714714714714 8.102997203972275e+39
2481.4814814814818 8.020980369933215e+39
2491.4914914914916 7.939837887124569e+39
2501.5015015015015 7.859563667702105e+39
2511.5115115115113 7.780151559916346e+39
2521.521521521521 7.701595326566105e+39
2531.5315315315315 7.623888630623959e+39
2541.541541541542 7.547025026618632e+39
2551.5515515515517 7.470997956587275e+39
2561.5615615615616 7.395800749609665e+39
2571.5715715715714 7.32142662410754e+39
2581.5815815815813 7.247868692238379e+39
2591.5915915915916 7.175119965836847e+39
2601.6016016016015 7.103173363460878e+39
2611.611611611612 7.032021718186415e+39
2621.6216216216217 6.96165778586692e+39
2631.6316316316315 6.892074253633109e+39
2641.6416416416414 6.82326374845777e+39
2651.6516516516517 6.755218845650049e+39
2661.6616616616616 6.687932077176582e+39
2671.671671671672 6.621395939732966e+39
2681.6816816816818 6.555602902510453e+39
2691.6916916916916 6.490545414619598e+39
2701.7017017017015 6.4262159121462e+39
2711.711711711712 6.362606824825486e+39
2721.7217217217217 6.299710582328814e+39
2731.731731731732 6.237519620163491e+39
2741.741741741742 6.176026385191443e+39
2751.7517517517517 6.115223340775769e+39
2761.7617617617616 6.055102971567275e+39
2771.7717717717715 5.995657787944578e+39
2781.781781781782 5.936880330122876e+39
2791.791791791792 5.878763171947168e+39
2801.801801801802 5.821298924385938e+39
2811.811811811812 5.764480238741564e+39
2821.8218218218217 5.708299809593482e+39
2831.8318318318316 5.652750377489714e+39
2841.841841841842 5.597824731402045e+39
2851.851851851852 5.543515710959535e+39
2861.861861861862 5.489816208474346e+39
2871.871871871872 5.436719170773392e+39
2881.881881881882 5.38421760084852e+39
2891.8918918918916 5.332304559337326e+39
2901.901901901902 5.280973165845969e+39
2911.911911911912 5.230216600124814e+39
2921.921921921922 5.180028103106927e+39
2931.931931931932 5.130400977819049e+39
2941.941941941942 5.081328590173833e+39
2951.9519519519517 5.0328043696517785e+39
2961.961961961962 4.9848218098806734e+39
2971.971971971972 4.9373744691198224e+39
2981.9819819819822 4.8904559706559074e+39
2991.991991991992 4.8440600031168734e+39
3002.002002002002 4.798180320709785e+39
3012.012012012012 4.7528107433882126e+39
3022.0220220220217 4.707945156954359e+39
3032.032032032032 4.664053132791054e+39
3042.0420420420423 4.620115586696008e+39
3052.052052052052 4.5766482197496475e+39
3062.062062062062 4.533649893384564e+39
3072.072072072072 4.4911188344289705e+39
3082.0820820820823 4.449052714577984e+39
3092.092092092092 4.40744872198961e+39
3102.102102102102 4.36630362570967e+39
3112.1121121121123 4.325613833572056e+39
3122.122122122122 4.285375444166809e+39
3132.132132132132 4.2455842934189026e+39
3142.1421421421423 4.206235996274558e+39
3152.152152152152 4.167325983949634e+39
3162.162162162162 4.1288495371553854e+39
3172.1721721721724 4.0908018156810956e+39
3182.1821821821823 4.053177884679898e+39
3192.192192192192 4.015972737973684e+39
3202.202202202202 3.97918131866519e+39
3212.2122122122123 3.942798537319684e+39
3222.222222222222 3.906819287955228e+39
3232.232232232232 3.8712384620589705e+39
3242.2422422422424 3.836050960827332e+39
3252.252252252252 3.8012517058098457e+39
3262.262262262262 3.7668356481199896e+39
3272.2722722722724 3.732797776361328e+39
3282.2822822822823 3.6991331234035125e+39
3292.292292292292 3.665836772130089e+39
3302.3023023023025 3.632903860268739e+39
3312.3123123123123 3.6003295844039755e+39
3322.322322322322 3.568109203262906e+39
3332.3323323323325 3.536238040355933e+39
3342.3423423423424 3.5047114860463993e+39
3352.352352352352 3.473524999115855e+39
3362.3623623623625 3.4426741078853223e+39
3372.3723723723724 3.4121544109466666e+39
3382.3823823823823 3.3819615775529506e+39
3392.3923923923926 3.3520913477117217e+39
3402.4024024024025 3.322539532020567e+39
3412.4124124124123 3.2933020112803464e+39
3422.4224224224226 3.264374735917757e+39
3432.4324324324325 3.2357537252455406e+39
3442.4424424424424 3.207435066585618e+39
3452.4524524524522 3.1794149142776923e+39
3462.4624624624626 3.1516894885933636e+39
3472.4724724724724 3.124255074573578e+39
3482.4824824824823 3.0971080208051335e+39
3492.4924924924926 3.070244738150215e+39
3502.5025025025025 3.043661698441211e+39
3512.5125125125123 3.017355433151584e+39
3522.5225225225226 2.991322532052256e+39
3532.5325325325325 2.965559641861686e+39
3542.5425425425424 2.940063464896819e+39
3552.5525525525527 2.914830757731033e+39
3562.5625625625626 2.889858329864391e+39
3572.5725725725724 2.8651430424106653e+39
3582.5825825825827 2.840681806804971e+39
3592.5925925925926 2.816471583535155e+39
3602.6026026026025 2.792509380899569e+39
3612.612612612613 2.7687922537933684e+39
3622.6226226226227 2.7453173025249926e+39
3632.6326326326325 2.7220816716641395e+39
3642.642642642643 2.6990825489222203e+39
3652.6526526526527 2.676317164065917e+39
3662.6626626626626 2.653782787864232e+39
3672.672672672673 2.6314767310692584e+39
3682.6826826826828 2.6093963434305564e+39
3692.6926926926926 2.5875390127429973e+39
3702.7027027027025 2.56590216392768e+39
3712.712712712713 2.5444832581454612e+39
3722.7227227227227 2.523279791942538e+39
3732.7327327327325 2.502289296427329e+39
3742.742742742743 2.481509336478029e+39
3752.7527527527527 2.4609375099799096e+39
3762.7627627627626 2.4405714470915932e+39
3772.772772772773 2.4204088095393835e+39
3782.7827827827828 2.4004472899387304e+39
3792.7927927927926 2.3806846111418954e+39
3802.802802802803 2.3611185256108878e+39
3812.812812812813 2.341746814814703e+39
3822.8228228228227 2.3225672886499122e+39
3832.832832832833 2.3035777848836787e+39
3842.842842842843 2.284776168618246e+39
3852.8528528528527 2.2661603317759944e+39
3862.862862862863 2.2477281926041478e+39
3872.872872872873 2.2294776951982733e+39
3882.8828828828828 2.2114068090436534e+39
3892.892892892893 2.1935135285737933e+39
3902.902902902903 2.1757958727451344e+39
3912.912912912913 2.1582518846272644e+39
3922.922922922923 2.140879631007823e+39
3932.932932932933 2.1236772020114088e+39
3942.942942942943 2.1066427107317166e+39
3952.9529529529527 2.089774292876275e+39
3962.962962962963 2.073070106423128e+39
3972.972972972973 2.056528331288805e+39
3982.982982982983 2.0401471690070126e+39
3992.992992992993 2.0239248424174415e+39
4003.003003003003 2.0078595953641973e+39
4013.013013013013 1.99194969240327e+39
4023.023023023023 1.976193418518597e+39
4033.033033033033 1.960589078846226e+39
4043.043043043043 1.9451349984061344e+39
4053.053053053053 1.9298295218412864e+39
4063.063063063063 1.9146710131635278e+39
4073.073073073073 1.899657855505922e+39
4083.0830830830832 1.884788450881196e+39
4093.093093093093 1.870061219945933e+39
4103.103103103103 1.855474601770201e+39
4113.113113113113 1.841027053612329e+39
4123.123123123123 1.8267170506985102e+39
4133.133133133133 1.8125430860070137e+39
4143.143143143143 1.798503670056716e+39
4153.153153153153 1.78459733069974e+39
4163.163163163163 1.7708226129179592e+39
4173.173173173173 1.7571780786231885e+39
4183.183183183183 1.7436623064608416e+39
4193.193193193193 1.730273891616889e+39
4203.203203203203 1.7170114456279403e+39
4213.213213213214 1.7038735961943112e+39
4223.223223223224 1.6908589869958974e+39
4233.2332332332335 1.6779662775107442e+39
4243.243243243243 1.665194142836177e+39
4253.253253253253 1.652541273512367e+39
4263.263263263263 1.6400063753482424e+39
4273.273273273273 1.6275881692496184e+39
4283.283283283283 1.615285391049468e+39
4293.293293293293 1.6030967913402492e+39
4303.303303303303 1.5910211353081907e+39
4313.313313313313 1.579057202569488e+39
4323.323323323323 1.567203787008311e+39
4333.333333333334 1.5554596966165876e+39
4343.343343343344 1.543823753335493e+39
4353.353353353354 1.5322947928985896e+39
4363.3633633633635 1.520871664676574e+39
4373.373373373373 1.5095532315235875e+39
4383.383383383383 1.4983383696250414e+39
4393.393393393393 1.4872259683469342e+39
4403.403403403403 1.4762149300866133e+39
4413.413413413413 1.465304170124952e+39
4423.423423423424 1.4544926164799276e+39
4433.4334334334335 1.4437792097615574e+39
4443.443443443443 1.4331629030281778e+39
4453.453453453454 1.4226426616440473e+39
4463.463463463464 1.4122174631382622e+39
4473.473473473474 1.4018862970649348e+39
4483.483483483484 1.3916481648646678e+39
4493.493493493494 1.3815020797272723e+39
4503.503503503503 1.371447066455734e+39
4513.513513513513 1.3614821613314178e+39
4523.523523523523 1.351606411980485e+39
4533.533533533533 1.3418188772415431e+39
4543.543543543543 1.332118627034485e+39
4553.553553553554 1.3225047422305409e+39
4563.563563563564 1.3129763145235205e+39
4573.573573573573 1.3035324463022374e+39
4583.583583583584 1.2941722505241249e+39
4593.593593593594 1.2848948505900234e+39
4603.603603603604 1.2756993802201415e+39
4613.613613613614 1.2665849833311926e+39
4623.623623623624 1.2575508139146874e+39
4633.6336336336335 1.2485960359163954e+39
4643.643643643643 1.2397198231169655e+39
4653.653653653653 1.2309213590136965e+39
4663.663663663663 1.2221998367034678e+39
4673.673673673674 1.2135544587668109e+39
4683.683683683684 1.204984437153139e+39
4693.693693693694 1.1964889930671081e+39
4703.703703703704 1.1880673568561276e+39
4713.713713713714 1.1797187678990078e+39
4723.723723723724 1.1714424744957384e+39
4733.733733733734 1.1632377337583994e+39
4743.743743743744 1.1551038115032073e+39
4753.753753753754 1.1470399821436748e+39
4763.763763763764 1.1390455285849054e+39
4773.773773773773 1.131119742118992e+39
4783.783783783783 1.1232619223215426e+39
4793.793793793793 1.1154713769493093e+39
4803.803803803804 1.1077474218389218e+39
4813.813813813814 1.1000893808067315e+39
4823.823823823824 1.0924965855497435e+39
4833.833833833834 1.0849683755476455e+39
4843.843843843844 1.0775040979659297e+39
4853.853853853854 1.0701031075600866e+39
4863.863863863864 1.0627647665808883e+39
4873.873873873874 1.0554884446807366e+39
4883.883883883884 1.0482735188210832e+39
4893.893893893894 1.0411193731809063e+39
4903.9039039039035 1.0340253990662487e+39
4913.913913913913 1.0269909948208002e+39
4923.923923923924 1.0200155657375253e+39
4933.933933933934 1.0130985239713305e+39
4943.943943943944 1.0062392884527553e+39
4953.953953953955 9.994372848026921e+38
4963.9639639639645 9.926919452481266e+38
4973.973973973974 9.860027085388747e+38
4983.983983983984 9.793690198653382e+38
4993.993993993994 9.727903307772445e+38
5004.004004004004 9.662660991033795e+38
5014.014014014014 9.597957888723012e+38
5024.024024024024 9.533788702340209e+38
5034.0340340340335 9.470148193826599e+38
5044.044044044043 9.407031184800521e+38
5054.054054054054 9.344432555803049e+38
5064.064064064064 9.282347245552979e+38
5074.074074074074 9.220770250211128e+38
5084.084084084085 9.159696622653911e+38
5094.0940940940945 9.099121471756124e+38
5104.104104104104 9.039039961682716e+38
5114.114114114114 8.97944731118965e+38
5124.124124124124 8.920338792933632e+38
5134.134134134134 8.861709732790703e+38
5144.144144144144 8.803555509183537e+38
5154.154154154154 8.745871552417442e+38
5164.1641641641645 8.688653344024884e+38
5174.174174174174 8.63189641611857e+38
5184.184184184184 8.575596350752845e+38
5194.194194194194 8.519748779293446e+38
5204.204204204204 8.464349381795506e+38
5214.214214214214 8.409393886389633e+38
5224.224224224225 8.354878068676086e+38
5234.2342342342345 8.300797751126897e+38
5244.244244244244 8.247148802495861e+38
5254.254254254254 8.19392713723633e+38
5264.264264264264 8.141128714926664e+38
5274.274274274274 8.088749539703381e+38
5284.284284284285 8.036785659701713e+38
5294.294294294295 7.985233166503716e+38
5304.304304304304 7.934088194593638e+38
5314.314314314314 7.883346920820626e+38
5324.324324324324 7.833005563868524e+38
5334.334334334334 7.783060383732889e+38
5344.344344344345 7.733507681204865e+38
5354.354354354355 7.684343797362117e+38
5364.3643643643645 7.6355651130665e+38
5374.374374374374 7.587168048468544e+38
5384.384384384384 7.53914906251857e+38
5394.394394394394 7.491504652484435e+38
5404.404404404404 7.444231353475712e+38
5414.414414414415 7.397325737974371e+38
5424.424424424425 7.350784415371756e+38
5434.4344344344345 7.304604031511808e+38
5444.444444444444 7.258781268240488e+38
5454.454454454454 7.213312842961316e+38
5464.464464464464 7.168195508196882e+38
5474.474474474475 7.123426051156343e+38
5484.484484484485 7.079001293308743e+38
5494.494494494495 7.034918089962151e+38
5504.504504504504 6.991173329848491e+38
5514.514514514514 6.947763934713978e+38
5524.524524524524 6.904686858915187e+38
5534.534534534535 6.861939089020516e+38
5544.544544544545 6.819517643417121e+38
5554.554554554555 6.777419571923138e+38
5564.5645645645645 6.7356419554052126e+38
5574.574574574574 6.69418190540119e+38
5584.584584584584 6.6530365637479346e+38
5594.594594594595 6.6122031022141834e+38
5604.604604604605 6.57167872213844e+38
5614.614614614615 6.531460654071676e+38
5624.624624624625 6.491546157424967e+38
5634.6346346346345 6.451932520121876e+38
5644.644644644644 6.412617058255512e+38
5654.654654654654 6.373597115750301e+38
5664.664664664665 6.334870064028246e+38
5674.674674674675 6.2964333016798044e+38
5684.684684684685 6.258284254139125e+38
5694.694694694695 6.220420373363724e+38
5704.704704704704 6.182839137518468e+38
5714.714714714714 6.145538050663839e+38
5724.724724724725 6.1085146424483734e+38
5734.734734734735 6.071766467805286e+38
5744.744744744745 6.0352911066531344e+38
5754.754754754755 5.999086163600545e+38
5764.764764764765 5.963149267654892e+38
5774.774774774774 5.9274780719349015e+38
5784.784784784785 5.89207025338709e+38
5794.794794794795 5.8569235125060365e+38
5804.804804804805 5.822035573058369e+38
5814.814814814815 5.7874041818104605e+38
5824.824824824825 5.75302710825977e+38
5834.8348348348345 5.718902144369747e+38
5844.844844844845 5.685027104308309e+38
5854.854854854855 5.65139982418977e+38
5864.864864864865 5.618018161820208e+38
5874.874874874875 5.584879996446234e+38
5884.884884884885 5.5519832285070866e+38
5894.894894894895 5.519325779390004e+38
