#lamb flux
1000.0 0.06748356700754524
1010.01001001001 0.07327724740350386
1020.0200200200201 0.0794011838280153
1030.03003003003 0.08586184242738103
1040.0400400400401 0.09266513491790875
1050.05005005005 0.0998164005020007
1060.06006006006 0.1073203905496968
1070.07007007007 0.11518125602231273
1080.08008008008 0.12340253759721347
1090.0900900900901 0.13198715843678788
1100.1001001001 0.14093741953044997
1110.11011011011 0.15025499752588267
1120.1201201201202 0.15994094495479516
1130.13013013013 0.16999569274908616
1140.1401401401401 0.1804190549354721
1150.1501501501502 0.19121023539022936
1160.16016016016 0.2023678365307078
1170.1701701701702 0.21388986981652733
1180.1801801801803 0.22577376793086726
1190.1901901901902 0.2380163985108143
1200.2002002002002 0.2506140792953762
1210.2102102102103 0.2635625945602549
1220.2202202202202 0.27685721270986396
1230.2302302302303 0.2904927048991652
1240.2402402402402 0.30446336456065004
1250.2502502502502 0.318763027325014
1260.2602602602603 0.3333850915133058
1270.2702702702702 0.3483225393218703
1280.2802802802803 0.3635679620870817
1290.2902902902902 0.37911358052702476
1300.3003003003003 0.39495126729984525
1310.3103103103103 0.41107256971056005
1320.3203203203202 0.42746873247826084
1330.3303303303303 0.4441307204811083
1340.3403403403404 0.4610492414019399
1350.3503503503503 0.47821476820281805
1360.3603603603603 0.4956175613621825
1370.3703703703704 0.5132476908136503
1380.3803803803803 0.5310950575306737
1390.3903903903904 0.5491494147064039
1400.4004004004005 0.5674003884829837
1410.4104104104103 0.585837498189341
1420.4204204204204 0.6044501760511153
1430.4304304304305 0.6232277863407414
1440.4404404404404 0.642159643940003
1450.4504504504505 0.6612350322913116
1460.4604604604606 0.680443220717808
1470.4704704704704 0.6997734810960045
1480.4804804804805 0.719215103868031
1490.4904904904906 0.7387574133837876
1500.5005005005005 0.7583897825662317
1510.5105105105106 0.7781016468958625
1520.5205205205207 0.7978825177129758
1530.5305305305305 0.81772199483871
1540.5405405405404 0.8376097785180547
1550.5505505505505 0.857535680690017
1560.5605605605606 0.87748963559198
1570.5705705705705 0.8974617097069495
1580.5805805805805 0.9174421110638894
1590.5905905905906 0.9374211979026961
1600.6006006006005 0.9573894867165536
1610.6106106106106 0.9773376596854931
1620.6206206206207 0.9972565715158767
1630.6306306306305 1.0171372557013743
1640.6406406406406 1.0369709302216328
1650.6506506506507 1.0567490026954676
1660.6606606606606 1.0764630750058348
1670.6706706706707 1.0961049474142666
1680.6806806806808 1.115666622182669
1690.6906906906906 1.1351403067206756
1700.7007007007007 1.1545184163497946
1710.7107107107108 1.173793576714994
1720.7207207207207 1.1929586250730424
1730.7307307307308 1.2120066119985673
1740.7407407407409 1.2309308024740553
1750.7507507507507 1.2497246765743755
1760.7607607607606 1.2683819298039856
1770.770770770771 1.286896473104361
1780.7807807807808 1.3052624325489375
1790.7907907907907 1.3234741487425377
1800.8008008008007 1.3415261759419073
1810.8108108108108 1.359413280913677
1820.8208208208207 1.3771304415456964
1830.8308308308308 1.3946728452272934
1840.8408408408409 1.4120358870136647
1850.8508508508507 1.4292151675891944
1860.8608608608608 1.446206491044116
1870.870870870871 1.4630058624785758
1880.8808808808808 1.4796094854476944
1890.890890890891 1.4960137592609186
1900.900900900901 1.5122152761484937
1910.9109109109108 1.5282108183075103
1920.920920920921 1.5439973548395436
1930.930930930931 1.5595720385913838
1940.940940940941 1.574932202909954
1950.950950950951 1.5900753583217453
1960.960960960961 1.6049991891465292
1970.970970970971 1.6197015500541367
1980.980980980981 1.6341804625721954
1990.9909909909911 1.6484341115513992
2001.001001001001 1.6624608415936262
2011.0110110110109 1.676259153446602
2021.0210210210212 1.6898277003672908
2031.031031031031 1.7031652844546448
2041.0410410410411 1.7162708529510555
2051.051051051051 1.7291434945111257
2061.061061061061 1.74178243543632
2071.071071071071 1.7541870358750318
2081.081081081081 1.7663567859897829
2091.091091091091 1.7782913020964901
2101.101101101101 1.789990322784888
2111.1111111111113 1.8014537050338584
2121.121121121121 1.8126814203395747
2131.131131131131 1.8236735508776232
2141.141141141141 1.834430285721544
2151.151151151151 1.8449519171391473
2161.161161161161 1.855238836984565
2171.1711711711714 1.8652915331983277
2181.1811811811813 1.8751105864210604
2191.191191191191 1.8846966667192577
2201.201201201201 1.8940505304154782
2211.2112112112113 1.9031730170108028
2221.221221221221 1.912065046184815
2231.2312312312315 1.9207276148583494
2241.2412412412414 1.9291617943055737
2251.2512512512512 1.937368727304892
2261.261261261261 1.945349625321557
2271.271271271271 1.9531057657182607
2281.2812812812813 1.9606384889931163
2291.2912912912916 1.9679491960467677
2301.3013013013015 1.9750393454820072
2311.3113113113113 1.9819104509402434
2321.321321321321 1.9885640784794132
2331.331331331331 1.9950018439978026
2341.3413413413414 2.0012254107078133
2351.3513513513512 2.007236486663015
2361.3613613613616 2.013036822341197
2371.3713713713714 2.018628208285383
2381.3813813813813 2.0240124728041633
2391.391391391391 2.0291914797321815
2401.4014014014015 2.0341671262510452
2411.4114114114113 2.038941340770693
2421.4214214214217 2.0435160808708495
2431.4314314314315 2.0478933313020224
2441.4414414414414 2.0520751020453387
2451.4514514514512 2.0560634264303785
2461.4614614614616 2.059860359310096
2471.4714714714714 2.063467975291844
2481.4814814814818 2.0668883670235267
2491.4914914914916 2.0701236435338295
2501.5015015015015 2.073175928625514
2511.5115115115113 2.076047359320736
2521.521521521521 2.078740084357342
2531.5315315315315 2.0812562627351343
2541.541541541542 2.0835980623110792
2551.5515515515517 2.0857676584424394
2561.5615615615616 2.087767232676823
2571.5715715715714 2.0895989714881575
2581.5815815815813 2.091265065057598
2591.5915915915916 2.092767706098393
2601.6016016016015 2.0941090887237186
2611.611611611612 2.0952914073565445
2621.6216216216217 2.0963168556805414
2631.6316316316315 2.0971876256311135
2641.6416416416414 2.0979059064255945
2651.6516516516517 2.098473883631692
2661.6616616616616 2.0988937382732438
2671.671671671672 2.099167645972389
2681.6816816816818 2.099297776127239
2691.6916916916916 2.0992862911241548
2701.7017017017015 2.099135345583775
2711.711711711712 2.0988470856398687
2721.7217217217217 2.098423648250225
2731.731731731732 2.0978671605386463
2741.741741741742 2.0971797391672844
2751.7517517517517 2.0963634897384416
2761.7617617617616 2.0954205062250515
2771.7717717717715 2.09435287042901
2781.781781781782 2.093162651466602
2791.791791791792 2.091851905280223
2801.801801801802 2.0904226741756315
2811.811811811812 2.088876986384003
2821.8218218218217 2.0872168556480197
2831.8318318318316 2.0854442808313105
2841.841841841842 2.0835612455504786
2851.851851851852 2.0815697178290797
2861.861861861862 2.0794716497728274
2871.871871871872 2.077268977265363
2881.881881881882 2.0749636196839525
2891.8918918918916 2.072557479634451
2901.901901901902 2.0700524427049114
2911.911911911912 2.067450377237228
2921.921921921922 2.0647531341162013
2931.931931931932 2.061962546575467
2941.941941941942 2.0590804300196712
2951.9519519519517 2.0561085818623623
2961.961961961962 2.0530487813790472
2971.971971971972 2.049902789574867
2981.9819819819822 2.046672349066388
2991.991991991992 2.04335918397698
3002.002002002002 2.039964999845292
3012.012012012012 2.0364914835463557
3022.0220220220217 2.0329403032248257
3032.032032032032 2.0293132358817023
3042.0420420420423 2.025611641012169
3052.052052052052 2.021837269099997
3062.062062062062 2.017991714123332
3072.072072072072 2.014076551007814
3082.0820820820823 2.01009333563849
3092.092092092092 2.0060436048796944
3102.102102102102 2.001928876602569
3112.1121121121123 1.9977506497199433
3122.122122122122 1.993510404228315
3132.132132132132 1.9892096012566514
3142.1421421421423 1.9848496831217242
3152.152152152152 1.9804320733897418
3162.162162162162 1.9759581769439991
3172.1721721721724 1.9714293800582972
3182.1821821821823 1.966847050475903
3192.192192192192 1.9622125374937702
3202.202202202202 1.9575271720518133
3212.2122122122123 1.9527922668270121
3222.222222222222 1.9480091163320754
3232.232232232232 1.943178997018492
3242.2422422422424 1.9383031673837294
3252.252252252252 1.9333828680823841
3262.262262262262 1.9284193220410506
3272.2722722722724 1.9234137345767663
3282.2822822822823 1.918367293518776
3292.292292292292 1.913281169333471
3302.3023023023025 1.9081565152523163
3312.3123123123123 1.9029944674025647
3322.322322322322 1.8977961449406158
3332.3323323323325 1.8925626501878332
3342.3423423423424 1.8872950687686774
3352.352352352352 1.8819944697509663
3362.3623623623625 1.876661905788154
3372.3723723723724 1.871298413263452
3382.3823823823823 1.8659050124356453
3392.3923923923926 1.8604827075865054
3402.4024024024025 1.8550324871696189
3412.4124124124123 1.849555323960536
3422.4224224224226 1.8440521752081067
3432.4324324324325 1.838523982786878
3442.4424424424424 1.8329716733504553
3452.4524524524522 1.827396158485683
3462.4624624624626 1.8217983348675801
3472.4724724724724 1.8161790844148988
3482.4824824824823 1.8105392744462074
3492.4924924924926 1.8048797578364122
3502.5025025025025 1.7992013731736332
3512.5125125125123 1.793504944916317
3522.5225225225226 1.7877912835505354
3532.5325325325325 1.782061185747359
3542.5425425425424 1.776315434520254
3552.5525525525527 1.7705547993824005
3562.5625625625626 1.7647800365038933
3572.5725725725724 1.75899188886871
3582.5825825825827 1.7531910864314326
3592.5925925925926 1.7473783462736197
3602.6026026026025 1.741554372759787
3612.612612612613 1.7357198576929407
3622.6226226226227 1.7298754804695897
3632.6326326326325 1.7240219082342128
3642.642642642643 1.7181597960331032
3652.6526526526527 1.712289786967568
3662.6626626626626 1.7064125123464033
3672.672672672673 1.7005285918376505
3682.6826826826828 1.6946386336195427
3692.6926926926926 1.68874323453064
3702.7027027027025 1.682842980219089
3712.712712712713 1.6769384452909966
3722.7227227227227 1.6710301934578722
3732.7327327327325 1.6651187776830962
3742.742742742743 1.659204740327418
3752.7527527527527 1.6532886132934193
3762.7627627627626 1.6473709181689409
3772.772772772773 1.641452166369442
3782.7827827827828 1.6355328592792722
3792.7927927927926 1.6296134883918167
3802.802802802803 1.6236945354485337
3812.812812812813 1.617776472576826
3822.8228228228227 1.6118597624267421
3832.832832832833 1.6059448583065161
3842.842842842843 1.600032204316888
3852.8528528528527 1.594122235484229
3862.862862862863 1.5882153778924393
3872.872872872873 1.5823120488136186
3882.8828828828828 1.5764126568374757
3892.892892892893 1.570517601999524
3902.902902902903 1.5646272759079733
3912.912912912913 1.558742061869391
3922.922922922923 1.55286233501307
3932.932932932933 1.546988462414134
3942.942942942943 1.5411208032153492
3952.9529529529527 1.5352597087476612
3962.962962962963 1.5294055226494379
3972.972972972973 1.5235585809844296
3982.982982982983 1.5177192123584347
3992.992992992993 1.5118877380346696
4003.003003003003 1.5060644720478626
4013.013013013013 1.5002497213170445
4023.023023023023 1.4944437857570547
4033.033033033033 1.488646958388764
4043.043043043043 1.482859525448011
4053.053053053053 1.477081766493254
4063.063063063063 1.4713139545119542
4073.073073073073 1.4655563560256748
4083.0830830830832 1.4598092311939208
4093.093093093093 1.4540728339167077
4103.103103103103 1.448347411935873
4113.113113113113 1.4426332069351402
4123.123123123123 1.4369304546389232
4133.133133133133 1.4312393849098999
4143.143143143143 1.4255602218453498
4153.153153153153 1.4198931838722622
4163.163163163163 1.4142384838412259
4173.173173173173 1.4085963291191024
4183.183183183183 1.4029669216805039
4193.193193193193 1.3973504581980627
4203.203203203203 1.3917471301315198
4213.213213213214 1.3861571238156336
4223.223223223224 1.380580620546917
4233.2332332332335 1.3750177966692099
4243.243243243243 1.3694688236580996
4253.253253253253 1.3639338682041984
4263.263263263263 1.3584130922952866
4273.273273273273 1.3529066532973308
4283.283283283283 1.3474147040343867
4293.293293293293 1.3419373928673919
4303.303303303303 1.3364748637718733
4313.313313313313 1.3310272564145602
4323.323323323323 1.3255947062289224
4333.333333333334 1.3201773444896474
4343.343343343344 1.3147752983860603
4353.353353353354 1.309388691094496
4363.3633633633635 1.304017641849641
4373.373373373373 1.2986622660148497
4383.383383383383 1.2933226751514444
4393.393393393393 1.2879989770870157
4403.403403403403 1.282691275982731
4413.413413413413 1.2773996723996532
4423.423423423424 1.2721242633640961
4433.4334334334335 1.2668651424320154
4443.443443443443 1.261622399752447
4453.453453453454 1.2563961221300055
4463.463463463464 1.2511863930864644
4473.473473473474 1.2459932929213926
4483.483483483484 1.2408168987719086
4493.493493493494 1.2356572846715208
4503.503503503503 1.2305145216080813
4513.513513513513 1.2253886775808753
4523.523523523523 1.2202798176568195
4533.533533533533 1.2151880040258327
4543.543543543543 1.210113296055336
4553.553553553554 1.2050557503439305
4563.563563563564 1.200015420774245
4573.573573573573 1.1949923585649684
4583.583583583584 1.1899866123220775
4593.593593593594 1.184998228089269
4603.603603603604 1.1800272493976018
4613.613613613614 1.1750737173143762
4623.623623623624 1.1701376704912307
4633.6336336336335 1.1652191452114946
4643.643643643643 1.160318175436794
4653.653653653653 1.1554347928529152
4663.663663663663 1.1505690269149467
4673.673673673674 1.1457209048917
4683.683683683684 1.140890451909428
4693.693693693694 1.1360776909948413
4703.703703703704 1.1312826431174334
4713.713713713714 1.1265053272311307
4723.723723723724 1.1217457603152694
4733.733733733734 1.1170039574149115
4743.743743743744 1.1122799316805063
4753.753753753754 1.1075736944069103
4763.763763763764 1.1028852550717747
4773.773773773773 1.0982146213732953
4783.783783783783 1.093561799267364
4793.793793793793 1.0889267930040947
4803.803803803804 1.0843096051637517
4813.813813813814 1.0797102366920976
4823.823823823824 1.0751286869351433
4833.833833833834 1.0705649536733284
4843.843843843844 1.0660190331551387
4853.853853853854 1.061490920130156
4863.863863863864 1.056980607881563
4873.873873873874 1.0524880882581031
4883.883883883884 1.0480133517055035
4893.893893893894 1.0435563872973739
4903.9039039039035 1.03911718276558
4913.913913913913 1.03469572453011
4923.923923923924 1.03029199772843
4933.933933933934 1.0259059862443518
4943.943943943944 1.0215376727363958
4953.953953953955 1.0171870386656832
4963.9639639639645 1.0128540643233477
4973.973973973974 1.0085387288574763
4983.983983983984 1.0042410102995918
4993.993993993994 0.999960885590678
5004.004004004004 0.9956983306067558
5014.014014014014 0.9914533201840213
5024.024024024024 0.9872258281435435
5034.0340340340335 0.9830158273155387
5044.044044044043 0.9788232895632218
5054.054054054054 0.9746481858062379
5064.064064064064 0.9704904860436915
5074.074074074074 0.9663501593767675
5084.084084084085 0.9622271740309548
5094.0940940940945 0.9581214973778847
5104.104104104104 0.9540330959567795
5114.114114114114 0.9499619354955238
5124.124124124124 0.9459079809313616
5134.134134134134 0.9418711964312283
5144.144144144144 0.9378515454117201
5154.154154154154 0.9338489905587055
5164.1641641641645 0.9298634938465913
5174.174174174174 0.9258950165572359
5184.184184184184 0.9219435192985314
5194.194194194194 0.9180089620226434
5204.204204204204 0.9140913040439291
5214.214214214214 0.9101905040565272
5224.224224224225 0.9063065201516273
5234.2342342342345 0.9024393098344324
5244.244244244244 0.8985888300408028
5254.254254254254 0.8947550371536088
5264.264264264264 0.8909378870187671
5274.274274274274 0.8871373349610028
5284.284284284285 0.8833533357993041
5294.294294294295 0.8795858438621054
5304.304304304304 0.875834813002177
5314.314314314314 0.8721001966112543
5324.324324324324 0.8683819476343786
5334.334334334334 0.8646800185839861
5344.344344344345 0.8609943615537218
5354.354354354355 0.8573249282320036
5364.3643643643645 0.8536716699153245
5374.374374374374 0.8500345375213124
5384.384384384384 0.8464134816015365
5394.394394394394 0.8428084523540761
5404.404404404404 0.8392193996358465
5414.414414414415 0.8356462729746965
5424.424424424425 0.8320890215812716
5434.4344344344345 0.8285475943606496
5444.444444444444 0.8250219399237522
5454.454454454454 0.8215120065985446
5464.464464464464 0.8180177424410097
5474.474474474475 0.8145390952459152
5484.484484484485 0.8110760125573714
5494.494494494495 0.8076284416791814
5504.504504504504 0.8041963296849954
5514.514514514514 0.8007796234282546
5524.524524524524 0.7973782695519549
5534.534534534535 0.793992214498206
5544.544544544545 0.7906214045176103
5554.554554554555 0.7872657856784474
5564.5645645645645 0.7839253038756849
5574.574574574574 0.7805999048398059
5584.584584584584 0.7772895341454573
5594.594594594595 0.7739941372199267
5604.604604604605 0.770713659351454
5614.614614614615 0.7674480456973637
5624.624624624625 0.7641972412920421
5634.6346346346345 0.7609611910547502
5644.644644644644 0.7577398397972724
5654.654654654654 0.7545331322314152
5664.664664664665 0.7513410129763471
5674.674674674675 0.7481634265657896
5684.684684684685 0.7450003174550572
5694.694694694695 0.7418516300279536
5704.704704704704 0.7387173086035215
5714.714714714714 0.7355972974426546
5724.724724724725 0.7324915407545654
5734.734734734735 0.7293999827031218
5744.744744744745 0.7263225674130468
5754.754754754755 0.7232592389759844
5764.764764764765 0.720209941456442
5774.774774774774 0.7171746188975987
5784.784784784785 0.7141532153269919
5794.794794794795 0.7111456747620806
5804.804804804805 0.7081519412156875
5814.814814814815 0.7051719587013219
5824.824824824825 0.7022056712383877
5834.8348348348345 0.6992530228572722
5844.844844844845 0.6963139576043295
5854.854854854855 0.6933884195467459
5864.864864864865 0.6904763527773006
5874.874874874875 0.6875777014190185
5884.884884884885 0.6846924096297196
5894.894894894895 0.6818204216064618
5904.9049049049045 0.6789616815898843
5914.914914914915 0.6761161338684537
5924.924924924925 0.6732837227826092
5934.934934934935 0.67046439272881
5944.944944944945 0.6676580881634968
5954.954954954955 0.6648647536069489
5964.964964964965 0.6620843336470611
5974.974974974975 0.659316772943023
5984.984984984985 0.6565620162289165
5994.994994994995 0.653820008317223
6005.005005005005 0.6510906941022475
6015.015015015015 0.6483740185634601
6025.025025025025 0.645669926768756
6035.035035035035 0.6429783638776316
6045.045045045045 0.6402992751442886
6055.055055055055 0.6376326059206541
6065.065065065065 0.6349783016593288
6075.075075075075 0.6323363079164596
6085.085085085085 0.6297065703545383
6095.0950950950955 0.6270890347451288
6105.105105105105 0.6244836469715266
6115.115115115115 0.6218903530313424
6125.125125125125 0.6193090990390238
6135.135135135135 0.6167398312283097
6145.145145145145 0.6141824959546147
6155.155155155155 0.6116370396973537
6165.1651651651655 0.6091034090622022
6175.175175175175 0.6065815507832936
6185.185185185185 0.6040714117253554
6195.195195195195 0.601572938885789
6205.205205205205 0.5990860793966875
6215.215215215215 0.5966107805267951
6225.225225225226 0.594146989683416
6235.235235235235 0.5916946544142598
6245.245245245245 0.5892537224092405
6255.255255255255 0.5868241415022162
6265.265265265265 0.5844058596726791
6275.275275275275 0.5819988250473945
6285.285285285286 0.5796029859019884
6295.295295295296 0.577218290662487
6305.305305305305 0.5748446879068047
6315.315315315315 0.5724821263661892
6325.325325325325 0.570130554926616
6335.335335335335 0.5677899226301399
6345.345345345346 0.5654601786761988
6355.355355355356 0.5631412724228769
6365.3653653653655 0.5608331533881218
6375.375375375375 0.5585357712509205
