#lamb flux
1000.0 0.009994230524466657
1010.01001001001 0.010607828957434956
1020.0200200200201 0.011225996292000518
1030.03003003003 0.011847521228953186
1040.0400400400401 0.012471289396960534
1050.05005005005 0.013096283089161774
1060.06006006006 0.013721579687426044
1070.07007007007 0.014346349027833445
1080.08008008008 0.014969849935368911
1090.0900900900901 0.015591426129513213
1100.1001001001 0.01621050167643687
1110.11011011011 0.01682657613861222
1120.1201201201202 0.017439219549373424
1130.13013013013 0.018048067318596407
1140.1401401401401 0.01865281515640396
1150.1501501501502 0.019253214084680458
1160.16016016016 0.019849065591167326
1170.1701701701702 0.020440216967913084
1180.1801801801803 0.021026556864735667
1190.1901901901902 0.021608011078960185
1200.2002002002002 0.02218453859485936
1210.2102102102103 0.022756127879767392
1220.2202202202202 0.023322793438601563
1230.2302302302303 0.023884572624343823
1240.2402402402402 0.024441522698764453
1250.2502502502502 0.024992655102373182
1260.2602602602603 0.02553476427696357
1270.2702702702702 0.026061785804265578
1280.2802802802803 0.02657349481052949
1290.2902902902902 0.02706971487181648
1300.3003003003003 0.027550314576231354
1310.3103103103103 0.028015204172505984
1320.3203203203202 0.02846433231944124
1330.3303303303303 0.028897682947479762
1340.3403403403404 0.029315272240833114
1350.3503503503503 0.02971714574610193
1360.3603603603603 0.03010337561117105
1370.3703703703704 0.030474057956306633
1380.3803803803803 0.03082931037779688
1390.3903903903904 0.031169269583139984
1400.4004004004005 0.03149408915565642
1410.4104104104103 0.03180393744547524
1420.4204204204204 0.03209899558308159
1430.4304304304305 0.03237945561100157
1440.4404404404404 0.03264551872871898
1450.4504504504505 0.03289739364554934
1460.4604604604606 0.03313529503592462
1470.4704704704704 0.033359442091354184
1480.4804804804805 0.033570057163209654
1490.4904904904906 0.0337673644904263
1500.5005005005005 0.033951589006207795
1510.5105105105106 0.03412295521786292
1520.5205205205207 0.034281686153978856
1530.5305305305305 0.034428002373248515
1540.5405405405404 0.03456212102940967
1550.5505505505505 0.034684254986923915
1560.5605605605606 0.03479461198221861
1570.5705705705705 0.03489339382554185
1580.5805805805805 0.034980795638735955
1590.5905905905906 0.03505700512452644
1600.6006006006005 0.03512220186325959
1610.6106106106106 0.03517655663340633
1620.6206206206207 0.03522023075260017
1630.6306306306305 0.035253375436504954
1640.6406406406406 0.035276131173432784
1650.6506506506507 0.03528862711337951
1660.6606606606606 0.035290980471038964
1670.6706706706707 0.03528329594343796
1680.6806806806808 0.03526566514413714
1690.6906906906906 0.03523816605752655
1700.7007007007007 0.03520093984424794
1710.7107107107108 0.035154348235196635
1720.7207207207207 0.03509839446227679
1730.7307307307308 0.03503302701916797
1740.7407407407409 0.034958182828799526
1750.7507507507507 0.03487378693184986
1760.7607607607606 0.03477975230204646
1770.770770770771 0.034675979825043945
1780.7807807807808 0.034562358485763466
1790.7907907907907 0.034438765818567973
1800.8008008008007 0.034305068685631566
1810.8108108108108 0.0341611244614172
1820.8208208208207 0.03400678271529272
1830.8308308308308 0.03384188749986628
1840.8408408408409 0.03366628036928722
1850.8508508508507 0.033479804268961876
1860.8608608608608 0.03328230845491309
1870.870870870871 0.03307365461592497
1880.8808808808808 0.03285372438255498
1890.890890890891 0.03262242841117172
1900.900900900901 0.03237971722453692
1910.9109109109108 0.03212559396817377
1920.920920920921 0.03186012919786702
1930.930930930931 0.03158347774118418
1940.940940940941 0.0312958975674538
1950.950950950951 0.030997770449000525
1960.960960960961 0.03068962399601462
1970.970970970971 0.030372154396046677
1980.980980980981 0.030046248890503082
1990.9909909909911 0.029713006687190367
2001.001001001001 0.029373756664120187
2011.0110110110109 0.029030069903528254
2021.0210210210212 0.028683764858769716
2031.031031031031 0.02833690286457718
2041.0410410410411 0.027991771822252435
2051.051051051051 0.027650856288394473
2061.061061061061 0.027316792909313107
2071.071071071071 0.026992311174352357
2081.081081081081 0.02668016075620963
2091.091091091091 0.02638302814903694
2101.101101101101 0.026103446732848406
2111.1111111111113 0.025843705576986977
2121.121121121121 0.025605763037271387
2131.131131131131 0.025391171335074427
2141.141141141141 0.025201017749557623
2151.151151151151 0.02503588683364101
2161.161161161161 0.0248958463192778
2171.1711711711714 0.02478045733684426
2181.1811811811813 0.024688807511645653
2191.191191191191 0.02461956368593941
2201.201201201201 0.024571039660900584
2211.2112112112113 0.02454127358510145
2221.221221221221 0.024528109460229368
2231.2312312312315 0.02452927762652611
2241.2412412412414 0.02454246990007289
2251.2512512512512 0.024565406098940888
2261.261261261261 0.024595889851511146
2271.271271271271 0.02463185268765101
2281.2812812812813 0.024671386369990996
2291.2912912912916 0.02471276416937659
2301.3013013013015 0.0247544523062882
2311.3113113113113 0.024795113080159567
2321.321321321321 0.024833601322893896
2331.331331331331 0.02486895578337925
2341.3413413413414 0.024900386920177802
2351.3513513513512 0.02492726238968132
2361.3613613613616 0.024949091299725452
2371.3713713713714 0.024965508078577666
2381.3813813813813 0.024976256603097605
2391.391391391391 0.024981175047656005
2401.4014014014015 0.0249801817617182
2411.4114114114113 0.024973262359653487
2421.4214214214217 0.024960458109631916
2431.4314314314315 0.024941855636295928
2441.4414414414414 0.024917577900484017
2451.4514514514512 0.02488777638478614
2461.4614614614616 0.024852624392502534
2471.4714714714714 0.024812311356471294
2481.4814814814818 0.024767038050523365
2491.4914914914916 0.024717012597824082
2501.5015015015015 0.024662447175335053
2511.5115115115113 0.024603555320754568
2521.521521521521 0.024540549756583166
2531.5315315315315 0.024473640654704757
2541.541541541542 0.024403034273580763
2551.5515515515517 0.02432893190849994
2561.5615615615616 0.0242515291031095
2571.5715715715714 0.024171015077566013
2581.5815815815813 0.024087572335039133
2591.5915915915916 0.024001376413980716
2601.6016016016015 0.023912595758562007
2611.611611611612 0.02382139168402733
2621.6216216216217 0.02372791841747211
2631.6316316316315 0.02363232319778146
2641.6416416416414 0.023534746421225498
2651.6516516516517 0.023435321821553157
2661.6616616616616 0.023334176675412686
2671.671671671672 0.02323143202560101
2681.6816816816818 0.023127202916050624
2691.6916916916916 0.023021598633639388
2701.7017017017015 0.022914722952889672
2711.711711711712 0.022806674380439165
2721.7217217217217 0.022697546396840528
2731.731731731732 0.022587427693803633
2741.741741741742 0.022476402405452567
2751.7517517517517 0.02236455033254303
2761.7617617617616 0.02225194715889105
2771.7717717717715 0.0221386646595103
2781.781781781782 0.022024770900153992
2791.791791791792 0.021910330428115972
2801.801801801802 0.02179540445427062
2811.811811811812 0.021680051026429798
2821.8218218218217 0.021564325194170786
2831.8318318318316 0.021448279165346303
2841.841841841842 0.02133196245453046
2851.851851851852 0.02121542202368469
2861.861861861862 0.021098702415348152
2871.871871871872 0.02098184587866953
2881.881881881882 0.020864892488603896
2891.8918918918916 0.020747880258599017
2901.901901901902 0.020630845247093448
2911.911911911912 0.020513821658142712
2921.921921921922 0.02039684193648236
2931.931931931932 0.020279936857327128
2941.941941941942 0.020163135611194472
2951.9519519519517 0.020046465884029342
2961.961961961962 0.01992995393289524
2971.971971971972 0.019813624657483882
2981.9819819819822 0.01969750166768388
2991.991991991992 0.019581607347436095
3002.002002002002 0.019465962915092054
3012.012012012012 0.019350588480479106
3022.0220220220217 0.01923550309886553
3032.032032032032 0.01916256629402042
3042.0420420420423 0.01904279114235
3052.052052052052 0.018921913423818548
3062.062062062062 0.018800354879917533
3072.072072072072 0.01867847942104698
3082.0820820820823 0.01855659909918454
3092.092092092092 0.0184349796046446
3102.102102102102 0.01831384530487594
3112.1121121121123 0.018193383847172166
3122.122122122122 0.0180737503496845
3132.132132132132 0.01795507120653929
3142.1421421421423 0.01783744753342409
3152.152152152152 0.017720958279922906
3162.162162162162 0.017605663034321498
3172.1721721721724 0.01749160454569956
3182.1821821821823 0.017378810986987188
3192.192192192192 0.017267297981370104
3202.202202202202 0.01715707041304863
3212.2122122122123 0.017048124041938277
3222.222222222222 0.016940446940482093
3232.232232232232 0.016834020769357076
3242.2422422422424 0.016728821907514978
3252.252252252252 0.016624822450718526
3262.262262262262 0.01652199109152462
3272.2722722722724 0.016420293892531728
3282.2822822822823 0.01631969496365183
3292.292292292292 0.01622015705318764
3302.3023023023025 0.016121642061592018
3312.3123123123123 0.016024111485955533
3322.322322322322 0.01592752680250739
3332.3323323323325 0.01583184979371858
3342.3423423423424 0.015737042825963072
3352.352352352352 0.015643069083114823
3362.3623623623625 0.015549892760935432
3372.3723723723724 0.015457479226630898
3382.3823823823823 0.01536579514752549
3392.3923923923926 0.015274808592410937
3402.4024024024025 0.01518448910877561
3412.4124124124123 0.015094807778799669
3422.4224224224226 0.015005737256713501
3432.4324324324325 0.014917251789856032
3442.4424424424424 0.014829327225533701
3452.4524524524522 0.014741941005568178
3462.4624624624626 0.014655072150228411
3472.4724724724724 0.014568701233068412
3482.4824824824823 0.014482810348035221
3492.4924924924926 0.014397383070069185
3502.5025025025025 0.014312404410289921
3512.5125125125123 0.014227860766745195
3522.5225225225226 0.014143739871594395
3532.5325325325325 0.01406003073550317
3542.5425425425424 0.01397672358993923
3552.5525525525527 0.01389380982798135
3562.5625625625626 0.013811281944182765
3572.5725725725724 0.013729133473965828
3582.5825825825827 0.013647358932967152
3592.5925925925926 0.013565953756699448
3602.6026026026025 0.013484914240848914
3612.612612612613 0.013404237482484028
3622.6226226226227 0.013323921322412368
3632.6326326326325 0.01324396428888719
3642.642642642643 0.013164365542833657
3652.6526526526527 0.013085124824735847
3662.6626626626626 0.013006242403299832
3672.672672672673 0.012927719025985367
3682.6826826826828 0.012849555871477182
3692.6926926926926 0.01277175450414888
3702.7027027027025 0.012694316830555314
3712.712712712713 0.012617245057974827
3722.7227227227227 0.012540541655009344
3732.7327327327325 0.01246420931423849
3742.742742742743 0.012388250916914239
3752.7527527527527 0.01231266949967282
3762.7627627627626 0.012237468223233326
3772.772772772773 0.01216265034304552
3782.7827827827828 0.012088219181843468
3792.7927927927926 0.012014178104056679
3802.802802802803 0.01194053049202657
3812.812812812813 0.011867279723972191
3822.8228228228227 0.011794429153646839
3832.832832832833 0.011721982091624844
3842.842842842843 0.01164994178815621
3852.8528528528527 0.011578311417525609
3862.862862862863 0.011507094063851711
3872.872872872873 0.011436292708262307
3882.8828828828828 0.011365910217380823
3892.892892892893 0.011295949333060357
3902.902902902903 0.011226412663301452
3912.912912912913 0.011157302674291337
3922.922922922923 0.011088621683502857
3932.932932932933 0.01102037185379306
3942.942942942943 0.010952555188442192
3952.9529529529527 0.010885173527076004
3962.962962962963 0.01081822854241547
3972.972972972973 0.010751721737799865
3982.982982982983 0.010685654445430988
3992.992992992993 0.010620027825287988
4003.003003003003 0.010554842864664444
4013.013013013013 0.010490100378280806
4023.023023023023 0.010425801008927628
4033.033033033033 0.010361945228596731
4043.043043043043 0.010298533340059389
4053.053053053053 0.010235565478852578
4063.063063063063 0.01017304161563613
4073.073073073073 0.010110961558885549
4083.0830830830832 0.010049324957887094
4093.093093093093 0.009988131306003383
4103.103103103103 0.009927379944179655
4113.113113113113 0.009867070064662505
4123.123123123123 0.009807200714904353
4133.133133133133 0.009747770801628858
4143.143143143143 0.009688779095033713
4153.153153153153 0.009630224233108902
4163.163163163163 0.009572104726049852
4173.173173173173 0.009514418960746424
4183.183183183183 0.009457165205329857
4193.193193193193 0.009400341613761092
4203.203203203203 0.009343946230445193
4213.213213213214 0.009287976994857691
4223.223223223224 0.009232431746169648
4233.2332332332335 0.009177308227859551
4243.243243243243 0.009122604092300923
4253.253253253253 0.009068316905315545
4263.263263263263 0.009014444150683186
4273.273273273273 0.008960983234599375
4283.283283283283 0.008907931490073765
4293.293293293293 0.008855286181262259
4303.303303303303 0.008803044507726825
4313.313313313313 0.0087512036086176
4323.323323323323 0.008699760566772467
4333.333333333334 0.008648712412730006
4343.343343343344 0.008598056128652049
4353.353353353354 0.008547788652152838
4363.3633633633635 0.008497906880032019
4373.373373373373 0.008448407671909446
4383.383383383383 0.008399287853759796
4393.393393393393 0.008350544221345806
4403.403403403403 0.008302173543548976
4413.413413413413 0.008254172565597039
4423.423423423424 0.008206538012187858
4433.4334334334335 0.008159266590509596
4443.443443443443 0.008112354993157265
4453.453453453454 0.008065799900946071
4463.463463463464 0.0080195979856222
4473.473473473474 0.007973745912471615
4483.483483483484 0.00792824034282815
4493.493493493494 0.00788307793648171
4503.503503503503 0.007838255353988107
4513.513513513513 0.007793769258881732
4523.523523523523 0.0077496163197926715
4533.533533533533 0.00770579321246995
4543.543543543543 0.007662296621712435
4553.553553553554 0.007619123243209339
4563.563563563564 0.007576269785292149
4573.573573573573 0.0075337329705998015
4583.583583583584 0.00749150953765921
4593.593593593594 0.007449596242383035
4603.603603603604 0.007407989859486741
4613.613613613614 0.007366687183827122
4623.623623623624 0.0073256850316641715
4633.6336336336335 0.007284980241848561
4643.643643643643 0.007244569676936763
4653.653653653653 0.007204450224235876
4663.663663663663 0.007164618796780306
4673.673673673674 0.007125072334242364
4683.683683683684 0.007085807803778873
4693.693693693694 0.00704682220081579
4703.703703703704 0.007008112549772955
4713.713713713714 0.006969675904730949
4723.723723723724 0.006931509350042036
4733.733733733734 0.006893610000887191
4743.743743743744 0.0068559750037811545
4753.753753753754 0.0068186015370273675
4763.763763763764 0.006781486811124747
4773.773773773773 0.006744628069128028
4783.783783783783 0.006708022586963639
4793.793793793793 0.006671667673702723
4803.803803803804 0.006635560671793091
4813.813813813814 0.006599698957251898
4823.823823823824 0.006564079939820537
4833.833833833834 0.006528701063083481
4843.843843843844 0.006493559804552656
4853.853853853854 0.00645865367571879
4863.863863863864 0.0064239802220713745
4873.873873873874 0.006389537023088578
4883.883883883884 0.0063553216921986184
4893.893893893894 0.006321331876713946
4903.9039039039035 0.006287565257739587
4913.913913913913 0.006254019550056947
4923.923923923924 0.006220692501984355
4933.933933933934 0.006187581895215605
4943.943943943944 0.006154685544637601
4953.953953953955 0.006122001298128385
4963.9639639639645 0.006089527036336574
4973.973973973974 0.006057260672443322
4983.983983983984 0.006025200151907876
4993.993993993994 0.005993343452197714
5004.004004004004 0.005961688582504245
5014.014014014014 0.005930233583445056
5024.024024024024 0.005898976526753556
5034.0340340340335 0.0058679155149569855
5044.044044044043 0.005837048681043544
5054.054054054054 0.005806374188119544
5064.064064064064 0.00577589022905734
5074.074074074074 0.00574559502613476
5084.084084084085 0.00571548683066686
5094.0940940940945 0.005685563922630627
5104.104104104104 0.005655824610283331
5114.114114114114 0.005626267229775197
5124.124124124124 0.005596890144756982
5134.134134134134 0.005567691745983093
5144.144144144144 0.005538670450910785
5154.154154154154 0.005509824703296041
5164.1641641641645 0.00548115297278657
5174.174174174174 0.005452653754512541
5184.184184184184 0.0054243255686754295
5194.194194194194 0.005396166960135502
5204.204204204204 0.005368176497998371
5214.214214214214 0.005340352775200993
5224.224224224225 0.005312694408097567
5234.2342342342345 0.005285200036045692
5244.244244244244 0.005257868320993105
5254.254254254254 0.005230697947065427
5264.264264264264 0.005203687620155156
5274.274274274274 0.005176836067512286
5284.284284284285 0.005150142037336792
5294.294294294295 0.005123604298373301
5304.304304304304 0.00509722163950817
5314.314314314314 0.005070992869369262
5324.324324324324 0.00504491681592862
5334.334334334334 0.005018992326108274
5344.344344344345 0.004993218265389367
5354.354354354355 0.004967593517424849
5364.3643643643645 0.004942116983655825
5374.374374374374 0.004916787582931836
5384.384384384384 0.0048916042511351334
5394.394394394394 0.00486656594080916
5404.404404404404 0.0048416716207913355
5414.414414414415 0.00481692027585029
5424.424424424425 0.004792310906327665
5434.4344344344345 0.004767842527784553
5444.444444444444 0.004743514170652713
5454.454454454454 0.004719324879890652
5464.464464464464 0.00469527371464459
5474.474474474475 0.004671359747914472
5484.484484484485 0.0046475820662249985
5494.494494494495 0.004623939769301808
5504.504504504504 0.004600431969752804
5514.514514514514 0.004577057792754687
5524.524524524524 0.00455381637574476
5534.534534534535 0.004530706868117964
5544.544544544545 0.0045077284309292375
5554.554554554555 0.0044848802366011685
5564.5645645645645 0.004462161468636985
5574.574574574574 0.004439571321338862
5584.584584584584 0.00441710899953156
5594.594594594595 0.0043947737182913815
5604.604604604605 0.004372564702680484
5614.614614614615 0.004350481187486429
5624.624624624625 0.004328522416967083
5634.6346346346345 0.0043066876446007565
5644.644644644644 0.004284976132841581
5654.654654654654 0.004263387152880126
5664.664664664665 0.00424191998440916
5674.674674674675 0.004220573915394621
5684.684684684685 0.004199348241851628
5694.694694694695 0.0041782422676256235
5704.704704704704 0.004157255304178513
5714.714714714714 0.004136386670379809
5724.724724724725 0.004115635692302687
5734.734734734735 0.004095001703024963
5744.744744744745 0.004074484042434873
5754.754754754755 0.00405408205704165
5764.764764764765 0.004033795099790834
5774.774774774774 0.004013622529884253
5784.784784784785 0.003993563712604593
5794.794794794795 0.003973618019144543
5804.804804804805 0.003953784826440428
5814.814814814815 0.0039340635170102625
5824.824824824825 0.00391445347879618
5834.8348348348345 0.0038949541050111464
5844.844844844845 0.0038755647939899486
5854.854854854855 0.0038562849490443073
5864.864864864865 0.003837113978322122
5874.874874874875 0.0038180512946707594
5884.884884884885 0.003799096315504293
5894.894894894895 0.003780248462674664
5904.9049049049045 0.003761507162346664
5914.914914914915 0.003742871844876698
5924.924924924925 0.003724341944695243
5934.934934934935 0.0037059169001929133
5944.944944944945 0.0036875961536101402
5954.954954954955 0.0036693791509302886
5964.964964964965 0.0036512653417762344
5974.974974974975 0.003633254179310285
5984.984984984985 0.0036153451201373964
5994.994994994995 0.0035975376242115996
6005.005005005005 0.003579831154745589
6015.015015015015 0.003562225178123394
6025.025025025025 0.003544719163816079
6035.035035035035 0.0035273125843003745
6045.045045045045 0.0035100049149802207
6055.055055055055 0.0034927956341111108
6065.065065065065 0.003475684222727209
6075.075075075075 0.003458670164571143
6085.085085085085 0.0034417529460264384
6095.0950950950955 0.0034249320560525123
