#lamb flux
1000.0 1.279274286515654
1010.01001001001 1.309484017877481
1020.0200200200201 1.336521201691978
1030.03003003003 1.3604973973667709
1040.0400400400401 1.3815432675660793
1050.05005005005 1.3998037810192536
1060.06006006006 1.4154339711068675
1070.07007007007 1.4285952477324215
1080.08008008008 1.4394522425892395
1090.0900900900901 1.4481701558152982
1100.1001001001 1.4549125642426592
1110.11011011011 1.4598396471100887
1120.1201201201202 1.4631067834310958
1130.13013013013 1.464863475519026
1140.1401401401401 1.4652525549002624
1150.1501501501502 1.4644096295361855
1160.16016016016 1.4624627345589312
1170.1701701701702 1.4595321523231077
1180.1801801801803 1.4557303712736869
1190.1901901901902 1.4511621567753683
1200.2002002002002 1.445924710534335
1210.2102102102103 1.4401078984995006
1220.2202202202202 1.4337945301162074
1230.2302302302303 1.4270606745011785
1240.2402402402402 1.4199760015097467
1250.2502502502502 1.4125099399323284
1260.2602602602603 1.4044438537117803
1270.2702702702702 1.3953421082715354
1280.2802802802803 1.3852923936724775
1290.2902902902902 1.37437843315125
1300.3003003003003 1.3626798936566782
1310.3103103103103 1.3502723442470153
1320.3203203203202 1.3372272552250297
1330.3303303303303 1.3236120315772213
1340.3403403403404 1.3094900749469713
1350.3503503503503 1.2949208690015208
1360.3603603603603 1.279960083643773
1370.3703703703704 1.2646596940689887
1380.3803803803803 1.249068111171938
1390.3903903903904 1.2332303202718273
1400.4004004004005 1.2171880255411
1410.4104104104103 1.2009797979016328
1420.4204204204204 1.1846412244898372
1430.4304304304305 1.168205058093219
1440.4404404404404 1.1517013652276065
1450.4504504504505 1.1351576717591385
1460.4604604604606 1.1185991051810713
1470.4704704704704 1.10204853283496
1480.4804804804805 1.085526695521581
1490.4904904904906 1.0690523360813526
1500.5005005005005 1.0526423226393664
1510.5105105105106 1.0363117663086552
1520.5205205205207 1.0200741332288799
1530.5305305305305 1.0039413508881503
1540.5405405405404 0.9879239087348776
1550.5505505505505 0.9720309531359315
1560.5605605605606 0.9562703767783354
1570.5705705705705 0.9406489026456648
1580.5805805805805 0.9251721627283236
1590.5905905905906 0.9098447716501052
1600.6006006006005 0.8946703954129468
1610.6106106106106 0.8796518154784956
1620.6206206206207 0.8647909884199327
1630.6306306306305 0.8500891013914025
1640.6406406406406 0.8355466236761454
1650.6506506506507 0.82116335458907
1660.6606606606606 0.8069384680257112
1670.6706706706707 0.7928705539685192
1680.6806806806808 0.7789576572839262
1690.6906906906906 0.7651973141709666
1700.7007007007007 0.7515891752209712
1710.7107107107108 0.7381400211200086
1720.7207207207207 0.7248444330419305
1730.7307307307308 0.7116954596795623
1740.7407407407409 0.6986861061679921
1750.7507507507507 0.6858093422111751
1760.7607607607606 0.6730581136754523
1770.770770770771 0.6604253584330356
1780.7807807807808 0.6479040273714496
1790.7907907907907 0.635487111633048
1800.8008008008007 0.6231676773107392
1810.8108108108108 0.6109389089990667
1820.8208208208207 0.5987941637785159
1830.8308308308308 0.5867270373869194
1840.8408408408409 0.5747314444921415
1850.8508508508507 0.5628017151064701
1860.8608608608608 0.550932709249496
1870.870870870871 0.5391199519383684
1880.8808808808808 0.5273597904174755
1890.890890890891 0.5156495751779369
1900.900900900901 0.5039878656936886
1910.9109109109108 0.49237466083854453
1920.920920920921 0.48081165256546593
1930.930930930931 0.46930249954611364
1940.940940940941 0.4578531150227957
1950.950950950951 0.4464719600889023
1960.960960960961 0.4351703300224853
1970.970970970971 0.4239626172783234
1980.980980980981 0.4128665305506886
1990.9909909909911 0.40190324536085376
2001.001001001001 0.3910974584774328
2011.0110110110109 0.38047731687429953
2021.0210210210212 0.37007419269573616
2031.031031031031 0.35992227964066886
2041.0410410410411 0.3500579939237954
2051.051051051051 0.34051917476097265
2061.061061061061 0.33134409480916804
2071.071071071071 0.32257030908319556
2081.081081081081 0.31423338973493387
2091.091091091091 0.3063656112862677
2101.101101101101 0.2989946637853807
2111.1111111111113 0.292142477494982
2121.121121121121 0.2858242404962069
2131.131131131131 0.2800476795872187
2141.141141141141 0.2748126560413054
2151.151151151151 0.27011110339025984
2161.161161161161 0.26592730748079996
2171.1711711711714 0.2622385029403267
2181.1811811811813 0.2590157378783854
2191.191191191191 0.25622494234812226
2201.201201201201 0.2538281269726838
2211.2112112112113 0.25178463632912923
2221.221221221221 0.2500523864080716
2231.2312312312315 0.2485890253295283
2241.2412412412414 0.24735296975517165
2251.2512512512512 0.24630428429371035
2261.261261261261 0.24540538601284786
2271.271271271271 0.2446215696334038
2281.2812812812813 0.24392136018088978
2291.2912912912916 0.2432767083223989
2301.3013013013015 0.2426630492198543
2311.3113113113113 0.24205924868489573
2321.321321321321 0.24144746113056437
2331.331331331331 0.24081292279050592
2341.3413413413414 0.24014370144874245
2351.3513513513512 0.2394304209817306
2361.3613613613616 0.23866597576930237
2371.3713713713714 0.23784524679552244
2381.3813813813813 0.23696482825142867
2391.391391391391 0.23602277080024722
2401.4014014014015 0.2350183454339755
2411.4114114114113 0.2339518300488376
2421.4214214214217 0.23282431947205898
2431.4314314314315 0.23163755863915625
2441.4414414414414 0.2303937978951789
2451.4514514514512 0.22909566891878075
2461.4614614614616 0.22774607949119746
2471.4714714714714 0.22634812520560485
2481.4814814814818 0.22490501619536588
2491.4914914914916 0.2234200170191727
2501.5015015015015 0.2218963979507119
2511.5115115115113 0.2203373960600229
2521.521521521521 0.2187461846281476
2531.5315315315315 0.2171258495951749
2541.541541541542 0.21547937189693114
2551.5515515515517 0.2138096146924977
2561.5615615615616 0.21211931462054837
2571.5715715715714 0.21041107634571068
2581.5815815815813 0.20868736976626753
2591.5915915915916 0.20695052935175642
2601.6016016016015 0.20520275516400777
2611.611611611612 0.2034461151888207
2621.6216216216217 0.20168254866882612
2631.6316316316315 0.19991387018222515
2641.6416416416414 0.19814177425808907
2651.6516516516517 0.19636784035777147
2661.6616616616616 0.19459353808467272
2671.671671671672 0.19282023251194852
2681.6816816816818 0.19104918954055114
2691.6916916916916 0.1892815812188928
2701.7017017017015 0.1875184909710346
2711.711711711712 0.18576091869313135
2721.7217217217217 0.1840097856883547
2731.731731731732 0.1822659394190411
2741.741741741742 0.18053015806171868
2751.7517517517517 0.17880315485618842
2761.7617617617616 0.17708558224425583
2771.7717717717715 0.17537803579717196
2781.781781781782 0.17368105793356206
2791.791791791792 0.17199514143169406
2801.801801801802 0.17032073274150325
2811.811811811812 0.16865823510294217
2821.8218218218217 0.16700801147803074
2831.8318318318316 0.16537038730452067
2841.841841841842 0.16374565307940997
2851.851851851852 0.1621340667806919
2861.861861861862 0.16053585613573534
2871.871871871872 0.15895122074460596
2881.881881881882 0.15738033406646518
2891.8918918918916 0.1558233452769554
2901.901901901902 0.15428038100420577
2911.911911911912 0.15275154695079193
2921.921921921922 0.15123692940865846
2931.931931931932 0.14973659667368114
2941.941941941942 0.1482506003662075
2951.9519519519517 0.14677897666357612
2961.961961961962 0.14532174745028476
2971.971971971972 0.1438789213911496
2981.9819819819822 0.14245049493248552
2991.991991991992 0.1410364532360327
3002.002002002002 0.13963677105006375
3012.012012012012 0.13825141352182965
3022.0220220220217 0.13688033695523666
3032.032032032032 0.1359887506918936
3042.0420420420423 0.13458527206282703
3052.052052052052 0.13318046264885466
3062.062062062062 0.13177890494807887
3072.072072072072 0.1303844763217948
3082.0820820820823 0.12900042764611885
3092.092092092092 0.1276294553378254
3102.102102102102 0.1262737669712674
3112.1121121121123 0.12493514078319008
3122.122122122122 0.12361497941426237
3132.132132132132 0.1223143582664761
3142.1421421421423 0.12103406886932416
3152.152152152152 0.1197746576489982
3162.162162162162 0.11853646048710954
3172.1721721721724 0.11731963344126131
3182.1821821821823 0.1161241799812871
3192.192192192192 0.11494997507373395
3202.202202202202 0.11379678642444196
3212.2122122122123 0.11266429316578874
3222.222222222222 0.11155210225201334
3232.232232232232 0.11045976280350223
3242.2422422422424 0.10938677861934794
3252.252252252252 0.10833261905709794
3262.262262262262 0.10729672845953823
3272.2722722722724 0.10627853429065653
3282.2822822822823 0.10527745412662219
3292.292292292292 0.10429290163268327
3302.3023023023025 0.10332429164326155
3312.3123123123123 0.10237104445015956
3322.322322322322 0.10143258939261257
3332.3323323323325 0.10050836783281959
3342.3423423423424 0.09959783559151518
3352.352352352352 0.0987004649099845
3362.3623623623625 0.0978157459976236
3372.3723723723724 0.09694318821760589
3382.3823823823823 0.0960823209573684
3392.3923923923926 0.09523269422542302
3402.4024024024025 0.09439387901133255
3412.4124124124123 0.09356546744154835
3422.4224224224226 0.09274707276010472
3432.4324324324325 0.09193832915986998
3442.4424424424424 0.09113889148711879
3452.4524524524522 0.0903484348395747
3462.4624624624626 0.08956665407574275
3472.4724724724724 0.0887932632512757
3482.4824824824823 0.08802799499626626
3492.4924924924926 0.08727059984571038
3502.5025025025025 0.08652084553391226
3512.5125125125123 0.08577851626229231
3522.5225225225226 0.08504341194888608
3532.5325325325325 0.08431534746677527
3542.5425425425424 0.08359415187776084
3552.5525525525527 0.08287966766675027
3562.5625625625626 0.08217174998158737
3572.5725725725724 0.08147026588238562
3582.5825825825827 0.08077509360383217
3592.5925925925926 0.08008612183339499
3602.6026026026025 0.07940324900789361
3612.612612612613 0.07872638263046802
3622.6226226226227 0.07805543860960218
3632.6326326326325 0.07739034062152321
3642.642642642643 0.07673101949699615
3652.6526526526527 0.07607741263326902
3662.6626626626626 0.07542946343168541
3672.672672672673 0.07478712076127639
3682.6826826826828 0.0741503384484563
3692.6926926926926 0.07351907479278764
3702.7027027027025 0.07289329210863794
3712.712712712713 0.07227295629242989
3722.7227227227227 0.07165803641507892
3732.7327327327325 0.07104850433912023
3742.742742742743 0.07044433435995295
3752.7527527527527 0.0698455028705596
3762.7627627627626 0.06925198804900841
3772.772772772773 0.06866376956800012
3782.7827827827828 0.06808082832568667
3792.7927927927926 0.06750314619696163
3802.802802802803 0.06693070580440334
3812.812812812813 0.06636349030803881
3822.8228228228227 0.06580148321308789
3832.832832832833 0.06524466819484788
3842.842842842843 0.06469302893987804
3852.8528528528527 0.06414654900265357
3862.862862862863 0.06360521167686577
3872.872872872873 0.06306899988056124
3882.8828828828828 0.06253789605432593
3892.892892892893 0.06201188207174197
3902.902902902903 0.06149093916136118
3912.912912912913 0.06097504783946437
3922.922922922923 0.06046418785289656
3932.932932932933 0.05995833813129445
3942.942942942943 0.05945747674804429
3952.9529529529527 0.058961580889337714
3962.962962962963 0.05847062683071615
3972.972972972973 0.05798458992052161
3982.982982982983 0.057503444569698275
3992.992992992993 0.057027164247414365
4003.003003003003 0.05655572148200165
4013.013013013013 0.056089087866732446
4023.023023023023 0.05562723406998274
4033.033033033033 0.0551701298493522
4043.043043043043 0.054717744069336736
4053.053053053053 0.05427004472217369
4063.063063063063 0.05382699895150093
4073.073073073073 0.05338857307849485
4083.0830830830832 0.05295473263017274
4093.093093093093 0.05252544236956588
4103.103103103103 0.052100666327489595
4113.113113113113 0.0516803678356561
4123.123123123123 0.051264509560892346
4133.133133133133 0.05085305354024546
4143.143143143143 0.05044596121677255
4153.153153153153 0.05004319347582834
4163.163163163163 0.04964471068167953
4173.173173173173 0.049250472714288604
4183.183183183183 0.04886043900612354
4193.193193193193 0.04847456857886244
4203.203203203203 0.048092820079874594
4213.213213213214 0.0477151518183708
4223.223223223224 0.04734152180112565
4233.2332332332335 0.046971887767686016
4243.243243243243 0.04660620722498774
4253.253253253253 0.04624443748131318
4263.263263263263 0.045886535679528426
4273.273273273273 0.04553245882954844
4283.283283283283 0.045182163839984545
4293.293293293293 0.044835607548935646
4303.303303303303 0.04449274675389049
4313.313313313313 0.044153538240714454
4323.323323323323 0.043817938811698515
4333.333333333334 0.04348590531265467
4343.343343343344 0.043157394659044425
4353.353353353354 0.042832363861132774
4363.3633633633635 0.04251077004816261
4373.373373373373 0.04219257049154888
4383.383383383383 0.0418777226270939
4393.393393393393 0.041566184076228876
4403.403403403403 0.041257912666288726
4413.413413413413 0.04095286644982939
4423.423423423424 0.0406510037229998
4433.4334334334335 0.04035228304298104
4443.443443443443 0.04005666324450805
4453.453453453454 0.039764103455490106
4463.463463463464 0.039474563111747664
4473.473473473474 0.03918800197088355
4483.483483483484 0.03890438012530909
4493.493493493494 0.038623658014444354
4503.503503503503 0.03834579643611406
4513.513513513513 0.03807075655716038
4523.523523523523 0.037798499923294
4533.533533533533 0.037528988468206716
4543.543543543543 0.037262184521966384
4553.553553553554 0.03699805081871778
4563.563563563564 0.03673655050371166
4573.573573573573 0.03647764713968395
4583.583583583584 0.03622130471260839
4593.593593593594 0.03596748763684418
4603.603603603604 0.03571616075970082
4613.613613613614 0.03546728936544264
4623.623623623624 0.0352208391787536
4633.6336336336335 0.03497677636768453
4643.643643643643 0.034735067546103365
4653.653653653653 0.0344956797756689
4663.663663663663 0.03425858056734849
4673.673673673674 0.03402373788249925
4683.683683683684 0.033791120133532575
4693.693693693694 0.03356069618418014
4703.703703703704 0.03333243534938065
4713.713713713714 0.03310630739480503
4723.723723723724 0.032882282536037456
4733.733733733734 0.032660331437429496
4743.743743743744 0.03244042521064422
4753.753753753754 0.032222535412905776
4763.763763763764 0.03200663404497085
4773.773773773773 0.03179269354883647
4783.783783783783 0.031580686805199695
4793.793793793793 0.03137058713068248
4803.803803803804 0.031162368274836382
4813.813813813814 0.030956004416939957
4823.823823823824 0.030751470162601796
4833.833833833834 0.03054874054018169
4843.843843843844 0.030347790997042004
4853.853853853854 0.030148597395640575
4863.863863863864 0.029951136009476586
4873.873873873874 0.029755383518899847
4883.883883883884 0.029561317006794124
4893.893893893894 0.029368913954144125
4903.9039039039035 0.029178152235495938
4913.913913913913 0.028989010114319938
4923.923923923924 0.028801466238285004
4933.933933933934 0.028615499634452642
4943.943943943944 0.02843108970439871
4953.953953953955 0.028248216219270945
4963.9639639639645 0.028066859314789503
4973.973973973974 0.02788699948619753
4983.983983983984 0.027708617583168726
4993.993993993994 0.027531694804678403
5004.004004004004 0.02735621269384397
5014.014014014014 0.027182153132741173
5024.024024024024 0.027009498337201267
5034.0340340340335 0.02683823085159501
5044.044044044043 0.026668333543608074
5054.054054054054 0.026499789599013154
5064.064064064064 0.026332582516443208
5074.074074074074 0.026166696102170192
5084.084084084085 0.02600211446489361
5094.0940940940945 0.025838822010542772
5104.104104104104 0.025676803437096413
5114.114114114114 0.025516043729423343
5124.124124124124 0.025356528154147483
5134.134134134134 0.025198242254540294
5144.144144144144 0.025041171845443824
5154.154154154154 0.02488530300822693
5164.1641641641645 0.02473062208577749
5174.174174174174 0.024577115677533082
5184.184184184184 0.024424770634552274
5194.194194194194 0.024273574054628908
5204.204204204204 0.024123513277451415
5214.214214214214 0.02397457587980877
5224.224224224225 0.02382674967084521
5234.2342342342345 0.02368002268736514
5244.244244244244 0.02353438318918971
5254.254254254254 0.023389819654566647
5264.264264264264 0.02324632077563436
5274.274274274274 0.02310387545394179
5284.284284284285 0.022962472796024744
5294.294294294295 0.02282210210904
5304.304304304304 0.02268275289645772
5314.314314314314 0.022544414853813366
5324.324324324324 0.022407077864519308
5334.334334334334 0.022270731995737276
5344.344344344345 0.02213536749431162
5354.354354354355 0.022000974782764457
5364.3643643643645 0.02186754445535239
5374.374374374374 0.02173506727418576
5384.384384384384 0.021603534165410197
5394.394394394394 0.02147293621545091
5404.404404404404 0.021343264667319697
5414.414414414415 0.021214510916984862
5424.424424424425 0.02108666650980391
5434.4344344344345 0.020959723137019062
5444.444444444444 0.02083367263231536
5454.454454454454 0.02070850696844156
5464.464464464464 0.02058421825389309
5474.474474474475 0.020460798729657337
5484.484484484485 0.02033824076602069
5494.494494494495 0.020216536859437112
5504.504504504504 0.020095679629457967
5514.514514514514 0.019975661815722533
5524.524524524524 0.01985647627500907
5534.534534534535 0.01973811597834564
5544.544544544545 0.019620574008180576
5554.554554554555 0.019503843555611772
5564.5645645645645 0.019387917917674476
5574.574574574574 0.019272790494687025
5584.584584584584 0.01915845478765381
5594.594594594595 0.01904490439572496
5604.604604604605 0.018932133013712334
5614.614614614615 0.018820134429660653
5624.624624624625 0.018708902522473828
5634.6346346346345 0.018598431259595236
5644.644644644644 0.018488714694741587
5654.654654654654 0.018379746965689638
5664.664664664665 0.018271522292114845
5674.674674674675 0.018164034973481784
5684.684684684685 0.01805727938698484
5694.694694694695 0.017951249985539153
5704.704704704704 0.017845941295820705
5714.714714714714 0.01774134791635484
5724.724724724725 0.017637464515652637
5734.734734734735 0.017534285830394163
5744.744744744745 0.017431806663658067
5754.754754754755 0.017330021883196524
5764.764764764765 0.017228926419755024
5774.774774774774 0.017128515265436055
5784.784784784785 0.01702878347210599
5794.794794794795 0.01692972614984438
5804.804804804805 0.016831338465434956
5814.814814814815 0.0167336156408975
5824.824824824825 0.01663655295205991
5834.8348348348345 0.016540145727169546
5844.844844844845 0.016444389345543396
5854.854854854855 0.01634927923625592
5864.864864864865 0.016254810876864135
5874.874874874875 0.01616097979216908
5884.884884884885 0.016067781553012923
5894.894894894895 0.015975211775110937
5904.9049049049045 0.015883266117917735
5914.914914914915 0.015791940283526852
5924.924924924925 0.015701230015603265
5934.934934934935 0.015611131098347617
5944.944944944945 0.015521639355492138
5954.954954954955 0.015432750649326903
5964.964964964965 0.015344460879756123
5974.974974974975 0.015256765983383722
5984.984984984985 0.015169661932627426
5994.994994994995 0.015083144734860755
6005.005005005005 0.014997210431582282
6015.015015015015 0.014911855097611445
6025.025025025025 0.014827074840310359
6035.035035035035 0.014742865798830853
6045.045045045045 0.014659224143386279
6055.055055055055 0.014576146074547264
6065.065065065065 0.01449362782256102
6075.075075075075 0.014411665646693463
6085.085085085085 0.014330255834593537
6095.0950950950955 0.014249394701679314
6105.105105105105 0.014169078590545128
6115.115115115115 0.014089303870389213
6125.125125125125 0.014010066936461393
6135.135135135135 0.013931364209530197
6145.145145145145 0.01385319213536879
6155.155155155155 0.013775547184259397
6165.1651651651655 0.013698425850515455
6175.175175175175 0.013621824652021221
6185.185185185185 0.013545740129788124
6195.195195195195 0.013470168847527567
6205.205205205205 0.013395107391239508
6215.215215215215 0.01332055236881651
