#lamb flux
1000.0 1.0313919843403138e+39
1010.01001001001 1.1197634134020991e+39
1020.0200200200201 1.2126906912819275e+39
1030.03003003003 1.3102119041647832e+39
1040.0400400400401 1.412357405008426e+39
1050.05005005005 1.5191499690317168e+39
1060.06006006006 1.6306049684512157e+39
1070.07007007007 1.746730563695754e+39
1080.08008008008 1.8675279085505e+39
1090.0900900900901 1.9929913668967348e+39
1100.1001001001 2.1231087389205698e+39
1110.11011011011 2.2578614948601982e+39
1120.1201201201202 2.397225014547298e+39
1130.13013013013 2.541168831172181e+39
1140.1401401401401 2.6896568778649445e+39
1150.1501501501502 2.842647735835312e+39
1160.16016016016 3.000094882953112e+39
1170.1701701701702 3.1619469417791587e+39
1180.1801801801803 3.328147926173441e+39
1190.1901901901902 3.498637485714329e+39
1200.2002002002002 3.6733511472600414e+39
1210.2102102102103 3.852220553071516e+39
1220.2202202202202 4.035173694996106e+39
1230.2302302302303 4.222135144283317e+39
1240.2402402402402 4.413026276668853e+39
1250.2502502502502 4.607707173482324e+39
1260.2602602602603 4.805905322691211e+39
1270.2702702702702 5.00716627211143e+39
1280.2802802802803 5.211344139706147e+39
1290.2902902902902 5.4182909954525616e+39
1300.3003003003003 5.627857213711674e+39
1310.3103103103103 5.839891810912405e+39
1320.3203203203202 6.05424276815313e+39
1330.3303303303303 6.27075733841966e+39
1340.3403403403404 6.4892823382045e+39
1350.3503503503503 6.709664423389979e+39
1360.3603603603603 6.931750349326546e+39
1370.3703703703704 7.155387215097639e+39
1380.3803803803803 7.380422692016054e+39
1390.3903903903904 7.606705236441895e+39
1400.4004004004005 7.83408428705066e+39
1410.4104104104103 8.062410446712542e+39
1420.4204204204204 8.291535649169634e+39
1430.4304304304305 8.521313310717818e+39
1440.4404404404404 8.751598467115249e+39
1450.4504504504505 8.982247895948605e+39
1460.4604604604606 9.2131202246935e+39
1470.4704704704704 9.444076024705722e+39
1480.4804804804805 9.674977891376517e+39
1490.4904904904906 9.905690510677766e+39
1500.5005005005005 1.0136080712311585e+40
1510.5105105105106 1.036601750966569e+40
1520.5205205205207 1.0595372126757933e+40
1530.5305305305305 1.0824018012335436e+40
1540.5405405405404 1.1051830841271337e+40
1550.5505505505505 1.1278688503380745e+40
1560.5605605605606 1.1504471079753029e+40
1570.5705705705705 1.1729060806675037e+40
1580.5805805805805 1.1952342027196655e+40
1590.5905905905906 1.2174201130369828e+40
1600.6006006006005 1.2394526478174885e+40
1610.6106106106106 1.261320832013638e+40
1620.6206206206207 1.2830138695625777e+40
1630.6306306306305 1.3045211323854497e+40
1640.6406406406406 1.3258321481580145e+40
1650.6506506506507 1.346936586858601e+40
1660.6606606606606 1.3678242461055566e+40
1670.6706706706707 1.388485035305422e+40
1680.6806806806808 1.4089089586460563e+40
1690.6906906906906 1.429086096986794e+40
1700.7007007007007 1.4490075359112964e+40
1710.7107107107108 1.4686673790995816e+40
1720.7207207207207 1.488055645312539e+40
1730.7307307307308 1.5071618267292706e+40
1740.7407407407409 1.5259753949522678e+40
1750.7507507507507 1.5444857810856196e+40
1760.7607607607606 1.5626823562341e+40
1770.770770770771 1.5805544130232147e+40
1780.7807807807808 1.598091148904952e+40
1790.7907907907907 1.6152816522155647e+40
1800.8008008008007 1.6321148921960832e+40
1810.8108108108108 1.6485797144799794e+40
1820.8208208208207 1.6646648439014396e+40
1830.8308308308308 1.6803588968873502e+40
1840.8408408408409 1.6956504061694778e+40
1850.8508508508507 1.7105278610901818e+40
1860.8608608608608 1.7249797673689734e+40
1870.870870870871 1.738994730833599e+40
1880.8808808808808 1.7525615702700713e+40
1890.890890890891 1.7656694651659809e+40
1900.900900900901 1.7783081446412262e+40
1910.9109109109108 1.7904681241807947e+40
1920.920920920921 1.8021409967693838e+40
1930.930930930931 1.8133197844998978e+40
1940.940940940941 1.8239993554661833e+40
1950.950950950951 1.8341769084957547e+40
1960.960960960961 1.843852524749943e+40
1970.970970970971 1.853029780145701e+40
1980.980980980981 1.861716405727151e+40
1990.9909909909911 1.8699249744668485e+40
2001.001001001001 1.8776735826775456e+40
2011.0110110110109 1.884986482788965e+40
2021.0210210210212 1.8918946126784213e+40
2031.031031031031 1.8984359565594482e+40
2041.0410410410411 1.9046556656674566e+40
2051.051051051051 1.9106058660418495e+40
2061.061061061061 1.9163450880313192e+40
2071.071071071071 1.9219372697074811e+40
2081.081081081081 1.9274503149981843e+40
2091.091091091091 1.9329542261053945e+40
2101.101101101101 1.938518875481727e+40
2111.1111111111113 1.9442115298737166e+40
2121.121121121121 1.9500942805791583e+40
2131.131131131131 1.956221562501558e+40
2141.141141141141 1.9626379533535686e+40
2151.151151151151 1.9693764298186118e+40
2161.161161161161 1.976457220001151e+40
2171.1711711711714 1.9838873357659415e+40
2181.1811811811813 1.9916608027775042e+40
2191.191191191191 1.9997595401784444e+40
2201.201201201201 2.0081547854915882e+40
2211.2112112112113 2.0168089207580968e+40
2221.221221221221 2.0256775368079489e+40
2231.2312312312315 2.0347115737242814e+40
2241.2412412412414 2.0438593936204344e+40
2251.2512512512512 2.0530686714217608e+40
2261.261261261261 2.0622880244528595e+40
2271.271271271271 2.0714683368689044e+40
2281.2812812812813 2.0805637662616387e+40
2291.2912912912916 2.089532444660564e+40
2301.3013013013015 2.098336903706788e+40
2311.3113113113113 2.10694426426158e+40
2321.321321321321 2.1153262351533097e+40
2331.331331331331 2.1234589655632797e+40
2341.3413413413414 2.131322792156834e+40
2351.3513513513512 2.1389019167851435e+40
2361.3613613613616 2.1461840444649167e+40
2371.3713713713714 2.1531600051536084e+40
2381.3813813813813 2.1598233770783048e+40
2391.391391391391 2.166170124331263e+40
2401.4014014014015 2.172198257233602e+40
2411.4114114114113 2.1779075205980365e+40
2421.4214214214217 2.183299112428799e+40
2431.4314314314315 2.188375433682232e+40
2441.4414414414414 2.1931398683616774e+40
2451.4514514514512 2.1975965923227957e+40
2461.4614614614616 2.201750408618234e+40
2471.4714714714714 2.2056066069252993e+40
2481.4814814814818 2.2091708445043267e+40
2491.4914914914916 2.2124490461703293e+40
2501.5015015015015 2.215447320881641e+40
2511.5115115115113 2.2181718927223913e+40
2521.521521521521 2.2206290442562934e+40
2531.5315315315315 2.22282507043995e+40
2541.541541541542 2.2247662414924593e+40
2551.5515515515517 2.2264587733173126e+40
2561.5615615615616 2.227908804257261e+40
2571.5715715715714 2.2291223771312817e+40
2581.5815815815813 2.230105425653251e+40
2591.5915915915916 2.2308637644655276e+40
2601.6016016016015 2.231403082137433e+40
2611.611611611612 2.23172893658021e+40
2621.6216216216217 2.2318467524177225e+40
2631.6316316316315 2.231761819927307e+40
2641.6416416416414 2.231479295229424e+40
2651.6516516516517 2.2310042014592766e+40
2661.6616616616616 2.2303414306997005e+40
2671.671671671672 2.22949574649362e+40
2681.6816816816818 2.2284717867870383e+40
2691.6916916916916 2.2272740671809805e+40
2701.7017017017015 2.2259069843937375e+40
2711.711711711712 2.224374819853834e+40
2721.7217217217217 2.222681743360008e+40
2731.731731731732 2.22083181675767e+40
2741.741741741742 2.2188289975921174e+40
2751.7517517517517 2.2166771427077425e+40
2761.7617617617616 2.2143800117698447e+40
2771.7717717717715 2.2119412706915544e+40
2781.781781781782 2.2093644949533453e+40
2791.791791791792 2.206653172806537e+40
2801.801801801802 2.2038107083553057e+40
2811.811811811812 2.2008404245143753e+40
2821.8218218218217 2.1977455658414507e+40
2831.8318318318316 2.1945293012451343e+40
2841.841841841842 2.191194726570215e+40
2851.851851851852 2.187744867063223e+40
2861.861861861862 2.184182679721737e+40
2871.871871871872 2.1805110555315446e+40
2881.881881881882 2.176732821595999e+40
2891.8918918918916 2.1728507431622014e+40
2901.901901901902 2.1688675255487014e+40
2911.911911911912 2.164785815979478e+40
2921.921921921922 2.1606082053289258e+40
2931.931931931932 2.1563372297825139e+40
2941.941941941942 2.1519753724176128e+40
2951.9519519519517 2.14752506470892e+40
2961.961961961962 2.1429886879627442e+40
2971.971971971972 2.1383685746841528e+40
2981.9819819819822 2.1336670098809437e+40
2991.991991991992 2.1288862323080783e+40
3002.002002002002 2.1240284356561487e+40
3012.012012012012 2.1190957696871587e+40
3022.0220220220217 2.1140903413208016e+40
3032.032032032032 2.1103865046772332e+40
3042.0420420420423 2.1050715747667712e+40
3052.052052052052 2.0996410280115879e+40
3062.062062062062 2.0941097441161945e+40
3072.072072072072 2.088490868177555e+40
3082.0820820820823 2.0827959773300257e+40
3092.092092092092 2.0770352341619738e+40
3102.102102102102 2.0712175276937535e+40
3112.1121121121123 2.06535060270082e+40
3122.122122122122 2.0594411781501047e+40
3132.132132132132 2.0534950554948036e+40
3142.1421421421423 2.0475172175446224e+40
3152.152152152152 2.0415119185966856e+40
3162.162162162162 2.0354827664782505e+40
3172.1721721721724 2.0294327971168943e+40
3182.1821821821823 2.0233645422180676e+40
3192.192192192192 2.017280090594105e+40
3202.202202202202 2.0111811436537535e+40
3212.2122122122123 2.0050690655272338e+40
3222.222222222222 1.9989449282689142e+40
3232.232232232232 1.992809552548451e+40
3242.2422422422424 1.9866635442112438e+40
3252.252252252252 1.9805073270609585e+40
3262.262262262262 1.9743411721901856e+40
3272.2722722722724 1.9681652241604079e+40
3282.2822822822823 1.9619795243090599e+40
3292.292292292292 1.9557840314396635e+40
3302.3023023023025 1.9495786401307557e+40
3312.3123123123123 1.9433631968804044e+40
3322.322322322322 1.937137514285672e+40
3332.3323323323325 1.930901383440072e+40
3342.3423423423424 1.9246545847171686e+40
3352.352352352352 1.9183968970944583e+40
3362.3623623623625 1.9121281061589967e+40
3372.3723723723724 1.905848010924284e+40
3382.3823823823823 1.8995564295770718e+40
3392.3923923923926 1.8932532042627116e+40
3402.4024024024025 1.8869382050083678e+40
3412.4124124124123 1.8806113328748804e+40
3422.4224224224226 1.8742725224202547e+40
3432.4324324324325 1.867921743550493e+40
3442.4424424424424 1.861559002826825e+40
3452.4524524524522 1.8551843442923057e+40
3462.4624624624626 1.8487978498751144e+40
3472.4724724724724 1.8423996394207107e+40
3482.4824824824823 1.8359898704002434e+40
3492.4924924924926 1.8295687373382708e+40
3502.5025025025025 1.8231364709988078e+40
3512.5125125125123 1.8166933373650389e+40
3522.5225225225226 1.810239636444649e+40
3532.5325325325325 1.8037757009296298e+40
3542.5425425425424 1.7973018947365475e+40
3552.5525525525527 1.7908186114506542e+40
3562.5625625625626 1.784326272694834e+40
3572.5725725725724 1.777825326442144e+40
3582.5825825825827 1.7713162452887519e+40
3592.5925925925926 1.7647995247021682e+40
3602.6026026026025 1.7582756812580308e+40
3612.612612612613 1.7517452508771448e+40
3622.6226226226227 1.745208787073044e+40
3632.6326326326325 1.73866685921911e+40
3642.642642642643 1.7321200508430752e+40
3652.6526526526527 1.725568957955675e+40
3662.6626626626626 1.7190141874192358e+40
3672.672672672673 1.712456355361168e+40
3682.6826826826828 1.7058960856364202e+40
3692.6926926926926 1.699334008342342e+40
3702.7027027027025 1.6927707583886728e+40
3712.712712712713 1.6862069741248274e+40
3722.7227227227227 1.6796432960261048e+40
3732.7327327327325 1.673080365439953e+40
3742.742742742743 1.6665188233930456e+40
3752.7527527527527 1.6599593094594845e+40
3762.7627627627626 1.653402460690163e+40
3772.772772772773 1.6468489106029854e+40
3782.7827827827828 1.640299288233396e+40
3792.7927927927926 1.633754217244427e+40
3802.802802802803 1.6272143150952963e+40
3812.812812812813 1.6206801922673828e+40
3822.8228228228227 1.6141524515462674e+40
3832.832832832833 1.6076316873584382e+40
3842.842842842843 1.6011184851610806e+40
3852.8528528528527 1.5946134208833553e+40
3862.862862862863 1.5881170604174547e+40
3872.872872872873 1.5816299591576956e+40
3882.8828828828828 1.5751526615858351e+40
3892.892892892893 1.5686857009008342e+40
3902.902902902903 1.5622295986911717e+40
3912.912912912913 1.5557848646479083e+40
3922.922922922923 1.5493519963166386e+40
3932.932932932933 1.5429314788864972e+40
3942.942942942943 1.5365237850143964e+40
3952.9529529529527 1.530129374682709e+40
3962.962962962963 1.5237486950886175e+40
3972.972972972973 1.5173821805633934e+40
3982.982982982983 1.5110302525199206e+40
3992.992992992993 1.5046933194267703e+40
4003.003003003003 1.4983717768072499e+40
4013.013013013013 1.4920660072618218e+40
4023.023023023023 1.4857763805123834e+40
4033.033033033033 1.479503253466913e+40
4043.043043043043 1.4732469703030806e+40
4053.053053053053 1.4670078625694175e+40
4063.063063063063 1.460786249302736e+40
4073.073073073073 1.454582437160521e+40
4083.0830830830832 1.4483967205670615e+40
4093.093093093093 1.4422293818721668e+40
4103.103103103103 1.436080691521315e+40
4113.113113113113 1.4299509082362056e+40
4123.123123123123 1.423840279204646e+40
4133.133133133133 1.4177490402788342e+40
4143.143143143143 1.411677416181098e+40
4153.153153153153 1.4056256207162118e+40
4163.163163163163 1.3995938569894555e+40
4173.173173173173 1.3935823176296395e+40
4183.183183183183 1.3875911850163295e+40
4193.193193193193 1.3816206315105876e+40
4203.203203203203 1.3756708196885533e+40
4213.213213213214 1.369741902577254e+40
4223.223223223224 1.3638340238920455e+40
4233.2332332332335 1.3579473182751456e+40
4243.243243243243 1.3520819115347417e+40
4253.253253253253 1.346237920884193e+40
4263.263263263263 1.3404154551808948e+40
4273.273273273273 1.334614615164362e+40
4283.283283283283 1.3288354936931774e+40
4293.293293293293 1.3230781759804329e+40
4303.303303303303 1.3173427398273331e+40
4313.313313313313 1.3116292558546705e+40
4323.323323323323 1.3059377877318782e+40
4333.333333333334 1.3002683924034288e+40
4343.343343343344 1.29462112031233e+40
4353.353353353354 1.288996015620514e+40
4363.3633633633635 1.283393116425931e+40
4373.373373373373 1.2778124549761893e+40
4383.383383383383 1.272254057878559e+40
4393.393393393393 1.2667179463062475e+40
4403.403403403403 1.2612041362007975e+40
4413.413413413413 1.2557126384705119e+40
4423.423423423424 1.2502434591848308e+40
4433.4334334334335 1.2447965997645736e+40
4443.443443443443 1.2393720571679835e+40
4453.453453453454 1.2339698240725359e+40
4463.463463463464 1.2285898890524724e+40
4473.473473473474 1.2232322367520095e+40
4483.483483483484 1.2178968480542445e+40
4493.493493493494 1.2125837002457065e+40
4503.503503503503 1.207292767176592e+40
4513.513513513513 1.202024019416666e+40
4523.523523523523 1.1967774244068447e+40
4533.533533533533 1.1915529466065107e+40
4543.543543543543 1.1863505476365427e+40
4553.553553553554 1.181170186418136e+40
4563.563563563564 1.1760118193074297e+40
4573.573573573573 1.1708754002259856e+40
4583.583583583584 1.1657608807871792e+40
4593.593593593594 1.1606682104185452e+40
4603.603603603604 1.1555973364801271e+40
4613.613613613614 1.150548204378917e+40
4623.623623623624 1.145520757679408e+40
4633.6336336336335 1.1405149382103592e+40
4643.643643643643 1.135530686167825e+40
4653.653653653653 1.130567940214511e+40
4663.663663663663 1.1256266375755407e+40
4673.673673673674 1.1207067141306972e+40
4683.683683683684 1.1158081045032166e+40
4693.693693693694 1.1109307421452024e+40
4703.703703703704 1.1060745594197425e+40
4713.713713713714 1.101239487679803e+40
4723.723723723724 1.0964254573439663e+40
4733.733733733734 1.091632397969105e+40
4743.743743743744 1.0868602383200587e+40
4753.753753753754 1.0821089064363846e+40
4763.763763763764 1.0773783296962822e+40
4773.773773773773 1.0726684348777285e+40
4783.783783783783 1.0679791482169454e+40
4793.793793793793 1.0633103954642387e+40
4803.803803803804 1.0586621019372949e+40
4813.813813813814 1.0540341925720237e+40
4823.823823823824 1.0494265919709933e+40
4833.833833833834 1.0448392244495521e+40
4843.843843843844 1.040272014079701e+40
4853.853853853854 1.0357248847317811e+40
4863.863863863864 1.0311977601140585e+40
4873.873873873874 1.0266905638102619e+40
4883.883883883884 1.0222032193151523e+40
4893.893893893894 1.0177356500681772e+40
4903.9039039039035 1.013287779485292e+40
4913.913913913913 1.0088595309889922e+40
4923.923923923924 1.0044508280366366e+40
4933.933933933934 1.0000615941471133e+40
4943.943943943944 9.956917529259074e+39
4953.953953953955 9.913412280886381e+39
4963.9639639639645 9.870099434831125e+39
4973.973973973974 9.826978231099592e+39
4983.983983983984 9.784047911418941e+39
4993.993993993994 9.741307719416689e+39
5004.004004004004 9.698756900787612e+39
5014.014014014014 9.656394703448553e+39
5024.024024024024 9.61422037768152e+39
5034.0340340340335 9.572233176265797e+39
5044.044044044043 9.530432354599257e+39
5054.054054054054 9.488817170809569e+39
5064.064064064064 9.44738688585563e+39
5074.074074074074 9.406140763619623e+39
5084.084084084085 9.365078070990221e+39
5094.0940940940945 9.324198077937306e+39
5104.104104104104 9.283500057578541e+39
5114.114114114114 9.242983286238271e+39
5124.124124124124 9.202647043499051e+39
5134.134134134134 9.162490612246213e+39
5144.144144144144 9.122513278705797e+39
5154.154154154154 9.082714332476187e+39
5164.1641641641645 9.04309306655376e+39
5174.174174174174 9.003648777352928e+39
5184.184184184184 8.964380764720801e+39
5194.194194194194 8.925288331946796e+39
5204.204204204204 8.886370785767519e+39
5214.214214214214 8.847627436367133e+39
5224.224224224225 8.809057597373492e+39
5234.2342342342345 8.770660585850341e+39
5244.244244244244 8.73243572228577e+39
5254.254254254254 8.694382330577197e+39
5264.264264264264 8.656499738013065e+39
5274.274274274274 8.61878727525159e+39
5284.284284284285 8.581244276296574e+39
5294.294294294295 8.543870078470685e+39
5304.304304304304 8.506664022386266e+39
5314.314314314314 8.469625451913939e+39
5324.324324324324 8.43275371414912e+39
5334.334334334334 8.396048159376671e+39
5344.344344344345 8.35950814103383e+39
5354.354354354355 8.323133015671567e+39
5364.3643643643645 8.286922142914523e+39
5374.374374374374 8.250874885419748e+39
5384.384384384384 8.214990608834188e+39
5394.394394394394 8.179268681751322e+39
5404.404404404404 8.143708475666777e+39
5414.414414414415 8.10830936493333e+39
5424.424424424425 8.073070726715179e+39
5434.4344344344345 8.037991940941736e+39
5444.444444444444 8.003072390260958e+39
5454.454454454454 7.96831145999239e+39
5464.464464464464 7.933708538079948e+39
5474.474474474475 7.899263015044561e+39
5484.484484484485 7.864974283936772e+39
5494.494494494495 7.830841740289302e+39
5504.504504504504 7.79686478206979e+39
5514.514514514514 7.763042809633602e+39
5524.524524524524 7.729375225676943e+39
5534.534534534535 7.695861435190215e+39
5544.544544544545 7.662500845411759e+39
5554.554554554555 7.62929286578196e+39
5564.5645645645645 7.596236907897836e+39
5574.574574574574 7.56333238546813e+39
5584.584584584584 7.53057871426895e+39
5594.594594594595 7.497975312099958e+39
5604.604604604605 7.465521598741293e+39
5614.614614614615 7.433216995911003e+39
5624.624624624625 7.401060927223318e+39
5634.6346346346345 7.369052818147574e+39
5644.644644644644 7.337192095967911e+39
5654.654654654654 7.305478189743751e+39
5664.664664664665 7.273910530271046e+39
5674.674674674675 7.242488550044436e+39
5684.684684684685 7.211211683220163e+39
5694.694694694695 7.180079365579847e+39
5704.704704704704 7.149091034495212e+39
5714.714714714714 7.118246128893601e+39
5724.724724724725 7.087544089224467e+39
5734.734734734735 7.056984357426702e+39
5744.744744744745 7.026566376896923e+39
5754.754754754755 6.996289592458648e+39
5764.764764764765 6.966153450332424e+39
5774.774774774774 6.936157398106854e+39
5784.784784784785 6.90630088471054e+39
5794.794794794795 6.876583360384995e+39
5804.804804804805 6.847004276658444e+39
5814.814814814815 6.817563086320558e+39
5824.824824824825 6.788259243398111e+39
5834.8348348348345 6.759092203131542e+39
5844.844844844845 6.730061421952455e+39
5854.854854854855 6.701166357462e+39
5864.864864864865 6.672406468410134e+39
5874.874874874875 6.64378121467583e+39
5884.884884884885 6.615290057248115e+39
