#lamb flux
1000.0 3.1236786470025306e+39
1010.01001001001 3.173038361320614e+39
1020.0200200200201 3.220570899565437e+39
1030.03003003003 3.2662700673644914e+39
1040.0400400400401 3.3101336592676213e+39
1050.05005005005 3.3521632006347224e+39
1060.06006006006 3.3923636958942535e+39
1070.07007007007 3.4307433838908696e+39
1080.08008008008 3.467313500905076e+39
1090.0900900900901 3.5020880518058133e+39
1100.1001001001 3.535083589688011e+39
1110.11011011011 3.566319004250336e+39
1120.1201201201202 3.5958153190825006e+39
1130.13013013013 3.623595497956015e+39
1140.1401401401401 3.6496842601461156e+39
1150.1501501501502 3.6741079047549734e+39
1160.16016016016 3.6968941439567037e+39
1170.1701701701702 3.718071945041839e+39
1180.1801801801803 3.737671381103098e+39
1190.1901901901902 3.755723490173425e+39
1200.2002002002002 3.7722601426026e+39
1210.2102102102103 3.787313916437778e+39
1220.2202202202202 3.8009179805572827e+39
1230.2302302302303 3.813105985294188e+39
1240.2402402402402 3.8239119602768674e+39
1250.2502502502502 3.833367509510027e+39
1260.2602602602603 3.841499061984794e+39
1270.2702702702702 3.8483267213194e+39
1280.2802802802803 3.8538857219108776e+39
1290.2902902902902 3.858211303125714e+39
1300.3003003003003 3.8613386395136965e+39
1310.3103103103103 3.863302776543031e+39
1320.3203203203202 3.86413857158307e+39
1330.3303303303303 3.8638806398662854e+39
1340.3403403403404 3.862563305166603e+39
1350.3503503503503 3.860220554938037e+39
1360.3603603603603 3.856885999664548e+39
1370.3703703703704 3.8525928361797774e+39
1380.3803803803803 3.847373814723236e+39
1390.3903903903904 3.8412612095079125e+39
1400.4004004004005 3.834286792582516e+39
1410.4104104104103 3.826481810780348e+39
1420.4204204204204 3.817876965555243e+39
1430.4304304304305 3.808502395513537e+39
1440.4404404404404 3.798387661459826e+39
1450.4504504504505 3.787561733782254e+39
1460.4604604604606 3.776052982011766e+39
1470.4704704704704 3.763889166397512e+39
1480.4804804804805 3.751097431348723e+39
1490.4904904904906 3.737704300600962e+39
1500.5005005005005 3.72373567397208e+39
1510.5105105105106 3.7092168255806115e+39
1520.5205205205207 3.694172403406079e+39
1530.5305305305305 3.678626430077597e+39
1540.5405405405404 3.66260230478354e+39
1550.5505505505505 3.646122806201348e+39
1560.5605605605606 3.629210096352391e+39
1570.5705705705705 3.611885725292744e+39
1580.5805805805805 3.594170636556049e+39
1590.5905905905906 3.576085173270072e+39
1600.6006006006005 3.557649084873568e+39
1610.6106106106106 3.538881534365026e+39
1620.6206206206207 3.519801106019605e+39
1630.6306306306305 3.5004258135151264e+39
1640.6406406406406 3.480773108412614e+39
1650.6506506506507 3.460859888941168e+39
1660.6606606606606 3.440702509041517e+39
1670.6706706706707 3.4203167876269574e+39
1680.6806806806808 3.399718018024976e+39
1690.6906906906906 3.3789209775675813e+39
1700.7007007007007 3.357940059894061e+39
1710.7107107107108 3.336789530769958e+39
1720.7207207207207 3.3154826209453285e+39
1730.7307307307308 3.294032024866394e+39
1740.7407407407409 3.272449979623186e+39
1750.7507507507507 3.250748274557057e+39
1760.7607607607606 3.2289382609860164e+39
1770.770770770771 3.2070308620744374e+39
1780.7807807807808 3.185036582886443e+39
1790.7907907907907 3.162965520677358e+39
1800.8008008008007 3.140827375494912e+39
1810.8108108108108 3.118631461181977e+39
1820.8208208208207 3.0963867168956505e+39
1830.8308308308308 3.0741017192835634e+39
1840.8408408408409 3.051784695487379e+39
1850.8508508508507 3.02944353717525e+39
1860.8608608608608 3.0070858158385025e+39
1870.870870870871 2.984718799621952e+39
1880.8808808808808 2.962349471989138e+39
1890.890890890891 2.939984552550334e+39
1900.900900900901 2.917630520396936e+39
1910.9109109109108 2.895293640283821e+39
1920.920920920921 2.87297999197214e+39
1930.930930930931 2.8506955029769297e+39
1940.940940940941 2.828445984842818e+39
1950.950950950951 2.806237172880882e+39
1960.960960960961 2.78407476902446e+39
1970.970970970971 2.7619644870869455e+39
1980.980980980981 2.739912099222428e+39
1990.9909909909911 2.7179234818034926e+39
2001.001001001001 2.6960046582608685e+39
2011.0110110110109 2.6741618357233408e+39
2021.0210210210212 2.652401431631839e+39
2031.031031031031 2.6307300859914642e+39
2041.0410410410411 2.609154654713695e+39
2051.051051051051 2.5876821797492083e+39
2061.061061061061 2.5663198325717212e+39
2071.071071071071 2.5450748291499105e+39
2081.081081081081 2.5239543168480742e+39
2091.091091091091 2.5029652366005732e+39
2101.101101101101 2.4821141669216165e+39
2111.1111111111113 2.4614071594004194e+39
2121.121121121121 2.4408495777559295e+39
2131.131131131131 2.4204459537550566e+39
2141.141141141141 2.4001998729369866e+39
2151.151151151151 2.3801139009904486e+39
2161.161161161161 2.360189557982917e+39
2171.1711711711714 2.34042734293994e+39
2181.1811811811813 2.3208268062408767e+39
2191.191191191191 2.3013866627204652e+39
2201.201201201201 2.282104934919072e+39
2211.2112112112113 2.2629791140318702e+39
2221.221221221221 2.2440063258748528e+39
2231.2312312312315 2.2251834904207196e+39
2241.2412412412414 2.206507465753547e+39
2251.2512512512512 2.187975170146888e+39
2261.261261261261 2.1695836789035654e+39
2271.271271271271 2.1513302952266005e+39
2281.2812812812813 2.1332125964800737e+39
2291.2912912912916 2.1152284586482397e+39
2301.3013013013015 2.097376062626929e+39
2311.3113113113113 2.0796538862754914e+39
2321.321321321321 2.0620606860488428e+39
2331.331331331331 2.044595471652449e+39
2341.3413413413414 2.0272574766384953e+39
2351.3513513513512 2.0100461272837592e+39
2361.3613613613616 1.992961011526295e+39
2371.3713713713714 1.9760018492307062e+39
2381.3813813813813 1.9591684646217338e+39
2391.391391391391 1.942460761379794e+39
2401.4014014014015 1.9258787006261606e+39
2411.4114114114113 1.9094222818311358e+39
2421.4214214214217 1.893091526543861e+39
2431.4314314314315 1.8768864647558218e+39
2441.4414414414414 1.8608071236601344e+39
2451.4514514514512 1.8448535185459795e+39
2461.4614614614616 1.8290256455638575e+39
2471.4714714714714 1.813323476106543e+39
2481.4814814814818 1.7977469525677225e+39
2491.4914914914916 1.7822959852618723e+39
2501.5015015015015 1.7669704503123928e+39
2511.5115115115113 1.751770188338591e+39
2521.521521521521 1.7366950037947784e+39
2531.5315315315315 1.7217446648357312e+39
2541.541541541542 1.7069189036018265e+39
2551.5515515515517 1.6922174168340513e+39
2561.5615615615616 1.6776398667439267e+39
2571.5715715715714 1.663185882076214e+39
2581.5815815815813 1.6488550593132534e+39
2591.5915915915916 1.6346469639791397e+39
2601.6016016016015 1.620561132009835e+39
2611.611611611612 1.606597071161892e+39
2621.6216216216217 1.5927542624380322e+39
2631.6316316316315 1.5790321615123056e+39
2641.6416416416414 1.565430200141436e+39
2651.6516516516517 1.5519477875519378e+39
2661.6616616616616 1.5385843117951936e+39
2671.671671671672 1.5253391410647035e+39
2681.6816816816818 1.5122116249713948e+39
2691.6916916916916 1.4992010957741842e+39
2701.7017017017015 1.4863068695640897e+39
2711.711711711712 1.4735282474010048e+39
2721.7217217217217 1.4608645164029295e+39
2731.731731731732 1.448314950787943e+39
2741.741741741742 1.4358788128696424e+39
2751.7517517517517 1.4235553540070074e+39
2761.7617617617616 1.4113438155099528e+39
2771.7717717717715 1.3992434295018872e+39
2781.781781781782 1.3872534197407884e+39
2791.791791791792 1.3753730024003463e+39
2801.801801801802 1.3636013868127067e+39
2811.811811811812 1.3519377761744513e+39
2821.8218218218217 1.3403813682173586e+39
2831.8318318318316 1.3289313558455157e+39
2841.841841841842 1.3175869277402916e+39
2851.851851851852 1.3063472689346475e+39
2861.861861861862 1.2952115613582216e+39
2871.871871871872 1.2841789843545405e+39
2881.881881881882 1.273248715171709e+39
2891.8918918918916 1.2624199294278202e+39
2901.901901901902 1.2516918015523015e+39
2911.911911911912 1.2410635052043636e+39
2921.921921921922 1.230534213669629e+39
2931.931931931932 1.2201031002360153e+39
2941.941941941942 1.2097693385498528e+39
2951.9519519519517 1.1995321029531818e+39
2961.961961961962 1.1893905688031512e+39
2971.971971971972 1.1793439127743466e+39
2981.9819819819822 1.1693913131448829e+39
2991.991991991992 1.1595319500670178e+39
3002.002002002002 1.1497650058230258e+39
3012.012012012012 1.1400896650670257e+39
3022.0220220220217 1.1305051150534252e+39
3032.032032032032 1.1210512708036108e+39
3042.0420420420423 1.1116406150883324e+39
3052.052052052052 1.1023169573069734e+39
3062.062062062062 1.0930798978062507e+39
3072.072072072072 1.0839289819912375e+39
3082.0820820820823 1.0748637070174467e+39
3092.092092092092 1.0658835278428639e+39
3102.102102102102 1.05698786269596e+39
3112.1121121121123 1.0481760980111712e+39
3122.122122122122 1.0394475928789999e+39
3132.132132132132 1.0308016830539943e+39
3142.1421421421423 1.0222376845602347e+39
3152.152152152152 1.0137548969306086e+39
3162.162162162162 1.0053526061130915e+39
3172.1721721721724 9.970300870744401e+38
3182.1821821821823 9.887866061290929e+38
3192.192192192192 9.806214230186903e+38
3202.202202202202 9.725337927654473e+38
3212.2122122122123 9.64522967320602e+38
3222.222222222222 9.565881970272978e+38
3232.232232232232 9.487287319155874e+38
3242.2422422422424 9.409438228456851e+38
3252.252252252252 9.332327225141761e+38
3262.262262262262 9.255946863365708e+38
3272.2722722722724 9.180289732184269e+38
3282.2822822822823 9.105348462261419e+38
3292.292292292292 9.031115731675281e+38
3302.3023023023025 8.95758427091372e+38
3312.3123123123123 8.884746867143256e+38
3322.322322322322 8.812596367827298e+38
3332.3323323323325 8.741125683762483e+38
3342.3423423423424 8.67032779159579e+38
3352.352352352352 8.600195735878794e+38
3362.3623623623625 8.530722630710701e+38
3372.3723723723724 8.461901661016313e+38
3382.3823823823823 8.39372608350099e+38
3392.3923923923926 8.326189227320631e+38
3402.4024024024025 8.259284494500738e+38
3412.4124124124123 8.193005360135475e+38
3422.4224224224226 8.127345372394562e+38
3432.4324324324325 8.06229815236293e+38
3442.4424424424424 7.997857393735571e+38
3452.4524524524522 7.934016862387785e+38
3462.4624624624626 7.870770395838803e+38
3472.4724724724724 7.808111902624992e+38
3482.4824824824823 7.746035361596917e+38
3492.4924924924926 7.684534821153229e+38
3502.5025025025025 7.623604398422726e+38
3512.5125125125123 7.5632382784047e+38
3522.5225225225226 7.503430713076554e+38
3532.5325325325325 7.444176020476588e+38
3542.5425425425424 7.385468583768925e+38
3552.5525525525527 7.327302850296641e+38
3562.5625625625626 7.26967333062849e+38
3572.5725725725724 7.212574597603763e+38
3582.5825825825827 7.156001285379383e+38
3592.5925925925926 7.099948088482657e+38
3602.6026026026025 7.044409760872561e+38
3612.612612612613 6.989381115012192e+38
3622.6226226226227 6.934857020954344e+38
3632.6326326326325 6.880832405441997e+38
3642.642642642643 6.827302251025214e+38
3652.6526526526527 6.774261595195468e+38
3662.6626626626626 6.721705529538298e+38
3672.672672672673 6.669629198905085e+38
3682.6826826826828 6.618027800604249e+38
3692.6926926926926 6.566896583612325e+38
3702.7027027027025 6.516230847804915e+38
3712.712712712713 6.466025943207701e+38
3722.7227227227227 6.4162772692673365e+38
3732.7327327327325 6.366980274142018e+38
3742.742742742743 6.3181304540115655e+38
3752.7527527527527 6.2697233524065806e+38
3762.7627627627626 6.221754559556341e+38
3772.772772772773 6.174219711755005e+38
3782.7827827827828 6.127114490745607e+38
3792.7927927927926 6.0804346231213454e+38
3802.802802802803 6.034175879743678e+38
3812.812812812813 5.988334075176601e+38
3822.8228228228227 5.942905067136595e+38
3832.832832832833 5.89788475595767e+38
3842.842842842843 5.853269084070901e+38
3852.8528528528527 5.8090540354979465e+38
3862.862862862863 5.765235635357886e+38
3872.872872872873 5.721809949386924e+38
3882.8828828828828 5.678773083470288e+38
3892.892892892893 5.636121183185922e+38
3902.902902902903 5.593850433359297e+38
3912.912912912913 5.551957057628921e+38
3922.922922922923 5.510437318021991e+38
3932.932932932933 5.4692875145397835e+38
3942.942942942943 5.428503984752179e+38
3952.9529529529527 5.388083103400989e+38
3962.962962962963 5.34802128201161e+38
3972.972972972973 5.3083149685125635e+38
3982.982982982983 5.2689606468625525e+38
3992.992992992993 5.229954836684615e+38
4003.003003003003 5.1912940929070776e+38
4013.013013013013 5.152975005410877e+38
4023.023023023023 5.114994198682982e+38
4033.033033033033 5.077348331475565e+38
4043.043043043043 5.0400340964706355e+38
4053.053053053053 5.003048219949871e+38
4063.063063063063 4.96638746146935e+38
4073.073073073073 4.930048613538943e+38
4083.0830830830832 4.894028501306147e+38
4093.093093093093 4.8583239822441015e+38
4103.103103103103 4.822931945843605e+38
4113.113113113113 4.78784931330895e+38
4123.123123123123 4.7530730372573136e+38
4133.133133133133 4.718600101421638e+38
4143.143143143143 4.6844275203567635e+38
4153.153153153153 4.65055233914871e+38
4163.163163163163 4.616971633126905e+38
4173.173173173173 4.583682507579315e+38
4183.183183183183 4.550682097470294e+38
4193.193193193193 4.517967567161038e+38
4203.203203203203 4.485536110132592e+38
4213.213213213214 4.453384948711284e+38
4223.223223223224 4.421511333796474e+38
4233.2332332332335 4.389912544590582e+38
4243.243243243243 4.3585858883312915e+38
4253.253253253253 4.3275287000258755e+38
4263.263263263263 4.296738342187589e+38
4273.273273273273 4.2662122045740376e+38
4283.283283283283 4.235947703927519e+38
4293.293293293293 4.205942283717263e+38
4303.303303303303 4.176193413883523e+38
4313.313313313313 4.146698590583518e+38
4323.323323323323 4.11745533593913e+38
4333.333333333334 4.088461197786403e+38
4343.343343343344 4.059713749426756e+38
4353.353353353354 4.0312105893799175e+38
4363.3633633633635 4.002949341138545e+38
4373.373373373373 3.9749276529245405e+38
4383.383383383383 3.947143197447007e+38
4393.393393393393 3.9195936716618614e+38
4403.403403403403 3.8922767965330966e+38
4413.413413413413 3.865190316795642e+38
4423.423423423424 3.8383320007198764e+38
4433.4334334334335 3.811699639877749e+38
4443.443443443443 3.785291048910501e+38
4453.453453453454 3.759104065297987e+38
4463.463463463464 3.733136549129662e+38
4473.473473473474 3.707386382877075e+38
4483.483483483484 3.681851471168055e+38
4493.493493493494 3.656529740562459e+38
4503.503503503503 3.63141913932953e+38
4513.513513513513 3.606517637226881e+38
4523.523523523523 3.581823225281047e+38
4533.533533533533 3.557333915569713e+38
4543.543543543543 3.533047741005494e+38
4553.553553553554 3.508962755121364e+38
4563.563563563564 3.485077031857711e+38
4573.573573573573 3.461388665350986e+38
4583.583583583584 3.43789576972401e+38
4593.593593593594 3.4145964788779e+38
4603.603603603604 3.3914889462856034e+38
4613.613613613614 3.3685713447871213e+38
4623.623623623624 3.3458418663863094e+38
4633.6336336336335 3.3232987220493616e+38
4643.643643643643 3.3009401415049294e+38
4653.653653653653 3.2787643730458686e+38
4663.663663663663 3.2567696833326536e+38
4673.673673673674 3.2349543571984265e+38
4683.683683683684 3.2133166974557147e+38
4693.693693693694 3.1918550247047727e+38
4703.703703703704 3.1705676771435992e+38
4713.713713713714 3.149453010379598e+38
4723.723723723724 3.1285093972428953e+38
4733.733733733734 3.1077352276012872e+38
4743.743743743744 3.087128908176878e+38
4753.753753753754 3.0666888623643315e+38
4763.763763763764 3.0464135300507963e+38
4773.773773773773 3.0263013674374513e+38
4783.783783783783 3.0063508468627297e+38
4793.793793793793 2.986560456627158e+38
4803.803803803804 2.9669287008198357e+38
4813.813813813814 2.947454099146574e+38
4823.823823823824 2.9281351867596317e+38
4833.833833833834 2.9089705140891105e+38
4843.843843843844 2.8899586466759542e+38
4853.853853853854 2.8710981650065705e+38
4863.863863863864 2.8523876643490762e+38
4873.873873873874 2.8338257545911312e+38
4883.883883883884 2.8154110600793933e+38
4893.893893893894 2.7971422194605636e+38
4903.9039039039035 2.779017885524018e+38
4913.913913913913 2.761036725046021e+38
4923.923923923924 2.743197418635522e+38
4933.933933933934 2.725498660581521e+38
4943.943943943944 2.7079391587019828e+38
4953.953953953955 2.690517634194318e+38
4963.9639639639645 2.673232821487412e+38
4973.973973973974 2.656083468095173e+38
4983.983983983984 2.639068334471626e+38
4993.993993993994 2.62218619386752e+38
5004.004004004004 2.605435832188444e+38
5014.014014014014 2.588816047854452e+38
5024.024024024024 2.5723256516611626e+38
5034.0340340340335 2.55596346664237e+38
5044.044044044043 2.5397283279340963e+38
5054.054054054054 2.5236190826401262e+38
5064.064064064064 2.507634589698994e+38
5074.074074074074 2.4917737197523985e+38
5084.084084084085 2.4760353550150633e+38
5094.0940940940945 2.4604183891460147e+38
5104.104104104104 2.444921727121266e+38
5114.114114114114 2.4295442851079067e+38
5124.124124124124 2.414284990339578e+38
5134.134134134134 2.3991427809933264e+38
5144.144144144144 2.3841166060678215e+38
5154.154154154154 2.3692054252629345e+38
5164.1641641641645 2.3544082088606532e+38
5174.174174174174 2.3397239376073387e+38
5184.184184184184 2.325151602597298e+38
5194.194194194194 2.3106902051576555e+38
5204.204204204204 2.296338756734551e+38
5214.214214214214 2.282096278780595e+38
5224.224224224225 2.267961802643613e+38
5234.2342342342345 2.2539343694566562e+38
5244.244244244244 2.240013030029249e+38
5254.254254254254 2.2261968447398953e+38
5264.264264264264 2.2124848834297905e+38
5274.274274274274 2.1988762252977754e+38
5284.284284284285 2.185369958796474e+38
5294.294294294295 2.171965181529635e+38
5304.304304304304 2.158661000150647e+38
5314.314314314314 2.1454565302622325e+38
5324.324324324324 2.1323508963172865e+38
5334.334334334334 2.1193432315208778e+38
5344.344344344345 2.106432677733366e+38
5354.354354354355 2.0936183853746587e+38
5364.3643643643645 2.0808995133295633e+38
5374.374374374374 2.0682752288542547e+38
5384.384384384384 2.0557447074838144e+38
5394.394394394394 2.043307132940862e+38
5404.404404404404 2.0309616970452353e+38
5414.414414414415 2.0187075996247398e+38
5424.424424424425 2.0065440484269293e+38
5434.4344344344345 1.9944702590319223e+38
5444.444444444444 1.9824854547662323e+38
5454.454454454454 1.9705888666176207e+38
5464.464464464464 1.958779733150927e+38
5474.474474474475 1.9470573004249067e+38
5484.484484484485 1.9354208219100227e+38
5494.494494494495 1.9238695584072205e+38
5504.504504504504 1.9124027779676477e+38
5514.514514514514 1.9010197558133105e+38
5524.524524524524 1.889719774258679e+38
5534.534534534535 1.8785021226331985e+38
5544.544544544545 1.867366097204723e+38
5554.554554554555 1.856311001103836e+38
5564.5645645645645 1.8453361442490747e+38
5574.574574574574 1.834440843273032e+38
5584.584584584584 1.8236244214493194e+38
5594.594594594595 1.812886208620393e+38
5604.604604604605 1.802225541126246e+38
5614.614614614615 1.7916417617339057e+38
5624.624624624625 1.781134219567795e+38
5634.6346346346345 1.7707022700408956e+38
5644.644644644644 1.7603452747867208e+38
5654.654654654654 1.750062601592104e+38
5664.664664664665 1.73985362433075e+38
5674.674674674675 1.729717722897606e+38
5684.684684684685 1.719654283143971e+38
5694.694694694695 1.7096626968133833e+38
5704.704704704704 1.6997423614782638e+38
5714.714714714714 1.689892680477301e+38
5724.724724724725 1.680113062853568e+38
5734.734734734735 1.670402923293373e+38
5744.744744744745 1.6607616820658245e+38
5754.754754754755 1.6511887649631044e+38
5764.764764764765 1.6416836032414488e+38
5774.774774774774 1.632245633562811e+38
5784.784784784785 1.622874297937218e+38
5794.794794794795 1.613569043665798e+38
5804.804804804805 1.6043293232844743e+38
5814.814814814815 1.5951545945083185e+38
5824.824824824825 1.5860443201765612e+38
5834.8348348348345 1.576997968198233e+38
5844.844844844845 1.568015011498456e+38
5854.854854854855 1.5590949279653522e+38
5864.864864864865 1.5502372003975707e+38
5874.874874874875 1.5414413164524355e+38
5884.884884884885 1.5327067685946921e+38
5894.894894894895 1.5240330540458484e+38
