#lamb flux
1000.0 2.1997717142930617
1010.01001001001 2.209534173832864
1020.0200200200201 2.2179661446292522
1030.03003003003 2.2251139081634257
1040.0400400400401 2.231023599997297
1050.05005005005 2.2357410637014916
1060.06006006006 2.2393117221407057
1070.07007007007 2.2417804646903208
1080.08008008008 2.243191549040876
1090.0900900900901 2.2435885163293796
1100.1001001001 2.2430141184176406
1110.11011011011 2.2415102562170057
1120.1201201201202 2.2391179280355593
1130.13013013013 2.2358771869975516
1140.1401401401401 2.2318271066551367
1150.1501501501502 2.227005753979485
1160.16016016016 2.221450168981619
1170.1701701701702 2.2151963502730685
1180.1801801801803 2.2082792459325558
1190.1901901901902 2.2007327490974125
1200.2002002002002 2.1925896977476413
1210.2102102102103 2.183881878196192
1220.2202202202202 2.17464003184165
1230.2302302302303 2.164893864778949
1240.2402402402402 2.15467205990034
1250.2502502502502 2.143998036731539
1260.2602602602603 2.132885975272667
1270.2702702702702 2.121339473627577
1280.2802802802803 2.1093849831872458
1290.2902902902902 2.097048015510711
1300.3003003003003 2.08435315704558
1310.3103103103103 2.0713240852496106
1320.3203203203202 2.057983585903696
1330.3303303303303 2.044353571425777
1340.3403403403404 2.0304551000127473
1350.3503503503503 2.0163083954537107
1360.3603603603603 2.001932867473065
1370.3703703703704 1.987347132475735
1380.3803803803803 1.9725690345797215
1390.3903903903904 1.957615666832882
1400.4004004004005 1.9425033925216904
1410.4104104104103 1.9272478664896535
1420.4204204204204 1.911864056392152
1430.4304304304305 1.8963662638227785
1440.4404404404404 1.8807681452538842
1450.4504504504505 1.8650827327409023
1460.4604604604606 1.8493224543464444
1470.4704704704704 1.8334991542457542
1480.4804804804805 1.8176241124804846
1490.4904904904906 1.8017080643323462
1500.5005005005005 1.7857612192925412
1510.5105105105106 1.7697932796067297
1520.5205205205207 1.753813458378788
1530.5305305305305 1.737830497219734
1540.5405405405404 1.7218526834310812
1550.5505505505505 1.7058878667143926
1560.5605605605606 1.68994347540114
1570.5705705705705 1.6740265321990582
1580.5805805805805 1.6581436694530576
1590.5905905905906 1.6423011439204955
1600.6006006006005 1.6265048510621967
1610.6106106106106 1.6107603388520977
1620.6206206206207 1.5950728211098022
1630.6306306306305 1.5794471903617415
1640.6406406406406 1.5638880302379679
1650.6506506506507 1.5483996274131357
1660.6606606606606 1.5329859831016803
1670.6706706706707 1.517650824118984
1680.6806806806808 1.5023976135222126
1690.6906906906906 1.4872295608468058
1700.7007007007007 1.4721497828304153
1710.7107107107108 1.4571616115315198
1720.7207207207207 1.4422674749930757
1730.7307307307308 1.4274695137746278
1740.7407407407409 1.412769674342256
1750.7507507507507 1.3981697164845148
1760.7607607607606 1.3836712206052375
1770.770770770771 1.36927559495142
1780.7807807807808 1.3549840828464026
1790.7907907907907 1.3407977700129292
1800.8008008008007 1.3267175920874734
1810.8108108108108 1.3127443424469034
1820.8208208208207 1.2988786804911918
1830.8308308308308 1.2851211405516463
1840.8408408408409 1.2714721416226678
1850.8508508508507 1.2579319981461239
1860.8608608608608 1.2445009321097116
1870.870870870871 1.2311790867527859
1880.8808808808808 1.2179665422020083
1890.890890890891 1.204863333381088
1900.900900900901 1.1918694705479784
1910.9109109109108 1.1789849628015319
1920.920920920921 1.1662098448578075
1930.930930930931 1.153544207311484
1940.940940940941 1.140988230455494
1950.950950950951 1.1285422215159064
1960.960960960961 1.1162066548532816
1970.970970970971 1.1039822142730655
1980.980980980981 1.0918698360702244
1990.9909909909911 1.079870750813942
2001.001001001001 1.0679865211834765
2011.0110110110109 1.0562190724497313
2021.0210210210212 1.044570711545435
2031.031031031031 1.0330441302015552
2041.0410410410411 1.0216423875003264
2051.051051051051 1.0103688675710143
2061.061061061061 0.999227209183176
2071.071071071071 0.9882212057672367
2081.081081081081 0.9773546769031024
2091.091091091091 0.9666313154076439
2101.101101101101 0.9560545174967979
2111.1111111111113 0.9456272066226975
2121.121121121121 0.9353516639294849
2131.131131131131 0.9252293792958148
2141.141141141141 0.9152609362569619
2151.151151151151 0.9054459416210184
2161.161161161161 0.895783006550208
2171.1711711711714 0.8862697808303643
2181.1811811811813 0.876903036774297
2191.191191191191 0.8676787945172117
2201.201201201201 0.8585924770469562
2211.2112112112113 0.8496390815738697
2221.221221221221 0.8408133538537224
2231.2312312312315 0.8321099535938606
2241.2412412412414 0.8235236016467468
2251.2512512512512 0.815049202790861
2261.261261261261 0.8066819410135196
2271.271271271271 0.7984173469556218
2281.2812812812813 0.7902513393192419
2291.2912912912916 0.7821802434881168
2301.3013013013015 0.7742007913992335
2311.3113113113113 0.7663101069374934
2321.321321321321 0.7585056809463578
2331.331331331331 0.750785339499806
2341.3413413413414 0.743147208491554
2351.3513513513512 0.7355896769646753
2361.3613613613616 0.728111360997349
2371.3713713713714 0.7207110694199534
2381.3813813813813 0.7133877721854325
2391.391391391391 0.7061405718535335
2401.4014014014015 0.6989686783750646
2411.4114114114113 0.6918713871641113
2421.4214214214217 0.68484806031128
2431.4314314314315 0.6778981107063793
2441.4414414414414 0.6710209887924918
2451.4514514514512 0.6642161716547924
2461.4614614614616 0.6574831541482331
2471.4714714714714 0.6508214417817759
2481.4814814814818 0.644230545098065
2491.4914914914916 0.6377099753127544
2501.5015015015015 0.6312592410044249
2511.5115115115113 0.6248778456725144
2521.521521521521 0.6185652860057684
2531.5315315315315 0.6123210507267851
2541.541541541542 0.6061446198989918
2551.5515515515517 0.6000354646006956
2561.5615615615616 0.5939930468868444
2571.5715715715714 0.5880168199728915
2581.5815815815813 0.582106228586886
2591.5915915915916 0.5762607094458697
2601.6016016016015 0.5704796918209983
2611.611611611612 0.5647625981627917
2621.6216216216217 0.5591088447637078
2631.6316316316315 0.5535178424400148
2641.6416416416414 0.5479889972188837
2651.6516516516517 0.5425217110198209
2661.6616616616616 0.5371153823221892
2671.671671671672 0.5317694068126818
2681.6816816816818 0.526483178008316
2691.6916916916916 0.5212560878518822
2701.7017017017015 0.516087527277861
2711.711711711712 0.5109768867476863
2721.7217217217217 0.5059235567538913
2731.731731731732 0.5009269282931915
2741.741741741742 0.4959863933089596
2751.7517517517517 0.49110134510382447
2761.7617617617616 0.4862711787233631
2771.7717717717715 0.4814952913119792
2781.781781781782 0.47677308244217814
2791.791791791792 0.47210395441851166
2801.801801801802 0.46748731255747433
2811.811811811812 0.4629225654446618
2821.8218218218217 0.45840912517047255
2831.8318318318316 0.4539464075456162
2841.841841841842 0.4495338322976485
2851.851851851852 0.4451708232497127
2861.861861861862 0.4408568084826187
2871.871871871872 0.43659122048133336
2881.881881881882 0.4323734962669106
2891.8918918918916 0.4282030775148307
2901.901901901902 0.4240794106606626
2911.911911911912 0.42000194699391574
2921.921921921922 0.4159701427408919
2931.931931931932 0.4119834591373038
2941.941941941942 0.40804136249137124
2951.9519519519517 0.40414332423807
2961.961961961962 0.4002888209851586
2971.971971971972 0.3964773345515707
2981.9819819819822 0.39270835199872156
2991.991991991992 0.3889813656552409
3002.002002002002 0.38529587313561015
3012.012012012012 0.3816513773531521
3022.0220220220217 0.3780473865277869
3032.032032032032 0.37452160626037395
3042.0420420420423 0.3709922036095517
3052.052052052052 0.36750058856117923
3062.062062062062 0.3640466689563907
3072.072072072072 0.3606303016903757
3082.0820820820823 0.35725129909439984
3092.092092092092 0.3539094346853197
3102.102102102102 0.35060444833915533
3112.1121121121123 0.34733605094063985
3122.122122122122 0.3441039285563396
3132.132132132132 0.3409077461749439
3142.1421421421423 0.3377471510546349
3152.152152152152 0.3346217757140403
3162.162162162162 0.33153124060013217
3172.1721721721724 0.3284751564635451
3182.1821821821823 0.3254531264691328
3192.192192192192 0.3224647480671369
3202.202202202202 0.3195096146481002
3212.2122122122123 0.3165873170026069
3222.222222222222 0.31369744460503834
3232.232232232232 0.31083958673881285
3242.2422422422424 0.3080133334789971
3252.252252252252 0.30521827654672723
3262.262262262262 0.30245401004855943
3272.2722722722724 0.2997201311126595
3282.2822822822823 0.29701624043263514
3292.292292292292 0.2943419427288111
3302.3023023023025 0.29169684713582317
3312.3123123123123 0.28908056752456984
3322.322322322322 0.28649272276579546
3332.3323323323325 0.28393293694188043
3342.3423423423424 0.2814008395127803
3352.352352352352 0.27889606544147183
3362.3623623623625 0.2764182552837493
3372.3723723723724 0.2739670552467198
3382.3823823823823 0.27154211721992205
3392.3923923923926 0.2691430987825957
3402.4024024024025 0.266769663190263
3412.4124124124123 0.26442147934346294
3422.4224224224226 0.2620982217411817
3432.4324324324325 0.2597995704212527
3442.4424424424424 0.2575252108897545
3452.4524524524522 0.25527483404121887
3462.4624624624626 0.253048136071257
3472.4724724724724 0.2508448183830352
3482.4824824824823 0.24866458748886178
3492.4924924924926 0.24650715490800842
3502.5025025025025 0.24437223706174854
3512.5125125125123 0.24225955516647718
3522.5225225225226 0.24016883512567305
3532.5325325325325 0.23809980742135897
3542.5425425425424 0.2360522070056357
3552.5525525525527 0.23402577319278337
3562.5625625625626 0.23202024955235392
3572.5725725725724 0.23003538380361477
3582.5825825825827 0.2280709277116514
3592.5925925925926 0.22612663698538077
3602.6026026026025 0.22420227117768693
3612.612612612613 0.2222975935878509
3622.6226226226227 0.22041237116640675
3632.6326326326325 0.21854637442253047
3642.642642642643 0.2166993773340392
3652.6526526526527 0.21487115726005207
3662.6626626626626 0.21306149485634282
3672.672672672673 0.21127017399340242
3682.6826826826828 0.20949698167720404
3692.6926926926926 0.20774170797265643
3702.7027027027025 0.20600414592971586
3712.712712712713 0.20428409151211968
3722.7227227227227 0.20258134352869459
3732.7327327327325 0.2008957035671822
3742.742742742743 0.19922697593052693
3752.7527527527527 0.19757496757555698
3762.7627627627626 0.19593948805399242
3772.772772772773 0.19432034945570767
3782.7827827827828 0.1927173663541756
3792.7927927927926 0.19113035575401657
3802.802802802803 0.18955913704057806
3812.812812812813 0.18800353193146807
3822.8228228228227 0.18646336442996417
3832.832832832833 0.1849384607802257
3842.842842842843 0.18342864942423098
3852.8528528528527 0.18193376096036787
3862.862862862863 0.18045362810360324
3872.872872872873 0.1789880856471629
3882.8828828828828 0.17753697042564823
3892.892892892893 0.17610012127952943
3902.902902902903 0.17467737902094146
3912.912912912913 0.17326858640072593
3922.922922922923 0.17187358807665368
3932.932932932933 0.17049223058277252
3942.942942942943 0.16912436229981914
3952.9529529529527 0.1677698334266434
3962.962962962963 0.1664284959525927
3972.972972972973 0.16510020363080388
3982.982982982983 0.16378481195235692
3992.992992992993 0.16248217812124213
4003.003003003003 0.16119216103010067
4013.013013013013 0.15991462123669198
4023.023023023023 0.15864942094105206
4033.033033033033 0.157396423963303
4043.043043043043 0.15615549572207818
4053.053053053053 0.15492650321352974
4063.063063063063 0.15370931499088525
4073.073073073073 0.15250380114452328
4083.0830830830832 0.15130983328253944
4093.093093093093 0.15012728451177546
4103.103103103103 0.14895602941928482
4113.113113113113 0.14779594405421287
4123.123123123123 0.1466469059100655
4133.133133133133 0.14550879390734753
4143.143143143143 0.14438148837654996
4153.153153153153 0.14326487104146685
4163.163163163163 0.14215882500282373
4173.173173173173 0.1410632347222019
4183.183183183183 0.13997798600624273
4193.193193193193 0.13890296599111732
4203.203203203203 0.1378380631272469
4213.213213213214 0.13678316716426456
4223.223223223224 0.13573816913620235
4233.2332332332335 0.13470296134689533
4243.243243243243 0.13367743735559226
4253.253253253253 0.13266149196276217
4263.263263263263 0.13165502119608966
4273.273273273273 0.13065792229664913
4283.283283283283 0.12967009370525126
4293.293293293293 0.1286914350489552
4303.303303303303 0.12772184712773882
4313.313313313313 0.12676123190132219
4323.323323323323 0.12580949247613735
4333.333333333334 0.12486653309244189
4343.343343343344 0.12393225911156824
4353.353353353354 0.1230065770033078
4363.3633633633635 0.12208939433342338
4373.373373373373 0.12118061975128795
4383.383383383383 0.12028016297764588
4393.393393393393 0.11938793479249349
4403.403403403403 0.1185038470230769
4413.413413413413 0.11762781253200338
4423.423423423424 0.11675974520546586
4433.4334334334335 0.11589955994157683
4443.443443443443 0.11504717263881031
4453.453453453454 0.11420250018455054
4463.463463463464 0.1133654604437469
4473.473473473474 0.11253597224766969
4483.483483483484 0.11171395538277128
4493.493493493494 0.11089933057964659
4503.503503503503 0.11009201950209498
4513.513513513513 0.10929194473628118
4523.523523523523 0.10849902977999441
4533.533533533533 0.1077131990320065
4543.543543543543 0.10693437778152613
4553.553553553554 0.10616249219775022
4563.563563563564 0.10539746931951194
4573.573573573573 0.10463923704502306
4583.583583583584 0.10388772412171315
4593.593593593594 0.10314286013616272
4603.603603603604 0.10240457550413039
4613.613613613614 0.10167280146067578
4623.623623623624 0.1009474700503744
4633.6336336336335 0.10022851411762757
4643.643643643643 0.0995158672970651
4653.653653653653 0.0988094640040406
4663.663663663663 0.09810923942522042
4673.673673673674 0.09741512950926427
4683.683683683684 0.09672707095759919
4693.693693693694 0.0960450012152844
4703.703703703704 0.09536885846196881
4713.713713713714 0.0946985816029401
4723.723723723724 0.09403411026026456
4733.733733733734 0.09337538476401844
4743.743743743744 0.09272234614361034
4753.753753753754 0.09207493611919361
4763.763763763764 0.09143309709316924
4773.773773773773 0.09079677214177878
4783.783783783783 0.09016590500678694
4793.793793793793 0.08954044008725347
4803.803803803804 0.08892032243139372
4813.813813813814 0.08830549772852872
4823.823823823824 0.08769591230112254
4833.833833833834 0.0870915130969082
4843.843843843844 0.0864922476811011
4853.853853853854 0.08589806422869921
4863.863863863864 0.08530891151687035
4873.873873873874 0.08472473891742562
4883.883883883884 0.08414549638937843
4893.893893893894 0.08357113447158944
4903.9039039039035 0.08300160427549591
4913.913913913913 0.08243685747792566
4923.923923923924 0.08187684631399486
4933.933933933934 0.08132152357008941
4943.943943943944 0.08077084257692882
4953.953953953955 0.0802247572027128
4963.9639639639645 0.0796832218463496
4973.973973973974 0.07914619143076494
4983.983983983984 0.07861362139629266
4993.993993993994 0.07808546769414437
5004.004004004004 0.07756168677995924
5014.014014014014 0.07704223560743234
5024.024024024024 0.07652707162202119
5034.0340340340335 0.0760161527547303
5044.044044044043 0.075509437415972
5054.054054054054 0.07500688448950439
5064.064064064064 0.07450845332644444
5074.074074074074 0.07401410373935625
5084.084084084085 0.07352379599641382
5094.0940940940945 0.07303749081563748
5104.104104104104 0.07255514935920326
5114.114114114114 0.0720767332278247
5124.124124124124 0.07160220445520633
5134.134134134134 0.07113152550256827
5144.144144144144 0.07066465925324077
5154.154154154154 0.07020156900732893
5164.1641641641645 0.06974221847644567
5174.174174174174 0.06928657177851362
5184.184184184184 0.06883459343263391
5194.194194194194 0.06838624835402195
5204.204204204204 0.0679415018490098
5214.214214214214 0.06750031961011328
5224.224224224225 0.06706266771116395
5234.2342342342345 0.06662851260250567
5244.244244244244 0.06619782110625336
5254.254254254254 0.06577056041161557
5264.264264264264 0.06534669807027771
5274.274274274274 0.06492620199184776
5284.284284284285 0.06450904043936123
5294.294294294295 0.0640951820248469
5304.304304304304 0.0636845957049508
5314.314314314314 0.06327725077661935
5324.324324324324 0.06287311687283946
5334.334334334334 0.06247216395843652
5344.344344344345 0.06207436232592751
5354.354354354355 0.06167968259143118
5364.3643643643645 0.06128809569063171
5374.374374374374 0.06089957287479797
5384.384384384384 0.06051408570685535
5394.394394394394 0.06013160605751128
5404.404404404404 0.05975210610143232
5414.414414414415 0.05937555831347359
5424.424424424425 0.05900193546495864
5434.4344344344345 0.05863121062000969
5444.444444444444 0.05826335713192762
5454.454454454454 0.057898348639621004
5464.464464464464 0.05753615906408347
5474.474474474475 0.057176762604918635
5484.484484484485 0.05682013373691247
5494.494494494495 0.05646624720665177
5504.504504504504 0.05611507802918895
5514.514514514514 0.05576660148475156
5524.524524524524 0.05542079311549697
5534.534534534535 0.05507762872231082
5544.544544544545 0.054737084361649035
5554.554554554555 0.054399136342422515
5564.5645645645645 0.054063761222924396
5574.574574574574 0.05373093580779899
5584.584584584584 0.0534006371450516
5594.594594594595 0.053072842523099045
5604.604604604605 0.052747529467860634
5614.614614614615 0.05242467573988767
5624.624624624625 0.052104259331532767
5634.6346346346345 0.05178625846415721
5644.644644644644 0.051470651585375886
5654.654654654654 0.05115741736634011
5664.664664664665 0.050846534699056506
5674.674674674675 0.05053798269374306
5684.684684684685 0.05023174067622003
5694.694694694695 0.04992778818533672
5704.704704704704 0.04962610497043279
5714.714714714714 0.04932667098883385
5724.724724724725 0.04902946640338089
5734.734734734735 0.048734471579992944
5744.744744744745 0.04844166708526262
5754.754754754755 0.048151033684083876
5764.764764764765 0.047862552337311945
5774.774774774774 0.04757620419945451
5784.784784784785 0.0472919706163938
5794.794794794795 0.04700983312313942
5804.804804804805 0.04672977344161122
5814.814814814815 0.046451773478451676
5824.824824824825 0.04617581532286785
5834.8348348348345 0.0459018812445017
5844.844844844845 0.04562995369132943
5854.854854854855 0.04536001528758816
5864.864864864865 0.045092048831730645
5874.874874874875 0.04482603729440701
5884.884884884885 0.0445619638164734
5894.894894894895 0.044299811707026765
5904.9049049049045 0.044039564441466075
5914.914914914915 0.043781205659578826
5924.924924924925 0.04352471916365316
5934.934934934935 0.04327008891661436
5944.944944944945 0.043017299040186696
5954.954954954955 0.04276633381307866
5964.964964964965 0.04251717766919248
5974.974974974975 0.04226981519585715
5984.984984984985 0.04202423113208442
5994.994994994995 0.0417804103668477
6005.005005005005 0.0415383379373834
6015.015015015015 0.04129799902751451
6025.025025025025 0.04105937896599604
6035.035035035035 0.04082246322488173
6045.045045045045 0.0405872374179124
6055.055055055055 0.04035368729892472
6065.065065065065 0.040121798760280984
6075.075075075075 0.03989155783131888
6085.085085085085 0.03966295067682142
6095.0950950950955 0.03943596359550664
6105.105105105105 0.03921058301853655
6115.115115115115 0.03898679550804534
6125.125125125125 0.0387645877556864
6135.135135135135 0.038543946581198106
6145.145145145145 0.03832485893098759
6155.155155155155 0.03810731187673301
6165.1651651651655 0.03789129261400319
6175.175175175175 0.037676788460895165
6185.185185185185 0.03746378685668875
6195.195195195195 0.03725227536051836
6205.205205205205 0.03704224165006149
6215.215215215215 0.03683367352024372
6225.225225225226 0.03662655888196033
6235.235235235235 0.0364208857608135
6245.245245245245 0.036216642295865874
6255.255255255255 0.036013816738409477
6265.265265265265 0.035812397450749975
6275.275275275275 0.03561237290500636
