#lamb flux
1000.0 0.05033107385644291
1010.01001001001 0.05356143430379116
1020.0200200200201 0.05689170199553533
1030.03003003003 0.06031959074943517
1040.0400400400401 0.06384265461475694
1050.05005005005 0.06745830046648488
1060.06006006006 0.07116380044714733
1070.07007007007 0.07495630420257413
1080.08008008008 0.07883285086505411
1090.0900900900901 0.08279038074396126
1100.1001001001 0.08682574669001622
1110.11011011011 0.09093572510494226
1120.1201201201202 0.09511702657337964
1130.13013013013 0.09936630609857207
1140.1401401401401 0.1036801729275432
1150.1501501501502 0.10805519995527384
1160.16016016016 0.1124879327007964
1170.1701701701702 0.11697489785116409
1180.1801801801803 0.12151261137195651
1190.1901901901902 0.1260975861853703
1200.2002002002002 0.13072633941905512
1210.2102102102103 0.13539539923067564
1220.2202202202202 0.1401013112147894
1230.2302302302303 0.1448406443999868
1240.2402402402402 0.14960999684541323
1250.2502502502502 0.15440508802690994
1260.2602602602603 0.1592197088877011
1270.2702702702702 0.1640450769970712
1280.2802802802803 0.16887740213974742
1290.2902902902902 0.17371296666567185
1300.3003003003003 0.17854812995060448
1310.3103103103103 0.18337933237982418
1320.3203203203202 0.1882030988733488
1330.3303303303303 0.19301604197150493
1340.3403403403404 0.19781486449992458
1350.3503503503503 0.2025963618331503
1360.3603603603603 0.20735742377601513
1370.3703703703704 0.21209503608181599
1380.3803803803803 0.21680628162606955
1390.3903903903904 0.22148834125431002
1400.4004004004005 0.22613849432197697
1410.4104104104103 0.23075411894398054
1420.4204204204204 0.23533269197098813
1430.4304304304305 0.23987178870889952
1440.4404404404404 0.244369082397355
1450.4504504504505 0.24882234346245746
1460.4604604604606 0.2532294385582026
1470.4704704704704 0.25758832941039855
1480.4804804804805 0.2618970714761247
1490.4904904904906 0.2661538124310394
1500.5005005005005 0.2703567904960821
1510.5105105105106 0.27450433261438156
1520.5205205205207 0.2785948524883949
1530.5305305305305 0.2826268484865775
1540.5405405405404 0.2865989014281249
1550.5505505505505 0.2905096722536081
1560.5605605605606 0.29435789958860875
1570.5705705705705 0.2981423972067963
1580.5805805805805 0.30186205139822925
1590.5905905905906 0.30551581824808843
1600.6006006006005 0.30910272083049345
1610.6106106106106 0.3126218463216252
1620.6206206206207 0.3160723430359875
1630.6306306306305 0.31945341738943395
1640.6406406406406 0.3227643307924808
1650.6506506506507 0.3260043964775614
1660.6606606606606 0.32917297626421826
1670.6706706706707 0.33226947726690725
1680.6806806806808 0.3352933485511243
1690.6906906906906 0.33824407774509824
1700.7007007007007 0.3411212917702584
1710.7107107107108 0.3439249730652269
1720.7207207207207 0.3466546771482975
1730.7307307307308 0.3493099285790243
1740.7407407407409 0.35189027579160875
1750.7507507507507 0.35439528785338864
1760.7607607607606 0.35682455133196717
1770.770770770771 0.35917766732882733
1780.7807807807808 0.36145424875236093
1790.7907907907907 0.3636539179217042
1800.8008008008007 0.3657763046151227
1810.8108108108108 0.36782104470349897
1820.8208208208207 0.36978777954130204
1830.8308308308308 0.37167615632463374
1840.8408408408409 0.37348582966888455
1850.8508508508507 0.3752164647070378
1860.8608608608608 0.3768677420630957
1870.870870870871 0.3784393651120664
1880.8808808808808 0.37993106999567755
1890.890890890891 0.3813426389172668
1900.900900900901 0.382673917283571
1910.9109109109108 0.38392483528607296
1920.920920920921 0.3850954345074743
1930.930930930931 0.386185900083098
1940.940940940941 0.3871965988220196
1950.950950950951 0.38812812347425796
1960.960960960961 0.3889813429923634
1970.970970970971 0.3897574581529817
1980.980980980981 0.3904580612573524
1990.9909909909911 0.3910851978132272
2001.001001001001 0.3916414271313406
2011.0110110110109 0.3921298776979267
2021.0210210210212 0.39255429210589715
2031.031031031031 0.3929190553874307
2041.0410410410411 0.39322919998625816
2051.051051051051 0.39349038057086966
2061.061061061061 0.3937088126558135
2071.071071071071 0.39389117075622254
2081.081081081081 0.39404444462867355
2091.091091091091 0.3941757559519431
2101.101101101101 0.39429214225511
2111.1111111111113 0.3944003194640973
2121.121121121121 0.3945064384003474
2131.131131131131 0.394615853170776
2141.141141141141 0.394732920001867
2151.151151151151 0.39486084335048494
2161.161161161161 0.395001582140755
2171.1711711711714 0.39515582324011567
2181.1811811811813 0.39532302265810737
2191.191191191191 0.39550150845397725
2201.201201201201 0.39568863393830117
2211.2112112112113 0.395880966151631
2221.221221221221 0.3960744931180474
2231.2312312312315 0.39626483392255507
2241.2412412412414 0.3964474378470381
2251.2512512512512 0.39661776203435106
2261.261261261261 0.39677142081089756
2271.271271271271 0.3969043033436486
2281.2812812812813 0.3970126593500947
2291.2912912912916 0.3970931549054778
2301.3013013013015 0.3971429019432481
2311.3113113113113 0.3971594658805386
2321.321321321321 0.3971408560482016
2331.331331331331 0.3970855034201984
2341.3413413413414 0.3969922296723685
2351.3513513513512 0.3968602109867052
2361.3613613613616 0.3966889393550804
2371.3713713713714 0.3964781834959847
2381.3813813813813 0.39622795092216384
2391.391391391391 0.3959384522075821
2401.4014014014015 0.3956100681049685
2411.4114114114113 0.3952433198564065
2421.4214214214217 0.39483884280934695
2431.4314314314315 0.3943973632868553
2441.4414414414414 0.3939196785511251
2451.4514514514512 0.3934066396314604
2461.4614614614616 0.3928591367515863
2471.4714714714714 0.392278087077624
2481.4814814814818 0.3916644245103796
2491.4914914914916 0.3910190912583015
2501.5015015015015 0.39034303094650624
2511.5115115115113 0.3896371830396571
2521.521521521521 0.3889024783801151
2531.5315315315315 0.3881398356662254
2541.541541541542 0.3873501587179642
2551.5515515515517 0.3865343343978775
2561.5615615615616 0.3856932310740261
2571.5715715715714 0.3848276975284443
2581.5815815815813 0.3839385622293738
2591.5915915915916 0.3830266328984474
2601.6016016016015 0.38209269631512227
2611.611611611612 0.3811375183102414
2621.6216216216217 0.3801618439087519
2631.6316316316315 0.37916639758853493
2641.6416416416414 0.37815188362814833
2651.6516516516517 0.3771189865212001
2661.6616616616616 0.37606837143918176
2671.671671671672 0.3750006847280383
2681.6816816816818 0.3739165544266021
2691.6916916916916 0.3728165907973977
2701.7017017017015 0.37170138686227155
2711.711711711712 0.37057151893693085
2721.7217217217217 0.36942754715978604
2731.731731731732 0.3682700160115838
2741.741741741742 0.36709945482320283
2751.7517517517517 0.36591637826968726
2761.7617617617616 0.364721286849191
2771.7717717717715 0.36351466734594906
2781.781781781782 0.36229699327677845
2791.791791791792 0.3610687253208943
2801.801801801802 0.3598303117330557
2811.811811811812 0.3585821887402383
2821.8218218218217 0.35732478092215875
2831.8318318318316 0.3560585015760791
2841.841841841842 0.354783753066391
2851.851851851852 0.3535009271595335
2861.861861861862 0.35221040534481923
2871.871871871872 0.3509125591417745
2881.881881881882 0.3496077503945991
2891.8918918918916 0.3482963315543472
2901.901901901902 0.34697864594942973
2911.911911911912 0.3456550280450156
2921.921921921922 0.34432580369189913
2931.931931931932 0.34299129036537707
2941.941941941942 0.34165179739465756
2951.9519519519517 0.3403076261832975
2961.961961961962 0.3389590704211491
2971.971971971972 0.33760641628825977
2981.9819819819822 0.3362499426511604
2991.991991991992 0.33488992125193967
3002.002002002002 0.33352661689049035
3012.012012012012 0.33216028760028515
3022.0220220220217 0.330791184818023
3032.032032032032 0.3295196549965491
3042.0420420420423 0.3281331734180655
3052.052052052052 0.3267411220648543
3062.062062062062 0.32534468316826676
3072.072072072072 0.32394490366420264
3082.0820820820823 0.32254270854402267
3092.092092092092 0.3211389130675172
3102.102102102102 0.3197342339210364
3112.1121121121123 0.3183292993994313
3122.122122122122 0.3169246586859422
3132.132132132132 0.3155207902997051
3142.1421421421423 0.31411810977614957
3152.152152152152 0.3127169766412975
3162.162162162162 0.31131770073685316
3172.1721721721724 0.3099205479490346
3182.1821821821823 0.3085257453903382
3192.192192192192 0.3071334860798664
3202.202202202202 0.3057439331644829
3212.2122122122123 0.30435722371990104
3222.222222222222 0.3029734721678233
3232.232232232232 0.3015927733424871
3242.2422422422424 0.30021520523736167
3252.252252252252 0.2988408314603259
3262.262262262262 0.29746970342340223
3272.2722722722724 0.2961018622910314
3282.2822822822823 0.2947373407089326
3292.292292292292 0.2933761643337892
3302.3023023023025 0.292018353182347
3312.3123123123123 0.2906639228169601
3322.322322322322 0.2893128853832084
3332.3323323323325 0.2879652505138908
3342.3423423423424 0.286621026112492
3352.352352352352 0.2852802190280985
3362.3623623623625 0.28394283563272305
3372.3723723723724 0.28260888231103193
3382.3823823823823 0.2812783658716116
3392.3923923923926 0.2799512938881066
3402.4024024024025 0.2786276749778165
3412.4124124124123 0.2773075190246682
3422.4224224224226 0.2759908373528566
3432.4324324324325 0.27467764285686974
3442.4424424424424 0.27336795009309417
3452.4524524524522 0.27206177533771114
3462.4624624624626 0.2707591366151556
3472.4724724724724 0.26946005370099924
3482.4824824824823 0.2681645481027513
3492.4924924924926 0.2668726430217313
3502.5025025025025 0.26558436329885055
3512.5125125125123 0.26429973534686174
3522.5225225225226 0.26301878707136733
3532.5325325325325 0.26174154778264624
3542.5425425425424 0.26046804810013413
3552.5525525525527 0.25919831985119823
3562.5625625625626 0.25793239596566603
3572.5725725725724 0.2566703103673965
3582.5825825825827 0.2554120978640407
3592.5925925925926 0.25415779403599364
3602.6026026026025 0.25290743512542113
3612.612612612613 0.25166105792612586
3622.6226226226227 0.2504186996749223
3632.6326326326325 0.2491803979450881
3642.642642642643 0.24794619054238665
3652.6526526526527 0.24671611540406815
3662.6626626626626 0.24549021050119574
3672.672672672673 0.24426851374458328
3682.6826826826828 0.24305106289456582
3692.6926926926926 0.24183789547478923
3702.7027027027025 0.2406290486901457
3712.712712712713 0.23942455934895698
3722.7227227227227 0.23822446378946185
3732.7327327327325 0.23702879781063552
3742.742742742743 0.23583759660734785
3752.7527527527527 0.23465089470983322
3762.7627627627626 0.2334687259274306
3772.772772772773 0.2322911232965349
3782.7827827827828 0.231118119032678
3792.7927927927926 0.2299497444866537
3802.802802802803 0.22878603010458037
3812.812812812813 0.22762700539179492
3822.8228228228227 0.22647269888045368
3832.832832832833 0.2253231381007194
3842.842842842843 0.22417834955540022
3852.8528528528527 0.22303835869790978
3862.862862862863 0.2219031899134084
3872.872872872873 0.2207728665029898
3882.8828828828828 0.2196474106707696
3892.892892892893 0.2185268435137442
3902.902902902903 0.21741118501427062
3912.912912912913 0.21630045403503842
3922.922922922923 0.21519466831639264
3932.932932932933 0.2140938444758776
3942.942942942943 0.2129979980098664
3952.9529529529527 0.21190714329715094
3962.962962962963 0.2108212936043657
3972.972972972973 0.209740461093124
3982.982982982983 0.2086646568287483
3992.992992992993 0.20759389079047816
4003.003003003003 0.20652817188305037
4013.013013013013 0.20546750794953703
4023.023023023023 0.2044119057853454
4033.033033033033 0.20336137115327654
4043.043043043043 0.20231590879954958
4053.053053053053 0.2012755224707011
4063.063063063063 0.20024021493127192
4073.073073073073 0.19920998798219894
4083.0830830830832 0.19818484247983378
4093.093093093093 0.1971647783555128
4103.103103103103 0.19614979463560575
4113.113113113113 0.19513988946198005
4123.123123123123 0.19413506011280954
4133.133133133133 0.1931353030236756
4143.143143143143 0.19214061380889724
4153.153153153153 0.1911509872830405
4163.163163163163 0.19016641748255428
4173.173173173173 0.18918689768748653
4183.183183183183 0.18821242044323805
4193.193193193193 0.18724297758230862
4203.203203203203 0.18627856024600062
4213.213213213214 0.18531915890604417
4223.223223223224 0.18436476338610655
4233.2332332332335 0.1834153628831605
4243.243243243243 0.18247094598867952
4253.253253253253 0.18153150070963356
4263.263263263263 0.18059701448926535
4273.273273273273 0.17966747422761944
4283.283283283283 0.17874286630180888
4293.293293293293 0.17782317658599886
4303.303303303303 0.17690839047109153
4313.313313313313 0.17599849288409786
4323.323323323323 0.17509346830718175
4333.333333333334 0.1741933007963676
4343.343343343344 0.17329797399989838
4353.353353353354 0.1724074711762366
4363.3633633633635 0.17152177521170034
4373.373373373373 0.17064086863772948
4383.383383383383 0.16976473364777286
4393.393393393393 0.1688933521137973
4403.403403403403 0.16802670560241104
4413.413413413413 0.16716477539060107
4423.423423423424 0.1663075424810831
4433.4334334334335 0.1654549876172628
4443.443443443443 0.16460709129780812
4453.453453453454 0.16376383379083445
4463.463463463464 0.16292519514770365
4473.473473473474 0.16209115521643752
4483.483483483484 0.1612616936547508
4493.493493493494 0.16043678994270405
4503.503503503503 0.1596164233949824
4513.513513513513 0.15880057317280208
4523.523523523523 0.15798921829544926
4533.533533533533 0.15718233765145764
4543.543543543543 0.1563799100094273
4553.553553553554 0.15558191402849147
4563.563563563564 0.15478832826843655
4573.573573573573 0.15399913119948033
4583.583583583584 0.1532143012117155
4593.593593593594 0.1524338166242238
4603.603603603604 0.15165765569386616
4613.613613613614 0.1508857966237579
4623.623623623624 0.15011821757143176
4633.6336336336335 0.14935489665669832
4643.643643643643 0.14859581196920973
4653.653653653653 0.14784094157573152
4663.663663663663 0.14709026352713234
4673.673673673674 0.1463437558650951
4683.683683683684 0.1456013966285596
4693.693693693694 0.14486316385989995
4703.703703703704 0.14412903561084647
4713.713713713714 0.14339898994815675
4723.723723723724 0.14267300495904364
4733.733733733734 0.14195105875636602
4743.743743743744 0.14123312948358996
4753.753753753754 0.14051919531952506
4763.763763763764 0.13980923448284496
4773.773773773773 0.13910322523639496
4783.783783783783 0.13840114589129698
4793.793793793793 0.13770297481085447
4803.803803803804 0.13700869041426514
4813.813813813814 0.13631827118014858
4823.823823823824 0.13563169564989147
4833.833833833834 0.1349489424308197
4843.843843843844 0.13426999019920058
4853.853853853854 0.13359481770308218
4863.863863863864 0.1329234037649747
4873.873873873874 0.1322557272843791
4883.883883883884 0.13159176724016877
4893.893893893894 0.13093150269282947
4903.9039039039035 0.13027491278656134
4913.913913913913 0.1296219767512499
4923.923923923924 0.128972673904309
4933.933933933934 0.12832698365240172
4943.943943943944 0.12768488549304308
4953.953953953955 0.12704635901608885
4963.9639639639645 0.12641138390511691
4973.973973973974 0.12577993993870104
4983.983983983984 0.12515200699158666
4993.993993993994 0.12452756503576816
5004.004004004004 0.12390659414147397
5014.014014014014 0.12328907447806318
5024.024024024024 0.12267498631483542
5034.0340340340335 0.12206431002176102
5044.044044044043 0.12145702607013134
5054.054054054054 0.12085311503313531
5064.064064064064 0.12025255758636375
5074.074074074074 0.11965533450824614
5084.084084084085 0.11906142668042069
5094.0940940940945 0.1184708150880446
5104.104104104104 0.11788348082004228
5114.114114114114 0.1172994050692986
5124.124124124124 0.11671856913279806
5134.134134134134 0.1161409544117123
5144.144144144144 0.11556654241143914
5154.154154154154 0.11499531474159573
5164.1641641641645 0.1144272531159668
5174.174174174174 0.1138623393524126
5184.184184184184 0.11330055537273621
5194.194194194194 0.1127418832025142
5204.204204204204 0.11218630497089217
5214.214214214214 0.11163380291034643
5224.224224224225 0.11108435935641477
5234.2342342342345 0.11053795674739755
5244.244244244244 0.1099945776240306
5254.254254254254 0.10945420462913302
5264.264264264264 0.10891682050722887
5274.274274274274 0.10838240810414788
5284.284284284285 0.10785095036660315
5294.294294294295 0.10732243034174967
5304.304304304304 0.10679683117672381
5314.314314314314 0.10627413611816629
5324.324324324324 0.10575432851172795
5334.334334334334 0.10523739180156189
5344.344344344345 0.10472330952980129
5354.354354354355 0.10421206533602499
5364.3643643643645 0.10370364295671149
5374.374374374374 0.10319802622468278
5384.384384384384 0.1026951990685385
5394.394394394394 0.10219514551208145
5404.404404404404 0.10169784967373592
5414.414414414415 0.10120329576595885
5424.424424424425 0.10071146809464525
5434.4344344344345 0.10022235105852831
5444.444444444444 0.09973592914857463
5454.454454454454 0.09925218694737674
5464.464464464464 0.09877110912854135
5474.474474474475 0.09829268045607573
5484.484484484485 0.09781688578377211
5494.494494494495 0.09734371005459039
5504.504504504504 0.0968731383000407
5514.514514514514 0.09640515563956492
5524.524524524524 0.09593974727991898
5534.534534534535 0.0954768985145553
5544.544544544545 0.09501659472300683
5554.554554554555 0.09455882137027176
5564.5645645645645 0.09410356400620075
5574.574574574574 0.09365080826488623
5584.584584584584 0.09320053986405359
5594.594594594595 0.09275274460445582
5604.604604604605 0.09230740836927138
5614.614614614615 0.09186451712350449
5624.624624624625 0.09142405691338999
5634.6346346346345 0.0909860138658018
5644.644644644644 0.09055037418766491
5654.654654654654 0.09011712416537256
5664.664664664665 0.08968625016420675
5674.674674674675 0.08925773862776472
5684.684684684685 0.08883157607738865
5694.694694694695 0.08840774911160147
5704.704704704704 0.08798624440554723
5714.714714714714 0.08756704871043655
5724.724724724725 0.08715014885299747
5734.734734734735 0.08673553173493156
5744.744744744745 0.08632318433237546
5754.754754754755 0.0859130936953678
5764.764764764765 0.08550524694732195
5774.774774774774 0.08509963128450407
5784.784784784785 0.08469623397551687
5794.794794794795 0.08429504236078925
5804.804804804805 0.08389604385207114
5814.814814814815 0.08349922593193468
5824.824824824825 0.08310457615328071
5834.8348348348345 0.08271208213885094
5844.844844844845 0.08232173158074627
5854.854854854855 0.08193351223995043
5864.864864864865 0.08154741194585922
5874.874874874875 0.0811634185958161
5884.884884884885 0.08078152015465268
5894.894894894895 0.08040170465423518
5904.9049049049045 0.08002396019301655
5914.914914914915 0.07964827493559404
5924.924924924925 0.07927463711227244
5934.934934934935 0.07890303501863231
5944.944944944945 0.07853345701510446
5954.954954954955 0.07816589152654893
5964.964964964965 0.07780032704183995
5974.974974974975 0.07743675211345581
5984.984984984985 0.07707515535707413
5994.994994994995 0.07671552545117213
6005.005005005005 0.07635785113663186
6015.015015015015 0.07600212121635098
6025.025025025025 0.07564832455485791
6035.035035035035 0.07529645007793198
6045.045045045045 0.07494648677222886
6055.055055055055 0.07459842368490999
6065.065065065065 0.0742522499232772
6075.075075075075 0.07390795465441194
6085.085085085085 0.07356552710481849
6095.0950950950955 0.07322495656007254
6105.105105105105 0.07288623236447316
6115.115115115115 0.07254934392069977
6125.125125125125 0.07221428068947297
6135.135135135135 0.07188103218921989
6145.145145145145 0.07154958799574297
6155.155155155155 0.07121993774189353
6165.1651651651655 0.07089207111724856
6175.175175175175 0.07056597786779216
6185.185185185185 0.07024164779559952
6195.195195195195 0.0699190707585262
6205.205205205205 0.06959823666989959
6215.215215215215 0.06927913549821473
6225.225225225226 0.06896175726683355
6235.235235235235 0.06864609205368706
6245.245245245245 0.06833212999098148
6255.255255255255 0.06801986126490726
