#lamb flux
1000.0 6.313850448072326e-07
1010.01001001001 7.726148315542264e-07
1020.0200200200201 9.412372352163188e-07
1030.03003003003 1.1417234700147913e-06
1040.0400400400401 1.379128383837983e-06
1050.05005005005 1.6591451736342885e-06
1060.06006006006 1.988162638183694e-06
1070.07007007007 2.373324827444527e-06
1080.08008008008 2.8225929226500256e-06
1090.0900900900901 3.3448091569803707e-06
1100.1001001001 3.949762563231664e-06
1110.11011011011 4.648256312692546e-06
1120.1201201201202 5.452176388660929e-06
1130.13013013013 6.374561318902024e-06
1140.1401401401401 7.429672674056333e-06
1150.1501501501502 8.633066023723317e-06
1160.16016016016 1.0001662028814793e-05
1170.1701701701702 1.1553817337906855e-05
1180.1801801801803 1.3309394946811497e-05
1190.1901901901902 1.5289833674497575e-05
1200.2002002002002 1.751821640485347e-05
1210.2102102102103 2.001933674260405e-05
1220.2202202202202 2.2819763732961618e-05
1230.2302302302303 2.594790429825937e-05
1240.2402402402402 2.9434063050819783e-05
1250.2502502502502 3.3310497107050915e-05
1260.2602602602603 3.76114661116977e-05
1270.2702702702702 4.237327808718747e-05
1280.2802802802803 4.763435392913983e-05
1290.2902902902902 5.3435259142184524e-05
1300.3003003003003 5.981874119247819e-05
1310.3103103103103 6.68297621856049e-05
1320.3203203203202 7.451552664823114e-05
1330.3303303303303 8.29255042134077e-05
1340.3403403403404 9.211144703185171e-05
1350.3503503503503 0.00010212740175470957
1360.3603603603603 0.00011302971595702077
1370.3703703703704 0.00012487703889519085
1380.3803803803803 0.00013773031651612418
1390.3903903903904 0.00015165278065999387
1400.4004004004005 0.00016670993242290881
1410.4104104104103 0.0001829695196697199
1420.4204204204204 0.00020050150871083836
1430.4304304304305 0.00021937805017997904
1440.4404404404404 0.00023967343917222618
1450.4504504504505 0.00026146406972345893
1460.4604604604606 0.0002848283837330181
1470.4704704704704 0.0003098468144513631
1480.4804804804805 0.0003366017246733381
1490.4904904904906 0.0003651773397953962
1500.5005005005005 0.000395659675911774
1510.5105105105106 0.00042813646314000657
1520.5205205205207 0.0004626970643803456
1530.5305305305305 0.0004994323897265623
1540.5405405405404 0.0005384348067572669
1550.5505505505505 0.0005797980469471535
1560.5605605605606 0.0006236171084467235
1570.5705705705705 0.0006699881554866744
1580.5805805805805 0.0007190084146697204
1590.5905905905906 0.0007707760684177704
1600.6006006006005 0.0008253901458463974
1610.6106106106106 0.0008829504113413235
1620.6206206206207 0.0009435572511132526
1630.6306306306305 0.001007311558007918
1640.6406406406406 0.0010743146148476492
1650.6506506506507 0.0011446679765790581
1660.6606606606606 0.0012184733514991268
1670.6706706706707 0.0012958324818282362
1680.6806806806808 0.0013768470238945763
1690.6906906906906 0.0014616184281892209
1700.7007007007007 0.0015502478244548599
1710.7107107107108 0.0016428359143739698
1720.7207207207207 0.001739482816335941
1730.7307307307308 0.0018402879637706808
1740.7407407407409 0.0019453499907992951
1750.7507507507507 0.0020547666165675613
1760.7607607607606 0.0021686345310777426
1770.770770770771 0.002287049282721532
1780.7807807807808 0.0024101051677096097
1790.7907907907907 0.0025378951215868774
1800.8008008008007 0.0026705106130170417
1810.8108108108108 0.002808041540015755
1820.8208208208207 0.0029505761288095796
1830.8308308308308 0.0030982008354971894
1840.8408408408409 0.0032510002506919242
1850.8508508508507 0.003409057007330266
1860.8608608608608 0.003572451691840005
1870.870870870871 0.0037412627588756684
1880.8808808808808 0.003915566449846417
1890.890890890891 0.004095436715484949
1900.900900900901 0.004280945142732673
1910.9109109109108 0.004472160886247146
1920.920920920921 0.004669150604869636
1930.930930930931 0.004871978403420432
1940.940940940941 0.005080705780212428
1950.950950950951 0.005295391580681887
1960.960960960961 0.005516091957519038
1970.970970970971 0.005742860337628894
1980.980980980981 0.005975747396148904
1990.9909909909911 0.006214801037580276
2001.001001001001 0.006460066383840111
2011.0110110110109 0.0067115857687027524
2021.0210210210212 0.0069693987376731655
2031.031031031031 0.007233542051838853
2041.0410410410411 0.007504049693717418
2051.051051051051 0.007780952872619476
2061.061061061061 0.008064280026665004
2071.071071071071 0.008354056818432818
2081.081081081081 0.008650306121390484
2091.091091091091 0.008953047994827785
2101.101101101101 0.009262299646031844
2111.1111111111113 0.009578075379849497
2121.121121121121 0.009900386537440745
2131.131131131131 0.01022924142771775
2141.141141141141 0.010564645256410626
2151.151151151151 0.010906600058636065
2161.161161161161 0.011255104641067581
2171.1711711711714 0.011610154539241024
2181.1811811811813 0.011971741994244967
2191.191191191191 0.01233985595125486
2201.201201201201 0.012714482080365007
2211.2112112112113 0.01309560281827163
2221.221221221221 0.013483197427824072
2231.2312312312315 0.013877242071463793
2241.2412412412414 0.01427770989415442
2251.2512512512512 0.01468457111152565
2261.261261261261 0.015097793099478203
2271.271271271271 0.015517340482272922
2281.2812812812813 0.015943175216997924
2291.2912912912916 0.01637525667315173
2301.3013013013015 0.01681354170680854
2311.3113113113113 0.01725798472940297
2321.321321321321 0.01770853777157338
2331.331331331331 0.01816515054274841
2341.3413413413414 0.018627770487276388
2351.3513513513512 0.019096342837916253
2361.3613613613616 0.01957081066745709
2371.3713713713714 0.020051114939144223
2381.3813813813813 0.02053719455647916
2391.391391391391 0.021028986412846763
2401.4014014014015 0.02152642544131268
2411.4114114114113 0.02202944466483817
2421.4214214214217 0.02253797524707476
2431.4314314314315 0.023051946543832733
2441.4414414414414 0.02357128615526329
2451.4514514514512 0.024095919978751486
2461.4614614614616 0.024625772262486762
2471.4714714714714 0.025160765659654007
2481.4814814814818 0.02570082128317595
2491.4914914914916 0.026245858760923873
2501.5015015015015 0.02679579629131342
2511.5115115115113 0.02735055069919607
2521.521521521521 0.02791003749196006
2531.5315315315315 0.028474170915754982
2541.541541541542 0.029042864011758374
2551.5515515515517 0.029616028672405863
2561.5615615615616 0.03019357569751079
2571.5715715715714 0.03077541485020313
2581.5815815815813 0.03136145491262389
2591.5915915915916 0.0319516037413119
2601.6016016016015 0.032545768322228316
2611.611611611612 0.0331438548253647
2621.6216216216217 0.03374576865888694
2631.6316316316315 0.034351414522768346
2641.6416416416414 0.03496069646187124
2651.6516516516517 0.035573517918437964
2661.6616616616616 0.03618978178395512
2671.671671671672 0.036809390450358824
2681.6816816816818 0.0374322458605497
2691.6916916916916 0.03805824955819145
2701.7017017017015 0.0386873027367651
2711.711711711712 0.03931930628785795
2721.7217217217217 0.03995416084866427
2731.731731731732 0.04059176684867948
2741.741741741742 0.04123202455556928
2751.7517517517517 0.041874834120199225
2761.7617617617616 0.04252009562080949
2771.7717717717715 0.04316770910632312
2781.781781781782 0.04381757463877609
2791.791791791792 0.04446959233486033
2801.801801801802 0.04512366240657013
2811.811811811812 0.04577968520094709
2821.8218218218217 0.04643756123891492
2831.8318318318316 0.04709719125320274
2841.841841841842 0.04775847622535014
2851.851851851852 0.048421317421794965
2861.861861861862 0.04908561642903913
2871.871871871872 0.04975127518789405
2881.881881881882 0.0504181960268066
2891.8918918918916 0.05108628169426411
2901.901901901902 0.05175543539028456
2911.911911911912 0.052425560796990706
2921.921921921922 0.053096562108276305
2931.931931931932 0.05376834405856441
2941.941941941942 0.05444081195066662
2951.9519519519517 0.0551138716827466
2961.961961961962 0.05578742977439523
2971.971971971972 0.05646139339182386
2981.9819819819822 0.05713567037218455
2991.991991991992 0.05781016924702207
3002.002002002002 0.058484799264870733
3012.012012012012 0.05915947041300027
3022.0220220220217 0.05983409343832332
3032.032032032032 0.06050877054849952
3042.0420420420423 0.061183011348250715
3052.052052052052 0.06185693340517773
3062.062062062062 0.06253045227799421
3072.072072072072 0.06320348422517072
3082.0820820820823 0.06387594623099953
3092.092092092092 0.06454775603042118
3102.102102102102 0.06521883213264008
3112.1121121121123 0.06588909384355325
3122.122122122122 0.06655846128702064
3132.132132132132 0.06722685542500378
3142.1421421421423 0.06789419807659774
3152.152152152152 0.06856041193598368
3162.162162162162 0.06922542058933145
3172.1721721721724 0.0698891485306736
3182.1821821821823 0.07055152117678304
3192.192192192192 0.07121246488107592
3202.202202202202 0.07187190694656842
3212.2122122122123 0.07252977563791412
3222.222222222222 0.07318600019254383
3232.232232232232 0.07384051083093857
3242.2422422422424 0.07449323876605601
3252.252252252252 0.07514411621193876
3262.262262262262 0.07579307639152601
3272.2722722722724 0.0764400535436954
3282.2822822822823 0.07708498292955711
3292.292292292292 0.07772780083802373
3302.3023023023025 0.07836844459067953
3312.3123123123123 0.0790068525459716
3322.322322322322 0.07964296410274437
3332.3323323323325 0.08027671970314015
3342.3423423423424 0.08090806083488677
3352.352352352352 0.08153693003299295
3362.3623623623625 0.08216327088087234
3372.3723723723724 0.0827870280109164
3382.3823823823823 0.08340814710453513
3392.3923923923926 0.08402657489168618
3402.4024024024025 0.08464225914990911
3412.4124124124123 0.08525514870288595
3422.4224224224226 0.08586519341854329
3432.4324324324325 0.08647234420671565
3442.4424424424424 0.08707655301638585
3452.4524524524522 0.08767777283251951
3462.4624624624626 0.08827595767251079
3472.4724724724724 0.08887106258225375
3482.4824824824823 0.08946304363185602
3492.4924924924926 0.09005185791100985
3502.5025025025025 0.09063746352403457
3512.5125125125123 0.09121981958460526
3522.5225225225226 0.09179888621018166
3532.5325325325325 0.0923746245161503
3542.5425425425424 0.0929469966096943
3552.5525525525527 0.09351596558340172
3562.5625625625626 0.09408149550862736
3572.5725725725724 0.09464355142861794
3582.5825825825827 0.09520209935141366
3592.5925925925926 0.09575710624253757
3602.6026026026025 0.0963085400174826
3612.612612612613 0.09685636953401049
3622.6226226226227 0.09740056458426684
3632.6326326326325 0.0979410958867304
3642.642642642643 0.0984779350779988
3652.6526526526527 0.09901105470442632
3662.6626626626626 0.09954042821361851
3672.672672672673 0.10006602994579678
3682.6826826826828 0.1005878351250365
3692.6926926926926 0.10110581985039305
3702.7027027027025 0.1016199610869186
3712.712712712713 0.10213023665658101
3722.7227227227227 0.10263662522909112
3732.7327327327325 0.10313910631264542
3742.742742742743 0.10363766024459302
3752.7527527527527 0.1041322681820316
3762.7627627627626 0.10462291209234009
3772.772772772773 0.10510957474365586
3782.7827827827828 0.10559223969529968
3792.7927927927926 0.10607089128815707
3802.802802802803 0.10654551463502104
3812.812812812813 0.10701609561090156
3822.8228228228227 0.10748262084330658
3832.832832832833 0.10794507770250224
3842.842842842843 0.10840345429175391
3852.8528528528527 0.10885773943755672
3862.862862862863 0.10930792267985608
3872.872872872873 0.10975399426226642
3882.8828828828828 0.11019594512228992
3892.892892892893 0.11063376688154195
3902.902902902903 0.11106745183598361
3912.912912912913 0.1114969929461691
3922.922922922923 0.111922383827509
3932.932932932933 0.11234361874055437
3942.942942942943 0.11276069258130413
3952.9529529529527 0.11317360087154021
3962.962962962963 0.11358233974919234
3972.972972972973 0.11398690595873626
3982.982982982983 0.11438729684162909
3992.992992992993 0.11478351032678151
4003.003003003003 0.11517554492107356
4013.013013013013 0.11556339969991387
4023.023023023023 0.11594707429784547
4033.033033033033 0.11632656889920054
4043.043043043043 0.11670188422880613
4053.053053053053 0.11707302154274357
4063.063063063063 0.11743998261916286
4073.073073073073 0.11780276974915405
4083.0830830830832 0.11816138572767773
4093.093093093093 0.11851583384455718
4103.103103103103 0.11886611787553066
4113.113113113113 0.11921224207337072
4123.123123123123 0.11955421115906577
4133.133133133133 0.119892030313071
4143.143143143143 0.12022570516662577
4153.153153153153 0.12055524179314119
4163.163163163163 0.1208806466996582
4173.173173173173 0.12120192681837676
4183.183183183183 0.12151908949825845
4193.193193193193 0.12183214249670186
4203.203203203203 0.12214109397129301
4213.213213213214 0.12244595247163173
4223.223223223224 0.12274672693123236
4233.2332332332335 0.1230434266595032
4243.243243243243 0.12333606133380298
4253.253253253253 0.12362464099157408
4263.263263263263 0.1239091760225563
4273.273273273273 0.12418967716107902
4283.283283283283 0.12446615547843265
4293.293293293293 0.1247386223753202
4303.303303303303 0.1250070895743902
4313.313313313313 0.1252715691128488
4323.323323323323 0.12553207333515368
4333.333333333334 0.12578861488578935
4343.343343343344 0.12604120670212313
4353.353353353354 0.12628986200734335
4363.3633633633635 0.1265345943034785
4373.373373373373 0.12677541736449907
4383.383383383383 0.1270123452294994
4393.393393393393 0.12724539219596365
4403.403403403403 0.12747457281311164
4413.413413413413 0.12769990187532665
4423.423423423424 0.12792139441566605
4433.4334334334335 0.12813906569945135
4443.443443443443 0.1283529312179417
4453.453453453454 0.1285630066820868
4463.463463463464 0.12876930801636233
4473.473473473474 0.12897185135268455
4483.483483483484 0.1291706530244064
4493.493493493494 0.1293657295603936
4503.503503503503 0.12955709767918086
4513.513513513513 0.12974477428320758
4523.523523523523 0.1299287764531322
4533.533533533533 0.13010912144222664
4543.543543543543 0.13028582667084887
4553.553553553554 0.13045890972099294
4563.563563563564 0.13062838833091844
4573.573573573573 0.1307942803898553
4583.583583583584 0.13095660393278719
4593.593593593594 0.13111537713531093
4603.603603603604 0.13127061830857095
4613.613613613614 0.13142234589427154
4623.623623623624 0.1315705784597616
4633.6336336336335 0.1317153346931953
4643.643643643643 0.13185663339876735
4653.653653653653 0.1319944934920201
4663.663663663663 0.13212893399522593
4673.673673673674 0.1322599740328391
4683.683683683684 0.13238763282702257
4693.693693693694 0.13251192969324443
4703.703703703704 0.1326328840359452
4713.713713713714 0.1327505153442759
4723.723723723724 0.1328648431879053
4733.733733733734 0.13297588721289633
4743.743743743744 0.1330836671376512
4753.753753753754 0.1331882027489239
4763.763763763764 0.13328951389790009
4773.773773773773 0.1333876204963435
4783.783783783783 0.1334825425128092
4793.793793793793 0.13357429996892087
4803.803803803804 0.13366291293571336
4813.813813813814 0.1337484015300401
4823.823823823824 0.13383078591104308
4833.833833833834 0.13391008627668594
4843.843843843844 0.13398632286035
4853.853853853854 0.13405951592749027
4863.863863863864 0.1341296857723545
4873.873873873874 0.13419685271476078
4883.883883883884 0.13426103709693565
4893.893893893894 0.13432225928041142
4903.9039039039035 0.13438053964298124
4913.913913913913 0.1344358985757126
4923.923923923924 0.1344883564800171
4933.933933933934 0.13453793376477763
4943.943943943944 0.13458465084353094
4953.953953953955 0.13462852813170512
4963.9639639639645 0.13466958604391183
4973.973973973974 0.1347078449912929
4983.983983983984 0.13474332537891956
4993.993993993994 0.13477604760324435
5004.004004004004 0.13480603204960542
5014.014014014014 0.1348332990897818
5024.024024024024 0.13485786907959987
5034.0340340340335 0.13487976235658905
5044.044044044043 0.13489899923768786
5054.054054054054 0.13491560001699857
5064.064064064064 0.13492958496358984
5074.074074074074 0.13494097431934723
5084.084084084085 0.13494978829687035
5094.0940940940945 0.13495604707741668
5104.104104104104 0.1349597708088913
5114.114114114114 0.1349609796038815
5124.124124124124 0.1349596935377357
5134.134134134134 0.13495593264668698
5144.144144144144 0.13494971692601937
5154.154154154154 0.13494106632827754
5164.1641641641645 0.1349300007615177
5174.174174174174 0.1349165400876014
5184.184184184184 0.13490070412052863
5194.194194194194 0.13488251262481363
5204.204204204204 0.13486198531389798
5214.214214214214 0.13483914184860496
5224.224224224225 0.1348140018356318
5234.2342342342345 0.1347865848260804
5244.244244244244 0.13475691031402498
5254.254254254254 0.13472499773511823
5264.264264264264 0.13469086646523173
5274.274274274274 0.13465453581913503
5284.284284284285 0.13461602504920733
5294.294294294295 0.13457535334418724
5304.304304304304 0.13453253982795332
5314.314314314314 0.13448760355834186
5324.324324324324 0.13444056352599523
5334.334334334334 0.13439143865324538
5344.344344344345 0.13434024779302728
5354.354354354355 0.1342870097278266
5364.3643643643645 0.13423174316865596
5374.374374374374 0.13417446675406533
5384.384384384384 0.1341151990491793
5394.394394394394 0.13405395854476648
5404.404404404404 0.1339907636563373
5414.414414414415 0.1339256327232708
5424.424424424425 0.13385858400797035
5434.4344344344345 0.1337896356950462
5444.444444444444 0.13371880589052623
5454.454454454454 0.1336461126210941
5464.464464464464 0.13357157383335277
5474.474474474475 0.13349520739311552
5484.484484484485 0.13341703108472097
5494.494494494495 0.13333706261037515
5504.504504504504 0.1332553195895172
5514.514514514514 0.13317181955820945
5524.524524524524 0.13308657996855203
5534.534534534535 0.13299961818812053
5544.544544544545 0.13291095149942725
5554.554554554555 0.13282059709940428
5564.5645645645645 0.1327285720989099
5574.574574574574 0.1326348935222563
5584.584584584584 0.1325395783067591
5594.594594594595 0.13244264330230715
5604.604604604605 0.13234410527095486
5614.614614614615 0.13224398088653283
5624.624624624625 0.13214228673427963
5634.6346346346345 0.13203903931049354
5644.644644644644 0.131934255022202
5654.654654654654 0.1318279501868517
5664.664664664665 0.13172014103201624
5674.674674674675 0.13161084369512152
5684.684684684685 0.13150007422319063
5694.694694694695 0.13138784857260427
5704.704704704704 0.1312741826088798
5714.714714714714 0.13115909210646612
5724.724724724725 0.1310425927485558
5734.734734734735 0.13092470012691235
5744.744744744745 0.13080542974171527
5754.754754754755 0.13068479700141789
5764.764764764765 0.13056281722262264
5774.774774774774 0.13043950562997084
5784.784784784785 0.13031487735604563
5794.794794794795 0.13018894744129128
5804.804804804805 0.13006173083394504
5814.814814814815 0.12993324238998294
5824.824824824825 0.12980349687308027
5834.8348348348345 0.12967250895458254
5844.844844844845 0.12954029321349292
5854.854854854855 0.1294068641364686
5864.864864864865 0.12927223611783203
5874.874874874875 0.12913642345959322
5884.884884884885 0.12899944037148425
5894.894894894895 0.12886130097100437
5904.9049049049045 0.12872201928347746
5914.914914914915 0.12858160924212014
5924.924924924925 0.12844008468812074
5934.934934934935 0.12829745937072784
5944.944944944945 0.12815374694735138
5954.954954954955 0.12800896098367093
5964.964964964965 0.12786311495375616
5974.974974974975 0.12771622224019563
5984.984984984985 0.1275682961342353
5994.994994994995 0.12741934983592648
6005.005005005005 0.12726939645428187
6015.015015015015 0.12711844900744126
6025.025025025025 0.12696652042284523
6035.035035035035 0.12681362353741735
6045.045045045045 0.1266597710977537
6055.055055055055 0.12650497576032194
6065.065065065065 0.12634925009166612
6075.075075075075 0.12619260656862014
6085.085085085085 0.12603505757852854
6095.0950950950955 0.12587661541947404
6105.105105105105 0.12571729230051115
6115.115115115115 0.12555710034190895
6125.125125125125 0.1253960515753974
6135.135135135135 0.12523415794442275
6145.145145145145 0.12507143130440684
6155.155155155155 0.1249078834230143
