#lamb flux
1000.0 1.7261667495917332e-14
1010.01001001001 2.5973160060141302e-14
1020.0200200200201 3.8750040210498904e-14
1030.03003003003 5.733696166916945e-14
1040.0400400400401 8.416236026785363e-14
1050.05005005005 1.2258105178267423e-13
1060.06006006006 1.771938345435652e-13
1070.07007007007 2.542656099679602e-13
1080.08008008008 3.622686963309511e-13
1090.0900900900901 5.125841947990982e-13
1100.1001001001 7.204016257665875e-13
1110.11011011011 1.005865755449669e-12
1120.1201201201202 1.3955297586924754e-12
1130.13013013013 1.9241858081629657e-12
1140.1401401401401 2.637158048794191e-12
1150.1501501501502 3.593158926517544e-12
1160.16016016016 4.867828218379823e-12
1170.1701701701702 6.5580950907204376e-12
1180.1801801801803 8.78752733198555e-12
1190.1901901901902 1.1712858808223067e-11
1200.2002002002002 1.553191641315146e-11
1210.2102102102103 2.0493201568046448e-11
1220.2202202202202 2.6907418899526853e-11
1230.2302302302303 3.516128630469953e-11
1240.2402402402402 4.573400640731252e-11
1250.2502502502502 5.921682596994528e-11
1260.2602602602603 7.633616568785472e-11
1270.2702702702702 9.798086258573228e-11
1280.2802802802803 1.2523419037263416e-10
1290.2902902902902 1.5941123490886537e-10
1300.3003003003003 2.021024425241121e-10
1310.3103103103103 2.552241558056149e-10
1320.3203203203202 3.2107705073431453e-10
1330.3303303303303 4.024134773996941e-10
1340.3403403403404 5.025147994246736e-10
1350.3503503503503 6.252799244677791e-10
1360.3603603603603 7.753263194722437e-10
1370.3703703703704 9.581049093776378e-10
1380.3803803803803 1.180030366418718e-09
1390.3903903903904 1.4486284084732007e-09
1400.4004004004005 1.7727018386936463e-09
1410.4104104104103 2.1625171743258573e-09
1420.4204204204204 2.6300138295796504e-09
1430.4304304304305 3.189037935035304e-09
1440.4404404404404 3.855602993650371e-09
1450.4504504504505 4.6481796902448935e-09
1460.4604604604606 5.588017286624022e-09
1470.4704704704704 6.699499147441016e-09
1480.4804804804805 8.010535051689782e-09
1490.4904904904906 9.552993050491827e-09
1500.5005005005005 1.1363173732749382e-08
1510.5105105105106 1.3482329855403172e-08
1520.5205205205207 1.5957234383581322e-08
1530.5305305305305 1.8840800066998538e-08
1540.5405405405404 2.2192753751690928e-08
1550.5505505505505 2.6080368689719885e-08
1560.5605605605606 3.057925816303605e-08
1570.5705705705705 3.577423378046503e-08
1580.5805805805805 4.1760231838029644e-08
1590.5905905905906 4.864331115183793e-08
1600.6006006006005 5.654172577889722e-08
1610.6106106106106 6.558707603386159e-08
1620.6206206206207 7.592554118832241e-08
1630.6306306306305 8.771919720336037e-08
1640.6406406406406 1.0114742279524789e-07
1650.6506506506507 1.1640839706808744e-07
1660.6606606606606 1.3372069186556688e-07
1670.6706706706707 1.5332496189662857e-07
1680.6806806806808 1.7548573557666395e-07
1690.6906906906906 2.004933093967638e-07
1700.7007007007007 2.286657492128093e-07
1710.7107107107108 2.6035100170599964e-07
1720.7207207207207 2.959291095183523e-07
1730.7307307307308 3.3581454666806395e-07
1740.7407407407409 3.8045866746481445e-07
1750.7507507507507 4.303522718810767e-07
1760.7607607607606 4.860282892151653e-07
1770.770770770771 5.480645812773817e-07
1780.7807807807808 6.170868660713056e-07
1790.7907907907907 6.937717626719567e-07
1800.8008008008007 7.788499577220187e-07
1810.8108108108108 8.731094936780757e-07
1820.8208208208207 9.773991786425562e-07
1830.8308308308308 1.0926321173150785e-06
1840.8408408408409 1.219789362291976e-06
1850.8508508508507 1.3599236846370326e-06
1860.8608608608608 1.5141634623426907e-06
1870.870870870871 1.6837166850033449e-06
1880.8808808808808 1.8698750727336522e-06
1890.890890890891 2.0740183070906655e-06
1900.900900900901 2.297618371502657e-06
1910.9109109109108 2.5422439984760276e-06
1920.920920920921 2.8095652206475616e-06
1930.930930930931 3.101358022578065e-06
1940.940940940941 3.419509090045602e-06
1950.950950950951 3.766020653489929e-06
1960.960960960961 4.143015422178879e-06
1970.970970970971 4.552741605595107e-06
1980.980980980981 4.997578018455913e-06
1990.9909909909911 5.480039265640484e-06
2001.001001001001 6.0027810030619725e-06
2011.0110110110109 6.568605270123037e-06
2021.0210210210212 7.180465888770656e-06
2031.031031031031 7.841473923255827e-06
2041.0410410410411 8.554903193464748e-06
2051.051051051051 9.324195833123265e-06
2061.061061061061 1.0152967882340339e-05
2071.071071071071 1.1045014901999899e-05
2081.081081081081 1.2004317595652743e-05
2091.091091091091 1.3035047423108719e-05
2101.101101101101 1.4141572189204452e-05
2111.1111111111113 1.5328461591528156e-05
2121.121121121121 1.6600492712375552e-05
2131.131131131131 1.796265544288687e-05
2141.141141141141 1.9420157830901547e-05
2151.151151151151 2.0978431348092747e-05
2161.161161161161 2.2643136075783677e-05
2171.1711711711714 2.442016581187353e-05
2181.1811811811813 2.6315653103e-05
2191.191191191191 2.833597420620449e-05
2201.201201201201 3.0487753982981736e-05
2211.2112112112113 3.277787072602626e-05
2221.221221221221 3.5213460915729476e-05
2231.2312312312315 3.780192390011478e-05
2241.2412412412414 4.055092648889267e-05
2251.2512512512512 4.3468407450042575e-05
2261.261261261261 4.6562581895928834e-05
2271.271271271271 4.98419455454344e-05
2281.2812812812813 5.331527884882207e-05
2291.2912912912916 5.699165096279332e-05
2301.3013013013015 6.088042356432642e-05
2311.3113113113113 6.499125449312484e-05
2321.321321321321 6.933410121374494e-05
2331.331331331331 7.39192240896377e-05
2341.3413413413414 7.875718946231875e-05
2351.3513513513512 8.385887252972567e-05
2361.3613613613616 8.923546001848151e-05
2371.3713713713714 9.489845264530916e-05
2381.3813813813813 0.0001008596673632736
2391.391391391391 0.0001071312393888485
2401.4014014014015 0.00011372562400608849
2411.4114114114113 0.00012065559814443684
2421.4214214214217 0.0001279342617269152
2431.4314314314315 0.00013557503878566172
2441.4414414414414 0.0001435916783420061
2451.4514514514512 0.0001519982550484955
2461.4614614614616 0.0001608091695905222
2471.4714714714714 0.00017003914884544135
2481.4814814814818 0.00017970324579734688
2491.4914914914916 0.00018981683920591045
2501.5015015015015 0.00020039563302798373
2511.5115115115113 0.00021145565559095182
2521.521521521521 0.00022301325851707297
2531.5315315315315 0.00023508511539839307
2541.541541541542 0.000247688220222048
2551.5515515515517 0.0002608398855461223
2561.5615615615616 0.0002745577404264785
2571.5715715715714 0.00028885972809528126
2581.5815815815813 0.00030376410339224717
2591.5915915915916 0.0003192894299498956
2601.6016016016015 0.00033545457713440434
2611.611611611612 0.00035227871674391203
2621.6216216216217 0.00036978131946640593
2631.6316316316315 0.0003879821510995919
2641.6416416416414 0.00040690126853539166
2651.6516516516517 0.0004265590155119946
2661.6616616616616 0.00044697601813659577
2671.671671671672 0.0004681731801822389
2681.6816816816818 0.0004901716781623496
2691.6916916916916 0.0005129929561868606
2701.7017017017015 0.0005366587206039354
2711.711711711712 0.0005611909344315755
2721.7217217217217 0.0005866118115835987
2731.731731731732 0.0006129438108945952
2741.741741741742 0.0006402096299487511
2751.7517517517517 0.0006684321987174723
2761.7617617617616 0.0006976346730110604
2771.7717717717715 0.0007278404277496668
2781.781781781782 0.0007590730500590711
2791.791791791792 0.0007913563321968247
2801.801801801802 0.0008247142643145045
2811.811811811812 0.0008591710270619286
2821.8218218218217 0.0008947509840392456
2831.8318318318316 0.0009314786741029871
2841.841841841842 0.0009693788035321803
2851.851851851852 0.0010084762380607628
2861.861861861862 0.0010487959947825742
2871.871871871872 0.0010903632339352824
2881.881881881882 0.0011332032505696552
2891.8918918918916 0.0011773414661106036
2901.901901901902 0.0012228034198165285
2911.911911911912 0.001269614760143428
2921.921921921922 0.0013178012360204017
2931.931931931932 0.0013673886880429921
2941.941941941942 0.0014184030395910311
2951.9519519519517 0.0014708702878774669
2961.961961961962 0.001524816494934771
2971.971971971972 0.0015802677785454293
2981.9819819819822 0.0016372503031231
2991.991991991992 0.0016957902705507669
3002.002002002002 0.001755913910982559
3012.012012012012 0.0018176474736153992
3022.0220220220217 0.0018810172174370163
3032.032032032032 0.001946055534552941
3042.0420420420423 0.002012775848222169
3052.052052052052 0.002081210800132694
3062.062062062062 0.002151386631934864
3072.072072072072 0.0022233295476415055
3082.0820820820823 0.002297065704310611
3092.092092092092 0.0023726212027523567
3102.102102102102 0.0024500220782662343
3112.1121121121123 0.0025292942914136533
3122.122122122122 0.002610463718831698
3132.132132132132 0.0026935561440933615
3142.1421421421423 0.002778597248619423
3152.152152152152 0.0028656126026471137
3162.162162162162 0.0029546276562607775
3172.1721721721724 0.0030456677304890527
3182.1821821821823 0.003138758008473781
3192.192192192192 0.0032339235267148684
3202.202202202202 0.00333118916639594
3212.2122122122123 0.003430579644795051
3222.222222222222 0.003532119506784591
3232.232232232232 0.0036358331164248157
3242.2422422422424 0.003741744648654747
3252.252252252252 0.003849878081084413
3262.262262262262 0.003960257185892156
3272.2722722722724 0.0040729055218306385
3282.2822822822823 0.004187846426345021
3292.292292292292 0.004305103007806613
3302.3023023023025 0.004424698137865261
3312.3123123123123 0.0045466544439235175
3322.322322322322 0.004670994301735607
3332.3323323323325 0.004797739828133889
3342.3423423423424 0.004926912873885618
3352.352352352352 0.005058535016682551
3362.3623623623625 0.005192627554265744
3372.3723723723724 0.005329211497687857
3382.3823823823823 0.005468307564715343
3392.3923923923926 0.005609936173372217
3402.4024024024025 0.0057541174356275995
3412.4124124124123 0.005900871151228782
3422.4224224224226 0.006050216801681411
3432.4324324324325 0.0062021735443783315
3442.4424424424424 0.006356760206878777
3452.4524524524522 0.006513995281338787
3462.4624624624626 0.006673896919094539
3472.4724724724724 0.006836482925399209
3482.4824824824823 0.007001770754314768
3492.4924924924926 0.007169777503759189
3502.5025025025025 0.007340519910710191
3512.5125125125123 0.007514014346565799
3522.5225225225226 0.007690276812662505
3532.5325325325325 0.00786932293595135
3542.5425425425424 0.008051167964832412
3552.5525525525527 0.008235826765147534
3562.5625625625626 0.008423313816332106
3572.5725725725724 0.008613643207725197
3582.5825825825827 0.008806828635038384
3592.5925925925926 0.009002883396983272
3602.6026026026025 0.00920182039205692
3612.612612612613 0.009403652115485559
3622.6226226226227 0.009608390656325383
3632.6326326326325 0.00981604769472088
3642.642642642643 0.01002663449931905
3652.6526526526527 0.010240161924839786
3662.6626626626626 0.010456640409801132
3672.672672672673 0.01067607997439895
3682.6826826826828 0.010898490218539612
3692.6926926926926 0.011123880320025507
3702.7027027027025 0.011352259032891764
3712.712712712713 0.011583634685893197
3722.7227227227227 0.011818015181140576
3732.7327327327325 0.01205540799288489
3742.742742742743 0.012295820166448085
3752.7527527527527 0.01253925831729952
3762.7627627627626 0.01278572863027601
3772.772772772773 0.01303523685894489
3782.7827827827828 0.013287788325107757
3792.7927927927926 0.013543387918443995
3802.802802802803 0.013802040096292314
3812.812812812813 0.014063748883568544
3822.8228228228227 0.01432851787281795
3832.832832832833 0.014596350224401021
3842.842842842843 0.014867248666810016
3852.8528528528527 0.015141215497115333
3862.862862862863 0.015418252581539152
3872.872872872873 0.015698361356155374
3882.8828828828828 0.01598154282771296
3892.892892892893 0.016267797574581886
3902.902902902903 0.016557125747818396
3912.912912912913 0.016849527072349206
3922.922922922923 0.0171450008482715
3932.932932932933 0.01744354595226671
3942.942942942943 0.017745160839126976
3952.9529529529527 0.018049843543391616
3962.962962962963 0.01835759168109105
3972.972972972973 0.018668402451597198
3982.982982982983 0.018982272639577732
3992.992992992993 0.01929919861705173
4003.003003003003 0.019619176345544928
4013.013013013013 0.019942201378343107
4023.023023023023 0.020268268862839996
4033.033033033033 0.02059737354297911
4043.043043043043 0.02092950976178616
4053.053053053053 0.021264671463990865
4063.063063063063 0.02160285219873516
4073.073073073073 0.02194404512236628
4083.0830830830832 0.022288243001312383
4093.093093093093 0.022635438215038398
4103.103103103103 0.02298562275908003
4113.113113113113 0.023338788248154035
4123.123123123123 0.02369492591934235
4133.133133133133 0.024054026635348006
4143.143143143143 0.024416080887820338
4153.153153153153 0.02478107880074875
4163.163163163163 0.025149010133920666
4173.173173173173 0.025519864286443993
4183.183183183183 0.025893630300329807
4193.193193193193 0.02627029686413526
4203.203203203203 0.02664985231666269
4213.213213213214 0.02703228465071435
4223.223223223224 0.027417581516900002
4233.2332332332335 0.027805730227495776
4243.243243243243 0.028196717760351583
4253.253253253253 0.028590530762845758
4263.263263263263 0.028987155555885148
4273.273273273273 0.029386578137947542
4283.283283283283 0.029788784189165987
4293.293293293293 0.03019375907545181
4303.303303303303 0.0306014878526553
4313.313313313313 0.031011955270761827
4323.323323323323 0.03142514577812115
4333.333333333334 0.0318410435257094
4343.343343343344 0.03225963237141981
4353.353353353354 0.03268089588438274
4363.3633633633635 0.033104817349311276
4373.373373373373 0.03353137977087206
4383.383383383383 0.03396056587807831
4393.393393393393 0.034392358128704614
4403.403403403403 0.03482673871372149
4413.413413413413 0.035263689561746525
4423.423423423424 0.03570319234351371
4433.4334334334335 0.03614522847635514
4443.443443443443 0.03658977912869774
4453.453453453454 0.037036825224570344
4463.463463463464 0.03748634744812082
4473.473473473474 0.03793832624814199
4483.483483483484 0.03839274184260429
4493.493493493494 0.03884957422319367
4503.503503503503 0.03930880315985411
4513.513513513513 0.03977040820533205
4523.523523523523 0.040234368699722904
4533.533533533533 0.04070066377501663
4543.543543543543 0.04116927235964255
4553.553553553554 0.041640173183010824
4563.563563563564 0.042113344780050556
4573.573573573573 0.042588765495741955
4583.583583583584 0.043066413489642685
4593.593593593594 0.04354626674040574
4603.603603603604 0.04402830305028907
4613.613613613614 0.04451250004965486
4623.623623623624 0.04499883520145774
4633.6336336336335 0.045487285805720326
4643.643643643643 0.04597782900399647
4653.653653653653 0.04647044178381862
4663.663663663663 0.04696510098313128
4673.673673673674 0.04746178329470657
4683.683683683684 0.047960465270543706
4693.693693693694 0.048461123326249335
4703.703703703704 0.04896373374539878
4713.713713713714 0.049468272683877074
4723.723723723724 0.04997471617419923
4733.733733733734 0.0504830401298079
4743.743743743744 0.05099322034934916
4753.753753753754 0.05150523252092403
4763.763763763764 0.05201905222631635
4773.773773773773 0.05253465494519445
4783.783783783783 0.05305201605928842
4793.793793793793 0.05357111085653977
4803.803803803804 0.05409191453522387
4813.813813813814 0.05461440220804555
4823.823823823824 0.055138548906204544
4833.833833833834 0.055664329583433335
4843.843843843844 0.05619171912000385
4853.853853853854 0.05672069232670486
4863.863863863864 0.0572512239487876
4873.873873873874 0.05778328866988111
4883.883883883884 0.05831686111587327
4893.893893893894 0.058851915858762725
4903.9039039039035 0.05938842742047439
4913.913913913913 0.059926370276644
4923.923923923924 0.06046571886036806
4933.933933933934 0.0610064475659182
4943.943943943944 0.06154853075242354
4953.953953953955 0.062091942747515054
4963.9639639639645 0.06263665785093687
4973.973973973974 0.06318265033811996
4983.983983983984 0.06372989446372143
4993.993993993994 0.06427836446512566
5004.004004004004 0.0648280345659099
5014.014014014014 0.06537887897927254
5024.024024024024 0.06593087191142433
5034.0340340340335 0.0664839875649411
5044.044044044043 0.06703820014208046
5054.054054054054 0.0675934838480589
5064.064064064064 0.06814981289429174
5074.074074074074 0.06870716150159485
5084.084084084085 0.0692655039033469
5094.0940940940945 0.06982481434861379
5104.104104104104 0.07038506710523434
5114.114114114114 0.07094623646286716
5124.124124124124 0.0715082967359972
5134.134134134134 0.0720712222669054
5144.144144144144 0.07263498742859695
5154.154154154154 0.07319956662769253
5164.1641641641645 0.07376493430727787
5174.174174174174 0.07433106494971584
5184.184184184184 0.07489793307941872
5194.194194194194 0.07546551326558021
5204.204204204204 0.076033780124869
5214.214214214214 0.07660270832408261
5224.224224224225 0.07717227258276194
5234.2342342342345 0.07774244767576634
5244.244244244244 0.07831320843580908
5254.254254254254 0.0788845297559546
5264.264264264264 0.07945638659207532
5274.274274274274 0.08002875396526973
5284.284284284285 0.08060160696424168
5294.294294294295 0.08117492074764092
5304.304304304304 0.08174867054636328
5314.314314314314 0.08232283166581458
5324.324324324324 0.08289737948813296
5334.334334334334 0.08347228947437542
5344.344344344345 0.08404753716666392
5354.354354354355 0.08462309819029373
5364.3643643643645 0.08519894825580493
5374.374374374374 0.08577506316101392
5384.384384384384 0.0863514187930084
5394.394394394394 0.08692799113010426
5404.404404404404 0.08750475624376562
5414.414414414415 0.08808169030048617
5424.424424424425 0.08865876956363544
5434.4344344344345 0.08923597039526611
5444.444444444444 0.08981326925788559
5454.454454454454 0.09039064271619202
5464.464464464464 0.09096806743877184
5474.474474474475 0.09154552019976313
5484.484484484485 0.09212297788048228
5494.494494494495 0.09270041747101503
5504.504504504504 0.09327781607177255
5514.514514514514 0.09385515089501174
5524.524524524524 0.09443239926632148
5534.534534534535 0.09500953862607327
5544.544544544545 0.09558654653083774
5554.554554554555 0.09616340065476771
5564.5645645645645 0.09674007879094662
5574.574574574574 0.09731655885270267
5584.584584584584 0.09789281887489203
5594.594594594595 0.0984688370151453
5604.604604604605 0.09904459155508477
5614.614614614615 0.0996200609015069
5624.624624624625 0.10019522358753245
5634.6346346346345 0.1007700582737261
5644.644644644644 0.10134454374918342
5654.654654654654 0.10191865893258585
5664.664664664665 0.10249238287322561
5674.674674674675 0.1030656947519989
5684.684684684685 0.1036385738823697
5694.694694694695 0.10421099971130117
5704.704704704704 0.10478295182015986
5714.714714714714 0.10535440992558744
5724.724724724725 0.1059253538803452
5734.734734734735 0.10649576367412789
5744.744744744745 0.10706561943435058
5754.754754754755 0.10763490142690461
5764.764764764765 0.10820359005688748
5774.774774774774 0.10877166586930408
5784.784784784785 0.10933910954974004
5794.794794794795 0.10990590192500764
5804.804804804805 0.1104720239637663
5814.814814814815 0.11103745677711412
5824.824824824825 0.11160218161915537
5834.8348348348345 0.11216617988753949
5844.844844844845 0.112729433123977
5854.854854854855 0.11329192301472749
5864.864864864865 0.11385363139106404
5874.874874874875 0.11441454022971281
5884.884884884885 0.11497463165326728
5894.894894894895 0.11553388793057827
5904.9049049049045 0.11609229147712129
5914.914914914915 0.11664982485533942
5924.924924924925 0.11720647077496196
5934.934934934935 0.11776221209330219
5944.944944944945 0.11831703181553134
5954.954954954955 0.1188709130949293
5964.964964964965 0.11942383923311482
5974.974974974975 0.11997579368025332
5984.984984984985 0.12052676003524249
5994.994994994995 0.12107672204587858
6005.005005005005 0.12162566360899911
6015.015015015015 0.1221735687706082
6025.025025025025 0.1227204217259784
6035.035035035035 0.12326620681973498
6045.045045045045 0.12381090854591933
6055.055055055055 0.12435451154803373
