#lamb flux
1000.0 3.425639227600001e+40
1010.01001001001 3.469902209106627e+40
1020.0200200200201 3.5054091575028223e+40
1030.03003003003 3.532720872197677e+40
1040.0400400400401 3.5524183460466604e+40
1050.05005005005 3.5650905054666976e+40
1060.06006006006 3.571324043735199e+40
1070.07007007007 3.5716951763526964e+40
1080.08008008008 3.56676312478968e+40
1090.0900900900901 3.557065125989538e+40
1100.1001001001 3.5431127661326634e+40
1110.11011011011 3.525389445427534e+40
1120.1201201201202 3.504348793683952e+40
1130.13013013013 3.4804138722529256e+40
1140.1401401401401 3.4539770151417828e+40
1150.1501501501502 3.42540017966577e+40
1160.16016016016 3.395015694120071e+40
1170.1701701701702 3.363127306139432e+40
1180.1801801801803 3.330011450338841e+40
1190.1901901901902 3.2959186673268514e+40
1200.2002002002002 3.261075118190325e+40
1210.2102102102103 3.225684149077972e+40
1220.2202202202202 3.189927869625654e+40
1230.2302302302303 3.1539687167664476e+40
1240.2402402402402 3.1179509820697766e+40
1250.2502502502502 3.0817981181881864e+40
1260.2602602602603 3.0450305926900857e+40
1270.2702702702702 3.0067162730882414e+40
1280.2802802802803 2.967058940807428e+40
1290.2902902902902 2.9262486851942085e+40
1300.3003003003003 2.884462269746963e+40
1310.3103103103103 2.84186356708719e+40
1320.3203203203202 2.798604046303952e+40
1330.3303303303303 2.7548232985397096e+40
1340.3403403403404 2.7106495887168624e+40
1350.3503503503503 2.666200423133804e+40
1360.3603603603603 2.6215831242943528e+40
1370.3703703703704 2.576895405785021e+40
1380.3803803803803 2.5322259412929753e+40
1390.3903903903904 2.487654922976532e+40
1400.4004004004005 2.443254605373216e+40
1410.4104104104103 2.3990898318712665e+40
1420.4204204204204 2.355218541492179e+40
1430.4304304304305 2.311692254346989e+40
1440.4404404404404 2.268556534649585e+40
1450.4504504504505 2.2258514306071605e+40
1460.4604604604606 2.183611890871648e+40
1470.4704704704704 2.1418681575353761e+40
1480.4804804804805 2.1006461358983566e+40
1490.4904904904906 2.0599677414305632e+40
1500.5005005005005 2.0198512245075961e+40
1510.5105105105106 1.980311473618035e+40
1520.5205205205207 1.9413602978311463e+40
1530.5305305305305 1.903006689378994e+40
1540.5405405405404 1.865257067251909e+40
1550.5505505505505 1.8281155027340727e+40
1560.5605605605606 1.791583927820105e+40
1570.5705705705705 1.7556623274569559e+40
1580.5805805805805 1.7203489165502588e+40
1590.5905905905906 1.6856403026632697e+40
1600.6006006006005 1.6515316353212175e+40
1610.6106106106106 1.6180167428163785e+40
1620.6206206206207 1.5850882573908421e+40
1630.6306306306305 1.5527377296565603e+40
1640.6406406406406 1.520955733096989e+40
1650.6506506506507 1.4897319594832373e+40
1660.6606606606606 1.4590553060310232e+40
1670.6706706706707 1.4289139551249159e+40
1680.6806806806808 1.3992954474442693e+40
1690.6906906906906 1.3701867493428944e+40
1700.7007007007007 1.3415789055378386e+40
1710.7107107107108 1.3134758344804814e+40
1720.7207207207207 1.2858600598781815e+40
1730.7307307307308 1.2587117743067503e+40
1740.7407407407409 1.232011473722748e+40
1750.7507507507507 1.2057399582048705e+40
1760.7607607607606 1.1798783390668219e+40
1770.770770770771 1.154408053562682e+40
1780.7807807807808 1.129310888613738e+40
1790.7907907907907 1.104569015215718e+40
1800.8008008008007 1.0801650354349249e+40
1810.8108108108108 1.056082044165564e+40
1820.8208208208207 1.0323037080895072e+40
1830.8308308308308 1.0088143645395911e+40
1840.8408408408409 9.855991431967912e+39
1850.8508508508507 9.626441137200501e+39
1860.8608608608608 9.399364624733116e+39
1870.870870870871 9.174647014220081e+39
1880.8808808808808 8.952189119495543e+39
1890.890890890891 8.731910257047085e+39
1900.900900900901 8.513751435276798e+39
1910.9109109109108 8.297678918971243e+39
1920.920920920921 8.083688140661956e+39
1930.930930930931 7.871807899950443e+39
1940.940940940941 7.662104752502325e+39
1950.950950950951 7.454687441992621e+39
1960.960960960961 7.249711171533414e+39
1970.970970970971 7.047381448267803e+39
1980.980980980981 6.847957170121324e+39
1990.9909909909911 6.651752563857275e+39
2001.001001001001 6.459137537890205e+39
2011.0110110110109 6.270535993390766e+39
2021.0210210210212 6.086421656010991e+39
2031.031031031031 5.90731106050911e+39
2041.0410410410411 5.733753450917724e+39
2051.051051051051 5.566317552531681e+39
2061.061061061061 5.405575422190173e+39
2071.071071071071 5.2520838717008266e+39
2081.081081081081 5.106364255646558e+39
2091.091091091091 4.968881680114206e+39
2101.101101101101 4.8400248808261627e+39
2111.1111111111113 4.7200881003363146e+39
2121.121121121121 4.6092562402117184e+39
2131.131131131131 4.507594371012064e+39
2141.141141141141 4.415042368138921e+39
2151.151151151151 4.3314150426731256e+39
2161.161161161161 4.256407703313497e+39
2171.1711711711714 4.189606671905982e+39
2181.1811811811813 4.1305039280676854e+39
2191.191191191191 4.0785148119790886e+39
2201.201201201201 4.032997585489571e+39
2211.2112112112113 3.993273640239986e+39
2221.221221221221 3.958647233380849e+39
2231.2312312312315 3.928423802733916e+39
2241.2412412412414 3.90192613510103e+39
2251.2512512512512 3.878507904648952e+39
2261.261261261261 3.8575643368358955e+39
2271.271271271271 3.8385399667200725e+39
2281.2812812812813 3.820933635018576e+39
2291.2912912912916 3.804300994170203e+39
2301.3013013013015 3.7882548791919765e+39
2311.3113113113113 3.772463938305983e+39
2321.321321321321 3.756649923216774e+39
2331.331331331331 3.740584017076789e+39
2341.3413413413414 3.724082538261412e+39
2351.3513513513512 3.7070023079341016e+39
2361.3613613613616 3.68923591547451e+39
2371.3713713713714 3.6707070630156596e+39
2381.3813813813813 3.6513661218660145e+39
2391.391391391391 3.631185991383136e+39
2401.4014014014015 3.610158315734002e+39
2411.4114114114113 3.588290085946037e+39
2421.4214214214217 3.565600633224619e+39
2431.4314314314315 3.542119003890184e+39
2441.4414414414414 3.517881695545545e+39
2451.4514514514512 3.492930727285124e+39
2461.4614614614616 3.46731201302917e+39
2471.4714714714714 3.441074005640109e+39
2481.4814814814818 3.414266579707931e+39
2491.4914914914916 3.386940122253015e+39
2501.5015015015015 3.359144802676295e+39
2511.5115115115113 3.3309299957760416e+39
2521.521521521521 3.3023438343179325e+39
2531.5315315315315 3.273432870328115e+39
2541.541541541542 3.2442418268679876e+39
2551.5515515515517 3.2148134244747406e+39
2561.5615615615616 3.185188268674036e+39
2571.5715715715714 3.155404786972388e+39
2581.5815815815813 3.125499205513929e+39
2591.5915915915916 3.095505557146471e+39
2601.6016016016015 3.0654557139981856e+39
2611.611611611612 3.035379438835968e+39
2621.6216216216217 3.0053044504778594e+39
2631.6316316316315 2.9752564993835703e+39
2641.6416416416414 2.945259450267526e+39
2651.6516516516517 2.915335369184631e+39
2661.6616616616616 2.8855046130461174e+39
2671.671671671672 2.855785919945167e+39
2681.6816816816818 2.8261964990221956e+39
2691.6916916916916 2.796752118888488e+39
2701.7017017017015 2.767467193864108e+39
2711.711711711712 2.7383548674796756e+39
2721.7217217217217 2.709427092848913e+39
2731.731731731732 2.6806947096457782e+39
2741.741741741742 2.6521675175218247e+39
2751.7517517517517 2.6238543458801515e+39
2761.7617617617616 2.5957631199860444e+39
2771.7717717717715 2.567900923443749e+39
2781.781781781782 2.540274057106765e+39
2791.791791791792 2.5128880945174427e+39
2801.801801801802 2.4857479339923696e+39
2811.811811811812 2.458857847484649e+39
2821.8218218218217 2.432221526363776e+39
2831.8318318318316 2.4058421242593996e+39
2841.841841841842 2.379722297117899e+39
2851.851851851852 2.353864240620697e+39
2861.861861861862 2.328269725111505e+39
2871.871871871872 2.3029401281764706e+39
2881.881881881882 2.2778764650169192e+39
2891.8918918918916 2.2530794167493885e+39
2901.901901901902 2.2285493567620173e+39
2911.911911911912 2.2042863752505833e+39
2921.921921921922 2.1802903020513205e+39
2931.931931931932 2.1565607278815857e+39
2941.941941941942 2.1330970240933005e+39
2951.9519519519517 2.1098983610381345e+39
2961.961961961962 2.086963725137559e+39
2971.971971971972 2.0642919347451814e+39
2981.9819819819822 2.0418816548834364e+39
2991.991991991992 2.0197314109314383e+39
3002.002002002002 1.997839601335885e+39
3012.012012012012 1.9762045094122086e+39
3022.0220220220217 1.9548243142987155e+39
3032.032032032032 1.9402918777555127e+39
3042.0420420420423 1.918548694172293e+39
3052.052052052052 1.8968376169521153e+39
3062.062062062062 1.8752228661964884e+39
3072.072072072072 1.8537584842065115e+39
3082.0820820820823 1.832489493277568e+39
3092.092092092092 1.811452953058376e+39
3102.102102102102 1.7906789213285058e+39
3112.1121121121123 1.770191323115749e+39
3122.122122122122 1.7500087337454078e+39
3132.132132132132 1.7301450817783017e+39
3142.1421421421423 1.7106102779270722e+39
3152.152152152152 1.6914107760007935e+39
3162.162162162162 1.6725500717642195e+39
3172.1721721721724 1.6540291453476095e+39
3182.1821821821823 1.635846852535959e+39
3192.192192192192 1.6180002699251283e+39
3202.202202202202 1.600484998574345e+39
3212.2122122122123 1.583295430422593e+39
3222.222222222222 1.566424981380013e+39
3232.232232232232 1.5498662946612415e+39
3242.2422422422424 1.5336114176001068e+39
3252.252252252252 1.5176519548770018e+39
3262.262262262262 1.5019792008033727e+39
3272.2722722722724 1.486584253042454e+39
3282.2822822822823 1.4714581099017825e+39
3292.292292292292 1.456591753110468e+39
3302.3023023023025 1.4419762177918433e+39
3312.3123123123123 1.4276026511588315e+39
3322.322322322322 1.4134623612938787e+39
3332.3323323323325 1.3995468572263295e+39
3342.3423423423424 1.3858478813863637e+39
3352.352352352352 1.372357435394643e+39
3362.3623623623625 1.3590678000396274e+39
3372.3723723723724 1.345971550198611e+39
3382.3823823823823 1.3330615653729928e+39
3392.3923923923926 1.3203310364321553e+39
3402.4024024024025 1.3077734690922949e+39
3412.4124124124123 1.2953826845961883e+39
3422.4224224224226 1.2831528180060443e+39
3432.4324324324325 1.271078314473773e+39
3442.4424424424424 1.2591539238104234e+39
3452.4524524524522 1.2473746936387287e+39
3462.4624624624626 1.235735961379025e+39
3472.4724724724724 1.2242333452889101e+39
3482.4824824824823 1.2128627347503324e+39
3492.4924924924926 1.2016202799741826e+39
3502.5025025025025 1.1905023812713114e+39
3512.5125125125123 1.1795056780201791e+39
3522.5225225225226 1.1686270374446188e+39
3532.5325325325325 1.1578635433003023e+39
3542.5425425425424 1.1472124845552715e+39
3552.5525525525527 1.136671344138062e+39
3562.5625625625626 1.1262377878164574e+39
3572.5725725725724 1.1159096532605115e+39
3582.5825825825827 1.105684939335178e+39
3592.5925925925926 1.09556179566041e+39
3602.6026026026025 1.0855385124700366e+39
3612.612612612613 1.0756135107948175e+39
3622.6226226226227 1.0657853329898815e+39
3632.6326326326325 1.056052633622123e+39
3642.642642642643 1.0464141707290619e+39
3652.6526526526527 1.0368687974570277e+39
3662.6626626626626 1.0274154540833596e+39
3672.672672672673 1.0180531604245377e+39
3682.6826826826828 1.0087810086296813e+39
3692.6926926926926 9.995981563567366e+38
3702.7027027027025 9.905038203268201e+38
3712.712712712713 9.814972702506033e+38
3722.7227227227227 9.725778231192587e+38
3732.7327327327325 9.637448378513093e+38
3742.742742742743 9.549977102858157e+38
3752.7527527527527 9.463358685114756e+38
3762.7627627627626 9.377587685206146e+38
3772.772772772773 9.29265890176515e+38
3782.7827827827828 9.20856733482154e+38
3792.7927927927926 9.125308151381436e+38
3802.802802802803 9.04287665377492e+38
3812.812812812813 8.961268250647099e+38
3822.8228228228227 8.880478430467719e+38
3832.832832832833 8.800502737435066e+38
3842.842842842843 8.721336749650826e+38
3852.8528528528527 8.64297605944446e+38
3862.862862862863 8.56541625572758e+38
3872.872872872873 8.488652908261402e+38
3882.8828828828828 8.41268155372303e+38
3892.892892892893 8.337497683459716e+38
3902.902902902903 8.263096732823188e+38
3912.912912912913 8.189474071979857e+38
3922.922922922923 8.116624998096378e+38
3932.932932932933 8.044544728803803e+38
3942.942942942943 7.973228396847159e+38
3952.9529529529527 7.902671045831535e+38
3962.962962962963 7.832867626979496e+38
3972.972972972973 7.763812996818436e+38
3982.982982982983 7.695501915720601e+38
3992.992992992993 7.627929047222154e+38
4003.003003003003 7.561088958051745e+38
4013.013013013013 7.494976118802327e+38
4023.023023023023 7.429584905184064e+38
4033.033033033033 7.364909599799533e+38
4043.043043043043 7.300944394385803e+38
4053.053053053053 7.2376833924716e+38
4063.063063063063 7.175120612400743e+38
4073.073073073073 7.113249990676386e+38
4083.0830830830832 7.052065385583513e+38
4093.093093093093 6.991560581050112e+38
4103.103103103103 6.931729290710138e+38
4113.113113113113 6.872565162134258e+38
4123.123123123123 6.814061781196544e+38
4133.133133133133 6.756212676548182e+38
4143.143143143143 6.699011324171171e+38
4153.153153153153 6.642451151987401e+38
4163.163163163163 6.586525544500463e+38
4173.173173173173 6.531227847449617e+38
4183.183183183183 6.4765513724570995e+38
4193.193193193193 6.422489401651747e+38
4203.203203203203 6.36903519225355e+38
4213.213213213214 6.316181981105365e+38
4223.223223223224 6.263922989139282e+38
4233.2332332332335 6.212251425766723e+38
4243.243243243243 6.161160493182455e+38
4253.253253253253 6.1106433905739864e+38
4263.263263263263 6.060693318228847e+38
4273.273273273273 6.011303481533287e+38
4283.283283283283 5.9624670948569294e+38
4293.293293293293 5.914177385318775e+38
4303.303303303303 5.866427596430662e+38
4313.313313313313 5.819210991615238e+38
4323.323323323323 5.77252085759598e+38
4333.333333333334 5.726350507657569e+38
4343.343343343344 5.680693284775476e+38
4353.353353353354 5.635542564614056e+38
4363.3633633633635 5.590891758393078e+38
4373.373373373373 5.546734315622908e+38
4383.383383383383 5.503063726709081e+38
4393.393393393393 5.459873525427216e+38
4403.403403403403 5.4171572912696955e+38
4413.413413413413 5.374908651665676e+38
4423.423423423424 5.333121284076379e+38
4433.4334334334335 5.291788917967704e+38
4443.443443443443 5.250905336662491e+38
4453.453453453454 5.210464379074888e+38
4463.463463463464 5.170459941329518e+38
4473.473473473474 5.130885978267979e+38
4483.483483483484 5.091736504845805e+38
4493.493493493494 5.053005597422534e+38
4503.503503503503 5.0146873949480966e+38
4513.513513513513 4.976776100048456e+38
4523.523523523523 4.9392659800135726e+38
4533.533533533533 4.902151367690939e+38
4543.543543543543 4.865426662287642e+38
4553.553553553554 4.8290863300841996e+38
4563.563563563564 4.793124905063271e+38
4573.573573573573 4.757536989456306e+38
4583.583583583584 4.722317254211286e+38
4593.593593593594 4.687460439384575e+38
4603.603603603604 4.652961354459894e+38
4613.613613613614 4.6188148785974455e+38
4623.623623623624 4.585015960816048e+38
4633.6336336336335 4.551559620111252e+38
4643.643643643643 4.518440945512206e+38
4653.653653653653 4.4856550960800466e+38
4663.663663663663 4.453197300850566e+38
4673.673673673674 4.421062858723765e+38
4683.683683683684 4.389247138302915e+38
4693.693693693694 4.3577455776856066e+38
4703.703703703704 4.32655368420929e+38
4713.713713713714 4.295667034153663e+38
4723.723723723724 4.2650812724022366e+38
4733.733733733734 4.234792112065312e+38
4743.743743743744 4.2047953340666125e+38
4753.753753753754 4.175086786695601e+38
4763.763763763764 4.145662385127616e+38
4773.773773773773 4.11651811091371e+38
4783.783783783783 4.087650011442256e+38
4793.793793793793 4.0590541993739906e+38
4803.803803803804 4.030726852052409e+38
4813.813813813814 4.0026642108912e+38
4823.823823823824 3.974862580740343e+38
4833.833833833834 3.947318329232516e+38
4843.843843843844 3.92002788611131e+38
4853.853853853854 3.892987742542753e+38
4863.863863863864 3.8661944504115444e+38
4873.873873873874 3.839644621603365e+38
4883.883883883884 3.813334927274598e+38
4893.893893893894 3.787262097110656e+38
4903.9039039039035 3.761422918574182e+38
4913.913913913913 3.735814236144207e+38
4923.923923923924 3.7104329505474265e+38
4933.933933933934 3.685276017982618e+38
4943.943943943944 3.660340449339168e+38
4953.953953953955 3.635623309410755e+38
4963.9639639639645 3.6111217161050234e+38
4973.973973973974 3.58683283965015e+38
4983.983983983984 3.5627539017991534e+38
4993.993993993994 3.538882175032705e+38
5004.004004004004 3.5152149817612045e+38
5014.014014014014 3.4917496935268536e+38
5024.024024024024 3.46848373020637e+38
5034.0340340340335 3.445414559215031e+38
5044.044044044043 3.422539694712607e+38
5054.054054054054 3.399856696811802e+38
5064.064064064064 3.377363170789735e+38
5074.074074074074 3.3550567663029594e+38
5084.084084084085 3.3329351766065325e+38
5094.0940940940945 3.3109961377775914e+38
5104.104104104104 3.2892374279438424e+38
5114.114114114114 3.267656866517395e+38
5124.124124124124 3.2462523134343155e+38
5134.134134134134 3.2250216684002438e+38
5144.144144144144 3.2039628701424175e+38
5154.154154154154 3.1830738956684172e+38
5164.1641641641645 3.1623527595319093e+38
5174.174174174174 3.141797513105674e+38
5184.184184184184 3.121406243862139e+38
5194.194194194194 3.101177074661683e+38
5204.204204204204 3.0811081630489013e+38
5214.214214214214 3.0611977005570306e+38
5224.224224224225 3.0414439120207082e+38
5234.2342342342345 3.0218450548972465e+38
5244.244244244244 3.0023994185965372e+38
5254.254254254254 2.9831053238197556e+38
5264.264264264264 2.96396112190694e+38
5274.274274274274 2.944965194193609e+38
5284.284284284285 2.926115951376439e+38
5294.294294294295 2.9074118328881516e+38
5304.304304304304 2.8888513062816126e+38
5314.314314314314 2.8704328666232662e+38
5324.324324324324 2.8521550358958874e+38
5334.334334334334 2.834016362410752e+38
5344.344344344345 2.8160154202291784e+38
5354.354354354355 2.79815080859355e+38
5364.3643643643645 2.7804211513677263e+38
5374.374374374374 2.7628250964869274e+38
5384.384384384384 2.7453613154170368e+38
5394.394394394394 2.7280285026233308e+38
5404.404404404404 2.710825375048586e+38
5414.414414414415 2.693750671600576e+38
5424.424424424425 2.676803152648891e+38
5434.4344344344345 2.6599815995310416e+38
5444.444444444444 2.6432848140678114e+38
5454.454454454454 2.6267116180878155e+38
5464.464464464464 2.610260852961172e+38
5474.474474474475 2.593931379142262e+38
5484.484484484485 2.577722075721491e+38
5494.494494494495 2.5616318399859825e+38
5504.504504504504 2.545659586989144e+38
5514.514514514514 2.5298042491289936e+38
5524.524524524524 2.5140647757352207e+38
5534.534534534535 2.4984401326648263e+38
5544.544544544545 2.4829293019063186e+38
5554.554554554555 2.4675312811923236e+38
5564.5645645645645 2.452245083620553e+38
5574.574574574574 2.4370697372830117e+38
5584.584584584584 2.4220042849033573e+38
5594.594594594595 2.407047783482294e+38
5604.604604604605 2.3921993039509453e+38
5614.614614614615 2.3774579308320254e+38
5624.624624624625 2.3628227619087788e+38
5634.6346346346345 2.348292907901543e+38
5644.644644644644 2.3338674921518245e+38
5654.654654654654 2.319545650313804e+38
5664.664664664665 2.30532653005312e+38
5674.674674674675 2.2912092907528867e+38
5684.684684684685 2.2771931032267463e+38
5694.694694694695 2.2632771494389242e+38
5704.704704704704 2.249460622231136e+38
5714.714714714714 2.235742725056226e+38
5724.724724724725 2.2221226717184556e+38
5734.734734734735 2.2085996861203052e+38
5744.744744744745 2.1951730020156788e+38
5754.754754754755 2.1818418627694045e+38
5764.764764764765 2.16860552112292e+38
5774.774774774774 2.15546323896603e+38
5784.784784784785 2.142414287114609e+38
5794.794794794795 2.1294579450941606e+38
5804.804804804805 2.1165935009291076e+38
5814.814814814815 2.1038202509377025e+38
5824.824824824825 2.0911374995324585e+38
5834.8348348348345 2.0785445590259746e+38
5844.844844844845 2.0660407494420734e+38
5854.854854854855 2.0536253983321075e+38
5864.864864864865 2.041297840596357e+38
5874.874874874875 2.0290574183104034e+38
5884.884884884885 2.01690348055637e+38
5894.894894894895 2.0048353832589235e+38
