#lamb flux
1000.0 3.1109781153930044e+39
1010.01001001001 3.246638065819165e+39
1020.0200200200201 3.3824363805480375e+39
1030.03003003003 3.518203107051611e+39
1040.0400400400401 3.6537775822864274e+39
1050.05005005005 3.789008324509139e+39
1060.06006006006 3.9237528745410465e+39
1070.07007007007 4.057877595453633e+39
1080.08008008008 4.191257438653253e+39
1090.0900900900901 4.323775683409633e+39
1100.1001001001 4.455323656007228e+39
1110.11011011011 4.5858004339022485e+39
1120.1201201201202 4.715112539541842e+39
1130.13013013013 4.843173627844605e+39
1140.1401401401401 4.969904170750077e+39
1150.1501501501502 5.0952311417163247e+39
1160.16016016016 5.21908770257491e+39
1170.1701701701702 5.341412894737299e+39
1180.1801801801803 5.462151336381812e+39
1190.1901901901902 5.581252926930918e+39
1200.2002002002002 5.698672559851027e+39
1210.2102102102103 5.814369844566766e+39
1220.2202202202202 5.928308838074888e+39
1230.2302302302303 6.040457786666376e+39
1240.2402402402402 6.15078887801483e+39
1250.2502502502502 6.259198782184488e+39
1260.2602602602603 6.365423595391008e+39
1270.2702702702702 6.468994935498334e+39
1280.2802802802803 6.569883502711785e+39
1290.2902902902902 6.668065340065167e+39
1300.3003003003003 6.763521543248224e+39
1310.3103103103103 6.856237976280689e+39
1320.3203203203202 6.946204993713043e+39
1330.3303303303303 7.033417169907346e+39
1340.3403403403404 7.117873035837518e+39
1350.3503503503503 7.199574823746622e+39
1360.3603603603603 7.278528219907637e+39
1370.3703703703704 7.354742125653333e+39
1380.3803803803803 7.428228426769436e+39
1390.3903903903904 7.499001771281581e+39
1400.4004004004005 7.567079355611198e+39
1410.4104104104103 7.632480719026462e+39
1420.4204204204204 7.695227546271956e+39
1430.4304304304305 7.755343478223334e+39
1440.4404404404404 7.81285393038161e+39
1450.4504504504505 7.867785918993765e+39
1460.4604604604606 7.920167894562897e+39
1470.4704704704704 7.970029582491014e+39
1480.4804804804805 8.01740183058074e+39
1490.4904904904906 8.062316463108046e+39
1500.5005005005005 8.104806141166567e+39
1510.5105105105106 8.144904228974988e+39
1520.5205205205207 8.182644665831399e+39
1530.5305305305305 8.218061843393844e+39
1540.5405405405404 8.251190487962246e+39
1550.5505505505505 8.282065547435931e+39
1560.5605605605606 8.310722082620685e+39
1570.5705705705705 8.337195162562055e+39
1580.5805805805805 8.361519763585721e+39
1590.5905905905906 8.383730671733005e+39
1600.6006006006005 8.403862388289343e+39
1610.6106106106106 8.421949038117574e+39
1620.6206206206207 8.438024280525453e+39
1630.6306306306305 8.452121222420856e+39
1640.6406406406406 8.464272333537859e+39
1650.6506506506507 8.474509363556089e+39
1660.6606606606606 8.482863260984654e+39
1670.6706706706707 8.489364093744095e+39
1680.6806806806808 8.494040971458211e+39
1690.6906906906906 8.496921969565575e+39
1700.7007007007007 8.498039610495645e+39
1710.7107107107108 8.497442183585467e+39
1720.7207207207207 8.495152117661157e+39
1730.7307307307308 8.491187697285039e+39
1740.7407407407409 8.48556612200163e+39
1750.7507507507507 8.478303445056334e+39
1760.7607607607606 8.469414520253788e+39
1770.770770770771 8.458912959404053e+39
1780.7807807807808 8.4468111034282e+39
1790.7907907907907 8.43312001094193e+39
1800.8008008008007 8.417849469022729e+39
1810.8108108108108 8.401008031908751e+39
1820.8208208208207 8.382603094588483e+39
1830.8308308308308 8.362641009626165e+39
1840.8408408408409 8.341127257123797e+39
1850.8508508508507 8.318066679426801e+39
1860.8608608608608 8.293463793989769e+39
1870.870870870871 8.267323199649944e+39
1880.8808808808808 8.239650093277118e+39
1890.890890890891 8.210450915180849e+39
1900.900900900901 8.179734142476717e+39
1910.9109109109108 8.147511249454991e+39
1920.920920920921 8.113797852350894e+39
1930.930930930931 8.07861505215038e+39
1940.940940940941 8.041990982426646e+39
1950.950950950951 8.003962558853325e+39
1960.960960960961 7.964577412144264e+39
1970.970970970971 7.92389596602066e+39
1980.980980980981 7.881993596039875e+39
1990.9909909909911 7.838962773991698e+39
2001.001001001001 7.794915067296522e+39
2011.0110110110109 7.749982825963868e+39
2021.0210210210212 7.70432035534519e+39
2031.031031031031 7.658104347011954e+39
2041.0410410410411 7.611533329948141e+39
2051.051051051051 7.564825917913557e+39
2061.061061061061 7.518217673697968e+39
2071.071071071071 7.471956491856363e+39
2081.081081081081 7.426296518401884e+39
2091.091091091091 7.381490772085268e+39
2101.101101101101 7.33778279278926e+39
2111.1111111111113 7.295397796630888e+39
2121.121121121121 7.254533938791875e+39
2131.131131131131 7.215354348699244e+39
2141.141141141141 7.177980589281957e+39
2151.151151151151 7.14248809586414e+39
2161.161161161161 7.10890397907474e+39
2171.1711711711714 7.077207352780198e+39
2181.1811811811813 7.047332105618499e+39
2191.191191191191 7.019171809651376e+39
2201.201201201201 6.992586283868785e+39
2211.2112112112113 6.967409224836992e+39
2221.221221221221 6.943456288670611e+39
2231.2312312312315 6.920533051070722e+39
2241.2412412412414 6.898442368521248e+39
2251.2512512512512 6.876990791794775e+39
2261.261261261261 6.85599382046947e+39
2271.271271271271 6.83527991572584e+39
2281.2812812812813 6.814693295671583e+39
2291.2912912912916 6.794095616506209e+39
2301.3013013013015 6.773366693069358e+39
2311.3113113113113 6.75240443667485e+39
2321.321321321321 6.731124191767481e+39
2331.331331331331 6.709457641748423e+39
2341.3413413413414 6.687351433900924e+39
2351.3513513513512 6.664765648408353e+39
2361.3613613613616 6.641672210540084e+39
2371.3713713713714 6.618053320592725e+39
2381.3813813813813 6.593899954535624e+39
2391.391391391391 6.569210470176281e+39
2401.4014014014015 6.543989339148303e+39
2411.4114114114113 6.518246013904357e+39
2421.4214214214217 6.491993930751994e+39
2431.4314314314315 6.465249644307833e+39
2441.4414414414414 6.438032085068428e+39
2451.4514514514512 6.41036192964735e+39
2461.4614614614616 6.382261072212467e+39
2471.4714714714714 6.353752185449205e+39
2481.4814814814818 6.324858359715587e+39
2491.4914914914916 6.295602809743294e+39
2501.5015015015015 6.266008639128273e+39
2511.5115115115113 6.236098653836857e+39
2521.521521521521 6.205895216955345e+39
2531.5315315315315 6.175420137883078e+39
2541.541541541542 6.144694590080656e+39
2551.5515515515517 6.113739052319263e+39
2561.5615615615616 6.082573269126133e+39
2571.5715715715714 6.051216226784331e+39
2581.5815815815813 6.01968614182477e+39
2591.5915915915916 5.988000459450492e+39
2601.6016016016015 5.956175859764711e+39
2611.611611611612 5.924228270041873e+39
2621.6216216216217 5.89217288159313e+39
2631.6316316316315 5.860024170040487e+39
2641.6416416416414 5.827795918034953e+39
2651.6516516516517 5.79550123963828e+39
2661.6616616616616 5.763152605741603e+39
2671.671671671672 5.730761870021524e+39
2681.6816816816818 5.698340295039294e+39
2691.6916916916916 5.665898578175204e+39
2701.7017017017015 5.633446877161195e+39
2711.711711711712 5.600994835032441e+39
2721.7217217217217 5.5685516043657e+39
2731.731731731732 5.536125870710001e+39
2741.741741741742 5.503725875146056e+39
2751.7517517517517 5.471359435934751e+39
2761.7617617617616 5.4390339692347506e+39
2771.7717717717715 5.4067565088840743e+39
2781.781781781782 5.374533725252505e+39
2791.791791791792 5.3423719431805873e+39
2801.801801801802 5.3102771590276886e+39
2811.811811811812 5.2782550568566595e+39
2821.8218218218217 5.2463110237859713e+39
2831.8318318318316 5.2144501645426474e+39
2841.841841841842 5.182677315250594e+39
2851.851851851852 5.1509970564896734e+39
2861.861861861862 5.1194137256608434e+39
2871.871871871872 5.087931428692441e+39
2881.881881881882 5.0565540511219056e+39
2891.8918918918916 5.0252852685863764e+39
2901.901901901902 4.9941285567543394e+39
2911.911911911912 4.963087200729436e+39
2921.921921921922 4.932164303956038e+39
2931.931931931932 4.9013627966549786e+39
2941.941941941942 4.870685443816292e+39
2951.9519519519517 4.840134852774505e+39
2961.961961961962 4.809713480390702e+39
2971.971971971972 4.779423639864115e+39
2981.9819819819822 4.7492675071948025e+39
2991.991991991992 4.7192471273176936e+39
3002.002002002002 4.689364419927098e+39
3012.012012012012 4.6596211850096e+39
3022.0220220220217 4.630019108102201e+39
3032.032032032032 4.603553247993993e+39
3042.0420420420423 4.573856651759538e+39
3052.052052052052 4.5442027629755104e+39
3062.062062062062 4.514621925437994e+39
3072.072072072072 4.485140291231093e+39
3082.0820820820823 4.455780261623946e+39
3092.092092092092 4.42656088889144e+39
3102.102102102102 4.39749824188842e+39
3112.1121121121123 4.3686057380958466e+39
3122.122122122122 4.3398944447300734e+39
3132.132132132132 4.311373351369774e+39
3142.1421421421423 4.283049616412909e+39
3152.152152152152 4.254928789532307e+39
3162.162162162162 4.227015012155529e+39
3172.1721721721724 4.199311197854673e+39
3182.1821821821823 4.171819194396316e+39
3192.192192192192 4.1445399290716405e+39
3202.202202202202 4.1174735388031123e+39
3212.2122122122123 4.0906194864068136e+39
3222.222222222222 4.0639766642792595e+39
3232.232232232232 4.037543486674194e+39
3242.2422422422424 4.011317971638419e+39
3252.252252252252 3.9852978135858315e+39
3262.262262262262 3.9594804474056946e+39
3272.2722722722724 3.933863104923969e+39
3282.2822822822823 3.9084428644654264e+39
3292.292292292292 3.883216694198564e+39
3302.3023023023025 3.8581814898850257e+39
3312.3123123123123 3.8333341075996516e+39
3322.322322322322 3.8086713919364e+39
3332.3323323323325 3.784190200168632e+39
3342.3423423423424 3.759887422789517e+39
3352.352352352352 3.735760000819063e+39
3362.3623623623625 3.711804940228651e+39
3372.3723723723724 3.688019323801039e+39
3382.3823823823823 3.6644003207140065e+39
3392.3923923923926 3.6409451941085946e+39
3402.4024024024025 3.617651306877893e+39
3412.4124124124123 3.5945161258896517e+39
3422.4224224224226 3.571537224835402e+39
3432.4324324324325 3.548712285879786e+39
3442.4424424424424 3.526039100266703e+39
3452.4524524524522 3.503515568023193e+39
3462.4624624624626 3.481139696887802e+39
3472.4724724724724 3.458909600577183e+39
3482.4824824824823 3.436823496492854e+39
3492.4924924924926 3.4148797029594753e+39
3502.5025025025025 3.3930766360761146e+39
3512.5125125125123 3.371412806253225e+39
3522.5225225225226 3.349886814500012e+39
3532.5325325325325 3.3284973485195726e+39
3542.5425425425424 3.307243178662605e+39
3552.5525525525527 3.286123153784495e+39
3562.5625625625626 3.265136197045178e+39
3572.5725725725724 3.244281301686243e+39
3582.5825825825827 3.223557526815376e+39
3592.5925925925926 3.2029639932241706e+39
3602.6026026026025 3.182499879261777e+39
3612.612612612613 3.162164416783601e+39
3622.6226226226227 3.1419568871912956e+39
3632.6326326326325 3.121876617577735e+39
3642.642642642643 3.101922976988252e+39
3652.6526526526527 3.082095372807347e+39
3662.6626626626626 3.0623932472781135e+39
3672.672672672673 3.042816074160099e+39
3682.6826826826828 3.023363355529667e+39
3692.6926926926926 3.004034618725698e+39
3702.7027027027025 2.984829413442279e+39
3712.712712712713 2.9657473089689857e+39
3722.7227227227227 2.9467878915785114e+39
3732.7327327327325 2.9279507620605096e+39
3742.742742742743 2.9092355333999726e+39
3752.7527527527527 2.890641828597767e+39
3762.7627627627626 2.8721692786304926e+39
3772.772772772773 2.853817520546428e+39
3782.7827827827828 2.835586195693932e+39
3792.7927927927926 2.817474948078362e+39
3802.802802802803 2.799483422843451e+39
3812.812812812813 2.781611264872699e+39
3822.8228228228227 2.7638581175064044e+39
3832.832832832833 2.7462236213696965e+39
3842.842842842843 2.728707413306977e+39
3852.8528528528527 2.7113091254180508e+39
3862.862862862863 2.6940283841913034e+39
3872.872872872873 2.6768648097292417e+39
3882.8828828828828 2.659818015061757e+39
3892.892892892893 2.64288760554261e+39
3902.902902902903 2.6260731783245412e+39
3912.912912912913 2.6093743219087016e+39
3922.922922922923 2.5927906157640138e+39
3932.932932932933 2.576321630012336e+39
3942.942942942943 2.5599669251752765e+39
3952.9529529529527 2.5437260519787568e+39
3962.962962962963 2.5275985512114588e+39
3972.972972972973 2.5115839536334757e+39
3982.982982982983 2.49568177993158e+39
3992.992992992993 2.479891540717706e+39
4003.003003003003 2.464212736567352e+39
4013.013013013013 2.4486448580947405e+39
4023.023023023023 2.4331873860617414e+39
4033.033033033033 2.4178397915176594e+39
4043.043043043043 2.402601535967176e+39
4053.053053053053 2.3874720715638072e+39
4063.063063063063 2.3724508413264346e+39
4073.073073073073 2.3575372793765195e+39
4083.0830830830832 2.342730811193827e+39
4093.093093093093 2.3280308538885163e+39
4103.103103103103 2.3134368164876314e+39
4113.113113113113 2.2989481002341525e+39
4123.123123123123 2.2845640988967882e+39
4133.133133133133 2.2702841990889204e+39
4143.143143143143 2.2561077805951368e+39
4153.153153153153 2.242034216703894e+39
4163.163163163163 2.2280628745449776e+39
4173.173173173173 2.2141931154304946e+39
4183.183183183183 2.200424295198234e+39
4193.193193193193 2.186755764556305e+39
4203.203203203203 2.1731868694280573e+39
4213.213213213214 2.159716951296349e+39
4223.223223223224 2.1463453475463172e+39
4233.2332332332335 2.1330713918058484e+39
4243.243243243243 2.11989441428306e+39
4253.253253253253 2.1068137421001043e+39
4263.263263263263 2.0938286996227322e+39
4273.273273273273 2.0809386087850508e+39
4283.283283283283 2.068142789408999e+39
4293.293293293293 2.0554405595181174e+39
4303.303303303303 2.0428312356451913e+39
4313.313313313313 2.0303141331334653e+39
4323.323323323323 2.0178885664310817e+39
4333.333333333334 2.0055538493785218e+39
4343.343343343344 1.9933092954887947e+39
4353.353353353354 1.981154218220192e+39
4363.3633633633635 1.9690879312414504e+39
4373.373373373373 1.9571097486891918e+39
4383.383383383383 1.9452189854175306e+39
4393.393393393393 1.9334149572397908e+39
4403.403403403403 1.9216969811622648e+39
4413.413413413413 1.91006437560998e+39
4423.423423423424 1.898516460644497e+39
4433.4334334334335 1.8870525581737093e+39
4443.443443443443 1.8756719921536936e+39
4453.453453453454 1.8643740887826552e+39
4463.463463463464 1.8531581766870338e+39
4473.473473473474 1.8420235870998038e+39
4483.483483483484 1.830969654031112e+39
4493.493493493494 1.8199957144312982e+39
4503.503503503503 1.8091011083464297e+39
4513.513513513513 1.7982851790664625e+39
4523.523523523523 1.7875472732661288e+39
4533.533533533533 1.7768867411387257e+39
4543.543543543543 1.7663029365228855e+39
4553.553553553554 1.755795217022511e+39
4563.563563563564 1.745362944120006e+39
4573.573573573573 1.7350054832829447e+39
4583.583583583584 1.7247222040643433e+39
4593.593593593594 1.7145124801966912e+39
4603.603603603604 1.704375689679883e+39
4613.613613613614 1.6943112148632396e+39
4623.623623623624 1.6843184425217473e+39
4633.6336336336335 1.6743967639267e+39
4643.643643643643 1.664545574910908e+39
4653.653653653653 1.6547642759286095e+39
4663.663663663663 1.645052272110282e+39
4673.673673673674 1.6354089733124854e+39
4683.683683683684 1.6258337941629212e+39
4693.693693693694 1.616326154100843e+39
4703.703703703704 1.6068854774129986e+39
4713.713713713714 1.597511193265249e+39
4723.723723723724 1.588202735730012e+39
4733.733733733734 1.5789595438096966e+39
4743.743743743744 1.5697810614562722e+39
4753.753753753754 1.5606667375871143e+39
4763.763763763764 1.551616026097284e+39
4773.773773773773 1.5426283858683656e+39
4783.783783783783 1.5337032807740308e+39
4793.793793793793 1.5248401796824336e+39
4803.803803803804 1.516038556455593e+39
4813.813813813814 1.5072978899458856e+39
4823.823823823824 1.4986176639897817e+39
4833.833833833834 1.4899973673989426e+39
4843.843843843844 1.48143649394881e+39
4853.853853853854 1.4729345423647988e+39
4863.863863863864 1.4644910163062172e+39
4873.873873873874 1.456105424348021e+39
4883.883883883884 1.447777279960516e+39
4893.893893893894 1.439506101487116e+39
4903.9039039039035 1.4312914121202544e+39
4913.913913913913 1.4231327398755584e+39
4923.923923923924 1.4150296175643778e+39
4933.933933933934 1.406981582764772e+39
4943.943943943944 1.3989881777910283e+39
4953.953953953955 1.3910489496618242e+39
4963.9639639639645 1.3831634500671122e+39
4973.973973973974 1.3753312353337877e+39
4983.983983983984 1.3675518663902675e+39
4993.993993993994 1.359824908730006e+39
5004.004004004004 1.3521499323740609e+39
5014.014014014014 1.3445265118327665e+39
5024.024024024024 1.3369542260665774e+39
5034.0340340340335 1.3294326584461719e+39
5044.044044044043 1.321961396711852e+39
5054.054054054054 1.3145400329323288e+39
5064.064064064064 1.3071681634629333e+39
5074.074074074074 1.299845388903322e+39
5084.084084084085 1.2925713140547234e+39
5094.0940940940945 1.2853455478767932e+39
5104.104104104104 1.2781677034441101e+39
5114.114114114114 1.2710373979023754e+39
5124.124124124124 1.2639542524243576e+39
5134.134134134134 1.2569178921656282e+39
5144.144144144144 1.2499279462201263e+39
5154.154154154154 1.2429840475756035e+39
5164.1641641641645 1.2360858330689745e+39
5174.174174174174 1.229232943341627e+39
5184.184184184184 1.2224250227947054e+39
5194.194194194194 1.215661719544421e+39
5204.204204204204 1.2089426853774152e+39
5214.214214214214 1.2022675757061973e+39
5224.224224224225 1.1956360495246958e+39
5234.2342342342345 1.1890477693639525e+39
5244.244244244244 1.1825024012479696e+39
5254.254254254254 1.1759996146497588e+39
5264.264264264264 1.1695390824475865e+39
5274.274274274274 1.1631204808814675e+39
5284.284284284285 1.1567434895099023e+39
5294.294294294295 1.150407791166894e+39
5304.304304304304 1.1441130719192498e+39
5314.314314314314 1.1378590210242013e+39
5324.324324324324 1.1316453308873385e+39
5334.334334334334 1.125471697020894e+39
5344.344344344345 1.119337818002369e+39
5354.354354354355 1.1132433954335398e+39
5364.3643643643645 1.1071881338998268e+39
5374.374374374374 1.1011717409300692e+39
5384.384384384384 1.0951939269566834e+39
5394.394394394394 1.089254405276246e+39
5404.404404404404 1.0833528920104779e+39
5414.414414414415 1.0774891060676685e+39
5424.424424424425 1.071662769104526e+39
5434.4344344344345 1.0658736054884618e+39
5444.444444444444 1.0601213422603251e+39
5454.454454454454 1.0544057090975879e+39
5464.464464464464 1.0487264382779781e+39
5474.474474474475 1.0430832646435732e+39
5484.484484484485 1.0374759255653552e+39
5494.494494494495 1.0319041609082264e+39
5504.504504504504 1.0263677129964932e+39
5514.514514514514 1.0208663265798126e+39
5524.524524524524 1.0153997487996137e+39
5534.534534534535 1.0099677291559824e+39
5544.544544544545 1.0045700194750184e+39
5554.554554554555 9.992063738766569e+38
5564.5645645645645 9.938765487429661e+38
5574.574574574574 9.88580302686907e+38
5584.584584584584 9.833173965215628e+38
5594.594594594595 9.780875932298269e+38
5604.604604604605 9.728906579345687e+38
5614.614614614615 9.677263578692418e+38
5624.624624624625 9.625944623489655e+38
5634.6346346346345 9.574947427420564e+38
5644.644644644644 9.524269724420131e+38
5654.654654654654 9.473909268399532e+38
5664.664664664665 9.42386383297493e+38
5674.674674674675 9.374131211200778e+38
5684.684684684685 9.324709215307426e+38
5694.694694694695 9.275595676443138e+38
5704.704704704704 9.226788444420433e+38
5714.714714714714 9.178285387466665e+38
5724.724724724725 9.130084391978834e+38
5734.734734734735 9.082183362282621e+38
5744.744744744745 9.034580220395524e+38
5754.754754754755 8.987272905794071e+38
5764.764764764765 8.940259375185149e+38
5774.774774774774 8.893537602281246e+38
5784.784784784785 8.847105577579677e+38
5794.794794794795 8.800961308145714e+38
5804.804804804805 8.755102817399525e+38
5814.814814814815 8.709528144906936e+38
5824.824824824825 8.66423534617392e+38
5834.8348348348345 8.619222492444753e+38
5844.844844844845 8.57448767050387e+38
5854.854854854855 8.530028982481213e+38
5864.864864864865 8.485844545661153e+38
5874.874874874875 8.441932492294912e+38
5884.884884884885 8.398290969416348e+38
5894.894894894895 8.354918138661134e+38
5904.9049049049045 8.311812176089262e+38
