#lamb flux
1000.0 0.07691903827685133
1010.01001001001 0.07801825819594017
1020.0200200200201 0.07906445270845634
1030.03003003003 0.08005820627588477
1040.0400400400401 0.08100018970496876
1050.05005005005 0.08189115031802664
1060.06006006006 0.08273190280030115
1070.07007007007 0.08352332069924073
1080.08008008008 0.08426632854850442
1090.0900900900901 0.08496189458805296
1100.1001001001 0.08561102405084252
1110.11011011011 0.08621475298626641
1120.1201201201202 0.08677414259049969
1130.13013013013 0.08729027401422987
1140.1401401401401 0.08776424361882579
1150.1501501501502 0.08819715865276653
1160.16016016016 0.08859013332105997
1170.1701701701702 0.08894428522140921
1180.1801801801803 0.08926073212197934
1190.1901901901902 0.0895405890567682
1200.2002002002002 0.08978496571576247
1210.2102102102103 0.08999496410824792
1220.2202202202202 0.090171676478825
1230.2302302302303 0.09031618345685093
1240.2402402402402 0.0904295524211674
1250.2502502502502 0.09051250136429581
1260.2602602602603 0.09056507203868838
1270.2702702702702 0.09058650230426642
1280.2802802802803 0.09057787854762457
1290.2902902902902 0.090540272330456
1300.3003003003003 0.09047473907036571
1310.3103103103103 0.09038231688368521
1320.3203203203202 0.09026402557824316
1330.3303303303303 0.09012086578469712
1340.3403403403404 0.08995381821565825
1350.3503503503503 0.08976384304245359
1360.3603603603603 0.08955187937996685
1370.3703703703704 0.08931884487056602
1380.3803803803803 0.08906563535868306
1390.3903903903904 0.08879312464813181
1400.4004004004005 0.08850216433475867
1410.4104104104103 0.08819358370749933
1420.4204204204204 0.08786818971137092
1430.4304304304305 0.08752676696636233
1440.4404404404404 0.08717007783659739
1450.4504504504505 0.08679886254452931
1460.4604604604606 0.08641383932529412
1470.4704704704704 0.0860157046166924
1480.4804804804805 0.08560513328059388
1490.4904904904906 0.08518277885186251
1500.5005005005005 0.08474927381118534
1510.5105105105106 0.08430522987845565
1520.5205205205207 0.08385123832361174
1530.5305305305305 0.08338787029206761
1540.5405405405404 0.08291567714208997
1550.5505505505505 0.08243519079168724
1560.5605605605606 0.0819469240727631
1570.5705705705705 0.08145137109047934
1580.5805805805805 0.08094900758593913
1590.5905905905906 0.08044029130047343
1600.6006006006005 0.0799256623399702
1610.6106106106106 0.07940554353784679
1620.6206206206207 0.07888034081541687
1630.6306306306305 0.07835044353856546
1640.6406406406406 0.0778162248698035
1650.6506506506507 0.07727804211494906
1660.6606606606606 0.07673623706386401
1670.6706706706707 0.0761911363248814
1680.6806806806808 0.07564305165278944
1690.6906906906906 0.07509228027050212
1700.7007007007007 0.07453911942037919
1710.7107107107108 0.07398389512636078
1720.7207207207207 0.07342685601282761
1730.7307307307308 0.07286823053509274
1740.7407407407409 0.07230823528752021
1750.7507507507507 0.07174707524515553
1760.7607607607606 0.07118494401600638
1770.770770770771 0.0706220241089475
1780.7807807807808 0.07005848722349782
1790.7907907907907 0.06949449456923211
1800.8008008008007 0.06893019722437176
1810.8108108108108 0.06836573654518019
1820.8208208208207 0.06780124464019015
1830.8308308308308 0.06723684492602093
1840.8408408408409 0.06667265278458995
1850.8508508508507 0.06610877634483793
1860.8608608608608 0.06554531741557126
1870.870870870871 0.06498237259950534
1880.8808808808808 0.06442003462179406
1890.890890890891 0.06385839390884718
1900.900900900901 0.06329754045448453
1910.9109109109108 0.06273756600966456
1920.920920920921 0.06217856662812175
1930.930930930931 0.06162064559195975
1940.940940940941 0.06106391672704733
1950.950950950951 0.06050850809625574
1960.960960960961 0.05995456602747265
1970.970970970971 0.0594022593915085
1980.980980980981 0.05885178399178639
1990.9909909909911 0.058303366863658924
2001.001001001001 0.05775727020894169
2011.0110110110109 0.05721379461617124
2021.0210210210212 0.05667328114797429
2031.031031031031 0.05613611182620781
2041.0410410410411 0.0556027080287579
2051.051051051051 0.05507352634616949
2061.061061061061 0.05454905154729929
2071.071071071071 0.05402978648103959
2081.081081081081 0.05351623899547356
2091.091091091091 0.05300890627135299
2101.101101101101 0.05250825731115388
2111.1111111111113 0.05201471465015612
2121.121121121121 0.05152863660481122
2131.131131131131 0.051050301490707446
2141.141141141141 0.05057989518763947
2151.151151151151 0.05011750319017095
2161.161161161161 0.049663107880732534
2171.1711711711714 0.049216591253808784
2181.1811811811813 0.0487777427817142
2191.191191191191 0.048346271627987686
2201.201201201201 0.04792182205394812
2211.2112112112113 0.047503990670704266
2221.221221221221 0.04709234417251416
2231.2312312312315 0.04668643632610794
2241.2412412412414 0.046285823240596755
2251.2512512512512 0.04589007625049764
2261.261261261261 0.045498792059189594
2271.271271271271 0.04511160007166075
2281.2812812812813 0.044728167068574326
2291.2912912912916 0.04434819952825896
2301.3013013013015 0.0439714439910868
2311.3113113113113 0.04359768589170676
2321.321321321321 0.04322674727251158
2331.331331331331 0.04285848375091458
2341.3413413413414 0.04249278105633269
2351.3513513513512 0.042129551390373055
2361.3613613613616 0.04176872980282185
2371.3713713713714 0.04141027072113788
2381.3813813813813 0.0410541447245733
2391.391391391391 0.040700335616486866
2401.4014014014015 0.04034883781953016
2411.4114114114113 0.03999965409722233
2421.4214214214217 0.039652793590749934
2431.4314314314315 0.03930827015035086
2441.4414414414414 0.038966100935167565
2451.4514514514512 0.03862630525293789
2461.4614614614616 0.03828890361046493
2471.4714714714714 0.03795391694678648
2481.4814814814818 0.037621366022820214
2491.4914914914916 0.037291270943606514
2501.5015015015015 0.036963650791828465
2511.5115115115113 0.036638523353868774
2521.521521521521 0.0363159049221414
2531.5315315315315 0.03599581015973993
2541.541541541542 0.03567825201553331
2551.5515515515517 0.035363241679698294
2561.5615615615616 0.035050788571308326
2571.5715715715714 0.03474090035101259
2581.5815815815813 0.03443358295304891
2591.5915915915916 0.03412884063186771
2601.6016016016015 0.03382667601951406
2611.611611611612 0.03352709019064641
2621.6216216216217 0.03323008273268106
2631.6316316316315 0.032935651819057436
2641.6416416416414 0.03264379428403878
2651.6516516516517 0.03235450569780578
2661.6616616616616 0.03206778044088338
2671.671671671672 0.03178361177716997
2681.6816816816818 0.031501991925024425
2691.6916916916916 0.031222912126016328
2701.7017017017015 0.030946362711064854
2711.711711711712 0.030672333163788108
2721.7217217217217 0.03040081218096007
2731.731731731732 0.03013178773003119
2741.741741741742 0.02986524710371607
2751.7517517517517 0.029601176971685093
2761.7617617617616 0.02933956342942482
2771.7717717717715 0.029080392044350176
2781.781781781782 0.02882364789926585
2791.791791791792 0.028569315633283673
2801.801801801802 0.02831737948030781
2811.811811811812 0.028067823305203063
2821.8218218218217 0.02782063063776245
2831.8318318318316 0.0275757847045889
2841.841841841842 0.02733326845900398
2851.851851851852 0.02709306460909386
2861.861861861862 0.026855155643998246
2871.871871871872 0.026619523858544564
2881.881881881882 0.026386151376324985
2891.8918918918916 0.02615502017130903
2901.901901901902 0.02592611208807996
2911.911911911912 0.025699408860778688
2921.921921921922 0.02547489213083386
2931.931931931932 0.025252543463552952
2941.941941941942 0.02503234436364385
2951.9519519519517 0.02481427628973349
2961.961961961962 0.024598320667945022
2971.971971971972 0.024384458904591764
2981.9819819819822 0.024172672398042473
2991.991991991992 0.023962942549808918
3002.002002002002 0.02375525077490363
3012.012012012012 0.0235495785115128
3022.0220220220217 0.023345907230026164
3032.032032032032 0.023148617212822395
3042.0420420420423 0.02294832332915622
3052.052052052052 0.022749827246627316
3062.062062062062 0.022553154002876375
3072.072072072072 0.02235832234626758
3082.0820820820823 0.022165345454035798
3092.092092092092 0.02197423158142086
3102.102102102102 0.02178498464773872
3112.1121121121123 0.021597604764886747
3122.122122122122 0.021412088713351228
3132.132132132132 0.021228430370384903
3142.1421421421423 0.021046621094646983
3152.152152152152 0.020866650071248462
3162.162162162162 0.02068850462082017
3172.1721721721724 0.020512170475919474
3182.1821821821823 0.020337632027811848
3192.192192192192 0.02016487254640502
3202.202202202202 0.019993874375875
3212.2122122122123 0.01982461910830352
3222.222222222222 0.01965708773744348
3232.232232232232 0.019491260794543244
3242.2422422422424 0.019327118467989485
3252.252252252252 0.019164640708371167
3262.262262262262 0.019003807320423276
3272.2722722722724 0.018844598043177233
3282.2822822822823 0.018686992619523852
3292.292292292292 0.018530970856284232
3302.3023023023025 0.018376512675783174
3312.3123123123123 0.018223598159826798
3322.322322322322 0.018072207586902263
3332.3323323323325 0.017922321463339955
3342.3423423423424 0.017773920549108695
3352.352352352352 0.017626985878849644
3362.3623623623625 0.01748149877869747
3372.3723723723724 0.017337440879382486
3382.3823823823823 0.017194794126060228
3392.3923923923926 0.01705354078527032
3402.4024024024025 0.016913663449386326
3412.4124124124123 0.016775145038881677
3422.4224224224226 0.016637968802704
3432.4324324324325 0.016502118317019518
3442.4424424424424 0.016367577482562064
3452.4524524524522 0.01623433052079651
3462.4624624624626 0.01610236196908361
3472.4724724724724 0.015971656675013234
3482.4824824824823 0.01584219979005391
3492.4924924924926 0.01571397676265063
3502.5025025025025 0.015586973330887047
3512.5125125125123 0.015461175514814813
3522.5225225225226 0.015336569608540693
3532.5325325325325 0.015213142172150489
3542.5425425425424 0.01509088002353915
3552.5525525525527 0.014969770230207307
3562.5625625625626 0.01484980010107636
3572.5725725725724 0.014730957178366873
3582.5825825825827 0.014613229229578755
3592.5925925925926 0.014496604239605589
3602.6026026026025 0.014381070403010386
3612.612612612613 0.01426661611648549
3622.6226226226227 0.014153229971514882
3632.6326326326325 0.0140409007472538
3642.642642642643 0.013929617403637308
3652.6526526526527 0.013819369074726204
3662.6626626626626 0.013710145062296486
3672.672672672673 0.013601934829676334
3682.6826826826828 0.013494727995832437
3692.6926926926926 0.013388514329705864
3702.7027027027025 0.013283283744796348
3712.712712712713 0.01317902629399235
3722.7227227227227 0.013075732164643555
3732.7327327327325 0.012973391673870826
3742.742742742743 0.012871995264108985
3752.7527527527527 0.012771533498875914
3762.7627627627626 0.012671997058761899
3772.772772772773 0.012573376737632232
3782.7827827827828 0.012475663439035957
3792.7927927927926 0.012378848172813194
3802.802802802803 0.0122829220518937
3812.812812812813 0.01218787628927872
3822.8228228228227 0.012093702195198496
3832.832832832833 0.012000391174437727
3842.842842842843 0.011907934723821147
3852.8528528528527 0.011816324429851727
3862.862862862863 0.011725551966493795
3872.872872872873 0.011635609093093961
3882.8828828828828 0.011546487652432193
3892.892892892893 0.01145817956889654
3902.902902902903 0.011370676846774095
3912.912912912913 0.011283971568651898
3922.922922922923 0.011198055893921147
3932.932932932933 0.01111292205737866
3942.942942942943 0.01102856236791936
3952.9529529529527 0.010944969207314213
3962.962962962963 0.010862135029068028
3972.972972972973 0.010780052357351768
3982.982982982983 0.010698713786004337
3992.992992992993 0.010618111977598939
4003.003003003003 0.010538239662569629
4013.013013013013 0.010459089638393268
4023.023023023023 0.010380654768823076
4033.033033033033 0.010302927983169632
4043.043043043043 0.010225902275625611
4053.053053053053 0.010149570704630743
4063.063063063063 0.010073926392273605
4073.073073073073 0.009998962523727123
4083.0830830830832 0.00992467234671478
4093.093093093093 0.009851049171004793
4103.103103103103 0.0097780863679295
4113.113113113113 0.009705777369927737
4123.123123123123 0.009634115670107607
4133.133133133133 0.009563094821827763
4143.143143143143 0.009492708438295017
4153.153153153153 0.009422950192176514
4163.163163163163 0.009353813815224649
4173.173173173173 0.00928529309791322
4183.183183183183 0.009217381889083246
4193.193193193193 0.00915007409559708
4203.203203203203 0.009083363681999601
4213.213213213214 0.0090172446701853
4223.223223223224 0.008951711139070125
4233.2332332332335 0.008886757224267208
4243.243243243243 0.008822377117765493
4253.253253253253 0.00875856506761052
4263.263263263263 0.008695315377586577
4273.273273273273 0.008632622406899607
4283.283283283283 0.00857048056986021
4293.293293293293 0.008508884335566283
4303.303303303303 0.00844782822758474
4313.313313313313 0.008387306823632009
4323.323323323323 0.008327314755252757
4333.333333333334 0.008267846707496751
4343.343343343344 0.0082088974185934
4353.353353353354 0.008150461679623803
4363.3633633633635 0.008092534334190181
4373.373373373373 0.00803511027808239
4383.383383383383 0.00797818445894154
4393.393393393393 0.007921751875920533
4403.403403403403 0.00786580757934147
4413.413413413413 0.007810346670349895
4423.423423423424 0.007755364300565898
4433.4334334334335 0.007700855671732013
4443.443443443443 0.007646816035357951
4453.453453453454 0.007593240692362266
4463.463463463464 0.007540124992711001
4473.473473473474 0.007487464335053241
4483.483483483484 0.007435254166353939
4493.493493493494 0.007383489981523814
4503.503503503503 0.007332167323046675
4513.513513513513 0.007281281780604123
4523.523523523523 0.007230828990697811
4533.533533533533 0.007180804636269471
4543.543543543543 0.00713120444631868
4553.553553553554 0.007082024195518669
4563.563563563564 0.007033259703830254
4573.573573573573 0.006984906836113985
4583.583583583584 0.006936961501740808
4593.593593593594 0.006889419654201259
4603.603603603604 0.0068422772907133726
4613.613613613614 0.006795530451829589
4623.623623623624 0.006749175221042585
4633.6336336336335 0.006703207724390419
4643.643643643643 0.006657624130061006
4653.653653653653 0.006612420647996099
4663.663663663663 0.006567593529494973
4673.673673673674 0.006523139066817916
4683.683683683684 0.006479053592789724
4693.693693693694 0.006435333480403276
4703.703703703704 0.006391975142423411
4713.713713713714 0.006348975030991218
4723.723723723724 0.006306329637228841
4733.733733733734 0.006264035490844964
4743.743743743744 0.006222089159741174
4753.753753753754 0.00618048724961917
4763.763763763764 0.006139226403589123
4773.773773773773 0.006098303301779136
4783.783783783783 0.006057714660946105
4793.793793793793 0.006017457234087909
4803.803803803804 0.005977527810057164
4813.813813813814 0.005937923213176616
4823.823823823824 0.0058986403028562385
4833.833833833834 0.005859675973212168
4843.843843843844 0.005821027152687583
4853.853853853854 0.005782690803675562
4863.863863863864 0.0057446639221440535
4873.873873873874 0.005706943537263036
4883.883883883884 0.005669526711033919
4893.893893893894 0.005632410537921283
4903.9039039039035 0.005595592144487037
4913.913913913913 0.005559068689027005
4923.923923923924 0.005522837361210091
4933.933933933934 0.005486895381720035
4943.943943943944 0.0054512400018997525
4953.953953953955 0.005415868503398476
4963.9639639639645 0.005380778197821582
4973.973973973974 0.005345966426383229
4983.983983983984 0.005311430559561853
4993.993993993994 0.005277167996758535
5004.004004004004 0.005243176165958286
5014.014014014014 0.005209452523394298
5024.024024024024 0.005175994553215156
5034.0340340340335 0.005142799767155105
5044.044044044043 0.005109865704207311
5054.054054054054 0.005077189930300219
5064.064064064064 0.005044770037976985
5074.074074074074 0.005012603646077996
5084.084084084085 0.004980688399426528
5094.0940940940945 0.004949021968517541
5104.104104104104 0.004917602049209586
5114.114114114114 0.004886426362419899
5124.124124124124 0.004855492653822629
5134.134134134134 0.004824798693550264
5144.144144144144 0.0047943422758981785
5154.154154154154 0.004764121219032402
5164.1641641641645 0.004734133364700513
5174.174174174174 0.004704376577945745
5184.184184184184 0.004674848746824214
5194.194194194194 0.00464554778212533
5204.204204204204 0.004616471617095366
5214.214214214214 0.004587618207164157
5224.224224224225 0.0045589855296749365
5234.2342342342345 0.004530571583617319
5244.244244244244 0.004502374389363351
5254.254254254254 0.004474391988406721
5264.264264264264 0.0044466224431050005
5274.274274274274 0.004419063836424987
5284.284284284285 0.004391714271691106
5294.294294294295 0.004364571872336822
5304.304304304304 0.004337634781659091
5314.314314314314 0.004310901162575812
5324.324324324324 0.004284369197386245
5334.334334334334 0.004258037087534415
5344.344344344345 0.0042319030533754165
5354.354354354355 0.0042059653339446825
5364.3643643643645 0.004180222186730094
5374.374374374374 0.004154671887447019
5384.384384384384 0.004129312729816153
5394.394394394394 0.00410414302534421
5404.404404404404 0.004079161103107394
5414.414414414415 0.004054365309537667
5424.424424424425 0.004029754008211755
5434.4344344344345 0.004005325579642864
5444.444444444444 0.003981078421075114
5454.454454454454 0.003957010946280643
5464.464464464464 0.003933121585359342
5474.474474474475 0.003909408784541217
5484.484484484485 0.003885871005991346
5494.494494494495 0.0038625067276173764
5504.504504504504 0.003839314442879601
5514.514514514514 0.003816292660603494
5524.524524524524 0.0037934399047947678
5534.534534534535 0.0037707547144568616
5544.544544544545 0.003748235643410868
5554.554554554555 0.0037258812601178317
5564.5645645645645 0.0037036901475034625
5574.574574574574 0.0036816609027851533
5584.584584584584 0.003659792137301327
5594.594594594595 0.003638082476343061
5604.604604604605 0.003616530558988002
5614.614614614615 0.0035951350379364606
5624.624624624625 0.0035738945793497515
5634.6346346346345 0.0035528078626906982
5644.644644644644 0.003531873580566279
5654.654654654654 0.0035110904385724055
5664.664664664665 0.003490457155140777
5674.674674674675 0.003469972461387842
5684.684684684685 0.0034496351009657444
5694.694694694695 0.003429443829915332
5704.704704704704 0.0034093974165211247
5714.714714714714 0.003389494641168258
5724.724724724725 0.0033697342962013504
5734.734734734735 0.003350115185785289
5744.744744744745 0.0033306361257678906
5754.754754754755 0.0033112959435444194
5764.764764764765 0.0032920934779239464
5774.774774774774 0.0032730275789975083
5784.784784784785 0.003254097108008046
5794.794794794795 0.0032353009372221033
5804.804804804805 0.003216637949803261
5814.814814814815 0.003198107039687272
5824.824824824825 0.003179707111458892
5834.8348348348345 0.0031614370802303467
5844.844844844845 0.0031432958715214756
5854.854854854855 0.0031252824211414503
5864.864864864865 0.0031073956750721004
5874.874874874875 0.0030896345893528113
5884.884884884885 0.0030719981299669606
5894.894894894895 0.003054485272729874
5904.9049049049045 0.003037095003178291
5914.914914914915 0.0030198263164613044
5924.924924924925 0.0030026782172327625
5934.934934934935 0.0029856497195450927
5944.944944944945 0.0029687398467445635
5954.954954954955 0.0029519476313679214
5964.964964964965 0.00293527211504041
5974.974974974975 0.0029187123483751455
5984.984984984985 0.0029022673908738264
5994.994994994995 0.0028859363108287464
6005.005005005005 0.0028697181852261108
6015.015015015015 0.0028536120996506364
6025.025025025025 0.0028376171481913934
6035.035035035035 0.0028217324333488897
6045.045045045045 0.002805957065943388
6055.055055055055 0.002790290165024401
6065.065065065065 0.002774730857781388
6075.075075075075 0.0027592782794556184
6085.085085085085 0.0027439315732531635
6095.0950950950955 0.002728689890259051
6105.105105105105 0.0027135523893525083
6115.115115115115 0.002698518237123314
