#lamb flux
1000.0 0.8382270922775635
1010.01001001001 0.832322834739611
1020.0200200200201 0.8261947577194535
1030.03003003003 0.8198602649382443
1040.0400400400401 0.8133360169818976
1050.05005005005 0.8066379446096965
1060.06006006006 0.7997812636977595
1070.07007007007 0.792780491543248
1080.08008008008 0.7856494642829982
1090.0900900900901 0.7784013552059276
1100.1001001001 0.7710486937621088
1110.11011011011 0.7636033850931074
1120.1201201201202 0.7560767299279579
1130.13013013013 0.7484794447072903
1140.1401401401401 0.7408216818145813
1150.1501501501502 0.7331130498085509
1160.16016016016 0.7253626335642871
1170.1701701701702 0.7175790142430464
1180.1801801801803 0.7097702890217915
1190.1901901901902 0.701944090523554
1200.2002002002002 0.6941076058987505
1210.2102102102103 0.6862675955156734
1220.2202202202202 0.6784304112256112
1230.2302302302303 0.6706020141745334
1240.2402402402402 0.6627879921390414
1250.2502502502502 0.6549935755677411
1260.2602602602603 0.6472236531984068
1270.2702702702702 0.6394827876778116
1280.2802802802803 0.6317752370921519
1290.2902902902902 0.6241049652322784
1300.3003003003003 0.6164756558546767
1310.3103103103103 0.6088907264245126
1320.3203203203202 0.6013533413456146
1330.3303303303303 0.5938664246840166
1340.3403403403404 0.586432672393116
1350.3503503503503 0.5790545640497357
1360.3603603603603 0.5717343741113973
1370.3703703703704 0.564474182705948
1380.3803803803803 0.5572758859653506
1390.3903903903904 0.5501412059159805
1400.4004004004005 0.5430716999381664
1410.4104104104103 0.5360687698080059
1420.4204204204204 0.5291336703346672
1430.4304304304305 0.5222675176064937
1440.4404404404404 0.515471296859255
1450.4504504504505 0.5087458699798465
1460.4604604604606 0.5020919826586447
1470.4704704704704 0.49551027120358004
1480.4804804804805 0.4890012690288063
1490.4904904904906 0.48256541283062176
1500.5005005005005 0.4762030484630488
1510.5105105105106 0.4699144365252108
1520.5205205205207 0.4636997576723406
1530.5305305305305 0.45755911766196183
1540.5405405405404 0.451492552146448
1550.5505505505505 0.44550003122285237
1560.5605605605606 0.43958146375054813
1570.5705705705705 0.4337367014468969
1580.5805805805805 0.4279655427708148
1590.5905905905906 0.4222677366037617
1600.6006006006005 0.41664298573734976
1610.6106106106106 0.4110909501764281
1620.6206206206207 0.4056112502661661
1630.6306306306305 0.4002034696513418
1640.6406406406406 0.3948671580757056
1650.6506506506507 0.38960183402900195
1660.6606606606606 0.3844069872488958
1670.6706706706707 0.3792820810847814
1680.6806806806808 0.37422655473013716
1690.6906906906906 0.36923982532983063
1700.7007007007007 0.3643212899915136
1710.7107107107108 0.359470327705984
1720.7207207207207 0.3546863009427797
1730.7307307307308 0.34996855740938837
1740.7407407407409 0.3453164316328753
1750.7507507507507 0.34072924643626273
1760.7607607607606 0.3362063143274738
1770.770770770771 0.3317469388052899
1780.7807807807808 0.32735041558657596
1790.7907907907907 0.32301603375882887
1800.8008008008007 0.3187430768619177
1810.8108108108108 0.3145308239027113
1820.8208208208207 0.3103785503061056
1830.8308308308308 0.3062855288058162
1840.8408408408409 0.30225103027813194
1850.8508508508507 0.2982743245216857
1860.8608608608608 0.2943546809861499
1870.870870870871 0.2904913694526377
1880.8808808808808 0.2866836606684504
1890.890890890891 0.2829308269386942
1900.900900900901 0.27923214267716656
1910.9109109109108 0.27558688491879285
1920.920920920921 0.27199433379577775
1930.930930930931 0.2684537729795149
1940.940940940941 0.2649644900901833
1950.950950950951 0.2615257770758251
1960.960960960961 0.25813693056256787
1970.970970970971 0.25479725217751203
1980.980980980981 0.25150604884564404
1990.9909909909911 0.24826263306197918
2001.001001001001 0.24506632313995907
2011.0110110110109 0.2419164434369646
2021.0210210210212 0.23881232455765286
2031.031031031031 0.2357533035356917
2041.0410410410411 0.23273872399440143
2051.051051051051 0.22976793628680806
2061.061061061061 0.2268402976157062
2071.071071071071 0.22395517213452812
2081.081081081081 0.2211119310301211
2091.091091091091 0.21830995258891284
2101.101101101101 0.2155486222483638
2111.1111111111113 0.21282733263598608
2121.121121121121 0.21014548359848115
2131.131131131131 0.20750248222362594
2141.141141141141 0.20489774285739437
2151.151151151151 0.20233068711838798
2161.161161161161 0.19980074391104252
2171.1711711711714 0.19730734943832479
2181.1811811811813 0.19484994721387652
2191.191191191191 0.19242798807287823
2201.201201201201 0.19004093018043097
2211.2112112112113 0.18768823903600756
2221.221221221221 0.18536938747252568
2231.2312312312315 0.18308385564881163
2241.2412412412414 0.1808311310345801
2251.2512512512512 0.1786107083874722
2261.261261261261 0.17642208972212148
2271.271271271271 0.17426478427156974
2281.2812812812813 0.17213830844163291
2291.2912912912916 0.1700421857589901
2301.3013013013015 0.16797594681384942
2311.3113113113113 0.16593912919805168
2321.321321321321 0.1639312774394265
2331.331331331331 0.16195194293312412
2341.3413413413414 0.16000068387055552
2351.3513513513512 0.15807706516646297
2361.3613613613616 0.15618065838454626
2371.3713713713714 0.15431104166198675
2381.3813813813813 0.15246779963313276
2391.391391391391 0.15065052335255708
2401.4014014014015 0.14885881021764408
2411.4114114114113 0.14709226389083532
2421.4214214214217 0.14535049422163254
2431.4314314314315 0.14363311716844024
2441.4414414414414 0.1419397547203168
2451.4514514514512 0.14027003481869427
2461.4614614614616 0.13862359127912066
2471.4714714714714 0.1370000637130767
2481.4814814814818 0.13539909744991227
2491.4914914914916 0.13382034345895083
2501.5015015015015 0.13226345827180502
2511.5115115115113 0.13072810390494735
2521.521521521521 0.12921394778257783
2531.5315315315315 0.127720662659829
2541.541541541542 0.12624792654634912
2551.5515515515517 0.12479542263029993
2561.5615615615616 0.12336283920280589
2571.5715715715714 0.12194986958289042
2581.5815815815813 0.12055621204293056
2591.5915915915916 0.11918156973466233
2601.6016016016015 0.11782565061576511
2611.611611611612 0.11648816737705224
2621.6216216216217 0.11516883737029407
2631.6316316316315 0.11386738253669501
2641.6416416416414 0.11258352933604847
2651.6516516516517 0.11131700867658748
2661.6616616616616 0.11006755584554943
2671.671671671672 0.10883491044047164
2681.6816816816818 0.10761881630123214
2691.6916916916916 0.10641902144284798
2701.7017017017015 0.10523527798904359
2711.711711711712 0.10406734210659817
2721.7217217217217 0.10291497394048245
2731.731731731732 0.10177793754978932
2741.741741741742 0.10065600084446823
2751.7517517517517 0.09954893552286437
2761.7617617617616 0.09845651701007038
2771.7717717717715 0.09737852439709034
2781.781781781782 0.09631474038081946
2791.791791791792 0.09526495120484085
2801.801801801802 0.09422894660103805
2811.811811811812 0.09320651973202394
2821.8218218218217 0.09219746713438422
2831.8318318318316 0.09120158866273342
2841.841841841842 0.09021868743458047
2851.851851851852 0.08924856977600128
2861.861861861862 0.08829104516811342
2871.871871871872 0.08734592619434939
2881.881881881882 0.0864130284885231
2891.8918918918916 0.08549217068368502
2901.901901901902 0.08458317436175902
2911.911911911912 0.08368586400395642
2921.921921921922 0.08280006694195942
2931.931931931932 0.08192561330986856
2941.941941941942 0.0810623359969059
2951.9519519519517 0.08021007060086768
2961.961961961962 0.07936865538231876
2971.971971971972 0.07853793121952089
2981.9819819819822 0.07771774156408721
2991.991991991992 0.07690793239735504
3002.002002002002 0.0761083521874682
3012.012012012012 0.0753188518471619
3022.0220220220217 0.07453928469224005
3032.032032032032 0.07376951104076704
3042.0420420420423 0.07300937900564906
3052.052052052052 0.07225875396336283
3062.062062062062 0.07151749848657016
3072.072072072072 0.070785477346517
3082.0820820820823 0.07006255747629757
3092.092092092092 0.06934860793467029
3102.102102102102 0.0686434998704231
3112.1121121121123 0.0679471064872876
3122.122122122122 0.06725930300939836
3132.132132132132 0.06657996664729507
3142.1421421421423 0.06590897656446335
3152.152152152152 0.0652462138444113
3162.162162162162 0.06459156145827598
3172.1721721721724 0.06394490423295641
3182.1821821821823 0.06330612881976744
3192.192192192192 0.06267512366360925
3202.202202202202 0.062051778972647034
3212.2122122122123 0.061435986688495266
3222.222222222222 0.06082764045690064
3232.232232232232 0.06022663559891706
3242.2422422422424 0.05963286908256755
3252.252252252252 0.0590462394949857
3262.262262262262 0.05846664701503113
3272.2722722722724 0.057893993386371786
3282.2822822822823 0.05732818189102747
3292.292292292292 0.05676911732336658
3302.3023023023025 0.05621670596455132
3312.3123123123123 0.055670855557423314
3322.322322322322 0.05513147528182353
3332.3323323323325 0.05459847573033998
3342.3423423423424 0.054071768884476866
3352.352352352352 0.05355126809123739
3362.3623623623625 0.05303688804011549
3372.3723723723724 0.05252854474048868
3382.3823823823823 0.0520261554994055
3392.3923923923926 0.05152963889976226
3402.4024024024025 0.05103891477886158
3412.4124124124123 0.050553904207346706
3422.4224224224226 0.05007452946850574
3432.4324324324325 0.049600714037939295
3442.4424424424424 0.049132382563585146
3452.4524524524522 0.048669460846094484
3462.4624624624626 0.04821187581955305
3472.4724724724724 0.04775955553254211
3482.4824824824823 0.047312429129532256
3492.4924924924926 0.04687042683260539
3502.5025025025025 0.04643347992349859
3512.5125125125123 0.046001520725964244
3522.5225225225226 0.045574482588441226
3532.5325325325325 0.04515229986703124
3542.5425425425424 0.04473490790877537
3552.5525525525527 0.04432224303522516
3562.5625625625626 0.043914242526303424
3572.5725725725724 0.04351084460444896
3582.5825825825827 0.04311198841904101
3592.5925925925926 0.04271761403109765
3602.6026026026025 0.0423276623982437
3612.612612612613 0.04194207535994328
3622.6226226226227 0.041560795622991996
3632.6326326326325 0.04118376674726419
3642.642642642643 0.040810933131711045
3652.6526526526527 0.0404422400006045
3662.6626626626626 0.040077633390022606
3672.672672672673 0.03971706013457235
3682.6826826826828 0.039360467854345375
3692.6926926926926 0.03900780494210217
3702.7027027027025 0.03865902055068107
3712.712712712713 0.038314064580627444
3722.7227227227227 0.037972887668039926
3732.7327327327325 0.037635441172628334
3742.742742742743 0.03730167716598113
3752.7527527527527 0.0369715484200372
3762.7627627627626 0.03664500839575897
3772.772772772773 0.036322011232003085
3782.7827827827828 0.03600251173458497
3792.7927927927926 0.03568646536553362
3802.802802802803 0.035373828232533495
3812.812812812813 0.03506455707854974
3822.8228228228227 0.03475860927163373
3832.832832832833 0.03445594279490529
3842.842842842843 0.03415651623670881
3852.8528528528527 0.033860288780939614
3862.862862862863 0.03356722019753781
3872.872872872873 0.033277270833146674
3882.8828828828828 0.032990401601931764
3892.892892892893 0.032706573976559315
3902.902902902903 0.03242574997932939
3912.912912912913 0.032147892173462145
3922.922922922923 0.03187296365453372
3932.932932932933 0.031600928042059766
3942.942942942943 0.031331749471222865
3952.9529529529527 0.0310653925847423
3962.962962962963 0.030801822524882956
3972.972972972973 0.030541004925601047
3982.982982982983 0.0302829059048241
3992.992992992993 0.030027492056862583
4003.003003003003 0.02977473044495156
4013.013013013013 0.029524588593918814
4023.023023023023 0.029277034482978182
4033.033033033033 0.029032036538645334
4043.043043043043 0.028789563627773844
4053.053053053053 0.02854958505070951
4063.063063063063 0.028312070534560595
4073.073073073073 0.0280769902265821
4083.0830830830832 0.0278443146876718
4093.093093093093 0.027614014885976226
4103.103103103103 0.027386062190604438
4113.113113113113 0.027160428365447888
4123.123123123123 0.02693708556310403
4133.133133133133 0.026716006318902336
4143.143143143143 0.02649716354503051
4153.153153153153 0.026280530524759288
4163.163163163163 0.02606608090676387
4173.173173173173 0.025853788699540473
4183.183183183183 0.02564362826591617
4193.193193193193 0.02543557431765033
4203.203203203203 0.025229601910126024
4213.213213213214 0.025025686437130008
4223.223223223224 0.02482380362571935
4233.2332332332335 0.02462392953117328
4243.243243243243 0.024426040532029018
4253.253253253253 0.02423011332519955
4263.263263263263 0.024036124921172505
4273.273273273273 0.02384405263928815
4283.283283283283 0.02365387410309541
4293.293293293293 0.023465567235784524
4303.303303303303 0.02327911025569477
4313.313313313313 0.023094481671896216
4323.323323323323 0.02291166027984384
4333.333333333334 0.022730625157103123
4343.343343343344 0.022551355659145598
4353.353353353354 0.022373831415213135
4363.3633633633635 0.02219803232424986
4373.373373373373 0.02202393855090048
4383.383383383383 0.021851530521573754
4393.393393393393 0.02168078892057013
4403.403403403403 0.021511694686272256
4413.413413413413 0.021344229007397318
4423.423423423424 0.021178373319310276
4433.4334334334335 0.021014109300396638
4443.443443443443 0.020851418868493985
4453.453453453454 0.02069028417738102
4463.463463463464 0.02053068761332353
4473.473473473474 0.0203726117916755
4483.483483483484 0.020216039553535403
4493.493493493494 0.020060953962455857
4503.503503503503 0.019907338301206223
4513.513513513513 0.019755176068587114
4523.523523523523 0.019604450976295658
4533.533533533533 0.019455146945841165
4543.543543543543 0.019307248105509753
4553.553553553554 0.019160738787377465
4563.563563563564 0.019015603524370952
4573.573573573573 0.01887182704737475
4583.583583583584 0.01872939428238462
4593.593593593594 0.018588290347705937
4603.603603603604 0.01844850055119639
4613.613613613614 0.018310010387552415
4623.623623623624 0.018172805535638256
4633.6336336336335 0.018036871855857346
4643.643643643643 0.017902195387564983
4653.653653653653 0.01776876234652165
4663.663663663663 0.017636559122386403
4673.673673673674 0.017505572276249486
4683.683683683684 0.0173757885382037
4693.693693693694 0.017247194804953632
4703.703703703704 0.017119778137462235
4713.713713713714 0.016993525758634262
4723.723723723724 0.01686842505103558
4733.733733733734 0.01674446355464803
4743.743743743744 0.01662162896465925
4753.753753753754 0.016499909129286627
4763.763763763764 0.016379292047635115
4773.773773773773 0.016259765867587987
4783.783783783783 0.01614131888373043
4793.793793793793 0.016023939535304933
4803.803803803804 0.01590761640419831
4813.813813813814 0.01579233821295964
4823.823823823824 0.015678093822848682
4833.833833833834 0.015564872231914204
4843.843843843844 0.015452662573101792
4853.853853853854 0.015341454112390561
4863.863863863864 0.015231236246958359
4873.873873873874 0.015121998503374992
4883.883883883884 0.015013730535822903
4893.893893893894 0.014906422124345044
4903.9039039039035 0.014800063173119238
4913.913913913913 0.014694643708758824
4923.923923923924 0.014590153878638972
4933.933933933934 0.014486583949248457
4943.943943943944 0.014383924304566132
4953.953953953955 0.014282165444462109
4963.9639639639645 0.014181297983122924
4973.973973973974 0.014081312647500375
4983.983983983984 0.01398220027578377
4993.993993993994 0.013883951815895027
5004.004004004004 0.013786558324006331
5014.014014014014 0.013690010963080038
5024.024024024024 0.013594301001430272
5034.0340340340335 0.01349941981130616
5044.044044044043 0.013405358867496027
5054.054054054054 0.013312109745952453
5064.064064064064 0.01321966412243777
5074.074074074074 0.01312801377118958
5084.084084084085 0.013037150563606121
5094.0940940940945 0.01294706646695111
5104.104104104104 0.012857753543077654
5114.114114114114 0.012769203947171053
5124.124124124124 0.012681409926510111
5134.134134134134 0.012594363819246697
5144.144144144144 0.012508058053203212
5154.154154154154 0.012422485144687736
5164.1641641641645 0.012337637697326556
5174.174174174174 0.012253508400913741
5184.184184184184 0.01217009003027755
5194.194194194194 0.012087375444163384
5204.204204204204 0.012005357584133083
5214.214214214214 0.011924029473480131
5224.224224224225 0.011843384216160715
5234.2342342342345 0.01176341499574031
5244.244244244244 0.011684115074355446
5254.254254254254 0.011605477791690622
5264.264264264264 0.011527496563969897
5274.274274274274 0.011450164882963148
5284.284284284285 0.011373476315006563
5294.294294294295 0.011297424500037316
5304.304304304304 0.011222003150642035
5314.314314314314 0.011147206051119008
5324.324324324324 0.011073027056553783
5334.334334334334 0.010999460091908062
5344.344344344345 0.010926499151121519
5354.354354354355 0.0108541382962266
5364.3643643643645 0.01078237165647575
5374.374374374374 0.01071119342748127
5384.384384384384 0.01064059787036723
5394.394394394394 0.010570579310933564
5404.404404404404 0.010501132138831894
5414.414414414415 0.010432250806753135
5424.424424424425 0.010363929829626554
5434.4344344344345 0.01029616378383007
5444.444444444444 0.010228947306411785
5454.454454454454 0.010162275094322454
5464.464464464464 0.01009614190365872
5474.474474474475 0.010030542548917009
5484.484484484485 0.009965471902257871
5494.494494494495 0.009900924892780636
5504.504504504504 0.009836896505808218
5514.514514514514 0.009773381782181872
5524.524524524524 0.009710375817565883
5534.534534534535 0.00964787376176181
5544.544544544545 0.009585870818032402
5554.554554554555 0.009524362242434786
5564.5645645645645 0.009463343343162995
5574.574574574574 0.009402809479899576
5584.584584584584 0.009342756063176158
5594.594594594595 0.009283178553742827
5604.604604604605 0.009224072461946335
5614.614614614615 0.009165433347116671
5624.624624624625 0.009107256816962245
5634.6346346346345 0.009049538526973317
5644.644644644644 0.00899227417983359
5654.654654654654 0.008935459524839937
5664.664664664665 0.008879090357329962
5674.674674674675 0.00882316251811754
5684.684684684685 0.008767671892935876
5694.694694694695 0.008712614411888314
5704.704704704704 0.008657986048906545
5714.714714714714 0.008603782821216165
5724.724724724725 0.008550000788809568
5734.734734734735 0.008496636053925883
5744.744744744745 0.008443684760538039
5754.754754754755 0.00839114309384671
5764.764764764765 0.008339007279781102
5774.774774774774 0.008287273584506523
5784.784784784785 0.008235938313938495
5794.794794794795 0.008184997813263487
5804.804804804805 0.008134448466466018
5814.814814814815 0.008084286695862138
5824.824824824825 0.008034508961639167
5834.8348348348345 0.00798511176140153
5844.844844844845 0.007936091629722754
5854.854854854855 0.007887445137703368
5864.864864864865 0.007839168892534687
5874.874874874875 0.007791259537068481
5884.884884884885 0.007743713749392259
5894.894894894895 0.00769652824241026
5904.9049049049045 0.007649699763429979
5914.914914914915 0.0076032250937541354
5924.924924924925 0.007557101048278096
5934.934934934935 0.007511324475092533
5944.944944944945 0.007465892255091387
5954.954954954955 0.00742080130158496
5964.964964964965 0.007376048559918083
5974.974974974975 0.0073316310070933284
5984.984984984985 0.0072875456513991485
5994.994994994995 0.007243789532042868
6005.005005005005 0.007200359718788488
6015.015015015015 0.007157253311599226
6025.025025025025 0.007114467440284728
6035.035035035035 0.007071999264152824
6045.045045045045 0.007029845971665886
6055.055055055055 0.006988004780101591
6065.065065065065 0.006946472935218112
6075.075075075075 0.006905247710923648
6085.085085085085 0.006864326408950215
6095.0950950950955 0.006823706358531672
6105.105105105105 0.006783384916085888
6115.115115115115 0.006743359464901005
6125.125125125125 0.006703627414825747
6135.135135135135 0.0066641862019637165
6145.145145145145 0.006625033288371579
6155.155155155155 0.0065861661617611774
6165.1651651651655 0.006547582335205394
6175.175175175175 0.006509279346847844
