#lamb flux
1000.0 6.8217231647631715
1010.01001001001 7.119626960647
1020.0200200200201 7.414393097963248
1030.03003003003 7.7056219299845194
1040.0400400400401 7.992965359961623
1050.05005005005 8.276123660002577
1060.06006006006 8.554842178452267
1070.07007007007 8.82890800643145
1080.08008008008 9.098146661169539
1090.0900900900901 9.362418832205401
1100.1001001001 9.621617226414829
1110.11011011011 9.875663539086215
1120.1201201201202 10.124505570814701
1130.13013013013 10.368114503710403
1140.1401401401401 10.606482345200124
1150.1501501501502 10.839619543426485
1160.16016016016 11.067552774796496
1170.1701701701702 11.290322901493996
1180.1801801801803 11.507983094645544
1190.1901901901902 11.720597117222972
1200.2002002002002 11.928237759597051
1210.2102102102103 12.130985419848894
1220.2202202202202 12.328926820436376
1230.2302302302303 12.522153852544562
1240.2402402402402 12.71076253937413
1250.2502502502502 12.894489336223852
1260.2602602602603 13.072328653267277
1270.2702702702702 13.242344942441955
1280.2802802802803 13.404607339007383
1290.2902902902902 13.55919729922647
1300.3003003003003 13.706207261642449
1310.3103103103103 13.845739388741286
1320.3203203203202 13.977904387400065
1330.3303303303303 14.102820406034393
1340.3403403403404 14.22061200596999
1350.3503503503503 14.331409204264869
1360.3603603603603 14.435346584984888
1370.3703703703704 14.53256247577636
1380.3803803803803 14.623198186476218
1390.3903903903904 14.707397306443257
1400.4004004004005 14.785305057274913
1410.4104104104103 14.857067697589006
1420.4204204204204 14.92283197658888
1430.4304304304305 14.982744633192002
1440.4404404404404 15.03695193758001
1450.4504504504505 15.085599272118237
1460.4604604604606 15.128830748693707
1470.4704704704704 15.166788859627122
1480.4804804804805 15.199614159427126
1490.4904904904906 15.227444974768591
1500.5005005005005 15.250417140193992
1510.5105105105106 15.268663757152309
1520.5205205205207 15.282314974106482
1530.5305305305305 15.291497785554707
1540.5405405405404 15.296335847925343
1550.5505505505505 15.296949310417716
1560.5605605605606 15.293454658973731
1570.5705705705705 15.285964571678488
1580.5805805805805 15.274587784002545
1590.5905905905906 15.259428962416532
1600.6006006006005 15.240588585032341
1610.6106106106106 15.218162828057176
1620.6206206206207 15.19224345698949
1630.6306306306305 15.162917721645686
1640.6406406406406 15.130268254285793
1650.6506506506507 15.094372970314234
1660.6606606606606 15.0553049712733
1670.6706706706707 15.013132450133284
1680.6806806806808 14.967918599223607
1690.6906906906906 14.91972152155925
1700.7007007007007 14.86861575109455
1710.7107107107108 14.814735936053644
1720.7207207207207 14.75811512299195
1730.7307307307308 14.69877020796213
1740.7407407407409 14.63671404631945
1750.7507507507507 14.57195538254317
1760.7607607607606 14.504498811277857
1770.770770770771 14.434344778826484
1780.7807807807808 14.361489636446928
1790.7907907907907 14.285925759303039
1800.8008008008007 14.207641747836382
1810.8108108108108 14.126622731686519
1820.8208208208207 14.042850800108752
1830.8308308308308 13.956305587101506
1840.8408408408409 13.866965044100624
1850.8508508508507 13.774806437998558
1860.8608608608608 13.679807617180545
1870.870870870871 13.581948592890138
1880.8808808808808 13.481213487020685
1890.890890890891 13.377592899642757
1900.900900900901 13.271086749215787
1910.9109109109108 13.161707634185452
1920.920920920921 13.049484754896769
1930.930930930931 12.93446841750132
1940.940940940941 12.816735114619553
1950.950950950951 12.696393138697044
1960.960960960961 12.573588631297824
1970.970970970971 12.448511903797858
1980.980980980981 12.321403782305289
1990.9909909909911 12.192561634654968
2001.001001001001 12.062344635726458
2011.0110110110109 11.931177728878337
2021.0210210210212 11.79955366021805
2031.031031031031 11.668032417132434
2041.0410410410411 11.537237414059534
2051.051051051051 11.407847857662942
2061.061061061061 11.280586906400085
2071.071071071071 11.156205521751218
2081.081081081081 11.035462280214798
2091.091091091091 10.919099847272923
2101.101101101101 10.807819257917966
2111.1111111111113 10.702253539111311
2121.121121121121 10.602942478883273
2131.131131131131 10.510310434774095
2141.141141141141 10.424648944586465
2151.151151151151 10.346105553358225
2161.161161161161 10.274679739280929
2171.1711711711714 10.210226178911546
2181.1811811811813 10.152464929589614
2191.191191191191 10.100997517370713
2201.201201201201 10.055327478261445
2211.2112112112113 10.01488365515701
2221.221221221221 9.979044512942572
2231.2312312312315 9.947161877060005
2241.2412412412414 9.9185827800799
2251.2512512512512 9.892668458731587
2261.261261261261 9.86880992338929
2271.271271271271 9.84643987593604
2281.2812812812813 9.825041047751993
2291.2912912912916 9.804151250588257
2301.3013013013015 9.783365576330045
2311.3113113113113 9.762336254231178
2321.321321321321 9.740770689187269
2331.331331331331 9.718428177394497
2341.3413413413414 9.695115741299162
2351.3513513513512 9.670683456966632
2361.3613613613616 9.645019573905815
2371.3713713713714 9.618045657015363
2381.3813813813813 9.589711917051053
2391.391391391391 9.559992842089837
2401.4014014014015 9.528883198556462
2411.4114114114113 9.496394436108641
2421.4214214214217 9.4625515050555
2431.4314314314315 9.427390076725692
2441.4414414414414 9.39095414494876
2451.4514514514512 9.353293979276573
2461.4614614614616 9.314464396606002
2471.4714714714714 9.27452331650252
2481.4814814814818 9.23353056598136
2491.4914914914916 9.191546901162743
2501.5015015015015 9.148633215610541
2511.5115115115113 9.104849907945486
2521.521521521521 9.060256384247463
2531.5315315315315 9.014910673659019
2541.541541541542 8.968869138363942
2551.5515515515517 8.922186261675476
2561.5615615615616 8.874914500293862
2571.5715715715714 8.827104188870758
2581.5815815815813 8.778803486850219
2591.5915915915916 8.730058359155612
2601.6016016016015 8.680912583674957
2611.611611611612 8.631407779685206
2621.6216216216217 8.58158345236919
2631.6316316316315 8.531477049438257
2641.6416416416414 8.481124026599142
2651.6516516516517 8.430557919212548
2661.6616616616616 8.379810418000833
2671.671671671672 8.328911447086387
2681.6816816816818 8.277889242994828
2691.6916916916916 8.226770433548072
2701.7017017017015 8.17558011581222
2711.711711711712 8.124341932461663
2721.7217217217217 8.073078146081365
2731.731731731732 8.021809711059507
2741.741741741742 7.97055634282829
2751.7517517517517 7.919336584294996
2761.7617617617616 7.868167869373297
2771.7717717717715 7.817066583577869
2781.781781781782 7.766048121687382
2791.791791791792 7.715126942513239
2801.801801801802 7.664316620835854
2811.811811811812 7.6136298965887805
2821.8218218218217 7.563078721384003
2831.8318318318316 7.512674302480939
2841.841841841842 7.462427144307412
2851.851851851852 7.4123470876441955
2861.861861861862 7.362443346585787
2871.871871871872 7.3127245433896615
2881.881881881882 7.263198741324748
2891.8918918918916 7.213873475627047
2901.901901901902 7.164755782667146
2911.911911911912 7.115852227430779
2921.921921921922 7.0671689294091395
2931.931931931932 7.018711586991743
2941.941941941942 6.9704855004498905
2951.9519519519517 6.922495593594628
2961.961961961962 6.874746434188465
2971.971971971972 6.827242253185957
2981.9819819819822 6.779986962873953
2991.991991991992 6.732984173978206
3002.002002002002 6.686237211799268
3012.012012012012 6.639749131436646
3022.0220220220217 6.593522732156759
3032.032032032032 6.557034314441216
3042.0420420420423 6.51012603179108
3052.052052052052 6.46316280063472
3062.062062062062 6.416239068944051
3072.072072072072 6.3694358869509315
3082.0820820820823 6.322822331497548
3092.092092092092 6.27645680771919
3102.102102102102 6.230388235287093
3112.1121121121123 6.184657126663149
3122.122122122122 6.139296564853643
3132.132132132132 6.09433308804269
3142.1421421421423 6.049787488275025
3152.152152152152 6.005675531072068
3162.162162162162 5.962008602529334
3172.1721721721724 5.918794290075596
3182.1821821821823 5.876036902689907
3192.192192192192 5.833737935982815
3202.202202202202 5.791896487161209
3212.2122122122123 5.750509624518984
3222.222222222222 5.709572715731872
3232.232232232232 5.6690797188882565
3242.2422422422424 5.629023439860058
3252.252252252252 5.589395759309677
3262.262262262262 5.550187832341999
3272.2722722722724 5.5113902635430945
3282.2822822822823 5.4729932599004405
3292.292292292292 5.434986763871489
3302.3023023023025 5.397360568658088
3312.3123123123123 5.360104417552063
3322.322322322322 5.323208089041718
3332.3323323323325 5.286661469208237
3342.3423423423424 5.2504546127950045
3352.352352352352 5.214577794199105
3362.3623623623625 5.179021549513612
3372.3723723723724 5.143776710638708
3382.3823823823823 5.108834432379867
3392.3923923923926 5.074186213360744
3402.4024024024025 5.039823911495912
3412.4124124124123 5.005739754694257
3422.4224224224226 4.971926347396229
3432.4324324324325 4.938376673486979
3442.4424424424424 4.905084096072054
3452.4524524524522 4.8720423545521845
3462.4624624624626 4.839245559388303
3472.4724724724724 4.806688184906913
3482.4824824824823 4.77436506045869
3492.4924924924926 4.7422713602096405
3502.5025025025025 4.7104025918136925
3512.5125125125123 4.678754584188094
3522.5225225225226 4.647323474588072
3532.5325325325325 4.616105695154792
3542.5425425425424 4.5850979590902075
3552.5525525525527 4.554297246594131
3562.5625625625626 4.523700790682164
3572.5725725725724 4.493306062988194
3582.5825825825827 4.463110759641635
3592.5925925925926 4.433112787297409
3602.6026026026025 4.403310249385643
3612.612612612613 4.373701432638262
3622.6226226226227 4.344284793940661
3632.6326326326325 4.315058947548741
3642.642642642643 4.286022652704473
3652.6526526526527 4.257174801676631
3662.6626626626626 4.228514408247716
3672.672672672673 4.200040596663029
3682.6826826826828 4.171752591053171
3692.6926926926926 4.14364970533742
3702.7027027027025 4.115731333611705
3712.712712712713 4.087996941021919
3722.7227227227227 4.060446055120508
3732.7327327327325 4.03307825770183
3742.742742742743 4.005893177109858
3752.7527527527527 3.978890481009835
3762.7627627627626 3.9520698696141054
3772.772772772773 3.925431069351004
3782.7827827827828 3.8989738269646077
3792.7927927927926 3.8726979040322558
3802.802802802803 3.846603071886108
3812.812812812813 3.820689106924357
3822.8228228228227 3.7949557862973498
3832.832832832833 3.769402883953596
3842.842842842843 3.744030167030402
3852.8528528528527 3.7188373925738403
3862.862862862863 3.693824304572719
3872.872872872873 3.6689906312913663
3882.8828828828828 3.6443360828860567
3892.892892892893 3.6198603492903314
3902.902902902903 3.595563098354436
3912.912912912913 3.5714439742246573
3922.922922922923 3.547502595948512
3932.932932932933 3.5237385562921975
3942.942942942943 3.5001514207569895
3952.9529529529527 3.4767407267818573
3962.962962962963 3.453505983119835
3972.972972972973 3.4304466693761895
3982.982982982983 3.4075622356969055
3992.992992992993 3.3848521025963847
4003.003003003003 3.3623156609138225
4013.013013013013 3.3399522718880355
4023.023023023023 3.317761267341128
4033.033033033033 3.295741949961707
4043.043043043043 3.273893593678871
4053.053053053053 3.2522154441186353
4063.063063063063 3.2307067191348398
4073.073073073073 3.2093666094070543
4083.0830830830832 3.1881942790983913
4093.093093093093 3.167188866566528
4103.103103103103 3.146349485121617
4113.113113113113 3.1256752238252172
4123.123123123123 3.105165148324571
4133.133133133133 3.084818301717127
4143.143143143143 3.0646337054403574
4153.153153153153 3.044610360182345
4163.163163163163 3.024747246808871
4173.173173173173 3.0050433273030914
4183.183183183183 2.9854975457141246
4193.193193193193 2.9661088291111417
4203.203203203203 2.9468760885398666
4213.213213213214 2.9277982199785857
4223.223223223224 2.9088741052910074
4233.2332332332335 2.8901026131735597
4243.243243243243 2.871482600094913
4253.253253253253 2.8530129112256986
4263.263263263263 2.8346923813566125
4273.273273273273 2.816519835803247
4283.283283283283 2.7984940912961673
4293.293293293293 2.780613956854913
4303.303303303303 2.762878234644762
4313.313313313313 2.7452857208151964
4323.323323323323 2.727835206319186
4333.333333333334 2.710525477712497
4343.343343343344 2.6933553179323733
4353.353353353354 2.676323507054991
4363.3633633633635 2.6594288230312637
4373.373373373373 2.64267004240061
4383.383383383383 2.626045940982378
4393.393393393393 2.6095552945447613
4403.403403403403 2.5931968794510265
4413.413413413413 2.5769694732830097
4423.423423423424 2.5608718554418872
4433.4334334334335 2.5449028077262277
4443.443443443443 2.529061114887482
4453.453453453454 2.5133455651630148
4463.463463463464 2.4977549507869217
4473.473473473474 2.4822880684787862
4483.483483483484 2.466943719910744
4493.493493493494 2.451720712153062
4503.503503503503 2.4366178580986197
4513.513513513513 2.4216339768666195
4523.523523523523 2.406767894185895
4533.533533533533 2.3920184427582525
4543.543543543543 2.3773844626021887
4553.553553553554 2.3628648013774773
4563.563563563564 2.348458314691027
4573.573573573573 2.334163866384466
4583.583583583584 2.319980328803914
4593.593593593594 2.3059065830524044
4603.603603603604 2.2919415192254227
4613.613613613614 2.2780840366300454
4623.623623623624 2.264333043988133
4633.6336336336335 2.2506874596240722
4643.643643643643 2.237146211637547
4653.653653653653 2.2237082380617768
4663.663663663663 2.210372487007743
4673.673673673674 2.1971379167948344
4683.683683683684 2.184003496068403
4693.693693693694 2.1709682039046636
4703.703703703704 2.158031029903418
4713.713713713714 2.145190974269039
4723.723723723724 2.132447047880157
4733.733733733734 2.119798272348478
4743.743743743744 2.107243680067193
4753.753753753754 2.0947823142493514
4763.763763763764 2.082413228956653
4773.773773773773 2.0701354891190245
4783.783783783783 2.057948170545427
4793.793793793793 2.0458503599262214
4803.803803803804 2.0338411548275164
4813.813813813814 2.0219196636778505
4823.823823823824 2.010085005747562
4833.833833833834 1.9983363111212087
4843.843843843844 1.9866727206633823
4853.853853853854 1.9750933859782291
4863.863863863864 1.963597469363031
4873.873873873874 1.9521841437561265
4883.883883883884 1.9408525926795168
4893.893893893894 1.9296020101764113
4903.9039039039035 1.918431600744038
4913.913913913913 1.9073405792619613
4923.923923923924 1.8963281709162074
4933.933933933934 1.8853936111194476
4943.943943943944 1.8745361454274745
4953.953953953955 1.8637550294522434
4963.9639639639645 1.8530495287717017
4973.973973973974 1.842418918836617
4983.983983983984 1.831862484874666
4993.993993993994 1.8213795217919402
5004.004004004004 1.8109693340721198
5014.014014014014 1.8006312356734941
5024.024024024024 1.7903645499239964
5034.0340340340335 1.7801686094144833
5044.044044044043 1.770042755890379
5054.054054054054 1.759986340141894
5064.064064064064 1.7499987218929576
5074.074074074074 1.740079269689019
5084.084084084085 1.7302273607838752
5094.0940940940945 1.7204423810256628
5104.104104104104 1.7107237247421405
5114.114114114114 1.701070794625405
5124.124124124124 1.6914830016161575
5134.134134134134 1.6819597647876405
5144.144144144144 1.6725005112293523
5154.154154154154 1.6631046759306607
5164.1641641641645 1.6537717016643987
5174.174174174174 1.6445010388705594
5184.184184184184 1.6352921455401694
5194.194194194194 1.6261444870994255
5204.204204204204 1.6170575362942043
5214.214214214214 1.608030773074984
5224.224224224225 1.5990636844822865
5234.2342342342345 1.5901557645326965
5244.244244244244 1.581306514105519
5254.254254254254 1.572515440830156
5264.264264264264 1.5637820589742415
5274.274274274274 1.555105889332603
5284.284284284285 1.5464864591171015
5294.294294294295 1.5379233018473901
5304.304304304304 1.5294159572426456
5314.314314314314 1.5209639711143157
5324.324324324324 1.5125668952599103
5334.334334334334 1.504224287357893
5344.344344344345 1.495935710863683
5354.354354354355 1.487700734906827
5364.3643643643645 1.4795189341893342
5374.374374374374 1.4713898888852452
5384.384384384384 1.4633131845414127
5394.394394394394 1.4552884119795528
5404.404404404404 1.447315167199561
5414.414414414415 1.4393930512841306
5424.424424424425 1.4315216703046758
5434.4344344344345 1.423700635228568
5444.444444444444 1.4159295618277206
5454.454454454454 1.408208070588511
5464.464464464464 1.4005357866230517
5474.474474474475 1.3929123395818246
5484.484484484485 1.3853373635676849
5494.494494494495 1.3778104970512182
5504.504504504504 1.370331382787488
5514.514514514514 1.3628996677341367
5524.524524524524 1.3555150029708776
5534.534534534535 1.34817704362034
5544.544544544545 1.3408854487702961
5554.554554554555 1.333639881397245
5564.5645645645645 1.3264400082913628
5574.574574574574 1.3192854999828036
5584.584584584584 1.312176030669353
5594.594594594595 1.3051112781454175
5604.604604604605 1.2980909237323628
5614.614614614615 1.291114652210153
5624.624624624625 1.2841821517503282
5634.6346346346345 1.2772931138502754
5644.644644644644 1.2704472332687953
5654.654654654654 1.2636442079629595
5664.664664664665 1.256883739026226
5674.674674674675 1.25016553062783
5684.684684684685 1.2434892899534054
5694.694694694695 1.2368547271468506
5704.704704704704 1.2302615552534066
5714.714714714714 1.223709490163943
5724.724724724725 1.2171982505604342
5734.734734734735 1.2107275578626098
5744.744744744745 1.2042971361757684
5754.754754754755 1.19790671223973
5764.764764764765 1.1915560153789273
5774.774774774774 1.1852447774536057
5784.784784784785 1.1789727328121198
5794.794794794795 1.172739618244315
5804.804804804805 1.166545172935973
5814.814814814815 1.1603891384243046
5824.824824824825 1.1542712585544799
5834.8348348348345 1.148191279437166
5844.844844844845 1.1421489494070791
5854.854854854855 1.1361440189825
5864.864864864865 1.1301762408257685
5874.874874874875 1.1242453697047257
5884.884884884885 1.1183511624550833
5894.894894894895 1.1124933779437154
5904.9049049049045 1.1066717770328427
5914.914914914915 1.1008861225451043
5924.924924924925 1.0951361792294956
5934.934934934935 1.0894217137281483
5944.944944944945 1.083742494543956
5954.954954954955 1.0780982920090003
5964.964964964965 1.072488878253795
5974.974974974975 1.0669140271772994
5984.984984984985 1.0613735144177088
5994.994994994995 1.0558671173239953
6005.005005005005 1.0503946149281813
6015.015015015015 1.0449557879183415
6025.025025025025 1.039550418612303
6035.035035035035 1.0341782909320405
6045.045045045045 1.0288391903787446
6055.055055055055 1.0235329040085501
6065.065065065065 1.0182592204089098
6075.075075075075 1.0130179296755992
6085.085085085085 1.0078088233903373
6095.0950950950955 1.0026316945990073
6105.105105105105 0.9974863377904699
6115.115115115115 0.9923725488759453
6125.125125125125 0.9872901251689545
6135.135135135135 0.9822388653658157
6145.145145145145 0.9772185695266622
6155.155155155155 0.9722290390569907
6165.1651651651655 0.9672700766897065
6175.175175175175 0.9623414864676767
6185.185185185185 0.9574430737267476
6195.195195195195 0.95257464507925
6205.205205205205 0.9477360083979485
6215.215215215215 0.9429269728004392
6225.225225225226 0.9381473486339882
6235.235235235235 0.933396947460781
6245.245245245245 0.9286755820435919
6255.255255255255 0.92398306633185
6265.265265265265 0.9193192154480916
6275.275275275275 0.9146838456747941
6285.285285285286 0.9100767744415779
6295.295295295296 0.9054978203127629
6305.305305305305 0.9009468029752719
6315.315315315315 0.8964235432268775
6325.325325325325 0.8919278629647678
6335.335335335335 0.887459585174438
6345.345345345346 0.8830185339188851
6355.355355355356 0.8786045343281067
6365.3653653653655 0.8742174125888881
6375.375375375375 0.869856995934873
6385.385385385385 0.8655231126369033
6395.395395395395 0.8612155919936333
6405.405405405405 0.8569342643223934
6415.415415415416 0.8526789609503015
