#lamb flux
1000.0 8.284491348037738e+39
1010.01001001001 8.445944390413547e+39
1020.0200200200201 8.586357626411874e+39
1030.03003003003 8.706707568991886e+39
1040.0400400400401 8.808068279876535e+39
1050.05005005005 8.89158015930605e+39
1060.06006006006 8.958422974461382e+39
1070.07007007007 9.009792961072037e+39
1080.08008008008 9.046883738310003e+39
1090.0900900900901 9.070870717510954e+39
1100.1001001001 9.082898653298716e+39
1110.11011011011 9.08407197486913e+39
1120.1201201201202 9.075447539980959e+39
1130.13013013013 9.058029470005207e+39
1140.1401401401401 9.032765747474111e+39
1150.1501501501502 9.000546285019515e+39
1160.16016016016 8.962202204152313e+39
1170.1701701701702 8.918506092348069e+39
1180.1801801801803 8.87017303618135e+39
1190.1901901901902 8.817862255985473e+39
1200.2002002002002 8.762179193197952e+39
1210.2102102102103 8.703677924902755e+39
1220.2202202202202 8.642863800987018e+39
1230.2302302302303 8.580196217800425e+39
1240.2402402402402 8.516091458333534e+39
1250.2502502502502 8.450362002807168e+39
1260.2602602602603 8.381699892003831e+39
1270.2702702702702 8.307517752940095e+39
1280.2802802802803 8.22836067668456e+39
1290.2902902902902 8.144744453052504e+39
1300.3003003003003 8.057155593062937e+39
1310.3103103103103 7.966051608936778e+39
1320.3203203203202 7.87186150698742e+39
1330.3303303303303 7.774986453741034e+39
1340.3403403403404 7.675800580301784e+39
1350.3503503503503 7.574651894319657e+39
1360.3603603603603 7.471863272910254e+39
1370.3703703703704 7.367733513514955e+39
1380.3803803803803 7.262538422981663e+39
1390.3903903903904 7.156531928103923e+39
1400.4004004004005 7.049947193495449e+39
1410.4104104104103 6.942997735018592e+39
1420.4204204204204 6.835878519049901e+39
1430.4304304304305 6.728767039675942e+39
1440.4404404404404 6.621824367490864e+39
1450.4504504504505 6.51519616503457e+39
1460.4604604604606 6.409013665089405e+39
1470.4704704704704 6.303394609062281e+39
1480.4804804804805 6.198444143538619e+39
1490.4904904904906 6.094255673820245e+39
1500.5005005005005 5.990911673868774e+39
1510.5105105105106 5.888484452582883e+39
1520.5205205205207 5.787036876756177e+39
1530.5305305305305 5.686623051403637e+39
1540.5405405405404 5.587288958420621e+39
1550.5505505505505 5.489073054758223e+39
1560.5605605605606 5.392006831471683e+39
1570.5705705705705 5.296115335132764e+39
1580.5805805805805 5.201417653199279e+39
1590.5905905905906 5.107927365012209e+39
1600.6006006006005 5.015652960149107e+39
1610.6106106106106 4.924598225907219e+39
1620.6206206206207 4.834762605726023e+39
1630.6306306306305 4.746141530392185e+39
1640.6406406406406 4.658726723904315e+39
1650.6506506506507 4.5725064859161404e+39
1660.6606606606606 4.487465952728409e+39
1670.6706706706707 4.403587338868422e+39
1680.6806806806808 4.320850161385415e+39
1690.6906906906906 4.239231449106848e+39
1700.7007007007007 4.158720262394559e+39
1710.7107107107108 4.0793453299157955e+39
1720.7207207207207 4.001068106034885e+39
1730.7307307307308 3.923841978199646e+39
1740.7407407407409 3.847620502483497e+39
1750.7507507507507 3.7723574356505335e+39
1760.7607607607606 3.69800678647081e+39
1770.770770770771 3.6245228904249904e+39
1780.7807807807808 3.5518605126368923e+39
1790.7907907907907 3.4799749846494583e+39
1800.8008008008007 3.408822381506997e+39
1810.8108108108108 3.3383597465076946e+39
1820.8208208208207 3.2685453719164684e+39
1830.8308308308308 3.1993391448332924e+39
1840.8408408408409 3.1307029682260706e+39
1850.8508508508507 3.062601267761205e+39
1860.8608608608608 2.995001595361049e+39
1870.870870870871 2.9278753402021564e+39
1880.8808808808808 2.861198556904233e+39
1890.890890890891 2.79495291865087e+39
1900.900900900901 2.7291267995757755e+39
1910.9109109109108 2.6637164855383552e+39
1920.920920920921 2.598727504972684e+39
1930.930930930931 2.534176061414348e+39
1940.940940940941 2.4700905362724067e+39
1950.950950950951 2.4065130142947194e+39
1960.960960960961 2.3435007651827192e+39
1970.970970970971 2.2811275936521567e+39
1980.980980980981 2.219484948286741e+39
1990.9909909909911 2.1586826589872412e+39
2001.001001001001 2.0988491567576844e+39
2011.0110110110109 2.0401310218651037e+39
2021.0210210210212 1.9826917114090557e+39
2031.031031031031 1.926709339266939e+39
2041.0410410410411 1.8723734234572914e+39
2051.051051051051 1.8198805793148645e+39
2061.061061061061 1.7694292194745504e+39
2071.071071071071 1.7212134176012612e+39
2081.081081081081 1.6754161922074072e+39
2091.091091091091 1.6322025568305194e+39
2101.101101101101 1.591712749195164e+39
2111.1111111111113 1.5540560821286585e+39
2121.121121121121 1.5193058445939562e+39
2131.131131131131 1.4874956203705416e+39
2141.141141141141 1.4586172901366945e+39
2151.151151151151 1.432620852057139e+39
2161.161161161161 1.409416052879449e+39
2171.1711711711714 1.3888756836496566e+39
2181.1811811811813 1.3708402772422136e+39
2191.191191191191 1.3551238604437435e+39
2201.201201201201 1.3415203672870174e+39
2211.2112112112113 1.3298103130735603e+39
2221.221221221221 1.3197673557202946e+39
2231.2312312312315 1.3111644250973754e+39
2241.2412412412414 1.3037791725576325e+39
2251.2512512512512 1.2973985723116065e+39
2261.261261261261 1.2918225850315467e+39
2271.271271271271 1.2868668651844898e+39
2281.2812812812813 1.2823645523963599e+39
2291.2912912912916 1.2781672311861654e+39
2301.3013013013015 1.2741451722521272e+39
2311.3113113113113 1.27018698329645e+39
2321.321321321321 1.2661988003564944e+39
2331.331331331331 1.26210314451475e+39
2341.3413413413414 1.2578375565241765e+39
2351.3513513513512 1.253353105906422e+39
2361.3613613613616 1.2486128536199855e+39
2371.3713713713714 1.2435903300959e+39
2381.3813813813813 1.2382680744278743e+39
2391.391391391391 1.2326362664552174e+39
2401.4014014014015 1.2266914716986587e+39
2411.4114114114113 1.2204355096405427e+39
2421.4214214214217 1.2138744485412144e+39
2431.4314314314315 1.2070177246063819e+39
2441.4414414414414 1.1998773795710404e+39
2451.4514514514512 1.192467408341027e+39
2461.4614614614616 1.1848032069476225e+39
2471.4714714714714 1.176901110470566e+39
2481.4814814814818 1.1687780105552361e+39
2491.4914914914916 1.1604510425152711e+39
2501.5015015015015 1.1519373326337713e+39
2511.5115115115113 1.143253797048594e+39
2521.521521521521 1.134416984451383e+39
2531.5315315315315 1.1254429556898777e+39
2541.541541541542 1.1163471942002274e+39
2551.5515515515517 1.1071445419856907e+39
2561.5615615615616 1.0978491565856864e+39
2571.5715715715714 1.0884744851374183e+39
2581.5815815815813 1.0790332522192351e+39
2591.5915915915916 1.0695374586821143e+39
2601.6016016016015 1.059998389126813e+39
2611.611611611612 1.0504266260745705e+39
2621.6216216216217 1.0408320692143741e+39
2631.6316316316315 1.0312239583957147e+39
2641.6416416416414 1.0216108992782983e+39
2651.6516516516517 1.0120008907547325e+39
2661.6616616616616 1.0024013534340049e+39
2671.671671671672 9.928191586170351e+38
2681.6816816816818 9.832606573149535e+38
2691.6916916916916 9.737317089595518e+38
2701.7017017017015 9.642377095367598e+38
2711.711711711712 9.547836189407828e+38
2721.7217217217217 9.453739874009646e+38
2731.731731731732 9.360129808776166e+38
2741.741741741742 9.267044053586497e+38
2751.7517517517517 9.174517300172942e+38
2761.7617617617616 9.082581092137954e+38
2771.7717717717715 8.99126403341646e+38
2781.781781781782 8.900591985326691e+38
2791.791791791792 8.810588252457067e+38
2801.801801801802 8.721273757714415e+38
2811.811811811812 8.632667206915335e+38
2821.8218218218217 8.544785243341273e+38
2831.8318318318316 8.457642592702727e+38
2841.841841841842 8.371252198972068e+38
2851.851851851852 8.285625351549238e+38
2861.861861861862 8.200771804223031e+38
2871.871871871872 8.116699886383585e+38
2881.881881881882 8.033416606930756e+38
2891.8918918918916 7.950927751309188e+38
2901.901901901902 7.869237972084667e+38
2911.911911911912 7.78835087345939e+38
2921.921921921922 7.70826909010501e+38
2931.931931931932 7.628994360674e+38
2941.941941941942 7.550527596330782e+38
2951.9519519519517 7.47286894462553e+38
2961.961961961962 7.3960178490152e+38
2971.971971971972 7.319973104318396e+38
2981.9819819819822 7.244732908373588e+38
2991.991991991992 7.170294910153573e+38
3002.002002002002 7.096656254573122e+38
3012.012012012012 7.023813624211979e+38
3022.0220220220217 6.951763278160695e+38
3032.032032032032 6.904122307123537e+38
3042.0420420420423 6.830549969827843e+38
3052.052052052052 6.756975567772323e+38
3062.062062062062 6.683630858226373e+38
3072.072072072072 6.610711547792351e+38
3082.0820820820823 6.5383813433212045e+38
3092.092092092092 6.46677565785804e+38
3102.102102102102 6.3960049836036425e+38
3112.1121121121123 6.326157947868151e+38
3122.122122122122 6.257304070559707e+38
3132.132132132132 6.189496243215146e+38
3142.1421421421423 6.122772950203564e+38
3152.152152152152 6.0571602527292434e+38
3162.162162162162 5.992673555799907e+38
3172.1721721721724 5.929319177543319e+38
3182.1821821821823 5.867095739257798e+38
3192.192192192192 5.805995393451183e+38
3202.202202202202 5.746004905921689e+38
3212.2122122122123 5.6871066067096e+38
3222.222222222222 5.629279223535418e+38
3232.232232232232 5.572498610162768e+38
3242.2422422422424 5.516738380999715e+38
3252.252252252252 5.461970462190988e+38
3262.262262262262 5.408165568462633e+38
3272.2722722722724 5.355293614062387e+38
3282.2822822822823 5.303324065293955e+38
3292.292292292292 5.2522262413702195e+38
3302.3023023023025 5.2019695696061335e+38
3312.3123123123123 5.1525238003331315e+38
3322.322322322322 5.1038591863396345e+38
3332.3323323323325 5.055946631121414e+38
3342.3423423423424 5.008757809757895e+38
3352.352352352352 4.962265265810247e+38
3362.3623623623625 4.9164424872614005e+38
3372.3723723723724 4.871263964181563e+38
3382.3823823823823 4.826705230502363e+38
3392.3923923923926 4.782742892015104e+38
3402.4024024024025 4.7393546424691265e+38
3412.4124124124123 4.696519269433746e+38
3422.4224224224226 4.654216651397373e+38
3432.4324324324325 4.612427747408665e+38
3442.4424424424424 4.571134580414176e+38
3452.4524524524522 4.530320215313157e+38
3462.4624624624626 4.489968732631108e+38
3472.4724724724724 4.450065198607515e+38
3482.4824824824823 4.4105956323987104e+38
3492.4924924924926 4.371546971012818e+38
3502.5025025025025 4.332907032518481e+38
3512.5125125125123 4.2946644780024585e+38
3522.5225225225226 4.2568087726914675e+38
3532.5325325325325 4.2193301466003986e+38
3542.5425425425424 4.182219555021771e+38
3552.5525525525527 4.145468639128801e+38
3562.5625625625626 4.109069686926739e+38
3572.5725725725724 4.073015594753407e+38
3582.5825825825827 4.037299829499778e+38
3592.5925925925926 4.001916391694556e+38
3602.6026026026025 3.9668597795728036e+38
3612.612612612613 3.932124954227326e+38
3622.6226226226227 3.897707305922525e+38
3632.6326326326325 3.863602621633478e+38
3642.642642642643 3.8298070538581324e+38
3652.6526526526527 3.796317090737083e+38
3662.6626626626626 3.763129527503619e+38
3672.672672672673 3.730241439276562e+38
3682.6826826826828 3.6976501551990086e+38
3692.6926926926926 3.6653532339183276e+38
3702.7027027027025 3.633348440395679e+38
3712.712712712713 3.601633724027341e+38
3722.7227227227227 3.5702071980549316e+38
3732.7327327327325 3.539067120237072e+38
3742.742742742743 3.508211874751483e+38
3752.7527527527527 3.477639955293138e+38
3762.7627627627626 3.447349949331653e+38
3772.772772772773 3.417340523489019e+38
3782.7827827827828 3.387610409997057e+38
3792.7927927927926 3.3581583941928496e+38
3802.802802802803 3.3289833030094987e+38
3812.812812812813 3.3000839944190323e+38
3822.8228228228227 3.271459347784032e+38
3832.832832832833 3.243108255074586e+38
3842.842842842843 3.2150296129073716e+38
3852.8528528528527 3.1872223153641505e+38
3862.862862862863 3.1596852475475083e+38
3872.872872872873 3.1324172798325165e+38
3882.8828828828828 3.1054172627737483e+38
3892.892892892893 3.078684022628263e+38
3902.902902902903 3.0522163574560473e+38
3912.912912912913 3.0260130337607504e+38
3922.922922922923 3.0000727836346427e+38
3932.932932932933 2.9743943023731264e+38
3942.942942942943 2.9489762465252663e+38
3952.9529529529527 2.9238172323483308e+38
3962.962962962963 2.8989158346355574e+38
3972.972972972973 2.8742705858877326e+38
3982.982982982983 2.8498799758005828e+38
3992.992992992993 2.8257424510412466e+38
4003.003003003003 2.8018564152885296e+38
4013.013013013013 2.7782202295128267e+38
4023.023023023023 2.754832212473027e+38
4033.033033033033 2.731690641408873e+38
4043.043043043043 2.7087937529085375e+38
4053.053053053053 2.6861397439323714e+38
4063.063063063063 2.6637267729749084e+38
4073.073073073073 2.6415529613483826e+38
4083.0830830830832 2.6196163945720727e+38
4093.093093093093 2.5979151238528407e+38
4103.103103103103 2.5764471676432253e+38
4113.113113113113 2.5552105132644656e+38
4123.123123123123 2.534203118582642e+38
4133.133133133133 2.5134229137271445e+38
4143.143143143143 2.492867802841407e+38
4153.153153153153 2.4725356658566787e+38
4163.163163163163 2.452424360280377e+38
4173.173173173173 2.432531722991263e+38
4183.183183183183 2.4128555720343765e+38
4193.193193193193 2.3933937084092802e+38
4203.203203203203 2.374143917845804e+38
4213.213213213214 2.3551039725620367e+38
4223.223223223224 2.3362716329998144e+38
4233.2332332332335 2.317644649533512e+38
4243.243243243243 2.29922076414836e+38
4253.253253253253 2.2809977120850065e+38
4263.263263263263 2.2629732234473786e+38
4273.273273273273 2.2451450247713444e+38
4283.283283283283 2.227510840552e+38
4293.293293293293 2.2100683947277372e+38
4303.303303303303 2.1928154121195506e+38
4313.313313313313 2.175749619824338e+38
4323.323323323323 2.1588687485611692e+38
4333.333333333334 2.1421705339698e+38
4343.343343343344 2.1256527178608575e+38
4353.353353353354 2.109313049417362e+38
4363.3633633633635 2.093149286347434e+38
4373.373373373373 2.0771591959881807e+38
4383.383383383383 2.061340556360921e+38
4393.393393393393 2.045691157178044e+38
4403.403403403403 2.0302088008019084e+38
4413.413413413413 2.014891303156304e+38
4423.423423423424 1.9997364945911154e+38
4433.4334334334335 1.9847422207008694e+38
4443.443443443443 1.9699063430979695e+38
4453.453453453454 1.955226740141459e+38
4463.463463463464 1.940701307622247e+38
4473.473473473474 1.9263279594057002e+38
4483.483483483484 1.912104628032683e+38
4493.493493493494 1.8980292652800124e+38
4503.503503503503 1.8840998426814452e+38
4513.513513513513 1.8703143520102567e+38
4523.523523523523 1.856670805724532e+38
4533.533533533533 1.8431672373763073e+38
4543.543543543543 1.8298017019856556e+38
4553.553553553554 1.8165722763808855e+38
4563.563563563564 1.803477059505972e+38
4573.573573573573 1.7905141726963538e+38
4583.583583583584 1.7776817599242306e+38
4593.593593593594 1.764977988014474e+38
4603.603603603604 1.7524010468322534e+38
4613.613613613614 1.739949149443499e+38
4623.623623623624 1.727620532249239e+38
4633.6336336336335 1.715413455094919e+38
4643.643643643643 1.7033262013557234e+38
4653.653653653653 1.6913570779989273e+38
4663.663663663663 1.6795044156242938e+38
4673.673673673674 1.6677665684834955e+38
4683.683683683684 1.6561419144795301e+38
4693.693693693694 1.644628855147053e+38
4703.703703703704 1.6332258156145655e+38
4713.713713713714 1.6219312445493406e+38
4723.723723723724 1.6107436140859519e+38
4733.733733733734 1.599661419739256e+38
4743.743743743744 1.5886831803026566e+38
4753.753753753754 1.577807437732426e+38
4763.763763763764 1.5670327570188871e+38
4773.773773773773 1.556357726045162e+38
4783.783783783783 1.5457809554342674e+38
4793.793793793793 1.5353010783852003e+38
4803.803803803804 1.5249167504987278e+38
4813.813813813814 1.5146266495935318e+38
4823.823823823824 1.5044294755133205e+38
4833.833833833834 1.4943239499255354e+38
4843.843843843844 1.4843088161122363e+38
4853.853853853854 1.4743828387537177e+38
4863.863863863864 1.4645448037054226e+38
4873.873873873874 1.4547935177686497e+38
4883.883883883884 1.445127808455586e+38
4893.893893893894 1.4355465237491255e+38
4903.9039039039035 1.4260485318579467e+38
4913.913913913913 1.416632720967299e+38
4923.923923923924 1.4072979989859089e+38
4933.933933933934 1.3980432932894428e+38
4943.943943943944 1.3888675504608792e+38
4953.953953953955 1.3797697360282025e+38
4963.9639639639645 1.3707488341997563e+38
4973.973973973974 1.361803847597597e+38
4983.983983983984 1.3529337969891875e+38
4993.993993993994 1.3441377210177357e+38
5004.004004004004 1.3354146759314679e+38
5014.014014014014 1.3267637353121396e+38
5024.024024024024 1.3181839898030295e+38
5034.0340340340335 1.309674546836699e+38
5044.044044044043 1.3012345303627412e+38
5054.054054054054 1.2928630805757574e+38
5064.064064064064 1.2845593536437906e+38
5074.074074074074 1.276322521437405e+38
5084.084084084085 1.2681517712596304e+38
5094.0940940940945 1.2600463055769443e+38
5104.104104104104 1.2520053417514721e+38
5114.114114114114 1.2440281117745717e+38
5124.124124124124 1.2361138620019659e+38
5134.134134134134 1.2282618528905583e+38
5144.144144144144 1.2204713587370839e+38
5154.154154154154 1.2127416674187186e+38
5164.1641641641645 1.20507208013577e+38
5174.174174174174 1.1974619111565702e+38
5184.184184184184 1.1899104875646686e+38
5194.194194194194 1.1824171490084275e+38
5204.204204204204 1.174981247453126e+38
5214.214214214214 1.1676021469356327e+38
5224.224224224225 1.160279223321751e+38
5234.2342342342345 1.1530118640662992e+38
5244.244244244244 1.1457994679759885e+38
5254.254254254254 1.1386414449751758e+38
5264.264264264264 1.1315372158745308e+38
5274.274274274274 1.124486212142682e+38
5284.284284284285 1.1174878756808773e+38
5294.294294294295 1.11054165860071e+38
5304.304304304304 1.1036470230049342e+38
5314.314314314314 1.0968034407714215e+38
5324.324324324324 1.0900103933402623e+38
5334.334334334334 1.0832673715040632e+38
5344.344344344345 1.0765738752014294e+38
5354.354354354355 1.0699294133136852e+38
5364.3643643643645 1.0633335034648086e+38
5374.374374374374 1.0567856718246211e+38
5384.384384384384 1.0502854529152172e+38
5394.394394394394 1.0438323894206496e+38
5404.404404404404 1.0374260319998672e+38
5414.414414414415 1.0310659391028992e+38
5424.424424424425 1.0247516767902954e+38
5434.4344344344345 1.0184828185557917e+38
5444.444444444444 1.0122589451522123e+38
5454.454454454454 1.0060796444205936e+38
5464.464464464464 9.999445111225038e+37
5474.474474474475 9.938531467755538e+37
5484.484484484485 9.878051594920808e+37
5494.494494494495 9.818001638209778e+37
5504.504504504504 9.758377805926584e+37
5514.514514514514 9.699176367671233e+37
5524.524524524524 9.640393652851144e+37
5534.534534534535 9.582026049223224e+37
5544.544544544545 9.524070001466276e+37
5554.554554554555 9.466522009783381e+37
5564.5645645645645 9.409378628534083e+37
5574.574574574574 9.35263646489591e+37
5584.584584584584 9.296292177555094e+37
5594.594594594595 9.24034247542597e+37
5604.604604604605 9.184784116398975e+37
5614.614614614615 9.129613906116617e+37
5624.624624624625 9.07482869677731e+37
5634.6346346346345 9.020425385966596e+37
5644.644644644644 8.966400915515415e+37
5654.654654654654 8.912752270385107e+37
5664.664664664665 8.859476477578649e+37
5674.674674674675 8.806570605077996e+37
5684.684684684685 8.754031760806824e+37
5694.694694694695 8.701857091618587e+37
5704.704704704704 8.650043782309333e+37
5714.714714714714 8.598589054654935e+37
5724.724724724725 8.547490166472408e+37
5734.734734734735 8.496744410704795e+37
5744.744744744745 8.446349114529373e+37
5754.754754754755 8.396301638488664e+37
5764.764764764765 8.3465993756439665e+37
5774.774774774774 8.297239750750943e+37
5784.784784784785 8.248220219456858e+37
5794.794794794795 8.199538267519169e+37
5804.804804804805 8.151191410044972e+37
5814.814814814815 8.103177190750959e+37
5824.824824824825 8.055493181243539e+37
5834.8348348348345 8.008136980318623e+37
5844.844844844845 7.96110621328084e+37
5854.854854854855 7.914398531281661e+37
5864.864864864865 7.868011610676102e+37
5874.874874874875 7.821943152397684e+37
5884.884884884885 7.776190881351182e+37
5894.894894894895 7.730752545822823e+37
