#lamb flux
1000.0 2.1596348820170265e+40
1010.01001001001 2.3537824620431693e+40
1020.0200200200201 2.5482546737175845e+40
1030.03003003003 2.741899167956261e+40
1040.0400400400401 2.933695121687389e+40
1050.05005005005 3.1227602124071984e+40
1060.06006006006 3.3083524400946196e+40
1070.07007007007 3.4898677188715513e+40
1080.08008008008 3.6668341490057154e+40
1090.0900900900901 3.8389038216310964e+40
1100.1001001001 4.0058429205392933e+40
1110.11011011011 4.1675207812574815e+40
1120.1201201201202 4.3238984579853727e+40
1130.13013013013 4.47501724154806e+40
1140.1401401401401 4.620987471555531e+40
1150.1501501501502 4.761977896608487e+40
1160.16016016016 4.898205759212605e+40
1170.1701701701702 5.029927717436524e+40
1180.1801801801803 5.157431662829638e+40
1190.1901901901902 5.281029452734188e+40
1200.2002002002002 5.401050543621117e+40
1210.2102102102103 5.517836489062034e+40
1220.2202202202202 5.631736250031433e+40
1230.2302302302303 5.74310225509696e+40
1240.2402402402402 5.852287142510484e+40
1250.2502502502502 5.958741210142495e+40
1260.2602602602603 6.060044668694729e+40
1270.2702702702702 6.151416462491225e+40
1280.2802802802803 6.233043176867755e+40
1290.2902902902902 6.305153355062935e+40
1300.3003003003003 6.368010875548392e+40
1310.3103103103103 6.421908765092089e+40
1320.3203203203202 6.467163476688807e+40
1330.3303303303303 6.5041096472617085e+40
1340.3403403403404 6.533095338292598e+40
1350.3503503503503 6.554477753052698e+40
1360.3603603603603 6.568619416638067e+40
1370.3703703703704 6.575884799317678e+40
1380.3803803803803 6.576637359537899e+40
1390.3903903903904 6.571236980065259e+40
1400.4004004004005 6.560037768978117e+40
1410.4104104104103 6.543386196345082e+40
1420.4204204204204 6.521619537281362e+40
1430.4304304304305 6.495064592502291e+40
1440.4404404404404 6.464036658365858e+40
1450.4504504504505 6.428838719599793e+40
1460.4604604604606 6.389760839350813e+40
1470.4704704704704 6.347079722793822e+40
1480.4804804804805 6.301058432234956e+40
1490.4904904904906 6.251946233380602e+40
1500.5005005005005 6.19997855418609e+40
1510.5105105105106 6.145377039410269e+40
1520.5205205205207 6.088349685662533e+40
1530.5305305305305 6.02909104332074e+40
1540.5405405405404 5.967782473211056e+40
1550.5505505505505 5.904592447367303e+40
1560.5605605605606 5.839676884526035e+40
1570.5705705705705 5.773179512265339e+40
1580.5805805805805 5.705232248862455e+40
1590.5905905905906 5.635955599034554e+40
1600.6006006006005 5.565459058744493e+40
1610.6106106106106 5.493841525208094e+40
1620.6206206206207 5.421191709140606e+40
1630.6306306306305 5.347588547138806e+40
1640.6406406406406 5.273101612922064e+40
1650.6506506506507 5.197791526963961e+40
1660.6606606606606 5.121710364846913e+40
1670.6706706706707 5.044902065480637e+40
1680.6806806806808 4.967402841152915e+40
1690.6906906906906 4.889241592243338e+40
1700.7007007007007 4.810477848353983e+40
1710.7107107107108 4.731274797706608e+40
1720.7207207207207 4.651618931527139e+40
1730.7307307307308 4.571474035775257e+40
1740.7407407407409 4.490802910477778e+40
1750.7507507507507 4.409567681642403e+40
1760.7607607607606 4.3277301826621196e+40
1770.770770770771 4.2452524170694406e+40
1780.7807807807808 4.162097115852528e+40
1790.7907907907907 4.07822840386202e+40
1800.8008008008007 3.993612591028445e+40
1810.8108108108108 3.908219105049381e+40
1820.8208208208207 3.822021582721788e+40
1830.8308308308308 3.7349991369617625e+40
1840.8408408408409 3.647137815479476e+40
1850.8508508508507 3.558432264698204e+40
1860.8608608608608 3.468887608382625e+40
1870.870870870871 3.3785215440622606e+40
1880.8808808808808 3.2873666511359273e+40
1890.890890890891 3.1954728919409855e+40
1900.900900900901 3.102910270535095e+40
1910.9109109109108 3.0097715930843212e+40
1920.920920920921 2.9161752484912376e+40
1930.930930930931 2.822267898620699e+40
1940.940940940941 2.7282269352891673e+40
1950.950950950951 2.634262528121584e+40
1960.960960960961 2.540619056653238e+40
1970.970970970971 2.447575696133722e+40
1980.980980980981 2.355445915023814e+40
1990.9909909909911 2.2645756495838897e+40
2001.001001001001 2.1753399536144445e+40
2011.0110110110109 2.0881379844026391e+40
2021.0210210210212 2.0033862813957796e+40
2031.031031031031 1.9215104195279412e+40
2041.0410410410411 1.842935265854181e+40
2051.051051051051 1.7680742210397586e+40
2061.061061061061 1.6973179656675863e+40
2071.071071071071 1.6310233320556567e+40
2081.081081081081 1.5695029640985672e+40
2091.091091091091 1.5130163966658209e+40
2101.101101101101 1.4617630803357088e+40
2111.1111111111113 1.415877708909519e+40
2121.121121121121 1.3754280012481043e+40
2131.131131131131 1.3404148782948581e+40
2141.141141141141 1.3107747937557635e+40
2151.151151151151 1.2863838483477649e+40
2161.161161161161 1.2670632552416982e+40
2171.1711711711714 1.252585725901694e+40
2181.1811811811813 1.2426823961025385e+40
2191.191191191191 1.2370499896275902e+40
2201.201201201201 1.2353579996173518e+40
2211.2112112112113 1.237255737282286e+40
2221.221221221221 1.2423791452417757e+40
2231.2312312312315 1.2503572969422673e+40
2241.2412412412414 1.26081850967301e+40
2251.2512512512512 1.2733959951826762e+40
2261.261261261261 1.2877329675441443e+40
2271.271271271271 1.3034871293367105e+40
2281.2812812812813 1.3203344677768515e+40
2291.2912912912916 1.3379723122323422e+40
2301.3013013013015 1.356121631232698e+40
2311.3113113113113 1.374528576950888e+40
2321.321321321321 1.3929653142808161e+40
2331.331331331331 1.4112301968053964e+40
2341.3413413413414 1.4291473709661782e+40
2351.3513513513512 1.4465659016328763e+40
2361.3613613613616 1.4633585171127619e+40
2371.3713713713714 1.4794200702910166e+40
2381.3813813813813 1.49466580636157e+40
2391.391391391391 1.5090295179635324e+40
2401.4014014014015 1.5224616568957312e+40
2411.4114114114113 1.534927459159241e+40
2421.4214214214217 1.546405127830204e+40
2431.4314314314315 1.5568841068702776e+40
2441.4414414414414 1.5663634688636641e+40
2451.4514514514512 1.5748504310407734e+40
2461.4614614614616 1.582359006859737e+40
2471.4714714714714 1.5889087948063036e+40
2481.4814814814818 1.5945239018051286e+40
2491.4914914914916 1.599231995538673e+40
2501.5015015015015 1.6030634778569785e+40
2511.5115115115113 1.6060507701492937e+40
2521.521521521521 1.608227700867559e+40
2531.5315315315315 1.60962898519285e+40
2541.541541541542 1.610289786991717e+40
2551.5515515515517 1.6102453536150982e+40
2561.5615615615616 1.6095307146636676e+40
2571.5715715715714 1.608180436514258e+40
2581.5815815815813 1.606228425122039e+40
2591.5915915915916 1.6037077703454155e+40
2601.6016016016015 1.6006506257585826e+40
2611.611611611612 1.597088118602362e+40
2621.6216216216217 1.5930502851657117e+40
2631.6316316316315 1.588566027481652e+40
2641.6416416416414 1.5836630877593834e+40
2651.6516516516517 1.578368037458665e+40
2661.6616616616616 1.5727062783447873e+40
2671.671671671672 1.5667020532452226e+40
2681.6816816816818 1.560378464565906e+40
2691.6916916916916 1.5537574989197635e+40
2701.7017017017015 1.5468600564766121e+40
2711.711711711712 1.5397059838658416e+40
2721.7217217217217 1.5323141096550248e+40
2731.731731731732 1.5247022815924204e+40
2741.741741741742 1.5168874049424977e+40
2751.7517517517517 1.508885481364009e+40
2761.7617617617616 1.5007116478825782e+40
2771.7717717717715 1.492380215596512e+40
2781.781781781782 1.4839047078278948e+40
2791.791791791792 1.4752978974926635e+40
2801.801801801802 1.4665718435150542e+40
2811.811811811812 1.4577379261550243e+40
2821.8218218218217 1.4488068811530963e+40
2831.8318318318316 1.4397888326267552e+40
2841.841841841842 1.4306933246769795e+40
2851.851851851852 1.4215293516833733e+40
2861.861861861862 1.41230538728262e+40
2871.871871871872 1.403029412037918e+40
2881.881881881882 1.3937089398174572e+40
2891.8918918918916 1.3843510429080533e+40
2901.901901901902 1.3749623758963124e+40
2911.911911911912 1.3655491983544e+40
2921.921921921922 1.3561173963708552e+40
2931.931931931932 1.3466725029692722e+40
2941.941941941942 1.3372197174591093e+40
2951.9519519519517 1.3277639237636764e+40
2961.961961961962 1.318309707770528e+40
2971.971971971972 1.3088613737492201e+40
2981.9819819819822 1.2994229598807804e+40
2991.991991991992 1.2899982529422772e+40
3002.002002002002 1.2805908021887997e+40
3012.012012012012 1.2712039324738093e+40
3022.0220220220217 1.2618407566474381e+40
3032.032032032032 1.2622625567088048e+40
3042.0420420420423 1.2516990492140016e+40
3052.052052052052 1.240835781725895e+40
3062.062062062062 1.2297719558588516e+40
3072.072072072072 1.218592613486045e+40
3082.0820820820823 1.2073700712896955e+40
3092.092092092092 1.1961652778254886e+40
3102.102102102102 1.1850290813076675e+40
3112.1121121121123 1.1740034018614395e+40
3122.122122122122 1.1631223061593847e+40
3132.132132132132 1.1524129854162067e+40
3142.1421421421423 1.1418966398846432e+40
3152.152152152152 1.1315892744636174e+40
3162.162162162162 1.1215024109560384e+40
3172.1721721721724 1.1116437230267383e+40
3182.1821821821823 1.1020176001164205e+40
3192.192192192192 1.0926256465482554e+40
3202.202202202202 1.0834671218862321e+40
3212.2122122122123 1.0745393283195778e+40
3222.222222222222 1.0658379504949532e+40
3232.232232232232 1.0573573528274188e+40
3242.2422422422424 1.0490908389141638e+40
3252.252252252252 1.0410308772677089e+40
3262.262262262262 1.0331692971889215e+40
3272.2722722722724 1.0254974582221645e+40
3282.2822822822823 1.0180063962800471e+40
3292.292292292292 1.0106869491962741e+40
3302.3023023023025 1.003529864163072e+40
3312.3123123123123 9.965258892347396e+39
3322.322322322322 9.896658508303396e+39
3332.3323323323325 9.829407189449935e+39
3342.3423423423424 9.763416615794725e+39
3352.352352352352 9.698600897196329e+39
3362.3623623623625 9.634876940392654e+39
3372.3723723723724 9.572164743601221e+39
3382.3823823823823 9.510387627793614e+39
3392.3923923923926 9.449472412661438e+39
3402.4024024024025 9.389349544334279e+39
3412.4124124124123 9.329953181072555e+39
3422.4224224224226 9.271221242422383e+39
3432.4324324324325 9.213095426675424e+39
3442.4424424424424 9.155521200912197e+39
3452.4524524524522 9.098447767412943e+39
3462.4624624624626 9.041828009786861e+39
3472.4724724724724 8.985618421790698e+39
3482.4824824824823 8.929779021473701e+39
3492.4924924924926 8.874273252993221e+39
3502.5025025025025 8.819067878186066e+39
3512.5125125125123 8.764132859753217e+39
3522.5225225225226 8.709441237713175e+39
3532.5325325325325 8.654969000599847e+39
3542.5425425425424 8.600694952721582e+39
3552.5525525525527 8.546600578654864e+39
3562.5625625625626 8.492669906018663e+39
3572.5725725725724 8.43888936746012e+39
3582.5825825825827 8.385247662678769e+39
3592.5925925925926 8.331735621222077e+39
3602.6026026026025 8.278346066699946e+39
3612.612612612613 8.225073682988028e+39
3622.6226226226227 8.171914882918405e+39
3632.6326326326325 8.118867679891542e+39
3642.642642642643 8.065931562783431e+39
3652.6526526526527 8.013107374467557e+39
3662.6626626626626 7.960397194220586e+39
3672.672672672673 7.907804224235052e+39
3682.6826826826828 7.855332680419602e+39
3692.6926926926926 7.802987687628485e+39
3702.7027027027025 7.750775179426484e+39
3712.712712712713 7.698701802462776e+39
3722.7227227227227 7.646774825497591e+39
3732.7327327327325 7.595002053098209e+39
3742.742742742743 7.543391743996699e+39
3752.7527527527527 7.491952534079427e+39
3762.7627627627626 7.44069336395847e+39
3772.772772772773 7.389623411057606e+39
3782.7827827827828 7.338752026129492e+39
3792.7927927927926 7.288088674107131e+39
3802.802802802803 7.237642879180571e+39
3812.812812812813 7.187424173979388e+39
3822.8228228228227 7.1374420527329e+39
3832.832832832833 7.087705928272732e+39
3842.842842842843 7.038225092736244e+39
3852.8528528528527 6.989008681825048e+39
3862.862862862863 6.940065642469046e+39
3872.872872872873 6.891404703744285e+39
3882.8828828828828 6.843034350891354e+39
3892.892892892893 6.79496280228081e+39
3902.902902902903 6.747197989172186e+39
3912.912912912913 6.69974753811448e+39
3922.922922922923 6.652618755837621e+39
3932.932932932933 6.605818616486876e+39
3942.942942942943 6.559353751054858e+39
3952.9529529529527 6.5132304388693e+39
3962.962962962963 6.467454600998428e+39
3972.972972972973 6.422031795439638e+39
3982.982982982983 6.376967213961766e+39
3992.992992992993 6.332265680475546e+39
4003.003003003003 6.287931650811836e+39
4013.013013013013 6.243969213791685e+39
4023.023023023023 6.200382093477653e+39
4033.033033033033 6.157173652500549e+39
4043.043043043043 6.114346896360859e+39
4053.053053053053 6.071904478609231e+39
4063.063063063063 6.029848706815286e+39
4073.073073073073 5.988181549239003e+39
4083.0830830830832 5.946904642123839e+39
4093.093093093093 5.906019297535484e+39
4103.103103103103 5.865526511674752e+39
4113.113113113113 5.825426973597843e+39
4123.123123123123 5.785721074281328e+39
4133.133133133133 5.746408915973784e+39
4143.143143143143 5.707490321779929e+39
4153.153153153153 5.668964845427049e+39
4163.163163163163 5.630831781167463e+39
4173.173173173173 5.593090173774222e+39
4183.183183183183 5.555738828590877e+39
4193.193193193193 5.51877632159926e+39
4203.203203203203 5.482201009472563e+39
4213.213213213214 5.446011039583843e+39
4223.223223223224 5.410204359942893e+39
4233.2332332332335 5.374778729037131e+39
4243.243243243243 5.3397317255546393e+39
4253.253253253253 5.305060757969798e+39
4263.263263263263 5.270763073974208e+39
4273.273273273273 5.236835769737582e+39
4283.283283283283 5.2032757989853085e+39
4293.293293293293 5.1700799818811006e+39
4303.303303303303 5.137245013704784e+39
4313.313313313313 5.104767473316941e+39
4323.323323323323 5.0726438314033865e+39
4333.333333333334 5.040870458493915e+39
4343.343343343344 5.00944363275087e+39
4353.353353353354 4.9783595475242267e+39
4363.3633633633635 4.9476143186709003e+39
4373.373373373373 4.917203991636929e+39
4383.383383383383 4.887124548301967e+39
4393.393393393393 4.8573719135863806e+39
4403.403403403403 4.827941961821813e+39
4413.413413413413 4.7988305228868087e+39
4423.423423423424 4.770033388109593e+39
4433.4334334334335 4.7415463159405756e+39
4443.443443443443 4.7133650373976454e+39
4453.453453453454 4.685485261287653e+39
4463.463463463464 4.657902679207863e+39
4473.473473473474 4.6306129703313584e+39
4483.483483483484 4.603611805980803e+39
4493.493493493494 4.576894853994955e+39
4503.503503503503 4.5504577828927027e+39
4513.513513513513 4.5242962658394385e+39
4523.523523523523 4.4984059844206364e+39
4533.533533533533 4.4727826322278216e+39
4543.543543543543 4.4474219182618797e+39
4553.553553553554 4.42231957015892e+39
4563.563563563564 4.397471337243854e+39
4573.573573573573 4.372872993416822e+39
4583.583583583584 4.348520339877639e+39
4593.593593593594 4.324409207693387e+39
4603.603603603604 4.3005354602141967e+39
4613.613613613614 4.276894995342318e+39
4623.623623623624 4.2534837476593676e+39
4633.6336336336335 4.230297690416709e+39
4643.643643643643 4.2073328373937595e+39
4653.653653653653 4.1845852446289536e+39
4663.663663663663 4.1620510120280184e+39
4673.673673673674 4.139726284854079e+39
4683.683683683684 4.117607255104101e+39
4693.693693693694 4.095690162775927e+39
4703.703703703704 4.073971297030233e+39
4713.713713713714 4.0524469972514783e+39
4723.723723723724 4.031113654011917e+39
4733.733733733734 4.009967709942528e+39
4743.743743743744 3.989005660514768e+39
4753.753753753754 3.9682240547367336e+39
4763.763763763764 3.9476194957674306e+39
4773.773773773773 3.927188641452524e+39
4783.783783783783 3.90692820478507e+39
4793.793793793793 3.886834954294392e+39
4803.803803803804 3.866905714366334e+39
4813.813813813814 3.8471373654979265e+39
4823.823823823824 3.8275268444894683e+39
4833.833833833834 3.808071144576836e+39
4843.843843843844 3.7887673155068646e+39
4853.853853853854 3.769612463558409e+39
4863.863863863864 3.750603751511736e+39
4873.873873873874 3.731738398568695e+39
4883.883883883884 3.713013680226123e+39
4893.893893893894 3.694426928104778e+39
4903.9039039039035 3.675975529736078e+39
4913.913913913913 3.6576569283087797e+39
4923.923923923924 3.6394686223777077e+39
4933.933933933934 3.62140816553657e+39
4943.943943943944 3.6034731660567343e+39
4953.953953953955 3.5856612864939224e+39
4963.9639639639645 3.56797024326457e+39
4973.973973973974 3.550397806193607e+39
4983.983983983984 3.532941798035344e+39
4993.993993993994 3.515600093969064e+39
5004.004004004004 3.498370621070892e+39
5014.014014014014 3.4812513577634266e+39
5024.024024024024 3.464240333244574e+39
5034.0340340340335 3.4473356268970065e+39
5044.044044044043 3.430535367679533e+39
5054.054054054054 3.413837733501714e+39
5064.064064064064 3.397240950582947e+39
5074.074074074074 3.380743292797201e+39
5084.084084084085 3.3643430810045813e+39
5094.0940940940945 3.348038682370812e+39
5104.104104104104 3.331828509675698e+39
5114.114114114114 3.31571102061161e+39
5124.124124124124 3.2996847170729596e+39
5134.134134134134 3.283748144437636e+39
5144.144144144144 3.267899890841282e+39
5154.154154154154 3.252138586445345e+39
5164.1641641641645 3.2364629026996694e+39
5174.174174174174 3.220871551600533e+39
5184.184184184184 3.2053632849448143e+39
5194.194194194194 3.1899368935811187e+39
5204.204204204204 3.1745912066585456e+39
5214.214214214214 3.159325090873787e+39
5224.224224224225 3.1441374497172293e+39
5234.2342342342345 3.129027222718713e+39
5244.244244244244 3.113993384693513e+39
5254.254254254254 3.099034944989198e+39
5264.264264264264 3.084150946733843e+39
5274.274274274274 3.06934046608623e+39
5284.284284284285 3.05460261148846e+39
5294.294294294295 3.0399365229215424e+39
5304.304304304304 3.0253413711643776e+39
5314.314314314314 3.0108163570566324e+39
5324.324324324324 2.996360710765891e+39
5334.334334334334 2.981973691059536e+39
5344.344344344345 2.9676545845817055e+39
5354.354354354355 2.953402705135751e+39
5364.3643643643645 2.939217392972488e+39
5374.374374374374 2.9250980140846366e+39
5384.384384384384 2.911043959507727e+39
5394.394394394394 2.897054644627791e+39
5404.404404404404 2.883129508496124e+39
5414.414414414415 2.869268013151385e+39
5424.424424424425 2.85546964294929e+39
5434.4344344344345 2.841733903900137e+39
5444.444444444444 2.828060323014384e+39
5454.454454454454 2.8144484476565066e+39
5464.464464464464 2.800897844907311e+39
5474.474474474475 2.7874081009348956e+39
5484.484484484485 2.773978820374432e+39
5494.494494494495 2.7606096257169184e+39
5504.504504504504 2.747300156707059e+39
5514.514514514514 2.734050069750383e+39
5524.524524524524 2.720859037329756e+39
5534.534534534535 2.7077267474313517e+39
5544.544544544545 2.6946529029802286e+39
5554.554554554555 2.6816372212855503e+39
5564.5645645645645 2.668679433495571e+39
5574.574574574574 2.6557792840624256e+39
5584.584584584584 2.6429365302167926e+39
5594.594594594595 2.6301509414524572e+39
5604.604604604605 2.6174222990208743e+39
5614.614614614615 2.604750395435651e+39
5624.624624624625 2.592135033987091e+39
5634.6346346346345 2.57957602826673e+39
5644.644644644644 2.5670732017018878e+39
5654.654654654654 2.554626387100256e+39
5664.664664664665 2.5422354262044623e+39
5674.674674674675 2.5299001692566616e+39
5684.684684684685 2.5176204745730434e+39
5694.694694694695 2.5053962081282936e+39
5704.704704704704 2.493227243149945e+39
5714.714714714714 2.4811134597225477e+39
5724.724724724725 2.469054744401658e+39
5734.734734734735 2.457050989837542e+39
5744.744744744745 2.4451020944085524e+39
5754.754754754755 2.4332079618641076e+39
5764.764764764765 2.4213685009772052e+39
5774.774774774774 2.4095836252063722e+39
5784.784784784785 2.3978532523669895e+39
5794.794794794795 2.386177304311898e+39
5804.804804804805 2.374555706621185e+39
5814.814814814815 2.3629883883010625e+39
5824.824824824825 2.3514752814917483e+39
5834.8348348348345 2.3400163211842152e+39
5844.844844844845 2.3286114449457583e+39
5854.854854854855 2.3172605926541963e+39
5864.864864864865 2.3059637062406608e+39
5874.874874874875 2.2947207294408252e+39
5884.884884884885 2.2835316075544646e+39
5894.894894894895 2.2723962872132147e+39
