#lamb flux
1000.0 7.537857317409416e+40
1010.01001001001 7.8317132627908975e+40
1020.0200200200201 8.120071298832189e+40
1030.03003003003 8.402615353109899e+40
1040.0400400400401 8.679087114649569e+40
1050.05005005005 8.949281316942315e+40
1060.06006006006 9.21304107385587e+40
1070.07007007007 9.47025333387492e+40
1080.08008008008 9.720844502716044e+40
1090.0900900900901 9.964776271167185e+40
1100.1001001001 1.0202041673847644e+41
1110.11011011011 1.0432661395292067e+41
1120.1201201201202 1.0656680332134105e+41
1130.13013013013 1.0874164414006653e+41
1140.1401401401401 1.1085197680894335e+41
1150.1501501501502 1.1289879610889118e+41
1160.16016016016 1.1488322689446687e+41
1170.1701701701702 1.1680650209168207e+41
1180.1801801801803 1.1866994287706294e+41
1190.1901901901902 1.2047494090496747e+41
1200.2002002002002 1.222229424454881e+41
1210.2102102102103 1.2391543429396457e+41
1220.2202202202202 1.2555393131448796e+41
1230.2302302302303 1.2713996548315664e+41
1240.2402402402402 1.2867507630172883e+41
1250.2502502502502 1.301571406181727e+41
1260.2602602602603 1.3157657610719677e+41
1270.2702702702702 1.329145592435727e+41
1280.2802802802803 1.3417252352768183e+41
1290.2902902902902 1.3535199011118596e+41
1300.3003003003003 1.3645455441793695e+41
1310.3103103103103 1.3748187378057566e+41
1320.3203203203202 1.3843565604853044e+41
1330.3303303303303 1.3931764912065566e+41
1340.3403403403404 1.401296313541935e+41
1350.3503503503503 1.4087340280096504e+41
1360.3603603603603 1.4155077722155831e+41
1370.3703703703704 1.4216357482866244e+41
1380.3803803803803 1.4271361571151378e+41
1390.3903903903904 1.4320271389455995e+41
1400.4004004004005 1.4363267198485398e+41
1410.4104104104103 1.4400527636429988e+41
1420.4204204204204 1.4432229288461004e+41
1430.4304304304305 1.4458546302467766e+41
1440.4404404404404 1.447965004719687e+41
1450.4504504504505 1.449570880914555e+41
1460.4604604604606 1.4506887524754681e+41
1470.4704704704704 1.451334754463609e+41
1480.4804804804805 1.4515246426756697e+41
1490.4904904904906 1.4512737755682444e+41
1500.5005005005005 1.4505970985161893e+41
1510.5105105105106 1.4495091301498422e+41
1520.5205205205207 1.4480239505323436e+41
1530.5305305305305 1.4461551909539344e+41
1540.5405405405404 1.4439160251351869e+41
1550.5505505505505 1.4413191616456048e+41
1560.5605605605606 1.4383768373580167e+41
1570.5705705705705 1.4351008117728921e+41
1580.5805805805805 1.4315023620600952e+41
1590.5905905905906 1.4275922786790143e+41
1600.6006006006005 1.4233808614515546e+41
1610.6106106106106 1.4188779159765718e+41
1620.6206206206207 1.414092750289039e+41
1630.6306306306305 1.4090341716833197e+41
1640.6406406406406 1.4037104836374444e+41
1650.6506506506507 1.398129482795218e+41
1660.6606606606606 1.392298455985628e+41
1670.6706706706707 1.3862241772855514e+41
1680.6806806806808 1.3799129051628457e+41
1690.6906906906906 1.3733703797739755e+41
1700.7007007007007 1.3666038062270259e+41
1710.7107107107108 1.359625853990659e+41
1720.7207207207207 1.3524397985032005e+41
1730.7307307307308 1.3450474110324946e+41
1740.7407407407409 1.337450076729576e+41
1750.7507507507507 1.3296487914266057e+41
1760.7607607607606 1.321644161202994e+41
1770.770770770771 1.3134364055354867e+41
1780.7807807807808 1.3050253650328583e+41
1790.7907907907907 1.2964105149732052e+41
1800.8008008008007 1.2875909861147597e+41
1810.8108108108108 1.2785655945420749e+41
1820.8208208208207 1.2693328826390585e+41
1830.8308308308308 1.2598911736469125e+41
1840.8408408408409 1.2502386426626975e+41
1850.8508508508507 1.2403734073514767e+41
1860.8608608608608 1.2302936420617115e+41
1870.870870870871 1.219997719418841e+41
1880.8808808808808 1.2094843837794601e+41
1890.890890890891 1.1987529610934022e+41
1900.900900900901 1.187803609655357e+41
1910.9109109109108 1.176637615816847e+41
1920.920920920921 1.1652577378310818e+41
1930.930930930931 1.1536685994481016e+41
1940.940940940941 1.1418771324780458e+41
1950.950950950951 1.1298930641054964e+41
1960.960960960961 1.1177294401029984e+41
1970.970970970971 1.1054031691607809e+41
1980.980980980981 1.0929355663545823e+41
1990.9909909909911 1.0803528655476784e+41
2001.001001001001 1.067686661781171e+41
2011.0110110110109 1.054974236313246e+41
2021.0210210210212 1.0422587101741523e+41
2031.031031031031 1.0295889685129982e+41
2041.0410410410411 1.0170192994476417e+41
2051.051051051051 1.0046086993685802e+41
2061.061061061061 9.924198130358476e+40
2071.071071071071 9.805175017784052e+40
2081.081081081081 9.689670657154091e+40
2091.091091091091 9.5783218353504e+40
2101.101101101101 9.471726716638343e+40
2111.1111111111113 9.370421980514506e+40
2121.121121121121 9.274861083213355e+40
2131.131131131131 9.185395285726951e+40
2141.141141141141 9.102258966398955e+40
2151.151151151151 9.025560421523923e+40
2161.161161161161 8.955278886969061e+40
2171.1711711711714 8.891267950635175e+40
2181.1811811811813 8.833264949504525e+40
2191.191191191191 8.78090543673307e+40
2201.201201201201 8.733741429169993e+40
2211.2112112112113 8.691261942505744e+40
2221.221221221221 8.652914297338932e+40
2231.2312312312315 8.61812481363783e+40
2241.2412412412414 8.586317761915783e+40
2251.2512512512512 8.556931756128477e+40
2261.261261261261 8.529433106103512e+40
2271.271271271271 8.503325955408591e+40
2281.2812812812813 8.478159286239415e+40
2291.2912912912916 8.453531062264481e+40
2301.3013013013015 8.429089901443067e+40
2311.3113113113113 8.40453473033386e+40
2321.321321321321 8.379612881079306e+40
2331.331331331331 8.354117065699858e+40
2341.3413413413414 8.327881612700338e+40
2351.3513513513512 8.300778289496632e+40
2361.3613613613616 8.272711969475108e+40
2371.3713713713714 8.243616340634158e+40
2381.3813813813813 8.213449797437079e+40
2391.391391391391 8.182191610578924e+40
2401.4014014014015 8.149838431335319e+40
2411.4114114114113 8.116401157622491e+40
2421.4214214214217 8.081902166938729e+40
2431.4314314314315 8.046372905821162e+40
2441.4414414414414 8.009851815130397e+40
2451.4514514514512 7.972382564232011e+40
2461.4614614614616 7.934012563972256e+40
2471.4714714714714 7.894791727402157e+40
2481.4814814814818 7.854771447805045e+40
2491.4914914914916 7.814003765194749e+40
2501.5015015015015 7.772540694670121e+40
2511.5115115115113 7.730433692540275e+40
2521.521521521521 7.687733238763646e+40
2531.5315315315315 7.6444885168304925e+40
2541.541541541542 7.600747174670715e+40
2551.5515515515517 7.556555152433296e+40
2561.5615615615616 7.511956565032694e+40
2571.5715715715714 7.466993629183593e+40
2581.5815815815813 7.421706626251136e+40
2591.5915915915916 7.376133893642804e+40
2601.6016016016015 7.330311838674896e+40
2611.611611611612 7.284274969881258e+40
2621.6216216216217 7.238055941612409e+40
2631.6316316316315 7.191685608518641e+40
2641.6416416416414 7.14519308713887e+40
2651.6516516516517 7.098605822343203e+40
2661.6616616616616 7.051949656816808e+40
2671.671671671672 7.005248902138056e+40
2681.6816816816818 6.95852641030635e+40
2691.6916916916916 6.911803644824616e+40
2701.7017017017015 6.865100750646364e+40
2711.711711711712 6.818436622464733e+40
2721.7217217217217 6.771828970957496e+40
2731.731731731732 6.72529438671228e+40
2741.741741741742 6.678848401645436e+40
2751.7517517517517 6.632505547798992e+40
2761.7617617617616 6.586279413456774e+40
2771.7717717717715 6.540182696564994e+40
2781.781781781782 6.494227255477369e+40
2791.791791791792 6.44842415707121e+40
2801.801801801802 6.402783722300709e+40
2811.811811811812 6.357315569268435e+40
2821.8218218218217 6.312028653906181e+40
2831.8318318318316 6.266931308363225e+40
2841.841841841842 6.222031277204141e+40
2851.851851851852 6.17733575152033e+40
2861.861861861862 6.132851401059523e+40
2871.871871871872 6.088584404476679e+40
2881.881881881882 6.044540477807464e+40
2891.8918918918916 6.00072490126286e+40
2901.901901901902 5.957142544439943e+40
2911.911911911912 5.913797890040378e+40
2921.921921921922 5.870695056184052e+40
2931.931931931932 5.827837817401335e+40
2941.941941941942 5.785229624383128e+40
2951.9519519519517 5.742873622563997e+40
2961.961961961962 5.700772669609313e+40
2971.971971971972 5.658929351873605e+40
2981.9819819819822 5.617345999893283e+40
2991.991991991992 5.57602470297323e+40
3002.002002002002 5.534967322923284e+40
3012.012012012012 5.494175506997048e+40
3022.0220220220217 5.4536507000823905e+40
3032.032032032032 5.421226860761298e+40
3042.0420420420423 5.380234223938459e+40
3052.052052052052 5.339245322982354e+40
3062.062062062062 5.298337636130132e+40
3072.072072072072 5.257577464907653e+40
3082.0820820820823 5.217021133716592e+40
3092.092092092092 5.176716084892848e+40
3102.102102102102 5.136701875563513e+40
3112.1121121121123 5.097011082784448e+40
3122.122122122122 5.057670123440379e+40
3132.132132132132 5.018699995273181e+40
3142.1421421421423 4.980116945203142e+40
3152.152152152152 4.9419330708470085e+40
3162.162162162162 4.904156860836197e+40
3172.1721721721724 4.866793679213623e+40
3182.1821821821823 4.829846198850834e+40
3192.192192192192 4.793314788487446e+40
3202.202202202202 4.75719785765961e+40
3212.2122122122123 4.721492163457992e+40
3222.222222222222 4.68619308274257e+40
3232.232232232232 4.651294853143664e+40
3242.2422422422424 4.616790785897645e+40
3252.252252252252 4.58267345330216e+40
3262.262262262262 4.548934853330441e+40
3272.2722722722724 4.515566553716354e+40
3282.2822822822823 4.482559817611415e+40
3292.292292292292 4.449905712721252e+40
3302.3023023023025 4.41759520565093e+40
3312.3123123123123 4.385619243025643e+40
3322.322322322322 4.353968820804238e+40
3332.3323323323325 4.322635043067062e+40
3342.3423423423424 4.291609171435932e+40
3352.352352352352 4.2608826661711723e+40
3362.3623623623625 4.2304472198885846e+40
3372.3723723723724 4.2002947847460505e+40
3382.3823823823823 4.1704175938652963e+40
3392.3923923923926 4.1408081776780523e+40
3402.4024024024025 4.11145937581643e+40
3412.4124124124123 4.082364345104852e+40
3422.4224224224226 4.0535165641541056e+40
3432.4324324324325 4.0249098350067096e+40
3442.4424424424424 3.996538282236479e+40
3452.4524524524522 3.9683963498630418e+40
3462.4624624624626 3.940478796404251e+40
3472.4724724724724 3.912780688355004e+40
3482.4824824824823 3.885297392349947e+40
3492.4924924924926 3.858024566239607e+40
3502.5025025025025 3.8309581492840363e+40
3512.5125125125123 3.8040943516451986e+40
3522.5225225225226 3.7774296433386774e+40
3532.5325325325325 3.750960742786551e+40
3542.5425425425424 3.724684605096446e+40
3552.5525525525527 3.6985984101765987e+40
3562.5625625625626 3.672699550782939e+40
3572.5725725725724 3.646985620581917e+40
3582.5825825825827 3.621454402301635e+40
3592.5925925925926 3.596103856033769e+40
3602.6026026026025 3.5709321077397657e+40
3612.612612612613 3.545937438006718e+40
3622.6226226226227 3.521118271090971e+40
3632.6326326326325 3.496473164281067e+40
3642.642642642643 3.4720007976057493e+40
3652.6526526526527 3.4476999639075676e+40
3662.6626626626626 3.4235695592978986e+40
3672.672672672673 3.399608574005232e+40
3682.6826826826828 3.375816083624703e+40
3692.6926926926926 3.352191240773764e+40
3702.7027027027025 3.328733267155957e+40
3712.712712712713 3.3054414460322697e+40
3722.7227227227227 3.2823151150973864e+40
3732.7327327327325 3.259353659756172e+40
3742.742742742743 3.236556506794195e+40
3752.7527527527527 3.2139231184345906e+40
3762.7627627627626 3.1914529867724204e+40
3772.772772772773 3.1691456285767e+40
3782.7827827827828 3.147000580449392e+40
3792.7927927927926 3.125017394330006e+40
3802.802802802803 3.103195633333966e+40
3812.812812812813 3.081534867912393e+40
3822.8228228228227 3.0600346723207605e+40
3832.832832832833 3.03869462138363e+40
3842.842842842843 3.0175142875425648e+40
3852.8528528528527 2.996493238174313e+40
3862.862862862863 2.9756310331663737e+40
3872.872872872873 2.954927222737193e+40
3882.8828828828828 2.934381345488281e+40
3892.892892892893 2.913992926675972e+40
3902.902902902903 2.8937614766904694e+40
3912.912912912913 2.873686489730373e+40
3922.922922922923 2.853767442661023e+40
3932.932932932933 2.834003794045389e+40
3942.942942942943 2.8143949833365123e+40
3952.9529529529527 2.794940430220943e+40
3962.962962962963 2.7756395341029363e+40
3972.972972972973 2.756491673719538e+40
3982.982982982983 2.737496206877109e+40
3992.992992992993 2.718652470300198e+40
4003.003003003003 2.6999597795840963e+40
4013.013013013013 2.681417429242705e+40
4023.023023023023 2.6630246928438676e+40
4033.033033033033 2.644780823224547e+40
4043.043043043043 2.626685052778735e+40
4053.053053053053 2.608736593811249e+40
4063.063063063063 2.590934638950986e+40
4073.073073073073 2.5732783616175253e+40
4083.0830830830832 2.5557669165353447e+40
4093.093093093093 2.5383994402902017e+40
4103.103103103103 2.521175051922579e+40
4113.113113113113 2.5040928535534386e+40
4123.123123123123 2.487151931037716e+40
4133.133133133133 2.470351354641432e+40
4143.143143143143 2.4536901797384364e+40
4153.153153153153 2.437167447523154e+40
4163.163163163163 2.4207821857359027e+40
4173.173173173173 2.404533409397637e+40
4183.183183183183 2.388420121551198e+40
4193.193193193193 2.3724413140063233e+40
4203.203203203203 2.356595968085961e+40
4213.213213213214 2.3408830553715813e+40
4223.223223223224 2.325301538445372e+40
4233.2332332332335 2.3098503716274013e+40
4243.243243243243 2.29452850170599e+40
4253.253253253253 2.2793348686597267e+40
4263.263263263263 2.2642684063696514e+40
4273.273273273273 2.2493280433203477e+40
4283.283283283283 2.2345127032887587e+40
4293.293293293293 2.2198213060197216e+40
4303.303303303303 2.2052527678872867e+40
4313.313313313313 2.190806002541038e+40
4323.323323323323 2.1764799215367069e+40
4333.333333333334 2.162273434950495e+40
4343.343343343344 2.148185451976595e+40
4353.353353353354 2.1342148815074833e+40
4363.3633633633635 2.12036063269665e+40
4373.373373373373 2.1066216155034975e+40
4383.383383383383 2.0929967412201988e+40
4393.393393393393 2.0794849229803898e+40
4403.403403403403 2.0660850762496002e+40
4413.413413413413 2.0527961192974027e+40
4423.423423423424 2.039616973651311e+40
4433.4334334334335 2.026546564532473e+40
4443.443443443443 2.013583821273279e+40
4453.453453453454 2.0007276777170208e+40
4463.463463463464 1.9879770725998035e+40
4473.473473473474 1.9753309499148613e+40
4483.483483483484 1.9627882592595826e+40
4493.493493493494 1.9503479561654448e+40
4503.503503503503 1.9380090024111786e+40
4513.513513513513 1.9257703663194418e+40
4523.523523523523 1.9136310230373164e+40
4533.533533533533 1.9015899548009925e+40
4543.543543543543 1.889646151184933e+40
4553.553553553554 1.877798609335923e+40
4563.563563563564 1.8660463341923403e+40
4573.573573573573 1.8543883386890232e+40
4583.583583583584 1.8428236439481226e+40
4593.593593593594 1.831351279456317e+40
4603.603603603604 1.819970283228757e+40
4613.613613613614 1.808679701960174e+40
4623.623623623624 1.7974785911634827e+40
4633.6336336336335 1.7863660152963152e+40
4643.643643643643 1.7753410478758502e+40
4653.653653653653 1.764402771582322e+40
4663.663663663663 1.7535502783516103e+40
4673.673673673674 1.7427826694572737e+40
4683.683683683684 1.7320990555824158e+40
4693.693693693694 1.7214985568817445e+40
4703.703703703704 1.710980303034205e+40
4713.713713713714 1.7005434332865452e+40
4723.723723723724 1.6901870964881592e+40
4733.733733733734 1.6799104511175712e+40
4743.743743743744 1.6697126653009088e+40
4753.753753753754 1.6595929168226822e+40
4763.763763763764 1.64955039312923e+40
4773.773773773773 1.6395842913251128e+40
4783.783783783783 1.6296938181628322e+40
4793.793793793793 1.619878190026119e+40
4803.803803803804 1.610136632907139e+40
4813.813813813814 1.6004683823778898e+40
4823.823823823824 1.5908726835560834e+40
4833.833833833834 1.5813487910657855e+40
4843.843843843844 1.5718959689930956e+40
4853.853853853854 1.5625134908371194e+40
4863.863863863864 1.5532006394564964e+40
4873.873873873874 1.5439567070117337e+40
4883.883883883884 1.534780994903581e+40
4893.893893893894 1.5256728137076872e+40
4903.9039039039035 1.5166314831057607e+40
4913.913913913913 1.5076563318134532e+40
4923.923923923924 1.4987466975051833e+40
4933.933933933934 1.4899019267361056e+40
4943.943943943944 1.481121374861405e+40
4953.953953953955 1.4724044059531449e+40
4963.9639639639645 1.4637503927148168e+40
4973.973973973974 1.4551587163937822e+40
4983.983983983984 1.4466287666917931e+40
4993.993993993994 1.438159941673732e+40
5004.004004004004 1.4297516476747445e+40
5014.014014014014 1.4214032992059186e+40
5024.024024024024 1.413114318858643e+40
5034.0340340340335 1.4048841372078092e+40
5044.044044044043 1.3967121927139633e+40
5054.054054054054 1.3885979316245673e+40
5064.064064064064 1.3805408078744712e+40
5074.074074074074 1.3725402829857217e+40
5084.084084084085 1.3645958259668293e+40
5094.0940940940945 1.3567069132115944e+40
5104.104104104104 1.3488730283975934e+40
5114.114114114114 1.341093662384436e+40
5124.124124124124 1.333368313111876e+40
5134.134134134134 1.3256964854978752e+40
5144.144144144144 1.3180776913367e+40
5154.154154154154 1.310511449197134e+40
5164.1641641641645 1.3029972843208888e+40
5174.174174174174 1.2955347285212778e+40
5184.184184184184 1.2881233200822327e+40
5194.194194194194 1.2807626036577188e+40
5204.204204204204 1.2734521301716244e+40
5214.214214214214 1.2661914567181701e+40
5224.224224224225 1.258980146462901e+40
5234.2342342342345 1.2518177685443175e+40
5244.244244244244 1.2447038979761824e+40
5254.254254254254 1.2376381155505662e+40
5264.264264264264 1.2306200077416588e+40
5274.274274274274 1.2236491666104045e+40
5284.284284284285 1.2167251897099814e+40
5294.294294294295 1.2098476799921758e+40
5304.304304304304 1.2030162457146693e+40
5314.314314314314 1.1962305003492894e+40
5324.324324324324 1.1894900624912276e+40
5334.334334334334 1.1827945557692746e+40
5344.344344344345 1.1761436087570752e+40
5354.354354354355 1.1695368548854435e+40
5364.3643643643645 1.1629739323557434e+40
5374.374374374374 1.156454484054363e+40
5384.384384384384 1.1499781574682892e+40
5394.394394394394 1.1435446046018092e+40
5404.404404404404 1.1371534818943373e+40
5414.414414414415 1.1308044501393902e+40
5424.424424424425 1.1244971744047165e+40
5434.4344344344345 1.118231323953582e+40
5444.444444444444 1.1120065721672258e+40
5454.454454454454 1.1058225964684952e+40
5464.464464464464 1.0996790782466502e+40
5474.474474474475 1.0935757027833527e+40
5484.484484484485 1.0875121591798378e+40
5494.494494494495 1.0814881402852677e+40
5504.504504504504 1.075503342626268e+40
5514.514514514514 1.0695574663376444e+40
5524.524524524524 1.0636502150942818e+40
5534.534534534535 1.0577812960442126e+40
5544.544544544545 1.0519504197428666e+40
5554.554554554555 1.0461573000884747e+40
5564.5645645645645 1.0404016542586455e+40
5574.574574574574 1.0346832026480893e+40
5584.584584584584 1.0290016688074956e+40
5594.594594594595 1.0233567793835399e+40
5604.604604604605 1.0177482640600415e+40
5614.614614614615 1.0121758555002225e+40
5624.624624624625 1.0066392892900951e+40
5634.6346346346345 1.0011383038829495e+40
5644.644644644644 9.956726405449306e+39
5654.654654654654 9.902420433017079e+39
5664.664664664665 9.848462588862015e+39
5674.674674674675 9.794850366873863e+39
5684.684684684685 9.741581287001314e+39
5694.694694694695 9.688652894760819e+39
5704.704704704704 9.636062760755612e+39
5714.714714714714 9.583808480204898e+39
5724.724724724725 9.531887672482985e+39
5734.734734734735 9.48029798066826e+39
5744.744744744745 9.429037071101925e+39
5754.754754754755 9.378102632956258e+39
5764.764764764765 9.327492377812408e+39
5774.774774774774 9.277204039247412e+39
5784.784784784785 9.22723537243044e+39
5794.794794794795 9.177584153728047e+39
5804.804804804805 9.128248180318325e+39
5814.814814814815 9.079225269813802e+39
5824.824824824825 9.030513259892957e+39
5834.8348348348345 8.982110007940161e+39
5844.844844844845 8.934013390694032e+39
5854.854854854855 8.886221303903866e+39
5864.864864864865 8.838731661994154e+39
5874.874874874875 8.791542397737032e+39
5884.884884884885 8.744651461932422e+39
5894.894894894895 8.698056823095804e+39
