#lamb flux
1000.0 0.1643608350021307
1010.01001001001 0.17522965052783304
1020.0200200200201 0.1864202663921017
1030.03003003003 0.19792328591272518
1040.0400400400401 0.20972896210959552
1050.05005005005 0.22182724794299047
1060.06006006006 0.23420784348554868
1070.07007007007 0.24686024005191726
1080.08008008008 0.2597737613390475
1090.0900900900901 0.2729376016531054
1100.1001001001 0.28634086131681025
1110.11011011011 0.29997257936444477
1120.1201201201202 0.3138217636413902
1130.13013013013 0.3278774184315162
1140.1401401401401 0.3421285697395318
1150.1501501501502 0.35656428835701665
1160.16016016016 0.3711737108406503
1170.1701701701702 0.3859460585295348
1180.1801801801803 0.4008706547257517
1190.1901901901902 0.4159369401586159
1200.2002002002002 0.4311344868488321
1210.2102102102103 0.4464530104839283
1220.2202202202202 0.46188238141127075
1230.2302302302303 0.47741263434965936
1240.2402402402402 0.49303397691507056
1250.2502502502502 0.5087303581401033
1260.2602602602603 0.5244720431542715
1270.2702702702702 0.5402110589975362
1280.2802802802803 0.5559345272335584
1290.2902902902902 0.5716299308963322
1300.3003003003003 0.5872851234624862
1310.3103103103103 0.602888336005276
1320.3203203203202 0.6184281826450578
1330.3303303303303 0.6338936644075828
1340.3403403403404 0.6492741715975303
1350.3503503503503 0.6645594847904744
1360.3603603603603 0.6797397745420677
1370.3703703703704 0.6948055999085373
1380.3803803803803 0.7097479058678884
1390.3903903903904 0.7245580197263317
1400.4004004004005 0.7392276465895569
1410.4104104104103 0.7537488639736215
1420.4204204204204 0.7681141156252732
1430.4304304304305 0.782316204616728
1440.4404404404404 0.796348285775106
1450.4504504504505 0.8102038575020056
1460.4604604604606 0.8238767530340697
1470.4704704704704 0.8373611311908405
1480.4804804804805 0.8506514666517621
1490.4904904904906 0.8637425397998607
1500.5005005005005 0.8766294261654128
1510.5105105105106 0.8893074854988483
1520.5205205205207 0.9017723504981606
1530.5305305305305 0.9140199152123353
1540.5405405405404 0.926046323138652
1550.5505505505505 0.9378479550283129
1560.5605605605606 0.949421416411581
1570.5705705705705 0.9607635248507236
1580.5805805805805 0.971871296926318
1590.5905905905906 0.982741934960255
1600.6006006006005 0.9933728134768791
1610.6106106106106 1.0037614654024845
1620.6206206206207 1.0139055680027076
1630.6306306306305 1.0238029285577022
1640.6406406406406 1.033451469776232
1650.6506506506507 1.042849214952526
1660.6606606606606 1.0519942728740233
1670.6706706706707 1.0608848224945462
1680.6806806806808 1.069519097396361
1690.6906906906906 1.0778953700767904
1700.7007007007007 1.0860126460176
1710.7107107107108 1.0938721401355205
1720.7207207207207 1.101471950931262
1730.7307307307308 1.1088097742165706
1740.7407407407409 1.1158832850329883
1750.7507507507507 1.1226901234292022
1760.7607607607606 1.1292278810507288
1770.770770770771 1.1354940889293919
1780.7807807807808 1.1414862069607552
1790.7907907907907 1.1472016156798306
1800.8008008008007 1.1526376110922376
1810.8108108108108 1.15779140349269
1820.8208208208207 1.1626601214083936
1830.8308308308308 1.167240822043549
1840.8408408408409 1.1715305098735702
1850.8508508508507 1.1755261653420952
1860.8608608608608 1.1792247859446456
1870.870870870871 1.1826234423290207
1880.8808808808808 1.1857193523847238
1890.890890890891 1.1885099766021672
1900.900900900901 1.1909931382128152
1910.9109109109108 1.193167171711838
1920.920920920921 1.195031103232315
1930.930930930931 1.1965848657781644
1940.940940940941 1.1978295514023813
1950.950950950951 1.198767700889699
1960.960960960961 1.199403629213372
1970.970970970971 1.1997437818423686
1980.980980980981 1.1997971127828246
1990.9909909909911 1.1995754700437946
2001.001001001001 1.1990939681714987
2011.0110110110109 1.1983713209639162
2021.0210210210212 1.1974301010985249
2031.031031031031 1.1962968881242453
2041.0410410410411 1.1950022633090025
2051.051051051051 1.1935806105942373
2061.061061061061 1.1920696887450881
2071.071071071071 1.190509951704
2081.081081081081 1.1889436124257478
2091.091091091091 1.1874134692667606
2101.101101101101 1.1859615411751212
2111.1111111111113 1.1846275850591095
2121.121121121121 1.1834475915113594
2131.131131131131 1.1824523691329276
2141.141141141141 1.1816663295111132
2151.151151151151 1.1811065727611683
2161.161161161161 1.1807823482071418
2171.1711711711714 1.180694929529053
2181.1811811811813 1.1808379037474492
2191.191191191191 1.18119783478479
2201.201201201201 1.1817552305981458
2211.2112112112113 1.1824857219865297
2221.221221221221 1.1833613528615743
2231.2312312312315 1.1843518854574118
2241.2412412412414 1.1854260372439052
2251.2512512512512 1.1865525857549064
2261.261261261261 1.187701299503476
2271.271271271271 1.1888436744580515
2281.2812812812813 1.189953473910134
2291.2912912912916 1.191007083695335
2301.3013013013015 1.191983704266093
2311.3113113113113 1.1928654063699102
2321.321321321321 1.1936370787924973
2331.331331331331 1.1942862956881142
2341.3413413413414 1.1948031283416887
2351.3513513513512 1.1951799225728428
2361.3613613613616 1.1954110590132367
2371.3713713713714 1.1954927095984111
2381.3813813813813 1.1954226000849348
2391.391391391391 1.1951997853751164
2401.4014014014015 1.194824441952182
2411.4114114114113 1.1942976797830032
2421.4214214214217 1.1936213745807256
2431.4314314314315 1.1927980202654171
2441.4414414414414 1.1918306007421364
2451.4514514514512 1.1907224796611582
2461.4614614614616 1.189477306570792
2471.4714714714714 1.188098937765752
2481.4814814814818 1.1865913701298991
2491.4914914914916 1.1849586863370594
2501.5015015015015 1.1832050098817506
2511.5115115115113 1.1813344685437304
2521.521521521521 1.1793511650326203
2531.5315315315315 1.1772591537021317
2541.541541541542 1.175062422361303
2551.5515515515517 1.1727648783389433
2561.5615615615616 1.1703703380750683
2571.5715715715714 1.1678825196187002
2581.5815815815813 1.1653050375048128
2591.5915915915916 1.1626413995651326
2601.6016016016015 1.1598950052984947
2611.611611611612 1.1570691454877282
2621.6216216216217 1.1541670028023798
2631.6316316316315 1.1511916531712008
2641.6416416416414 1.1481460677461135
2651.6516516516517 1.145033115311177
2661.6616616616616 1.1418555650168793
2671.671671671672 1.1386160893424462
2681.6816816816818 1.1353172672075535
2691.6916916916916 1.131961587170354
2701.7017017017015 1.128551450661593
2711.711711711712 1.1250891752152288
2721.7217217217217 1.1215769976647085
2731.731731731732 1.1180170772812257
2741.741741741742 1.114411498836161
2751.7517517517517 1.1107622755746531
2761.7617617617616 1.1070713520911282
2771.7717717717715 1.1033406071007092
2781.781781781782 1.0995718561029115
2791.791791791792 1.0957668539360126
2801.801801801802 1.0919272972220253
2811.811811811812 1.0880548267034127
2821.8218218218217 1.0841510294735959
2831.8318318318316 1.0802174411040177
2841.841841841842 1.0762555476709972
2851.851851851852 1.0722667876860075
2861.861861861862 1.0682525539331944
2871.871871871872 1.0642141952181223
2881.881881881882 1.060153018031797
2891.8918918918916 1.056070288133978
2901.901901901902 1.0519672320597897
2911.911911911912 1.0478450385535334
2921.921921921922 1.0437048599334982
2931.931931931932 1.0395478133914493
2941.941941941942 1.0353749822303198
2951.9519519519517 1.0311874170434823
2961.961961961962 1.026986136838846
2971.971971971972 1.0227721301108286
2981.9819819819822 1.018546355863134
2991.991991991992 1.0143097445850835
3002.002002002002 1.0100631991841131
3012.012012012012 1.0058075958769133
3022.0220220220217 1.0015437850415108
3032.032032032032 0.9979214952977834
3042.0420420420423 0.993562218374092
3052.052052052052 0.989174393638495
3062.062062062062 0.9847649805840366
3072.072072072072 0.9803400738965936
3082.0820820820823 0.9759049900064966
3092.092092092092 0.9714643463907082
3102.102102102102 0.9670221341036984
3112.1121121121123 0.9625817840033847
3122.122122122122 0.9581462271226403
3132.132132132132 0.9537179496180079
3142.1421421421423 0.9492990427065338
3152.152152152152 0.9448912479796318
3162.162162162162 0.9404959984603966
3172.1721721721724 0.9361144557481348
3182.1821821821823 0.9317475435715439
3192.192192192192 0.927395978050134
3202.202202202202 0.9230602949424221
3212.2122122122123 0.9187408741392524
3222.222222222222 0.9144379616413182
3232.232232232232 0.9101516892418545
3242.2422422422424 0.905882092118261
3252.252252252252 0.9016291245203998
3262.262262262262 0.8973926737282507
3272.2722722722724 0.8931725724376255
3282.2822822822823 0.8889686097196169
3292.292292292292 0.8847805406873687
3302.3023023023025 0.8806080949925882
3312.3123123123123 0.8764509842638745
3322.322322322322 0.8723089085893989
3332.3323323323325 0.8681815621376708
3342.3423423423424 0.8640686380020454
3352.352352352352 0.8599698323471346
3362.3623623623625 0.8558848479284935
3372.3723723723724 0.8518133970506033
3382.3823823823823 0.8477552040224313
3392.3923923923926 0.8437100071645441
3402.4024024024025 0.839677560416881
3412.4124124124123 0.8356576345918398
3422.4224224224226 0.8316500183132617
3432.4324324324325 0.8276545186781408
3442.4424424424424 0.8236709616744733
3452.4524524524522 0.8196991923855196
3462.4624624624626 0.8157390750078941
3472.4724724724724 0.811790492708262
3482.4824824824823 0.8078533473410203
3492.4924924924926 0.8039275590471664
3502.5025025025025 0.800013065752523
3512.5125125125123 0.7961098225816705
3522.5225225225226 0.7922178012022705
3532.5325325325325 0.7883369891129166
3542.5425425425424 0.7844673888862664
3552.5525525525527 0.7806090173779385
3562.5625625625626 0.7767619049104908
3572.5725725725724 0.7729260944407347
3582.5825825825827 0.7691016407177028
3592.5925925925926 0.7652886094376811
3602.6026026026025 0.7614870764019387
3612.612612612613 0.7576971266820745
3622.6226226226227 0.7539188537972148
3632.6326326326325 0.7501523589067399
3642.642642642643 0.7463977500216508
3652.6526526526527 0.7426551412372238
3662.6626626626626 0.738924651989135
3672.672672672673 0.7352064063348877
3682.6826826826828 0.7315005322619688
3692.6926926926926 0.727807161023882
3702.7027027027025 0.7241264265049043
3712.712712712713 0.7204584646141593
3722.7227227227227 0.7168034127093852
3732.7327327327325 0.7131614090505531
3742.742742742743 0.7095325922833469
3752.7527527527527 0.7059171009523287
3762.7627627627626 0.702315073043498
3772.772772772773 0.6987266455558286
3782.7827827827828 0.6951519541012625
3792.7927927927926 0.691591132532555
3802.802802802803 0.6880443125982935
3812.812812812813 0.6845116236243431
3822.8228228228227 0.6809931922209279
3832.832832832833 0.6774891420145116
3842.842842842843 0.6739995934036063
3852.8528528528527 0.6705246633376234
3862.862862862863 0.6670644651178439
3872.872872872873 0.6636191082195979
3882.8828828828828 0.6601886981347104
3892.892892892893 0.6567733362333059
3902.902902902903 0.6533731196440185
3912.912912912913 0.6499881411517143
3922.922922922923 0.6466184891118045
3932.932932932933 0.6432642473802633
3942.942942942943 0.6399254952584696
3952.9529529529527 0.6366023074520203
3962.962962962963 0.6332947540426712
3972.972972972973 0.6300029004726005
3982.982982982983 0.6267268075401932
3992.992992992993 0.6234665314065831
4003.003003003003 0.6202221236122195
4013.013013013013 0.6169936311027268
4023.023023023023 0.6137810962633814
4033.033033033033 0.6105845569615372
4043.043043043043 0.607404046596362
4053.053053053053 0.604239594155281
4063.063063063063 0.6010912242765383
4073.073073073073 0.597958957317324
4083.0830830830832 0.5948428094269345
4093.093093093093 0.5917427926244616
4103.103103103103 0.5886589148805272
4113.113113113113 0.5855911802026164
4123.123123123123 0.5825395887235645
4133.133133133133 0.5795041367928044
4143.143143143143 0.5764848170699776
4153.153153153153 0.573481618620553
4163.163163163163 0.5704945270131074
4173.173173173173 0.5675235244179473
4183.183183183183 0.5645685897067754
4193.193193193193 0.5616296985531111
4203.203203203203 0.5587068235332121
4213.213213213214 0.5557999342272442
4223.223223223224 0.552908997320472
4233.2332332332335 0.5500339767042627
4243.243243243243 0.5471748335767003
4253.253253253253 0.5443315265426351
4263.263263263263 0.5415040117129967
4273.273273273273 0.5386922428032188
4283.283283283283 0.5358961712306343
4293.293293293293 0.5331157462107172
4303.303303303303 0.5303509148520437
4313.313313313313 0.5276016222498825
4323.323323323323 0.5248678115783015
4333.333333333334 0.522149424180725
4343.343343343344 0.5194463996588469
4353.353353353354 0.5167586759598485
4363.3633633633635 0.5140861894618516
4373.373373373373 0.5114288750575635
4383.383383383383 0.5087866662360648
4393.393393393393 0.5061594951627083
4403.403403403403 0.5035472927570959
4413.413413413413 0.5009499887691091
4423.423423423424 0.49836751185298184
4433.4334334334335 0.495799789639389
4443.443443443443 0.49324674880555686
4453.453453453454 0.4907083151433824
4463.463463463464 0.4881844136255699
4473.473473473474 0.4856749684697759
4483.483483483484 0.48317990320079013
4493.493493493494 0.4806991407107448
4503.503503503503 0.47823260331738077
4513.513513513513 0.47578021282038124
4523.523523523523 0.47334189055578924
4533.533533533533 0.47091755744854563
4543.543543543543 0.4685071340631515
4553.553553553554 0.4661105406524989
4563.563563563564 0.4637276972048878
4573.573573573573 0.4613585234892614
4583.583583583584 0.45900293909869155
4593.593593593594 0.45666086349214496
4603.603603603604 0.4543322160345615
4613.613613613614 0.45201691603528393
4623.623623623624 0.44971488278486677
4633.6336336336335 0.44742603559030397
4643.643643643643 0.44515029380871163
4653.653653653653 0.4428875768794968
4663.663663663663 0.4406378043550564
4673.673673673674 0.43840089593003556
4683.683683683684 0.43617677146918776
4693.693693693694 0.4339653510338713
4703.703703703704 0.43176655490721805
4713.713713713714 0.4295803036180135
4723.723723723724 0.42740651796332507
4733.733733733734 0.42524511902990886
4743.743743743744 0.4230960282144421
4753.753753753754 0.420959167242607
4763.763763763764 0.4188344581870672
4773.773773773773 0.4167218234843678
4783.783783783783 0.4146211859507997
4793.793793793793 0.412532468797256
4803.803803803804 0.41045559564311657
4813.813813813814 0.40839049052919674
4823.823823823824 0.4063370779297889
4833.833833833834 0.4042952827638287
4843.843843843844 0.402265030405224
4853.853853853854 0.40024624669236625
4863.863863863864 0.398238857936866
4873.873873873874 0.3962427909315345
4883.883883883884 0.3942579729576437
4893.893893893894 0.39228433179149136
4903.9039039039035 0.39032179571030184
4913.913913913913 0.38837029349748603
4923.923923923924 0.3864297544472879
4933.933933933934 0.3845001083688471
4943.943943943944 0.38258128558969484
4953.953953953955 0.3806732169587179
4963.9639639639645 0.37877583384860425
4973.973973973974 0.3768890681578003
4983.983983983984 0.3750128523120012
4993.993993993994 0.3731471192651918
5004.004004004004 0.37129180250026594
5014.014014014014 0.3694468360292414
5024.024024024024 0.3676121543930868
5034.0340340340335 0.3657876926611887
5044.044044044043 0.3639733864304703
5054.054054054054 0.3621691718241817
5064.064064064064 0.3603749854903813
5074.074074074074 0.3585907646001245
5084.084084084085 0.3568164468453728
5094.0940940940945 0.3550519704366468
5104.104104104104 0.35329727410043055
5114.114114114114 0.3515522970763458
5124.124124124124 0.34981697911411175
5134.134134134134 0.34809126047030176
5144.144144144144 0.3463750819049099
5154.154154154154 0.3446683846777448
5164.1641641641645 0.3429711105446549
5174.174174174174 0.3412832017536073
5184.184184184184 0.33960460104062207
5194.194194194194 0.33793525162557836
5204.204204204204 0.33627509720790455
5214.214214214214 0.33462408196215465
5224.224224224225 0.33298215053348984
5234.2342342342345 0.33134924803307003
5244.244244244244 0.3297253200333623
5254.254254254254 0.3281103125633801
5264.264264264264 0.3265041721038561
5274.274274274274 0.32490684558236255
5284.284284284285 0.3233182803683791
5294.294294294295 0.3217384242683222
5304.304304304304 0.3201672255205378
5314.314314314314 0.3186046327902681
5324.324324324324 0.3170505951645948
5334.334334334334 0.31550506214736745
5344.344344344345 0.3139679836541207
5354.354354354355 0.31243931000698744
5364.3643643643645 0.3109189919296106
5374.374374374374 0.30940698054206195
5384.384384384384 0.3079032273557678
5394.394394394394 0.306407684268451
5404.404404404404 0.30492030355908784
5414.414414414415 0.30344103788288934
5424.424424424425 0.30196984026630647
5434.4344344344345 0.3005066641020632
5444.444444444444 0.2990514631442223
5454.454454454454 0.29760419150328715
5464.464464464464 0.2961648036413382
5474.474474474475 0.29473325436721237
5484.484484484485 0.29330949883172386
5494.494494494495 0.2918934925229298
5504.504504504504 0.29048519126144423
5514.514514514514 0.28908455119579884
5524.524524524524 0.2876915287978574
5534.534534534535 0.28630608085828035
5544.544544544545 0.28492816448204483
5554.554554554555 0.28355773708401866
5564.5645645645645 0.282194756384593
5574.574574574574 0.280839180405371
5584.584584584584 0.2794909674649165
5594.594594594595 0.2781500761745609
5604.604604604605 0.27681646543427363
5614.614614614615 0.27549009442858974
5624.624624624625 0.2741709226226025
5634.6346346346345 0.27285890975801735
5644.644644644644 0.27155401584926797
5654.654654654654 0.2702562011796969
5664.664664664665 0.2689654262977973
5674.674674674675 0.2676816520135214
5684.684684684685 0.26640483939464893
5694.694694694695 0.26513494976322194
5704.704704704704 0.2638719446920426
5714.714714714714 0.26261578600123353
5724.724724724725 0.26136643575486296
5734.734734734735 0.26012385625763185
5744.744744744745 0.2588880100516251
5754.754754754755 0.2576588599131235
5764.764764764765 0.2564363688494807
5774.774774774774 0.2552205000960593
5784.784784784785 0.25401121711323016
5794.794794794795 0.25280848358343166
5804.804804804805 0.2516122634082898
5814.814814814815 0.25042252070579774
5824.824824824825 0.2492392198075556
5834.8348348348345 0.24806232525606695
5844.844844844845 0.24689180180209644
5854.854854854855 0.2457276144020812
5864.864864864865 0.24456972821560105
5874.874874874875 0.24341810860290494
5884.884884884885 0.2422727211224909
5894.894894894895 0.241133531528742
5904.9049049049045 0.24000050576961532
5914.914914914915 0.23887360998438356
5924.924924924925 0.23775281050143046
5934.934934934935 0.23663807383609414
5944.944944944945 0.23552936668856567
5954.954954954955 0.23442665594183237
5964.964964964965 0.23332990865967385
5974.974974974975 0.23223909208470414
5984.984984984985 0.2311541736364616
5994.994994994995 0.2300751209095449
6005.005005005005 0.22900190167179407
6015.015015015015 0.22793448386251777
6025.025025025025 0.2268728355907626
6035.035035035035 0.22581692513362595
6045.045045045045 0.2247667209346116
6055.055055055055 0.22372219160202553
6065.065065065065 0.2226833059074122
6075.075075075075 0.22165003278403142
6085.085085085085 0.22062234132537245
6095.0950950950955 0.21960020078370704
6105.105105105105 0.21858358056867938
6115.115115115115 0.2175724502459311
6125.125125125125 0.21656677953576298
6135.135135135135 0.2155665383118312
6145.145145145145 0.21457169659987546
6155.155155155155 0.21358222457648282
6165.1651651651655 0.21259809256788106
6175.175175175175 0.21161927104876543
6185.185185185185 0.2106457306411543
6195.195195195195 0.20967744211327624
6205.205205205205 0.20871437637848458
6215.215215215215 0.207756504494201
6225.225225225226 0.20680379766088722
6235.235235235235 0.20585622722104183
6245.245245245245 0.20491376465822547
6255.255255255255 0.20397638159610942
6265.265265265265 0.20304404979754953
6275.275275275275 0.20211674116368467
6285.285285285286 0.20119442773305768
6295.295295295296 0.2002770816807596
6305.305305305305 0.19936467531759483
6315.315315315315 0.1984571810892694
6325.325325325325 0.19755457157559808
6335.335335335335 0.19665681948973263
