#lamb flux
1000.0 6.00978575897976
1010.01001001001 6.15016893459379
1020.0200200200201 6.273829962414895
1030.03003003003 6.381412403115383
1040.0400400400401 6.473668039571914
1050.05005005005 6.551428175608393
1060.06006006006 6.615578354180193
1070.07007007007 6.667036496888646
1080.08008008008 6.706734346708126
1090.0900900900901 6.735602012399859
1100.1001001001 6.754555359738018
1110.11011011011 6.764485965230754
1120.1201201201202 6.766253336961412
1130.13013013013 6.760679109743181
1140.1401401401401 6.74854293399274
1150.1501501501502 6.730579796358612
1160.16016016016 6.707478532639036
1170.1701701701702 6.679881317941164
1180.1801801801803 6.6483839439193195
1190.1901901901902 6.613536717249424
1200.2002002002002 6.575845836547353
1210.2102102102103 6.5357751262767545
1220.2202202202202 6.49374802557192
1230.2302302302303 6.45014974722465
1240.2402402402402 6.405329537358261
1250.2502502502502 6.359115021184349
1260.2602602602603 6.310363313037051
1270.2702702702702 6.256821283292031
1280.2802802802803 6.198949113533023
1290.2902902902902 6.137183675951799
1300.3003003003003 6.071938215632135
1310.3103103103103 6.003602301376204
1320.3203203203202 5.932542002007909
1330.3303303303303 5.859100249511136
1340.3403403403404 5.7835973545985775
1350.3503503503503 5.706331644309293
1360.3603603603603 5.627580194966596
1370.3703703703704 5.547599637274401
1380.3803803803803 5.466627013482062
1390.3903903903904 5.384880669407049
1400.4004004004005 5.302561166678564
1410.4104104104103 5.219852202866331
1420.4204204204204 5.136921529202637
1430.4304304304305 5.053921857409372
1440.4404404404404 4.97099174872475
1450.4504504504505 4.888256479604046
1460.4604604604606 4.805828879765612
1470.4704704704704 4.72381013928391
1480.4804804804805 4.642290582314353
1490.4904904904906 4.561350405785586
1500.5005005005005 4.4810603820292405
1510.5105105105106 4.401482524849409
1520.5205205205207 4.3226707189765525
1530.5305305305305 4.244671313215544
1540.5405405405404 4.167523677895641
1550.5505505505505 4.09126072747116
1560.5605605605606 4.015909409313836
1570.5705705705705 3.941491159890173
1580.5805805805805 3.868022329635462
1590.5905905905906 3.7955145779280177
1600.6006006006005 3.7239752396379555
1610.6106106106106 3.6534076647800986
1620.6206206206207 3.5838115328452242
1630.6306306306305 3.515183143422844
1640.6406406406406 3.447515684766159
1650.6506506506507 3.380799481990669
1660.6606606606606 3.315022226645778
1670.6706706706707 3.2501691894588673
1680.6806806806808 3.186223418127371
1690.6906906906906 3.1231659221317276
1700.7007007007007 3.06098797705246
1710.7107107107108 2.999714457904086
1720.7207207207207 2.9393132767294805
1730.7307307307308 2.8797456518362687
1740.7407407407409 2.8209730905649733
1750.7507507507507 2.7629574186081745
1760.7607607607606 2.705660826211085
1770.770770770771 2.6490459346479307
1780.7807807807808 2.5930758869164623
1790.7907907907907 2.53771446719336
1800.8008008008007 2.4829262542370487
1810.8108108108108 2.4286768145943167
1820.8208208208207 2.3749329421349965
1830.8308308308308 2.3216629510623097
1840.8408408408409 2.2688370300627314
1850.8508508508507 2.216427665582177
1860.8608608608608 2.1644101422275823
1870.870870870871 2.1127631278415535
1880.8808808808808 2.061469349689328
1890.890890890891 2.0105163661954664
1900.900900900901 1.9598974354978
1910.9109109109108 1.9096124774445775
1920.920920920921 1.8596691192408392
1930.930930930931 1.8100838064805604
1940.940940940941 1.7608829506099561
1950.950950950951 1.7121040709664637
1960.960960960961 1.6637968747329057
1970.970970970971 1.616024202160479
1980.980980980981 1.5688627485088926
1990.9909909909911 1.5224034602124354
2001.001001001001 1.4767514933204882
2011.0110110110109 1.4320256202927306
2021.0210210210212 1.3883569799484503
2031.031031031031 1.345887087626545
2041.0410410410411 1.3047650601965792
2051.051051051051 1.2651440633934756
2061.061061061061 1.2271770543770133
2071.071071071071 1.191011964858178
2081.081081081081 1.1567865413073604
2091.091091091091 1.124623118671733
2101.101101101101 1.09462364264968
2111.1111111111113 1.066865264887847
2121.121121121121 1.041396811411713
2131.131131131131 1.0182363682471387
2141.141141141141 0.997370145817671
2151.151151151151 0.9787526856349811
2161.161161161161 0.962308371350573
2171.1711711711714 0.9479341133518687
2181.1811811811813 0.9355030013434726
2191.191191191191 0.9248686687647104
2201.201201201201 0.9158700886217706
2211.2112112112113 0.9083365211432131
2221.221221221221 0.9020923558970384
2231.2312312312315 0.8969616294278816
2241.2412412412414 0.8927720482569278
2251.2512512512512 0.8893584004912158
2261.261261261261 0.8865652921752724
2271.271271271271 0.8842491927188884
2281.2812812812813 0.8822798142718762
2291.2912912912916 0.8805408810747225
2301.3013013013015 0.878930366073617
2311.3113113113113 0.8773602839370155
2321.321321321321 0.8757561332737585
2331.331331331331 0.8740560779922076
2341.3413413413414 0.872209950174505
2351.3513513513512 0.8701781463161271
2361.3613613613616 0.8679304768172551
2371.3713713713714 0.8654450164159269
2381.3813813813813 0.8627069916967822
2391.391391391391 0.8597077314548782
2401.4014014014015 0.8564436968399328
2411.4114114114113 0.8529156009472522
2421.4214214214217 0.8491276218086393
2431.4314314314315 0.8450867084296172
2441.4414414414414 0.8408019764295255
2451.4514514514512 0.8362841877625317
2461.4614614614616 0.8315453077283481
2471.4714714714714 0.826598131837274
2481.4814814814818 0.8214559749146304
2491.4914914914916 0.8161324149812769
2501.5015015015015 0.8106410848218022
2511.5115115115113 0.8049955046661986
2521.521521521521 0.7992089500006956
2531.5315315315315 0.7932943491424143
2541.541541541542 0.7872642058278267
2551.5515515515517 0.781130542654636
2561.5615615615616 0.7749048617668954
2571.5715715715714 0.7685981196762753
2581.5815815815813 0.7622207135650635
2591.5915915915916 0.7557824768186143
2601.6016016016015 0.7492926818882809
2611.611611611612 0.7427600488935646
2621.6216216216217 0.7361927586380266
2631.6316316316315 0.7295984689415932
2641.6416416416414 0.7229843333864232
2651.6516516516517 0.71635702173846
2661.6616616616616 0.7097227414460212
2671.671671671672 0.7030872597336563
2681.6816816816818 0.6964559259072411
2691.6916916916916 0.68983369356756
2701.7017017017015 0.6832251424969985
2711.711711711712 0.6766345000394792
2721.7217217217217 0.6700656618393401
2731.731731731732 0.6635222118420008
2741.741741741742 0.6570074414894513
2751.7517517517517 0.6505243680678559
2761.7617617617616 0.6440757521840392
2771.7717717717715 0.6376641143629748
2781.781781781782 0.6312917507705001
2791.791791791792 0.6249607480747916
2801.801801801802 0.6186729974672139
2811.811811811812 0.6124302078684273
2821.8218218218217 0.6062339183493873
2831.8318318318316 0.6000855097994446
2841.841841841842 0.593986215875367
2851.851851851852 0.5879371332659323
2861.861861861862 0.5819392313069854
2871.871871871872 0.5759933609816194
2881.881881881882 0.5701002633395428
2891.8918918918916 0.5642605773688264
2901.901901901902 0.5584748473521517
2911.911911911912 0.552743529738475
2921.921921921922 0.5470669995597088
2931.931931931932 0.5414455564206625
2941.941941941942 0.5358794300890821
2951.9519519519517 0.5303687857112401
2961.961961961962 0.5249137286771322
2971.971971971972 0.519514309157985
2981.9819819819822 0.5141705263374555
2991.991991991992 0.508882332356626
3002.002002002002 0.5036496359916772
3012.012012012012 0.4984723060819458
3022.0220220220217 0.4933501747249582
3032.032032032032 0.49021234365834426
3042.0420420420423 0.48494719010426035
3052.052052052052 0.47967277398048663
3062.062062062062 0.47440817581011874
3072.072072072072 0.4691695239394422
3082.0820820820823 0.46397032481265027
3092.092092092092 0.4588217658845155
3102.102102102102 0.4537329918267224
3112.1121121121123 0.448711355100842
3122.122122122122 0.4437626422509218
3132.132132132132 0.43889127744161155
3142.1421421421423 0.43410050485847473
3152.152152152152 0.4293925516159042
3162.162162162162 0.42476877280121733
3172.1721721721724 0.42022978023398805
3182.1821821821823 0.41577555644775466
3192.192192192192 0.4114055553148474
3202.202202202202 0.4071187906403102
3212.2122122122123 0.4029139139523266
3222.222222222222 0.3987892826176152
3232.232232232232 0.39474301931337036
3242.2422422422424 0.3907730637942098
3252.252252252252 0.3868772178043424
3262.262262262262 0.38305318390253595
3272.2722722722724 0.3792985988907442
3282.2822822822823 0.37561106246658876
3292.292292292292 0.3719881616552057
3302.3023023023025 0.36842749151706633
3312.3123123123123 0.36492667257497985
3322.322322322322 0.36148336535527986
3332.3323323323325 0.3580952823947639
3342.3423423423424 0.3547601980260152
3352.352352352352 0.351475956218804
3362.3623623623625 0.34824047672409375
3372.3723723723724 0.3450517597393215
3382.3823823823823 0.3419078892887969
3392.3923923923926 0.33880703549100766
3402.4024024024025 0.3357474558649323
3412.4124124124123 0.3327274958100245
3422.4224224224226 0.3297455883789997
3432.4324324324325 0.32680025344878516
3442.4424424424424 0.32389009638273997
3452.4524524524522 0.32101380626639464
3462.4624624624626 0.31817015378929503
3472.4724724724724 0.31535798883696503
3482.4824824824823 0.3125762378493643
3492.4924924924926 0.30982390099546075
3502.5025025025025 0.3071000492074795
3512.5125125125123 0.3044038211130473
3522.5225225225226 0.3017344198986563
3532.5325325325325 0.2990911101336164
3542.5425425425424 0.29647321457987313
3552.5525525525527 0.29388011100967454
3562.5625625625626 0.29131122905005674
3572.5725725725724 0.2887660470704135
3582.5825825825827 0.28624408912701993
3592.5925925925926 0.28374492197621937
3602.6026026026025 0.28126815216607415
3612.612612612613 0.2788134232145696
3622.6226226226227 0.2763804128809298
3632.6326326326325 0.2739688305352518
3642.642642642643 0.2715784146304566
3652.6526526526527 0.26920893027947523
3662.6626626626626 0.2668601669396411
3672.672672672673 0.26453193620542154
3682.6826826826828 0.2622240697098724
3692.6926926926926 0.2599364171345509
3702.7027027027025 0.2576688443270503
3712.712712712713 0.2554212315248263
3722.7227227227227 0.2531934716835536
3732.7327327327325 0.2509854689078758
3742.742742742743 0.24879713698211378
3752.7527527527527 0.2466283979982164
3762.7627627627626 0.24447918107802977
3772.772772772773 0.2423494211867808
3782.7827827827828 0.24023905803452866
3792.7927927927926 0.23814803506222862
3802.802802802803 0.23607629850898224
3812.812812812813 0.2340237965569851
3822.8228228228227 0.23199047855066796
3832.832832832833 0.22997629428651326
3842.842842842843 0.22798119337004502
3852.8528528528527 0.22600512463652206
3862.862862862863 0.22404803563190337
3872.872872872873 0.2221098721507192
3882.8828828828828 0.22019057782754
3892.892892892893 0.2182900937788268
3902.902902902903 0.2164083582920152
3912.912912912913 0.21454530655879356
3922.922922922923 0.21270087044962166
3932.932932932933 0.21087497832664845
3942.942942942943 0.2090675548922818
3952.9529529529527 0.2072785210707806
3962.962962962963 0.2055077939203454
3972.972972972973 0.2037552865732916
3982.982982982983 0.20202090820200275
3992.992992992993 0.20030456400847055
4003.003003003003 0.1986061552353395
4013.013013013013 0.19692557919647455
4023.023023023023 0.19526272932518626
4033.033033033033 0.19361749523834407
4043.043043043043 0.1919897628147119
4053.053053053053 0.190379414285941
4063.063063063063 0.1887863283387485
4073.073073073073 0.1872103802269023
4083.0830830830832 0.18565144189172617
4093.093093093093 0.18410938208992114
4103.103103103103 0.18258406652758508
4113.113113113113 0.1810753579993912
4123.123123123123 0.1795831165319601
4133.133133133133 0.17810719953053772
4143.143143143143 0.17664746192815692
4153.153153153153 0.17520375633652605
4163.163163163163 0.17377593319795373
4173.173173173173 0.17236384093767523
4183.183183183183 0.17096732611600488
4193.193193193193 0.1695862335797876
4203.203203203203 0.16822040661267829
4213.213213213214 0.16686968708382033
4223.223223223224 0.16553391559453978
4233.2332332332335 0.1642129316227138
4243.243243243243 0.16290657366451067
4253.253253253253 0.16161467937323373
4263.263263263263 0.1603370856950366
4273.273273273273 0.1590736290013067
4283.283283283283 0.15782414521754534
4293.293293293293 0.15658846994859804
4303.303303303303 0.15536643860011343
4313.313313313313 0.15415788649613443
4323.323323323323 0.15296264899274237
4333.333333333334 0.15178056158769943
4343.343343343344 0.15061146002604803
4353.353353353354 0.14945518040164438
4363.3633633633635 0.1483115592546183
4373.373373373373 0.1471804336647633
4383.383383383383 0.14606164134087493
4393.393393393393 0.1449550207060658
4403.403403403403 0.14386041097909388
4413.413413413413 0.1427776522517529
4423.423423423424 0.1417065855623781
4433.4334334334335 0.14064705296552993
4443.443443443443 0.13959889759792235
4453.453453453454 0.13856196374066976
4463.463463463464 0.13753609687793117
4473.473473473474 0.13652114375202895
4483.483483483484 0.1355169524151335
4493.493493493494 0.13452337227759512
4503.503503503503 0.13354025415301707
4513.513513513513 0.13256745030015998
4523.523523523523 0.1316048144617692
4533.533533533533 0.13065220190042215
4543.543543543543 0.12970946943148534
4553.553553553554 0.12877647545327994
4563.563563563564 0.12785307997454737
4573.573573573573 0.12693914463930958
4583.583583583584 0.12603453274921855
4593.593593593594 0.1251391092834861
4603.603603603604 0.12425274091648592
4613.613613613614 0.1233752960331193
4623.623623623624 0.12250664474203167
4633.6336336336335 0.12164665888676941
4643.643643643643 0.12079521205496198
4653.653653653653 0.11995217958561333
4663.663663663663 0.11911743857458637
4673.673673673674 0.11829086787835995
4683.683683683684 0.11747234811613837
4693.693693693694 0.11666176167038918
4703.703703703704 0.11585899268588513
4713.713713713714 0.1150639270673235
4723.723723723724 0.11427645247559207
4733.733733733734 0.11349645832275242
4743.743743743744 0.1127238357658074
4753.753753753754 0.111958477699316
4763.763763763764 0.11120027874692093
4773.773773773773 0.11044913525184667
4783.783783783783 0.10970494526643122
4793.793793793793 0.10896760854074368
4803.803803803804 0.10823702651034607
4813.813813813814 0.10751310228325159
4823.823823823824 0.10679574062612956
4833.833833833834 0.10608484794980803
4843.843843843844 0.10538033229412035
4853.853853853854 0.10468210331214199
4863.863863863864 0.10399007225386232
4873.873873873874 0.1033041519493319
4883.883883883884 0.10262425679132875
4893.893893893894 0.10195030271758003
4903.9039039039035 0.10128220719257854
4913.913913913913 0.10061988918902903
4923.923923923924 0.09996326916895942
4933.933933933934 0.09931226906453014
4943.943943943944 0.09866681225857211
4953.953953953955 0.09802682356488561
4963.9639639639645 0.09739222920832764
4973.973973973974 0.09676295680471525
4983.983983983984 0.0961389353405731
4993.993993993994 0.09552009515274855
5004.004004004004 0.09490636790791929
5014.014014014014 0.09429768658201715
5024.024024024024 0.09369398543958801
5034.0340340340335 0.09309520001311156
5044.044044044043 0.09250126708229765
5054.054054054054 0.09191212465338053
5064.064064064064 0.09132771193842765
5074.074074074074 0.09074796933468005
5084.084084084085 0.09017283840394091
5094.0940940940945 0.08960226185202755
5104.104104104104 0.08903618350830048
5114.114114114114 0.08847454830528427
5124.124124124124 0.08791730225839237
5134.134134134134 0.08736439244576819
5144.144144144144 0.08681576698825433
5154.154154154154 0.08627137502949986
5164.1641641641645 0.08573116671621665
5174.174174174174 0.08519509317859404
5184.184184184184 0.08466310651087984
5194.194194194194 0.08413515975213741
5204.204204204204 0.08361120686718589
5214.214214214214 0.08309120272773007
5224.224224224225 0.08257510309368801
5234.2342342342345 0.08206286459472152
5244.244244244244 0.08155444471197572
5254.254254254254 0.08104980176003297
5264.264264264264 0.08054889486908526
5274.274274274274 0.08005168396733134
5284.284284284285 0.0795581297636
5294.294294294295 0.07906819373020543
5304.304304304304 0.07858183808603657
5314.314314314314 0.07809902577988398
5324.324324324324 0.07761972047400652
5334.334334334334 0.07714388652794033
5344.344344344345 0.07667148898255154
5354.354354354355 0.07620249354433548
5364.3643643643645 0.07573686656996202
5374.374374374374 0.07527457505107012
5384.384384384384 0.07481558659931051
5394.394394394394 0.07435986943163893
5404.404404404404 0.07390739235585853
5414.414414414415 0.07345812475641295
5424.424424424425 0.07301203658042948
5434.4344344344345 0.0725690983240116
5444.444444444444 0.07212928101878102
5454.454454454454 0.07169255621866885
5464.464464464464 0.0712588959869538
5474.474474474475 0.07082827288354787
5484.484484484485 0.07040065995252741
5494.494494494495 0.06997603070990853
5504.504504504504 0.06955435913166592
5514.514514514514 0.06913561964199239
5524.524524524524 0.06871978710179875
5534.534534534535 0.06830683679745121
5544.544544544545 0.06789674442974482
5554.554554554555 0.06748948610311084
5564.5645645645645 0.06708503831505612
5574.574574574574 0.06668337794583172
5584.584584584584 0.06628448224832938
5594.594594594595 0.06588832883820202
5604.604604604605 0.06549489568420812
5614.614614614615 0.06510416109877436
5624.624624624625 0.06471610372877705
5634.6346346346345 0.06433070254653757
5644.644644644644 0.06394793684102985
5654.654654654654 0.06356778620929748
5664.664664664665 0.0631902305480767
5674.674674674675 0.06281525004562402
5684.684684684685 0.062442825173743395
5694.694694694695 0.062072936680012236
5704.704704704704 0.06170556558020198
5714.714714714714 0.061340693150890586
5724.724724724725 0.060978300922264334
5734.734734734735 0.06061837067110529
5744.744744744745 0.06026088441396207
5754.754754754755 0.059905824400500275
5764.764764764765 0.05955317310703025
5774.774774774774 0.05920291323020843
5784.784784784785 0.05885502768090974
5794.794794794795 0.05850949957826767
5804.804804804805 0.05816631224387932
5814.814814814815 0.05782544919617192
5824.824824824825 0.05748689414492841
5834.8348348348345 0.05715063098596823
5844.844844844845 0.056816643795981406
5854.854854854855 0.056484916827511715
5864.864864864865 0.05615543450408681
5874.874874874875 0.05582818141549216
5884.884884884885 0.05550314231318548
5894.894894894895 0.05518030210584915
5904.9049049049045 0.054859645855077584
5914.914914914915 0.054541158771196446
5924.924924924925 0.054224826209211416
5934.934934934935 0.053910633664882475
5944.944944944945 0.05359856677092273
5954.954954954955 0.053288611293317
5964.964964964965 0.05298075312775899
5974.974974974975 0.052674978296203274
5984.984984984985 0.05237127294353008
5994.994994994995 0.05206962333431964
6005.005005005005 0.05177001584973388
6015.015015015015 0.05147243698450272
6025.025025025025 0.05117687334401238
6035.035035035035 0.05088331164149298
6045.045045045045 0.05059173869530344
6055.055055055055 0.05030214142631045
6065.065065065065 0.050014506855359867
6075.075075075075 0.04972882210083762
6085.085085085085 0.049445074376317795
6095.0950950950955 0.04916325098829585
6105.105105105105 0.04888333933400455
6115.115115115115 0.04860532689930999
6125.125125125125 0.04832920125668613
6135.135135135135 0.048054950063265336
6145.145145145145 0.047782561058962475
6155.155155155155 0.04751202206467124
6165.1651651651655 0.047243320980529704
6175.175175175175 0.046976445784253966
6185.185185185185 0.046711384529537096
6195.195195195195 0.046448125344512106
6205.205205205205 0.04618665643027651
6215.215215215215 0.045926966059476826
6225.225225225226 0.04566904257495137
6235.235235235235 0.04541287438842886
6245.245245245245 0.045158449979282006
6255.255255255255 0.04490575789333369
6265.265265265265 0.0446547867417139
6275.275275275275 0.04440552519976658
6285.285285285286 0.04415796200600385
6295.295295295296 0.04391208596110675
