#lamb flux
1000.0 0.8272569761465096
1010.01001001001 0.858226816363149
1020.0200200200201 0.8892821296412073
1030.03003003003 0.9203865757543338
1040.0400400400401 0.9515045877339044
1050.05005005005 0.9826014452060495
1060.06006006006 1.0136433397174127
1070.07007007007 1.0445974323333598
1080.08008008008 1.0754319038174058
1090.0900900900901 1.1061159977200405
1100.1001001001 1.136620056719972
1110.11011011011 1.1669155525709043
1120.1201201201202 1.1969751100134627
1130.13013013013 1.2267725250146426
1140.1401401401401 1.2562827776970162
1150.1501501501502 1.2854820403170262
1160.16016016016 1.3143476806465835
1170.1701701701702 1.3428582611049746
1180.1801801801803 1.3709935339793984
1190.1901901901902 1.398734433062173
1200.2002002002002 1.4260630620214685
1210.2102102102103 1.4529626798102075
1220.2202202202202 1.4794176834049098
1230.2302302302303 1.5054135881529724
1240.2402402402402 1.5309370059931386
1250.2502502502502 1.5559755943735383
1260.2602602602603 1.5805180017908025
1270.2702702702702 1.604553826292591
1280.2802802802803 1.6280738100025678
1290.2902902902902 1.651069659916235
1300.3003003003003 1.6735340181196383
1310.3103103103103 1.695460431348645
1320.3203203203202 1.716843320046377
1330.3303303303303 1.7376779470645551
1340.3403403403404 1.7579603861427064
1350.3503503503503 1.7776874902883044
1360.3603603603603 1.7968568601701278
1370.3703703703704 1.8154668126271454
1380.3803803803803 1.8335163493856161
1390.3903903903904 1.8510051260680087
1400.4004004004005 1.8679334215687755
1410.4104104104103 1.8843021078640032
1420.4204204204204 1.9001126203143088
1430.4304304304305 1.9153669285132844
1440.4404404404404 1.930067507727223
1450.4504504504505 1.9442173109655305
1460.4604604604606 1.9578197417156458
1470.4704704704704 1.9708786273708383
1480.4804804804805 1.983398193374368
1490.4904904904906 1.9953830380989472
1500.5005005005005 2.0068381084762255
1510.5105105105106 2.017768676387225
1520.5205205205207 2.028180315821077
1530.5305305305305 2.0380788808062467
1540.5405405405404 2.0474704841155402
1550.5505505505505 2.0563614767434633
1560.5605605605606 2.0647584281522198
1570.5705705705705 2.072668107280431
1580.5805805805805 2.0800974643067827
1590.5905905905906 2.087053613159081
1600.6006006006005 2.0935438147576977
1610.6106106106106 2.0995754609810957
1620.6206206206207 2.1051560593399263
1630.6306306306305 2.1102932183452436
1640.6406406406406 2.1149946335555168
1650.6506506506507 2.119268074286397
1660.6606606606606 2.12312137096668
1670.6706706706707 2.1265624031233434
1680.6806806806808 2.1295990879782662
1690.6906906906906 2.132239369638952
1700.7007007007007 2.134491210808564
1710.7107107107108 2.1363625871087693
1720.7207207207207 2.137861463409251
1730.7307307307308 2.1389957928161096
1740.7407407407409 2.139773509654991
1750.7507507507507 2.1402025218489764
1760.7607607607606 2.140290703766834
1770.770770770771 2.140045889525048
1780.7807807807808 2.139475866727346
1790.7907907907907 2.138588370626151
1800.8008008008007 2.137391078690869
1810.8108108108108 2.1358916055687676
1820.8208208208207 2.1340974984248784
1830.8308308308308 2.132016232648378
1840.8408408408409 2.129655207913757
1850.8508508508507 2.12702174458627
1860.8608608608608 2.124123080462203
1870.870870870871 2.1209663678357433
1880.8808808808808 2.1175586708853644
1890.890890890891 2.113906963373767
1900.900900900901 2.110018126656375
1910.9109109109108 2.1058989479939485
1920.920920920921 2.1015561191650933
1930.930930930931 2.09699623537368
1940.940940940941 2.092225794444687
1950.950950950951 2.087251196298748
1960.960960960961 2.082078742690933
1970.970970970971 2.0767146371922727
1980.980980980981 2.071164985383271
1990.9909909909911 2.0654357952167968
2001.001001001001 2.059532977493986
2011.0110110110109 2.053462346381574
2021.0210210210212 2.0472296198841513
2031.031031031031 2.040840420172338
2041.0410410410411 2.0343002736606888
2051.051051051051 2.0276146107310393
2061.061061061061 2.020788765010949
2071.071071071071 2.0138279721461565
2081.081081081081 2.006737368050885
2091.091091091091 1.9995219866789251
2101.101101101101 1.9921867574263181
2111.1111111111113 1.9847365023444274
2121.121121121121 1.9771759333992107
2131.131131131131 1.9695096500470182
2141.141141141141 1.9617421373999802
2151.151151151151 1.9538777652203607
2161.161161161161 1.9459207879156253
2171.1711711711714 1.9378753456129933
2181.1811811811813 1.9297454662886346
2191.191191191191 1.9215350688282788
2201.201201201201 1.9132479668179854
2211.2112112112113 1.9048878728160663
2221.221221221221 1.8964584028432876
2231.2312312312315 1.8879630808461536
2241.2412412412414 1.8794053429294866
2251.2512512512512 1.8707885412099168
2261.261261261261 1.8621159472013835
2271.271271271271 1.8533907546987967
2281.2812812812813 1.8446160821714124
2291.2912912912916 1.8357949747103786
2301.3013013013015 1.8269304055951776
2311.3113113113113 1.8180252775528964
2321.321321321321 1.8090824237846468
2331.331331331331 1.8001046088278414
2341.3413413413414 1.791094529313786
2351.3513513513512 1.7820548146692032
2361.3613613613616 1.7729880277993155
2371.3713713713714 1.76389666577998
2381.3813813813813 1.7547831605775555
2391.391391391391 1.7456498798080033
2401.4014014014015 1.7364991275410109
2411.4114114114113 1.7273331451507619
2421.4214214214217 1.718154112211938
2431.4314314314315 1.7089641474375459
2441.4414414414414 1.6997653096539325
2451.4514514514512 1.690559598807741
2461.4614614614616 1.681348956999333
2471.4714714714714 1.6721352695372835
2481.4814814814818 1.6629203660088645
2491.4914914914916 1.6537060213617887
2501.5015015015015 1.644493956992966
2511.5115115115113 1.6352858418404705
2521.521521521521 1.6260832934754013
2531.5315315315315 1.6168878791907406
2541.541541541542 1.6077011170847382
2551.5515515515517 1.5985244771366978
2561.5615615615616 1.5893593822733731
2571.5715715715714 1.5802072094244974
2581.5815815815813 1.5710692905661765
2591.5915915915916 1.561946913751134
2601.6016016016015 1.5528413241249628
2611.611611611612 1.5437537249277131
2621.6216216216217 1.5346852784802736
2631.6316316316315 1.5256371071551273
2641.6416416416414 1.5166102943311692
2651.6516516516517 1.5076058853323457
2661.6616616616616 1.4986248883499544
2671.671671671672 1.4896682753485029
2681.6816816816818 1.4807369829550892
2691.6916916916916 1.4718319133322797
2701.7017017017015 1.4629539350345346
2711.711711711712 1.4541038838482299
2721.7217217217217 1.4452825636153905
2731.731731731732 1.4364907470412043
2741.741741741742 1.4277291764855014
2751.7517517517517 1.418998564738298
2761.7617617617616 1.4102995957796043
2771.7717717717715 1.4016329255236457
2781.781781781782 1.3929991825476788
2791.791791791792 1.3843989688056217
2801.801801801802 1.3758328603266503
2811.811811811812 1.3673014078990005
2821.8218218218217 1.358805137739168
2831.8318318318316 1.3503445521467148
2841.841841841842 1.3419201301449026
2851.851851851852 1.3335323281073692
2861.861861861862 1.3251815803710563
2871.871871871872 1.3168682998356172
2881.881881881882 1.308592878549522
2891.8918918918916 1.3003556882830867
2901.901901901902 1.292157081088625
2911.911911911912 1.2839973898479746
2921.921921921922 1.27587692880759
2931.931931931932 1.2677959941014376
2941.941941941942 1.2597548642619039
2951.9519519519517 1.2517538007189362
2961.961961961962 1.2437930482876276
2971.971971971972 1.2358728356444666
2981.9819819819822 1.227993375792457
2991.991991991992 1.220154866515323
3002.002002002002 1.2123574908210053
3012.012012012012 1.2046014173746562
3022.0220220220217 1.1968868009213387
3032.032032032032 1.1892148599862404
3042.0420420420423 1.1815834308429896
3052.052052052052 1.1739938064771749
3062.062062062062 1.1664461004324085
3072.072072072072 1.1589404128238503
3082.0820820820823 1.1514768308615893
3092.092092092092 1.1440554293504603
3102.102102102102 1.1366762711677105
3112.1121121121123 1.129339407719838
3122.122122122122 1.1220448793798288
3132.132132132132 1.1147927159059372
3142.1421421421423 1.1075829368430536
3152.152152152152 1.1004155519076675
3162.162162162162 1.0932905613573172
3172.1721721721724 1.086207956345401
3182.1821821821823 1.0791677192621332
3192.192192192192 1.072169824062381
3202.202202202202 1.0652142365810764
3212.2122122122123 1.058300914836852
3222.222222222222 1.0514298093244885
3232.232232232232 1.0446008632967325
3242.2422422422424 1.0378140130360263
3252.252252252252 1.031069188116609
3262.262262262262 1.0243663116574713
3272.2722722722724 1.017705300566571
3282.2822822822823 1.011086065776726
3292.292292292292 1.0045085124735447
3302.3023023023025 0.9979725403157508
3312.3123123123123 0.9914780436482399
3322.322322322322 0.9850249117081581
3332.3323323323325 0.9786130288243154
3342.3423423423424 0.9722422746101916
3352.352352352352 0.9659125241507945
3362.3623623623625 0.959623648183623
3372.3723723723724 0.9533755132739524
3382.3823823823823 0.9471679819846575
3392.3923923923926 0.9410009130407929
3402.4024024024025 0.9348741614891027
3412.4124124124123 0.9287875788526547
3422.4224224224226 0.9227410132807695
3432.4324324324325 0.9167343096944124
3442.4424424424424 0.9107673099271918
3452.4524524524522 0.9048398528621255
3462.4624624624626 0.8989517745643096
3472.4724724724724 0.8931029084096266
3482.4824824824823 0.887293085209614
3492.4924924924926 0.8815221333326236
3502.5025025025025 0.8757898788213845
3512.5125125125123 0.8700961455070813
3522.5225225225226 0.8644407551200503
3532.5325325325325 0.8588235273972034
3542.5425425425424 0.8532442801862726
3552.5525525525527 0.8477028295469654
3562.5625625625626 0.8421989898491341
3572.5725725725724 0.8367325738680254
3582.5825825825827 0.8313033928767146
3592.5925925925926 0.8259112567357905
3602.6026026026025 0.8205559739803733
3612.612612612613 0.8152373519045417
3622.6226226226227 0.8099551966432369
3632.6326326326325 0.8047093132517112
3642.642642642643 0.7994995057826023
3652.6526526526527 0.794325577360679
3662.6626626626626 0.7891873302553283
3672.672672672673 0.7840845659508577
3682.6826826826828 0.7790170852146471
3692.6926926926926 0.7739846881632289
3702.7027027027025 0.7689871743263397
3712.712712712713 0.7640243427089978
3722.7227227227227 0.7590959918516702
3732.7327327327325 0.7542019198885597
3742.742742742743 0.7493419246040813
3752.7527527527527 0.7445158034875623
3762.7627627627626 0.7397233537862151
3772.772772772773 0.7349643725564367
3782.7827827827828 0.7302386567134647
3792.7927927927926 0.7255460030794404
3802.802802802803 0.7208862084299263
3812.812812812813 0.716259069538904
3822.8228228228227 0.7116643832223039
3832.832832832833 0.7071019463800994
3842.842842842843 0.7025715560370078
3852.8528528528527 0.6980730093818285
3862.862862862863 0.6936061038054576
3872.872872872873 0.689170636937615
3882.8828828828828 0.6847664066823084
3892.892892892893 0.6803932112520872
3902.902902902903 0.6760508492010945
3912.912912912913 0.6717391194569623
3922.922922922923 0.6674578213515825
3932.932932932933 0.6632067546507738
3942.942942942943 0.6589857195828815
3952.9529529529527 0.6547945168663333
3962.962962962963 0.6506329477361847
3972.972972972973 0.646500813969676
3982.982982982983 0.6423979179108288
3992.992992992993 0.6383240624941046
4003.003003003003 0.6342790512671631
4013.013013013013 0.6302626884127255
4023.023023023023 0.6262747787695817
4033.033033033033 0.6223151278527598
4043.043043043043 0.6183835418728784
4053.053053053053 0.6144798277547088
4063.063063063063 0.610603793154964
4073.073073073073 0.6067552464793389
4083.0830830830832 0.602933996898821
4093.093093093093 0.599139854365292
4103.103103103103 0.5953726296264404
4113.113113113113 0.5916321342400043
4123.123123123123 0.587918180587359
4133.133133133133 0.5842305818864792
4143.143143143143 0.5805691522042753
4153.153153153153 0.5769337064683445
4163.163163163163 0.5733240604781263
4173.173173173173 0.5697400309155075
4183.183183183183 0.5661814353548686
4193.193193193193 0.5626480922726042
4203.203203203203 0.5591398210561205
4213.213213213214 0.5556564420123372
4223.223223223224 0.5521977763756968
4233.2332332332335 0.5487636463157014
4243.243243243243 0.5453538749439931
4253.253253253253 0.5419682863209834
4263.263263263263 0.5386067054620555
4273.273273273273 0.5352689583433432
4283.283283283283 0.5319548719071037
4293.293293293293 0.5286642740666947
4303.303303303303 0.525396993711171
4313.313313313313 0.5221528607095081
4323.323323323323 0.5189317059144626
4333.333333333334 0.5157333611660908
4343.343343343344 0.5125576592949238
4353.353353353354 0.5094044341248155
4363.3633633633635 0.5062735204754745
4373.373373373373 0.5031647541646896
4383.383383383383 0.5000779720102541
4393.393393393393 0.4970130118316051
4403.403403403403 0.49396971245118343
4413.413413413413 0.4909479136955201
4423.423423423424 0.4879474563960677
4433.4334334334335 0.48496818238977296
4443.443443443443 0.4820099345194084
4453.453453453454 0.47907255663366505
4463.463463463464 0.4761558935870228
4473.473473473474 0.47325979123938955
4483.483483483484 0.4703840964555379
4493.493493493494 0.4675286571043273
4503.503503503503 0.4646933220577328
4513.513513513513 0.4618779411896798
4523.523523523523 0.4590823653746905
4533.533533533533 0.45630644648635804
4543.543543543543 0.45355003739564115
4553.553553553554 0.450812991968997
4563.563563563564 0.44809516506635233
4573.573573573573 0.4453964125389193
4583.583583583584 0.4427165912268633
4593.593593593594 0.4400555589568286
4603.603603603604 0.4374131745393232
4613.613613613614 0.43478929776597464
4623.623623623624 0.4321837894066554
4633.6336336336335 0.42959651120648584
4643.643643643643 0.427027325882723
4653.653653653653 0.42447609712153095
4663.663663663663 0.4219426895746466
4673.673673673674 0.4194269688559391
4683.683683683684 0.4169288015378716
4693.693693693694 0.41444805514786504
4703.703703703704 0.4119845981645713
4713.713713713714 0.4095383000140601
4723.723723723724 0.4071090310659202
4733.733733733734 0.40469666262928017
4743.743743743744 0.40230106694875584
4753.753753753754 0.39992211720032095
4763.763763763764 0.3975596874871118
4773.773773773773 0.39521365283516147
4783.783783783783 0.3928838891890765
4793.793793793793 0.3905702734076493
4803.803803803804 0.38827268325941516
4813.813813813814 0.38599099741815607
4823.823823823824 0.383725095458353
4833.833833833834 0.38147485785058916
4843.843843843844 0.3792401659569101
4853.853853853854 0.3770209020261376
4863.863863863864 0.37481694918914576
4873.873873873874 0.3726281914540984
4883.883883883884 0.3704545137016502
4893.893893893894 0.3682958016801159
4903.9039039039035 0.36615194200060763
4913.913913913913 0.3640228221321433
4923.923923923924 0.3619083303967288
4933.933933933934 0.359808355964416
4943.943943943944 0.3577227888483362
4953.953953953955 0.3556515198997146
4963.9639639639645 0.35359444080286606
4973.973973973974 0.35155144407017147
4983.983983983984 0.3495224230370417
4993.993993993994 0.3475072718568652
5004.004004004004 0.34550588549594513
5014.014014014014 0.34351815972842686
5024.024024024024 0.34154399113121237
5034.0340340340335 0.33958327707887354
5044.044044044043 0.33763591573855345
5054.054054054054 0.33570180606486644
5064.064064064064 0.33378084779479433
5074.074074074074 0.33187294144257956
5084.084084084085 0.3299779882946177
5094.0940940940945 0.3280958904043527
5104.104104104104 0.3262265505871702
5114.114114114114 0.3243698724152957
5124.124124124124 0.3225257602126964
5134.134134134134 0.320694119049988
5144.144144144144 0.31887485473934557
5154.154154154154 0.3170678738294239
5164.1641641641645 0.31527308360028417
5174.174174174174 0.3134903920583291
5184.184184184184 0.3117197079312488
5194.194194194194 0.30996094066297486
5204.204204204204 0.308214000408649
5214.214214214214 0.30647879802960054
5224.224224224225 0.30475524508833823
5234.2342342342345 0.30304325384355585
5244.244244244244 0.30134273724514987
5254.254254254254 0.2996536089292554
5264.264264264264 0.2979757832132933
5274.274274274274 0.2963091750910384
5284.284284284285 0.2946537002276995
5294.294294294295 0.2930092749550205
5304.304304304304 0.29137581626639597
5314.314314314314 0.28975324181200884
5324.324324324324 0.2881414698939828
5334.334334334334 0.28654041946155806
5344.344344344345 0.28495001010628246
5354.354354354355 0.2833701620572277
5364.3643643643645 0.28180079617622145
5374.374374374374 0.28024183395310426
5384.384384384384 0.27869319750100496
5394.394394394394 0.2771548095516401
5404.404404404404 0.27562659345063384
5414.414414414415 0.27410847315286097
5424.424424424425 0.2726003732178131
5434.4344344344345 0.27110221880498653
5444.444444444444 0.2696139356692945
5454.454454454454 0.26813545015650314
5464.464464464464 0.2666666891986903
5474.474474474475 0.2652075803097297
5484.484484484485 0.2637580515807976
5494.494494494495 0.2623180316759057
5504.504504504504 0.26088744982745815
5514.514514514514 0.25946623583183204
5524.524524524524 0.2580543200449859
5534.534534534535 0.2566516333780903
5544.544544544545 0.2552581072931858
5554.554554554555 0.25387367379886494
5564.5645645645645 0.25249826544598186
5574.574574574574 0.251131815323385
5584.584584584584 0.2497742570536781
5594.594594594595 0.24842552478900462
5604.604604604605 0.24708555320686162
5614.614614614615 0.24575427750593581
5624.624624624625 0.2444316334019679
5634.6346346346345 0.2431175571236442
5644.644644644644 0.241811985408511
5654.654654654654 0.2405148554989199
5664.664664664665 0.23922610513799417
5674.674674674675 0.23794567256562701
5684.684684684685 0.2366734965145018
5694.694694694695 0.23540951620614098
5704.704704704704 0.23415367134698048
5714.714714714714 0.23290590212447168
5724.724724724725 0.23166614920320833
5734.734734734735 0.23043435372108104
5744.744744744745 0.2292104572854572
5754.754754754755 0.22799440196938808
5764.764764764765 0.2267861303078418
5774.774774774774 0.2255855852939631
5784.784784784785 0.2243927103753585
5794.794794794795 0.22320744945040835
5804.804804804805 0.22202974686460542
5814.814814814815 0.2208595474069183
5824.824824824825 0.21969679630618236
5834.8348348348345 0.21854143922751534
5844.844844844845 0.2173934222687605
5854.854854854855 0.2162526919569539
5864.864864864865 0.21511919524481865
5874.874874874875 0.21399287950728457
5884.884884884885 0.21287369253803337
5894.894894894895 0.21176158254606942
5904.9049049049045 0.21065649815231613
5914.914914914915 0.20955838838623758
5924.924924924925 0.208467202682486
5934.934934934935 0.2073828908775729
5944.944944944945 0.2063054032065676
5954.954954954955 0.20523469029981858
5964.964964964965 0.2041707031797012
5974.974974974975 0.2031133932573894
5984.984984984985 0.20206271232965273
5994.994994994995 0.20101861257567738
6005.005005005005 0.19998104655391177
6015.015015015015 0.1989499671989368
6025.025025025025 0.1979253278183605
6035.035035035035 0.1969070820897357
6045.045045045045 0.1958951840575035
6055.055055055055 0.1948895881299587
6065.065065065065 0.19389024907624028
6075.075075075075 0.19289712202334527
6085.085085085085 0.1919101624531656
6095.0950950950955 0.19092932619954917
6105.105105105105 0.18995456944538372
6115.115115115115 0.18898584871970356
6125.125125125125 0.18802312089481962
6135.135135135135 0.18706634318347307
6145.145145145145 0.1861154731360098
6155.155155155155 0.18517046863757983
6165.1651651651655 0.18423128790535725
6175.175175175175 0.183297889485784
6185.185185185185 0.1823702322518344
6195.195195195195 0.18144827540030345
6205.205205205205 0.1805319784491154
6215.215215215215 0.17962130123465508
6225.225225225226 0.17871620390912127
6235.235235235235 0.1778166469378998
6245.245245245245 0.17692259109696074
6255.255255255255 0.1760339974702745
6265.265265265265 0.17515082744725
6275.275275275275 0.17427304272019398
6285.285285285286 0.17340060528179094
6295.295295295296 0.17253347742260375
6305.305305305305 0.17167162172859457
6315.315315315315 0.1708150010786671
6325.325325325325 0.1699635786422278
6335.335335335335 0.16911731787676867
6345.345345345346 0.16827618252546858
