#lamb flux
1000.0 1.7042465215033117e+40
1010.01001001001 1.7807724546315795e+40
1020.0200200200201 1.8582276621782896e+40
1030.03003003003 1.9365247521231264e+40
1040.0400400400401 2.0155761365063762e+40
1050.05005005005 2.09529430173621e+40
1060.06006006006 2.1755920637123252e+40
1070.07007007007 2.256382807496012e+40
1080.08008008008 2.337580711386572e+40
1090.0900900900901 2.419100955380751e+40
1100.1001001001 2.5008599140961733e+40
1110.11011011011 2.5827753343324867e+40
1120.1201201201202 2.66476649752505e+40
1130.13013013013 2.7467543674166967e+40
1140.1401401401401 2.8286617233337e+40
1150.1501501501502 2.910413279503324e+40
1160.16016016016 2.9919357908930862e+40
1170.1701701701702 3.073158146086438e+40
1180.1801801801803 3.154011447737134e+40
1190.1901901901902 3.2344290811651045e+40
1200.2002002002002 3.3143467716716553e+40
1210.2102102102103 3.3937026311609157e+40
1220.2202202202202 3.4724371946590674e+40
1230.2302302302303 3.550493447323118e+40
1240.2402402402402 3.627816842527211e+40
1250.2502502502502 3.7043552463125094e+40
1260.2602602602603 3.7800588681070335e+40
1270.2702702702702 3.854880216941049e+40
1280.2802802802803 3.928774622619745e+40
1290.2902902902902 4.00169986161892e+40
1300.3003003003003 4.07361613339574e+40
1310.3103103103103 4.1444860315587785e+40
1320.3203203203202 4.214274510370881e+40
1330.3303303303303 4.2829488470383993e+40
1340.3403403403404 4.350478600219451e+40
1350.3503503503503 4.416835565163187e+40
1360.3603603603603 4.481993725870853e+40
1370.3703703703704 4.545929204648539e+40
1380.3803803803803 4.608620209400734e+40
1390.3903903903904 4.67004697899336e+40
1400.4004004004005 4.730191726994598e+40
1410.4104104104103 4.7890385840824745e+40
1420.4204204204204 4.846573539388782e+40
1430.4304304304305 4.902784381030312e+40
1440.4404404404404 4.957660636060658e+40
1450.4504504504505 5.0111935100582025e+40
1460.4604604604606 5.063375826549517e+40
1470.4704704704704 5.114201966451306e+40
1480.4804804804805 5.163667807698872e+40
1490.4904904904906 5.211770665214524e+40
1500.5005005005005 5.258509231355411e+40
1510.5105105105106 5.303883516967443e+40
1520.5205205205207 5.347894793159195e+40
1530.5305305305305 5.390545533898204e+40
1540.5405405405404 5.431839359520986e+40
1550.5505505505505 5.471780981237548e+40
1560.5605605605606 5.51037614670164e+40
1570.5705705705705 5.547631586708723e+40
1580.5805805805805 5.583554963075047e+40
1590.5905905905906 5.618154817743504e+40
1600.6006006006005 5.651440523154195e+40
1610.6106106106106 5.683422233911086e+40
1620.6206206206207 5.714110839769546e+40
1630.6306306306305 5.743517919963919e+40
1640.6406406406406 5.77165569888856e+40
1650.6506506506507 5.798537003141203e+40
1660.6606606606606 5.824175219932676e+40
1670.6706706706707 5.848584256863057e+40
1680.6806806806808 5.871778503060422e+40
1690.6906906906906 5.893772791675326e+40
1700.7007007007007 5.914582369105088e+40
1710.7107107107108 5.934222871336802e+40
1720.7207207207207 5.952710250161045e+40
1730.7307307307308 5.970060761885547e+40
1740.7407407407409 5.986290939425492e+40
1750.7507507507507 6.001417562634534e+40
1760.7607607607606 6.015457629875516e+40
1770.770770770771 6.028428330808955e+40
1780.7807807807808 6.040347020376722e+40
1790.7907907907907 6.051231193958263e+40
1800.8008008008007 6.061098463676882e+40
1810.8108108108108 6.069966535834034e+40
1820.8208208208207 6.0778531894506635e+40
1830.8308308308308 6.08477625589564e+40
1840.8408408408409 6.090753599583031e+40
1850.8508508508507 6.095803099721959e+40
1860.8608608608608 6.09994263310482e+40
1870.870870870871 6.103190057922324e+40
1880.8808808808808 6.105563198596225e+40
1890.890890890891 6.107079831623034e+40
1900.900900900901 6.107757672424208e+40
1910.9109109109108 6.107614363199273e+40
1920.920920920921 6.106667461778328e+40
1930.930930930931 6.104934431467878e+40
1940.940940940941 6.102432631878672e+40
1950.950950950951 6.099179310714462e+40
1960.960960960961 6.095191596485889e+40
1970.970970970971 6.090486492092247e+40
1980.980980980981 6.085080869185438e+40
1990.9909909909911 6.078991463194236e+40
2001.001001001001 6.072234868844423e+40
2011.0110110110109 6.06482753596288e+40
2021.0210210210212 6.056785765307014e+40
2031.031031031031 6.048125704119995e+40
2041.0410410410411 6.038863341087681e+40
2051.051051051051 6.0290145003744185e+40
2061.061061061061 6.01859483445315e+40
2071.071071071071 6.007619815529294e+40
2081.081081081081 5.996104725490474e+40
2091.091091091091 5.984064644491158e+40
2101.101101101101 5.971514438486817e+40
2111.1111111111113 5.958468746241255e+40
2121.121121121121 5.944941966509126e+40
2131.131131131131 5.930948246208527e+40
2141.141141141141 5.916501470416699e+40
2151.151151151151 5.901615254929604e+40
2161.161161161161 5.886302941929488e+40
2171.1711711711714 5.870577599028291e+40
2181.1811811811813 5.854452021642036e+40
2191.191191191191 5.837938738350588e+40
2201.201201201201 5.8210500186545115e+40
2211.2112112112113 5.80379788238749e+40
2221.221221221221 5.786194109991413e+40
2231.2312312312315 5.768250252906022e+40
2241.2412412412414 5.749977643443414e+40
2251.2512512512512 5.731387403680814e+40
2261.261261261261 5.712490453083116e+40
2271.271271271271 5.693297514733158e+40
2281.2812812812813 5.673819120187155e+40
2291.2912912912916 5.654065613074589e+40
2301.3013013013015 5.634047151626816e+40
2311.3113113113113 5.613773710349127e+40
2321.321321321321 5.593255081055372e+40
2331.331331331331 5.57250087346921e+40
2341.3413413413414 5.55152051556999e+40
2351.3513513513512 5.530323253829472e+40
2361.3613613613616 5.508918153453182e+40
2371.3713713713714 5.487314098709896e+40
2381.3813813813813 5.465519793406016e+40
2391.391391391391 5.443543761540044e+40
2401.4014014014015 5.421394348154733e+40
2411.4114114114113 5.399079720391626e+40
2421.4214214214217 5.376607868743352e+40
2431.4314314314315 5.353986608492702e+40
2441.4414414414414 5.331223581323512e+40
2451.4514514514512 5.308326257086452e+40
2461.4614614614616 5.285301935701825e+40
2471.4714714714714 5.262157749181757e+40
2481.4814814814818 5.238900663754851e+40
2491.4914914914916 5.215537482077449e+40
2501.5015015015015 5.192074845517122e+40
2511.5115115115113 5.168519236495165e+40
2521.521521521521 5.144876980876516e+40
2531.5315315315315 5.121154250396663e+40
2541.541541541542 5.097357065116463e+40
2551.5515515515517 5.073491295896868e+40
2561.5615615615616 5.049562666886582e+40
2571.5715715715714 5.025576758016614e+40
2581.5815815815813 5.001539007496461e+40
2591.5915915915916 4.977454714307364e+40
2601.6016016016015 4.95332904068869e+40
2611.611611611612 4.929167014614009e+40
2621.6216216216217 4.904973532253966e+40
2631.6316316316315 4.8807533604233165e+40
2641.6416416416414 4.856511139009976e+40
2651.6516516516517 4.832251383384124e+40
2661.6616616616616 4.807978486785746e+40
2671.671671671672 4.783696722689137e+40
2681.6816816816818 4.759410247143155e+40
2691.6916916916916 4.735123101086149e+40
2701.7017017017015 4.710839212634637e+40
2711.711711711712 4.68656239934493e+40
2721.7217217217217 4.662296370447062e+40
2731.731731731732 4.638044729050369e+40
2741.741741741742 4.613810974320327e+40
2751.7517517517517 4.589598503626157e+40
2761.7617617617616 4.565410614658909e+40
2771.7717717717715 4.541250507519718e+40
2781.781781781782 4.517121286778022e+40
2791.791791791792 4.493025963499604e+40
2801.801801801802 4.468967457244292e+40
2811.811811811812 4.444948598033254e+40
2821.8218218218217 4.420972128285887e+40
2831.8318318318316 4.397040704726232e+40
2841.841841841842 4.373156900259001e+40
2851.851851851852 4.3493232058152503e+40
2861.861861861862 4.325542032167784e+40
2871.871871871872 4.3018157117163893e+40
2881.881881881882 4.2781465002430804e+40
2891.8918918918916 4.254536578637465e+40
2901.901901901902 4.230988054592415e+40
2911.911911911912 4.2075029642702574e+40
2921.921921921922 4.1840832739396534e+40
2931.931931931932 4.1607308815834633e+40
2941.941941941942 4.1374476184777374e+40
2951.9519519519517 4.114235250742176e+40
2961.961961961962 4.0910954808622625e+40
2971.971971971972 4.06802994918337e+40
2981.9819819819822 4.045040235377135e+40
2991.991991991992 4.0221278598803566e+40
3002.002002002002 3.9992942853067494e+40
3012.012012012012 3.9765409178318653e+40
3022.0220220220217 3.9538691085514617e+40
3032.032032032032 3.931283716090447e+40
3042.0420420420423 3.908778411137368e+40
3052.052052052052 3.8863582772279773e+40
3062.062062062062 3.8640244925773946e+40
3072.072072072072 3.841778181936516e+40
3082.0820820820823 3.819620418305067e+40
3092.092092092092 3.7975522245743643e+40
3102.102102102102 3.775574575103923e+40
3112.1121121121123 3.7536883972357926e+40
3122.122122122122 3.7318945727502247e+40
3132.132132132132 3.7101939392660007e+40
3142.1421421421423 3.688587291588527e+40
3152.152152152152 3.6670753830085783e+40
3162.162162162162 3.645658926554404e+40
3172.1721721721724 3.6243385961996238e+40
3182.1821821821823 3.603115028029335e+40
3192.192192192192 3.5819888213665054e+40
3202.202202202202 3.560960539860688e+40
3212.2122122122123 3.5400307125410026e+40
3222.222222222222 3.5191998348350185e+40
3232.232232232232 3.498468369555264e+40
3242.2422422422424 3.4778367478548456e+40
3252.252252252252 3.4573053701536095e+40
3262.262262262262 3.436874607036162e+40
3272.2722722722724 3.416544800123011e+40
3282.2822822822823 3.396316262915981e+40
3292.292292292292 3.376189281618984e+40
3302.3023023023025 3.3561641159351834e+40
3312.3123123123123 3.33624099984149e+40
3322.322322322322 3.3164201423413003e+40
3332.3323323323325 3.2967017281963184e+40
3342.3423423423424 3.2770859186382483e+40
3352.352352352352 3.2575728520611076e+40
3362.3623623623625 3.238162644694875e+40
3372.3723723723724 3.21885539126112e+40
3382.3823823823823 3.1996511656112234e+40
3392.3923923923926 3.1805500213478546e+40
3402.4024024024025 3.161551992430162e+40
3412.4124124124123 3.142657093763272e+40
3422.4224224224226 3.1238653217726e+40
3432.4324324324325 3.1051766549634074e+40
3442.4424424424424 3.0865910544660993e+40
3452.4524524524522 3.0681084645676593e+40
3462.4624624624626 3.049728813229669e+40
3472.4724724724724 3.0314520125932583e+40
3482.4824824824823 3.0132779594713923e+40
3492.4924924924926 2.9952065358288406e+40
3502.5025025025025 2.977237609250163e+40
3512.5125125125123 2.9593710333960467e+40
3522.5225225225226 2.9416066484482977e+40
3532.5325325325325 2.923944281543802e+40
3542.5425425425424 2.90638374719772e+40
3552.5525525525527 2.8889248477162095e+40
3562.5625625625626 2.871567373598954e+40
3572.5725725725724 2.854311103931708e+40
3582.5825825825827 2.8371558067691644e+40
3592.5925925925926 2.820101239508334e+40
3602.6026026026025 2.8031471492527014e+40
3612.612612612613 2.7862932731673724e+40
3622.6226226226227 2.7695393388254033e+40
3632.6326326326325 2.7528850645455534e+40
3642.642642642643 2.7363301597216663e+40
3652.6526526526527 2.7198743251438464e+40
3662.6626626626626 2.703517253311625e+40
3672.672672672673 2.687258628739355e+40
3682.6826826826828 2.671098128253926e+40
3692.6926926926926 2.6550354212850636e+40
3702.7027027027025 2.6390701701483153e+40
3712.712712712713 2.6232020303209175e+40
3722.7227227227227 2.6074306507107373e+40
3732.7327327327325 2.591755673918358e+40
3742.742742742743 2.576176736492573e+40
3752.7527527527527 2.560693469179347e+40
3762.7627627627626 2.5453054971644345e+40
3772.772772772773 2.530012440309806e+40
3782.7827827827828 2.5148139133839877e+40
3792.7927927927926 2.499709526286471e+40
3802.802802802803 2.484698884266336e+40
3812.812812812813 2.4697815881351997e+40
3822.8228228228227 2.4549572344746106e+40
3832.832832832833 2.440225415838045e+40
3842.842842842843 2.4255857209475993e+40
3852.8528528528527 2.4110377348855026e+40
3862.862862862863 2.396581039280572e+40
3872.872872872873 2.382215212489732e+40
3882.8828828828828 2.367939829774664e+40
3892.892892892893 2.353754463473786e+40
3902.902902902903 2.339658683169558e+40
3912.912912912913 2.325652055851306e+40
3922.922922922923 2.3117341460736184e+40
3932.932932932933 2.2979045161104424e+40
3942.942942942943 2.2841627261049557e+40
3952.9529529529527 2.270508334215314e+40
3962.962962962963 2.2569408967564013e+40
3972.972972972973 2.243459968337612e+40
3982.982982982983 2.230065101996828e+40
3992.992992992993 2.216755849330596e+40
4003.003003003003 2.203531760620692e+40
4013.013013013013 2.190392384957055e+40
4023.023023023023 2.1773372703572494e+40
4033.033033033033 2.164365963882501e+40
4043.043043043043 2.1514780117503853e+40
4053.053053053053 2.1386729594442674e+40
4063.063063063063 2.1259503518195497e+40
4073.073073073073 2.113309733206806e+40
4083.0830830830832 2.1007506475118882e+40
4093.093093093093 2.0882726383130533e+40
4103.103103103103 2.075875248955206e+40
4113.113113113113 2.0635580226413127e+40
4123.123123123123 2.0513205025210397e+40
4133.133133133133 2.039162231776719e+40
4143.143143143143 2.0270827537066688e+40
4153.153153153153 2.0150816118059557e+40
4163.163163163163 2.0031583498446397e+40
4173.173173173173 1.9913125119435868e+40
4183.183183183183 1.9795436426478847e+40
4193.193193193193 1.9678512869979382e+40
4203.203203203203 1.9562349905982805e+40
4213.213213213214 1.9446942996841856e+40
4223.223223223224 1.933228761186103e+40
4233.2332332332335 1.9218379227919888e+40
4243.243243243243 1.9105213330075764e+40
4253.253253253253 1.8992785412146425e+40
4263.263263263263 1.888109097727318e+40
4273.273273273273 1.8770125538464815e+40
4283.283283283283 1.8659884619122968e+40
4293.293293293293 1.85503637535494e+40
4303.303303303303 1.8441558487435472e+40
4313.313313313313 1.8333464378334417e+40
4323.323323323323 1.8226076996116803e+40
4333.333333333334 1.8119391923409567e+40
4343.343343343344 1.801340475601912e+40
4353.353353353354 1.7908111103338813e+40
4363.3633633633635 1.7803506588741282e+40
4373.373373373373 1.7699586849955996e+40
4383.383383383383 1.7596347539432323e+40
4393.393393393393 1.7493784324688692e+40
4403.403403403403 1.7391892888647997e+40
4413.413413413413 1.7290668929959622e+40
4423.423423423424 1.7190108163308606e+40
4433.4334334334335 1.709020631971213e+40
4443.443443443443 1.6990959146803624e+40
4453.453453453454 1.6892362409104995e+40
4463.463463463464 1.6794411888287202e+40
4473.473473473474 1.6697103383419272e+40
4483.483483483484 1.6600432711206516e+40
4493.493493493494 1.650439570621782e+40
4503.503503503503 1.6408988221102478e+40
4513.513513513513 1.6314206126796952e+40
4523.523523523523 1.6220045312721467e+40
4533.533533533533 1.612650168696722e+40
4543.543543543543 1.603357117647403e+40
4553.553553553554 1.5941249727198906e+40
4563.563563563564 1.5849533304275721e+40
4573.573573573573 1.5758417892166228e+40
4583.583583583584 1.5667899494802721e+40
4593.593593593594 1.55779741357225e+40
4603.603603603604 1.5488637858194308e+40
4613.613613613614 1.539988672533725e+40
4623.623623623624 1.531171682023193e+40
4633.6336336336335 1.522412424602454e+40
4643.643643643643 1.5137105126023752e+40
4653.653653653653 1.5050655603790688e+40
4663.663663663663 1.4964771843222267e+40
4673.673673673674 1.4879450028627976e+40
4683.683683683684 1.4794686364800461e+40
4693.693693693694 1.4710477077079828e+40
4703.703703703704 1.4626818411412085e+40
4713.713713713714 1.4543706634401813e+40
4723.723723723724 1.4461138033359165e+40
4733.733733733734 1.4379108916341452e+40
4743.743743743744 1.4297615612189497e+40
4753.753753753754 1.4216654470558774e+40
4763.763763763764 1.4136221861945662e+40
4773.773773773773 1.4056314177708765e+40
4783.783783783783 1.397692783008573e+40
4793.793793793793 1.389805925220537e+40
4803.803803803804 1.3819704898095434e+40
4813.813813813814 1.37418612426862e+40
4823.823823823824 1.3664524781809854e+40
4833.833833833834 1.3587692032195893e+40
4843.843843843844 1.3511359531462699e+40
4853.853853853854 1.3435523838105284e+40
4863.863863863864 1.3360181531479505e+40
4873.873873873874 1.3285329211782676e+40
4883.883883883884 1.3210963500030851e+40
4893.893893893894 1.3137081038032776e+40
4903.9039039039035 1.3063678488360697e+40
4913.913913913913 1.2990752534318036e+40
4923.923923923924 1.2918299879904161e+40
4933.933933933934 1.2846317249776276e+40
4943.943943943944 1.277480138920844e+40
4953.953953953955 1.2703749064048062e+40
4963.9639639639645 1.2633157060669706e+40
4973.973973973974 1.2563022185926395e+40
4983.983983983984 1.2493341267098567e+40
4993.993993993994 1.2424111151840658e+40
5004.004004004004 1.2355328708125465e+40
5014.014014014014 1.2286990824186353e+40
5024.024024024024 1.2219094408457338e+40
5034.0340340340335 1.2151636389511268e+40
5044.044044044043 1.2084613715995957e+40
5054.054054054054 1.2018023356568522e+40
5064.064064064064 1.1951862299827987e+40
5074.074074074074 1.1886127554246052e+40
5084.084084084085 1.1820816148096292e+40
5094.0940940940945 1.1755925129381816e+40
5104.104104104104 1.1691451565761287e+40
5114.114114114114 1.162739254447359e+40
5124.124124124124 1.1563745172261074e+40
5134.134134134134 1.1500506575291435e+40
5144.144144144144 1.1437673899078333e+40
5154.154154154154 1.1375244308400827e+40
5164.1641641641645 1.131321498722156e+40
5174.174174174174 1.1251583138603925e+40
5184.184184184184 1.119034598462806e+40
5194.194194194194 1.1129500766305906e+40
5204.204204204204 1.1069044743495294e+40
5214.214214214214 1.1008975194813077e+40
5224.224224224225 1.094928941754739e+40
5234.2342342342345 1.0889984727569153e+40
5244.244244244244 1.0831058459242668e+40
5254.254254254254 1.0772507965335595e+40
5264.264264264264 1.0714330616928127e+40
5274.274274274274 1.06565238033216e+40
5284.284284284285 1.0599084931946374e+40
5294.294294294295 1.0542011428269242e+40
5304.304304304304 1.0485300735700173e+40
5314.314314314314 1.0428950315498654e+40
5324.324324324324 1.0372957646679461e+40
5334.334334334334 1.0317320225918064e+40
5344.344344344345 1.0262035567455538e+40
5354.354354354355 1.0207101203003185e+40
5364.3643643643645 1.0152514681646711e+40
5374.374374374374 1.0098273569750182e+40
5384.384384384384 1.0044375450859585e+40
5394.394394394394 9.990817925606233e+39
5404.404404404404 9.937598611609829e+39
5414.414414414415 9.884715143381408e+39
5424.424424424425 9.832165172226074e+39
5434.4344344344345 9.779946366145512e+39
5444.444444444444 9.728056409740457e+39
5454.454454454454 9.676493004113019e+39
5464.464464464464 9.625253866768894e+39
5474.474474474475 9.574336731519547e+39
5484.484484484485 9.523739348384324e+39
5494.494494494495 9.473459483492564e+39
5504.504504504504 9.423494918985671e+39
5514.514514514514 9.373843452919226e+39
5524.524524524524 9.324502899165153e+39
5534.534534534535 9.27547108731389e+39
5544.544544544545 9.226745862576683e+39
5554.554554554555 9.178325085687883e+39
5564.5645645645645 9.130206632807466e+39
5574.574574574574 9.082388395423569e+39
5584.584584584584 9.034868280255218e+39
5594.594594594595 8.987644209155149e+39
5604.604604604605 8.940714119012905e+39
5614.614614614615 8.894075961657965e+39
5624.624624624625 8.847727703763164e+39
5634.6346346346345 8.801667326748308e+39
5644.644644644644 8.755892826683954e+39
5654.654654654654 8.710402214195485e+39
5664.664664664665 8.665193514367361e+39
5674.674674674675 8.620264766647687e+39
5684.684684684685 8.575614024752986e+39
5694.694694694695 8.531239356573286e+39
5704.704704704704 8.487138844077457e+39
5714.714714714714 8.443310583218882e+39
5724.724724724725 8.399752683841387e+39
5734.734734734735 8.35646326958551e+39
5744.744744744745 8.313440477795089e+39
5754.754754754755 8.270682459424145e+39
5764.764764764765 8.228187378944151e+39
5774.774774774774 8.18595341425162e+39
5784.784784784785 8.143978756576029e+39
5794.794794794795 8.102261610388131e+39
5804.804804804805 8.06080019330861e+39
5814.814814814815 8.019592736017118e+39
5824.824824824825 7.97863748216169e+39
5834.8348348348345 7.937932688268513e+39
5844.844844844845 7.897476623652156e+39
5854.854854854855 7.857267570326112e+39
5864.864864864865 7.817303822913785e+39
5874.874874874875 7.777583688559876e+39
5884.884884884885 7.738105486842172e+39
5894.894894894895 7.698867549683746e+39
