#lamb flux
1000.0 0.058929729175362315
1010.01001001001 0.06014339685110826
1020.0200200200201 0.06124339528346875
1030.03003003003 0.06223387807177169
1040.0400400400401 0.06311945652820534
1050.05005005005 0.06390507722741151
1060.06006006006 0.064595914710041
1070.07007007007 0.06519727870546713
1080.08008008008 0.06571453498433291
1090.0900900900901 0.0661530387897545
1100.1001001001 0.06651807970774817
1110.11011011011 0.06681483680609958
1120.1201201201202 0.06704834288220914
1130.13013013013 0.0672234567025819
1140.1401401401401 0.06734484217991726
1150.1501501501502 0.0674169535104903
1160.16016016016 0.06744402537869598
1170.1701701701702 0.06743006742266908
1180.1801801801803 0.06737886224142392
1190.1901901901902 0.06729396630754692
1200.2002002002002 0.06717871322850337
1210.2102102102103 0.06703621887303224
1220.2202202202202 0.06686938794634308
1230.2302302302303 0.06668092165867437
1240.2402402402402 0.0664733261862595
1250.2502502502502 0.06624583891211253
1260.2602602602603 0.0659915181934705
1270.2702702702702 0.0656962329984917
1280.2802802802803 0.06536295553837884
1290.2902902902902 0.06499453654323993
1300.3003003003003 0.06459370292691935
1310.3103103103103 0.06416305666708777
1320.3203203203202 0.06370507472761558
1330.3303303303303 0.06322210986691941
1340.3403403403404 0.06271639219179348
1350.3503503503503 0.06219003133112689
1360.3603603603603 0.061645019117787005
1370.3703703703704 0.06108323267979849
1380.3803803803803 0.06050643785375961
1390.3903903903904 0.059916292844232506
1400.4004004004005 0.05931435206265594
1410.4104104104103 0.058702070088200636
1420.4204204204204 0.058080805700973015
1430.4304304304305 0.0574518259451247
1440.4404404404404 0.056816310185809744
1450.4504504504505 0.05617535412959742
1460.4604604604606 0.0555299737829677
1470.4704704704704 0.05488110932793466
1480.4804804804805 0.054229628897724466
1490.4904904904906 0.05357633223882783
1500.5005005005005 0.05292195424870084
1510.5105105105106 0.05226716838095392
1520.5205205205207 0.051612589912085866
1530.5305305305305 0.0509587790657297
1540.5405405405404 0.05030624399202096
1550.5505505505505 0.049655443601107595
1560.5605605605606 0.049006790251027915
1570.5705705705705 0.04836065229122424
1580.5805805805805 0.04771735646385619
1590.5905905905906 0.04707719016586336
1600.6006006006005 0.04644040357542749
1610.6106106106106 0.045807211647122995
1620.6206206206207 0.04517779598065118
1630.6306306306305 0.04455230656865478
1640.6406406406406 0.043930863429728725
1650.6506506506507 0.04331355813341884
1660.6606606606606 0.04270045522475364
1670.6706706706707 0.04209159355673112
1680.6806806806808 0.041486987540213495
1690.6906906906906 0.040886628321916835
1700.7007007007007 0.040290581734562465
1710.7107107107108 0.03969917795881478
1720.7207207207207 0.03911228823664659
1730.7307307307308 0.03852972046523503
1740.7407407407409 0.0379512747506996
1750.7507507507507 0.03737674373646556
1760.7607607607606 0.036805913050279464
1770.770770770771 0.03623856190193482
1780.7807807807808 0.03567446386978872
1790.7907907907907 0.03511338792103084
1800.8008008008007 0.034555099718423445
1810.8108108108108 0.03399936327482352
1820.8208208208207 0.033445943026108434
1830.8308308308308 0.03289460640291394
1840.8408408408409 0.03234512699144553
1850.8508508508507 0.03179728838290618
1860.8608608608608 0.03125088881884313
1870.870870870871 0.030705746744622064
1880.8808808808808 0.03016170738346146
1890.890890890891 0.029618650436612687
1900.900900900901 0.029076498998321734
1910.9109109109108 0.028535229743472564
1920.920920920921 0.02799488439704784
1930.930930930931 0.027455582423162258
1940.940940940941 0.02691753477297044
1950.950950950951 0.026381058401630155
1960.960960960961 0.025846591103094077
1970.970970970971 0.025314706019639987
1980.980980980981 0.024786124967790608
1990.9909909909911 0.02426172949779987
2001.001001001001 0.02374256839307651
2011.0110110110109 0.023229860151070553
2021.0210210210212 0.02272498890898398
2031.031031031031 0.022229492331871024
2041.0410410410411 0.021745040211405782
2051.051051051051 0.02127340296385019
2061.061061061061 0.020816409875934815
2071.071071071071 0.02037589780393952
2081.081081081081 0.019953652019142232
2091.091091091091 0.019551341905112665
2101.101101101101 0.019170455110382796
2111.1111111111113 0.018812234394119793
2121.121121121121 0.018477621640486663
2131.131131131131 0.01816721327523711
2141.141141141141 0.01788123058322318
2151.151151151151 0.017619507266646798
2161.161161161161 0.017381495142720967
2171.1711711711714 0.017166287345280147
2181.1811811811813 0.01697265696906241
2191.191191191191 0.016799107953866337
2201.201201201201 0.016643934269718677
2211.2112112112113 0.016505283184142214
2221.221221221221 0.016381218548495127
2231.2312312312315 0.016269780554700897
2241.2412412412414 0.016169039173272202
2251.2512512512512 0.01607713936330584
2261.261261261261 0.015992337029293455
2271.271271271271 0.015913025496435557
2281.2812812812813 0.015837752925344256
2291.2912912912916 0.015765231560094208
2301.3013013013015 0.015694339999270845
2311.3113113113113 0.015624119816515732
2321.321321321321 0.015553767865327514
2331.331331331331 0.015482625517254989
2341.3413413413414 0.0154101659367826
2351.3513513513512 0.01533598031925548
2361.3613613613616 0.015259763832941598
2371.3713713713714 0.01518130182900368
2381.3813813813813 0.015100456723980481
2391.391391391391 0.015017155823666195
2401.4014014014015 0.014931380246663864
2411.4114114114113 0.014843155019499798
2421.4214214214217 0.014752540350630033
2431.4314314314315 0.014659624044796728
2441.4414414414414 0.014564514988635223
2451.4514514514512 0.014467337619959771
2461.4614614614616 0.014368227283868544
2471.4714714714714 0.014267326376236908
2481.4814814814818 0.014164781177290748
2491.4914914914916 0.014060739283169595
2501.5015015015015 0.013955347550479686
2511.5115115115113 0.013848750476893898
2521.521521521521 0.013741088949229421
2531.5315315315315 0.013632499298681272
2541.541541541542 0.013523112610720206
2551.5515515515517 0.013413054244405002
2561.5615615615616 0.013302443522422217
2571.5715715715714 0.013191393559022446
2581.5815815815813 0.013080011198179262
2591.5915915915916 0.012968397038792785
2601.6016016016015 0.012856645527642586
2611.611611611612 0.012744845104123513
2621.6216216216217 0.0126330783836326
2631.6316316316315 0.012521422368873882
2641.6416416416414 0.012409948680368509
2651.6516516516517 0.012298723799148797
2661.6616616616616 0.012187809316026138
2671.671671671672 0.012077262182993138
2681.6816816816818 0.011967134963288047
2691.6916916916916 0.011857476077445077
2701.7017017017015 0.011748330043305508
2711.711711711712 0.011639737708495308
2721.7217217217217 0.011531736474304518
2731.731731731732 0.011424360510249542
2741.741741741742 0.011317640958876716
2751.7517517517517 0.011211606130584025
2761.7617617617616 0.011106281688410938
2771.7717717717715 0.011001690822879249
2781.781781781782 0.010897854417070385
2791.791791791792 0.010794791202200879
2801.801801801802 0.010692517904013333
2811.811811811812 0.010591049380339309
2821.8218218218217 0.010490398750216163
2831.8318318318316 0.01039057751495462
2841.841841841842 0.010291595671560733
2851.851851851852 0.01019346181891576
2861.861861861862 0.010096183257112519
2871.871871871872 0.009999766080337986
2881.881881881882 0.009904215263680488
2891.8918918918916 0.009809534744225936
2901.901901901902 0.009715727496792755
2911.911911911912 0.009622795604639191
2921.921921921922 0.009530740325460405
2931.931931931932 0.009439562152976222
2941.941941941942 0.009349260874394028
2951.9519519519517 0.009259835624015186
2961.961961961962 0.009171284933237624
2971.971971971972 0.009083606777192084
2981.9819819819822 0.008996798618234896
2991.991991991992 0.008910857446506193
3002.002002002002 0.008825779817749253
3012.012012012012 0.00874156188857394
3022.0220220220217 0.008658199449335326
3032.032032032032 0.008596221418376012
3042.0420420420423 0.008511880731652847
3052.052052052052 0.008427697094193942
3062.062062062062 0.008343869622513867
3072.072072072072 0.008260566698438832
3082.0820820820823 0.008177929402742872
3092.092092092092 0.008096074646537282
3102.102102102102 0.00801509801595025
3112.1121121121123 0.00793507634730742
3122.122122122122 0.007856070050909502
3132.132132132132 0.007778125201787652
3142.1421421421423 0.007701275415652072
3152.152152152152 0.0076255435277556936
3162.162162162162 0.007550943091671074
3172.1721721721724 0.007477479714100029
3182.1821821821823 0.007405152240862719
3192.192192192192 0.007333953808190969
3202.202202202202 0.007263872772414663
3212.2122122122123 0.007194893530105081
3222.222222222222 0.007126997239744193
3232.232232232232 0.00706016245503633
3242.2422422422424 0.006994365679077473
3252.252252252252 0.006929581847751677
3262.262262262262 0.006865784749937365
3272.2722722722724 0.006802947391378178
3282.2822822822823 0.006741042308402995
3292.292292292292 0.006680041837065997
3302.3023023023025 0.006619918342717336
3312.3123123123123 0.006560644414505123
3322.322322322322 0.006502193028847039
3332.3323323323325 0.006444537685490929
3342.3423423423424 0.006387652519405713
3352.352352352352 0.006331512391402441
3362.3623623623625 0.006276092960078422
3372.3723723723724 0.006221370737400667
3382.3823823823823 0.006167323129996532
3392.3923923923926 0.006113928467996776
3402.4024024024025 0.006061166023075671
3412.4124124124123 0.006009016017153743
3422.4224224224226 0.005957459623067729
3432.4324324324325 0.005906478958368226
3442.4424424424424 0.005856057073276281
3452.4524524524522 0.0058061779337146785
3462.4624624624626 0.005756826400225852
3472.4724724724724 0.005707988203495689
3482.4824824824823 0.00565964991711924
3492.4924924924926 0.005611798928170009
3502.5025025025025 0.005564423406067667
3512.5125125125123 0.005517512270179393
3522.5225225225226 0.005471055156536482
3532.5325325325325 0.00542504238399991
3542.5425425425424 0.005379464920165704
3552.5525525525527 0.005334314347262418
3562.5625625625626 0.005289582828258721
3572.5725725725724 0.005245263073368206
3582.5825825825827 0.0052013483071111696
3592.5925925925926 0.0051578322360683
3602.6026026026025 0.005114709017439424
3612.612612612613 0.005071973228500769
3622.6226226226227 0.0050296198370367385
3632.6326326326325 0.004987644172806721
3642.642642642643 0.004946041900093629
3652.6526526526527 0.004904808991368626
3662.6626626626626 0.004863941702095653
3672.672672672673 0.004823436546690016
3682.6826826826828 0.004783290275636664
3692.6926926926926 0.004743499853766701
3702.7027027027025 0.004704062439684104
3712.712712712713 0.004664975366329239
3722.7227227227227 0.0046262361226609375
3732.7327327327325 0.004587842336434769
3742.742742742743 0.0045497917580518705
3752.7527527527527 0.004512082245449636
3762.7627627627626 0.004474711750003329
3772.772772772773 0.0044376783034057055
3782.7827827827828 0.004400980005490259
3792.7927927927926 0.004364615012962507
3802.802802802803 0.004328581529003015
3812.812812812813 0.004292877793705239
3822.8228228228227 0.0042575020753110385
3832.832832832833 0.004222452662206694
3842.842842842843 0.004187727855642374
3852.8528528528527 0.004153325963138388
3862.862862862863 0.004119245292541965
3872.872872872873 0.0040854841466990656
3882.8828828828828 0.004052040818706225
3892.892892892893 0.004018913587708591
3902.902902902903 0.0039861007152108534
3912.912912912913 0.003953600441869057
3922.922922922923 0.003921410984732063
3932.932932932933 0.0038895305349027575
3942.942942942943 0.003857957255589892
3952.9529529529527 0.003826689280522848
3962.962962962963 0.0037957247127026195
3972.972972972973 0.0037650616234634186
3982.982982982983 0.0037346980518205607
3992.992992992993 0.003704632004081311
4003.003003003003 0.003674861453696647
4013.013013013013 0.0036453843413327873
4023.023023023023 0.0036161985751426676
4033.033033033033 0.003587302031218453
4043.043043043043 0.003558692554207251
4053.053053053053 0.0035303679580732986
4063.063063063063 0.003502326026990738
4073.073073073073 0.003474564516352175
4083.0830830830832 0.0034470811538790903
4093.093093093093 0.0034198736408210554
4103.103103103103 0.0033929396532315866
4113.113113113113 0.0033662768433093105
4123.123123123123 0.003339882840793815
4133.133133133133 0.003313755254406461
4143.143143143143 0.003287891673327029
4153.153153153153 0.003262289668697803
4163.163163163163 0.0032369467951473677
4173.173173173173 0.003211860592326988
4183.183183183183 0.0031870285864530586
4193.193193193193 0.003162448291849622
4203.203203203203 0.0031381172124855406
4213.213213213214 0.003114032843501382
4223.223223223224 0.0030901926727215
4233.2332332332335 0.0030665941821473156
4243.243243243243 0.0030432348494281703
4253.253253253253 0.003020112149306508
4263.263263263263 0.0029972235550345316
4273.273273273273 0.0029745665397598055
4283.283283283283 0.0029521385778775817
4293.293293293293 0.002929937146347963
4303.303303303303 0.002907959725976238
4313.313313313313 0.0028862038026550266
4323.323323323323 0.0028646668685670743
4333.333333333334 0.0028433464233477783
4343.343343343344 0.0028222399752067255
4353.353353353354 0.002801345042007683
4363.3633633633635 0.002780659152306693
4373.373373373373 0.0027601798463480626
4383.383383383383 0.0027399046770181477
4393.393393393393 0.002719831210757046
4403.403403403403 0.0026999570284283268
4413.413413413413 0.0026802797261471093
4423.423423423424 0.0026607969160668916
4433.4334334334335 0.0026415062271255636
4443.443443443443 0.00262240530575118
4453.453453453454 0.0026034918165280924
4463.463463463464 0.0025847634428241726
4473.473473473474 0.002566217887379756
4483.483483483484 0.0025478528728592096
4493.493493493494 0.0025296661423658447
4503.503503503503 0.0025116554599211014
4513.513513513513 0.0024938186109088414
4523.523523523523 0.0024761534024856724
4533.533533533533 0.0024586576639582607
4543.543543543543 0.002441329247128525
4553.553553553554 0.0024241660266076997
4563.563563563564 0.002407165900100236
4573.573573573573 0.0023903267886584657
4583.583583583584 0.0023736466369090464
4593.593593593594 0.0023571234132521235
4603.603603603604 0.00234075511003416
4613.613613613614 0.0023245397436954464
4623.623623623624 0.002308475354893151
4633.6336336336335 0.0022925600086009376
4643.643643643643 0.002276791794186019
4653.653653653653 0.002261168825464571
4663.663663663663 0.0022456892407364286
4673.673673673674 0.0022303512027999064
4683.683683683684 0.0022151528989476626
4693.693693693694 0.002200092540944399
4703.703703703704 0.0021851683649872816
4713.713713713714 0.002170378631649865
4723.723723723724 0.0021557216258103118
4733.733733733734 0.0021411956565647017
4743.743743743744 0.002126799057126184
4753.753753753754 0.002112530184710681
4763.763763763764 0.0020983874204099037
4773.773773773773 0.0020843691690523203
4783.783783783783 0.0020704738590528174
4793.793793793793 0.002056699942251646
4803.803803803804 0.002043045893743325
4813.813813813814 0.0020295102116961155
4823.823823823824 0.002016091417162641
4833.833833833834 0.002002788053882248
4843.843843843844 0.0019895986880756663
4853.853853853854 0.001976521908232476
4863.863863863864 0.0019635563248919423
4873.873873873874 0.0019507005704176847
4883.883883883884 0.0019379532987666788
4893.893893893894 0.0019253131852530509
4903.9039039039035 0.0019127789263071095
4913.913913913913 0.0019003492392300444
4923.923923923924 0.0018880228619447062
4933.933933933934 0.0018757985527428711
4943.943943943944 0.0018636750900293416
4953.953953953955 0.0018516512720632896
4963.9639639639645 0.0018397259166971647
4973.973973973974 0.0018278978611134915
4983.983983983984 0.0018161659615599153
4993.993993993994 0.001804529093082762
5004.004004004004 0.001792986149259424
5014.014014014014 0.0017815360419298528
5024.024024024024 0.001770177700927412
5034.0340340340335 0.0017589100738093586
5044.044044044043 0.0017477321255871786
5054.054054054054 0.0017366428384570267
5064.064064064064 0.0017256412115304696
5074.074074074074 0.0017147262605657408
5084.084084084085 0.0017038970176997239
5094.0940940940945 0.0016931525311808335
5104.104104104104 0.001682491865102965
5114.114114114114 0.001671914099140696
5124.124124124124 0.0016614183282858905
5134.134134134134 0.0016510036625858515
5144.144144144144 0.001640669226883159
5154.154154154154 0.0016304141605573406
5164.1641641641645 0.0016202376172684732
5174.174174174174 0.0016101387647028606
5184.184184184184 0.0016001167843208669
5194.194194194194 0.0015901708711070228
5204.204204204204 0.001580300233322507
5214.214214214214 0.0015705040922600604
5224.224224224225 0.0015607816820014482
5234.2342342342345 0.0015511322491775237
5244.244244244244 0.0015415550527309628
5254.254254254254 0.0015320493636817516
5264.264264264264 0.0015226144648954503
5274.274274274274 0.0015132496508543346
5284.284284284285 0.0015039542274314095
5294.294294294295 0.0014947275116673794
5304.304304304304 0.0014855688315505839
5314.314314314314 0.0014764775257999642
5324.324324324324 0.0014674529436510492
5334.334334334334 0.0014584944446450283
5344.344344344345 0.0014496013984209015
5354.354354354355 0.0014407731845107452
5364.3643643643645 0.00143200919213809
5374.374374374374 0.0014233088200194428
5384.384384384384 0.0014146714761689436
5394.394394394394 0.0014060965777061678
5404.404404404404 0.0013975835506670798
5414.414414414415 0.0013891318298181342
5424.424424424425 0.0013807408584735213
5434.4344344344345 0.0013724100883155462
5444.444444444444 0.001364138979218145
5454.454454454454 0.0013559269990735215
5464.464464464464 0.0013477736236218861
5474.474474474475 0.0013396783362842914
5484.484484484485 0.001331640627998548
5494.494494494495 0.001323659997058191
5504.504504504504 0.0013157359489544972
5514.514514514514 0.001307867996221506
5524.524524524524 0.0013000556582840525
5534.534534534535 0.001292298461308756
5544.544544544545 0.001284595938057964
5554.554554554555 0.0012769476277466076
5564.5645645645645 0.0012693530759019555
5574.574574574574 0.0012618118342262222
5584.584584584584 0.001254323460462016
5594.594594594595 0.0012468875182605763
5604.604604604605 0.001239503577052799
5614.614614614615 0.0012321712119229768
5624.624624624625 0.0012248900034852624
5634.6346346346345 0.0012176595377627912
5644.644644644644 0.0012104794060694415
5654.654654654654 0.0012033492048942023
5664.664664664665 0.0011962685357880922
5674.674674674675 0.0011892370052536277
5684.684684684685 0.0011822542246367677
5694.694694694695 0.0011753198100213226
5704.704704704704 0.0011684333821257871
5714.714714714714 0.0011615945662025505
5724.724724724725 0.0011548029919394543
5734.734734734735 0.001148058293363664
5744.744744744745 0.0011413601087478054
5754.754754754755 0.0011347080805183367
5764.764764764765 0.0011281018551661227
5774.774774774774 0.0011215410831591603
5784.784784784785 0.00111502541885743
5794.794794794795 0.0011085545204298308
5804.804804804805 0.0011021280497731578
5814.814814814815 0.0010957456724330957
5824.824824824825 0.0010894070575271787
5834.8348348348345 0.0010831118776696857
5844.844844844845 0.0010768598088984399
5854.854854854855 0.001070650530603463
5864.864864864865 0.0010644837254574562
5874.874874874875 0.0010583590793480748
5884.884884884885 0.0010522762813119496
5894.894894894895 0.0010462350234704317
5904.9049049049045 0.001040235000967015
5914.914914914915 0.0010342759119064083
5924.924924924925 0.0010283574572952253
5934.934934934935 0.001022479340984239
5944.944944944945 0.001016641269612198
5954.954954954955 0.0010108429525511396
5964.964964964965 0.0010050841018531885
5974.974974974975 0.000999364432198797
5984.984984984985 0.0009936836608464008
5994.994994994995 0.0009880415075834508
6005.005005005005 0.000982437694678795
6015.015015015015 0.0009768719468363793
6025.025025025025 0.0009713439911502359
6035.035035035035 0.000965853557060723
6045.045045045045 0.0009604003763119978
6055.055055055055 0.0009549841829106791
