#lamb flux
1000.0 3.984039371806112
1010.01001001001 3.924878455054748
1020.0200200200201 3.8659675144689785
1030.03003003003 3.807362088259578
1040.0400400400401 3.749112771933394
1050.05005005005 3.6912655377977144
1060.06006006006 3.633862037841235
1070.07007007007 3.5769398904591303
1080.08008008008 3.5205329515378456
1090.0900900900901 3.4646715704504922
1100.1001001001 3.4093828315381303
1110.11011011011 3.3546907816677574
1120.1201201201202 3.3006166444655287
1130.13013013013 3.247179021825398
1140.1401401401401 3.1943940832896143
1150.1501501501502 3.1422757438898183
1160.16016016016 3.0908358310261086
1170.1701701701702 3.0400842409476057
1180.1801801801803 2.9900290853820373
1190.1901901901902 2.9406768288441576
1200.2002002002002 2.89203241713415
1210.2102102102103 2.8440993975175886
1220.2202202202202 2.796880031058419
1230.2302302302303 2.7503753975561946
1240.2402402402402 2.7045854935184734
1250.2502502502502 2.6595083269359607
1260.2602602602603 2.615139135748352
1270.2702702702702 2.5714702610321245
1280.2802802802803 2.528498898695493
1290.2902902902902 2.4862215259791203
1300.3003003003003 2.444633966546424
1310.3103103103103 2.4037314511324617
1320.3203203203202 2.36350867402045
1330.3303303303303 2.323959845600985
1340.3403403403404 2.2850787412551385
1350.3503503503503 2.2468587467895613
1360.3603603603603 2.209292900638995
1370.3703703703704 2.172373933039559
1380.3803803803803 2.136094302364567
1390.3903903903904 2.100446228803645
1400.4004004004005 2.065421725555379
1410.4104104104103 2.031012627693774
1420.4204204204204 1.9972106188592844
1430.4304304304305 1.9640072559161996
1440.4404404404404 1.9313939917096536
1450.4504504504505 1.899362196047394
1460.4604604604606 1.8679031750239126
1470.4704704704704 1.8370081887972032
1480.4804804804805 1.8066684679217166
1490.4904904904906 1.7768752283345581
1500.5005005005005 1.7476196850859642
1510.5105105105106 1.7188930648993628
1520.5205205205207 1.690686617640956
1530.5305305305305 1.6629916267736666
1540.5405405405404 1.6357994188655716
1550.5505505505505 1.6091013722184369
1560.5605605605606 1.582888924677761
1570.5705705705705 1.557153580681819
1580.5805805805805 1.5318869176034575
1590.5905905905906 1.5070805914349368
1600.6006006006005 1.4827263418628778
1610.6106106106106 1.4588159967773175
1620.6206206206207 1.4353414762560446
1630.6306306306305 1.4122947960627787
1640.6406406406406 1.3896680706952298
1650.6506506506507 1.367453516016915
1660.6606606606606 1.3456434515044031
1670.6706706706707 1.3242303021398396
1680.6806806806808 1.3032065999767901
1690.6906906906906 1.2825649854059442
1700.7007007007007 1.2622982325769807
1710.7107107107108 1.2423992975344746
1720.7207207207207 1.2228611360471096
1730.7307307307308 1.2036768037698768
1740.7407407407409 1.184839470090012
1750.7507507507507 1.1663424178549535
1760.7607607607606 1.148179042976315
1770.770770770771 1.1303428539300717
1780.7807807807808 1.1128274711738477
1790.7907907907907 1.0956266265032415
1800.8008008008007 1.0787341623705338
1810.8108108108108 1.0621440311909556
1820.8208208208207 1.0458502946639012
1830.8308308308308 1.0298471231391748
1840.8408408408409 1.0141287950613311
1850.8508508508507 0.9986896965285185
1860.8608608608608 0.9835243210056465
1870.870870870871 0.9686272692350514
1880.8808808808808 0.9539932493906157
1890.890890890891 0.9396170775230414
1900.900900900901 0.9254936783438911
1910.9109109109108 0.911618086392962
1920.920920920921 0.8979854476263603
1930.930930930931 0.8845910214495096
1940.940940940941 0.8714301831984576
1950.950950950951 0.8584984270421072
1960.960960960961 0.845791369235492
1970.970970970971 0.833304751598367
1980.980980980981 0.8210344450238005
1990.9909909909911 0.8089764527393897
2001.001001001001 0.7971269129532669
2011.0110110110109 0.7854821004258642
2021.0210210210212 0.7740384264284738
2031.031031031031 0.7627924364975078
2041.0410410410411 0.7517408053891502
2051.051051051051 0.7408803287043266
2061.061061061061 0.7302079108072319
2071.071071071071 0.7197205489126338
2081.081081081081 0.7094153135636412
2091.091091091091 0.6992893261386104
2101.101101101101 0.6893397344671637
2111.1111111111113 0.6795636880353851
2121.121121121121 0.6699583145439386
2131.131131131131 0.6605206996802121
2141.141141141141 0.651247871830315
2151.151151151151 0.6421367930813048
2161.161161161161 0.6331843572875229
2171.1711711711714 0.6243873952788054
2181.1811811811813 0.6157426865803399
2191.191191191191 0.6072469764042469
2201.201201201201 0.5988969962499188
2211.2112112112113 0.5906894862619131
2221.221221221221 0.5826212175427455
2231.2312312312315 0.5746890128641151
2241.2412412412414 0.566889764598182
2251.2512512512512 0.5592204491258296
2261.261261261261 0.551678137403711
2271.271271271271 0.5442600017360596
2281.2812812812813 0.5369633190722277
2291.2912912912916 0.52978547132844
2301.3013013013015 0.5227239433195632
2311.3113113113113 0.5157763189005408
2321.321321321321 0.5089402758780631
2331.331331331331 0.5022135801811899
2341.3413413413414 0.4955940796921529
2351.3513513513512 0.489079698048327
2361.3613613613616 0.4826684286420987
2371.3713713713714 0.4763583289720524
2381.3813813813813 0.47014751543862765
2391.391391391391 0.46403415863038583
2401.4014014014015 0.4580164791120896
2411.4114114114113 0.4520927437012959
2421.4214214214217 0.4462612622041116
2431.4314314314315 0.440520384571302
2441.4414414414414 0.4348684984313712
2451.4514514514512 0.4293040269561786
2461.4614614614616 0.4238254270159254
2471.4714714714714 0.41843118758312386
2481.4814814814818 0.4131198283487516
2491.4914914914916 0.40788989851777596
2501.5015015015015 0.4027399757552442
2511.5115115115113 0.397668665258013
2521.521521521521 0.3926745989307817
2531.5315315315315 0.38775643464834075
2541.541541541542 0.3829128555888359
2551.5515515515517 0.3781425696253605
2561.5615615615616 0.37344430876536494
2571.5715715715714 0.3688168286292268
2581.5815815815813 0.36425890796089133
2591.5915915915916 0.3597693481648087
2601.6016016016015 0.35534697286449846
2611.611611611612 0.35099062747897
2621.6216216216217 0.34669917881399903
2631.6316316316315 0.342471514665847
2641.6416416416414 0.3383065434355456
2651.6516516516517 0.3342031937522449
2661.6616616616616 0.33016041410447583
2671.671671671672 0.3261771724784309
2681.6816816816818 0.3222524560025833
2691.6916916916916 0.31838527059812727
2701.7017017017015 0.3145746406348615
2711.711711711712 0.3108196085922361
2721.7217217217217 0.3071192347253674
2731.731731731732 0.3034725967358793
2741.741741741742 0.29987878944748764
2751.7517517517517 0.29633692448626575
2761.7617617617616 0.29284612996556614
2771.7717717717715 0.28940555017557973
2781.781781781782 0.2860143452775313
2791.791791791792 0.28267169100252065
2801.801801801802 0.2793767783550091
2811.811811811812 0.2761288133209671
2821.8218218218217 0.27292701658068697
2831.8318318318316 0.26977062322626694
2841.841841841842 0.266658882483766
2851.851851851852 0.26359105744003014
2861.861861861862 0.2605664247741772
2871.871871871872 0.25758427449373206
2881.881881881882 0.25464390967539297
2891.8918918918916 0.25174464621040743
2901.901901901902 0.24888581255453007
2911.911911911912 0.2460667494825322
2921.921921921922 0.24328680984722648
2931.931931931932 0.2405453583429697
2941.941941941942 0.2378417712735988
2951.9519519519517 0.23517543632475452
2961.961961961962 0.23254575234054564
2971.971971971972 0.22995212910450083
2981.9819819819822 0.22739398712475334
2991.991991991992 0.22487075742340623
3002.002002002002 0.22238188133001607
3012.012012012012 0.21992681027914043
3022.0220220220217 0.21750500561188627
3032.032032032032 0.21512008140902572
3042.0420420420423 0.21276268770481696
3052.052052052052 0.2104368658853512
3062.062062062062 0.20814215647555348
3072.072072072072 0.20587810265203554
3082.0820820820823 0.2036442508080613
3092.092092092092 0.20144015104654744
3102.102102102102 0.1992653576081248
3112.1121121121123 0.19711942924066658
3122.122122122122 0.19500192951609913
3132.132132132132 0.19291242709978854
3142.1421421421423 0.1908504959773135
3152.152152152152 0.1888157156429931
3162.162162162162 0.18680767125413456
3172.1721721721724 0.18482595375460267
3182.1821821821823 0.18287015997097542
3192.192192192192 0.18093989268424526
3202.202202202202 0.17903476067974802
3212.2122122122123 0.17715437877774887
3222.222222222222 0.1752983678468827
3232.232232232232 0.17346635480243422
3242.2422422422424 0.17165797259125673
3252.252252252252 0.16987286016494998
3262.262262262262 0.16811066244275896
3272.2722722722724 0.16637103026551656
3282.2822822822823 0.16465362034181377
3292.292292292292 0.16295809518747023
3302.3023023023025 0.16128412305926415
3312.3123123123123 0.15963137788378506
3322.322322322322 0.15799953918218324
3332.3323323323325 0.15638829199150764
3342.3423423423424 0.15479732678325414
3352.352352352352 0.15322633937967334
3362.3623623623625 0.1516750308683358
3372.3723723723724 0.1501431075153891
3382.3823823823823 0.1486302806778966
3392.3923923923926 0.14713626671560534
3402.4024024024025 0.14566078690244413
3412.4124124124123 0.1442035673380205
3422.4224224224226 0.14276433885935325
3432.4324324324325 0.1413428369530455
3442.4424424424424 0.1399388016680765
3452.4524524524522 0.13855197752936801
3462.4624624624626 0.13718211345225936
3472.4724724724724 0.13582896265800531
3482.4824824824823 0.1344922825903921
3492.4924924924926 0.13317183483355627
3502.5025025025025 0.13186738503107126
3512.5125125125123 0.13057870280635825
3522.5225225225226 0.12930556168446558
3532.5325325325325 0.12804773901525082
3542.5425425425424 0.12680501589799167
3552.5525525525527 0.12557717710744362
3562.5625625625626 0.12436401102135589
3572.5725725725724 0.12316530954945036
3582.5825825825827 0.12198086806386446
3592.5925925925926 0.12081048533105308
3602.6026026026025 0.11965396344514045
3612.612612612613 0.11851110776271168
3622.6226226226227 0.1173817268390268
3632.6326326326325 0.11626563236564115
3642.642642642643 0.11516263910941309
3652.6526526526527 0.11407256485287595
3662.6626626626626 0.11299523033595162
3672.672672672673 0.11193045919898283
3682.6826826826828 0.11087807792705745
3692.6926926926926 0.10983791579559961
3702.7027027027025 0.10880980481720019
3712.712712712713 0.10779357968966073
3722.7227227227227 0.10678907774522348
3732.7327327327325 0.10579613890095851
3742.742742742743 0.10481460561028297
3752.7527527527527 0.10384432281558326
3762.7627627627626 0.10288513790191343
3772.772772772773 0.10193690065174382
3782.7827827827828 0.10099946320073189
3792.7927927927926 0.10007267999448995
3802.802802802803 0.09915640774632402
3812.812812812813 0.09825050539591787
3822.8228228228227 0.09735483406893757
3832.832832832833 0.09646925703753274
3842.842842842843 0.09559363968170981
3852.8528528528527 0.09472784945155475
3862.862862862863 0.0938717558302817
3872.872872872873 0.09302523029808688
3882.8828828828828 0.09218814629678314
3892.892892892893 0.09136037919519899
3902.902902902903 0.0905418062553164
3912.912912912913 0.08973230659913113
3922.922922922923 0.08893176117621458
3932.932932932933 0.08814005273195974
3942.942942942943 0.08735706577649113
3952.9529529529527 0.0865826865542229
3962.962962962963 0.08581680301404715
3972.972972972973 0.08505930478013606
3982.982982982983 0.08431008312334126
3992.992992992993 0.0835690309331754
4003.003003003003 0.0828360426903614
4013.013013013013 0.08211101443993264
4023.023023023023 0.08139384376487266
4033.033033033033 0.08068442976027838
4043.043043043043 0.07998267300803467
4053.053053053053 0.0792884755519876
4063.063063063063 0.07860174087360286
4073.073073073073 0.07792237386809833
4083.0830830830832 0.07725028082103848
4093.093093093093 0.07658536938537985
4103.103103103103 0.07592754855895563
4113.113113113113 0.07527672866239041
4123.123123123123 0.07463282131743272
4133.133133133133 0.07399573942569723
4143.143143143143 0.07336539714780606
4153.153153153153 0.07274170988291995
4163.163163163163 0.0721245942486503
4173.173173173173 0.07151396806134337
4183.183183183183 0.0709097503167281
4193.193193193193 0.07031186117091903
4203.203203203203 0.06972022192176666
4213.213213213214 0.06913475499054772
4223.223223223224 0.0685553839039869
4233.2332332332335 0.06798203327660347
4243.243243243243 0.0674146287933758
4253.253253253253 0.06685309719271618
4263.263263263263 0.06629736624974995
4273.273273273273 0.06574736475989217
4283.283283283283 0.06520302252271512
4293.293293293293 0.06466427032610153
4303.303303303303 0.06413103993067629
4313.313313313313 0.06360326405451197
4323.323323323323 0.06308087635810146
4333.333333333334 0.06256381142959332
4343.343343343344 0.06205200477028371
4353.353353353354 0.0615453927803599
4363.3633633633635 0.061043912744890315
4373.373373373373 0.06054750282005663
4383.383383383383 0.060056102019622
4393.393393393393 0.05956965020163215
4403.403403403403 0.05908808805534367
4413.413413413413 0.05861135708837524
4423.423423423424 0.058139399614078324
4433.4334334334335 0.05767215873912185
4443.443443443443 0.05720957835128751
4453.453453453454 0.056751603107471585
4463.463463463464 0.056298178421889444
4473.473473473474 0.05584925045447799
4483.483483483484 0.05540476609949383
4493.493493493494 0.0549646729743023
4503.503503503503 0.05452891940835415
4513.513513513513 0.054097454432346676
4523.523523523523 0.05367022776756512
4533.533533533533 0.0532471898154022
4543.543543543543 0.0528282916470512
4553.553553553554 0.05241348499337027
4563.563563563564 0.052002722234914804
4573.573573573573 0.051595956392134136
4583.583583583584 0.051193141115730506
4593.593593593594 0.05079423067717678
4603.603603603604 0.05039917995938994
4613.613613613614 0.05000794444755831
4623.623623623624 0.04962048022011874
4633.6336336336335 0.049236743939882005
4643.643643643643 0.048856692845303196
4653.653653653653 0.048480284741894655
4663.663663663663 0.04810747799377909
4673.673673673674 0.04773823151538014
4683.683683683684 0.0473725047632484
4693.693693693694 0.04701025772801987
4703.703703703704 0.046651450926505016
4713.713713713714 0.046296045393906235
4723.723723723724 0.04594400267616093
4733.733733733734 0.04559528482240839
4743.743743743744 0.045249854377578544
4753.753753753754 0.044907674375099786
4763.763763763764 0.0445687083297247
4773.773773773773 0.04423292023047047
4783.783783783783 0.04390027453367353
4793.793793793793 0.043570736156155004
4803.803803803804 0.04324427046849584
4813.813813813814 0.04292084328841976
4823.823823823824 0.042600420874281696
4833.833833833834 0.0422829699186605
4843.843843843844 0.04196845754205361
4853.853853853854 0.041656851286672264
4863.863863863864 0.0413481191103355
4873.873873873874 0.041042229380461086
4883.883883883884 0.040739150868151934
4893.893893893894 0.04043885274237634
4903.9039039039035 0.04014130456424026
4913.913913913913 0.03984647628135032
4923.923923923924 0.03955433822226586
4933.933933933934 0.03926486109103873
4943.943943943944 0.038978015961838745
4953.953953953955 0.03869377427366436
4963.9639639639645 0.038412107825136155
4973.973973973974 0.03813298876937225
4983.983983983984 0.03785638960894419
4993.993993993994 0.03758228319091191
5004.004004004004 0.037310642701936375
5014.014014014014 0.037041441663468844
5024.024024024024 0.036774653927014976
5034.0340340340335 0.03651025366947338
5044.044044044043 0.03624821538854617
5054.054054054054 0.035988513898221566
5064.064064064064 0.03573112432432644
5074.074074074074 0.03547602210014798
5084.084084084085 0.03522318296212331
5094.0940940940945 0.03497258294559609
5104.104104104104 0.03472419838063849
5114.114114114114 0.03447800588793794
5124.124124124124 0.03423398237474747
5134.134134134134 0.03399210503089842
5144.144144144144 0.033752351324874516
5154.154154154154 0.033514698999946566
5164.1641641641645 0.03327912607036629
5174.174174174174 0.03304561081761891
5184.184184184184 0.032814131786732904
5194.194194194194 0.03258466778264637
5204.204204204204 0.032357197866629085
5214.214214214214 0.03213170135275911
5224.224224224225 0.03190815780445307
5234.2342342342345 0.03168654703104965
5244.244244244244 0.03146684908444455
5254.254254254254 0.031249044255777177
5264.264264264264 0.031033113072167134
5274.274274274274 0.03081903629350065
5284.284284284285 0.03060679490926526
5294.294294294295 0.03039637013543273
5304.304304304304 0.03018774341138871
5314.314314314314 0.02998089639690902
5324.324324324324 0.02977581096918132
5334.334334334334 0.029572469219871653
5344.344344344345 0.029370853452235016
5354.354354354355 0.029170946178269475
5364.3643643643645 0.02897273011591259
5374.374374374374 0.02877618818628026
5384.384384384384 0.028581303510946402
5394.394394394394 0.028388059409263675
5404.404404404404 0.0281964393957237
5414.414414414415 0.028006427177356994
5424.424424424425 0.027818006651171366
5434.4344344344345 0.027631161901628346
5444.444444444444 0.027445877198157023
5454.454454454454 0.027262136992704956
5464.464464464464 0.027079925917324946
5474.474474474475 0.0268992287817977
5484.484484484485 0.02672003057128949
5494.494494494495 0.026542316444044284
5504.504504504504 0.026366071729109913
5514.514514514514 0.026191281924097497
5524.524524524524 0.026017932692973957
5534.534534534535 0.025846009863886625
5544.544544544545 0.025675499427019906
5554.554554554555 0.02550638753248304
5564.5645645645645 0.02533866048822883
5574.574574574574 0.025172304758002664
5584.584584584584 0.02500730695932132
5594.594594594595 0.024843653861481133
5604.604604604605 0.024681332383595236
5614.614614614615 0.0245203295926589
5624.624624624625 0.024360632701643188
5634.6346346346345 0.024202229067615974
5644.644644644644 0.024045106189890083
5654.654654654654 0.023889251708198195
5664.664664664665 0.023734653400893792
5674.674674674675 0.02358129918317829
5684.684684684685 0.02342917710535324
5694.694694694695 0.023278275351097742
5704.704704704704 0.02312858223577053
5714.714714714714 0.022980086204736204
5724.724724724725 0.022832775831715363
5734.734734734735 0.022686639817158266
5744.744744744745 0.022541666986641597
5754.754754754755 0.02239784628928791
5764.764764764765 0.022255166796207638
5774.774774774774 0.0221136176989631
5784.784784784785 0.0219731883080541
5794.794794794795 0.02183386805142511
5804.804804804805 0.021695646472993303
5814.814814814815 0.021558513231197434
5824.824824824825 0.02142245809756707
5834.8348348348345 0.02128747095531182
5844.844844844845 0.021153541797930525
5854.854854854855 0.021020660727839716
5864.864864864865 0.020888817955021306
5874.874874874875 0.020758003795689175
5884.884884884885 0.0206282086709743
5894.894894894895 0.020499423105628137
5904.9049049049045 0.020371637726744093
5914.914914914915 0.020244843262496662
5924.924924924925 0.020119030540898093
5934.934934934935 0.019994190488572074
5944.944944944945 0.01987031412954464
5954.954954954955 0.019747392584051445
5964.964964964965 0.019625417067361667
5974.974974974975 0.01950437888861793
5984.984984984985 0.019384269449692314
5994.994994994995 0.019265080244057847
6005.005005005005 0.01914680285567559
6015.015015015015 0.01902942895789684
6025.025025025025 0.01891295031238039
6035.035035035035 0.018797358768024443
6045.045045045045 0.018682646259913133
6055.055055055055 0.018568804808277318
6065.065065065065 0.018455826517469444
6075.075075075075 0.01834370357495237
6085.085085085085 0.018232428250301743
6095.0950950950955 0.018121992894221967
6105.105105105105 0.018012389937575396
6115.115115115115 0.017903611890424515
6125.125125125125 0.017795651341087078
6135.135135135135 0.017688500955203974
6145.145145145145 0.017582153474819413
6155.155155155155 0.01747660171747362
6165.1651651651655 0.017371838575307472
6175.175175175175 0.017267857014179253
6185.185185185185 0.01716465007279297
6195.195195195195 0.017062210861838487
6205.205205205205 0.01696053256314291
6215.215215215215 0.016859608428833283
6225.225225225226 0.01675943178051041
6235.235235235235 0.016659996008433493
6245.245245245245 0.016561294570715684
