#lamb flux
1000.0 0.9564596517754221
1010.01001001001 1.0027772638216381
1020.0200200200201 1.0475830650289637
1030.03003003003 1.0907870045610883
1040.0400400400401 1.1323247114862052
1050.05005005005 1.1721550639552842
1060.06006006006 1.2102576882451712
1070.07007007007 1.2466304661292957
1080.08008008008 1.2812871114153672
1090.0900900900901 1.3142548608957445
1100.1001001001 1.345572311537528
1110.11011011011 1.3752874244869113
1120.1201201201202 1.4034557072614735
1130.13013013013 1.4301385781758313
1140.1401401401401 1.455401911375649
1150.1501501501502 1.479314756615525
1160.16016016016 1.5019482248834943
1170.1701701701702 1.5233745289377758
1180.1801801801803 1.5436661665883988
1190.1901901901902 1.5628952339578703
1200.2002002002002 1.5811328558454494
1210.2102102102103 1.598448720574999
1220.2202202202202 1.614910707224987
1230.2302302302303 1.6305845938374661
1240.2402402402402 1.6455338360147147
1250.2502502502502 1.6596998527306686
1260.2602602602603 1.6727802822909101
1270.2702702702702 1.6841750752267761
1280.2802802802803 1.6939460528003134
1290.2902902902902 1.7021564648827157
1300.3003003003003 1.7088704429885309
1310.3103103103103 1.7141525144392638
1320.3203203203202 1.7180671739435784
1330.3303303303303 1.7206785087040897
1340.3403403403404 1.7220498730825338
1350.3503503503503 1.722243608857096
1360.3603603603603 1.7213208071711108
1370.3703703703704 1.7193411083867816
1380.3803803803803 1.7163625362090356
1390.3903903903904 1.7124413626225776
1400.4004004004005 1.7076320003811334
1410.4104104104103 1.7019869199948217
1420.4204204204204 1.6955565883736476
1430.4304304304305 1.688389426497754
1440.4404404404404 1.6805317836948293
1450.4504504504505 1.672027926308894
1460.4604604604606 1.662920038740906
1470.4704704704704 1.6532482350283944
1480.4804804804805 1.6430505793080743
1490.4904904904906 1.6323631136711707
1500.5005005005005 1.621219892076086
1510.5105105105106 1.609653019126957
1520.5205205205207 1.5976926926597803
1530.5305305305305 1.585367249200753
1540.5405405405404 1.5727032114745747
1550.5505505505505 1.5597253372446958
1560.5605605605606 1.5464566688632195
1570.5705705705705 1.5329185829967162
1580.5805805805805 1.5191308400759846
1590.5905905905906 1.5051116330942012
1600.6006006006005 1.490877635449686
1610.6106106106106 1.4764440475980258
1620.6206206206207 1.4618246423444987
1630.6306306306305 1.4470318086732237
1640.6406406406406 1.432076594075343
1650.6506506506507 1.416968745406701
1660.6606606606606 1.401716748377316
1670.6706706706707 1.3863278658526903
1680.6806806806808 1.370808175232529
1690.6906906906906 1.3551626052683512
1700.7007007007007 1.3393999555600684
1710.7107107107108 1.323542737833441
1720.7207207207207 1.3075899296439406
1730.7307307307308 1.2915371647713194
1740.7407407407409 1.2753795858297359
1750.7507507507507 1.259111865052195
1760.7607607607606 1.242728232822871
1770.770770770771 1.2262225157934277
1780.7807807807808 1.2095881867461897
1790.7907907907907 1.192818428733316
1800.8008008008007 1.1759062164248515
1810.8108108108108 1.1588444180337882
1820.8208208208207 1.1416259216417957
1830.8308308308308 1.1242437902062914
1840.8408408408409 1.106691449958827
1850.8508508508507 1.0889629172640456
1860.8608608608608 1.0710530692380327
1870.870870870871 1.0529579634442239
1880.8808808808808 1.0346752116888551
1890.890890890891 1.0162044121935443
1900.900900900901 0.9975476430694058
1910.9109109109108 0.9787100178697942
1920.920920920921 0.9597003008574966
1930.930930930931 0.9405315752906976
1940.940940940941 0.9212219523493572
1950.950950950951 0.9017953012091579
1960.960960960961 0.8822819722855665
1970.970970970971 0.8627194760936094
1980.980980980981 0.8431530700737823
1990.9909909909911 0.8236361960600473
2001.001001001001 0.8042307031503586
2011.0110110110109 0.7850067862884598
2021.0210210210212 0.7660425718162109
2031.031031031031 0.7474232895210149
2041.0410410410411 0.7292399877838625
2051.051051051051 0.7115877749443655
2061.061061061061 0.6945636051953882
2071.071071071071 0.6782636687659579
2081.081081081081 0.6627804896804638
2091.091091091091 0.6481998744733752
2101.101101101101 0.6345978858292668
2111.1111111111113 0.6220380307384787
2121.121121121121 0.6105688497304522
2131.131131131131 0.6002220711071451
2141.141141141141 0.5910114539649366
2151.151151151151 0.5829323910248749
2161.161161161161 0.5759622835421516
2171.1711711711714 0.5700616429993439
2181.1811811811813 0.5651758243141086
2191.191191191191 0.5612372576310951
2201.201201201201 0.5581680229944754
2211.2112112112113 0.5558826047484375
2221.221221221221 0.5542906690315607
2231.2312312312315 0.5532997255838058
2241.2412412412414 0.5528175609155912
2251.2512512512512 0.5527543601260022
2261.261261261261 0.5530244659358817
2271.271271271271 0.5535477529764762
2281.2812812812813 0.5542506209222663
2291.2912912912916 0.5550666303599348
2301.3013013013015 0.5559368198067522
2311.3113113113113 0.5568097511601042
2321.321321321321 0.55764133470091
2331.331331331331 0.5583944845181121
2341.3413413413414 0.5590386519263395
2351.3513513513512 0.559549279151841
2361.3613613613616 0.5599072091806254
2371.3713713713714 0.5600980809392772
2381.3813813813813 0.5601117324615976
2391.391391391391 0.5599416287475937
2401.4014014014015 0.5595843258528176
2411.4114114114113 0.5590389784395193
2421.4214214214217 0.5583068945715942
2431.4314314314315 0.5573911388798746
2441.4414414414414 0.5562961832670842
2451.4514514514512 0.5550276029530874
2461.4614614614616 0.5535918147703701
2471.4714714714714 0.5519958541041652
2481.4814814814818 0.5502471866404771
2491.4914914914916 0.5483535510616808
2501.5015015015015 0.5463228289507354
2511.5115115115113 0.544162938381695
2521.521521521521 0.5418817479480257
2531.5315315315315 0.53948700828282
2541.541541541542 0.536986298435861
2551.5515515515517 0.534386984777392
2561.5615615615616 0.5316961903880912
2571.5715715715714 0.5289207731634403
2581.5815815815813 0.5260673111053974
2591.5915915915916 0.5231420934940275
2601.6016016016015 0.5201511168266719
2611.611611611612 0.5171000845835338
2621.6216216216217 0.5139944100277848
2631.6316316316315 0.5108392213774079
2641.6416416416414 0.5076393687969981
2651.6516516516517 0.5043994327526253
2661.6616616616616 0.5011237333536243
2671.671671671672 0.4978163403735164
2681.6816816816818 0.4944810836999444
2691.6916916916916 0.4911215640118875
2701.7017017017015 0.4877411635229389
2711.711711711712 0.48434305666315464
2721.7217217217217 0.4809302205999835
2731.731731731732 0.4775054455219179
2741.741741741742 0.4740713446275497
2751.7517517517517 0.47063036377828515
2761.7617617617616 0.4671847907856832
2771.7717717717715 0.4637367643146301
2781.781781781782 0.46028828239184544
2791.791791791792 0.4568412105157835
2801.801801801802 0.4533972893691897
2811.811811811812 0.4499581421396254
2821.8218218218217 0.44652528145638054
2831.8318318318316 0.4431001159545198
2841.841841841842 0.4396839564785242
2851.851851851852 0.43627802193916665
2861.861861861862 0.43288344483804736
2871.871871871872 0.4295012764746558
2881.881881881882 0.42613249185100877
2891.8918918918916 0.4227779942888923
2901.901901901902 0.41943861977453356
2911.911911911912 0.41611514104523534
2921.921921921922 0.41280827143208165
2931.931931931932 0.4095186684723651
2941.941941941942 0.40624693730485184
2951.9519519519517 0.40299363386045806
2961.961961961962 0.3997592678603353
2971.971971971972 0.39654430563278564
2981.9819819819822 0.393349172759853
2991.991991991992 0.39017425656386096
3002.002002002002 0.38701990844361733
3012.012012012012 0.38388644606945715
3022.0220220220217 0.38077415544577475
3032.032032032032 0.3790840138119339
3042.0420420420423 0.3758339292287812
3052.052052052052 0.3725584021231202
3062.062062062062 0.36927146463236965
3072.072072072072 0.36598510552449376
3082.0820820820823 0.36270948870310776
3092.092092092092 0.3594531546988981
3102.102102102102 0.3562232053881254
3112.1121121121123 0.3530254724722744
3122.122122122122 0.34986467045660863
3132.132132132132 0.34674453499848334
3142.1421421421423 0.3436679475744792
3152.152152152152 0.34063704745164014
3162.162162162162 0.3376533319528795
3172.1721721721724 0.3347177459882974
3182.1821821821823 0.33183076178952386
3192.192192192192 0.3289924497384643
3202.202202202202 0.32620254112911035
3212.2122122122123 0.3234604836444827
3222.222222222222 0.3207654902726867
3232.232232232232 0.31811658232819995
3242.2422422422424 0.3155126271881383
3252.252252252252 0.31295237129921494
3262.262262262262 0.310434468959998
3272.2722722722724 0.30795750733522403
3282.2822822822823 0.3055200281144884
3292.292292292292 0.30312054618667894
3302.3023023023025 0.3007575656639675
3312.3123123123123 0.29842959355492177
3322.322322322322 0.2961351513551853
3332.3323323323325 0.2938727847959963
3342.3423423423424 0.2916410719653939
3352.352352352352 0.2894386299940527
3362.3623623623625 0.28726412047712524
3372.3723723723724 0.2851162537850066
3382.3823823823823 0.2829937923994018
3392.3923923923926 0.2808955533963024
3402.4024024024025 0.2788204101842369
3412.4124124124123 0.27676729359436386
3422.4224224224226 0.27473519240842015
3432.4324324324325 0.2727231534011304
3442.4424424424424 0.27073028096526885
3452.4524524524522 0.26875573638006905
3462.4624624624626 0.2667987367769735
3472.4724724724724 0.26485855385073354
3482.4824824824823 0.26293451235851056
3492.4924924924926 0.2610259884448632
3502.5025025025025 0.2591324078262072
3512.5125125125123 0.2572532438645143
3522.5225225225226 0.25538801555657925
3532.5325325325325 0.25353628546209894
3542.5425425425424 0.2516976575910544
3552.5525525525527 0.24987177526839427
3562.5625625625626 0.2480583189917958
3572.5725725725724 0.24625700429626868
3582.5825825825827 0.24446757963757015
3592.5925925925926 0.24268982430476935
3602.6026026026025 0.2409235463708448
3612.612612612613 0.23916858068888272
3622.6226226226227 0.2374247869402584
3632.6326326326325 0.23569204774012475
3642.642642642643 0.23397026680457306
3652.6526526526527 0.23225936718297369
3662.6626626626626 0.23055928955823185
3672.672672672673 0.2288699906170131
3682.6826826826828 0.22719144149136625
3692.6926926926926 0.22552362627263184
3702.7027027027025 0.22386654059802963
3712.712712712713 0.22222019030989124
3722.7227227227227 0.22058459018712293
3732.7327327327325 0.21895976274814002
3742.742742742743 0.21734573712423547
3752.7527527527527 0.2157425480020817
3762.7627627627626 0.21415023463384883
3772.772772772773 0.2125688399132399
3782.7827827827828 0.21099840951558385
3792.7927927927926 0.20943899109999886
3802.802802802803 0.20789063357153603
3812.812812812813 0.20635338640112583
3822.8228228228227 0.2048272990010928
3832.832832832833 0.20331242015395554
3842.842842842843 0.20180879749220215
3852.8528528528527 0.20031647702671923
3862.862862862863 0.19883550272154893
3872.872872872873 0.19736591611266474
3882.8828828828828 0.1959077559684712
3892.892892892893 0.1944610579897738
3902.902902902903 0.1930258545469917
3912.912912912913 0.19160217445244174
3922.922922922923 0.1901900427655671
3932.932932932933 0.18878948062904563
3942.942942942943 0.1874005051337668
3952.9529529529527 0.18602312921073566
3962.962962962963 0.1846573615480295
3972.972972972973 0.18330320653099408
3982.982982982983 0.181960664203947
3992.992992992993 0.18062973025171683
4003.003003003003 0.1793103959994298
4013.013013013013 0.17800264842901428
4023.023023023023 0.17670647021097755
4033.033033033033 0.17542183975007336
4043.043043043043 0.1741487312435493
4053.053053053053 0.17288711475073654
4063.063063063063 0.17163695627280703
4073.073073073073 0.17039821784159268
4083.0830830830832 0.1691708576164248
4093.093093093093 0.16795482998801606
4103.103103103103 0.16675008568846308
4113.113113113113 0.1655565719065165
4123.123123123123 0.16437423240730814
4133.133133133133 0.16320300765579532
4143.143143143143 0.1620428349432199
4153.153153153153 0.16089364851594162
4163.163163163163 0.15975537970604434
4173.173173173173 0.1586279570631664
4183.183183183183 0.15751130648704637
4193.193193193193 0.15640535136031697
4203.203203203203 0.15531001268112035
4213.213213213214 0.15422520919515723
4223.223223223224 0.15315085752681126
4233.2332332332335 0.15208687230903153
4243.243243243243 0.151033166311681
4253.253253253253 0.14998965056809185
4263.263263263263 0.14895623449959544
4273.273273273273 0.1479328260378195
4283.283283283283 0.14691933174457156
4293.293293293293 0.14591565692914923
4303.303303303303 0.14492170576293847
4313.313313313313 0.14393738139118273
4323.323323323323 0.14296258604182166
4333.333333333334 0.14199722113131785
4343.343343343344 0.14104118736740343
4353.353353353354 0.14009438484869377
4363.3633633633635 0.13915671316112993
4373.373373373373 0.13822807147122176
4383.383383383383 0.1373083586160768
4393.393393393393 0.13639747319020878
4403.403403403403 0.1354953136291307
4413.413413413413 0.1346017782897436
4423.423423423424 0.133716765527543
4433.4334334334335 0.13284017377066917
4443.443443443443 0.13197190159083458
4453.453453453454 0.13111184777116816
4463.463463463464 0.13025991137102222
4473.473473473474 0.12941599178778532
4483.483483483484 0.12857998881576108
4493.493493493494 0.12775180270216166
4503.503503503503 0.12693133420028
4513.513513513513 0.12611848461989905
4523.523523523523 0.12531315587500197
4533.533533533533 0.12451525052885017
4543.543543543543 0.12372467183649317
4553.553553553554 0.12294132378477997
4563.563563563564 0.12216511112993945
4573.573573573573 0.12139593943279907
4583.583583583584 0.12063371509171165
4593.593593593594 0.11987834537325937
4603.603603603604 0.1191297384408039
4613.613613613614 0.11838780338095396
4623.623623623624 0.1176524502280155
4633.6336336336335 0.11692358998649649
4643.643643643643 0.11620113465173197
4653.653653653653 0.11548499722869537
4663.663663663663 0.11477509174906406
4673.673673673674 0.11407133328660185
4683.683683683684 0.11337363797092424
4693.693693693694 0.11268192299970733
4703.703703703704 0.11199610664940286
4713.713713713714 0.11131610828451981
4723.723723723724 0.11064184836553063
4733.733733733734 0.10997324845546033
4743.743743743744 0.10931023122521558
4753.753753753754 0.10865272045770649
4763.763763763764 0.10800064105081775
4773.773773773773 0.10735391901927784
4783.783783783783 0.10671248149548121
4793.793793793793 0.10607625672930886
4803.803803803804 0.10544517408699776
4813.813813813814 0.10481916404910582
4823.823823823824 0.10419815820761592
4833.833833833834 0.10358208926222498
4843.843843843844 0.10297089101585961
4853.853853853854 0.10236449836945916
4863.863863863864 0.10176284731606738
4873.873873873874 0.10116587493427012
4883.883883883884 0.10057351938101723
4893.893893893894 0.09998571988386427
4903.9039039039035 0.09940241673266918
4913.913913913913 0.09882355127077767
4923.923923923924 0.09824906588572906
4933.933933933934 0.09767890399951569
4943.943943943944 0.09711301005842339
4953.953953953955 0.09655132952248506
4963.9639639639645 0.09599380885457334
4973.973973973974 0.0954403955091598
4983.983983983984 0.0948910379207674
4993.993993993994 0.09434568549214024
5004.004004004004 0.09380428858215478
5014.014014014014 0.0932667984934963
5024.024024024024 0.0927331674601213
5034.0340340340335 0.0922033486345288
5044.044044044043 0.09167729607485937
5054.054054054054 0.09115496473184231
5064.064064064064 0.09063631043560957
5074.074074074074 0.09012128988239368
5084.084084084085 0.0896098606211275
5094.0940940940945 0.0891019810399626
5104.104104104104 0.08859761035271996
5114.114114114114 0.08809670858529076
5124.124124124124 0.08759923656199875
5134.134134134134 0.08710515589194025
5144.144144144144 0.0866144289553128
5154.154154154154 0.08612701888974598
5164.1641641641645 0.08564288957664601
5174.174174174174 0.08516200562756493
5184.184184184184 0.08468433237060526
5194.194194194194 0.08420983583686999
5204.204204204204 0.08373848274696846
5214.214214214214 0.08327024049758529
5224.224224224225 0.08280507714812284
5234.2342342342345 0.08234296140742438
5244.244244244244 0.08188386262058536
5254.254254254254 0.08142775075586126
5264.264264264264 0.0809745963916767
5274.274274274274 0.08052437070374496
5284.284284284285 0.08007704545230107
5294.294294294295 0.07963259296945638
5304.304304304304 0.07919098614667806
5314.314314314314 0.07875219842240012
5324.324324324324 0.0783162037697689
5334.334334334334 0.07788297668452848
5344.344344344345 0.0774524921730492
5354.354354354355 0.07702472574050333
5364.3643643643645 0.07659965337919077
5374.374374374374 0.07617725155701852
5384.384384384384 0.07575749720613555
5394.394394394394 0.07534036771172713
5404.404404404404 0.07492584090096928
5414.414414414415 0.07451389503214652
5424.424424424425 0.07410450878393429
5434.4344344344345 0.07369766124484742
5444.444444444444 0.07329333190285621
5454.454454454454 0.07289150063517172
5464.464464464464 0.07249214769820016
5474.474474474475 0.07209525371766821
5484.484484484485 0.07170079967891939
5494.494494494495 0.07130876691738174
5504.504504504504 0.07091913710920755
5514.514514514514 0.07053189226208488
5524.524524524524 0.07014701470622106
5534.534534534535 0.0697644870854976
5544.544544544545 0.06938429234879687
5554.554554554555 0.0690064137414993
5564.5645645645645 0.06863083479715125
5574.574574574574 0.0682575393293023
5584.584584584584 0.06788651142351174
5594.594594594595 0.06751773542952243
5604.604604604605 0.0671511959536026
5614.614614614615 0.06678687785105232
5624.624624624625 0.06642476621887573
5634.6346346346345 0.06606484638861607
5644.644644644644 0.06570710391935287
5654.654654654654 0.06535152459086019
5664.664664664665 0.06499809439692306
5674.674674674675 0.06464679953881292
5684.684684684685 0.06429762641891765
5694.694694694695 0.06395056163452668
5704.704704704704 0.0636055919717685
5714.714714714714 0.0632627043996988
5724.724724724725 0.06292188606453769
5734.734734734735 0.06258312428405392
5744.744744744745 0.062246406542094325
5754.754754754755 0.06191172048325618
5764.764764764765 0.061579053907701305
5774.774774774774 0.06124839476610893
5784.784784784785 0.060919731154765865
5794.794794794795 0.06059305131079182
5804.804804804805 0.06026834360749776
5814.814814814815 0.05994559654987504
5824.824824824825 0.05962479877021354
5834.8348348348345 0.05930593902384617
5844.844844844845 0.05898900618501847
5854.854854854855 0.05867398924287985
5864.864864864865 0.05836087729759548
5874.874874874875 0.058049659556576295
5884.884884884885 0.05774032533082455
5894.894894894895 0.057432864031393346
5904.9049049049045 0.057127265165957675
5914.914914914915 0.05682351833549463
5924.924924924925 0.05652161323107123
5934.934934934935 0.05622153963073675
5944.944944944945 0.055923287396518646
5954.954954954955 0.05562684647151869
5964.964964964965 0.05533220687710797
5974.974974974975 0.05503935871021857
5984.984984984985 0.05474829214072943
5994.994994994995 0.05445899740894472
6005.005005005005 0.05417146482316236
6015.015015015015 0.05388568475733091
6025.025025025025 0.05360164764879252
6035.035035035035 0.053319343996110005
6045.045045045045 0.053038764356976235
6055.055055055055 0.052759899346203454
6065.065065065065 0.052482739633790944
6075.075075075075 0.05220727594306898
6085.085085085085 0.051933499048916976
6095.0950950950955 0.0516613997760542
6105.105105105105 0.05139096899740117
6115.115115115115 0.05112219763250941
6125.125125125125 0.050855076646058324
6135.135135135135 0.050589597046417446
6145.145145145145 0.05032574988427129
6155.155155155155 0.05006352625130662
6165.1651651651655 0.04980291727895884
6175.175175175175 0.04954391413721706
6185.185185185185 0.0492865080334852
6195.195195195195 0.049030690211498425
6205.205205205205 0.04877645195029234
6215.215215215215 0.04852378456322399
6225.225225225226 0.04827267939704299
6235.235235235235 0.04802312783101115
6245.245245245245 0.047775121276068935
6255.255255255255 0.0475286511740479
6265.265265265265 0.04728370899692654
6275.275275275275 0.047040286246129534
