#lamb flux
1000.0 6.598346215559909e+40
1010.01001001001 6.821400944671289e+40
1020.0200200200201 7.038008580538244e+40
1030.03003003003 7.248028169712186e+40
1040.0400400400401 7.451367157315875e+40
1050.05005005005 7.64797627094119e+40
1060.06006006006 7.837844636699189e+40
1070.07007007007 8.020995166233866e+40
1080.08008008008 8.197480240100332e+40
1090.0900900900901 8.367377701888121e+40
1100.1001001001 8.530787168577658e+40
1110.11011011011 8.687826655580462e+40
1120.1201201201202 8.838629509474965e+40
1130.13013013013 8.983341637366594e+40
1140.1401401401401 9.12211901885303e+40
1150.1501501501502 9.255125484565268e+40
1160.16016016016 9.382530744008627e+40
1170.1701701701702 9.5045086447934e+40
1180.1801801801803 9.621235645193794e+40
1190.1901901901902 9.732889482194706e+40
1200.2002002002002 9.839648017689605e+40
1210.2102102102103 9.941688246199856e+40
1220.2202202202202 1.0039185448336965e+41
1230.2302302302303 1.0132312475172534e+41
1240.2402402402402 1.0221239149676005e+41
1250.2502502502502 1.030584182791372e+41
1260.2602602602603 1.0385408472473591e+41
1270.2702702702702 1.0458507531905256e+41
1280.2802802802803 1.0525312668415293e+41
1290.2902902902902 1.0586000688071623e+41
1300.3003003003003 1.0640750568028514e+41
1310.3103103103103 1.0689742577463391e+41
1320.3203203203202 1.0733157486221905e+41
1330.3303303303303 1.0771175855242702e+41
1340.3403403403404 1.0803977402961029e+41
1350.3503503503503 1.083174044206273e+41
1360.3603603603603 1.0854641381162894e+41
1370.3703703703704 1.0872854286211402e+41
1380.3803803803803 1.088655049667053e+41
1390.3903903903904 1.089589829176383e+41
1400.4004004004005 1.0901062602353309e+41
1410.4104104104103 1.0902204764262178e+41
1420.4204204204204 1.0899482309116736e+41
1430.4304304304305 1.0893048789032893e+41
1440.4404404404404 1.0883053631717854e+41
1450.4504504504505 1.0869642022792815e+41
1460.4604604604606 1.0852954812369214e+41
1470.4704704704704 1.0833128443126064e+41
1480.4804804804805 1.0810294897340861e+41
1490.4904904904906 1.0784581660519384e+41
1500.5005005005005 1.075611169945201e+41
1510.5105105105106 1.0725003452695482e+41
1520.5205205205207 1.0691370831639424e+41
1530.5305305305305 1.0655323230467841e+41
1540.5405405405404 1.0616965543467367e+41
1550.5505505505505 1.0576398188267251e+41
1560.5605605605606 1.0533717133721688e+41
1570.5705705705705 1.0489013931265298e+41
1580.5805805805805 1.0442375748687284e+41
1590.5905905905906 1.0393885405381453e+41
1600.6006006006005 1.0343621408240148e+41
1610.6106106106106 1.0291657987471164e+41
1620.6206206206207 1.0238065131731016e+41
1630.6306306306305 1.0182908622089113e+41
1640.6406406406406 1.0126250064467065e+41
1650.6506506506507 1.006814692034195e+41
1660.6606606606606 1.0008652535664155e+41
1670.6706706706707 9.947816168127639e+40
1680.6806806806808 9.885683013147376e+40
1690.6906906906906 9.822294229155748e+40
1700.7007007007007 9.75770114119634e+40
1710.7107107107108 9.691993675624581e+40
1720.7207207207207 9.625194312419055e+40
1730.7307307307308 9.557314701469232e+40
1740.7407407407409 9.488363683920528e+40
1750.7507507507507 9.41834729350764e+40
1760.7607607607606 9.347268776671207e+40
1770.770770770771 9.275128637046268e+40
1780.7807807807808 9.201924711155424e+40
1790.7907907907907 9.127652283598489e+40
1800.8008008008007 9.05230425172449e+40
1810.8108108108108 8.975871351713889e+40
1820.8208208208207 8.89834246019307e+40
1830.8308308308308 8.819704987933033e+40
1840.8408408408409 8.73994538480804e+40
1850.8508508508507 8.659049777925122e+40
1860.8608608608608 8.577004767542205e+40
1870.870870870871 8.493798407856909e+40
1880.8808808808808 8.409421401652777e+40
1890.890890890891 8.323868538692864e+40
1900.900900900901 8.237140407055493e+40
1910.9109109109108 8.149245403541368e+40
1920.920920920921 8.060202062888595e+40
1930.930930930931 7.970041714682933e+40
1940.940940940941 7.878811460300476e+40
1950.950950950951 7.78657743871779e+40
1960.960960960961 7.693428318511287e+40
1970.970970970971 7.599478913265357e+40
1980.980980980981 7.5048737692234415e+40
1990.9909909909911 7.409790519025768e+40
2001.001001001001 7.314442737359032e+40
2011.0110110110109 7.219081979224641e+40
2021.0210210210212 7.123998637803914e+40
2031.031031031031 7.029521237360194e+40
2041.0410410410411 6.936013789437848e+40
2051.051051051051 6.843870899531868e+40
2061.061061061061 6.753510425068636e+40
2071.071071071071 6.665363656354651e+40
2081.081081081081 6.579863213163821e+40
2091.091091091091 6.497429102538476e+40
2101.101101101101 6.418453638632352e+40
2111.1111111111113 6.343286145293926e+40
2121.121121121121 6.272218506726861e+40
2131.131131131131 6.205472667193229e+40
2141.141141141141 6.143191088069709e+40
2151.151151151151 6.085430951094964e+40
2161.161161161161 6.0321625744767025e+40
2171.1711711711714 5.983272126939615e+40
2181.1811811811813 5.938568337945009e+40
2191.191191191191 5.89779256426045e+40
2201.201201201201 5.860631327104757e+40
2211.2112112112113 5.826730305192882e+40
2221.221221221221 5.7957087609416105e+40
2231.2312312312315 5.767173474569156e+40
2241.2412412412414 5.740731435188359e+40
2251.2512512512512 5.716000754676731e+40
2261.261261261261 5.69261949561863e+40
2271.271271271271 5.670252311744484e+40
2281.2812812812813 5.648594969818679e+40
2291.2912912912916 5.62737694698711e+40
2301.3013013013015 5.606362376329458e+40
2311.3113113113113 5.585349650649445e+40
2321.321321321321 5.564169998545673e+40
2331.331331331331 5.542685326849834e+40
2341.3413413413414 5.520785588500949e+40
2351.3513513513512 5.498385892385334e+40
2361.3613613613616 5.475423527390429e+40
2371.3713713713714 5.45185503088456e+40
2381.3813813813813 5.4276533944622975e+40
2391.391391391391 5.402805468257787e+40
2401.4014014014015 5.377309599697524e+40
2411.4114114114113 5.351173522921796e+40
2421.4214214214217 5.324412500595412e+40
2431.4314314314315 5.297047709646678e+40
2441.4414414414414 5.269104855789339e+40
2451.4514514514512 5.240612997718151e+40
2461.4614614614616 5.211603559943557e+40
2471.4714714714714 5.182109512775026e+40
2481.4814814814818 5.152164698516318e+40
2491.4914914914916 5.121803284143129e+40
2501.5015015015015 5.091059322324724e+40
2511.5115115115113 5.05996640443017e+40
2521.521521521521 5.028557390989032e+40
2531.5315315315315 4.99686420686234e+40
2541.541541541542 4.964917690063876e+40
2551.5515515515517 4.932747484720133e+40
2561.5615615615616 4.900381970053377e+40
2571.5715715715714 4.867848218512462e+40
2581.5815815815813 4.835171977263694e+40
2591.5915915915916 4.802377668199298e+40
2601.6016016016015 4.769488402434515e+40
2611.611611611612 4.736526005960161e+40
2621.6216216216217 4.703511053708545e+40
2631.6316316316315 4.670462909789759e+40
2641.6416416416414 4.637399772075196e+40
2651.6516516516517 4.604338719656055e+40
2661.6616616616616 4.571295761997119e+40
2671.671671671672 4.538285888848645e+40
2681.6816816816818 4.505323120179532e+40
2691.6916916916916 4.4724205555597965e+40
2701.7017017017015 4.439590422555365e+40
2711.711711711712 4.406844123808266e+40
2721.7217217217217 4.374192282564667e+40
2731.731731731732 4.341644786485144e+40
2741.741741741742 4.30921082962952e+40
2751.7517517517517 4.2768989525544282e+40
2761.7617617617616 4.2447170804982605e+40
2771.7717717717715 4.2126725596562893e+40
2781.781781781782 4.180772191570854e+40
2791.791791791792 4.1490222656778554e+40
2801.801801801802 4.11742859006322e+40
2811.811811811812 4.085996520491748e+40
2821.8218218218217 4.054730987776818e+40
2831.8318318318316 4.023636523563244e+40
2841.841841841842 3.992717284597585e+40
2851.851851851852 3.961977075561042e+40
2861.861861861862 3.931419370539473e+40
2871.871871871872 3.90104733320403e+40
2881.881881881882 3.8708638357740493e+40
2891.8918918918916 3.840871476831542e+40
2901.901901901902 3.8110725980540034e+40
2911.911911911912 3.7814692999295975e+40
2921.921921921922 3.752063456515628e+40
2931.931931931932 3.722856729298478e+40
2941.941941941942 3.6938505802099293e+40
2951.9519519519517 3.665046283852006e+40
2961.961961961962 3.6364449389794597e+40
2971.971971971972 3.608047479286224e+40
2981.9819819819822 3.5798546835394286e+40
2991.991991991992 3.5518671851019027e+40
3002.002002002002 3.524085480881656e+40
3012.012012012012 3.496509939744387e+40
3022.0220220220217 3.469140810422794e+40
3032.032032032032 3.446958468307178e+40
3042.0420420420423 3.4193612409264285e+40
3052.052052052052 3.3918018093162606e+40
3062.062062062062 3.364328953674861e+40
3072.072072072072 3.3369842803348855e+40
3082.0820820820823 3.309802999816236e+40
3092.092092092092 3.282814636223059e+40
3102.102102102102 3.256043672258621e+40
3112.1121121121123 3.2295101342081407e+40
3122.122122122122 3.2032301212182003e+40
3132.132132132132 3.1772162831072074e+40
3142.1421421421423 3.151478250794622e+40
3152.152152152152 3.126023023253007e+40
3162.162162162162 3.1008553146796274e+40
3172.1721721721724 3.075977865362785e+40
3182.1821821821823 3.051391719490351e+40
3192.192192192192 3.027096472919629e+40
3202.202202202202 3.0030904937034054e+40
3212.2122122122123 2.9793711179496525e+40
3222.222222222222 2.955934823384263e+40
3232.232232232232 2.932777382788827e+40
3242.2422422422424 2.9098939992996897e+40
3252.252252252252 2.8872794253807203e+40
3262.262262262262 2.864928067120546e+40
3272.2722722722724 2.84283407535529e+40
3282.2822822822823 2.8209914249796533e+40
3292.292292292292 2.7993939836821486e+40
3302.3023023023025 2.778035571223767e+40
3312.3123123123123 2.7569100102727438e+40
3322.322322322322 2.7360111697108226e+40
3332.3323323323325 2.7153330012376573e+40
3342.3423423423424 2.694869570019354e+40
3352.352352352352 2.6746150800537605e+40
3362.3623623623625 2.654563894858612e+40
3372.3723723723724 2.6347105540282094e+40
3382.3823823823823 2.6150497861495853e+40
3392.3923923923926 2.595576518519708e+40
3402.4024024024025 2.5762858840602727e+40
3412.4124124124123 2.5571732257861837e+40
3422.4224224224226 2.5382340991471636e+40
3432.4324324324325 2.519464272528728e+40
3442.4424424424424 2.500859726168856e+40
3452.4524524524522 2.4824166497196137e+40
3462.4624624624626 2.4641314386585433e+40
3472.4724724724724 2.446000689732586e+40
3482.4824824824823 2.428021195597306e+40
3492.4924924924926 2.4101899387962766e+40
3502.5025025025025 2.3925040852092087e+40
3512.5125125125123 2.374960977082706e+40
3522.5225225225226 2.3575581257444176e+40
3532.5325325325325 2.340293204089313e+40
3542.5425425425424 2.323164038916147e+40
3552.5525525525527 2.306168603182457e+40
3562.5625625625626 2.289305008237712e+40
3572.5725725725724 2.2725714960863786e+40
3582.5825825825827 2.2559664317256296e+40
3592.5925925925926 2.239488295596039e+40
3602.6026026026025 2.223135676177921e+40
3612.612612612613 2.2069072627608864e+40
3622.6226226226227 2.1908018384095457e+40
3632.6326326326325 2.1748182731442633e+40
3642.642642642643 2.1589555173521807e+40
3652.6526526526527 2.1432125954404484e+40
3662.6626626626626 2.1275885997407386e+40
3672.672672672673 2.1120826846715443e+40
3682.6826826826828 2.0966940611624656e+40
3692.6926926926926 2.081421991342716e+40
3702.7027027027025 2.066265783494284e+40
3712.712712712713 2.0512247872686984e+40
3722.7227227227227 2.0362983891649717e+40
3732.7327327327325 2.0214860082651128e+40
3742.742742742743 2.006787092222697e+40
3752.7527527527527 1.9922011134990442e+40
3762.7627627627626 1.9777275658408748e+40
3772.772772772773 1.9633659609927604e+40
3782.7827827827828 1.9491158256371338e+40
3792.7927927927926 1.934976698554286e+40
3802.802802802803 1.9209481279944646e+40
3812.812812812813 1.9070296692539513e+40
3822.8228228228227 1.8932208824468503e+40
3832.832832832833 1.8795213304642526e+40
3842.842842842843 1.8659305771123397e+40
3852.8528528528527 1.8524481854210709e+40
3862.862862862863 1.8390737161151018e+40
3872.872872872873 1.825806726238685e+40
3882.8828828828828 1.8126467679264088e+40
3892.892892892893 1.7995933873118364e+40
3902.902902902903 1.786646123566159e+40
3912.912912912913 1.7738045080593042e+40
3922.922922922923 1.7610680636360401e+40
3932.932932932933 1.7484363039998988e+40
3942.942942942943 1.7359087331979353e+40
3952.9529529529527 1.7234848451995976e+40
3962.962962962963 1.7111641235632272e+40
3972.972972972973 1.698946041183948e+40
3982.982982982983 1.6868300601169594e+40
3992.992992992993 1.6748156314704949e+40
4003.003003003003 1.6629021953629949e+40
4013.013013013013 1.6510891809392203e+40
4023.023023023023 1.6393760064403646e+40
4033.033033033033 1.627762079323414e+40
4043.043043043043 1.61624679642525e+40
4053.053053053053 1.6048295441672594e+40
4063.063063063063 1.5935096987963986e+40
4073.073073073073 1.5822866266589202e+40
4083.0830830830832 1.5711596845031711e+40
4093.093093093093 1.560128219808086e+40
4103.103103103103 1.5491915711341967e+40
4113.113113113113 1.5383490684942108e+40
4123.123123123123 1.5276000337403233e+40
4133.133133133133 1.516943780965714e+40
4143.143143143143 1.5063796169177674e+40
4153.153153153153 1.495906841420777e+40
4163.163163163163 1.4855247478060162e+40
4173.173173173173 1.4752326233472497e+40
4183.183183183183 1.465029749699879e+40
4193.193193193193 1.4549154033420591e+40
4203.203203203203 1.4448888560162663e+40
4213.213213213214 1.4349493751699205e+40
4223.223223223224 1.4250962243937644e+40
4233.2332332332335 1.415328663856847e+40
4243.243243243243 1.405645950737043e+40
4253.253253253253 1.396047339646141e+40
4263.263263263263 1.386532083048652e+40
4273.273273273273 1.3770994316735353e+40
4283.283283283283 1.367748634918168e+40
4293.293293293293 1.3584789412439405e+40
4303.303303303303 1.349289598562926e+40
4313.313313313313 1.340179854615167e+40
4323.323323323323 1.3311489573361572e+40
4333.333333333334 1.3221961552141828e+40
4343.343343343344 1.313320697637227e+40
4353.353353353354 1.3045218352291929e+40
4363.3633633633635 1.295798820175266e+40
4373.373373373373 1.2871509065362566e+40
4383.383383383383 1.278577350551824e+40
4393.393393393393 1.2700774109325162e+40
4403.403403403403 1.2616503491405885e+40
4413.413413413413 1.2532954296595962e+40
4423.423423423424 1.2450119202528112e+40
4433.4334334334335 1.2367990922104894e+40
4443.443443443443 1.2286562205860931e+40
4453.453453453454 1.220582584421557e+40
4463.463463463464 1.212577466961737e+40
4473.473473473474 1.2046401558581483e+40
4483.483483483484 1.196769943362202e+40
4493.493493493494 1.188966126508056e+40
4503.503503503503 1.181228007285308e+40
4513.513513513513 1.173554892801702e+40
4523.523523523523 1.1659460954360518e+40
4533.533533533533 1.1584009329816224e+40
4543.543543543543 1.15091872878015e+40
4553.553553553554 1.1434988118467582e+40
4563.563563563564 1.1361405169859918e+40
4573.573573573573 1.128843184899201e+40
4583.583583583584 1.1216061622835195e+40
4593.593593593594 1.1144288019226774e+40
4603.603603603604 1.1073104627698852e+40
4613.613613613614 1.1002505100230456e+40
4623.623623623624 1.0932483151925203e+40
4633.6336336336335 1.0863032561617085e+40
4643.643643643643 1.079414717240674e+40
4653.653653653653 1.0725820892130557e+40
4663.663663663663 1.0658047693765141e+40
4673.673673673674 1.0590821615769323e+40
4683.683683683684 1.0524136762366264e+40
4693.693693693694 1.0457987303767704e+40
4703.703703703704 1.0392367476342875e+40
4713.713713713714 1.0327271582734173e+40
4723.723723723724 1.0262693991921779e+40
4733.733733733734 1.0198629139239452e+40
4743.743743743744 1.0135071526343615e+40
4753.753753753754 1.007201572113773e+40
4763.763763763764 1.0009456357654067e+40
4773.773773773773 9.94738813589475e+39
4783.783783783783 9.885805821634216e+39
4793.793793793793 9.824704246184718e+39
4803.803803803804 9.764078306126866e+39
4813.813813813814 9.70392296300704e+39
4823.823823823824 9.644233243003282e+39
4833.833833833834 9.585004236561424e+39
4843.843843843844 9.526231098003197e+39
4853.853853853854 9.467909045107726e+39
4863.863863863864 9.410033358668156e+39
4873.873873873874 9.352599382024772e+39
4883.883883883884 9.295602520576167e+39
4893.893893893894 9.239038241269813e+39
4903.9039039039035 9.18290207207342e+39
4913.913913913913 9.127189601428393e+39
4923.923923923924 9.07189647768667e+39
4933.933933933934 9.017018408532204e+39
4943.943943943944 8.962551160388149e+39
4953.953953953955 8.908490557811092e+39
4963.9639639639645 8.854832482873286e+39
4973.973973973974 8.801572874533929e+39
4983.983983983984 8.748707728000665e+39
4993.993993993994 8.696233094082125e+39
5004.004004004004 8.644145078532503e+39
5014.014014014014 8.592439841389166e+39
5024.024024024024 8.541113596303964e+39
5034.0340340340335 8.490162609869302e+39
5044.044044044043 8.439583200939595e+39
5054.054054054054 8.389371739948955e+39
5064.064064064064 8.339524648225829e+39
5074.074074074074 8.290038397305254e+39
5084.084084084085 8.240909508239419e+39
5094.0940940940945 8.19213455090722e+39
5104.104104104104 8.143710143323268e+39
5114.114114114114 8.095632950947103e+39
5124.124124124124 8.047899685993035e+39
5134.134134134134 8.000507106741207e+39
5144.144144144144 7.953452016850317e+39
5154.154154154154 7.906731264672527e+39
5164.1641641641645 7.860341742570957e+39
5174.174174174174 7.814280386240227e+39
5184.184184184184 7.768544174030411e+39
5194.194194194194 7.723130126274762e+39
5204.204204204204 7.678035304621674e+39
5214.214214214214 7.633256811371046e+39
5224.224224224225 7.588791788815498e+39
5234.2342342342345 7.54463741858668e+39
5244.244244244244 7.500790921006925e+39
5254.254254254254 7.457249554446575e+39
5264.264264264264 7.41401061468713e+39
5274.274274274274 7.37107143429054e+39
5284.284284284285 7.328429381974748e+39
5294.294294294295 7.286081861995773e+39
5304.304304304304 7.244026313536409e+39
5314.314314314314 7.202260210101815e+39
5324.324324324324 7.160781058922006e+39
5334.334334334334 7.119586400361558e+39
5344.344344344345 7.078673807336457e+39
5354.354354354355 7.038040884738353e+39
5364.3643643643645 6.997685268866238e+39
5374.374374374374 6.957604626865668e+39
5384.384384384384 6.917796656175584e+39
5394.394394394394 6.878259083982836e+39
5404.404404404404 6.838989666684393e+39
5414.414414414415 6.7999861893574e+39
5424.424424424425 6.761246465237012e+39
5434.4344344344345 6.722768335202079e+39
5444.444444444444 6.684549667268717e+39
5454.454454454454 6.646588356091781e+39
5464.464464464464 6.608882322474198e+39
5474.474474474475 6.571429512884223e+39
5484.484484484485 6.534227898980563e+39
5494.494494494495 6.497275477145387e+39
5504.504504504504 6.460570268025188e+39
5514.514514514514 6.424110316079459e+39
5524.524524524524 6.387893689137209e+39
5534.534534534535 6.351918477961202e+39
5544.544544544545 6.316182795819944e+39
5554.554554554555 6.280684778067333e+39
5564.5645645645645 6.245422581729958e+39
5574.574574574574 6.210394385101969e+39
5584.584584584584 6.175598387347463e+39
5594.594594594595 6.141032808110326e+39
5604.604604604605 6.106695887131507e+39
5614.614614614615 6.072585883873569e+39
5624.624624624625 6.038701077152547e+39
5634.6346346346345 6.00503976477697e+39
5644.644644644644 5.971600263194001e+39
5654.654654654654 5.938380907142637e+39
5664.664664664665 5.905380049313812e+39
5674.674674674675 5.872596060017462e+39
5684.684684684685 5.840027326856292e+39
5694.694694694695 5.807672254406313e+39
5704.704704704704 5.775529263903997e+39
5714.714714714714 5.743596792939933e+39
5724.724724724725 5.71187329515898e+39
5734.734734734735 5.680357239966748e+39
5744.744744744745 5.649047112242339e+39
5754.754754754755 5.617941412057297e+39
5764.764764764765 5.587038654400621e+39
5774.774774774774 5.556337368909774e+39
5784.784784784785 5.525836099607594e+39
5794.794794794795 5.495533404645017e+39
5804.804804804805 5.465427856049502e+39
5814.814814814815 5.43551803947908e+39
5824.824824824825 5.4058025539819326e+39
5834.8348348348345 5.376280011761391e+39
5844.844844844845 5.346949037946303e+39
5854.854854854855 5.317808270366602e+39
5864.864864864865 5.28885635933405e+39
5874.874874874875 5.260091967428056e+39
5884.884884884885 5.23151376928642e+39
5894.894894894895 5.203120451400986e+39
5904.9049049049045 5.1749107119180547e+39
