#lamb flux
1000.0 1.6009621614671161
1010.01001001001 1.618618706834912
1020.0200200200201 1.6328306178692467
1030.03003003003 1.643822128166994
1040.0400400400401 1.6518211442986355
1050.05005005005 1.6570555209974127
1060.06006006006 1.6597500085780956
1070.07007007007 1.6601238064050186
1080.08008008008 1.658388653745087
1090.0900900900901 1.654747389935322
1100.1001001001 1.6493929185712886
1110.11011011011 1.642507514657551
1120.1201201201202 1.6342624187813446
1130.13013013013 1.6248176679371715
1140.1401401401401 1.6143221183157543
1150.1501501501502 1.6029136209415296
1160.16016016016 1.5907193163379794
1170.1701701701702 1.5778560193175368
1180.1801801801803 1.564430669474557
1190.1901901901902 1.5505408269812442
1200.2002002002002 1.5362751968466521
1210.2102102102103 1.521714167913591
1220.2202202202202 1.5069303555640778
1230.2302302302303 1.4919891394140483
1240.2402402402402 1.4769491892387598
1250.2502502502502 1.4617861051952787
1260.2602602602603 1.446323192516608
1270.2702702702702 1.4302116710516066
1280.2802802802803 1.413529958766335
1290.2902902902902 1.396351424339161
1300.3003003003003 1.3787445325154302
1310.3103103103103 1.360773009336484
1320.3203203203202 1.342496022325099
1330.3303303303303 1.3239683713874002
1340.3403403403404 1.3052406868031854
1350.3503503503503 1.2863596312252803
1360.3603603603603 1.2673681030973138
1370.3703703703704 1.2483054393320334
1380.3803803803803 1.229207615473182
1390.3903903903904 1.2101074418973559
1400.4004004004005 1.1910347549023212
1410.4104104104103 1.172016601779288
1420.4204204204204 1.1530774191825008
1430.4304304304305 1.1342392042940266
1440.4404404404404 1.1155216784383262
1450.4504504504505 1.0969424429332402
1460.4604604604606 1.0785171270745788
1470.4704704704704 1.0602595282430023
1480.4804804804805 1.0421817441971104
1490.4904904904906 1.0242942976775076
1500.5005005005005 1.0066062534953204
1510.5105105105106 0.9891253283168092
1520.5205205205207 0.9718579933850258
1530.5305305305305 0.9548095704412181
1540.5405405405404 0.9379843211242301
1550.5505505505505 0.9213855301364854
1560.5605605605606 0.9050155824712879
1570.5705705705705 0.8888760349990472
1580.5805805805805 0.8729676827102961
1590.5905905905906 0.8572906199118394
1600.6006006006005 0.8418442966696082
1610.6106106106106 0.8266275707884416
1620.6206206206207 0.8116387556155793
1630.6306306306305 0.7968756639517405
1640.6406406406406 0.7823356483517283
1650.6506506506507 0.7680156380962012
1660.6606606606606 0.7539121731179854
1670.6706706706707 0.7400214351708719
1680.6806806806808 0.7263392765367164
1690.6906906906906 0.7128612465786569
1700.7007007007007 0.6995845164012954
1710.7107107107108 0.6865115486916497
1720.7207207207207 0.673635911243745
1730.7307307307308 0.6609501212990806
1740.7407407407409 0.6484467355397908
1750.7507507507507 0.6361183521926254
1760.7607607607606 0.6239576155611389
1770.770770770771 0.6119572235373214
1780.7807807807808 0.6001099387426315
1790.7907907907907 0.5884086040598268
1800.8008008008007 0.5768461634407215
1810.8108108108108 0.5654156890096839
1820.8208208208207 0.5541104156253289
1830.8308308308308 0.5429237842084169
1840.8408408408409 0.5318494952841456
1850.8508508508507 0.5208815743097912
1860.8608608608608 0.510014450446518
1870.870870870871 0.4992430504632811
1880.8808808808808 0.4885629093993086
1890.890890890891 0.4779702994188705
1900.900900900901 0.4674623779175981
1910.9109109109108 0.4570373553238907
1920.920920920921 0.44669468211553365
1930.930930930931 0.43643525327198424
1940.940940940941 0.4262616266450568
1950.950950950951 0.4161782495132451
1960.960960960961 0.40619168488514173
1970.970970970971 0.396310825996203
1980.980980980981 0.3865470840526533
1990.9909909909911 0.3769145308873512
2001.001001001001 0.3674299752138145
2011.0110110110109 0.35811294914505903
2021.0210210210212 0.34898558124360074
2031.031031031031 0.3400723342894666
2041.0410410410411 0.33139959082007514
2051.051051051051 0.3229950776997021
2061.061061061061 0.314887132493021
2071.071071071071 0.3071038286517812
2081.081081081081 0.29967199222880997
2091.091091091091 0.29261615816074604
2101.101101101101 0.2859575268748598
2111.1111111111113 0.2797129898226011
2121.121121121121 0.273894293710338
2131.131131131131 0.26850740675246537
2141.141141141141 0.26355213645233433
2151.151151151151 0.2590220286826183
2161.161161161161 0.25490455464567563
2171.1711711711714 0.2511815686493205
2181.1811811811813 0.24782999852460452
2191.191191191191 0.24482271439052564
2201.201201201201 0.24212951187272666
2211.2112112112113 0.2397181432751522
2221.221221221221 0.23755533404411594
2231.2312312312315 0.23560773083869546
2241.2412412412414 0.23384273986830129
2251.2512512512512 0.23222922800830986
2261.261261261261 0.23073807286733458
2271.271271271271 0.22934256013902402
2281.2812812812813 0.2280186363775606
2291.2912912912916 0.22674503240468055
2301.3013013013015 0.22550327689762922
2311.3113113113113 0.22427762161995535
2321.321321321321 0.22305489970833292
2331.331331331331 0.22182433695102424
2341.3413413413414 0.22057733360294784
2351.3513513513512 0.21930723142514635
2361.3613613613616 0.21800907766409877
2371.3713713713714 0.2166793948494045
2381.3813813813813 0.2153159627454249
2391.391391391391 0.21391761662603645
2401.4014014014015 0.21248406427701083
2411.4114114114113 0.2110157227536266
2421.4214214214217 0.20951357489389263
2431.4314314314315 0.20797904486000932
2441.4414414414414 0.20641389149868514
2451.4514514514512 0.20482011802289524
2461.4614614614616 0.2031998963771128
2471.4714714714714 0.20155550461526403
2481.4814814814818 0.19988927566305126
2491.4914914914916 0.1982035559280938
2501.5015015015015 0.19650067234277369
2511.5115115115113 0.19478290656110692
2521.521521521521 0.19305247517190569
2531.5315315315315 0.1913115149287757
2541.541541541542 0.18956207212844745
2551.5515515515517 0.18780609538980653
2561.5615615615616 0.18604543119536943
2571.5715715715714 0.18428182165441456
2581.5815815815813 0.18251690403271206
2591.5915915915916 0.1807522116684497
2601.6016016016015 0.1789891759583532
2611.611611611612 0.17722912915315087
2621.6216216216217 0.17547330774843273
2631.6316316316315 0.17372285629659637
2641.6416416416414 0.1719788314989089
2651.6516516516517 0.17024220646458008
2661.6616616616616 0.16851387504694987
2671.671671671672 0.16679465618610476
2681.6816816816818 0.1650852982030858
2691.6916916916916 0.16338648300384304
2701.7017017017015 0.16169883016170644
2711.711711711712 0.16002290085575377
2721.7217217217217 0.15835920164940748
2731.731731731732 0.15670818809916232
2741.741741741742 0.15507026818777897
2751.7517517517517 0.1534458055797648
2761.7617617617616 0.1518351226996876
2771.7717717717715 0.1502385036359517
2781.781781781782 0.14865619687424506
2791.791791791792 0.14708841786602467
2801.801801801802 0.1455353514382293
2811.811811811812 0.14399715405096702
2821.8218218218217 0.1424739559102641
2831.8318318318316 0.14096586294313437
2841.841841841842 0.13947295864226852
2851.851851851852 0.13799530578758046
2861.861861861862 0.13653294805170751
2871.871871871872 0.1350859114963655
2881.881881881882 0.1336542059662186
2891.8918918918916 0.1322378263866574
2901.901901901902 0.1308367539715886
2911.911911911912 0.12945095734704665
2921.921921921922 0.1280803935961303
2931.931931931932 0.12672500923046928
2941.941941941942 0.12538474109312742
2951.9519519519517 0.1240595171975582
2961.961961961962 0.12274925750694933
2971.971971971972 0.12145387465802032
2981.9819819819822 0.12017327463308126
2991.991991991992 0.11890735738391234
3002.002002002002 0.1176560174107916
3012.012012012012 0.116419144299777
3022.0220220220217 0.11519662322114048
3032.032032032032 0.11429679988854223
3042.0420420420423 0.11306217015272702
3052.052052052052 0.11183135113674884
3062.062062062062 0.11060730808351221
3072.072072072072 0.10939253493615105
3082.0820820820823 0.10818910795844737
3092.092092092092 0.10699873457940862
3102.102102102102 0.10582279770117174
3112.1121121121123 0.10466239574024273
3122.122122122122 0.10351837868903765
3132.132132132132 0.10239138049106608
3142.1421421421423 0.10128184802155675
3152.152152152152 0.10019006695800474
3162.162162162162 0.09911618481374454
3172.1721721721724 0.09806023139355265
3182.1821821821823 0.09702213691450608
3192.192192192192 0.09600174801867249
3202.202202202202 0.09499884188727849
3212.2122122122123 0.09401313864924526
3222.222222222222 0.09304431226070989
3232.232232232232 0.09209200001658947
3242.2422422422424 0.09115581084053848
3252.252252252252 0.09023533248587508
3262.262262262262 0.08933013776726101
3272.2722722722724 0.0884397899311101
3282.2822822822823 0.08756384726185854
3292.292292292292 0.08670186701132535
3302.3023023023025 0.08585340872937262
3312.3123123123123 0.08501803706589368
3322.322322322322 0.08419532410675756
3332.3323323323325 0.08338485129965595
3342.3423423423424 0.08258621101978636
3352.352352352352 0.08179900781989284
3362.3623623623625 0.0810228594043358
3372.3723723723724 0.08025739736250634
3382.3823823823823 0.0795022676930024
3392.3923923923926 0.07875713114650053
3402.4024024024025 0.07802166341213226
3412.4124124124123 0.07729555516939139
3422.4224224224226 0.07657851202510702
3432.4324324324325 0.07587025435279404
3442.4424424424424 0.07517051704970786
3452.4524524524522 0.07447904922515851
3462.4624624624626 0.07379561383205765
3472.4724724724724 0.07311998725226078
3482.4824824824823 0.07245195884500545
3492.4924924924926 0.07179133046662478
3502.5025025025025 0.07113791596870775
3512.5125125125123 0.07049154068098559
3522.5225225225226 0.06985204088442105
3532.5325325325325 0.0692192632792645
3542.5425425425424 0.06859306445220373
3552.5525525525527 0.06797331034616556
3562.5625625625626 0.06735987573582047
3572.5725725725724 0.06675264371138859
3582.5825825825827 0.0661515051729436
3592.5925925925926 0.06555635833705112
3602.6026026026025 0.06496710825725929
3612.612612612613 0.06438366635967578
3622.6226226226227 0.06380594999461264
3632.6326326326325 0.06323388200505829
3642.642642642643 0.06266739031253842
3652.6526526526527 0.06210640752075251
3662.6626626626626 0.06155087053721997
3672.672672672673 0.061000720213036555
3682.6826826826828 0.06045590100072273
3692.6926926926926 0.059916360630044
3702.7027027027025 0.059382049801595616
3712.712712712713 0.05885292189786703
3722.7227227227227 0.0583289327114386
3732.7327327327325 0.057810040189904696
3742.742742742743 0.05729620419707688
3752.7527527527527 0.05678738628997848
3762.7627627627626 0.056283549511114604
3772.772772772773 0.05578465819547658
3782.7827827827828 0.055290677791722725
3792.7927927927926 0.05480157469696344
3802.802802802803 0.05431731610457207
3812.812812812813 0.053837869864437435
3822.8228228228227 0.053363204355074245
3832.832832832833 0.0528932883670109
3842.842842842843 0.05242809099687787
3852.8528528528527 0.05196758155163025
3862.862862862863 0.05151172946234553
3872.872872872873 0.05106050420705171
3882.8828828828828 0.050613875242051645
3892.892892892893 0.05017181194122727
3902.902902902903 0.04973428354281929
3912.912912912913 0.0493012591031969
3922.922922922923 0.04887270745714807
3932.932932932933 0.048448597184239224
3942.942942942943 0.04802889658080898
3952.9529529529527 0.04761357363718152
3962.962962962963 0.047202596019701275
3972.972972972973 0.04679593105720899
3982.982982982983 0.04639354573159806
3992.992992992993 0.04599540667210676
4003.003003003003 0.045601480153021144
4013.013013013013 0.04521173209447823
4023.023023023023 0.044826128066078434
4033.033033033033 0.044444633293031284
4043.043043043043 0.0440672126645746
4053.053053053053 0.04369383074442327
4063.063063063063 0.04332445178301868
4073.073073073073 0.04295903973136377
4083.0830830830832 0.042597558256243895
4093.093093093093 0.04223997075664576
4103.103103103103 0.04188624038120052
4113.113113113113 0.041536330046489364
4123.123123123123 0.04119020245606078
4133.133133133133 0.04084782012002162
4143.143143143143 0.04050914537507317
4153.153153153153 0.04017414040487451
4163.163163163163 0.039842767260624724
4173.173173173173 0.03951498788176494
4183.183183183183 0.03919076411670961
4193.193193193193 0.03887005774352447
4203.203203203203 0.038552830490476794
4213.213213213214 0.038239044056390274
4223.223223223224 0.037928660130743905
4233.2332332332335 0.03762164041346041
4243.243243243243 0.037317946634336116
4253.253253253253 0.037017540572069324
4263.263263263263 0.03672038407284968
4273.273273273273 0.03642643906847563
4283.283283283283 0.03613566759397203
4293.293293293293 0.03584803180468345
4303.303303303303 0.03556349399282337
4313.313313313313 0.035282016603462356
4323.323323323323 0.035003562249941965
4333.333333333334 0.034728093728704126
4343.343343343344 0.03445557403352859
4353.353353353354 0.03418596636917319
4363.3633633633635 0.03391923416441461
4373.373373373373 0.033655341084489025
4383.383383383383 0.033394251042934066
4393.393393393393 0.033135928212835265
4403.403403403403 0.03288033703748183
4413.413413413413 0.03262744224043775
4423.423423423424 0.0323772088350359
4433.4334334334335 0.032129602133303556
4443.443443443443 0.03188458775432888
4453.453453453454 0.031642131632078775
4463.463463463464 0.031402200022679815
4473.473473473474 0.031164759511172976
4483.483483483484 0.030929777017756035
4493.493493493494 0.03069721980352523
4503.503503503503 0.030467055475730444
4513.513513513513 0.030239251992557035
4523.523523523523 0.030013777667447922
4533.533533533533 0.029790601172981074
4543.543543543543 0.02956969154431496
4553.553553553554 0.02935101818221768
4563.563563563564 0.029134550855693237
4573.573573573573 0.028920259704219277
4583.583583583584 0.02870811523961085
4593.593593593594 0.02849808834752405
4603.603603603604 0.02829015028861329
4613.613613613614 0.028084272699356778
4623.623623623624 0.02788042759256291
4633.6336336336335 0.027678587357571824
4643.643643643643 0.027478724760165024
4653.653653653653 0.02728081294219589
4663.663663663663 0.0270848254209543
4673.673673673674 0.026890736088277387
4683.683683683684 0.026698519209419097
4693.693693693694 0.026508149421689907
4703.703703703704 0.02631960173287897
4713.713713713714 0.026132851519469626
4723.723723723724 0.02594787452465944
4733.733733733734 0.025764646856195395
4743.743743743744 0.025583144984035078
4753.753753753754 0.02540334573784337
4763.763763763764 0.025225226304335033
4773.773773773773 0.025048764224472133
4783.783783783783 0.024873937390526363
4793.793793793793 0.02470072404301411
4803.803803803804 0.02452910276751367
4813.813813813814 0.024359052491372695
4823.823823823824 0.024190552480313716
4833.833833833834 0.024023582334945705
4843.843843843844 0.02385812198718903
4853.853853853854 0.023694151696620945
4863.863863863864 0.02353165204674854
4873.873873873874 0.02337060394121582
4883.883883883884 0.023210988599951243
4893.893893893894 0.023052787555261755
4903.9039039039035 0.022895982647879353
4913.913913913913 0.022740556022965642
4923.923923923924 0.022586490126079776
4933.933933933934 0.022433767699115148
4943.943943943944 0.022282371776209262
4953.953953953955 0.02213228567963217
4963.9639639639645 0.021983493015657336
4973.973973973974 0.02183597767041951
4983.983983983984 0.021689723805763794
4993.993993993994 0.02154471585508947
5004.004004004004 0.02140093851919258
5014.014014014014 0.021258376762110592
5024.024024024024 0.021117015806972582
5034.0340340340335 0.020976841131858128
5044.044044044043 0.02083783846566774
5054.054054054054 0.020699993784007928
5064.064064064064 0.020563293305093357
5074.074074074074 0.020427723485668788
5084.084084084085 0.0202932710169531
5094.0940940940945 0.020159922820607776
5104.104104104104 0.02002766604473177
5114.114114114114 0.019896488059884934
5124.124124124124 0.019766376455141857
5134.134134134134 0.019637319034177723
5144.144144144144 0.019509303811387966
5154.154154154154 0.019382319008043217
5164.1641641641645 0.01925635304848089
5174.174174174174 0.019131394556334853
5184.184184184184 0.019007432350804213
5194.194194194194 0.018884455442962536
5204.204204204204 0.018762453032108457
5214.214214214214 0.01864141450215856
5224.224224224225 0.01852132941808346
5234.2342342342345 0.018402187522387942
5244.244244244244 0.01828397873163564
5254.254254254254 0.018166693133019177
5264.264264264264 0.018050320980976073
5274.274274274274 0.017934852693851148
5284.284284284285 0.017820278850605605
5294.294294294295 0.017706590187573493
5304.304304304304 0.01759377759526539
5314.314314314314 0.017481832115220197
5324.324324324324 0.017370744936904565
5334.334334334334 0.017260507394660715
5344.344344344345 0.017151110964702294
5354.354354354355 0.01704254726215871
5364.3643643643645 0.016934808038167576
5374.374374374374 0.01682788517701565
5384.384384384384 0.016721770693327833
5394.394394394394 0.016616456729304445
5404.404404404404 0.016511935552006363
5414.414414414415 0.016408199550688073
5424.424424424425 0.016305241234178387
5434.4344344344345 0.01620305322830841
5444.444444444444 0.01610162827338677
5454.454454454454 0.016000959221721733
5464.464464464464 0.015901039035189756
5474.474474474475 0.015801860782850327
5484.484484484485 0.015703417638606675
5494.494494494495 0.015605702878911913
5504.504504504504 0.015508709880520338
5514.514514514514 0.015412432118283316
5524.524524524524 0.01531686316298957
5534.534534534535 0.015221996679249105
5544.544544544545 0.015127826423420587
5554.554554554555 0.01503434624158153
5564.5645645645645 0.014941550067540917
5574.574574574574 0.014849431920893663
5584.584584584584 0.014757985905116525
5594.594594594595 0.014667206205704723
5604.604604604605 0.01457708708834919
5614.614614614615 0.014487622897153227
5624.624624624625 0.014398808052888783
5634.6346346346345 0.014310637051291274
5644.644644644644 0.014223104461392544
5654.654654654654 0.014136204923891565
5664.664664664665 0.01404993314956202
5674.674674674675 0.013964283917696567
5684.684684684685 0.0138792520745868
5694.694694694695 0.013794832532038746
5704.704704704704 0.013711020265923034
5714.714714714714 0.013627810314759297
5724.724724724725 0.013545197778334227
5734.734734734735 0.013463177816352688
5744.744744744745 0.013381745647121286
5754.754754754755 0.013300896546263903
5764.764764764765 0.013220625845468568
5774.774774774774 0.013140928931265117
5784.784784784785 0.013061801243833068
5794.794794794795 0.012983238275839162
5804.804804804805 0.012905235571303988
5814.814814814815 0.01282778872449715
5824.824824824825 0.012750893378860454
5834.8348348348345 0.012674545225958471
5844.844844844845 0.012598740004456082
5854.854854854855 0.012523473499122296
5864.864864864865 0.012448741539859889
5874.874874874875 0.012374540000760392
5884.884884884885 0.012300864799183776
5894.894894894895 0.01222771189486238
5904.9049049049045 0.012155077289028574
5914.914914914915 0.012082957023565623
5924.924924924925 0.012011347180181282
5934.934934934935 0.011940243879603482
5944.944944944945 0.011869643280797917
5954.954954954955 0.011799541580206664
5964.964964964965 0.011729935011007655
5974.974974974975 0.01166081984239439
5984.984984984985 0.011592192378875448
5994.994994994995 0.011524048959593303
6005.005005005005 0.011456385957662059
6015.015015015015 0.011389199779523608
6025.025025025025 0.011322486864321772
6035.035035035035 0.011256243683293976
6045.045045045045 0.01119046673918011
6055.055055055055 0.01112515256564799
6065.065065065065 0.011060297726735216
6075.075075075075 0.010995898816306821
6085.085085085085 0.010931952457528451
6095.0950950950955 0.010868455302354597
6105.105105105105 0.01080540403103155
6115.115115115115 0.010742795351614627
6125.125125125125 0.01068062599949935
6135.135135135135 0.010618892736966255
6145.145145145145 0.010557592352738766
6155.155155155155 0.010496721661554112
6165.1651651651655 0.010436277503746583
6175.175175175175 0.010376256744843076
6185.185185185185 0.010316656275170382
6195.195195195195 0.010257473009474062
6205.205205205205 0.01019870388654843
