#lamb flux
1000.0 6.46004861345089e+40
1010.01001001001 6.6740852345202295e+40
1020.0200200200201 6.881627162261465e+40
1030.03003003003 7.082554470896977e+40
1040.0400400400401 7.276794120095778e+40
1050.05005005005 7.4643148375471e+40
1060.06006006006 7.645122253108128e+40
1070.07007007007 7.819254319723641e+40
1080.08008008008 7.986777043279365e+40
1090.0900900900901 8.147780532906938e+40
1100.1001001001 8.302375374730171e+40
1110.11011011011 8.450689325350395e+40
1120.1201201201202 8.5928643162506215e+40
1130.13013013013 8.729053756508649e+40
1140.1401401401401 8.859420118525528e+40
1150.1501501501502 8.984132789700642e+40
1160.16016016016 9.103366171945408e+40
1170.1701701701702 9.217298010472862e+40
1180.1801801801803 9.32610793330483e+40
1190.1901901901902 9.429976183291529e+40
1200.2002002002002 9.52908252505382e+40
1210.2102102102103 9.623605310058767e+40
1220.2202202202202 9.713720683967525e+40
1230.2302302302303 9.799601921400135e+40
1240.2402402402402 9.881418874308242e+40
1250.2502502502502 9.959057333152046e+40
1260.2602602602603 1.0031834741731225e+41
1270.2702702702702 1.0098374735587756e+41
1280.2802802802803 1.0158852266320904e+41
1290.2902902902902 1.0213444810415036e+41
1300.3003003003003 1.0262331445793558e+41
1310.3103103103103 1.030569202017876e+41
1320.3203203203202 1.0343706405150352e+41
1330.3303303303303 1.0376553829904913e+41
1340.3403403403404 1.0404412288876463e+41
1350.3503503503503 1.0427458017575846e+41
1360.3603603603603 1.044586503123162e+41
1370.3703703703704 1.0459804721060457e+41
1380.3803803803803 1.0469445503253411e+41
1390.3903903903904 1.0474952516030556e+41
1400.4004004004005 1.0476487360383915e+41
1410.4104104104103 1.0474207880396807e+41
1420.4204204204204 1.0468267979289594e+41
1430.4304304304305 1.0458817467598358e+41
1440.4404404404404 1.0446001940140761e+41
1450.4504504504505 1.0429962678660657e+41
1460.4604604604606 1.0410836577270386e+41
1470.4704704704704 1.038875608802496e+41
1480.4804804804805 1.036384918416648e+41
1490.4904904904906 1.0336239338768888e+41
1500.5005005005005 1.0306045516693811e+41
1510.5105105105106 1.027338217793752e+41
1520.5205205205207 1.0238359290607288e+41
1530.5305305305305 1.020108235191348e+41
1540.5405405405404 1.0161652415703012e+41
1550.5505505505505 1.0120166125189492e+41
1560.5605605605606 1.0076715749658505e+41
1570.5705705705705 1.00313892240431e+41
1580.5805805805805 9.984270190375781e+40
1590.5905905905906 9.93543804023178e+40
1600.6006006006005 9.884967957384719e+40
1610.6106106106106 9.832930960003085e+40
1620.6206206206207 9.779393941825371e+40
1630.6306306306305 9.724419711867661e+40
1640.6406406406406 9.668067032341392e+40
1650.6506506506507 9.610390654596696e+40
1660.6606606606606 9.551441353060752e+40
1670.6706706706707 9.491265957318363e+40
1680.6806806806808 9.429907382688006e+40
1690.6906906906906 9.367404659890418e+40
1700.7007007007007 9.303806483242845e+40
1710.7107107107108 9.239198307689717e+40
1720.7207207207207 9.173601239420714e+40
1730.7307307307308 9.107026053253961e+40
1740.7407407407409 9.039480845431945e+40
1750.7507507507507 8.970971037714042e+40
1760.7607607607606 8.901499399247084e+40
1770.770770770771 8.831066091515021e+40
1780.7807807807808 8.75966874284586e+40
1790.7907907907907 8.687302560334036e+40
1800.8008008008007 8.613960488638177e+40
1810.8108108108108 8.539633426949781e+40
1820.8208208208207 8.464310517501324e+40
1830.8308308308308 8.387979521276953e+40
1840.8408408408409 8.310627299065038e+40
1850.8508508508507 8.232240418570779e+40
1860.8608608608608 8.152805910856514e+40
1870.870870870871 8.072312201693018e+40
1880.8808808808808 7.990750245187403e+40
1890.890890890891 7.908114887882229e+40
1900.900900900901 7.824406490832041e+40
1910.9109109109108 7.739632834225848e+40
1920.920920920921 7.653811323033086e+40
1930.930930930931 7.566971501838349e+40
1940.940940940941 7.479157871321502e+40
1950.950950950951 7.390432976555354e+40
1960.960960960961 7.300880707436398e+40
1970.970970970971 7.210609713597075e+40
1980.980980980981 7.119756790371263e+40
1990.9909909909911 7.028490040398437e+40
2001.001001001001 6.937011560655543e+40
2011.0110110110109 6.845559352720346e+40
2021.0210210210212 6.754408112938895e+40
2031.031031031031 6.663868539111424e+40
2041.0410410410411 6.574284802827557e+40
2051.051051051051 6.486029892747856e+40
2061.061061061061 6.399498642091287e+40
2071.071071071071 6.315098415549497e+40
2081.081081081081 6.233237640158244e+40
2091.091091091091 6.154312603919488e+40
2101.101101101101 6.078693187180191e+40
2111.1111111111113 6.006708399217917e+40
2121.121121121121 5.938632728487387e+40
2131.131131131131 5.874674347673288e+40
2141.141141141141 5.814966125966087e+40
2151.151151151151 5.759560192372872e+40
2161.161161161161 5.708426488361489e+40
2171.1711711711714 5.661455386772692e+40
2181.1811811811813 5.618464088006627e+40
2191.191191191191 5.579206185122138e+40
2201.201201201201 5.543383557561383e+40
2211.2112112112113 5.51065963220611e+40
2221.221221221221 5.480673043822942e+40
2231.2312312312315 5.453050820056701e+40
2241.2412412412414 5.427420381791446e+40
2251.2512512512512 5.403419855154894e+40
2261.261261261261 5.380706405005431e+40
2271.271271271271 5.358962495696793e+40
2281.2812812812813 5.337900146076499e+40
2291.2912912912916 5.317263363713333e+40
2301.3013013013015 5.296829017509494e+40
2311.3113113113113 5.276406442798505e+40
2321.321321321321 5.255836076518145e+40
2331.331331331331 5.2349874009114835e+40
2341.3413413413414 5.213756440877744e+40
2351.3513513513512 5.192063019704638e+40
2361.3613613613616 5.169847935924562e+40
2371.3713713713714 5.147070184214148e+40
2381.3813813813813 5.1237043078782375e+40
2391.391391391391 5.099737940624597e+40
2401.4014014014015 5.075169571293745e+40
2411.4114114114113 5.050006546652091e+40
2421.4214214214217 5.024263313661539e+40
2431.4314314314315 4.997959893038804e+40
2441.4414414414414 4.971120569624746e+40
2451.4514514514512 4.943772781362669e+40
2461.4614614614616 4.915946186888326e+40
2471.4714714714714 4.887671891324872e+40
2481.4814814814818 4.858981810418132e+40
2491.4914914914916 4.829908154304696e+40
2501.5015015015015 4.800483013722841e+40
2511.5115115115113 4.77073803316902e+40
2521.521521521521 4.740704157240713e+40
2531.5315315315315 4.710411438101852e+40
2541.541541541542 4.679888893604806e+40
2551.5515515515517 4.649164407070739e+40
2561.5615615615616 4.618264661053305e+40
2571.5715715715714 4.587215098585442e+40
2581.5815815815813 4.556039906439023e+40
2591.5915915915916 4.524762015821916e+40
2601.6016016016015 4.493403116706896e+40
2611.611611611612 4.46198368264518e+40
2621.6216216216217 4.430523003476309e+40
2631.6316316316315 4.39903922381822e+40
2641.6416416416414 4.36754938561805e+40
2651.6516516516517 4.336069473376011e+40
2661.6616616616616 4.3046144609309526e+40
2671.671671671672 4.273198358925305e+40
2681.6816816816818 4.241834262256376e+40
2691.6916916916916 4.210534396976415e+40
2701.7017017017015 4.179310166231367e+40
2711.711711711712 4.14817219493196e+40
2721.7217217217217 4.1171303729350883e+40
2731.731731731732 4.086193896581177e+40
2741.741741741742 4.0553713084878704e+40
2751.7517517517517 4.0246705355434126e+40
2761.7617617617616 3.9940989250775205e+40
2771.7717717717715 3.9636632792138925e+40
2781.781781781782 3.933369887429289e+40
2791.791791791792 3.9032245573594305e+40
2801.801801801802 3.8732326439035527e+40
2811.811811811812 3.8433990766876726e+40
2821.8218218218217 3.8137283859521624e+40
2831.8318318318316 3.7842247269328143e+40
2841.841841841842 3.7548919028064135e+40
2851.851851851852 3.725733386272403e+40
2861.861861861862 3.696752339841798e+40
2871.871871871872 3.667951634903323e+40
2881.881881881882 3.6393338696349175e+40
2891.8918918918916 3.6109013858266896e+40
2901.901901901902 3.582656284678666e+40
2911.911911911912 3.5546004416343216e+40
2921.921921921922 3.526735520307722e+40
2931.931931931932 3.499062985559577e+40
2941.941941941942 3.4715841157743454e+40
2951.9519519519517 3.444300014387919e+40
2961.961961961962 3.4172116207125176e+40
2971.971971971972 3.3903197201027393e+40
2981.9819819819822 3.3636249535041446e+40
2991.991991991992 3.337127826423221e+40
3002.002002002002 3.31082871735522e+40
3012.012012012012 3.2847278857040433e+40
3022.0220220220217 3.2588254792262463e+40
3032.032032032032 3.2377995831491186e+40
3042.0420420420423 3.2116915078720966e+40
3052.052052052052 3.185623312137847e+40
3062.062062062062 3.1596407535220543e+40
3072.072072072072 3.133782843016788e+40
3082.0820820820823 3.1080825777309707e+40
3092.092092092092 3.0825676088331147e+40
3102.102102102102 3.0572608487814806e+40
3112.1121121121123 3.032181021955836e+40
3122.122122122122 3.007343162782204e+40
3132.132132132132 2.982759065351049e+40
3142.1421421421423 2.9584376883891453e+40
3152.152152152152 2.9343855192706683e+40
3162.162162162162 2.9106069005563184e+40
3172.1721721721724 2.8871043223392975e+40
3182.1821821821823 2.863878683461435e+40
3192.192192192192 2.840929524446742e+40
3202.202202202202 2.8182552347876486e+40
3212.2122122122123 2.7958532370137648e+40
3222.222222222222 2.7737201497764263e+40
3232.232232232232 2.7518519319959435e+40
3242.2422422422424 2.7302440099431164e+40
3252.252252252252 2.7088913889624895e+40
3262.262262262262 2.6877887513923327e+40
3272.2722722722724 2.6669305420950974e+40
3282.2822822822823 2.646311042881694e+40
3292.292292292292 2.6259244369932374e+40
3302.3023023023025 2.6057648646939466e+40
3312.3123123123123 2.5858264709284835e+40
3322.322322322322 2.5661034459052183e+40
3332.3323323323325 2.546590059383366e+40
3342.3423423423424 2.5272806893659106e+40
3352.352352352352 2.508169845831056e+40
3362.3623623623625 2.4892521900723614e+40
3372.3723723723724 2.470522550160744e+40
3382.3823823823823 2.451975932990029e+40
3392.3923923923926 2.4336075333211776e+40
3402.4024024024025 2.415412740197977e+40
3412.4124124124123 2.397387141068889e+40
3422.4224224224226 2.37952652391523e+40
3432.4324324324325 2.361826877654629e+40
3442.4424424424424 2.3442843910605514e+40
3452.4524524524522 2.3268954504132014e+40
3462.4624624624626 2.309656636074137e+40
3472.4724724724724 2.2925647181561623e+40
3482.4824824824823 2.2756166514412857e+40
3492.4924924924926 2.258809569682682e+40
3502.5025025025025 2.2421407794112535e+40
3512.5125125125123 2.225607753353658e+40
3522.5225225225226 2.2092081235562165e+40
3532.5325325325325 2.192939674297941e+40
3542.5425425425424 2.1768003348657765e+40
3552.5525525525527 2.1607881722560997e+40
3562.5625625625626 2.1449013838582974e+40
3572.5725725725724 2.1291382901688622e+40
3582.5825825825827 2.1134973275778496e+40
3592.5925925925926 2.0979770412635414e+40
3602.6026026026025 2.0825760782258352e+40
3612.612612612613 2.0672931804840862e+40
3622.6226226226227 2.0521271784608057e+40
3632.6326326326325 2.0370769845688117e+40
3642.642642642643 2.0221415870159932e+40
3652.6526526526527 2.0073200438387822e+40
3662.6626626626626 1.9926114771726982e+40
3672.672672672673 1.9780150677660067e+40
3682.6826826826828 1.9635300497402758e+40
3692.6926926926926 1.949155705599861e+40
3702.7027027027025 1.934891361490614e+40
3712.712712712713 1.920736382706741e+40
3722.7227227227227 1.9066901694434438e+40
3732.7327327327325 1.8927521527918883e+40
3742.742742742743 1.87892179097218e+40
3752.7527527527527 1.865198565799159e+40
3762.7627627627626 1.8515819793752157e+40
3772.772772772773 1.838071551003773e+40
3782.7827827827828 1.8246668143166046e+40
3792.7927927927926 1.8113673146078254e+40
3802.802802802803 1.7981726063671052e+40
3812.812812812813 1.7850822510044468e+40
3822.8228228228227 1.7720958147587318e+40
3832.832832832833 1.7592128667821615e+40
3842.842842842843 1.7464329773926672e+40
3852.8528528528527 1.7337557164864068e+40
3862.862862862863 1.7211806521024756e+40
3872.872872872873 1.7087073491320961e+40
3882.8828828828828 1.6963353681645945e+40
3892.892892892893 1.6840642644627162e+40
3902.902902902903 1.6718935870598604e+40
3912.912912912913 1.659822877972122e+40
3922.922922922923 1.647851671518144e+40
3932.932932932933 1.6359794937400277e+40
3942.942942942943 1.6242058619187325e+40
3952.9529529529527 1.612530284177671e+40
3962.962962962963 1.6009522591683995e+40
3972.972972972973 1.5894712758325436e+40
3982.982982982983 1.578086813234345e+40
3992.992992992993 1.5667983404584506e+40
4003.003003003003 1.555605316567816e+40
4013.013013013013 1.5445071906167873e+40
4023.023023023023 1.5335034017147222e+40
4033.033033033033 1.5225933791356898e+40
4043.043043043043 1.511776542470041e+40
4053.053053053053 1.5010523018138555e+40
4063.063063063063 1.4904200579924906e+40
4073.073073073073 1.479879202814661e+40
4083.0830830830832 1.469429119353697e+40
4093.093093093093 1.4590691822528055e+40
4103.103103103103 1.4487987580513744e+40
4113.113113113113 1.4386172055295402e+40
4123.123123123123 1.4285238760683796e+40
4133.133133133133 1.4185181140233306e+40
4143.143143143143 1.4085992571085496e+40
4153.153153153153 1.3987666367900895e+40
4163.163163163163 1.3890195786859418e+40
4173.173173173173 1.3793574029711252e+40
4183.183183183183 1.3697794247861364e+40
4193.193193193193 1.3602849546472087e+40
4203.203203203203 1.3508732988569542e+40
4213.213213213214 1.3415437599140923e+40
4223.223223223224 1.3322956369210463e+40
4233.2332332332335 1.3231282259883275e+40
4243.243243243243 1.3140408206347204e+40
4253.253253253253 1.3050327121823593e+40
4263.263263263263 1.2961031901459028e+40
4273.273273273273 1.287251542615065e+40
4283.283283283283 1.2784770566298677e+40
4293.293293293293 1.269779018548042e+40
4303.303303303303 1.2611567144040644e+40
4313.313313313313 1.2526094302594055e+40
4323.323323323323 1.24413645254359e+40
4333.333333333334 1.2357370683857692e+40
4343.343343343344 1.227410565936518e+40
4353.353353353354 1.2191562346796422e+40
4363.3633633633635 1.210973365733818e+40
4373.373373373373 1.2028612521439287e+40
4383.383383383383 1.1948191891620031e+40
4393.393393393393 1.1868464745176917e+40
4403.403403403403 1.1789424086782569e+40
4413.413413413413 1.171106295098072e+40
4423.423423423424 1.1633374404576695e+40
4433.4334334334335 1.1556351548923804e+40
4443.443443443443 1.1479987522106496e+40
4453.453453453454 1.1404275501021182e+40
4463.463463463464 1.1329208703356086e+40
4473.473473473474 1.1254780389471057e+40
4483.483483483484 1.1180983864179317e+40
4493.493493493494 1.110781247843235e+40
4503.503503503503 1.10352596309099e+40
4513.513513513513 1.0963318769516872e+40
4523.523523523523 1.0891983392788935e+40
4533.533533533533 1.082124705120909e+40
4543.543543543543 1.0751103348436997e+40
4553.553553553554 1.0681545942453369e+40
4563.563563563564 1.0612568546621616e+40
4573.573573573573 1.0544164930668784e+40
4583.583583583584 1.0476328921588245e+40
4593.593593593594 1.0409054404466283e+40
4603.603603603604 1.034233532323478e+40
4613.613613613614 1.0276165681352531e+40
4623.623623623624 1.0210539542417148e+40
4633.6336336336335 1.014545103071011e+40
4643.643643643643 1.008089433167708e+40
4653.653653653653 1.0016863692345751e+40
4663.663663663663 9.953353421683496e+39
4673.673673673674 9.890357890897031e+39
4683.683683683684 9.827871533676256e+39
4693.693693693694 9.765888846384422e+39
4703.703703703704 9.704404388196775e+39
4713.713713713714 9.643412781189807e+39
4723.723723723724 9.582908710383059e+39
4733.733733733734 9.522886923735552e+39
4743.743743743744 9.463342232098935e+39
4753.753753753754 9.404269509129058e+39
4763.763763763764 9.345663691158086e+39
4773.773773773773 9.287519777028833e+39
4783.783783783783 9.229832827893281e+39
4793.793793793793 9.172597966976926e+39
4803.803803803804 9.115810379310707e+39
4813.813813813814 9.059465311432256e+39
4823.823823823824 9.003558071057971e+39
4833.833833833834 8.948084026727634e+39
4843.843843843844 8.893038607423021e+39
4853.853853853854 8.838417302161995e+39
4863.863863863864 8.784215659569633e+39
4873.873873873874 8.730429287427629e+39
4883.883883883884 8.677053852203505e+39
4893.893893893894 8.624085078560795e+39
4903.9039039039035 8.571518748851599e+39
4913.913913913913 8.519350702592631e+39
4923.923923923924 8.467576835926013e+39
4933.933933933934 8.416193101065998e+39
4943.943943943944 8.365195505732571e+39
4953.953953953955 8.314580112573193e+39
4963.9639639639645 8.264343038573598e+39
4973.973973973974 8.214480454458613e+39
4983.983983983984 8.164988584084026e+39
4993.993993993994 8.115863703820409e+39
5004.004004004004 8.067102141929655e+39
5014.014014014014 8.018700277935279e+39
5024.024024024024 7.970654541987045e+39
5034.0340340340335 7.922961414220948e+39
5044.044044044043 7.875617424115061e+39
5054.054054054054 7.82861914984212e+39
5064.064064064064 7.781963217619445e+39
5074.074074074074 7.735646301056865e+39
5084.084084084085 7.689665120503248e+39
5094.0940940940945 7.644016442392306e+39
5104.104104104104 7.598697078588086e+39
5114.114114114114 7.553703885730845e+39
5124.124124124124 7.509033764583713e+39
5134.134134134134 7.464683659380642e+39
5144.144144144144 7.420650557176174e+39
5154.154154154154 7.37693148719734e+39
5164.1641641641645 7.333523520198222e+39
5174.174174174174 7.29042376781749e+39
5184.184184184184 7.247629381939316e+39
5194.194194194194 7.205137554057994e+39
5204.204204204204 7.16294551464664e+39
5214.214214214214 7.121050532530209e+39
5224.224224224225 7.079449914263161e+39
5234.2342342342345 7.038141003512075e+39
5244.244244244244 6.997121180443377e+39
5254.254254254254 6.956387861116539e+39
5264.264264264264 6.915938496882833e+39
5274.274274274274 6.875770573789987e+39
5284.284284284285 6.835881611992816e+39
5294.294294294295 6.796269165170084e+39
5304.304304304304 6.756930819947683e+39
5314.314314314314 6.71786419532838e+39
5324.324324324324 6.679066942128166e+39
5334.334334334334 6.640536742419383e+39
5344.344344344345 6.602271308980737e+39
5354.354354354355 6.56426838475431e+39
5364.3643643643645 6.526525742309585e+39
5374.374374374374 6.489041183314702e+39
5384.384384384384 6.451812538014858e+39
5394.394394394394 6.414837664718041e+39
5404.404404404404 6.37811444928804e+39
5414.414414414415 6.341640804644893e+39
5424.424424424425 6.305414670272683e+39
5434.4344344344345 6.269434011734782e+39
5444.444444444444 6.233696820196548e+39
5454.454454454454 6.198201111955491e+39
5464.464464464464 6.162944927978879e+39
5474.474474474475 6.127926333448829e+39
5484.484484484485 6.093143417314833e+39
5494.494494494495 6.058594291853731e+39
5504.504504504504 6.024277092237104e+39
5514.514514514514 5.99018997610605e+39
5524.524524524524 5.956331123153342e+39
5534.534534534535 5.922698734712894e+39
5544.544544544545 5.889291033356537e+39
5554.554554554555 5.85610626249801e+39
5564.5645645645645 5.823142686004177e+39
5574.574574574574 5.790398587813386e+39
5584.584584584584 5.757872271560906e+39
5594.594594594595 5.725562060211388e+39
5604.604604604605 5.693466295698367e+39
5614.614614614615 5.66158333857057e+39
5624.624624624625 5.629911567645142e+39
5634.6346346346345 5.598449379667619e+39
5644.644644644644 5.567195188978611e+39
5654.654654654654 5.536147427187103e+39
5664.664664664665 5.505304542850301e+39
5674.674674674675 5.474665001160009e+39
5684.684684684685 5.444227283635315e+39
5694.694694694695 5.41398988782167e+39
5704.704704704704 5.383951326996167e+39
5714.714714714714 5.354110129878983e+39
5724.724724724725 5.324464840350882e+39
5734.734734734735 5.295014017176717e+39
5744.744744744745 5.265756233734814e+39
5754.754754754755 5.2366900777521717e+39
5764.764764764765 5.207814151045404e+39
5774.774774774774 5.1791270692673004e+39
5784.784784784785 5.150627461658944e+39
5794.794794794795 5.1223139708072946e+39
5804.804804804805 5.094185252408139e+39
5814.814814814815 5.0662399750343285e+39
5824.824824824825 5.038476819909231e+39
5834.8348348348345 5.0108944806852414e+39
5844.844844844845 4.9834916632273904e+39
5854.854854854855 4.956267085401808e+39
5864.864864864865 4.929219476869076e+39
5874.874874874875 4.902347578882325e+39
5884.884884884885 4.875650144089999e+39
5894.894894894895 4.849125936343199e+39
5904.9049049049045 4.822773730507529e+39
