#lamb flux
1000.0 1.0189527139981497e+41
1010.01001001001 1.0402567542626069e+41
1020.0200200200201 1.0594154428830022e+41
1030.03003003003 1.0765104326720692e+41
1040.0400400400401 1.0916328521875837e+41
1050.05005005005 1.1048807219324327e+41
1060.06006006006 1.1163566926712962e+41
1070.07007007007 1.1261660941327735e+41
1080.08008008008 1.134415276034164e+41
1090.0900900900901 1.1412102192646308e+41
1100.1001001001 1.146655392740252e+41
1110.11011011011 1.1508528305026903e+41
1120.1201201201202 1.1539014037291705e+41
1130.13013013013 1.155896263168915e+41
1140.1401401401401 1.1569284288856745e+41
1150.1501501501502 1.1570845058808605e+41
1160.16016016016 1.1564465060509444e+41
1170.1701701701702 1.155091758885643e+41
1180.1801801801803 1.153092895258052e+41
1190.1901901901902 1.1505178905361904e+41
1200.2002002002002 1.1474301550182575e+41
1210.2102102102103 1.1438886613365757e+41
1220.2202202202202 1.139948099974537e+41
1230.2302302302303 1.1356590553920604e+41
1240.2402402402402 1.1310681964592915e+41
1250.2502502502502 1.126159256259136e+41
1260.2602602602603 1.1207974723625092e+41
1270.2702702702702 1.1147107686900068e+41
1280.2802802802803 1.1079557807241788e+41
1290.2902902902902 1.1005866739966123e+41
1300.3003003003003 1.092655104383832e+41
1310.3103103103103 1.084210203322566e+41
1320.3203203203202 1.0752985842560784e+41
1330.3303303303303 1.0659643669880397e+41
1340.3403403403404 1.0562492169667443e+41
1350.3503503503503 1.0461923968480794e+41
1360.3603603603603 1.0358308279888275e+41
1370.3703703703704 1.0251991598019035e+41
1380.3803803803803 1.0143298451620394e+41
1390.3903903903904 1.003253220284501e+41
1400.4004004004005 9.919975877114897e+40
1410.4104104104103 9.805893012320012e+40
1420.4204204204204 9.690528517321942e+40
1430.4304304304305 9.574109531261418e+40
1440.4404404404404 9.4568462765257e+40
1450.4504504504505 9.33893289943076e+40
1460.4604604604606 9.220548293729417e+40
1470.4704704704704 9.101856902980629e+40
1480.4804804804805 8.983009498622442e+40
1490.4904904904906 8.864143931291041e+40
1500.5005005005005 8.745385853534077e+40
1510.5105105105106 8.626849412587624e+40
1520.5205205205207 8.508637912332541e+40
1530.5305305305305 8.390844443926768e+40
1540.5405405405404 8.273552484933857e+40
1550.5505505505505 8.156836467042109e+40
1560.5605605605606 8.040762312700025e+40
1570.5705705705705 7.925387941190009e+40
1580.5805805805805 7.810763744828041e+40
1590.5905905905906 7.696933036119549e+40
1600.6006006006005 7.583932466825456e+40
1610.6106106106106 7.471792420003566e+40
1620.6206206206207 7.360537376193301e+40
1630.6306306306305 7.250186255012715e+40
1640.6406406406406 7.1407527335397205e+40
1650.6506506506507 7.032245542961786e+40
1660.6606606606606 6.924668745103742e+40
1670.6706706706707 6.818021990590648e+40
1680.6806806806808 6.712300760576566e+40
1690.6906906906906 6.607496594179982e+40
1700.7007007007007 6.50361496657949e+40
1710.7107107107108 6.400709752261415e+40
1720.7207207207207 6.298751308640217e+40
1730.7307307307308 6.1976988571121145e+40
1740.7407407407409 6.097510625429122e+40
1750.7507507507507 5.998143905725416e+40
1760.7607607607606 5.899555134795463e+40
1770.770770770771 5.801700002300564e+40
1780.7807807807808 5.70453359361275e+40
1790.7907907907907 5.608010575175834e+40
1800.8008008008007 5.512085431571885e+40
1810.8108108108108 5.416712764916161e+40
1820.8208208208207 5.321847668737778e+40
1830.8308308308308 5.227446190088785e+40
1840.8408408408409 5.133465895180997e+40
1850.8508508508507 5.039866555258515e+40
1860.8608608608608 4.946610970499977e+40
1870.870870870871 4.853665950267171e+40
1880.8808808808808 4.761003467652378e+40
1890.890890890891 4.668602004606652e+40
1900.900900900901 4.576448100434424e+40
1910.9109109109108 4.484538110493013e+40
1920.920920920921 4.392880172836902e+40
1930.930930930931 4.3014963675589653e+40
1940.940940940941 4.210425036021281e+40
1950.950950950951 4.119723204541563e+40
1960.960960960961 4.029469029296204e+40
1970.970970970971 3.939764146739628e+40
1980.980980980981 3.850735778172513e+40
1990.9909909909911 3.762538400889975e+40
2001.001001001001 3.6753547657207134e+40
2011.0110110110109 3.5893960173368424e+40
2021.0210210210212 3.5049006663131545e+40
2031.031031031031 3.422132177936376e+40
2041.0410410410411 3.34137498897135e+40
2051.051051051051 3.262928844478441e+40
2061.061061061061 3.1871014627028003e+40
2071.071071071071 3.1141996815529687e+40
2081.081081081081 3.0445194030074483e+40
2091.091091091091 2.978334813288683e+40
2101.101101101101 2.9158874938475303e+40
2111.1111111111113 2.857376127501269e+40
2121.121121121121 2.8029475259417846e+40
2131.131131131131 2.7526896484531555e+40
2141.141141141141 2.7066271481399855e+40
2151.151151151151 2.664719785040283e+40
2161.161161161161 2.6268638095638243e+40
2171.1711711711714 2.5928961753001424e+40
2181.1811811811813 2.5626012183850903e+40
2191.191191191191 2.535719267280168e+40
2201.201201201201 2.511956538932714e+40
2211.2112112112113 2.490995640888618e+40
2221.221221221221 2.472506029611748e+40
2231.2312312312315 2.4561538603960265e+40
2241.2412412412414 2.44161078625299e+40
2251.2512512512512 2.4285614029530295e+40
2261.261261261261 2.4167091774439686e+40
2271.271271271271 2.4057808232388075e+40
2281.2812812812813 2.3955291898025836e+40
2291.2912912912916 2.385734808983087e+40
2301.3013013013015 2.37620628974685e+40
2311.3113113113113 2.366779775581618e+40
2321.321321321321 2.357317681458245e+40
2331.331331331331 2.3477069145359503e+40
2341.3413413413414 2.3378567600996945e+40
2351.3513513513512 2.3276965861515397e+40
2361.3613613613616 2.317173490320819e+40
2371.3713713713714 2.3062499839796592e+40
2381.3813813813813 2.294901782379157e+40
2391.391391391391 2.283115747197906e+40
2401.4014014014015 2.270888009457996e+40
2411.4114114114113 2.2582222862334106e+40
2421.4214214214217 2.24512839360887e+40
2431.4314314314315 2.231620950461706e+40
2441.4414414414414 2.2177182623048095e+40
2451.4514514514512 2.2034413711262647e+40
2461.4614614614616 2.188813255418537e+40
2471.4714714714714 2.1738581640004738e+40
2481.4814814814818 2.1586010674616567e+40
2491.4914914914916 2.1430672118323128e+40
2501.5015015015015 2.1272817601950217e+40
2511.5115115115113 2.1112695092514387e+40
2521.521521521521 2.0950546692255843e+40
2531.5315315315315 2.078660696846647e+40
2541.541541541542 2.0621101724569185e+40
2551.5515515515517 2.0454247135025536e+40
2561.5615615615616 2.0286249177691422e+40
2571.5715715715714 2.0117303307136225e+40
2581.5815815815813 1.9947594321190843e+40
2591.5915915915916 1.9777296380643793e+40
2601.6016016016015 1.9606573148636037e+40
2611.611611611612 1.943557802200823e+40
2621.6216216216217 1.9264454431721903e+40
2631.6316316316315 1.9093336193608518e+40
2641.6416416416414 1.8922347894187413e+40
2651.6516516516517 1.8751605299221531e+40
2661.6616616616616 1.8581215775127272e+40
2671.671671671672 1.8411278715390067e+40
2681.6816816816818 1.824188596582352e+40
2691.6916916916916 1.8073122243899071e+40
2701.7017017017015 1.7905065548514076e+40
2711.711711711712 1.7737787557496854e+40
2721.7217217217217 1.7571354010903673e+40
2731.731731731732 1.7405825078772716e+40
2741.741741741742 1.724125571249012e+40
2751.7517517517517 1.7077695979311935e+40
2761.7617617617616 1.6915191379893767e+40
2771.7717717717715 1.675378314891795e+40
2781.781781781782 1.6593508539092856e+40
2791.791791791792 1.6434401088937106e+40
2801.801801801802 1.627649087486322e+40
2811.811811811812 1.6119804748147932e+40
2821.8218218218217 1.5964366557424667e+40
2831.8318318318316 1.5810197357363295e+40
2841.841841841842 1.5657315604217142e+40
2851.851851851852 1.5505737338919622e+40
2861.861861861862 1.5355476358407216e+40
2871.871871871872 1.5206544375831945e+40
2881.881881881882 1.5058951170308355e+40
2891.8918918918916 1.4912704726818195e+40
2901.901901901902 1.476781136687068e+40
2911.911911911912 1.4624275870490815e+40
2921.921921921922 1.4482101590079927e+40
2931.931931931932 1.434129055666565e+40
2941.941941941942 1.4201843579030345e+40
2951.9519519519517 1.4063760336179854e+40
2961.961961961962 1.3927039463587807e+40
2971.971971971972 1.3791678633624694e+40
2981.9819819819822 1.3657674630556102e+40
2991.991991991992 1.3525023420470558e+40
3002.002002002002 1.3393720216474745e+40
3012.012012012012 1.326375953947217e+40
3022.0220220220217 1.313513527482086e+40
3032.032032032032 1.304304131853241e+40
3042.0420420420423 1.2912477433227906e+40
3052.052052052052 1.2782057836363752e+40
3062.062062062062 1.2652125536208845e+40
3072.072072072072 1.2522970602508612e+40
3082.0820820820823 1.2394836083604925e+40
3092.092092092092 1.2267923408744734e+40
3102.102102102102 1.2142397299357058e+40
3112.1121121121123 1.2018390216878516e+40
3122.122122122122 1.1896006376930023e+40
3132.132132132132 1.1775325360657582e+40
3142.1421421421423 1.1656405354146934e+40
3152.152152152152 1.1539286046243977e+40
3162.162162162162 1.1423991214054904e+40
3172.1721721721724 1.1310531024011689e+40
3182.1821821821823 1.1198904074790075e+40
3192.192192192192 1.1089099206649127e+40
3202.202202202202 1.0981097099993927e+40
3212.2122122122123 1.0874871684196938e+40
3222.222222222222 1.077039137598736e+40
3232.232232232232 1.0667620165057245e+40
3242.2422422422424 1.0566518562956782e+40
3252.252252252252 1.0467044429868537e+40
3262.262262262262 1.0369153692469196e+40
3272.2722722722724 1.0272800964808215e+40
3282.2822822822823 1.0177940082955093e+40
3292.292292292292 1.0084524563088665e+40
3302.3023023023025 9.992507991717536e+39
3312.3123123123123 9.901844355826126e+39
3322.322322322322 9.812488319929953e+39
3332.3323323323325 9.724395456290229e+39
3342.3423423423424 9.637522433876637e+39
3352.352352352352 9.551827171070849e+39
3362.3623623623625 9.467268956568314e+39
3372.3723723723724 9.383808542454193e+39
3382.3823823823823 9.301408212997956e+39
3392.3923923923926 9.220031832324687e+39
3402.4024024024025 9.139644873774344e+39
3412.4124124124123 9.060214433450457e+39
3422.4224224224226 8.981709230182317e+39
3432.4324324324325 8.904099593876459e+39
3442.4424424424424 8.8273574440115e+39
3452.4524524524522 8.751456259831878e+39
3462.4624624624626 8.676371043618642e+39
3472.4724724724724 8.60207827825687e+39
3482.4824824824823 8.52855588017721e+39
3492.4924924924926 8.455783148622465e+39
3502.5025025025025 8.383740712076318e+39
3512.5125125125123 8.31241047259003e+39
3522.5225225225226 8.241775548651953e+39
3532.5325325325325 8.171820217163493e+39
3542.5425425425424 8.10252985501245e+39
3552.5525525525527 8.033890880669573e+39
3562.5625625625626 7.965890696176085e+39
3572.5725725725724 7.898517629837706e+39
3582.5825825825827 7.831760879894435e+39
3592.5925925925926 7.765610459393586e+39
3602.6026026026025 7.700057142456584e+39
3612.612612612613 7.635092412096918e+39
3622.6226226226227 7.570708409717108e+39
3632.6326326326325 7.506897886386331e+39
3642.642642642643 7.443654155977182e+39
3652.6526526526527 7.380971050219082e+39
3662.6626626626626 7.318842875707838e+39
3672.672672672673 7.257264372894688e+39
3682.6826826826828 7.196230677063884e+39
3692.6926926926926 7.135737281295568e+39
3702.7027027027025 7.075780001399779e+39
3712.712712712713 7.016354942798196e+39
3722.7227227227227 6.957458469322026e+39
3732.7327327327325 6.899087173887431e+39
3742.742742742743 6.841237851004385e+39
3752.7527527527527 6.783907471069551e+39
3762.7627627627626 6.727093156389999e+39
3772.772772772773 6.670792158881247e+39
3782.7827827827828 6.615001839380481e+39
3792.7927927927926 6.559719648513946e+39
3802.802802802803 6.504943109056065e+39
3812.812812812813 6.450669799716905e+39
3822.8228228228227 6.396897340294259e+39
3832.832832832833 6.34362337812641e+39
3842.842842842843 6.290845575782035e+39
3852.8528528528527 6.238561599924166e+39
3862.862862862863 6.186769111286076e+39
3872.872872872873 6.135465755697956e+39
3882.8828828828828 6.084649156104399e+39
3892.892892892893 6.034316905514498e+39
3902.902902902903 5.98446656082736e+39
3912.912912912913 5.935095637478058e+39
3922.922922922923 5.88620160485044e+39
3932.932932932933 5.83778188240531e+39
3942.942942942943 5.78983383647412e+39
3952.9529529529527 5.742354777670529e+39
3962.962962962963 5.695341958873988e+39
3972.972972972973 5.648792573741444e+39
3982.982982982983 5.602703755705373e+39
3992.992992992993 5.557072577418178e+39
4003.003003003003 5.511896050605071e+39
4013.013013013013 5.467171126289273e+39
4023.023023023023 5.422894695355487e+39
4033.033033033033 5.379063589419302e+39
4043.043043043043 5.335674581971977e+39
4053.053053053053 5.292724389771935e+39
4063.063063063063 5.250209674455873e+39
4073.073073073073 5.2081270443441046e+39
4083.0830830830832 5.166473056416361e+39
4093.093093093093 5.125244218435797e+39
4103.103103103103 5.084436991200387e+39
4113.113113113113 5.044047790902456e+39
4123.123123123123 5.0040729915782016e+39
4133.133133133133 4.9645089276306964e+39
4143.143143143143 4.925351896410792e+39
4153.153153153153 4.886598160841743e+39
4163.163163163163 4.848243952074345e+39
4173.173173173173 4.810285472160614e+39
4183.183183183183 4.772718896734865e+39
4193.193193193193 4.7355403776921516e+39
4203.203203203203 4.698746045854856e+39
4213.213213213214 4.662332013619131e+39
4223.223223223224 4.6262943775736086e+39
4233.2332332332335 4.590629221083649e+39
4243.243243243243 4.555332616835046e+39
4253.253253253253 4.52040062933182e+39
4263.263263263263 4.4858293173432844e+39
4273.273273273273 4.451614736296218e+39
4283.283283283283 4.417752940608484e+39
4293.293293293293 4.384239985960954e+39
4303.303303303303 4.351071931505048e+39
4313.313313313313 4.318244842003661e+39
4323.323323323323 4.285754789903583e+39
4333.333333333334 4.253597857338028e+39
4343.343343343344 4.2217701380580566e+39
4353.353353353354 4.1902677392921106e+39
4363.3633633633635 4.159086783533135e+39
4373.373373373373 4.128223410253009e+39
4383.383383383383 4.097673777544274e+39
4393.393393393393 4.0674340636893323e+39
4403.403403403403 4.037500468657527e+39
4413.413413413413 4.007869215530666e+39
4423.423423423424 3.978536551857713e+39
4433.4334334334335 3.9494987509395546e+39
4443.443443443443 3.920752113044795e+39
4453.453453453454 3.8922929665577314e+39
4463.463463463464 3.8641176690597815e+39
4473.473473473474 3.836222608345502e+39
4483.483483483484 3.8086042033748156e+39
4493.493493493494 3.781258905162675e+39
4503.503503503503 3.754183197607833e+39
4513.513513513513 3.72737359826217e+39
4523.523523523523 3.7008266590421886e+39
4533.533533533533 3.6745389668843444e+39
4543.543543543543 3.6485071443457624e+39
4553.553553553554 3.6227278501520654e+39
4563.563563563564 3.59719777969396e+39
4573.573573573573 3.57191366547423e+39
4583.583583583584 3.546872277506831e+39
4593.593593593594 3.522070423669749e+39
4603.603603603604 3.497504950013233e+39
4613.613613613614 3.473172741025131e+39
4623.623623623624 3.4490707198548507e+39
4633.6336336336335 3.4251958484976337e+39
4643.643643643643 3.401545127940688e+39
4653.653653653653 3.3781155982727296e+39
4663.663663663663 3.354904338758509e+39
4673.673673673674 3.3319084678797765e+39
4683.683683683684 3.3091251433442135e+39
4693.693693693694 3.286551562063726e+39
4703.703703703704 3.2641849601035546e+39
4713.713713713714 3.2420226126035674e+39
4723.723723723724 3.2200618336730754e+39
4733.733733733734 3.198299976260485e+39
4743.743743743744 3.1767344319991006e+39
4753.753753753754 3.155362631030261e+39
4763.763763763764 3.134182041805085e+39
4773.773773773773 3.1131901708659314e+39
4783.783783783783 3.092384562608804e+39
4793.793793793793 3.0717627990277064e+39
4803.803803803804 3.051322499442083e+39
4813.813813813814 3.031061320208375e+39
4823.823823823824 3.010976954416666e+39
4833.833833833834 2.99106713157341e+39
4843.843843843844 2.971329617271182e+39
4853.853853853854 2.951762212846316e+39
4863.863863863864 2.9323627550253544e+39
4873.873873873874 2.913129115561104e+39
4883.883883883884 2.894059200859137e+39
4893.893893893894 2.8751509515954896e+39
4903.9039039039035 2.8564023423263316e+39
4913.913913913913 2.8378113810903014e+39
4923.923923923924 2.819376109004214e+39
4933.933933933934 2.8010945998528126e+39
4943.943943943944 2.7829649596731564e+39
4953.953953953955 2.764985326334319e+39
4963.9639639639645 2.747153869112928e+39
4973.973973973974 2.729468788265125e+39
4983.983983983984 2.711928314595483e+39
4993.993993993994 2.6945307090233937e+39
5004.004004004004 2.6772742621473903e+39
5014.014014014014 2.660157293807912e+39
5024.024024024024 2.6431781526489058e+39
5034.0340340340335 2.6263352156787416e+39
5044.044044044043 2.609626887830787e+39
5054.054054054054 2.5930516015240783e+39
5064.064064064064 2.5766078162244122e+39
5074.074074074074 2.5602940180062245e+39
5084.084084084085 2.544108719115577e+39
5094.0940940940945 2.528050457534569e+39
5104.104104104104 2.512117796547459e+39
5114.114114114114 2.496309324308777e+39
5124.124124124124 2.480623653413701e+39
5134.134134134134 2.465059420470928e+39
5144.144144144144 2.4496152856782827e+39
5154.154154154154 2.43428993240129e+39
5164.1641641641645 2.419082066754892e+39
5174.174174174174 2.4039904171885408e+39
5184.184184184184 2.389013734074811e+39
5194.194194194194 2.3741507893017114e+39
5204.204204204204 2.3594003758688874e+39
5214.214214214214 2.344761307487794e+39
5224.224224224225 2.330232418186031e+39
5234.2342342342345 2.3158125619159502e+39
5244.244244244244 2.30150061216763e+39
5254.254254254254 2.287295461586352e+39
5264.264264264264 2.273196021594657e+39
5274.274274274274 2.259201222019087e+39
5284.284284284285 2.2453100107216605e+39
5294.294294294295 2.2315213532362065e+39
5304.304304304304 2.217834232409553e+39
5314.314314314314 2.2042476480476945e+39
5324.324324324324 2.1907606165669385e+39
5334.334334334334 2.1773721706501106e+39
5344.344344344345 2.1640813589078172e+39
5354.354354354355 2.1508872455448473e+39
5364.3643643643645 2.1377889100316765e+39
5374.374374374374 2.124785446781156e+39
5384.384384384384 2.1118759648303506e+39
5394.394394394394 2.0990595875275685e+39
5404.404404404404 2.0863354522245593e+39
5414.414414414415 2.0737027099739138e+39
5424.424424424425 2.061160525231631e+39
5434.4344344344345 2.0487080755648486e+39
5444.444444444444 2.0363445513647455e+39
5454.454454454454 2.024069155564583e+39
5464.464464464464 2.011881103362856e+39
5474.474474474475 1.9997796219515552e+39
5484.484484484485 1.9877639502494955e+39
5494.494494494495 1.9758333386406906e+39
5504.504504504504 1.963987048717737e+39
5514.514514514514 1.95222435303017e+39
5524.524524524524 1.940544534837774e+39
5534.534534534535 1.9289468878687727e+39
5544.544544544545 1.917430716082897e+39
5554.554554554555 1.90599533343925e+39
5564.5645645645645 1.8946400636689558e+39
5574.574574574574 1.8833642400525228e+39
5584.584584584584 1.8721672052018834e+39
5594.594594594595 1.861048310847041e+39
5604.604604604605 1.850006917627324e+39
5614.614614614615 1.8390423948871095e+39
5624.624624624625 1.8281541204760447e+39
5634.6346346346345 1.8173414805536652e+39
5644.644644644644 1.8066038693983525e+39
5654.654654654654 1.795940689220608e+39
5664.664664664665 1.785351349980531e+39
5674.674674674675 1.7748352692095082e+39
5684.684684684685 1.7643918718359845e+39
5694.694694694695 1.7540205900153147e+39
5704.704704704704 1.743720862963597e+39
5714.714714714714 1.733492136795447e+39
5724.724724724725 1.723333864365642e+39
5734.734734734735 1.7132455051145747e+39
5744.744744744745 1.70322652491746e+39
5754.754754754755 1.6932763959372222e+39
5764.764764764765 1.683394596481014e+39
5774.774774774774 1.6735806108602946e+39
5784.784784784785 1.663833929254407e+39
5794.794794794795 1.6541540475775955e+39
5804.804804804805 1.6445404673493987e+39
5814.814814814815 1.6349926955683534e+39
5824.824824824825 1.6255102445889636e+39
5834.8348348348345 1.6160926320018364e+39
5844.844844844845 1.606739380516981e+39
5854.854854854855 1.5974500178501457e+39
5864.864864864865 1.5882240766121833e+39
5874.874874874875 1.5790610942013593e+39
5884.884884884885 1.5699606126985497e+39
5894.894894894895 1.5609221787652672e+39
