#lamb flux
1000.0 4.407312832772805e+38
1010.01001001001 4.755046548468442e+38
1020.0200200200201 5.1191664413631755e+38
1030.03003003003 5.49974718142692e+38
1040.0400400400401 5.896833122161947e+38
1050.05005005005 6.310438755064145e+38
1060.06006006006 6.7405492601858324e+38
1070.07007007007 7.187121143773669e+38
1080.08008008008 7.650082954186065e+38
1090.0900900900901 8.129336067566896e+38
1100.1001001001 8.62475553506378e+38
1110.11011011011 9.136190983717983e+38
1120.1201201201202 9.663467563513575e+38
1130.13013013013 1.0206386933450623e+39
1140.1401401401401 1.07647282798938e+39
1150.1501501501502 1.1338249360840025e+39
1160.16016016016 1.1926687570144222e+39
1170.1701701701702 1.2529761016134086e+39
1180.1801801801803 1.3147169609433129e+39
1190.1901901901902 1.3778596155192522e+39
1200.2002002002002 1.442370744530398e+39
1210.2102102102103 1.5082155346526976e+39
1220.2202202202202 1.575357788081288e+39
1230.2302302302303 1.6437600294444313e+39
1240.2402402402402 1.713383611292952e+39
1250.2502502502502 1.7841782700940814e+39
1260.2602602602603 1.8560694662297833e+39
1270.2702702702702 1.928949858180582e+39
1280.2802802802803 2.0027677779325363e+39
1290.2902902902902 2.0774709556661974e+39
1300.3003003003003 2.1530066384614776e+39
1310.3103103103103 2.2293217045997107e+39
1320.3203203203202 2.3063627733042e+39
1330.3303303303303 2.384076309791996e+39
1340.3403403403404 2.4624087255382203e+39
1350.3503503503503 2.5413064736811187e+39
1360.3603603603603 2.620716139520098e+39
1370.3703703703704 2.7005845260809837e+39
1380.3803803803803 2.780858734742734e+39
1390.3903903903904 2.861486240937637e+39
1400.4004004004005 2.9424149649527147e+39
1410.4104104104103 3.023593337874214e+39
1420.4204204204204 3.1049703627289846e+39
1430.4304304304305 3.186495670887123e+39
1440.4404404404404 3.268119573798887e+39
1450.4504504504505 3.3497931101463415e+39
1460.4604604604606 3.4314680884957204e+39
1470.4704704704704 3.5130971255411564e+39
1480.4804804804805 3.594633680033465e+39
1490.4904904904906 3.676032082489585e+39
1500.5005005005005 3.757247560779213e+39
1510.5105105105106 3.83823626168495e+39
1520.5205205205207 3.918955268531106e+39
1530.5305305305305 3.999362614974516e+39
1540.5405405405404 4.07941729504794e+39
1550.5505505505505 4.159079269543321e+39
1560.5605605605606 4.2383094688184865e+39
1570.5705705705705 4.317069792106721e+39
1580.5805805805805 4.3953231034043913e+39
1590.5905905905906 4.4730332240075277e+39
1600.6006006006005 4.5501649217644415e+39
1610.6106106106106 4.6266838971080814e+39
1620.6206206206207 4.7025567659295664e+39
1630.6306306306305 4.777751039353499e+39
1640.6406406406406 4.852235100476902e+39
1650.6506506506507 4.925978178137633e+39
1660.6606606606606 4.9989503177859385e+39
1670.6706706706707 5.0711223495452266e+39
1680.6806806806808 5.142465853567045e+39
1690.6906906906906 5.212953122811953e+39
1700.7007007007007 5.282558736337404e+39
1710.7107107107108 5.351262973709752e+39
1720.7207207207207 5.4190397115410946e+39
1730.7307307307308 5.485862483600242e+39
1740.7407407407409 5.551705333316104e+39
1750.7507507507507 5.61654276963885e+39
1760.7607607607606 5.680349723067499e+39
1770.770770770771 5.743101502861432e+39
1780.7807807807808 5.804773756725619e+39
1790.7907907907907 5.865342434594223e+39
1800.8008008008007 5.924783758545835e+39
1810.8108108108108 5.983074201376525e+39
1820.8208208208207 6.040190476946425e+39
1830.8308308308308 6.096109546110766e+39
1840.8408408408409 6.150808642855043e+39
1850.8508508508507 6.20426532617736e+39
1860.8608608608608 6.256457564291336e+39
1870.870870870871 6.307363858838401e+39
1880.8808808808808 6.356963417955235e+39
1890.890890890891 6.405236388168044e+39
1900.900900900901 6.452164156067015e+39
1910.9109109109108 6.497729731386778e+39
1920.920920920921 6.541918223252768e+39
1930.930930930931 6.584717420645575e+39
1940.940940940941 6.62611848620304e+39
1950.950950950951 6.666116768866129e+39
1960.960960960961 6.704712735074724e+39
1970.970970970971 6.741913009728298e+39
1980.980980980981 6.777731506531454e+39
1990.9909909909911 6.812190612451027e+39
2001.001001001001 6.845322373026853e+39
2011.0110110110109 6.877169605013641e+39
2021.0210210210212 6.907786841915342e+39
2031.031031031031 6.937240999003018e+39
2041.0410410410411 6.965611630959406e+39
2051.051051051051 6.99299065170017e+39
2061.061061061061 7.01948139671875e+39
2071.071071071071 7.045196937324045e+39
2081.081081081081 7.070257605334637e+39
2091.091091091091 7.094787754972849e+39
2101.101101101101 7.118911870598966e+39
2111.1111111111113 7.142750214992367e+39
2121.121121121121 7.166414290195285e+39
2131.131131131131 7.190002437307018e+39
2141.141141141141 7.213595920655826e+39
2151.151151151151 7.237255818095815e+39
2161.161161161161 7.261020972827938e+39
2171.1711711711714 7.284907161357894e+39
2181.1811811811813 7.308907512016748e+39
2191.191191191191 7.33299408752003e+39
2201.201201201201 7.357120441438708e+39
2211.2112112112113 7.381224885961694e+39
2221.221221221221 7.405234173905e+39
2231.2312312312315 7.429067301186501e+39
2241.2412412412414 7.452639170441744e+39
2251.2512512512512 7.475863911878555e+39
2261.261261261261 7.498657722565977e+39
2271.271271271271 7.520941150032713e+39
2281.2812812812813 7.542640802827898e+39
2291.2912912912916 7.563690515200882e+39
2301.3013013013015 7.584032023793858e+39
2311.3113113113113 7.60361523192056e+39
2321.321321321321 7.622398143711163e+39
2331.331331331331 7.640346548838139e+39
2341.3413413413414 7.657433531435301e+39
2351.3513513513512 7.673638866583678e+39
2361.3613613613616 7.688948356256828e+39
2371.3713713713714 7.703353145243361e+39
2381.3813813813813 7.716849047151651e+39
2391.391391391391 7.729435901610022e+39
2401.4014014014015 7.741116976372229e+39
2411.4114114114113 7.751898422194438e+39
2421.4214214214217 7.761788783921773e+39
2431.4314314314315 7.770798568009385e+39
2441.4414414414414 7.778939864485901e+39
2451.4514514514512 7.78622601993769e+39
2461.4614614614616 7.792671357263158e+39
2471.4714714714714 7.798290937559568e+39
2481.4814814814818 7.803100359431193e+39
2491.4914914914916 7.807115591146146e+39
2501.5015015015015 7.810352831342397e+39
2511.5115115115113 7.812828394334246e+39
2521.521521521521 7.814558616457133e+39
2531.5315315315315 7.815559780283557e+39
2541.541541541542 7.815848053926297e+39
2551.5515515515517 7.815439443005564e+39
2561.5615615615616 7.814349753187752e+39
2571.5715715715714 7.812594561501643e+39
2581.5815815815813 7.810189194903095e+39
2591.5915915915916 7.807148714791981e+39
2601.6016016016015 7.803487906388193e+39
2611.611611611612 7.799221272048212e+39
2621.6216216216217 7.794363027754685e+39
2631.6316316316315 7.788927102138997e+39
2641.6416416416414 7.782927137506488e+39
2651.6516516516517 7.776376492425552e+39
2661.6616616616616 7.769288245519807e+39
2671.671671671672 7.761675200167553e+39
2681.6816816816818 7.75354988986732e+39
2691.6916916916916 7.744924584073862e+39
2701.7017017017015 7.735811294346556e+39
2711.711711711712 7.726221780683994e+39
2721.7217217217217 7.716167557944072e+39
2731.731731731732 7.705659902270532e+39
2741.741741741742 7.694709857464485e+39
2751.7517517517517 7.683328241253723e+39
2761.7617617617616 7.671525651424594e+39
2771.7717717717715 7.659312471790449e+39
2781.781781781782 7.646698877978701e+39
2791.791791791792 7.633694843024558e+39
2801.801801801802 7.620310142764428e+39
2811.811811811812 7.606554361026006e+39
2821.8218218218217 7.592436894615048e+39
2831.8318318318316 7.577966958101274e+39
2841.841841841842 7.563153588407515e+39
2851.851851851852 7.548005649207832e+39
2861.861861861862 7.532531835140958e+39
2871.871871871872 7.516740675846393e+39
2881.881881881882 7.500640539830743e+39
2891.8918918918916 7.484239638172208e+39
2901.901901901902 7.467546028071079e+39
2911.911911911912 7.450567616254369e+39
2921.921921921922 7.433312162242128e+39
2931.931931931932 7.415787281483333e+39
2941.941941941942 7.398000448368459e+39
2951.9519519519517 7.379958999126012e+39
2961.961961961962 7.361670134609687e+39
2971.971971971972 7.343140922982709e+39
2981.9819819819822 7.324378302305408e+39
2991.991991991992 7.305389083031831e+39
3002.002002002002 7.286179950421003e+39
3012.012012012012 7.266757466867733e+39
3022.0220220220217 7.247128074158059e+39
3032.032032032032 7.229494270727695e+39
3042.0420420420423 7.209197041662604e+39
3052.052052052052 7.188633457167822e+39
3062.062062062062 7.167830236530836e+39
3072.072072072072 7.146811251990189e+39
3082.0820820820823 7.125597801279945e+39
3092.092092092092 7.104208857783218e+39
3102.102102102102 7.082661299843411e+39
3112.1121121121123 7.060970120709382e+39
3122.122122122122 7.039148620514949e+39
3132.132132132132 7.017208581616662e+39
3142.1421421421423 6.995160428537135e+39
3152.152152152152 6.973013373685788e+39
3162.162162162162 6.950775549955173e+39
3172.1721721721724 6.928454131219773e+39
3182.1821821821823 6.906055441695553e+39
3192.192192192192 6.883585055053025e+39
3202.202202202202 6.861047884114197e+39
3212.2122122122123 6.838448261904859e+39
3222.222222222222 6.81579001477748e+39
3232.232232232232 6.793076528267975e+39
3242.2422422422424 6.770310806299915e+39
3252.252252252252 6.747495524303748e+39
3262.262262262262 6.724633076775346e+39
3272.2722722722724 6.701725619758026e+39
3282.2822822822823 6.678775108694531e+39
3292.292292292292 6.655783332060562e+39
3302.3023023023025 6.63275194115908e+39
3312.3123123123123 6.609682476424314e+39
3322.322322322322 6.586576390556638e+39
3332.3323323323325 6.563435068783417e+39
3342.3423423423424 6.540259846517055e+39
3352.352352352352 6.517052024659215e+39
3362.3623623623625 6.493812882779746e+39
3372.3723723723724 6.470543690379759e+39
3382.3823823823823 6.447245716430828e+39
3392.3923923923926 6.423920237366234e+39
3402.4024024024025 6.400568543684949e+39
3412.4124124124123 6.377191945315574e+39
3422.4224224224226 6.353791775874551e+39
3432.4324324324325 6.330369395941359e+39
3442.4424424424424 6.306926195462495e+39
3452.4524524524522 6.283463595386232e+39
3462.4624624624626 6.259983048620887e+39
3472.4724724724724 6.236486040400986e+39
3482.4824824824823 6.21297408813782e+39
3492.4924924924926 6.189448740823984e+39
3502.5025025025025 6.165911578054657e+39
3512.5125125125123 6.142364208722637e+39
3522.5225225225226 6.118808269438372e+39
3532.5325325325325 6.095245422721289e+39
3542.5425425425424 6.071677355004073e+39
3552.5525525525527 6.048105774487161e+39
3562.5625625625626 6.024532408876967e+39
3572.5725725725724 6.000959003037579e+39
3582.5825825825827 5.977387316582585e+39
3592.5925925925926 5.95381912143057e+39
3602.6026026026025 5.930256199345077e+39
3612.612612612613 5.906700339477483e+39
3622.6226226226227 5.883153335928698e+39
3632.6326326326325 5.859616985343833e+39
3642.642642642643 5.836093084551833e+39
3652.6526526526527 5.812583428260569e+39
3662.6626626626626 5.789089806816119e+39
3672.672672672673 5.765614004033823e+39
3682.6826826826828 5.742157795107152e+39
3692.6926926926926 5.718722944599539e+39
3702.7027027027025 5.695311204523057e+39
3712.712712712713 5.671924312507098e+39
3722.7227227227227 5.648563990059309e+39
3732.7327327327325 5.625231940920159e+39
3742.742742742743 5.601929849512169e+39
3752.7527527527527 5.578659379483896e+39
3762.7627627627626 5.555422172348495e+39
3772.772772772773 5.532219846216145e+39
3782.7827827827828 5.509053994619157e+39
3792.7927927927926 5.485926185428389e+39
3802.802802802803 5.462837959859129e+39
3812.812812812813 5.439790831564492e+39
3822.8228228228227 5.416786285814008e+39
3832.832832832833 5.3938257787550926e+39
3842.842842842843 5.370910736754713e+39
3852.8528528528527 5.34804255581865e+39
3862.862862862863 5.325222601085488e+39
3872.872872872873 5.30245220639258e+39
3882.8828828828828 5.2797326739108765e+39
3892.892892892893 5.2570652738459874e+39
3902.902902902903 5.2344512442021557e+39
3912.912912912913 5.2118917906064753e+39
3922.922922922923 5.1893880861902386e+39
3932.932932932933 5.1669412715245845e+39
3942.942942942943 5.1445524546074735e+39
3952.9529529529527 5.1222227108992227e+39
3962.962962962963 5.099953083403779e+39
3972.972972972973 5.077744582792976e+39
3982.982982982983 5.055598187571159e+39
3992.992992992993 5.033514844277486e+39
4003.003003003003 5.0114954677235143e+39
4013.013013013013 4.9895409412634544e+39
4023.023023023023 4.967652117094875e+39
4033.033033033033 4.9458298165874404e+39
4043.043043043043 4.924074830637539e+39
4053.053053053053 4.9023879200466763e+39
4063.063063063063 4.880769815921519e+39
4073.073073073073 4.8592212200937e+39
4083.0830830830832 4.837742805557485e+39
4093.093093093093 4.816335216923465e+39
4103.103103103103 4.794999070886586e+39
4113.113113113113 4.7737349567069325e+39
4123.123123123123 4.752543436701547e+39
4133.133133133133 4.7314250467460116e+39
4143.143143143143 4.7103802967842286e+39
4153.153153153153 4.689409671345145e+39
4163.163163163163 4.668513630065126e+39
4173.173173173173 4.647692608214823e+39
4183.183183183183 4.6269470172293856e+39
4193.193193193193 4.606277245240974e+39
4203.203203203203 4.585683657612585e+39
4213.213213213214 4.565166597472269e+39
4223.223223223224 4.5447263862468407e+39
4233.2332332332335 4.5243633241943053e+39
4243.243243243243 4.504077690934224e+39
4253.253253253253 4.4838697459753076e+39
4263.263263263263 4.463739729239617e+39
4273.273273273273 4.443687861582748e+39
4283.283283283283 4.423714345309414e+39
4293.293293293293 4.40381936468397e+39
4303.303303303303 4.384003086435377e+39
4313.313313313313 4.364265660256171e+39
4323.323323323323 4.344607219295055e+39
4333.333333333334 4.325027880642774e+39
4343.343343343344 4.3055277458109233e+39
4353.353353353354 4.286106901203439e+39
4363.3633633633635 4.266765418580478e+39
4373.373373373373 4.2475033555145174e+39
4383.383383383383 4.2283207558383943e+39
4393.393393393393 4.209217650085218e+39
4403.403403403403 4.190194055919932e+39
4413.413413413413 4.171249978562405e+39
4423.423423423424 4.15238541120204e+39
4433.4334334334335 4.1336003354036985e+39
4443.443443443443 4.114894721504979e+39
4453.453453453454 4.0962685290047546e+39
4463.463463463464 4.077721706943001e+39
4473.473473473474 4.059254194271807e+39
4483.483483483484 4.0408659202177176e+39
4493.493493493494 4.022556804635298e+39
4503.503503503503 4.0043267583520393e+39
4513.513513513513 3.986175683504619e+39
4523.523523523523 3.968103473866554e+39
4533.533533533533 3.950110015167384e+39
4543.543543543543 3.9321951854033666e+39
4553.553553553554 3.9143588551398425e+39
4563.563563563564 3.896600887805351e+39
4573.573573573573 3.8789211399775516e+39
4583.583583583584 3.861319461661118e+39
4593.593593593594 3.843795696557691e+39
4603.603603603604 3.8263496823279784e+39
4613.613613613614 3.8089812508461906e+39
4623.623623623624 3.7916902284468714e+39
4633.6336336336335 3.774476436164295e+39
4643.643643643643 3.7573396899645584e+39
4653.653653653653 3.740279800970472e+39
4663.663663663663 3.723296575679435e+39
4673.673673673674 3.7063898161743996e+39
4683.683683683684 3.68955932032808e+39
4693.693693693694 3.6728048820005446e+39
4703.703703703704 3.6561262912303317e+39
4713.713713713714 3.639523334419258e+39
4723.723723723724 3.6229957945110107e+39
4733.733733733734 3.6065434511637153e+39
4743.743743743744 3.5901660809166207e+39
4753.753753753754 3.573863457351007e+39
4763.763763763764 3.557635351245508e+39
4773.773773773773 3.5414815307259356e+39
4783.783783783783 3.525401761409814e+39
4793.793793793793 3.509395806545704e+39
4803.803803803804 3.4934634271474765e+39
4813.813813813814 3.4776043821236903e+39
4823.823823823824 3.461818428402186e+39
4833.833833833834 3.4461053210500295e+39
4843.843843843844 3.4304648133889694e+39
4853.853853853854 3.4148966571064817e+39
4863.863863863864 3.399400602362588e+39
4873.873873873874 3.383976397892546e+39
4883.883883883884 3.368623791105511e+39
4893.893893893894 3.3533425281793576e+39
4903.9039039039035 3.338132354151715e+39
4913.913913913913 3.322993013007354e+39
4923.923923923924 3.30792424776207e+39
4933.933933933934 3.29292580054313e+39
4943.943943943944 3.277997412666421e+39
4953.953953953955 3.2631388247103964e+39
4963.9639639639645 3.248349776586955e+39
4973.973973973974 3.2336300076092863e+39
4983.983983983984 3.218979256556877e+39
4993.993993993994 3.2043972617377e+39
5004.004004004004 3.189883761047711e+39
5014.014014014014 3.17543849202778e+39
5024.024024024024 3.1610611919180574e+39
5034.0340340340335 3.146751597709986e+39
5044.044044044043 3.132509446195939e+39
5054.054054054054 3.1183344740166326e+39
5064.064064064064 3.104226417706368e+39
5074.074074074074 3.090185013736195e+39
5084.084084084085 3.07620999855506e+39
5094.0940940940945 3.062301108629051e+39
5104.104104104104 3.0484580804787496e+39
5114.114114114114 3.0346806507148285e+39
5124.124124124124 3.020968556071931e+39
5134.134134134134 3.0073215334408835e+39
5144.144144144144 2.99373931989935e+39
5154.154154154154 2.980221652740959e+39
5164.1641641641645 2.966768269502965e+39
5174.174174174174 2.9533789079925355e+39
5184.184184184184 2.940053306311671e+39
5194.194194194194 2.926791202880857e+39
5204.204204204204 2.913592336461488e+39
5214.214214214214 2.900456446177109e+39
5224.224224224225 2.8873832715335253e+39
5234.2342342342345 2.874372552437852e+39
5244.244244244244 2.8614240292165e+39
5254.254254254254 2.8485374426322264e+39
5264.264264264264 2.8357125339001816e+39
5274.274274274274 2.822949044703119e+39
5284.284284284285 2.810246717205705e+39
5294.294294294295 2.797605294068026e+39
5304.304304304304 2.785024518458317e+39
5314.314314314314 2.7725041340649495e+39
5324.324324324324 2.760043885107689e+39
5334.334334334334 2.747643516348319e+39
5344.344344344345 2.7353027731005836e+39
5354.354354354355 2.7230214012395485e+39
5364.3643643643645 2.7107991472103656e+39
5374.374374374374 2.698635758036504e+39
5384.384384384384 2.6865309813274423e+39
5394.394394394394 2.6744845652858804e+39
5404.404404404404 2.6624962587144682e+39
5414.414414414415 2.6505658110221063e+39
5424.424424424425 2.6386929722298188e+39
5434.4344344344345 2.626877492976218e+39
5444.444444444444 2.6151191245226088e+39
5454.454454454454 2.6034176187577396e+39
5464.464464464464 2.5917727282021994e+39
5474.474474474475 2.5801842060125268e+39
5484.484484484485 2.5686518059849935e+39
5494.494494494495 2.557175282559131e+39
5504.504504504504 2.5457543908209848e+39
5514.514514514514 2.5343888865061172e+39
5524.524524524524 2.523078526002395e+39
5534.534534534535 2.5118230663525393e+39
5544.544544544545 2.500622265256493e+39
5554.554554554555 2.4894758810735834e+39
5564.5645645645645 2.4783836728245134e+39
5574.574574574574 2.4673454001931932e+39
5584.584584584584 2.456360823528406e+39
5594.594594594595 2.4454297038453416e+39
5604.604604604605 2.4345518028270013e+39
5614.614614614615 2.4237268828254602e+39
5624.624624624625 2.41295470686304e+39
5634.6346346346345 2.402235038633362e+39
5644.644644644644 2.3915676425023096e+39
5654.654654654654 2.3809522835089055e+39
5664.664664664665 2.3703887273660924e+39
5674.674674674675 2.3598767404614687e+39
5684.684684684685 2.349416089857926e+39
5694.694694694695 2.3390065432942415e+39
5704.704704704704 2.3286478691856205e+39
5714.714714714714 2.3183398366241715e+39
5724.724724724725 2.308082215379359e+39
5734.734734734735 2.2978747758983883e+39
5744.744744744745 2.287717289306593e+39
5754.754754754755 2.277609527407746e+39
5764.764764764765 2.2675512626843863e+39
5774.774774774774 2.257542268298097e+39
5784.784784784785 2.2475823180897678e+39
5794.794794794795 2.237671186579849e+39
5804.804804804805 2.2278086489685797e+39
5814.814814814815 2.2179944811362137e+39
5824.824824824825 2.2082284596432373e+39
5834.8348348348345 2.1985103617305693e+39
5844.844844844845 2.1888399653197758e+39
5854.854854854855 2.1792170490132633e+39
5864.864864864865 2.1696413920944807e+39
5874.874874874875 2.160112774528127e+39
5884.884884884885 2.1506309769603483e+39
5894.894894894895 2.1411957807189492e+39
5904.9049049049045 2.1318069678136028e+39
5914.914914914915 2.1224643209360717e+39
