#lamb flux
1000.0 4.76239263048866
1010.01001001001 4.841705064029245
1020.0200200200201 4.912983580703951
1030.03003003003 4.97657270622698
1040.0400400400401 5.032836237518013
1050.05005005005 5.0821504801310216
1060.06006006006 5.124898428461954
1070.07007007007 5.161464821098293
1080.08008008008 5.192231996901894
1090.0900900900901 5.217576474522105
1100.1001001001 5.237866178081782
1110.11011011011 5.253458233980807
1120.1201201201202 5.26469726747578
1130.13013013013 5.2719141324053
1140.1401401401401 5.2754250127294045
1150.1501501501502 5.275530840127391
1160.16016016016 5.272516977514409
1170.1701701701702 5.2666531238235565
1180.1801801801803 5.258193400637122
1190.1901901901902 5.247376586159327
1200.2002002002002 5.234426466557171
1210.2102102102103 5.219552278832288
1220.2202202202202 5.202949223120952
1230.2302302302303 5.184799025659098
1240.2402402402402 5.165270536612162
1250.2502502502502 5.144329948265492
1260.2602602602603 5.121561797372627
1270.2702702702702 5.0961076390738365
1280.2802802802803 5.068164832296228
1290.2902902902902 5.037922118898127
1300.3003003003003 5.005559605540524
1310.3103103103103 4.971248805747454
1320.3203203203202 4.935152732865808
1330.3303303303303 4.897426035608703
1340.3403403403404 4.858215168772454
1350.3503503503503 4.81765859255576
1360.3603603603603 4.775886994680244
1370.3703703703704 4.733023530215954
1380.3803803803803 4.689184074656139
1390.3903903903904 4.644477486365653
1400.4004004004005 4.59900587504986
1410.4104104104103 4.552864873360255
1420.4204204204204 4.506143909172042
1430.4304304304305 4.458926476442393
1440.4404404404404 4.41129040288924
1450.4504504504505 4.363308113022966
1460.4604604604606 4.315046885321085
1470.4704704704704 4.266569102561838
1480.4804804804805 4.217932494530073
1490.4904904904906 4.1691903724805774
1500.5005005005005 4.120391854892976
1510.5105105105106 4.071582084181009
1520.5205205205207 4.022802434129745
1530.5305305305305 3.974090707929149
1540.5405405405404 3.925481326753843
1550.5505505505505 3.877005508908081
1560.5605605605606 3.8286914396143303
1570.5705705705705 3.78056443157464
1580.5805805805805 3.732647076477855
1590.5905905905906 3.684959387664175
1600.6006006006005 3.637518934193219
1610.6106106106106 3.5903409665937773
1620.6206206206207 3.543438534604486
1630.6306306306305 3.4968225972464237
1640.6406406406406 3.450502125602327
1650.6506506506507 3.404484198715112
1660.6606606606606 3.3587740930618732
1670.6706706706707 3.3133753661115737
1680.6806806806808 3.2682899345367753
1690.6906906906906 3.2235181477255668
1700.7007007007007 3.179064934153496
1710.7107107107108 3.134951737459462
1720.7207207207207 3.0911711252279606
1730.7307307307308 3.0477115628479168
1740.7407407407409 3.004560897273964
1750.7507507507507 2.9617063773056915
1760.7607607607606 2.9191346808152137
1770.770770770771 2.876831950962414
1780.7807807807808 2.834783843835645
1790.7907907907907 2.7929755904153692
1800.8008008008007 2.751392076281929
1810.8108108108108 2.7100179430764872
1820.8208208208207 2.668837716370896
1830.8308308308308 2.6278359652963093
1840.8408408408409 2.5869974999985654
1850.8508508508507 2.546307613694192
1860.8608608608608 2.5057523767372665
1870.870870870871 2.4653189905922086
1880.8808808808808 2.424996209825591
1890.890890890891 2.3847748400274735
1900.900900900901 2.3446483187495515
1910.9109109109108 2.3046133848555033
1920.920920920921 2.2646708388239576
1930.930930930931 2.2248263921966176
1940.940940940941 2.185091598185233
1950.950950950951 2.1454848471382952
1960.960960960961 2.106032399925786
1970.970970970971 2.0667694193362802
1980.980980980981 2.027740944633131
1990.9909909909911 1.989002738292655
2001.001001001001 1.9506219180573219
2011.0110110110109 1.9126772738802842
2021.0210210210212 1.8752591608890405
2031.031031031031 1.8384688594289738
2041.0410410410411 1.8024173049410739
2051.051051051051 1.7672231167353658
2061.061061061061 1.7330098971452401
2071.071071071071 1.6999028303574424
2081.081081081081 1.6680246797248268
2091.091091091091 1.6374913566835683
2101.101101101101 1.608407303838227
2111.1111111111113 1.5808609881808868
2121.121121121121 1.554920827129676
2131.131131131131 1.5306318623376596
2141.141141141141 1.5080134512397099
2151.151151151151 1.487058167449922
2161.161161161161 1.4677319977961054
2171.1711711711714 1.449975809822106
2181.1811811811813 1.433707954629458
2191.191191191191 1.4188277803355076
2201.201201201201 1.4052197716659867
2211.2112112112113 1.3927580062388227
2221.221221221221 1.3813106271000175
2231.2312312312315 1.3707440683413012
2241.2412412412414 1.3609268273384516
2251.2512512512512 1.3517326433731165
2261.261261261261 1.343043008922809
2271.271271271271 1.3347489994839372
2281.2812812812813 1.3267524557760284
2291.2912912912916 1.3189665864960591
2301.3013013013015 1.3113160805513864
2311.3113113113113 1.3037368265243863
2321.321321321321 1.296175336486838
2331.331331331331 1.288587963929338
2341.3413413413414 1.2809399940865396
2351.3513513513512 1.273204671497428
2361.3613613613616 1.2653622158976578
2371.3713713713714 1.2573988646343894
2381.3813813813813 1.2493059684035823
2391.391391391391 1.241079157554506
2401.4014014014015 1.2327175885447277
2411.4114114114113 1.2242232742488142
2421.4214214214217 1.215600497516269
2431.4314314314315 1.206855304387198
2441.4414414414414 1.1979950714507597
2451.4514514514512 1.189028140732565
2461.4614614614616 1.1799635150131909
2471.4714714714714 1.1708106064362058
2481.4814814814818 1.1615790315197967
2491.4914914914916 1.1522784461324007
2501.5015015015015 1.1429184145474376
2511.5115115115113 1.1335083072959313
2521.521521521521 1.1240572231467776
2531.5315315315315 1.114573931134879
2541.541541541542 1.1050668291100612
2551.5515515515517 1.0955439157848328
2561.5615615615616 1.0860127737124525
2571.5715715715714 1.0764805610278736
2581.5815815815813 1.0669540101346886
2591.5915915915916 1.0574394318247342
2601.6016016016015 1.0479427235774843
2611.611611611612 1.0384693810083458
2621.6216216216217 1.0290245116229613
2631.6316316316315 1.0196128501928194
2641.6416416416414 1.0102387752000568
2651.6516516516517 1.0009063259097277
2661.6616616616616 0.9916192197194817
2671.671671671672 0.9823808695122098
2681.6816816816818 0.973194400799418
2691.6916916916916 0.9640626684939468
2701.7017017017015 0.9549882731920654
2711.711711711712 0.9459735768784969
2721.7217217217217 0.9370207179949174
2731.731731731732 0.9281316258340135
2741.741741741742 0.9193080342383408
2751.7517517517517 0.9105514945966077
2761.7617617617616 0.9018633881404993
2771.7717717717715 0.893244937553108
2781.781781781782 0.8846972179060676
2791.791791791792 0.8762211669468845
2801.801801801802 0.8678175947610419
2811.811811811812 0.8594871928355615
2821.8218218218217 0.8512305425519296
2831.8318318318316 0.8430481231369171
2841.841841841842 0.83494031909992
2851.851851851852 0.8269074271851644
2861.861861861862 0.8189496628665389
2871.871871871872 0.8110671664120194
2881.881881881882 0.8032600085437058
2891.8918918918916 0.7955281957184277
2901.901901901902 0.7878716750527268
2911.911911911912 0.7802903389148973
2921.921921921922 0.7727840292055391
2931.931931931932 0.7653525413469361
2941.941941941942 0.7579956280003933
2951.9519519519517 0.7507130025295454
2961.961961961962 0.743504342226561
2971.971971971972 0.7363692913171064
2981.9819819819822 0.7293074637589407
2991.991991991992 0.7223184458480526
3002.002002002002 0.7154017986453444
3012.012012012012 0.7085570602360121
3022.0220220220217 0.701783747832968
3032.032032032032 0.6964047400039433
3042.0420420420423 0.6896003484543689
3052.052052052052 0.6828217557131061
3062.062062062062 0.6760815832219814
3072.072072072072 0.6693904760348002
3082.0820820820823 0.6627573248757257
3092.092092092092 0.6561894681372772
3102.102102102102 0.6496928750321592
3112.1121121121123 0.6432723111624853
3122.122122122122 0.6369314877819034
3132.132132132132 0.630673196010106
3142.1421421421423 0.6244994272227447
3152.152152152152 0.6184114807889
3162.162162162162 0.6124100602678156
3172.1721721721724 0.6064953591102282
3182.1821821821823 0.6006671368403018
3192.192192192192 0.5949247866239868
3202.202202202202 0.5892673950602713
3212.2122122122123 0.5836937949644041
3222.222222222222 0.5782026118475918
3232.232232232232 0.5727923047364462
3242.2422422422424 0.5674612019179216
3252.252252252252 0.5622075321417837
3262.262262262262 0.5570294517628476
3272.2722722722724 0.5519250682592712
3282.2822822822823 0.5468924605209508
3292.292292292292 0.5419296962633987
3302.3023023023025 0.5370348468871987
3312.3123123123123 0.5322060000710005
3322.322322322322 0.5274412703568511
3332.3323323323325 0.5227388079602059
3342.3423423423424 0.5180968060130517
3352.352352352352 0.5135135064269316
3362.3623623623625 0.5089872045431837
3372.3723723723724 0.504516252720096
3382.3823823823823 0.5000990629908405
3392.3923923923926 0.4957341089118232
3402.4024024024025 0.49141992670822554
3412.4124124124123 0.48715511581201787
3422.4224224224226 0.4829383388773558
3432.4324324324325 0.4787683213489715
3442.4424424424424 0.47464385065081205
3452.4524524524522 0.47056377505468383
3462.4624624624626 0.46652700228192295
3472.4724724724724 0.4625324978850754
3482.4824824824823 0.45857928345113663
3492.4924924924926 0.45466643466305207
3502.5025025025025 0.4507930792517966
3512.5125125125123 0.4469583948674534
3522.5225225225226 0.4431616068941921
3532.5325325325325 0.4394019862309032
3542.5425425425424 0.43567884705642723
3552.5525525525527 0.4319915445957901
3562.5625625625626 0.4283394729015962
3572.5725725725724 0.42472206266270524
3582.5825825825827 0.4211387790505183
3592.5925925925926 0.41758911961157236
3602.6026026026025 0.4140726122137115
3612.612612612613 0.41058881305181394
3622.6226226226227 0.4071373047179144
3632.6326326326325 0.4037176943395398
3642.642642642643 0.4003296117891925
3652.6526526526527 0.39697270796710277
3662.6626626626626 0.3936466531586755
3672.672672672673 0.3903511354674526
3682.6826826826828 0.38708585932385287
3692.6926926926926 0.38385054406949076
3702.7027027027025 0.3806449226164667
3712.712712712713 0.3774687401806632
3722.7227227227227 0.37432175308778937
3732.7327327327325 0.371203727650637
3742.742742742743 0.36811443911582886
3752.7527527527527 0.36505367067812666
3762.7627627627626 0.362021212560242
3772.772772772773 0.3590168611559678
3782.7827827827828 0.35604041823435806
3792.7927927927926 0.3530916902026147
3802.802802802803 0.35017048742530027
3812.812812812813 0.34727662359745637
3822.8228228228227 0.34440991516920705
3832.832832832833 0.3415701808194217
3842.842842842843 0.3387572409760286
3852.8528528528527 0.33597091738059903
3862.862862862863 0.3332110326948528
3872.872872872873 0.33047741014678605
3882.8828828828828 0.3277698732141598
3892.892892892893 0.32508824534316755
3902.902902902903 0.3224323497001313
3912.912912912913 0.31980200895416533
3922.922922922923 0.3171970450888017
3932.932932932933 0.31461727924064975
3942.942942942943 0.3120625315632234
3952.9529529529527 0.3095326211141579
3962.962962962963 0.30702736576409917
3972.972972972973 0.30454658212563157
3982.982982982983 0.30209008550067795
3992.992992992993 0.29965768984488267
4003.003003003003 0.2972492077475659
4013.013013013013 0.2948644504258944
4023.023023023023 0.2925032277320016
4033.033033033033 0.29016534817184736
4043.043043043043 0.2878506189346776
4053.053053053053 0.28555884593201103
4063.063063063063 0.28328983384514106
4073.073073073073 0.28104338618020314
4083.0830830830832 0.2788193053299167
4093.093093093093 0.2766173926411687
4103.103103103103 0.2744374484876573
4113.113113113113 0.2722792723468731
4123.123123123123 0.270142662880736
4133.133133133133 0.2680274180192646
4143.143143143143 0.2659333350466931
4153.153153153153 0.2638602106894977
4163.163163163163 0.2618078412058353
4173.173173173173 0.25977602247593673
4183.183183183183 0.2577645500930365
4193.193193193193 0.25577321945445136
4203.203203203203 0.2538018258524592
4213.213213213214 0.25185016456465914
4223.223223223224 0.2499180309435219
4233.2332332332335 0.2480052205048694
4243.243243243243 0.24611152901505062
4253.253253253253 0.24423675257660157
4263.263263263263 0.24238068771220345
4273.273273273273 0.24054313144677383
4283.283283283283 0.2387238813875454
4293.293293293293 0.23692273580200804
4303.303303303303 0.2351394936936029
4313.313313313313 0.2333739548750803
4323.323323323323 0.23162592003944035
4333.333333333334 0.2298951908283973
4343.343343343344 0.228181569898316
4353.353353353354 0.2264848609835821
4363.3633633633635 0.2248048689573801
4373.373373373373 0.22314139988986267
4383.383383383383 0.2214942611037027
4393.393393393393 0.21986326122702962
4403.403403403403 0.21824821024375876
4413.413413413413 0.2166489195413282
4423.423423423424 0.2150652019558671
4433.4334334334335 0.21349687181482063
4443.443443443443 0.21194374497706583
4453.453453453454 0.2104056388705541
4463.463463463464 0.2088823725275256
4473.473473473474 0.20737376661733187
4483.483483483484 0.20587964347692564
4493.493493493494 0.20439982713905902
4503.503503503503 0.20293414335824855
4513.513513513513 0.20148241963456037
4523.523523523523 0.20004448523527044
4533.533533533533 0.1986201712144626
4543.543543543543 0.19720931043061685
4553.553553553554 0.19581173756225334
4563.563563563564 0.1944272891216904
4573.573573573573 0.19305580346697568
4583.583583583584 0.19169712081205467
4593.593593593594 0.1903510832352354
4603.603603603604 0.1890175346860102
4613.613613613614 0.1876963209902964
4623.623623623624 0.18638728985415348
4633.6336336336335 0.18509029086603934
4643.643643643643 0.18380517549766218
4653.653653653653 0.18253179710348566
4663.663663663663 0.18127001091894704
4673.673673673674 0.18001967405744168
4683.683683683684 0.1787806455061314
4693.693693693694 0.1775527861206285
4703.703703703704 0.17633595861861087
4713.713713713714 0.1751300275724193
4723.723723723724 0.1739348594006864
4733.733733733734 0.17275032235904808
4743.743743743744 0.1715762865299865
4753.753753753754 0.1704126238118492
4763.763763763764 0.169259207907093
4773.773773773773 0.1681159143097935
4783.783783783783 0.16698262029246885
4793.793793793793 0.16585920489225361
4803.803803803804 0.16474554889646773
4813.813813813814 0.1636415348276186
4823.823823823824 0.16254704692787386
4833.833833833834 0.16146197114304256
4843.843843843844 0.16038619510610047
4853.853853853854 0.1593196081202929
4863.863863863864 0.15826210114184933
4873.873873873874 0.1572135667623416
4883.883883883884 0.15617389919071623
4893.893893893894 0.15514299423503064
4903.9039039039035 0.15412074928392253
4913.913913913913 0.15310706328783838
4923.923923923924 0.15210183674004926
4933.933933933934 0.15110497165747844
4943.943943943944 0.15011637156136357
4953.953953953955 0.14913594145778056
4963.9639639639645 0.14816358781804737
4973.973973973974 0.1471992185590309
4983.983983983984 0.14624274302337809
4993.993993993994 0.1452940719596889
5004.004004004004 0.14435311750265115
5014.014014014014 0.14341979315315437
5024.024024024024 0.14249401375839948
5034.0340340340335 0.14157569549202084
5044.044044044043 0.1406647558342353
5054.054054054054 0.13976111355203313
5064.064064064064 0.1388646886794252
5074.074074074074 0.1379754024977575
5084.084084084085 0.13709317751610794
5094.0940940940945 0.1362179374517753
5104.104104104104 0.1353496072108721
5114.114114114114 0.13448811286903115
5124.124124124124 0.1336333816522367
5134.134134134134 0.13278534191778837
5144.144144144144 0.1319439231354069
5154.154154154154 0.13110905586849003
5164.1641641641645 0.13028067175552527
5174.174174174174 0.12945870349166835
5184.184184184184 0.1286430848104915
5194.194194194194 0.12783375046590945
5204.204204204204 0.12703063621428962
5214.214214214214 0.12623367879674816
5224.224224224225 0.12544281592164075
5234.2342342342345 0.12465798624725041
5244.244244244244 0.12387912936467606
5254.254254254254 0.12310618578092722
5264.264264264264 0.12233909690222597
5274.274274274274 0.1215778050175217
5284.284284284285 0.12082225328221864
5294.294294294295 0.12007238570212031
5304.304304304304 0.11932814711759243
5314.314314314314 0.11858948318794599
5324.324324324324 0.11785634037604177
5334.334334334334 0.11712866593311833
5344.344344344345 0.11640640788384286
5354.354354354355 0.11568951501158832
5364.3643643643645 0.11497793684393359
5374.374374374374 0.11427162363839145
5384.384384384384 0.11357052636836017
5394.394394394394 0.112874596709302
5404.404404404404 0.11218378702514575
5414.414414414415 0.11149805035491549
5424.424424424425 0.1108173403995823
5434.4344344344345 0.11014161150913988
5444.444444444444 0.10947081866990281
5454.454454454454 0.10880491749202623
5464.464464464464 0.10814386419724578
5474.474474474475 0.10748761560683648
5484.484484484485 0.1068361291297892
5494.494494494495 0.10618936275120326
5504.504504504504 0.10554727502089346
5514.514514514514 0.1049098250422095
5524.524524524524 0.10427697246106662
5534.534534534535 0.1036486774551851
5544.544544544545 0.10302490072353654
5554.554554554555 0.10240560347599517
5564.5645645645645 0.10179074742319187
5574.574574574574 0.10118029476656906
5584.584584584584 0.10057420818863365
5594.594594594595 0.09997245084340572
5604.604604604605 0.09937498634706214
5614.614614614615 0.09878177876876976
5624.624624624625 0.09819279262170895
5634.6346346346345 0.09760799285428287
5644.644644644644 0.09702734484151075
5654.654654654654 0.0964508143766027
5664.664664664665 0.09587836766271284
5674.674674674675 0.09530997130486997
5684.684684684685 0.09474559230208034
5694.694694694695 0.09418519803960257
5704.704704704704 0.09362875628139064
5714.714714714714 0.09307623516270273
5724.724724724725 0.0925276031828736
5734.734734734735 0.09198282919824685
5744.744744744745 0.09144188241526591
5754.754754754755 0.09090473238371952
5764.764764764765 0.09037134899014047
5774.774774774774 0.08984170245135437
5784.784784784785 0.08931576330817514
5794.794794794795 0.08879350241924608
5804.804804804805 0.08827489095502267
5814.814814814815 0.087759900391895
5824.824824824825 0.08724850250644745
5834.8348348348345 0.08674066936985217
5844.844844844845 0.08623637334239548
5854.854854854855 0.08573558706813281
5864.864864864865 0.08523828346967034
5874.874874874875 0.084744435743072
5884.884884884885 0.08425401735288733
5894.894894894895 0.08376700202729923
5904.9049049049045 0.08328336375338868
5914.914914914915 0.08280307677251413
5924.924924924925 0.0823261155758032
5934.934934934935 0.08185245489975353
5944.944944944945 0.0813820697219425
5954.954954954955 0.08091493525684103
5964.964964964965 0.08045102695173106
5974.974974974975 0.07999032048272345
5984.984984984985 0.07953279175087473
5994.994994994995 0.07907841687839975
6005.005005005005 0.078627172204979
6015.015015015015 0.07817903428415787
6025.025025025025 0.07773397987983567
6035.035035035035 0.07729198596284292
6045.045045045045 0.07685302970760434
6055.055055055055 0.07641708848888576
6065.065065065065 0.0759841398786229
6075.075075075075 0.07555416164283028
6085.085085085085 0.07512713173858795
6095.0950950950955 0.07470302831110483
6105.105105105105 0.07428182969085591
6115.115115115115 0.07386351439079239
6125.125125125125 0.07344806110362212
6135.135135135135 0.07303544869915965
6145.145145145145 0.07262565622174294
6155.155155155155 0.07221866288771606
6165.1651651651655 0.07181444808297562
6175.175175175175 0.07141299136057962
6185.185185185185 0.07101427243841678
6195.195195195195 0.0706182711969354
6205.205205205205 0.07022496767692933
6215.215215215215 0.06983434207738035
6225.225225225226 0.06944637475335516
6235.235235235235 0.06906104621395517
6245.245245245245 0.06867833712031855
6255.255255255255 0.0682982282836724
6265.265265265265 0.06792070066343356
6275.275275275275 0.06754573536535778
6285.285285285286 0.06717331363973468
6295.295295295296 0.06680341687962806
6305.305305305305 0.06643602661915972
6315.315315315315 0.06607112453183653
6325.325325325325 0.06570869242891826
