#lamb flux
1000.0 0.8278220063627346
1010.01001001001 0.8344543971181295
1020.0200200200201 0.84060746772073
1030.03003003003 0.8462897632613351
1040.0400400400401 0.8515103208094122
1050.05005005005 0.8562786081019043
1060.06006006006 0.8606044658387039
1070.07007007007 0.8644980535167582
1080.08008008008 0.8679697987191476
1090.0900900900901 0.8710303497626524
1100.1001001001 0.8736905315970491
1110.11011011011 0.875961304841358
1120.1201201201202 0.8778537278362173
1130.13013013013 0.8793789215872674
1140.1401401401401 0.8805480374716401
1150.1501501501502 0.8813722275781876
1160.16016016016 0.8818626175517512
1170.1701701701702 0.882030281812436
1180.1801801801803 0.8818862210223068
1190.1901901901902 0.8814413416740733
1200.2002002002002 0.8807064376791014
1210.2102102102103 0.8796921738352512
1220.2202202202202 0.8784090710586376
1230.2302302302303 0.8768674932672821
1240.2402402402402 0.8750776358087202
1250.2502502502502 0.8730494990141103
1260.2602602602603 0.870792863845991
1270.2702702702702 0.8683172787081911
1280.2802802802803 0.8656321817276597
1290.2902902902902 0.8627468043603288
1300.3003003003003 0.8596701670324085
1310.3103103103103 0.8564110756943755
1320.3203203203202 0.8529781192143694
1330.3303303303303 0.8493796675418929
1340.3403403403404 0.8456238705766443
1350.3503503503503 0.8417186576812331
1360.3603603603603 0.8376717377802143
1370.3703703703704 0.8334905999914991
1380.3803803803803 0.8291825147396126
1390.3903903903904 0.824754535303605
1400.4004004004005 0.8202134997555115
1410.4104104104103 0.8155660332483119
1420.4204204204204 0.8108185506151562
1430.4304304304305 0.8059772592443281
1440.4404404404404 0.8010481621970043
1450.4504504504505 0.7960370615372699
1460.4604604604606 0.7909495618461522
1470.4704704704704 0.7857910738935884
1480.4804804804805 0.7805668184442848
1490.4904904904906 0.7752818301753289
1500.5005005005005 0.7699409616852154
1510.5105105105106 0.7645488875756365
1520.5205205205207 0.759110108588958
1530.5305305305305 0.7536289557857788
1540.5405405405404 0.7481095947483638
1550.5505505505505 0.7425560297970133
1560.5605605605606 0.7369721082076329
1570.5705705705705 0.7313615244199092
1580.5805805805805 0.7257278242265014
1590.5905905905906 0.7200744089346582
1600.6006006006005 0.7144045394925446
1610.6106106106106 0.7087213405734046
1620.6206206206207 0.7030278046114624
1630.6306306306305 0.6973267957841621
1640.6406406406406 0.6916210539360124
1650.6506506506507 0.6859131984399262
1660.6606606606606 0.6802057319924801
1670.6706706706707 0.674501044340054
1680.6806806806808 0.6688014159332899
1690.6906906906906 0.6631090215077396
1700.7007007007007 0.6574259342234479
1710.7107107107108 0.6517541303559794
1720.7207207207207 0.646095487901008
1730.7307307307308 0.6404517923912256
1740.7407407407409 0.6348247404458979
1750.7507507507507 0.6292159428813174
1760.7607607607606 0.6236269277425599
1770.770770770771 0.6180591432569361
1780.7807807807808 0.6125139607097663
1790.7907907907907 0.6069926772433376
1800.8008008008007 0.601496518580117
1810.8108108108108 0.5960266416715156
1820.8208208208207 0.5905841372737176
1830.8308308308308 0.5851700324522993
1840.8408408408409 0.5797852930175939
1850.8508508508507 0.5744308258929667
1860.8608608608608 0.5691074814183869
1870.870870870871 0.563816055591894
1880.8808808808808 0.5585572922517423
1890.890890890891 0.553331885202151
1900.900900900901 0.548140480285697
1910.9109109109108 0.5429836774053622
1920.920920920921 0.5378620324991239
1930.930930930931 0.5327760594696227
1940.940940940941 0.52772623207087
1950.950950950951 0.5227129857529972
1960.960960960961 0.5177367194647342
1970.970970970971 0.5127977974114708
1980.980980980981 0.507896550764449
1990.9909909909911 0.5030332793138141
2001.001001001001 0.49820825305507893
2011.0110110110109 0.4934217136952079
2021.0210210210212 0.4886738760614554
2031.031031031031 0.4839649293937455
2041.0410410410411 0.4792950385005463
2051.051051051051 0.47466434475956637
2061.061061061061 0.47007296694891665
2071.071071071071 0.4655210019021158
2081.081081081081 0.4610085249914846
2091.091091091091 0.4565355904584019
2101.101101101101 0.4521022316242076
2111.1111111111113 0.4477084610300386
2121.121121121121 0.4433542705650754
2131.131131131131 0.43903963164794996
2141.141141141141 0.4347644955237093
2151.151151151151 0.4305287937280136
2161.161161161161 0.42633243875225174
2171.1711711711714 0.4221753249204103
2181.1811811811813 0.41805732946436786
2191.191191191191 0.4139783137625615
2201.201201201201 0.409938124690924
2211.2112112112113 0.40593659602651105
2221.221221221221 0.40197354984376926
2231.2312312312315 0.3980487978499005
2241.2412412412414 0.39416214261724125
2251.2512512512512 0.39031337868452304
2261.261261261261 0.38650229351304305
2271.271271271271 0.38272866829630803
2281.2812812812813 0.3789922786315456
2291.2912912912916 0.3752928950681696
2301.3013013013015 0.37163028355196004
2311.3113113113113 0.3680042057848618
2321.321321321321 0.36441441951955406
2331.331331331331 0.36086067880592915
2341.3413413413414 0.3573427342039837
2351.3513513513512 0.3538603329747409
2361.3613613613616 0.35041321925806584
2371.3713713713714 0.34700113424377366
2381.3813813813813 0.34362381634035044
2391.391391391391 0.3402810013439571
2401.4014014014015 0.3369724226091095
2411.4114114114113 0.33369781122151815
2421.4214214214217 0.33045689617293217
2431.4314314314315 0.32724940453742823
2441.4414414414414 0.3240750616483547
2451.4514514514512 0.3209335912750371
2461.4614614614616 0.3178247157983359
2471.4714714714714 0.31474815638419074
2481.4814814814818 0.3117036331543646
2491.4914914914916 0.3086908653536993
2501.5015015015015 0.3057095715133008
2511.5115115115113 0.30275946960917677
2521.521521521521 0.29984027721594964
2531.5315315315315 0.2969517116553584
2541.541541541542 0.2940934901393466
2551.5515515515517 0.2912653299076009
2561.5615615615616 0.2884669483594677
2571.5715715715714 0.28569806318023033
2581.5815815815813 0.2829583924617637
2591.5915915915916 0.28024765481762554
2601.6016016016015 0.27756556949267114
2611.611611611612 0.27491185646729194
2621.6216216216217 0.27228623655641276
2631.6316316316315 0.2696884315033751
2641.6416416416414 0.26711816406886263
2651.6516516516517 0.26457515811501703
2661.6616616616616 0.26205913868490655
2671.671671671672 0.25956983207750395
2681.6816816816818 0.25710696591834087
2691.6916916916916 0.2546702692259932
2701.7017017017015 0.25225947247456065
2711.711711711712 0.24987430765229715
2721.7217217217217 0.24751450831654345
2731.731731731732 0.2451798096451141
2741.741741741742 0.24286994848428392
2751.7517517517517 0.24058466339351675
2761.7617617617616 0.2383236946870751
2771.7717717717715 0.23608678447264184
2781.781781781782 0.23387367668708536
2791.791791791792 0.23168411712949233
2801.801801801802 0.22951785349158646
2811.811811811812 0.2273746353856513
2821.8218218218217 0.22525421437006862
2831.8318318318316 0.22315634397257755
2841.841841841842 0.22108077971135923
2851.851851851852 0.21902727911404818
2861.861861861862 0.21699560173476148
2871.871871871872 0.21498550916924092
2881.881881881882 0.2129967650681948
2891.8918918918916 0.2110291351489253
2901.901901901902 0.20908238720531971
2911.911911911912 0.20715629111628694
2921.921921921922 0.20525061885271084
2931.931931931932 0.2033651444829957
2941.941941941942 0.20149964417726832
2951.9519519519517 0.1996538962103064
2961.961961961962 0.1978276809632554
2971.971971971972 0.1960207809241932
2981.9819819819822 0.1942329806876026
2991.991991991992 0.1924640669528071
3002.002002002002 0.19071382852142219
3012.012012012012 0.1889820562938751
3022.0220220220217 0.18726854326504128
3032.032032032032 0.1855732627295064
3042.0420420420423 0.18389563231299152
3052.052052052052 0.18223564662430816
3062.062062062062 0.18059310873737355
3072.072072072072 0.17896782352707824
3082.0820820820823 0.17735959768994847
3092.092092092092 0.17576823976133515
3102.102102102102 0.17419356012942017
3112.1121121121123 0.17263537104631435
3122.122122122122 0.17109348663649523
3132.132132132132 0.16956772290281263
3142.1421421421423 0.1680578977302744
3152.152152152152 0.1665638308878055
3162.162162162162 0.16508534402815683
3172.1721721721724 0.16362226068612976
3182.1821821821823 0.16217440627526566
3192.192192192192 0.16074160808313775
3202.202202202202 0.1593236952653739
3212.2122122122123 0.1579204988385268
3222.222222222222 0.1565318516718979
3232.232232232232 0.15515758847841474
3242.2422422422424 0.15379754580465185
3252.252252252252 0.15245156202007917
3262.262262262262 0.1511194773056135
3272.2722722722724 0.14980113364154432
3282.2822822822823 0.14849637479489833
3292.292292292292 0.1472050463063015
3302.3023023023025 0.14592699547639404
3312.3123123123123 0.1446620713518483
3322.322322322322 0.1434101247110347
3332.3323323323325 0.142171008049379
3342.3423423423424 0.14094457556445011
3352.352352352352 0.13973068314081108
3362.3623623623625 0.13852918833467093
3372.3723723723724 0.13733995035836324
3382.3823823823823 0.1361628300646795
3392.3923923923926 0.1349976899310854
3402.4024024024025 0.13384439404384013
3412.4124124124123 0.13270280808204044
3422.4224224224226 0.13157279930161067
3432.4324324324325 0.130454236519255
3442.4424424424424 0.12934699009638834
3452.4524524524522 0.12825093192306153
3462.4624624624626 0.12716593540189405
3472.4724724724724 0.12609187543202732
3482.4824824824823 0.1250286283931083
3492.4924924924926 0.12397607212931679
3502.5025025025025 0.12293408593344321
3512.5125125125123 0.12190255053102685
3522.5225225225226 0.12088134806456256
3532.5325325325325 0.11987036207778276
3542.5425425425424 0.11886947750002108
3552.5525525525527 0.11787858063066432
3562.5625625625626 0.11689755912369787
3572.5725725725724 0.11592630197234861
3582.5825825825827 0.1149646994938312
3592.5925925925926 0.11401264331420048
3602.6026026026025 0.11307002635331405
3612.612612612613 0.11213674280990904
3622.6226226226227 0.11121268814679394
3632.6326326326325 0.11029775907615967
3642.642642642643 0.10939185354501228
3652.6526526526527 0.10849487072072854
3662.6626626626626 0.10760671097673527
3672.672672672673 0.1067272758783168
3682.6826826826828 0.10585646816854888
3692.6926926926926 0.10499419175436209
3702.7027027027025 0.10414035169273446
3712.712712712713 0.10329485417701477
3722.7227227227227 0.10245760652337821
3732.7327327327325 0.10162851715741145
3742.742742742743 0.10080749560083226
3752.7527527527527 0.09999445245833967
3762.7627627627626 0.09918929940459738
3772.772772772773 0.09839194917134966
3782.7827827827828 0.09760231553466962
3792.7927927927926 0.09682031330233949
3802.802802802803 0.09604585830136364
3812.812812812813 0.09527886736561295
3822.8228228228227 0.09451925832360061
3832.832832832833 0.09376694998638929
3842.842842842843 0.09302186213562855
3852.8528528528527 0.0922839155117225
3862.862862862863 0.09155303180212679
3872.872872872873 0.09082913362977466
3882.8828828828828 0.09011214454163027
3892.892892892893 0.08940198899737122
3902.902902902903 0.088698592358196
3912.912912912913 0.08800188087575854
3922.922922922923 0.08731178168122719
3932.932932932933 0.08662822277446901
3942.942942942943 0.08595113301335651
3952.9529529529527 0.0852804421031974
3962.962962962963 0.0846160805862865
3972.972972972973 0.08395797983157788
3982.982982982983 0.08330607202447732
3992.992992992993 0.08266029015675312
4003.003003003003 0.08202056801656588
4013.013013013013 0.0813868401786145
4023.023023023023 0.08075904199439843
4033.033033033033 0.08013710958259535
4043.043043043043 0.07952097981955239
4053.053053053053 0.07891059032989095
4063.063063063063 0.07830587947722313
4073.073073073073 0.07770678635497946
4083.0830830830832 0.07711325077734665
4093.093093093093 0.07652521327031432
4103.103103103103 0.07594261506282945
4113.113113113113 0.07536539807805856
4123.123123123123 0.07479350492475455
4133.133133133133 0.07422687888872963
4143.143143143143 0.07366546392443135
4153.153153153153 0.07310920464662192
4163.163163163163 0.0725580463221588
4173.173173173173 0.07201193486187658
4183.183183183183 0.07147081681256814
4193.193193193193 0.07093463934906481
4203.203203203203 0.0704033502664138
4213.213213213214 0.06987689797215298
4223.223223223224 0.06935523147868045
4233.2332332332335 0.06883830039571927
4243.243243243243 0.06832605492287569
4253.253253253253 0.06781844584228958
4263.263263263263 0.06731542451137705
4273.273273273273 0.06681694285566324
4283.283283283283 0.06632295336170461
4293.293293293293 0.06583340907010031
4303.303303303303 0.06534826356859053
4313.313313313313 0.06486747098524202
4323.323323323323 0.06439098598171886
4333.333333333334 0.06391876374663807
4343.343343343344 0.06345075998900918
4353.353353353354 0.062986930931756
4363.3633633633635 0.06252723330532074
4373.373373373373 0.06207162434134881
4383.383383383383 0.061620061766453425
4393.393393393393 0.061172503796059374
4403.403403403403 0.06072890912832513
4413.413413413413 0.060289236938141214
4423.423423423424 0.05985344687120607
4433.4334334334335 0.059421499038176395
4443.443443443443 0.05899335400889219
4453.453453453454 0.058568972806675286
4463.463463463464 0.05814831690270129
4473.473473473474 0.057731348210441964
4483.483483483484 0.05731802908017993
4493.493493493494 0.056908322293592606
4503.503503503503 0.05650219105840598
4513.513513513513 0.056099599003116306
4523.523523523523 0.055700510171779564
4533.533533533533 0.05530488901886806
4543.543543543543 0.05491270040419223
4553.553553553554 0.054523909587888095
4563.563563563564 0.05413848222546901
4573.573573573573 0.05375638436294059
4583.583583583584 0.05337758243197884
4593.593593593594 0.053002043245169925
4603.603603603604 0.05262973399131108
4613.613613613614 0.052260622230772415
4623.623623623624 0.05189467589091767
4633.6336336336335 0.05153186326158453
4643.643643643643 0.05117215299062279
4653.653653653653 0.050815514079490004
4663.663663663663 0.05046191587890398
4673.673673673674 0.05011132808455097
4683.683683683684 0.049763720732849626
4693.693693693694 0.049419064196769086
4703.703703703704 0.04907732918170122
4713.713713713714 0.048738486721386025
4723.723723723724 0.048402508173889566
4733.733733733734 0.04806936521763356
4743.743743743744 0.047739029847476605
4753.753753753754 0.04741147437084544
4763.763763763764 0.04708667140391653
4773.773773773773 0.04676459386784635
4783.783783783783 0.04644521498505103
4793.793793793793 0.046128508275533366
4803.803803803804 0.04581444755325719
4813.813813813814 0.04550300692256908
4823.823823823824 0.045194160774665475
4833.833833833834 0.04488788378410581
4843.843843843844 0.044584150905370476
4853.853853853854 0.04428293736946306
4863.863863863864 0.043984218680556506
4873.873873873874 0.043687970612682356
4883.883883883884 0.043394169206462684
4893.893893893894 0.043102790765884344
4903.9039039039035 0.04281381185511437
4913.913913913913 0.042527209295356576
4923.923923923924 0.04224296016174874
4933.933933933934 0.04196104178029961
4943.943943943944 0.04168143172486507
4953.953953953955 0.04140410781416366
4963.9639639639645 0.041129048108830266
4973.973973973974 0.040856230908507395
4983.983983983984 0.0405856347489744
4993.993993993994 0.040317238399313095
5004.004004004004 0.04005102085911
5014.014014014014 0.03978696135569451
5024.024024024024 0.03952503934141225
5034.0340340340335 0.0392652344909339
5044.044044044043 0.03900752669859799
5054.054054054054 0.03875189607578808
5064.064064064064 0.038498322948343495
5074.074074074074 0.038246787854003164
5084.084084084085 0.03799727153988205
5094.0940940940945 0.03774975495998031
5104.104104104104 0.037504219272723745
5114.114114114114 0.0372606458385361
5124.124124124124 0.03701901621744222
5134.134134134134 0.036779312166701855
5144.144144144144 0.03654151563847359
5154.154154154154 0.03630560877750877
5164.1641641641645 0.03607157391887452
5174.174174174174 0.03583939358570617
5184.184184184184 0.035609050486987905
5194.194194194194 0.03538052751536199
5204.204204204204 0.03515380774496571
5214.214214214214 0.03492887442929587
5224.224224224225 0.034705710999100296
5234.2342342342345 0.03448430106029644
5244.244244244244 0.03426462839191596
5254.254254254254 0.03404667694407583
5264.264264264264 0.03383043083597471
5274.274274274274 0.03361587435391516
5284.284284284285 0.03340299194935056
5294.294294294295 0.03319176823695694
5304.304304304304 0.03298218799272895
5314.314314314314 0.03277423615210034
5324.324324324324 0.03256789780808755
5334.334334334334 0.03236315820945737
5344.344344344345 0.03216000275891718
5354.354354354355 0.03195841701132843
5364.3643643643645 0.031758386671942224
5374.374374374374 0.03155989759465747
5384.384384384384 0.03136293578030068
5394.394394394394 0.03116748737492749
5404.404404404404 0.030973538668145506
5414.414414414415 0.03078107609145822
5424.424424424425 0.030590086216629682
5434.4344344344345 0.03040055575406959
5444.444444444444 0.030212471551238653
5454.454454454454 0.030025820591073994
5464.464464464464 0.029840589990434156
5474.474474474475 0.02965676699856346
5484.484484484485 0.02947433899557572
5494.494494494495 0.029293293490956676
5504.504504504504 0.029113618122085287
5514.514514514514 0.028935300652773218
5524.524524524524 0.02875832897182275
5534.534534534535 0.028582691091602445
5544.544544544545 0.02840837514664058
5554.554554554555 0.028235369392235983
5564.5645645645645 0.02806366220308621
5574.574574574574 0.027893242071932632
5584.584584584584 0.02772409760822237
5594.594594594595 0.02755621753678662
5604.604604604605 0.027389590696535727
5614.614614614615 0.027224206039169793
5624.624624624625 0.027060052627905715
5634.6346346346345 0.026897119636219716
5644.644644644644 0.02673539634660525
5654.654654654654 0.026574872149346514
5664.664664664665 0.02641553654130666
5674.674674674675 0.026257379124731337
5684.684684684685 0.02610038960606652
5694.694694694695 0.02594455779479109
5704.704704704704 0.02578987360226365
5714.714714714714 0.0256363270405835
5724.724724724725 0.02548390822146552
5734.734734734735 0.025332607355128794
5744.744744744745 0.025182414749198898
5754.754754754755 0.025033320807623435
5764.764764764765 0.02488531602960095
5774.774774774774 0.02473839100852289
5784.784784784785 0.024592536430928232
5794.794794794795 0.024447743075471134
5804.804804804805 0.0243040018119009
5814.814814814815 0.02416130360005441
5824.824824824825 0.02401963948886083
5834.8348348348345 0.02387900061535819
5844.844844844845 0.023739378203722166
5854.854854854855 0.02360076356430635
5864.864864864865 0.02346314809269421
5874.874874874875 0.02332652326876254
5884.884884884885 0.02319088065575615
5894.894894894895 0.023056211899373742
5904.9049049049045 0.022922508726864747
5914.914914914915 0.02278976294613706
5924.924924924925 0.022657966444875593
5934.934934934935 0.022527111189671135
5944.944944944945 0.022397189225160007
5954.954954954955 0.02226819267317377
5964.964964964965 0.02214011373189923
5974.974974974975 0.02201294467504848
5984.984984984985 0.021886677851038844
5994.994994994995 0.0217613056821826
6005.005005005005 0.021636820663886377
6015.015015015015 0.021513215363860114
6025.025025025025 0.021390482421335445
6035.035035035035 0.02126861454629328
6045.045045045045 0.021147604518700742
6055.055055055055 0.021027445187756982
6065.065065065065 0.020908129471148024
6075.075075075075 0.02078965035431047
6085.085085085085 0.020672000889703845
6095.0950950950955 0.02055517419609157
6105.105105105105 0.02043916345783052
6115.115115115115 0.020323961924168788
6125.125125125125 0.020209562908551866
6135.135135135135 0.020095959787937007
6145.145145145145 0.019983146002115527
6155.155155155155 0.01987111505304322
6165.1651651651655 0.019759860504178536
6175.175175175175 0.0196493759798286
6185.185185185185 0.01953965516450278
6195.195195195195 0.01943069180227401
6205.205205205205 0.019322479696147407
6215.215215215215 0.019215012707436308
6225.225225225226 0.019108284755145734
6235.235235235235 0.01900228981536279
