#lamb flux
1000.0 5.6258874217685116e+35
1010.01001001001 6.6164190348687344e+35
1020.0200200200201 7.751602884986115e+35
1030.03003003003 9.047999329759343e+35
1040.0400400400401 1.0523484997768195e+36
1050.05005005005 1.2197298708893583e+36
1060.06006006006 1.4090084292869117e+36
1070.07007007007 1.622392999394369e+36
1080.08008008008 1.8622404169793452e+36
1090.0900900900901 2.1310587015069395e+36
1100.1001001001 2.4315098063987356e+36
1110.11011011011 2.766411925185374e+36
1120.1201201201202 3.1387413342094006e+36
1130.13013013013 3.551633755293165e+36
1140.1401401401401 4.008385224606788e+36
1150.1501501501502 4.512452456827056e+36
1160.16016016016 5.06745269654518e+36
1170.1701701701702 5.677163051732936e+36
1180.1801801801803 6.345519306893736e+36
1190.1901901901902 7.076614216282486e+36
1200.2002002002002 7.874695280261643e+36
1210.2102102102103 8.744162010447782e+36
1220.2202202202202 9.689562691783333e+36
1230.2302302302303 1.0715590652025024e+37
1240.2402402402402 1.1827080051362795e+37
1250.2502502502502 1.3028932142541568e+37
1260.2602602602603 1.4326002155314998e+37
1270.2702702702702 1.5722983929470732e+37
1280.2802802802803 1.7225015967102496e+37
1290.2902902902902 1.8837324586691504e+37
1300.3003003003003 2.0565215803400659e+37
1310.3103103103103 2.2414066896645067e+37
1320.3203203203202 2.4389317695636786e+37
1330.3303303303303 2.649646161398657e+37
1340.3403403403404 2.874103646461698e+37
1350.3503503503503 3.1128615086214466e+37
1360.3603603603603 3.366479581222948e+37
1370.3703703703704 3.6355192813026875e+37
1380.3803803803803 3.9205426341216145e+37
1390.3903903903904 4.2221112909447647e+37
1400.4004004004005 4.540785542906279e+37
1410.4104104104103 4.877123333695409e+37
1420.4204204204204 5.23167927368077e+37
1430.4304304304305 5.605003657960668e+37
1440.4404404404404 5.99764149068581e+37
1450.4504504504505 6.410131517848034e+37
1460.4604604604606 6.843005270566741e+37
1470.4704704704704 7.296786120733442e+37
1480.4804804804805 7.771988350694663e+37
1490.4904904904906 8.269116238466166e+37
1500.5005005005005 8.788663159776041e+37
1510.5105105105106 9.331110708033696e+37
1520.5205205205207 9.896927833112177e+37
1530.5305305305305 1.048656999961954e+38
1540.5405405405404 1.1100478365114353e+38
1550.5505505505505 1.1739078978497444e+38
1560.5605605605606 1.2402781998582436e+38
1570.5705705705705 1.3091980932616052e+38
1580.5805805805805 1.380705189428232e+38
1590.5905905905906 1.4548352880486961e+38
1600.6006006006005 1.5316223065977898e+38
1610.6106106106106 1.6110982114619368e+38
1620.6206206206207 1.6932929505898888e+38
1630.6306306306305 1.7782343875016167e+38
1640.6406406406406 1.8659482364680792e+38
1650.6506506506507 1.9564579986537332e+38
1660.6606606606606 2.049784898995522e+38
1670.6706706706707 2.145947823576365e+38
1680.6806806806808 2.244963257240666e+38
1690.6906906906906 2.346845221194363e+38
1700.7007007007007 2.4516058815161772e+38
1710.7107107107108 2.5592570704754154e+38
1720.7207207207207 2.6698052266380165e+38
1730.7307307307308 2.783253663080249e+38
1740.7407407407409 2.899602862587199e+38
1750.7507507507507 3.0188504103526898e+38
1760.7607607607606 3.140990926023652e+38
1770.770770770771 3.266015995434972e+38
1780.7807807807808 3.3939141026356618e+38
1790.7907907907907 3.524670563141317e+38
1800.8008008008007 3.6582674597779046e+38
1810.8108108108108 3.7946835830302515e+38
1820.8208208208207 3.9338943784985875e+38
1830.8308308308308 4.075871904924462e+38
1840.8408408408409 4.220584807300608e+38
1850.8508508508507 4.367998310855089e+38
1860.8608608608608 4.518074243219788e+38
1870.870870870871 4.670771093870673e+38
1880.8808808808808 4.826044121957633e+38
1890.890890890891 4.98384552589394e+38
1900.900900900901 5.144124690474801e+38
1910.9109109109108 5.306828529708359e+38
1920.920920920921 5.4719019457533416e+38
1930.930930930931 5.63928842604343e+38
1940.940940940941 5.808930801386426e+38
1950.950950950951 5.980772186953455e+38
1960.960960960961 6.1547571248700084e+38
1970.970970970971 6.3308329407053114e+38
1980.980980980981 6.5089513155947605e+38
1990.9909909909911 6.689070060153387e+38
2001.001001001001 6.871155055158484e+38
2011.0110110110109 7.055182297165471e+38
2021.0210210210212 7.241139955652654e+38
2031.031031031031 7.429030314116805e+38
2041.0410410410411 7.618871434458784e+38
2051.051051051051 7.810698357316443e+38
2061.061061061061 8.004563637320888e+38
2071.071071071071 8.200537018645663e+38
2081.081081081081 8.398704088839303e+38
2091.091091091091 8.59916381122227e+38
2101.101101101101 8.802024926950124e+38
2111.1111111111113 9.007401330129889e+38
2121.121121121121 9.215406639926053e+38
2131.131131131131 9.426148304518248e+38
2141.141141141141 9.639721653610062e+38
2151.151151151151 9.856204352165525e+38
2161.161161161161 1.0075651688366397e+39
2171.1711711711714 1.0298093053581736e+39
2181.1811811811813 1.0523529852076954e+39
2191.191191191191 1.0751934932282541e+39
2201.201201201201 1.098325348276261e+39
2211.2112112112113 1.1217405206545106e+39
2221.221221221221 1.1454287493612037e+39
2231.2312312312315 1.1693779261326608e+39
2241.2412412412414 1.1935745126108895e+39
2251.2512512512512 1.2180039599608619e+39
2261.261261261261 1.2426511057714915e+39
2271.271271271271 1.2675005298625474e+39
2281.2812812812813 1.2925368575797673e+39
2291.2912912912916 1.3177450054604747e+39
2301.3013013013015 1.34311036928632e+39
2311.3113113113113 1.368618958303048e+39
2321.321321321321 1.3942574818064374e+39
2331.331331331331 1.4200133955452214e+39
2341.3413413413414 1.445874915725579e+39
2351.3513513513512 1.4718310080813956e+39
2361.3613613613616 1.4978713587403992e+39
2371.3713713713714 1.5239863326651204e+39
2381.3813813813813 1.5501669244263296e+39
2391.391391391391 1.5764047050759524e+39
2401.4014014014015 1.6026917679871462e+39
2411.4114114114113 1.6290206757529113e+39
2421.4214214214217 1.6553844095904385e+39
2431.4314314314315 1.681776322182665e+39
2441.4414414414414 1.7081900944888495e+39
2451.4514514514512 1.7346196967561977e+39
2461.4614614614616 1.7610593537479097e+39
2471.4714714714714 1.787503514052936e+39
2481.4814814814818 1.8139468232446745e+39
2491.4914914914916 1.8403841005972646e+39
2501.5015015015015 1.866810319038881e+39
2511.5115115115113 1.8932205880128678e+39
2521.521521521521 1.9196101389235205e+39
2531.5315315315315 1.945974312858804e+39
2541.541541541542 1.9723085503033524e+39
2551.5515515515517 1.9986083825794342e+39
2561.5615615615616 2.0248694247787893e+39
2571.5715715715714 2.0510873699736644e+39
2581.5815815815813 2.0772579845194692e+39
2591.5915915915916 2.1033771042840632e+39
2601.6016016016015 2.1294406316597383e+39
2611.611611611612 2.1554445332325917e+39
2621.6216216216217 2.1813848380010448e+39
2631.6316316316315 2.2072576360502094e+39
2641.6416416416414 2.2330590776020555e+39
2651.6516516516517 2.25878537237295e+39
2661.6616616616616 2.284432789180172e+39
2671.671671671672 2.3099976557478563e+39
2681.6816816816818 2.335476358670339e+39
2691.6916916916916 2.360865343497459e+39
2701.7017017017015 2.3861611149119364e+39
2711.711711711712 2.4113602369737987e+39
2721.7217217217217 2.4364593334109405e+39
2731.731731731732 2.4614550879384042e+39
2741.741741741742 2.4863442445919653e+39
2751.7517517517517 2.5111236080641717e+39
2761.7617617617616 2.5357900440331684e+39
2771.7717717717715 2.5603404794763702e+39
2781.781781781782 2.5847719029627717e+39
2791.791791791792 2.609081364918835e+39
2801.801801801802 2.633265977864082e+39
2811.811811811812 2.6573229166134622e+39
2821.8218218218217 2.6812494184442613e+39
2831.8318318318316 2.7050427832261094e+39
2841.841841841842 2.7287003735130215e+39
2851.851851851852 2.752219614597043e+39
2861.861861861862 2.775597994523283e+39
2871.871871871872 2.798833064066526e+39
2881.881881881882 2.821922436669877e+39
2891.8918918918916 2.84486378834599e+39
2901.901901901902 2.867654857541774e+39
2911.911911911912 2.890293444967386e+39
2921.921921921922 2.912777413390658e+39
2931.931931931932 2.935104687397997e+39
2941.941941941942 2.9572732531229444e+39
2951.9519519519517 2.9792811579436264e+39
2961.961961961962 3.001126510150326e+39
2971.971971971972 3.022807478584428e+39
2981.9819819819822 3.044322292250048e+39
2991.991991991992 3.065669239899546e+39
3002.002002002002 3.08684666959427e+39
3012.012012012012 3.107852988241675e+39
3022.0220220220217 3.1286866611101575e+39
3032.032032032032 3.150204289378499e+39
3042.0420420420423 3.170588672866774e+39
3052.052052052052 3.190763111293323e+39
3062.062062062062 3.2107337648560867e+39
3072.072072072072 3.230506040093478e+39
3082.0820820820823 3.250084651627919e+39
3092.092092092092 3.2694736802360457e+39
3102.102102102102 3.2886766273794964e+39
3112.1121121121123 3.3076964663364835e+39
3122.122122122122 3.326535690078498e+39
3132.132132132132 3.345196356038217e+39
3142.1421421421423 3.3636801279148015e+39
3152.152152152152 3.3819883146616067e+39
3162.162162162162 3.4001219067990776e+39
3172.1721721721724 3.4180816101923273e+39
3182.1821821821823 3.435867877429308e+39
3192.192192192192 3.453480936931033e+39
3202.202202202202 3.470920819920896e+39
3212.2122122122123 3.488187385375277e+39
3222.222222222222 3.505280343072487e+39
3232.232232232232 3.522199274852415e+39
3242.2422422422424 3.538943654193922e+39
3252.252252252252 3.555512864212169e+39
3262.262262262262 3.571906214173215e+39
3272.2722722722724 3.588122954618272e+39
3282.2822822822823 3.604162291185558e+39
3292.292292292292 3.6200233972129365e+39
3302.3023023023025 3.635705425200364e+39
3312.3123123123123 3.6512075172068784e+39
3322.322322322322 3.666528814252805e+39
3332.3323323323325 3.68166846479411e+39
3342.3423423423424 3.6966256323320326e+39
3352.352352352352 3.7113995022176286e+39
3362.3623623623625 3.7259892877075597e+39
3372.3723723723724 3.740394235324191e+39
3382.3823823823823 3.754613629570035e+39
3392.3923923923926 3.7686467970437205e+39
3402.4024024024025 3.7824931100018506e+39
3412.4124124124123 3.796151989408583e+39
3422.4224224224226 3.8096229075122177e+39
3432.4324324324325 3.822905389985724e+39
3442.4424424424424 3.83599901766604e+39
3452.4524524524522 3.8489034279245787e+39
3462.4624624624626 3.861618315699792e+39
3472.4724724724724 3.874143434220272e+39
3482.4824824824823 3.886478595445473e+39
3492.4924924924926 3.8986236702491804e+39
3502.5025025025025 3.9105785883693897e+39
3512.5125125125123 3.922343338146593e+39
3522.5225225225226 3.9339179660712055e+39
3532.5325325325325 3.945302576159303e+39
3542.5425425425424 3.9564973291747317e+39
3552.5525525525527 3.9675024417142805e+39
3562.5625625625626 3.9783181851715765e+39
3572.5725725725724 3.988944884594136e+39
3582.5825825825827 3.9993829174471664e+39
3592.5925925925926 4.009632712296522e+39
3602.6026026026025 4.019694747422466e+39
3612.612612612613 4.0295695493749847e+39
3622.6226226226227 4.039257691480485e+39
3632.6326326326325 4.048759792309136e+39
3642.642642642643 4.058076514111182e+39
3652.6526526526527 4.067208561230011e+39
3662.6626626626626 4.076156678499086e+39
3672.672672672673 4.0849216496292224e+39
3682.6826826826828 4.0935042955921407e+39
3692.6926926926926 4.101905473005742e+39
3702.7027027027025 4.110126072525928e+39
3712.712712712713 4.118167017249513e+39
3722.7227227227227 4.1260292611321554e+39
3732.7327327327325 4.133713787424909e+39
3742.742742742743 4.1412216071326613e+39
3752.7527527527527 4.1485537574972646e+39
3762.7627627627626 4.155711300507905e+39
3772.772772772773 4.1626953214409355e+39
3782.7827827827828 4.169506927431105e+39
3792.7927927927926 4.176147246075795e+39
3802.802802802803 4.1826174240738005e+39
3812.812812812813 4.1889186258997014e+39
3822.8228228228227 4.195052032514869e+39
3832.832832832833 4.201018840115925e+39
3842.842842842843 4.2068202589211496e+39
3852.8528528528527 4.2124575119953784e+39
3862.862862862863 4.2179318341135756e+39
3872.872872872873 4.2232444706633186e+39
3882.8828828828828 4.2283966765860853e+39
3892.892892892893 4.23338971535743e+39
3902.902902902903 4.2382248580055686e+39
3912.912912912913 4.242903382168377e+39
3922.922922922923 4.247426571188185e+39
3932.932932932933 4.251795713243984e+39
3942.942942942943 4.256012100520538e+39
3952.9529529529527 4.260077028413759e+39
3962.962962962963 4.263991794771727e+39
3972.972972972973 4.2677576991706176e+39
3982.982982982983 4.2713760422248664e+39
3992.992992992993 4.274848124930727e+39
4003.003003003003 4.2781752480424513e+39
4013.013013013013 4.2813587114802893e+39
4023.023023023023 4.284399813769395e+39
4033.033033033033 4.287299851508843e+39
4043.043043043043 4.290060118869822e+39
4053.053053053053 4.29268190712214e+39
4063.063063063063 4.2951665041881767e+39
4073.073073073073 4.2975151942233193e+39
4083.0830830830832 4.299729257222073e+39
4093.093093093093 4.301809968648889e+39
4103.103103103103 4.303758599092806e+39
4113.113113113113 4.305576413945169e+39
4123.123123123123 4.307264673099308e+39
4133.133133133133 4.3088246306715797e+39
4143.143143143143 4.310257534742711e+39
4153.153153153153 4.3115646271187633e+39
4163.163163163163 4.3127471431107714e+39
4173.173173173173 4.313806311332368e+39
4183.183183183183 4.314743353514495e+39
4193.193193193193 4.31555948433653e+39
4203.203203203203 4.3162559112729785e+39
4213.213213213214 4.316833834455099e+39
4223.223223223224 4.3172944465466445e+39
4233.2332332332335 4.317638932633089e+39
4243.243243243243 4.3178684701236466e+39
4253.253253253253 4.317984228665393e+39
4263.263263263263 4.317987370068918e+39
4273.273273273273 4.317879048244803e+39
4283.283283283283 4.317660409150414e+39
4293.293293293293 4.31733259074636e+39
4303.303303303303 4.3168967229621034e+39
4313.313313313313 4.3163539276701626e+39
4323.323323323323 4.3157053186683715e+39
4333.333333333334 4.3149520016697594e+39
4343.343343343344 4.3140950742994615e+39
4353.353353353354 4.3131356260983256e+39
4363.3633633633635 4.312074738532647e+39
4373.373373373373 4.310913485009718e+39
4383.383383383383 4.3096529308986496e+39
4393.393393393393 4.308294133556227e+39
4403.403403403403 4.3068381423573245e+39
4413.413413413413 4.3052859987295087e+39
4423.423423423424 4.3036387361915667e+39
4433.4334334334335 4.3018973803955673e+39
4443.443443443443 4.300062949172178e+39
4453.453453453454 4.2981364525789146e+39
4463.463463463464 4.296118892951081e+39
4473.473473473474 4.294011264955073e+39
4483.483483483484 4.2918145556438474e+39
4493.493493493494 4.289529744514307e+39
4503.503503503503 4.28715780356632e+39
4513.513513513513 4.2846996973632495e+39
4523.523523523523 4.2821563830936804e+39
4533.533533533533 4.279528810634266e+39
4543.543543543543 4.2768179226134024e+39
4553.553553553554 4.27402465447567e+39
4563.563563563564 4.271149934546771e+39
4573.573573573573 4.2681946840989036e+39
4583.583583583584 4.265159817416384e+39
4593.593593593594 4.26204624186139e+39
4603.603603603604 4.258854857939717e+39
4613.613613613614 4.2555865593664384e+39
4623.623623623624 4.252242233131325e+39
4633.6336336336335 4.248822759563946e+39
4643.643643643643 4.2453290123984235e+39
4653.653653653653 4.241761858837618e+39
4663.663663663663 4.238122159616801e+39
4673.673673673674 4.234410769066677e+39
4683.683683683684 4.2306285351757003e+39
4693.693693693694 4.226776299651637e+39
4703.703703703704 4.222854897982316e+39
4713.713713713714 4.2188651594955006e+39
4723.723723723724 4.2148079074178954e+39
4733.733733733734 4.210683958933159e+39
4743.743743743744 4.206494125238993e+39
4753.753753753754 4.2022392116031836e+39
4763.763763763764 4.1979200174186615e+39
4773.773773773773 4.193537336257451e+39
4783.783783783783 4.189091955923608e+39
4793.793793793793 4.18458465850505e+39
4803.803803803804 4.180016220424282e+39
4813.813813813814 4.1753874124880465e+39
4823.823823823824 4.1706989999358496e+39
4833.833833833834 4.1659517424873824e+39
4843.843843843844 4.161146394388855e+39
4853.853853853854 4.156283704458174e+39
4863.863863863864 4.151364416129079e+39
4873.873873873874 4.14638926749414e+39
4883.883883883884 4.1413589913466926e+39
4893.893893893894 4.136274315221677e+39
4903.9039039039035 4.1311359614354446e+39
4913.913913913913 4.125944647124485e+39
4923.923923923924 4.120701084283115e+39
4933.933933933934 4.115405979800185e+39
4943.943943943944 4.1100600354947277e+39
4953.953953953955 4.104663948150669e+39
4963.9639639639645 4.09921840955056e+39
4973.973973973974 4.093724106508326e+39
4983.983983983984 4.0881817209011674e+39
4993.993993993994 4.082591929700474e+39
5004.004004004004 4.0769554050019004e+39
5014.014014014014 4.0712728140546124e+39
5024.024024024024 4.065544819289593e+39
5034.0340340340335 4.059772078347258e+39
5044.044044044043 4.0539552441042024e+39
5054.054054054054 4.0480949646991895e+39
5064.064064064064 4.0421918835584435e+39
5074.074074074074 4.036246639420155e+39
5084.084084084085 4.0302598663583314e+39
5094.0940940940945 4.0242321938060037e+39
5104.104104104104 4.018164246577707e+39
5114.114114114114 4.012056644891427e+39
5124.124124124124 4.00591000438987e+39
5134.134134134134 3.9997249361612303e+39
5144.144144144144 3.993502046759336e+39
5154.154154154154 3.9872419382233373e+39
5164.1641641641645 3.9809452080968215e+39
5174.174174174174 3.9746124494465017e+39
5184.184184184184 3.9682442508804094e+39
5194.194194194194 3.9618411965656675e+39
5204.204204204204 3.9554038662458516e+39
5214.214214214214 3.948932835257949e+39
5224.224224224225 3.942428674548934e+39
5234.2342342342345 3.9358919506920265e+39
5244.244244244244 3.929323225902577e+39
5254.254254254254 3.9227230580536885e+39
5264.264264264264 3.916092000691485e+39
5274.274274274274 3.909430603050181e+39
5284.284284284285 3.902739410066833e+39
5294.294294294295 3.8960189623958965e+39
5304.304304304304 3.889269796423546e+39
5314.314314314314 3.8824924442818067e+39
5324.324324324324 3.875687433862491e+39
5334.334334334334 3.8688552888309754e+39
5344.344344344345 3.861996528639839e+39
5354.354354354355 3.855111668542325e+39
5364.3643643643645 3.8482012196057404e+39
5374.374374374374 3.841265688724707e+39
5384.384384384384 3.8343055786343254e+39
5394.394394394394 3.827321387923285e+39
5404.404404404404 3.820313611046877e+39
5414.414414414415 3.813282738339979e+39
5424.424424424425 3.806229256029992e+39
5434.4344344344345 3.799153646249741e+39
5444.444444444444 3.79205638705036e+39
5454.454454454454 3.784937952414193e+39
5464.464464464464 3.777798812267654e+39
5474.474474474475 3.770639432494149e+39
5484.484484484485 3.763460274946985e+39
5494.494494494495 3.7562617974623277e+39
5504.504504504504 3.7490444538722006e+39
5514.514514514514 3.741808694017516e+39
5524.524524524524 3.73455496376119e+39
5534.534534534535 3.7272837050012935e+39
5544.544544544545 3.7199953556843044e+39
5554.554554554555 3.71269034981839e+39
5564.5645645645645 3.7053691174868365e+39
5574.574574574574 3.6980320848615053e+39
5584.584584584584 3.690679674216438e+39
5594.594594594595 3.683312303941512e+39
5604.604604604605 3.6759303885562477e+39
5614.614614614615 3.668534338723686e+39
5624.624624624625 3.661124561264404e+39
5634.6346346346345 3.653701459170642e+39
5644.644644644644 3.646265431620539e+39
5654.654654654654 3.6388168739925145e+39
5664.664664664665 3.631356177879752e+39
5674.674674674675 3.6238837311048316e+39
5684.684684684685 3.616399917734485e+39
5694.694694694695 3.608905118094485e+39
5704.704704704704 3.601399708784665e+39
5714.714714714714 3.5938840626940953e+39
5724.724724724725 3.586358549016372e+39
5734.734734734735 3.5788235332650495e+39
5744.744744744745 3.571279377289241e+39
5754.754754754755 3.563726439289313e+39
5764.764764764765 3.556165073832764e+39
5774.774774774774 3.548595631870218e+39
5784.784784784785 3.541018460751562e+39
5794.794794794795 3.533433904242232e+39
5804.804804804805 3.52584230253964e+39
5814.814814814815 3.5182439922897234e+39
5824.824824824825 3.510639306603659e+39
5834.8348348348345 3.503028575074677e+39
5844.844844844845 3.4954121237950756e+39
5854.854854854855 3.487790275373286e+39
5864.864864864865 3.48016334895114e+39
5874.874874874875 3.4725316602212455e+39
5884.884884884885 3.4648955214444846e+39
5894.894894894895 3.4572552414676466e+39
