#lamb flux
1000.0 5.902188912026806
1010.01001001001 6.115886734503802
1020.0200200200201 6.324456984775245
1030.03003003003 6.527715887648702
1040.0400400400401 6.7255242041061445
1050.05005005005 6.917783039874888
1060.06006006006 7.104429783287422
1070.07007007007 7.285434215521055
1080.08008008008 7.4607948241571265
1090.0900900900901 7.630535340805096
1100.1001001001 7.794701515117186
1110.11011011011 7.953358130679585
1120.1201201201202 8.10658626281055
1130.13013013013 8.254480774035931
1140.1401401401401 8.397148039772446
1150.1501501501502 8.534703894366649
1160.16016016016 8.667271785968543
1170.1701701701702 8.794981127634069
1180.1801801801803 8.917965831439634
1190.1901901901902 9.03636301215675
1200.2002002002002 9.150311847094914
1210.2102102102103 9.259952579006264
1220.2202202202202 9.365425649398562
1230.2302302302303 9.466870950177155
1240.2402402402402 9.564427182191453
1250.2502502502502 9.657959592998791
1260.2602602602603 9.746781114089359
1270.2702702702702 9.829525154062358
1280.2802802802803 9.906328945459103
1290.2902902902902 9.977334381041414
1300.3003003003003 10.042687055163345
1310.3103103103103 10.102535387841064
1320.3203203203202 10.157029826972677
1330.3303303303303 10.206322124106515
1340.3403403403404 10.25056467916232
1350.3503503503503 10.289909949565537
1360.3603603603603 10.32450991934959
1370.3703703703704 10.354515623906376
1380.3803803803803 10.380076726213987
1390.3903903903904 10.401341140537024
1400.4004004004005 10.418454699772335
1410.4104104104103 10.431560862799019
1420.4204204204204 10.440800458381053
1430.4304304304305 10.446311462361077
1440.4404404404404 10.448228805073633
1450.4504504504505 10.44668420609119
1460.4604604604606 10.441806033598047
1470.4704704704704 10.433719185861369
1480.4804804804805 10.42254499243759
1490.4904904904906 10.408401132912966
1500.5005005005005 10.391401571130352
1510.5105105105106 10.371656503000363
1520.5205205205207 10.349272316132934
1530.5305305305305 10.324351559656334
1540.5405405405404 10.296992922714868
1550.5505505505505 10.267291220254393
1560.5605605605606 10.235337384817479
1570.5705705705705 10.201218463178222
1580.5805805805805 10.165017616751785
1590.5905905905906 10.126814124817004
1600.6006006006005 10.08668338969339
1610.6106106106106 10.044696943119023
1620.6206206206207 10.000922453184925
1630.6306306306305 9.955423731297955
1640.6406406406406 9.908260738770617
1650.6506506506507 9.8594895927777
1660.6606606606606 9.80916257157951
1670.6706706706707 9.757328119096687
1680.6806806806808 9.704030849137979
1690.6906906906906 9.649311549838872
1700.7007007007007 9.59322112824455
1710.7107107107108 9.535848620972855
1720.7207207207207 9.477216914477365
1730.7307307307308 9.417338278776798
1740.7407407407409 9.35622223636962
1750.7507507507507 9.293875552779854
1760.7607607607606 9.230302246036457
1770.770770770771 9.165503620685593
1780.7807807807808 9.099478333192419
1790.7907907907907 9.032222497065227
1800.8008008008007 8.963729837750408
1810.8108108108108 8.893991909316783
1820.8208208208207 8.822998387176355
1830.8308308308308 8.750737453561536
1840.8408408408409 8.677196295154642
1850.8508508508507 8.602361735063685
1860.8608608608608 8.526221024119343
1870.870870870871 8.448762819018311
1880.8808808808808 8.369978376840063
1890.890890890891 8.289862996473218
1900.900900900901 8.208417736903868
1910.9109109109108 8.125651439361025
1920.920920920921 8.041583074016957
1930.930930930931 7.9562444211565815
1940.940940940941 7.869683080193445
1950.950950950951 7.781965776341489
1960.960960960961 7.693181903057676
1970.970970970971 7.603447197934312
1980.980980980981 7.512907400809211
1990.9909909909911 7.421741687121248
2001.001001001001 7.330165610530418
2011.0110110110109 7.238433232483952
2021.0210210210212 7.146838071290334
2031.031031031031 7.055712480270079
2041.0410410410411 6.9654250760289305
2051.051051051051 6.876375895813156
2061.061061061061 6.788989076188933
2071.071071071071 6.703703016605034
2081.081081081081 6.620958214007941
2091.091091091091 6.541183210357109
2101.101101101101 6.464779353984183
2111.1111111111113 6.392105300190091
2121.121121121121 6.323462325884024
2131.131131131131 6.259081572975707
2141.141141141141 6.1991142456566255
2151.151151151151 6.143625568541214
2161.161161161161 6.092592989694794
2171.1711711711714 6.045908728174513
2181.1811811811813 6.003386374401933
2191.191191191191 5.964770908201354
2201.201201201201 5.929751247776646
2211.2112112112113 5.897974308980376
2221.221221221221 5.869059542328087
2231.2312312312315 5.84261301035745
2241.2412412412414 5.818240241536154
2251.2512512512512 5.795557314221459
2261.261261261261 5.774199851336632
2271.271271271271 5.753829815836719
2281.2812812812813 5.73414017007432
2291.2912912912916 5.714857589659889
2301.3013013013015 5.695743503258018
2311.3113113113113 5.676593768728977
2321.321321321321 5.657237301243177
2331.331331331331 5.637533949806097
2341.3413413413414 5.6173718840004
2351.3513513513512 5.5966647103055145
2361.3613613613616 5.575348492954515
2371.3713713713714 5.553378811998897
2381.3813813813813 5.530727953553057
2391.391391391391 5.507382295301368
2401.4014014014015 5.483339924574803
2411.4114114114113 5.45860850634481
2421.4214214214217 5.433203403695079
2431.4314314314315 5.407146042914989
2441.4414414414414 5.380462508481848
2451.4514514514512 5.353182349082028
2461.4614614614616 5.325337573778025
2471.4714714714714 5.29696181688412
2481.4814814814818 5.268089650603117
2491.4914914914916 5.238756025639373
2501.5015015015015 5.208995821565352
2511.5115115115113 5.178843490480566
2521.521521521521 5.14833277932212
2531.5315315315315 5.1174965179696414
2541.541541541542 5.0863664619735145
2551.5515515515517 5.054973180288448
2561.5615615615616 5.02334597979726
2571.5715715715714 4.9915128596576315
2581.5815815815813 4.959500489600488
2591.5915915915916 4.927334207262013
2601.6016016016015 4.895038030452777
2611.611611611612 4.862634680970799
2621.6216216216217 4.830145617163357
2631.6316316316315 4.797591072947869
2641.6416416416414 4.764990101427842
2651.6516516516517 4.732360621595932
2661.6616616616616 4.69971946691338
2671.671671671672 4.667082434801636
2681.6816816816818 4.634464336286089
2691.6916916916916 4.601879045199658
2701.7017017017015 4.569339546491956
2711.711711711712 4.5368579833020775
2721.7217217217217 4.504445702544616
2731.731731731732 4.472113298832233
2741.741741741742 4.439870656617699
2751.7517517517517 4.407726990485432
2761.7617617617616 4.37569088356031
2771.7717717717715 4.343770324030656
2781.781781781782 4.311972739805252
2791.791791791792 4.280305031341399
2801.801801801802 4.248773602694061
2811.811811811812 4.217384390845432
2821.8218218218217 4.186142893380872
2831.8318318318316 4.155054194581294
2841.841841841842 4.12412299000453
2851.851851851852 4.0933536096292364
2861.861861861862 4.062750039634667
2871.871871871872 4.032315942888771
2881.881881881882 4.002054678215334
2891.8918918918916 3.9719693185088865
2901.901901901902 3.9420626677635062
2911.911911911912 3.912337277079097
2921.921921921922 3.8827954597057848
2931.931931931932 3.853439305184236
2941.941941941942 3.8242706926367402
2951.9519519519517 3.795291303260943
2961.961961961962 3.7665026320753574
2971.971971971972 3.7379059989628605
2981.9819819819822 3.7095025590558066
2991.991991991992 3.681293312503659
3002.002002002002 3.6532791136617213
3012.012012012012 3.6254606797369884
3022.0220220220217 3.5978385989251063
3032.032032032032 3.575579411714104
3042.0420420420423 3.547687104861054
3052.052052052052 3.5198168533761223
3062.062062062062 3.49201949700833
3072.072072072072 3.4643384660176584
3082.0820820820823 3.4368105809052554
3092.092092092092 3.4094667819822337
3102.102102102102 3.3823327930891303
3112.1121121121123 3.3554297238680943
3122.122122122122 3.3287746149779474
3132.132132132132 3.3023809305544094
3142.1421421421423 3.276259002074737
3152.152152152152 3.2504164276041356
3162.162162162162 3.2248584301940544
3172.1721721721724 3.199588178979945
3182.1821821821823 3.174607076296362
3192.192192192192 3.1499150138964493
3202.202202202202 3.125510601135503
3212.2122122122123 3.101391367757666
3222.222222222222 3.0775539437132178
3232.232232232232 3.053994218233086
3242.2422422422424 3.0307074801978753
3252.252252252252 3.0076885416614534
3262.262262262262 2.9849318462241485
3272.2722722722724 2.9624315637976344
3282.2822822822823 2.9401816731623445
3292.292292292292 2.9181760335883213
3302.3023023023025 2.8964084466711406
3312.3123123123123 2.8748727094253828
3322.322322322322 2.8535626595784818
3332.3323323323325 2.8324722139167426
3342.3423423423424 2.811595400452718
3352.352352352352 2.7909263851076953
3362.3623623623625 2.7704594935348967
3372.3723723723724 2.750189228646855
3382.3823823823823 2.730110284354244
3392.3923923923926 2.7102175559726005
3402.4024024024025 2.690506147707163
3412.4124124124123 2.6709713775843844
3422.4224224224226 2.6516087801609327
3432.4324324324325 2.6324141073068366
3442.4424424424424 2.6133833273285796
3452.4524524524522 2.5945126226700506
3462.4624624624626 2.5757983864040543
3472.4724724724724 2.5572372177043143
3482.4824824824823 2.538825916467265
3492.4924924924926 2.520561477234456
3502.5025025025025 2.502441082549475
3512.5125125125123 2.484462095868234
3522.5225225225226 2.4666220541277526
3532.5325325325325 2.4489186600662003
3542.5425425425424 2.4313497743758647
3552.5525525525527 2.4139134077606466
3562.5625625625626 2.3966077129606345
3572.5725725725724 2.379430976798138
3582.5825825825827 2.3623816122922783
3592.5925925925926 2.3454581508825605
3602.6026026026025 2.3286592347959614
3612.612612612613 2.3119836095867514
3622.6226226226227 2.2954301168734577
3632.6326326326325 2.2789976872931255
3642.642642642643 2.262685333689235
3652.6526526526527 2.2464921445461896
3662.6626626626626 2.230417277680239
3672.672672672673 2.214459954194107
3682.6826826826828 2.19861945270008
3692.6926926926926 2.1828951038143045
3702.7027027027025 2.1672862849231227
3712.712712712713 2.1517924152207164
3722.7227227227227 2.136412951015866
3732.7327327327325 2.121147381304409
3742.742742742743 2.10599522360298
3752.7527527527527 2.0909560200386474
3762.7627627627626 2.076029333688329
3772.772772772773 2.0612147451612626
3782.7827827827828 2.046511849417234
3792.7927927927926 2.0319202528128684
3802.802802802803 2.017439570367982
3812.812812812813 2.0030694232436907
3822.8228228228227 1.9888094364238473
3832.832832832833 1.9746592365912439
3842.842842842843 1.9606184501899535
3852.8528528528527 1.9466867016652083
3862.862862862863 1.9328636118722147
3872.872872872873 1.9191487966454375
3882.8828828828828 1.9055418655199157
3892.892892892893 1.8920424205964448
3902.902902902903 1.878650055542466
3912.912912912913 1.8653643547208296
3922.922922922923 1.8521848924387376
3932.932932932933 1.8391112323094043
3942.942942942943 1.826142926719199
3952.9529529529527 1.8132795163933004
3962.962962962963 1.8005205300531277
3972.972972972973 1.7878654841590476
3982.982982982983 1.7753138827321544
3992.992992992993 1.7628652172491313
4003.003003003003 1.7505189666045315
4013.013013013013 1.7382745971349656
4023.023023023023 1.72613156270006
4033.033033033033 1.7140893048152062
4043.043043043043 1.7021472528314257
4053.053053053053 1.6903048241578909
4063.063063063063 1.6785614245228964
4073.073073073073 1.6669164482692866
4083.0830830830832 1.655369278680603
4093.093093093093 1.643919288334397
4103.103103103103 1.6325658394793876
4113.113113113113 1.6213082844333593
4123.123123123123 1.6101459659988466
4133.133133133133 1.599078217893898
4143.143143143143 1.5881043651953617
4153.153153153153 1.5772237247923164
4163.163163163163 1.566435605847429
4173.173173173173 1.555739310264206
4183.183183183183 1.545134133158242
4193.193193193193 1.5346193633306942
4203.203203203203 1.5241942837423967
4213.213213213214 1.5138581719871274
4223.223223223224 1.5036103007626578
4233.2332332332335 1.4934499383383604
4243.243243243243 1.4833763490182486
4253.253253253253 1.4733887935984207
4263.263263263263 1.4634865298179967
4273.273273273273 1.4536688128027075
4283.283283283283 1.4439348955004079
4293.293293293293 1.4342840291078545
4303.303303303303 1.4247154634881651
4313.313313313313 1.4152284475784587
4323.323323323323 1.405822229787228
4333.333333333334 1.3964960583810853
4343.343343343344 1.3872491818605448
4353.353353353354 1.3780808493246006
4363.3633633633635 1.3689903108238692
4373.373373373373 1.3599768177021543
4383.383383383383 1.3510396229262935
4393.393393393393 1.342177981404224
4403.403403403403 1.3333911502912177
4413.413413413413 1.3246783892842704
4423.423423423424 1.3160389609046912
4433.4334334334335 1.3074721307689103
4443.443443443443 1.2989771678476152
4453.453453453454 1.2905533447132922
4463.463463463464 1.2821999377763194
4473.473473473474 1.2739162275097202
4483.483483483484 1.265701498662776
4493.493493493494 1.257555040463639
4503.503503503503 1.2494761468111568
4513.513513513513 1.2414641164560967
4523.523523523523 1.23351825317198
4533.533533533533 1.2256378659157663
4543.543543543543 1.2178222689785836
4553.553553553554 1.2100707821267684
4563.563563563564 1.202382730733444
4573.573573573573 1.1947574459008776
4583.583583583584 1.1871942645738784
4593.593593593594 1.1796925296444756
4603.603603603604 1.172251590048129
4613.613613613614 1.1648708008517468
4623.623623623624 1.157549523333731
4633.6336336336335 1.1502871250563362
4643.643643643643 1.1430829799305793
4653.653653653653 1.1359364682739523
4663.663663663663 1.1288469768611953
4673.673673673674 1.1218138989683708
4683.683683683684 1.114836634410491
4693.693693693694 1.1079145895729337
4703.703703703704 1.1010471774368895
4713.713713713714 1.0942338175990791
4723.723723723724 1.0874739362859627
4733.733733733734 1.080766966362673
4743.743743743744 1.074112347336907
4753.753753753754 1.0675095253579692
4763.763763763764 1.060957953211209
4773.773773773773 1.0544570903080348
4783.783783783783 1.0480064026717373
4793.793793793793 1.041605362919295
4803.803803803804 1.03525345023937
4813.813813813814 1.0289501503666938
4823.823823823824 1.0226949555529998
4833.833833833834 1.016487364534713
4843.843843843844 1.0103268824975522
4853.853853853854 1.0042130210382172
4863.863863863864 0.9981452981233384
4873.873873873874 0.9921232380458259
4883.883883883884 0.9861463713788006
4893.893893893894 0.9802142349272308
4903.9039039039035 0.9743263716774401
4913.913913913913 0.9684823307446142
4923.923923923924 0.9626816673184476
4933.933933933934 0.9569239426070669
4943.943943943944 0.9512087237793382
4953.953953953955 0.9455355839057065
4963.9639639639645 0.9399041018976696
4973.973973973974 0.9343138624459943
4983.983983983984 0.9287644559578021
4993.993993993994 0.9232554784926155
5004.004004004004 0.9177865316974684
5014.014014014014 0.9123572227411849
5024.024024024024 0.9069671642479044
5034.0340340340335 0.9016159742299643
5044.044044044043 0.8963032760202031
5054.054054054054 0.8910286982037829
5064.064064064064 0.885791874549602
5074.074074074074 0.8805924439413734
5084.084084084085 0.8754300503084403
5094.0940940940945 0.8703043425564086
5104.104104104104 0.865214974497637
5114.114114114114 0.8601616047816762
5124.124124124124 0.8551438968256954
5134.134134134134 0.8501615187449627
5144.144144144144 0.8452141432834308
5154.154154154154 0.8403014477444783
5164.1641641641645 0.8354231139218552
5174.174174174174 0.8305788280308845
5184.184184184184 0.8257682806399487
5194.194194194194 0.8209911666023202
5204.204204204204 0.8162471849883649
5214.214214214214 0.8115360390181523
5224.224224224225 0.806857435994515
5234.2342342342345 0.8022110872365875
5244.244244244244 0.7975967080138477
5254.254254254254 0.7930140174807037
5264.264264264264 0.7884627386116327
5274.274274274274 0.7839425981369237
5284.284284284285 0.7794533264790157
5294.294294294295 0.774994657689484
5304.304304304304 0.7705663293866645
5314.314314314314 0.7661680826939654
5324.324324324324 0.7617996621788518
5334.334334334334 0.7574608157925464
5344.344344344345 0.7531512948104396
5354.354354354355 0.7488708537732368
5364.3643643643645 0.744619250428841
5374.374374374374 0.7403962456749963
5384.384384384384 0.7362016035026832
5394.394394394394 0.7320350909402947
5404.404404404404 0.7278964779985795
5414.414414414415 0.7237855376163744
5424.424424424425 0.7197020456071231
5434.4344344344345 0.7156457806061862
5444.444444444444 0.7116165240189452
5454.454454454454 0.7076140599697102
5464.464464464464 0.7036381752514209
5474.474474474475 0.6996886592761503
5484.484484484485 0.6957653040264106
5494.494494494495 0.6918679040072547
5504.504504504504 0.6879962561991829
5514.514514514514 0.6841501600118387
5524.524524524524 0.6803294172385063
5534.534534534535 0.676533832011396
5544.544544544545 0.6727632107577189
5554.554554554555 0.6690173621565443
5564.5645645645645 0.6652960970964388
5574.574574574574 0.6615992286338785
5584.584584584584 0.6579265719524332
5594.594594594595 0.6542779443227091
5604.604604604605 0.6506531650630581
5614.614614614615 0.6470520555010285
5624.624624624625 0.6434744389355668
5634.6346346346345 0.6399201405999562
5644.644644644644 0.6363889876254821
5654.654654654654 0.6328808090058257
5664.664664664665 0.6293954355621655
5674.674674674675 0.625932699908994
5684.684684684685 0.6224924364206255
5694.694694694695 0.6190744811983979
5704.704704704704 0.6156786720385575
5714.714714714714 0.6123048484008116
5724.724724724725 0.608952851377551
5734.734734734735 0.6056225236637242
5744.744744744745 0.602313709527358
5754.754754754755 0.5990262547807146
5764.764764764765 0.5957600067520775
5774.774774774774 0.5925148142581556
5784.784784784785 0.589290527577093
5794.794794794795 0.5860869984220818
5804.804804804805 0.5829040799155618
5814.814814814815 0.5797416265640029
5824.824824824825 0.5765994942332558
5834.8348348348345 0.5734775401244633
5844.844844844845 0.5703756227505286
5854.854854854855 0.567293601913118
5864.864864864865 0.5642313386801995
5874.874874874875 0.5611886953641073
5884.884884884885 0.5581655355001129
5894.894894894895 0.5551617238255068
5904.9049049049045 0.5521771262591695
5914.914914914915 0.5492116098816314
5924.924924924925 0.5462650429156088
5934.934934934935 0.5433372947069999
5944.944944944945 0.5404282357063475
5954.954954954955 0.5375377374507443
5964.964964964965 0.5346656725461787
5974.974974974975 0.5318119146503105
5984.984984984985 0.5289763384556696
5994.994994994995 0.5261588196732649
6005.005005005005 0.5233592350165991
6015.015015015015 0.5205774621860776
6025.025025025025 0.5178133798538055
6035.035035035035 0.51506686764876
6045.045045045045 0.5123378061423375
6055.055055055055 0.5096260768342574
6065.065065065065 0.5069315621388223
6075.075075075075 0.5042541453715246
6085.085085085085 0.5015937107359872
6095.0950950950955 0.4989501433112385
6105.105105105105 0.4963233290393073
6115.115115115115 0.49371315471313143
6125.125125125125 0.4911195079647747
6135.135135135135 0.4885422772539457
6145.145145145145 0.4859813518568035
6155.155155155155 0.48343662185505537
6165.1651651651655 0.4809079781253278
6175.175175175175 0.4783953123288127
6185.185185185185 0.4758985169011745
6195.195195195195 0.47341748504271985
6205.205205205205 0.4709521107088145
6215.215215215215 0.46850228860054777
6225.225225225226 0.46606791415563564
6235.235235235235 0.46364888353955425
6245.245245245245 0.4612450936369032
6255.255255255255 0.4588564420429873
6265.265265265265 0.45648282705561083
6275.275275275275 0.4541241476670859
6285.285285285286 0.45178030355643917
6295.295295295296 0.4494511950818187
6305.305305305305 0.4471367232730916
6315.315315315315 0.4448367898246302
6325.325325325325 0.442551297088279
6335.335335335335 0.4402801480664985
6345.345345345346 0.4380232464056794
6355.355355355356 0.4357804963896269
6365.3653653653655 0.43355180293320283
6375.375375375375 0.43133707157612805
6385.385385385385 0.4291362084769364
6395.395395395395 0.4269491204070773
6405.405405405405 0.42477571474516357
