#lamb flux
1000.0 0.2985743911834184
1010.01001001001 0.29623237534044555
1020.0200200200201 0.29381331485719553
1030.03003003003 0.2913241209470178
1040.0400400400401 0.28877135458806646
1050.05005005005 0.2861612376333013
1060.06006006006 0.2834996642104522
1070.07007007007 0.28079221230608425
1080.08008008008 0.2780441554422908
1090.0900900900901 0.2752604743673661
1100.1001001001 0.27244586869323817
1110.11011011011 0.26960476842259673
1120.1201201201202 0.26674134531764515
1130.13013013013 0.26385952407037316
1140.1401401401401 0.26096299324125527
1150.1501501501502 0.25805521593947134
1160.16016016016 0.25513944022316093
1170.1701701701702 0.2522187092029686
1180.1801801801803 0.24929587083628277
1190.1901901901902 0.24637358740315832
1200.2002002002002 0.24345434465803983
1210.2102102102103 0.24054046065408402
1220.2202202202202 0.2376340942391845
1230.2302302302303 0.23473725322477523
1240.2402402402402 0.2318518022301543
1250.2502502502502 0.2289793083475871
1260.2602602602603 0.22612090352246778
1270.2702702702702 0.22327725139014026
1280.2802802802803 0.22044980980430456
1290.2902902902902 0.21763992456232584
1300.3003003003003 0.21484883539371044
1310.3103103103103 0.21207768169093058
1320.3203203203202 0.20932750798896724
1330.3303303303303 0.2065992692003614
1340.3403403403404 0.20389383561286578
1350.3503503503503 0.20121199765702127
1360.3603603603603 0.1985544704511386
1370.3703703703704 0.19592189813125724
1380.3803803803803 0.1933148579736971
1390.3903903903904 0.19073386431781006
1400.4004004004005 0.18817937229649068
1410.4104104104103 0.18565178138193114
1420.4204204204204 0.1831514387539926
1430.4304304304305 0.1806786424984326
1440.4404404404404 0.1782336446420855
1450.4504504504505 0.17581665403191188
1460.4604604604606 0.17342783906466805
1470.4704704704704 0.17106733027374416
1480.4804804804805 0.16873522277953235
1490.4904904904906 0.1664315786094765
1500.5005005005005 0.16415642889375356
1510.5105105105106 0.1619097759423278
1520.5205205205207 0.15969159520891155
1530.5305305305305 0.1575018371471579
1540.5405405405404 0.15534042896420672
1550.5505505505505 0.15320727627650554
1560.5605605605606 0.15110226467262153
1570.5705705705705 0.1490252611875769
1580.5805805805805 0.1469761156930435
1590.5905905905906 0.14495466220755332
1600.6006006006005 0.1429607201307047
1610.6106106106106 0.14099409540517596
1620.6206206206207 0.13905458161019482
1630.6306306306305 0.13714196098996345
1640.6406406406406 0.13525600542038801
1650.6506506506507 0.1333964773173393
1660.6606606606606 0.13156313048953874
1670.6706706706707 0.12975571093906146
1680.6806806806808 0.12797395761235086
1690.6906906906906 0.1262176031045611
1700.7007007007007 0.12448637886469431
1710.7107107107108 0.12278002469744267
1720.7207207207207 0.12109825535685838
1730.7307307307308 0.11944077956705483
1740.7407407407409 0.11780730308825597
1750.7507507507507 0.11619752916149417
1760.7607607607606 0.11461115892871719
1770.770770770771 0.11304789183126711
1780.7807807807808 0.11150742598993302
1790.7907907907907 0.10998945857008958
1800.8008008008007 0.10849368613580562
1810.8108108108108 0.10701980499725855
1820.8208208208207 0.10556751155631987
1830.8308308308308 0.10413650265578951
1840.8408408408409 0.10272647593843708
1850.8508508508507 0.10133713022275215
1860.8608608608608 0.09996816590307384
1870.870870870871 0.09861928538252225
1880.8808808808808 0.09729019354780737
1890.890890890891 0.09598059829543956
1900.900900900901 0.09469021111896014
1910.9109109109108 0.09341874776632647
1920.920920920921 0.09216592897528154
1930.930930930931 0.090931481292059
1940.940940940941 0.089715137974751
1950.950950950951 0.08851663997667336
1960.960960960961 0.08733573699668903
1970.970970970971 0.08617218857238632
1980.980980980981 0.08502576517811952
1990.9909909909911 0.08389624927344817
2001.001001001001 0.08278343622921899
2011.0110110110109 0.08168713503991583
2021.0210210210212 0.08060716871432987
2031.031031031031 0.07954337422535368
2041.0410410410411 0.07849560189782791
2051.051051051051 0.07746371412521608
2061.061061061061 0.07644758333530505
2071.071071071071 0.07544708917440544
2081.081081081081 0.07446211494804576
2091.091091091091 0.07349254343936706
2101.101101101101 0.07253825231529956
2111.1111111111113 0.07159910941216642
2121.121121121121 0.07067496825154855
2131.131131131131 0.06976566415987616
2141.141141141141 0.06887101134163091
2151.151151151151 0.06799080118422074
2161.161161161161 0.06712480195980808
2171.1711711711714 0.06627275995144577
2181.1811811811813 0.06543440188911268
2191.191191191191 0.0646094384576991
2201.201201201201 0.06379756855161973
2211.2112112112113 0.06299848390966661
2221.221221221221 0.06221187376989705
2231.2312312312315 0.06143742923047768
2241.2412412412414 0.06067484707569409
2251.2512512512512 0.059923832912028824
2261.261261261261 0.059184103543760254
2271.271271271271 0.05845538859074531
2281.2812812812813 0.057737431406980316
2291.2912912912916 0.05702998939528373
2301.3013013013015 0.056332833832240366
2311.3113113113113 0.05564574932156619
2321.321321321321 0.054968532987302754
2331.331331331331 0.05430099350470599
2341.3413413413414 0.05364295004978161
2351.3513513513512 0.05299423123073913
2361.3613613613616 0.05235467404797208
2371.3713713713714 0.05172412291455947
2381.3813813813813 0.05110242875718894
2391.391391391391 0.050489448207892466
2401.4014014014015 0.04988504288986523
2411.4114114114113 0.04928907879558961
2421.4214214214217 0.04870142575213228
2431.4314314314315 0.04812195696645568
2441.4414414414414 0.04755054864255494
2451.4514514514512 0.04698707966191704
2461.4614614614616 0.046431431318970796
2471.4714714714714 0.04588348710368281
2481.4814814814818 0.04534313252411935
2491.4914914914916 0.0448102549625471
2501.5015015015015 0.04428474355941727
2511.5115115115113 0.04376648912032799
2521.521521521521 0.04325538404176045
2531.5315315315315 0.042751322252021724
2541.541541541542 0.04225419916439561
2551.5515515515517 0.04176391163999985
2561.5615615615616 0.041280357958279286
2571.5715715715714 0.040803437793434025
2581.5815815815813 0.04033305219539269
2591.5915915915916 0.0398691035742057
2601.6016016016015 0.03941149568695249
2611.611611611612 0.0389601336264391
2621.6216216216217 0.03851492381111433
2631.6316316316315 0.038075773975754984
2641.6416416416414 0.03764259316257356
2651.6516516516517 0.0372152917124822
2661.6616616616616 0.036793781256314384
2671.671671671672 0.03637797470585838
2681.6816816816818 0.03596778624459999
2691.6916916916916 0.03556313131810443
2701.7017017017015 0.03516392662399517
2711.711711711712 0.03477009010150754
2721.7217217217217 0.03438154092061088
2731.731731731732 0.0339981994707048
2741.741741741742 0.03361998734890522
2751.7517517517517 0.03324682734794055
2761.7617617617616 0.032878643443685025
2771.7717717717715 0.032515360782357304
2781.781781781782 0.03215690566741541
2791.791791791792 0.03180320554617991
2801.801801801802 0.031454188996216444
2811.811811811812 0.03110978571150926
2821.8218218218217 0.03076992648845635
2831.8318318318316 0.030434543211715074
2841.841841841842 0.03010356883992669
2851.851851851852 0.029776937391346226
2861.861861861862 0.02945458392940243
2871.871871871872 0.029136444548211477
2881.881881881882 0.028822456358066205
2891.8918918918916 0.0285125574709211
2901.901901901902 0.028206686985891623
2911.911911911912 0.027904784974785362
2921.921921921922 0.027606792467680528
2931.931931931932 0.027312651438566708
2941.941941941942 0.027022304791060534
2951.9519519519517 0.02673569634420866
2961.961961961962 0.02645277081838887
2971.971971971972 0.026173473821318887
2981.9819819819822 0.02589775183418189
2991.991991991992 0.025625552197876652
3002.002002002002 0.025356823099399108
3012.012012012012 0.025091513558361884
3022.0220220220217 0.02482957341365712
3032.032032032032 0.02457184594314526
3042.0420420420423 0.024316380448725132
3052.052052052052 0.024064109172827676
3062.062062062062 0.023814994002175974
3072.072072072072 0.023568996234091304
3082.0820820820823 0.023326076719997306
3092.092092092092 0.02308619599338616
3102.102102102102 0.02284931438370093
3112.1121121121123 0.022615392117461806
3122.122122122122 0.022384389407846407
3132.132132132132 0.022156266533827934
3142.1421421421423 0.021930983909876654
3152.152152152152 0.021708502147140683
3162.162162162162 0.021488782106939497
3172.1721721721724 0.02127178494732914
3182.1821821821823 0.02105747216342891
3192.192192192192 0.020845805622136816
3202.202202202202 0.020636747591803555
3212.2122122122123 0.020430260767382757
3222.222222222222 0.02022630829152713
3232.232232232232 0.02002485377205654
3242.2422422422424 0.019825861296184612
3252.252252252252 0.019629295441853722
3262.262262262262 0.019435121286495473
3272.2722722722724 0.01924330441350357
3282.2822822822823 0.01905381091667838
3292.292292292292 0.01886660740287782
3302.3023023023025 0.01868166099308598
3312.3123123123123 0.018498939322090808
3322.322322322322 0.01831841053694266
3332.3323323323325 0.01814004329434899
3342.3423423423424 0.01796380675714472
3352.352352352352 0.01778967058996318
3362.3623623623625 0.017617604954220968
3372.3723723723724 0.01744758050251683
3382.3823823823823 0.017279568372535217
3392.3923923923926 0.017113540180535465
3402.4024024024025 0.016949468014498374
3412.4124124124123 0.016787324426994488
3422.4224224224226 0.016627082427831355
3432.4324324324325 0.016468715476530383
3442.4424424424424 0.01631219747467809
3452.4524524524522 0.01615750275819155
3462.4624624624626 0.01600460608953287
3472.4724724724724 0.015853482649903456
3482.4824824824823 0.015704108031444675
3492.4924924924926 0.015556458229468552
3502.5025025025025 0.015410509634738521
3512.5125125125123 0.015266239025817868
3522.5225225225226 0.015123623561500708
3532.5325325325325 0.014982640773338324
3542.5425425425424 0.014843268558271535
3552.5525525525527 0.01470548517137807
3562.5625625625626 0.014569269218742322
3572.5725725725724 0.014434599650453333
3582.5825825825827 0.014301455753735811
3592.5925925925926 0.01416981714621763
3602.6026026026025 0.014039663769336522
3612.612612612613 0.013910975881887598
3622.6226226226227 0.013783734053712653
3632.6326326326325 0.013657919159531589
3642.642642642643 0.013533512372915737
3652.6526526526527 0.013410495160402212
3662.6626626626626 0.01328884927574798
3672.672672672673 0.013168556754322372
3682.6826826826828 0.013049599907635835
3692.6926926926926 0.012931961318002942
3702.7027027027025 0.012815623833337089
3712.712712712713 0.012700570562074541
3722.7227227227227 0.012586784868225053
3732.7327327327325 0.012474250366545937
3742.742742742743 0.012362950917837172
3752.7527527527527 0.01225287062435414
3762.7627627627626 0.012143993825335155
3772.772772772773 0.012036305092640746
3782.7827827827828 0.01192978922650153
3792.7927927927926 0.011824431251371724
3802.802802802803 0.011720216411885219
3812.812812812813 0.011617130168911216
3822.8228228228227 0.011515158195706475
3832.832832832833 0.011414286374161222
3842.842842842843 0.0113145007911359
3852.8528528528527 0.011215787734885938
3862.862862862863 0.011118133691571762
3872.872872872873 0.011021525341851461
3882.8828828828828 0.01092594955755328
3892.892892892893 0.0108313933984258
3902.902902902903 0.010737844108962879
3912.912912912913 0.01064528911530129
3922.922922922923 0.010553716022188575
3932.932932932933 0.010463112610019018
3942.942942942943 0.010373466831935331
3952.9529529529527 0.010284766810994194
3962.962962962963 0.010197000837393513
3972.972972972973 0.01011015736575943
3982.982982982983 0.010024225012491244
3992.992992992993 0.009939192553162356
4003.003003003003 0.009855048919975658
4013.013013013013 0.009771783199271427
4023.023023023023 0.009689384629086336
4033.033033033033 0.009607842596761899
4043.043043043043 0.00952714663660087
4053.053053053053 0.009447286427570199
4063.063063063063 0.00936825179104911
4073.073073073073 0.009290032688620999
4083.0830830830832 0.009212619219907861
4093.093093093093 0.009136001620446048
4103.103103103103 0.009060170259602115
4113.113113113113 0.008985115638527759
4123.123123123123 0.008910828388152525
4133.133133133133 0.008837299267213519
4143.143143143143 0.008764519160320923
4153.153153153153 0.008692479076058472
4163.163163163163 0.008621170145117813
4173.173173173173 0.008550583618466076
4183.183183183183 0.008480710865545632
4193.193193193193 0.008411543372505275
4203.203203203203 0.008343072740462051
4213.213213213214 0.008275290683792985
4223.223223223224 0.008208189028455963
4233.2332332332335 0.008141759710339029
4243.243243243243 0.00807599477363752
4253.253253253253 0.008010886369258301
4263.263263263263 0.007946426753250538
4273.273273273273 0.007882608285262355
4283.283283283283 0.007819423427022847
4293.293293293293 0.007756864740848878
4303.303303303303 0.007694924888176085
4313.313313313313 0.007633596628113658
4323.323323323323 0.007572872816022267
4333.333333333334 0.007512746402114801
4343.343343343344 0.0074532104300793515
4353.353353353354 0.007394258035724
4363.3633633633635 0.0073358824456430174
4373.373373373373 0.007278076975904025
4383.383383383383 0.007220835030755706
4393.393393393393 0.007164150101355685
4403.403403403403 0.007108015764518187
4413.413413413413 0.00705242568148109
4423.423423423424 0.00699737359669206
4433.4334334334335 0.006942853336613359
4443.443443443443 0.006888858808545018
4453.453453453454 0.006835383999466025
4463.463463463464 0.006782422974893316
4473.473473473474 0.0067299698777580005
4483.483483483484 0.00667801892729885
4493.493493493494 0.006626564417972485
4503.503503503503 0.00657560071838012
4513.513513513513 0.006525122270210552
4523.523523523523 0.006475123587199044
4533.533533533533 0.0064255992541020265
4543.543543543543 0.006376543925687108
4553.553553553554 0.00632795232573835
4563.563563563564 0.006279819246076461
4573.573573573573 0.006232139545593647
4583.583583583584 0.006184908149302982
4593.593593593594 0.006138120047401943
4603.603603603604 0.0060917702943499765
4613.613613613614 0.00604585400795985
4623.623623623624 0.00600036636850251
4633.6336336336335 0.005955302617825362
4643.643643643643 0.0059106580584836355
4653.653653653653 0.005866428052884684
4663.663663663663 0.005822608022445054
4673.673673673674 0.00577919344676004
4683.683683683684 0.005736179862785635
4693.693693693694 0.005693562864032595
4703.703703703704 0.005651338099772482
4713.713713713714 0.005609501274255508
4723.723723723724 0.0055680481459399675
4733.733733733734 0.005526974526733089
4743.743743743744 0.0054862762812431815
4753.753753753754 0.00544594932604282
4763.763763763764 0.005405989628942991
4773.773773773773 0.005366393208277945
4783.783783783783 0.0053271561322006935
4793.793793793793 0.005288274517988894
4803.803803803804 0.005249744531361025
4813.813813813814 0.005211562385802697
4823.823823823824 0.005173724341902901
4833.833833833834 0.005136226706700104
4843.843843843844 0.005099065833038002
4853.853853853854 0.005062238118930799
4863.863863863864 0.005025740006937887
4873.873873873874 0.004989567983547736
4883.883883883884 0.004953718578570929
4893.893893893894 0.004918188364542138
4903.9039039039035 0.004882973956130953
4913.913913913913 0.0048480720095613866
4923.923923923924 0.004813479222039978
4933.933933933934 0.004779192331192347
4943.943943943944 0.004745208114508009
4953.953953953955 0.0047115233887934545
4963.9639639639645 0.0046781350096332585
4973.973973973974 0.004645039870859134
4983.983983983984 0.00461223490402684
4993.993993993994 0.00457971707790078
5004.004004004004 0.004547483397946197
5014.014014014014 0.004515530905828882
5024.024024024024 0.004483856678922186
5034.0340340340335 0.004452457829821372
5044.044044044043 0.004421331505865053
5054.054054054054 0.004390474888663693
5064.064064064064 0.004359885193635065
5074.074074074074 0.004329559669546492
5084.084084084085 0.004299495598063857
5094.0940940940945 0.0042696902933072305
5104.104104104104 0.004240141101413011
5114.114114114114 0.004210845400102503
5124.124124124124 0.004181800598256824
5134.134134134134 0.004153004135498049
5144.144144144144 0.004124453481776488
5154.154154154154 0.004096146136964021
5164.1641641641645 0.004068079630453371
5174.174174174174 0.004040251520763273
5184.184184184184 0.004012659395149381
5194.194194194194 0.003985300869220885
5204.204204204204 0.003958173586562744
5214.214214214214 0.0039312752183634034
5224.224224224225 0.0039046034630479676
5234.2342342342345 0.0038781560459167216
5244.244244244244 0.003851930718788909
5254.254254254254 0.003825925259651716
5264.264264264264 0.003800137472314344
5274.274274274274 0.0037745651860671458
5284.284284284285 0.0037492062553456805
5294.294294294295 0.0037240585593996765
5304.304304304304 0.0036991200019667785
5314.314314314314 0.0036743885109510512
5324.324324324324 0.003649862038106107
5334.334334334334 0.0036255385587228655
5344.344344344345 0.0036014160713217906
5354.354354354355 0.0035774925973496097
5364.3643643643645 0.003553766180880382
5374.374374374374 0.003530234888320924
5384.384384384384 0.003506896808120431
5394.394394394394 0.0034837500504843323
5404.404404404404 0.003460792747092224
5414.414414414415 0.0034380230508198927
5424.424424424425 0.0034154391354653136
5434.4344344344345 0.0033930391954785804
5444.444444444444 0.0033708214456957173
5454.454454454454 0.0033487841210763105
5464.464464464464 0.003326925476444875
5474.474474474475 0.003305243786235939
5484.484484484485 0.0032837373442427637
5494.494494494495 0.0032624044633696417
5504.504504504504 0.0032412434753877374
5514.514514514514 0.003220252730694394
5524.524524524524 0.0031994305980758797
5534.534534534535 0.0031787754644734857
5544.544544544545 0.0031582857347529666
5554.554554554555 0.003137959831477225
5564.5645645645645 0.0031177961946822347
5574.574574574574 0.0030977932816561304
5584.584584584584 0.0030779495667214193
5594.594594594595 0.0030582635410202445
5604.604604604605 0.0030387337123027338
5614.614614614615 0.00301935860471825
5624.624624624625 0.00300013675860965
5634.6346346346345 0.002981066730310388
5644.644644644644 0.002962147091944484
5654.654654654654 0.0029433764312293024
5664.664664664665 0.0029247533512810576
5674.674674674675 0.0029062764704231004
5684.684684684685 0.0028879444219968107
5694.694694694695 0.0028697558541751805
5704.704704704704 0.0028517094297789685
5714.714714714714 0.0028338038260954193
5724.724724724725 0.0028160377346995004
5734.734734734735 0.002798409861277623
5744.744744744745 0.0027809189254537955
5754.754754754755 0.002763563660618194
5764.764764764765 0.002746342813758097
5774.774774774774 0.002729255145291158
5784.784784784785 0.002712299428900969
5794.794794794795 0.002695474451374898
5804.804804804805 0.0026787790124441434
5814.814814814815 0.0026622119246259963
5824.824824824825 0.0026457720130682615
5834.8348348348345 0.002629458115395799
5844.844844844845 0.00261326908155919
5854.854854854855 0.0025972037736854375
5864.864864864865 0.002581261065930723
5874.874874874875 0.002565439844335164
5884.884884884885 0.0025497390066795463
5894.894894894895 0.002534157462343999
5904.9049049049045 0.0025186941321685904
5914.914914914915 0.002503347948315806
5924.924924924925 0.0024881178541349028
5934.934934934935 0.002473002804028058
5944.944944944945 0.0024580017633183742
5954.954954954955 0.002443113708119613
5964.964964964965 0.002428337625207718
5974.974974974975 0.002413672511894032
5984.984984984985 0.0023991173759002437
5994.994994994995 0.002384671235234982
6005.005005005005 0.0023703331180720748
6015.015015015015 0.002356102062630432
6025.025025025025 0.002341977117055526
6035.035035035035 0.0023279573393024475
6045.045045045045 0.002314041797020528
6055.055055055055 0.002300229567439477
6065.065065065065 0.0022865197372570357
6075.075075075075 0.0022729114025281235
6085.085085085085 0.0022594036685554338
6095.0950950950955 0.0022459956497814914
6105.105105105105 0.0022326864696821202
6115.115115115115 0.002219475260661311
