#lamb flux
1000.0 4.247697947218301e+40
1010.01001001001 4.703278712295824e+40
1020.0200200200201 5.171172575231419e+40
1030.03003003003 5.648910901329076e+40
1040.0400400400401 6.134156475804929e+40
1050.05005005005 6.624740986148552e+40
1060.06006006006 7.118692311574554e+40
1070.07007007007 7.614252496634059e+40
1080.08008008008 8.109887513549211e+40
1090.0900900900901 8.604290031606061e+40
1100.1001001001 9.09637643581391e+40
1110.11011011011 9.585279294043208e+40
1120.1201201201202 1.0070336382680137e+41
1130.13013013013 1.0551077263020023e+41
1140.1401401401401 1.1027208268270463e+41
1150.1501501501502 1.14985966249378e+41
1160.16016016016 1.1965254300318784e+41
1170.1701701701702 1.242732204505492e+41
1180.1801801801803 1.2885053989406476e+41
1190.1901901901902 1.33388030556287e+41
1200.2002002002002 1.378900736696937e+41
1210.2102102102103 1.4236177765894389e+41
1220.2202202202202 1.4680886499193378e+41
1230.2302302302303 1.5123757084300845e+41
1240.2402402402402 1.556545533803221e+41
1250.2502502502502 1.6004264520248407e+41
1260.2602602602603 1.6433343388431495e+41
1270.2702702702702 1.683914261444794e+41
1280.2802802802803 1.7221358420872315e+41
1290.2902902902902 1.7579836530364197e+41
1300.3003003003003 1.7914558287146633e+41
1310.3103103103103 1.8225626888166178e+41
1320.3203203203202 1.851325391500652e+41
1330.3303303303303 1.8777746319247122e+41
1340.3403403403404 1.901949397948326e+41
1350.3503503503503 1.923895791774522e+41
1360.3603603603603 1.9436659236513023e+41
1370.3703703703704 1.961316881475871e+41
1380.3803803803803 1.9769097782228375e+41
1390.3903903903904 1.9905088775217433e+41
1400.4004004004005 2.002180796408813e+41
1410.4104104104103 2.011993783241146e+41
1420.4204204204204 2.0200170679570004e+41
1430.4304304304305 2.0263202812629582e+41
1440.4404404404404 2.030972938899336e+41
1450.4504504504505 2.0340439868521927e+41
1460.4604604604606 2.0356014032203868e+41
1470.4704704704704 2.0357118523871396e+41
1480.4804804804805 2.034440387169085e+41
1490.4904904904906 2.0318501947047725e+41
1500.5005005005005 2.028002381985045e+41
1510.5105105105106 2.022955797107483e+41
1520.5205205205207 2.016766882545877e+41
1530.5305305305305 2.0094895569553087e+41
1540.5405405405404 2.0011751222770503e+41
1550.5505505505505 1.991872193159742e+41
1560.5605605605606 1.9816266459703388e+41
1570.5705705705705 1.9704815849272143e+41
1580.5805805805805 1.9584773231465223e+41
1590.5905905905906 1.945651376650818e+41
1600.6006006006005 1.9320384696456668e+41
1610.6106106106106 1.91767054962623e+41
1620.6206206206207 1.9025768111327866e+41
1630.6306306306305 1.886783727233941e+41
1640.6406406406406 1.8703150880810743e+41
1650.6506506506507 1.8531920461507417e+41
1660.6606606606606 1.8354331680764968e+41
1670.6706706706707 1.817054493272267e+41
1680.6806806806808 1.7980695998701116e+41
1690.6906906906906 1.778489678841029e+41
1700.7007007007007 1.7583373312170903e+41
1710.7107107107108 1.7376736528598681e+41
1720.7207207207207 1.7164956706269275e+41
1730.7307307307308 1.6947918861017075e+41
1740.7407407407409 1.6725501725475463e+41
1750.7507507507507 1.6497578881673581e+41
1760.7607607607606 1.626402018754439e+41
1770.770770770771 1.602469354921698e+41
1780.7807807807808 1.577946709741366e+41
1790.7907907907907 1.5528211832730374e+41
1800.8008008008007 1.527080481069247e+41
1810.8108108108108 1.5007132942735435e+41
1820.8208208208207 1.4737097492958164e+41
1830.8308308308308 1.446061935168548e+41
1840.8408408408409 1.4177645164322692e+41
1850.8508508508507 1.3888154386125182e+41
1860.8608608608608 1.3592167318423911e+41
1870.870870870871 1.3289754157281899e+41
1880.8808808808808 1.2981045048959742e+41
1890.890890890891 1.266624109524802e+41
1900.900900900901 1.2345626183107822e+41
1910.9109109109108 1.201957942510259e+41
1920.920920920921 1.168858788890155e+41
1930.930930930931 1.1353259166726097e+41
1940.940940940941 1.1014333192981347e+41
1950.950950950951 1.0672692568480432e+41
1960.960960960961 1.0329370505689037e+41
1970.970970970971 9.985555390012828e+40
1980.980980980981 9.64259088152476e+40
1990.9909909909911 9.30197048787202e+40
2001.001001001001 8.965325651329424e+40
2011.0110110110109 8.634406635445717e+40
2021.0210210210212 8.311055882260386e+40
2031.031031031031 7.997174033125923e+40
2041.0410410410411 7.694679432291858e+40
2051.051051051051 7.40546260132013e+40
2061.061061061061 7.131337797508946e+40
2071.071071071071 6.873994250424442e+40
2081.081081081081 6.634949912229738e+40
2091.091091091091 6.415510492905277e+40
2101.101101101101 6.216736162951405e+40
2111.1111111111113 6.039417636568041e+40
2121.121121121121 5.884062497341102e+40
2131.131131131131 5.750891732970829e+40
2141.141141141141 5.639845648141944e+40
2151.151151151151 5.550597739871163e+40
2161.161161161161 5.482574808683643e+40
2171.1711711711714 5.434981539762931e+40
2181.1811811811813 5.406827963972843e+40
2191.191191191191 5.396958509722477e+40
2201.201201201201 5.40408168799774e+40
2211.2112112112113 5.426799738081934e+40
2221.221221221221 5.463637757047363e+40
2231.2312312312315 5.513071934049344e+40
2241.2412412412414 5.573556531057491e+40
2251.2512512512512 5.64354923063518e+40
2261.261261261261 5.721534446452873e+40
2271.271271271271 5.80604419278887e+40
2281.2812812812813 5.895676150992244e+40
2291.2912912912916 5.98910865520366e+40
2301.3013013013015 6.085112436888167e+40
2311.3113113113113 6.18255910199538e+40
2321.321321321321 6.28042644850147e+40
2331.331331331331 6.377800850758233e+40
2341.3413413413414 6.473877030103316e+40
2351.3513513513512 6.567955593419736e+40
2361.3613613613616 6.659438752348612e+40
2371.3713713713714 6.747824638797661e+40
2381.3813813813813 6.832700612585788e+40
2391.391391391391 6.913735920772201e+40
2401.4014014014015 6.990674021617337e+40
2411.4114114114113 7.063324834657919e+40
2421.4214214214217 7.131557126421454e+40
2431.4314314314315 7.195291192051321e+40
2441.4414414414414 7.254491948654065e+40
2451.4514514514512 7.309162517666934e+40
2461.4614614614616 7.359338341391126e+40
2471.4714714714714 7.4050818529312e+40
2481.4814814814818 7.44647769865841e+40
2491.4914914914916 7.4836284973120525e+40
2501.5015015015015 7.516651109215616e+40
2511.5115115115113 7.545673382053257e+40
2521.521521521521 7.570831335509875e+40
2531.5315315315315 7.592266745181752e+40
2541.541541541542 7.610125085958063e+40
2551.5515515515517 7.624553796091769e+40
2561.5615615615616 7.635700825042361e+40
2571.5715715715714 7.64371343058203e+40
2581.5815815815813 7.648737193378228e+40
2591.5915915915916 7.650915220124319e+40
2601.6016016016015 7.650387509157347e+40
2611.611611611612 7.647290455288576e+40
2621.6216216216217 7.641756473216468e+40
2631.6316316316315 7.63391372135678e+40
2641.6416416416414 7.623885910189334e+40
2651.6516516516517 7.611792181277856e+40
2661.6616616616616 7.597747044969725e+40
2671.671671671672 7.58186036643317e+40
2681.6816816816818 7.564237391152301e+40
2691.6916916916916 7.544978802288474e+40
2701.7017017017015 7.524180803444996e+40
2711.711711711712 7.501935221356351e+40
2721.7217217217217 7.478329623877278e+40
2731.731731731732 7.453447449386e+40
2741.741741741742 7.427368144352761e+40
2751.7517517517517 7.400167306371655e+40
2761.7617617617616 7.371916830422128e+40
2771.7717717717715 7.34268505652593e+40
2781.781781781782 7.31253691730554e+40
2791.791791791792 7.281534084238484e+40
2801.801801801802 7.249735111645613e+40
2811.811811811812 7.217195577657224e+40
2821.8218218218217 7.183968221573201e+40
2831.8318318318316 7.150103077177861e+40
2841.841841841842 7.115647601690468e+40
2851.851851851852 7.080646800131954e+40
2861.861861861862 7.045143344970786e+40
2871.871871871872 7.009177690978166e+40
2881.881881881882 6.972788185277764e+40
2891.8918918918916 6.936011172619262e+40
2901.901901901902 6.898881095940403e+40
2911.911911911912 6.861430592310046e+40
2921.921921921922 6.823690584366159e+40
2931.931931931932 6.78569036737913e+40
2941.941941941942 6.74745769208252e+40
2951.9519519519517 6.709018843421827e+40
2961.961961961962 6.670398715377153e+40
2971.971971971972 6.631620882018494e+40
2981.9819819819822 6.592707664953468e+40
2991.991991991992 6.553680197326415e+40
3002.002002002002 6.514558484526074e+40
3012.012012012012 6.475361461756012e+40
3022.0220220220217 6.436107048618181e+40
3032.032032032032 6.446650323008166e+40
3042.0420420420423 6.400971227844715e+40
3052.052052052052 6.353567920344381e+40
3062.062062062062 6.304944826079721e+40
3072.072072072072 6.255536309098864e+40
3082.0820820820823 6.205713549207908e+40
3092.092092092092 6.155791084569652e+40
3102.102102102102 6.106032954060934e+40
3112.1121121121123 6.056658401927619e+40
3122.122122122122 6.007847128622994e+40
3132.132132132132 5.959744087549675e+40
3142.1421421421423 5.912463838826231e+40
3152.152152152152 5.866094479087374e+40
3162.162162162162 5.820701171475545e+40
3172.1721721721724 5.776329303025448e+40
3182.1821821821823 5.733007298104375e+40
3192.192192192192 5.690749116863562e+40
3202.202202202202 5.649556467111434e+40
3212.2122122122123 5.60942075689602e+40
3222.222222222222 5.570324813581038e+40
3232.232232232232 5.532244393470785e+40
3242.2422422422424 5.495149504195107e+40
3252.252252252252 5.459005560192021e+40
3262.262262262262 5.42377438978093e+40
3272.2722722722724 5.389415110544612e+40
3282.2822822822823 5.355884888060429e+40
3292.292292292292 5.323139591456662e+40
3302.3023023023025 5.291134357826446e+40
3312.3123123123123 5.25982407621221e+40
3322.322322322322 5.2291638006762505e+40
3332.3323323323325 5.1991091008924885e+40
3342.3423423423424 5.169616357726149e+40
3352.352352352352 5.14064301040216e+40
3362.3623623623625 5.112147761093553e+40
3372.3723723723724 5.08409074207846e+40
3382.3823823823823 5.0564336500100825e+40
3392.3923923923926 5.029139851312212e+40
3402.4024024024025 5.002174462243279e+40
3412.4124124124123 4.975504406760007e+40
3422.4224224224226 4.949098454949645e+40
3432.4324324324325 4.922927244482099e+40
3442.4424424424424 4.896963287254827e+40
3452.4524524524522 4.871180963158851e+40
3462.4624624624626 4.845556502680089e+40
3472.4724724724724 4.820067959861896e+40
3482.4824824824823 4.794695176989194e+40
3492.4924924924926 4.7694197422091e+40
3502.5025025025025 4.744224941174143e+40
3512.5125125125123 4.719095703680759e+40
3522.5225225225226 4.694018546174847e+40
3532.5325325325325 4.668981510906414e+40
3542.5425425425424 4.643974102435515e+40
3552.5525525525527 4.618987222119774e+40
3562.5625625625626 4.594013101149436e+40
3572.5725725725724 4.56904523263767e+40
3582.5825825825827 4.544078303221186e+40
3592.5925925925926 4.519108124578149e+40
3602.6026026026025 4.494131565226837e+40
3612.612612612613 4.469146482928266e+40
3622.6226226226227 4.444151657979399e+40
3632.6326326326325 4.41914672764964e+40
3642.642642642643 4.394132121982195e+40
3652.6526526526527 4.369109001153108e+40
3662.6626626626626 4.3440791945540677e+40
3672.672672672673 4.3190451417406516e+40
3682.6826826826828 4.2940098353647845e+40
3692.6926926926926 4.268976766189197e+40
3702.7027027027025 4.243949870262301e+40
3712.712712712713 4.2189334783139756e+40
3722.7227227227227 4.193932267416335e+40
3732.7327327327325 4.1689512149383484e+40
3742.742742742743 4.143995554809548e+40
3752.7527527527527 4.119070736095318e+40
3762.7627627627626 4.094182383874881e+40
3772.772772772773 4.0693362624029007e+40
3782.7827827827828 4.0445382405261423e+40
3792.7927927927926 4.0197942593185936e+40
3802.802802802803 3.9951103018910374e+40
3812.812812812813 3.970492365324612e+40
3822.8228228228227 3.945946434672476e+40
3832.832832832833 3.9214784589687877e+40
3842.842842842843 3.8970943291802596e+40
3852.8528528528527 3.8727998580322573e+40
3862.862862862863 3.8486007616386537e+40
3872.872872872873 3.8245026428627374e+40
3882.8828828828828 3.8005109763347754e+40
3892.892892892893 3.7766310950511167e+40
3902.902902902903 3.752868178478896e+40
3912.912912912913 3.7292272420906153e+40
3922.922922922923 3.7057131282529505e+40
3932.932932932933 3.6823304983949833e+40
3942.942942942943 3.659083826381847e+40
3952.9529529529527 3.635977393021163e+40
3962.962962962963 3.613015281631101e+40
3972.972972972973 3.590201374600514e+40
3982.982982982983 3.5675393508736203e+40
3992.992992992993 3.5450326842936193e+40
4003.003003003003 3.522684642741888e+40
4013.013013013013 3.5004982880115913e+40
4023.023023023023 3.4784764763569263e+40
4033.033033033033 3.456621859661648e+40
4043.043043043043 3.434936887172896e+40
4053.053053053053 3.413423807748895e+40
4063.063063063063 3.392084672571529e+40
4073.073073073073 3.3709213382772386e+40
4083.0830830830832 3.3499354704622146e+40
4093.093093093093 3.3291285475202107e+40
4103.103103103103 3.308501864773697e+40
4113.113113113113 3.2880565388614536e+40
4123.123123123123 3.267793512347861e+40
4133.133133133133 3.247713558521532e+40
4143.143143143143 3.22781728635292e+40
4153.153153153153 3.208105145582681e+40
4163.163163163163 3.1885774319145687e+40
4173.173173173173 3.1692342922885675e+40
4183.183183183183 3.150075730211786e+40
4193.193193193193 3.131101611126403e+40
4203.203203203203 3.1123116677956875e+40
4213.213213213214 3.0937055056906557e+40
4223.223223223224 3.0752826083614687e+40
4233.2332332332335 3.0570423427791436e+40
4243.243243243243 3.038983964634475e+40
4253.253253253253 3.0211066235823796e+40
4263.263263263263 3.003409368421077e+40
4273.273273273273 2.9858911521966465e+40
4283.283283283283 2.968550837224579e+40
4293.293293293293 2.9513872000209724e+40
4303.303303303303 2.934398936136851e+40
4313.313313313313 2.9175846648900965e+40
4323.323323323323 2.9009429339901427e+40
4333.333333333334 2.8844722240514683e+40
4343.343343343344 2.868170952992487e+40
4353.353353353354 2.8520374803171735e+40
4363.3633633633635 2.8360701112772875e+40
4373.373373373373 2.820267100913628e+40
4383.383383383383 2.804626657975239e+40
4393.393393393393 2.789146948715926e+40
4403.403403403403 2.7738261005678583e+40
4413.413413413413 2.7586622056924234e+40
4423.423423423424 2.7436533244088015e+40
4433.4334334334335 2.7287974885010616e+40
4443.443443443443 2.7140927044048185e+40
4453.453453453454 2.6995369562747843e+40
4463.463463463464 2.685128208934711e+40
4473.473473473474 2.670864410711396e+40
4483.483483483484 2.656743496154707e+40
4493.493493493494 2.6427633886455365e+40
4503.503503503503 2.6289220028939143e+40
4513.513513513513 2.6152172473294566e+40
4523.523523523523 2.6016470263865024e+40
4533.533533533533 2.5882092426863756e+40
4543.543543543543 2.5749017991191646e+40
4553.553553553554 2.5617226008275814e+40
4563.563563563564 2.5486695570954214e+40
4573.573573573573 2.535740583143171e+40
4583.583583583584 2.5229336018333567e+40
4593.593593593594 2.510246545288199e+40
4603.603603603604 2.4976773564221427e+40
4613.613613613614 2.4852239903918333e+40
4623.623623623624 2.4728844159660673e+40
4633.6336336336335 2.460656616818241e+40
4643.643643643643 2.448538592743797e+40
4653.653653653653 2.4365283608051036e+40
4663.663663663663 2.4246239564062034e+40
4673.673673673674 2.4128234342998033e+40
4683.683683683684 2.4011248695288515e+40
4693.693693693694 2.389526358304972e+40
4703.703703703704 2.3780260188260266e+40
4713.713713713714 2.366621992034983e+40
4723.723723723724 2.35531244232225e+40
4733.733733733734 2.3440955581735335e+40
4743.743743743744 2.3329695527653364e+40
4753.753753753754 2.321932664509993e+40
4763.763763763764 2.3109831575522725e+40
4773.773773773773 2.300119322219354e+40
4783.783783783783 2.289339475426084e+40
4793.793793793793 2.278641961037239e+40
4803.803803803804 2.2680251501885575e+40
4813.813813813814 2.257487441568211e+40
4823.823823823824 2.2470272616603516e+40
4833.833833833834 2.2366430649523126e+40
4843.843843843844 2.226333334106997e+40
4853.853853853854 2.216096580101931e+40
4863.863863863864 2.2059313423364547e+40
4873.873873873874 2.1958361887083845e+40
4883.883883883884 2.185809715661566e+40
4893.893893893894 2.17585054820557e+40
4903.9039039039035 2.1659573399088199e+40
4913.913913913913 2.1561287728663688e+40
4923.923923923924 2.1463635576435082e+40
4933.933933933934 2.136660433196359e+40
4943.943943943944 2.1270181667705274e+40
4953.953953953955 2.1174355537789345e+40
4963.9639639639645 2.1079114176598146e+40
4973.973973973974 2.098444609715902e+40
4983.983983983984 2.089034008935776e+40
4993.993993993994 2.0796785217982742e+40
5004.004004004004 2.0703770820609066e+40
5014.014014014014 2.0611286505331199e+40
5024.024024024024 2.051932214835255e+40
5034.0340340340335 2.0427867891440369e+40
5044.044044044043 2.0336914139253428e+40
5054.054054054054 2.024645155655042e+40
5064.064064064064 2.015647106528628e+40
5074.074074074074 2.0066963841603497e+40
5084.084084084085 1.9977921312725273e+40
5094.0940940940945 1.988933515375727e+40
5104.104104104104 1.980119728440409e+40
5114.114114114114 1.971349986560694e+40
5124.124124124124 1.9626235296108172e+40
5134.134134134134 1.9539396208948683e+40
5144.144144144144 1.9452975467903576e+40
5154.154154154154 1.9366966163861514e+40
5164.1641641641645 1.9281361611152904e+40
5174.174174174174 1.9196155343832032e+40
5184.184184184184 1.9111341111917688e+40
5194.194194194194 1.9026912877597304e+40
5204.204204204204 1.8942864811398838e+40
5214.214214214214 1.8859191288334775e+40
5224.224224224225 1.8775886884022479e+40
5234.2342342342345 1.8692946370784896e+40
5244.244244244244 1.8610364713735441e+40
5254.254254254254 1.8528137066850875e+40
5264.264264264264 1.8446258769035656e+40
5274.274274274274 1.8364725340181436e+40
5284.284284284285 1.8283532477224745e+40
5294.294294294295 1.8202676050206317e+40
5304.304304304304 1.812215209833498e+40
5314.314314314314 1.8041956826059154e+40
5324.324324324324 1.7962086599148723e+40
5334.334334334334 1.7882537940790135e+40
5344.344344344345 1.780330752769712e+40
5354.354354354355 1.7724392186239772e+40
5364.3643643643645 1.7645788888594241e+40
5374.374374374374 1.7567494748915352e+40
5384.384384384384 1.748950701953439e+40
5394.394394394394 1.7411823087184067e+40
5404.404404404404 1.7334440469252735e+40
5414.414414414415 1.7257356810069714e+40
5424.424424424425 1.7180569877223538e+40
5434.4344344344345 1.7104077557914824e+40
5444.444444444444 1.7027877855345432e+40
5454.454454454454 1.6951968885145466e+40
5464.464464464464 1.6876348871839474e+40
5474.474474474475 1.6801016145353384e+40
5484.484484484485 1.6725969137563314e+40
5494.494494494495 1.665120637888759e+40
5504.504504504504 1.6576726494923072e+40
5514.514514514514 1.6502528203126834e+40
5524.524524524524 1.6428610309544242e+40
5534.534534534535 1.6354971705584335e+40
5544.544544544545 1.6281611364843341e+40
5554.554554554555 1.620852833997714e+40
5564.5645645645645 1.6135721759623396e+40
5574.574574574574 1.6063190825374037e+40
5584.584584584584 1.5990934808798648e+40
5594.594594594595 1.5918953048519237e+40
5604.604604604605 1.5847244947337174e+40
5614.614614614615 1.5775809969412156e+40
5624.624624624625 1.5704647637494186e+40
5634.6346346346345 1.5633757530208435e+40
5644.644644644644 1.5563139279393397e+40
5654.654654654654 1.5492792567492635e+40
5664.664664664665 1.542271712500002e+40
5674.674674674675 1.5352912727958958e+40
5684.684684684685 1.5283379195515204e+40
5694.694694694695 1.5214116387523685e+40
5704.704704704704 1.5145124202209107e+40
5714.714714714714 1.507640257388027e+40
5724.724724724725 1.50079514706981e+40
5734.734734734735 1.493977089249711e+40
5744.744744744745 1.487186086866025e+40
5754.754754754755 1.4804221456046784e+40
5764.764764764765 1.4736852736973072e+40
5774.774774774774 1.466975481724585e+40
5784.784784784785 1.4602927824247818e+40
5794.794794794795 1.4536371905075029e+40
5804.804804804805 1.4470087224725837e+40
5814.814814814815 1.4404073964340918e+40
5824.824824824825 1.4338332319493999e+40
5834.8348348348345 1.4272862498532683e+40
5844.844844844845 1.4207664720969157e+40
5854.854854854855 1.4142739215919944e+40
5864.864864864865 1.4078086220594453e+40
5874.874874874875 1.4013705978831596e+40
5884.884884884885 1.3949598739684046e+40
5894.894894894895 1.3885764756049357e+40
