#lamb flux
1000.0 0.7812127575659494
1010.01001001001 0.8111204733388999
1020.0200200200201 0.8411437821212716
1030.03003003003 0.8712474909744565
1040.0400400400401 0.9013970625968272
1050.05005005005 0.9315586911591042
1060.06006006006 0.9616993705055827
1070.07007007007 0.9917869549539412
1080.08008008008 1.0217902129542873
1090.0900900900901 1.0516788738905685
1100.1001001001 1.0814236683252283
1110.11011011011 1.1109963620012147
1120.1201201201202 1.1403697839249025
1130.13013013013 1.1695178488591995
1140.1401401401401 1.198415574558864
1150.1501501501502 1.227039094079904
1160.16016016016 1.2553656634924921
1170.1701701701702 1.2833736653221883
1180.1801801801803 1.311042608037952
1190.1901901901902 1.3383531218974754
1200.2002002002002 1.3652869514513122
1210.2102102102103 1.3918269449970666
1220.2202202202202 1.4179570412639582
1230.2302302302303 1.4436622535964794
1240.2402402402402 1.4689286518937734
1250.2502502502502 1.4937433146370045
1260.2602602602603 1.5180942772894401
1270.2702702702702 1.5419704937081515
1280.2802802802803 1.5653620379731024
1290.2902902902902 1.588259925662945
1300.3003003003003 1.6106560869926334
1310.3103103103103 1.632543339151788
1320.3203203203202 1.653915358001997
1330.3303303303303 1.6747666492799074
1340.3403403403404 1.6950925194418875
1350.3503503503503 1.714889046275464
1360.3603603603603 1.7341530493925792
1370.3703703703704 1.7528820607099223
1380.3803803803803 1.7710742950123668
1390.3903903903904 1.7887286206867348
1400.4004004004005 1.8058445307046562
1410.4104104104103 1.8224221139255232
1420.4204204204204 1.8384620267829912
1430.4304304304305 1.8539654654114708
1440.4404404404404 1.8689341382625755
1450.4504504504505 1.8833702392551996
1460.4604604604606 1.8972764214972722
1470.4704704704704 1.9106557716118342
1480.4804804804805 1.9235117846951109
1490.4904904904906 1.9358483399296789
1500.5005005005005 1.947669676871535
1510.5105105105106 1.9589803724260049
1520.5205205205207 1.9697853185237497
1530.5305305305305 1.9800897005049076
1540.5405405405404 1.989898976216324
1550.5505505505505 1.999218855824099
1560.5605605605606 2.0080552823411755
1570.5705705705705 2.0164144128674493
1580.5805805805805 2.024302600537815
1590.5905905905906 2.0317263771717746
1600.6006006006005 2.0386924366165657
1610.6106106106106 2.0452076187743646
1620.6206206206207 2.051278894302798
1630.6306306306305 2.056913349976942
1640.6406406406406 2.062118174699963
1650.6506506506507 2.06690064614875
1660.6606606606606 2.0712681180402357
1670.6706706706707 2.075228008003429
1680.6806806806808 2.078787786041812
1690.6906906906906 2.081954963570328
1700.7007007007007 2.084737085022889
1710.7107107107108 2.0871417221334685
1720.7207207207207 2.089176449549893
1730.7307307307308 2.0908488438713286
1740.7407407407409 2.0921664764445724
1750.7507507507507 2.093136905506863
1760.7607607607606 2.0937676687904783
1770.770770770771 2.0940662765736877
1780.7807807807808 2.094040205163015
1790.7907907907907 2.0936968907922515
1800.8008008008007 2.093043723924218
1810.8108108108108 2.0920880439419545
1820.8208208208207 2.0908371342167786
1830.8308308308308 2.089298217541513
1840.8408408408409 2.087478451918116
1850.8508508508507 2.0853849266900033
1860.8608608608608 2.0830246590105115
1870.870870870871 2.0804045906400384
1880.8808808808808 2.0775315850656657
1890.890890890891 2.0744124249380707
1900.900900900901 2.071053809821559
1910.9109109109108 2.067462354253577
1920.920920920921 2.063644586110195
1930.930930930931 2.0596069452733285
1940.940940940941 2.055355782593724
1950.950950950951 2.050897359140419
1960.960960960961 2.0462378457223767
1970.970970970971 2.041383322660584
1980.980980980981 2.0363397797792304
1990.9909909909911 2.0311131165721
2001.001001001001 2.025709142485954
2011.0110110110109 2.020133577246583
2021.0210210210212 2.0143920511376288
2031.031031031031 2.0084901051289736
2041.0410410410411 2.002433190743965
2051.051051051051 1.9962266695564097
2061.061061061061 1.9898758122228075
2071.071071071071 1.983385796985628
2081.081081081081 1.9767617076302797
2091.091091091091 1.9700085309401916
2101.101101101101 1.963131153765331
2111.1111111111113 1.9561343598907583
2121.121121121121 1.9490228269516303
2131.131131131131 1.9418011236774906
2141.141141141141 1.9344737077518932
2151.151151151151 1.927044924538618
2161.161161161161 1.9195190068551826
2171.1711711711714 1.9119000758774616
2181.1811811811813 1.904192143150744
2191.191191191191 1.8963991135796405
2201.201201201201 1.8885247891873256
2211.2112112112113 1.8805728733843345
2221.221221221221 1.872546975472262
2231.2312312312315 1.8644506151258338
2241.2412412412414 1.8562872266398336
2251.2512512512512 1.8480601627851903
2261.261261261261 1.8397726981805824
2271.271271271271 1.831428032143508
2281.2812812812813 1.8230292910323505
2291.2912912912916 1.8145795301254213
2301.3013013013015 1.8060817351043241
2311.3113113113113 1.7975388232186946
2321.321321321321 1.788953644209917
2331.331331331331 1.7803289810655758
2341.3413413413414 1.7716675506668638
2351.3513513513512 1.7629720043797878
2361.3613613613616 1.7542449286296213
2371.3713713713714 1.745488845487404
2381.3813813813813 1.7367062132881106
2391.391391391391 1.727899427292577
2401.4014014014015 1.719070820399298
2411.4114114114113 1.7102226639078226
2421.4214214214217 1.7013571683323145
2431.4314314314315 1.6924764842617046
2441.4414414414414 1.6835827032616189
2451.4514514514512 1.6746778588125555
2461.4614614614616 1.6657639272785796
2471.4714714714714 1.6568428289008867
2481.4814814814818 1.6479164288108512
2491.4914914914916 1.6389865380576105
2501.5015015015015 1.6300549146456795
2511.5115115115113 1.6211232645785927
2521.521521521521 1.612193242905042
2531.5315315315315 1.6032664547644493
2541.541541541542 1.5943444564293232
2551.5515515515517 1.585428756342145
2561.5615615615616 1.576520816144848
2571.5715715715714 1.5676220516992994
2581.5815815815813 1.5587338340974024
2591.5915915915916 1.5498574906597171
2601.6016016016015 1.5409943059216578
2611.611611611612 1.5321455226065193
2621.6216216216217 1.5233123425847208
2631.6316316316315 1.5144959278187622
2641.6416416416414 1.5056974012935456
2651.6516516516517 1.496917847931733
2661.6616616616616 1.488158315493949
2671.671671671672 1.479419815463662
2681.6816816816818 1.4707033239166598
2691.6916916916916 1.4620097823750628
2701.7017017017015 1.4533400986458636
2711.711711711712 1.4446951476440155
2721.7217217217217 1.4360757722001403
2731.731731731732 1.4274827838528894
2741.741741741742 1.4189169636261085
2751.7517517517517 1.4103790627908723
2761.7617617617616 1.4018698036125512
2771.7717717717715 1.3933898800830335
2781.781781781782 1.3849399586382607
2791.791791791792 1.3765206788612463
2801.801801801802 1.3681326541707317
2811.811811811812 1.359776472495667
2821.8218218218217 1.3514526969356917
2831.8318318318316 1.3431618664078149
2841.841841841842 1.3349044962794563
2851.851851851852 1.3266810789880839
2861.861861861862 1.3184920846476
2871.871871871872 1.3103379616417035
2881.881881881882 1.3022191372044147
2891.8918918918916 1.294136017987973
2901.901901901902 1.2860889906182909
2911.911911911912 1.2780784222381911
2921.921921921922 1.270104661038604
2931.931931931932 1.262168036777945
2941.941941941942 1.254268861289867
2951.9519519519517 1.246407428979582
2961.961961961962 1.2385840173089677
2971.971971971972 1.230798887270641
2981.9819819819822 1.2230522838512106
2991.991991991992 1.2153444364838917
3002.002002002002 1.2076755594906965
3012.012012012012 1.2000458525143711
3022.0220220220217 1.1924555009402913
3032.032032032032 1.184905814202011
3042.0420420420423 1.1773945296803237
3052.052052052052 1.1699230361266286
3062.062062062062 1.1624914769539216
3072.072072072072 1.155099981728846
3082.0820820820823 1.1477486667038326
3092.092092092092 1.1404376353251084
3102.102102102102 1.1331669787180378
3112.1121121121123 1.1259367761511692
3122.122122122122 1.1187470954802523
3132.132132132132 1.111597993573405
3142.1421421421423 1.1044895167185271
3152.152152152152 1.0974217010139802
3162.162162162162 1.09039457274347
3172.1721721721724 1.0834081487360305
3182.1821821821823 1.0764624367119076
3192.192192192192 1.0695574356151198
3202.202202202202 1.0626931359333993
3212.2122122122123 1.0558695200061743
3222.222222222222 1.049086562321216
3232.232232232232 1.0423442298005128
3242.2422422422424 1.0356424820759207
3252.252252252252 1.0289812717550857
3262.262262262262 1.0223605446781006
3272.2722722722724 1.0157802401653468
3282.2822822822823 1.0092402912569145
3292.292292292292 1.0027406249439987
3302.3023023023025 0.9962811623926172
3312.3123123123123 0.9898618191599992
3322.322322322322 0.9834825054039475
3332.3323323323325 0.9771431260854787
3342.3423423423424 0.9708435811650238
3352.352352352352 0.9645837657924283
3362.3623623623625 0.9583635704910368
3372.3723723723724 0.9521828813360523
3382.3823823823823 0.946041580127417
3392.3923923923926 0.9399395445574148
3402.4024024024025 0.9338766483731863
3412.4124124124123 0.9278527615343369
3422.4224224224226 0.9218677503658285
3432.4324324324325 0.9159214777063063
3442.4424424424424 0.9100138030520206
3452.4524524524522 0.9041445826964928
3462.4624624624626 0.8983136698660737
3472.4724724724724 0.8925209148515197
3482.4824824824823 0.8867661651357165
3492.4924924924926 0.8810492655176794
3502.5025025025025 0.8753700582329405
3512.5125125125123 0.8697283830704352
3522.5225225225226 0.8641240774859974
3532.5325325325325 0.8585569767125614
3542.5425425425424 0.8530269138671727
3552.5525525525527 0.8475337200548942
3562.5625625625626 0.8420772244697126
3572.5725725725724 0.8366572544925058
3582.5825825825827 0.8312736357861845
3592.5925925925926 0.8259261923880644
3602.6026026026025 0.820614746799558
3612.612612612613 0.8153391200732553
3622.6226226226227 0.810099131897469
3632.6326326326325 0.804894600678304
3642.642642642643 0.7997253436193358
3652.6526526526527 0.7945911767989425
3662.6626626626626 0.7894919152453612
3672.672672672673 0.7844273730095372
3682.6826826826828 0.7793973632358059
3692.6926926926926 0.7744016982304879
3702.7027027027025 0.7694401895284243
3712.712712712713 0.764512647957533
3722.7227227227227 0.7596188837014234
3732.7327327327325 0.7547587063601101
3742.742742742743 0.7499319250089044
3752.7527527527527 0.7451383482554983
3762.7627627627626 0.740377784295307
3772.772772772773 0.7356500409651106
3782.7827827827828 0.7309549257950341
3792.7927927927926 0.7262922460589142
3802.802802802803 0.7216618088230915
3812.812812812813 0.7170634209936678
3822.8228228228227 0.712496889362267
3832.832832832833 0.7079620206503447
3842.842842842843 0.703458621552073
3852.8528528528527 0.6989864987758463
3862.862862862863 0.6945454590844365
3872.872872872873 0.6901353093338423
3882.8828828828828 0.6857558565108454
3892.892892892893 0.6814069077693415
3902.902902902903 0.6770882704654364
3912.912912912913 0.6727997521913729
3922.922922922923 0.6685411608083001
3932.932932932933 0.6643123044779232
3942.942942942943 0.6601129916930575
3952.9529529529527 0.6559430313071187
3962.962962962963 0.6518022325625776
3972.972972972973 0.6476904051184026
3982.982982982983 0.6436073590765222
3992.992992992993 0.6395529050073221
4003.003003003003 0.6355268539742225
4013.013013013013 0.6315290175573346
4023.023023023023 0.6275592078762419
4033.033033033033 0.6236172376119175
4043.043043043043 0.6197029200278026
4053.053053053053 0.6158160689900756
4063.063063063063 0.6119564989871209
4073.073073073073 0.6081240251482302
4083.0830830830832 0.6043184632615504
4093.093093093093 0.6005396297913033
4103.103103103103 0.5967873418942881
4113.113113113113 0.5930614174357032
4123.123123123123 0.589361675004281
4133.133133133133 0.5856879339267804
4143.143143143143 0.5820400142818362
4153.153153153153 0.5784177369131918
4163.163163163163 0.5748209234423314
4173.173173173173 0.5712493962805233
4183.183183183183 0.5677029786403004
4193.193193193193 0.5641814945463823
4203.203203203203 0.5606847688460631
4213.213213213214 0.5572126272190786
4223.223223223224 0.553764896186964
4233.2332332332335 0.5503414031219196
4243.243243243243 0.546941976255199
4253.253253253253 0.5435664446850303
4263.263263263263 0.5402146383840896
4273.273273273273 0.5368863882065323
4283.283283283283 0.5335815258946015
4293.293293293293 0.5302998840848222
4303.303303303303 0.5270412963137953
4313.313313313313 0.5238055970236033
4323.323323323323 0.5205926215668357
4333.333333333334 0.5174022062112515
4343.343343343344 0.5142341881440844
4353.353353353354 0.5110884054760049
4363.3633633633635 0.5079646972447472
4373.373373373373 0.5048629034184128
4383.383383383383 0.5017828648984605
4393.393393393393 0.49872442352239094
4403.403403403403 0.4956874220661388
4413.413413413413 0.49267170424617573
4423.423423423424 0.4896771147213405
4433.4334334334335 0.48670349909439803
4443.443443443443 0.4837507039133406
4453.453453453454 0.48081857667243705
4463.463463463464 0.47790696581304215
4473.473473473474 0.4750157207241636
4483.483483483484 0.4721446917428101
4493.493493493494 0.46929373015411235
4503.503503503503 0.4664626881912355
4513.513513513513 0.46365141903508467
4523.523523523523 0.46085977681380924
4533.533533533533 0.45808761660212
4543.543543543543 0.45533479442041586
4553.553553553554 0.4526011672337337
4563.563563563564 0.44988659295052597
4573.573573573573 0.44719093042126784
4583.583583583584 0.44451403943690737
4593.593593593594 0.4418557807271581
4603.603603603604 0.43921601595864057
4613.613613613614 0.436594607732883
4623.623623623624 0.4339914195841794
4633.6336336336335 0.43140631597731377
4643.643643643643 0.4288391623051597
4653.653653653653 0.42628982488614836
4663.663663663663 0.4237581709616238
4673.673673673674 0.4212440686930792
4683.683683683684 0.4187473871592845
4693.693693693694 0.41626799635330675
4703.703703703704 0.4138057671794296
4713.713713713714 0.41136057144997507
4723.723723723724 0.40893228188203046
4733.733733733734 0.40652077209408505
4743.743743743744 0.4041259166025832
4753.753753753754 0.4017475908183918
4763.763763763764 0.3993856710431918
4773.773773773773 0.39704003446579006
4783.783783783783 0.394710559158365
4793.793793793793 0.392397124072638
4803.803803803804 0.390099609035981
4813.813813813814 0.3878178947474635
4823.823823823824 0.3855518627738371
4833.833833833834 0.38330139554546405
4843.843843843844 0.38106637635219404
4853.853853853854 0.3788466893391863
4863.863863863864 0.37664221950268695
4873.873873873874 0.37445285268575706
4883.883883883884 0.3722784755739604
4893.893893893894 0.37011897569100777
4903.9039039039035 0.36797424139436485
4913.913913913913 0.3658441618708221
4923.923923923924 0.36372862713203097
4933.933933933934 0.36162752801000997
4943.943943943944 0.3595407561526179
4953.953953953955 0.35746820401900126
4963.9639639639645 0.355409764875017
4973.973973973974 0.3533653327886275
4983.983983983984 0.35133480262527755
4993.993993993994 0.34931807004324905
5004.004004004004 0.3473150314889971
5014.014014014014 0.34532558419247034
5024.024024024024 0.3433496261624143
5034.0340340340335 0.3413870561816639
5044.044044044043 0.3394377738024203
5054.054054054054 0.33750167934152026
5064.064064064064 0.3355786738756951
5074.074074074074 0.3336686592368209
5084.084084084085 0.3317715380071631
5094.0940940940945 0.32988721351461714
5104.104104104104 0.3280155898279429
5114.114114114114 0.3261565717519974
5124.124124124124 0.32431006482296687
5134.134134134134 0.32247597530359723
5144.144144144144 0.32065421017842477
5154.154154154154 0.3188446771490115
5164.1641641641645 0.31704728462917897
5174.174174174174 0.3152619417402499
5184.184184184184 0.31348855830629185
5194.194194194194 0.3117270448493672
5204.204204204204 0.3099773125847907
5214.214214214214 0.3082392734163933
5224.224224224225 0.3065128399317936
5234.2342342342345 0.30479792539768125
5244.244244244244 0.3030944437551056
5254.254254254254 0.301402309614779
5264.264264264264 0.2997214382523886
5274.274274274274 0.29805174560392217
5284.284284284285 0.29639314826100405
5294.294294294295 0.29474556346624736
5304.304304304304 0.2931089091086162
5314.314314314314 0.2914831037188063
5324.324324324324 0.28986806646463725
5334.334334334334 0.2882637171464626
5344.344344344345 0.28666997619259427
5354.354354354355 0.28508676465474486
5364.3643643643645 0.28351400420348566
5374.374374374374 0.28195161712372313
5384.384384384384 0.28039952631019305
5394.394394394394 0.27885765526297235
5404.404404404404 0.27732592808300993
5414.414414414415 0.2758042694676772
5424.424424424425 0.2742926047063378
5434.4344344344345 0.2727908596759358
5444.444444444444 0.2712989608366055
5454.454454454454 0.269816835227302
5464.464464464464 0.26834441046145086
5474.474474474475 0.2668816147226199
5484.484484484485 0.26542837676021247
5494.494494494495 0.2639846258851811
5504.504504504504 0.2625502919657645
5514.514514514514 0.2611253054232448
5524.524524524524 0.2597095972277289
5534.534534534535 0.2583030988939514
5544.544544544545 0.25690574247709924
5554.554554554555 0.2555174605686606
5564.5645645645645 0.2541381862922962
5574.574574574574 0.2527678532997337
5584.584584584584 0.25140639576668583
5594.594594594595 0.2500537483887901
5604.604604604605 0.2487098463775756
5614.614614614615 0.24737462545644984
5624.624624624625 0.24604802185671143
5634.6346346346345 0.24472997231358595
5644.644644644644 0.24342041406228607
5654.654654654654 0.24211928483409592
5664.664664664665 0.24082652285247771
5674.674674674675 0.2395420668292065
5684.684684684685 0.23826585596052471
5694.694694694695 0.23699782992332358
5704.704704704704 0.23573792887134862
5714.714714714714 0.23448609343142882
5724.724724724725 0.2332422646997308
5734.734734734735 0.23200638423803702
5744.744744744745 0.23077839407004871
5754.754754754755 0.2295582366777123
5764.764764764765 0.22834585499757232
5774.774774774774 0.22714119241714661
5784.784784784785 0.22594419277132693
5794.794794794795 0.22475480033880424
5804.804804804805 0.22357295983851777
5814.814814814815 0.2223986164261284
5824.824824824825 0.22123171569051747
5834.8348348348345 0.2200722036503082
5844.844844844845 0.21892002675041317
5854.854854854855 0.21777513185860492
5864.864864864865 0.21663746626211036
5874.874874874875 0.215506977664231
5884.884884884885 0.2143836141809853
5894.894894894895 0.21326732433777662
5904.9049049049045 0.21215805706608384
5914.914914914915 0.21105576170017692
5924.924924924925 0.20996038797385613
5934.934934934935 0.20887188601721374
5944.944944944945 0.20779020635342163
5954.954954954955 0.20671529989554058
5964.964964964965 0.20564711794335386
5974.974974974975 0.20458561218022447
5984.984984984985 0.20353073466997534
5994.994994994995 0.2024824378537929
6005.005005005005 0.2014406745471538
6015.015015015015 0.20040539793677484
6025.025025025025 0.19937656157758588
6035.035035035035 0.1983541193897253
6045.045045045045 0.1973380256555593
6055.055055055055 0.19632823501672214
6065.065065065065 0.19532470247118044
6075.075075075075 0.19432738337031952
6085.085085085085 0.19333623341605194
6095.0950950950955 0.1923512086579487
6105.105105105105 0.1913722654903918
6115.115115115115 0.19039936064975022
6125.125125125125 0.18943245121157617
6135.135135135135 0.18847149458782486
6145.145145145145 0.18751644852409427
6155.155155155155 0.18656727109688814
6165.1651651651655 0.18562392071089917
6175.175175175175 0.1846863560963145
6185.185185185185 0.18375453630614152
6195.195195195195 0.18282842071355596
6205.205205205205 0.18190796900926995
6215.215215215215 0.1809931411989211
6225.225225225226 0.18008389760048346
6235.235235235235 0.17918019884169706
6245.245245245245 0.17828200585752008
6255.255255255255 0.17738927988760048
6265.265265265265 0.17650198247376706
6275.275275275275 0.17562007545754227
6285.285285285286 0.17474352097767423
6295.295295295296 0.17387228146768843
6305.305305305305 0.17300631965345925
6315.315315315315 0.17214559855080194
6325.325325325325 0.17129008146308303
6335.335335335335 0.17043973197885087
