#lamb flux
1000.0 3.527950098767658e+34
1010.01001001001 4.231695188443203e+34
1020.0200200200201 5.055265049264155e+34
1030.03003003003 6.015401085950225e+34
1040.0400400400401 7.130627491363873e+34
1050.05005005005 8.421371020340936e+34
1060.06006006006 9.910081678276643e+34
1070.07007007007 1.1621353681118356e+35
1080.08008008008 1.3582046019568618e+35
1090.0900900900901 1.5821401942026496e+35
1100.1001001001 1.837116665826406e+35
1110.11011011011 2.126570255911265e+35
1120.1201201201202 2.4542101246537334e+35
1130.13013013013 2.8240291673336907e+35
1140.1401401401401 3.2403143702202502e+35
1150.1501501501502 3.707656640979129e+35
1160.16016016016 4.230960048261329e+35
1170.1701701701702 4.815450407755311e+35
1180.1801801801803 5.466683155046308e+35
1190.1901901901902 6.190550449106234e+35
1200.2002002002002 6.993287454098528e+35
1210.2102102102103 7.881477751379865e+35
1220.2202202202202 8.862057838072659e+35
1230.2302302302303 9.942320673322288e+35
1240.2402402402402 1.1129918238296086e+36
1250.2502502502502 1.2432862318726675e+36
1260.2602602602603 1.385952374994578e+36
1270.2702702702702 1.5418630485584644e+36
1280.2802802802803 1.7119272793872897e+36
1290.2902902902902 1.8970896724573318e+36
1300.3003003003003 2.0983300294630304e+36
1310.3103103103103 2.3166628595390456e+36
1320.3203203203202 2.5531367829211934e+36
1330.3303303303303 2.8088338288163325e+36
1340.3403403403404 3.0848686292208547e+36
1350.3503503503503 3.3823875108771946e+36
1360.3603603603603 3.7025674879838875e+36
1370.3703703703704 4.046615158675815e+36
1380.3803803803803 4.4157655086669555e+36
1390.3903903903904 4.811280625794603e+36
1400.4004004004005 5.2344483295222937e+36
1410.4104104104103 5.686580719747897e+36
1420.4204204204204 6.169012649521431e+36
1430.4304304304305 6.683100126505218e+36
1440.4404404404404 7.230218648207328e+36
1450.4504504504505 7.811761476185722e+36
1460.4604604604606 8.429137854558899e+36
1470.4704704704704 9.083771178266365e+36
1480.4804804804805 9.777097116601811e+36
1490.4904904904906 1.0510561697593745e+37
1500.5005005005005 1.1285619358832838e+37
1510.5105105105106 1.210373097034479e+37
1520.5205205205207 1.2966361835081444e+37
1530.5305305305305 1.3874979672554855e+37
1540.5405405405404 1.4831052591067941e+37
1550.5505505505505 1.5836047053904492e+37
1560.5605605605606 1.6891425844730442e+37
1570.5705705705705 1.7998646037331405e+37
1580.5805805805805 1.9159156974665912e+37
1590.5905905905906 2.0374398262056368e+37
1600.6006006006005 2.1645797779165804e+37
1610.6106106106106 2.29747697152268e+37
1620.6206206206207 2.436271263179175e+37
1630.6306306306305 2.581100755707278e+37
1640.6406406406406 2.7321016115728056e+37
1650.6506506506507 2.8894078697732533e+37
1660.6606606606606 3.0531512669752684e+37
1670.6706706706707 3.2234610632216935e+37
1680.6806806806808 3.4004638725047167e+37
1690.6906906906906 3.5842834984789675e+37
1700.7007007007007 3.7750407875208645e+37
1710.7107107107108 3.972853504391371e+37
1720.7207207207207 4.177836095980687e+37
1730.7307307307308 4.390099590453186e+37
1740.7407407407409 4.609751468330548e+37
1750.7507507507507 4.836895533509089e+37
1760.7607607607606 5.0716317907278e+37
1770.770770770771 5.314056329597276e+37
1780.7807807807808 5.564261215285115e+37
1790.7907907907907 5.822334385940772e+37
1800.8008008008007 6.088359556933586e+37
1810.8108108108108 6.362416131971291e+37
1820.8208208208207 6.644579121165469e+37
1830.8308308308308 6.934919066112263e+37
1840.8408408408409 7.2335019720664495e+37
1850.8508508508507 7.540389247301924e+37
1860.8608608608608 7.855637649774289e+37
1870.870870870871 8.17929924123276e+37
1880.8808808808808 8.511421348966525e+37
1890.890890890891 8.852046535419622e+37
1900.900900900901 9.201212575961331e+37
1910.9109109109108 9.558952445159572e+37
1920.920920920921 9.925294311962418e+37
1930.930930930931 1.0300261544246405e+38
1940.940940940941 1.068387272322505e+38
1950.950950950951 1.1076141668213645e+38
1960.960960960961 1.147707747220119e+38
1970.970970970971 1.1886684548558134e+38
1980.980980980981 1.2304962688991135e+38
1990.9909909909911 1.2731907132510125e+38
2001.001001001001 1.3167508644681157e+38
2011.0110110110109 1.36117536057884e+38
2021.0210210210212 1.4064624105730072e+38
2031.031031031031 1.4526098042567784e+38
2041.0410410410411 1.4996149220713923e+38
2051.051051051051 1.5474747443908593e+38
2061.061061061061 1.5961858597566203e+38
2071.071071071071 1.6457444714959604e+38
2081.081081081081 1.6961464022237125e+38
2091.091091091091 1.747387095856649e+38
2101.101101101101 1.7994616169791984e+38
2111.1111111111113 1.8523646476756905e+38
2121.121121121121 1.906090482257586e+38
2131.131131131131 1.9606330206215623e+38
2141.141141141141 2.0159857612228684e+38
2151.151151151151 2.0721417947909597e+38
2161.161161161161 2.1290937999171667e+38
2171.1711711711714 2.1868340414993834e+38
2181.1811811811813 2.2453543727556848e+38
2191.191191191191 2.30464624116183e+38
2201.201201201201 2.364700698285122e+38
2211.2112112112113 2.425508413138059e+38
2221.221221221221 2.487059688406343e+38
2231.2312312312315 2.549344478745496e+38
2241.2412412412414 2.612352410291634e+38
2251.2512512512512 2.6760728005818556e+38
2261.261261261261 2.7404946782011145e+38
2271.271271271271 2.805606801634003e+38
2281.2812812812813 2.8713976769728516e+38
2291.2912912912916 2.937855574294906e+38
2301.3013013013015 3.004968542656728e+38
2311.3113113113113 3.0727244237562718e+38
2321.321321321321 3.141110864381982e+38
2331.331331331331 3.2101153278074296e+38
2341.3413413413414 3.2797251043047903e+38
2351.3513513513512 3.3499273209480662e+38
2361.3613613613616 3.4207089508625855e+38
2371.3713713713714 3.492056822056763e+38
2381.3813813813813 3.56395762594872e+38
2391.391391391391 3.636397925677189e+38
2401.4014014014015 3.709364164264461e+38
2411.4114114114113 3.782842672680548e+38
2421.4214214214217 3.8568196778417595e+38
2431.4314314314315 3.931281310564265e+38
2441.4414414414414 4.006213613483373e+38
2451.4514514514512 4.081602548941553e+38
2461.4614614614616 4.157434006843068e+38
2471.4714714714714 4.233693812469065e+38
2481.4814814814818 4.310367734244916e+38
2491.4914914914916 4.387441491449638e+38
2501.5015015015015 4.46490076185715e+38
2511.5115115115113 4.542731189298525e+38
2521.521521521521 4.620918391134851e+38
2531.5315315315315 4.6994479656309656e+38
2541.541541541542 4.778305499220726e+38
2551.5515515515517 4.857476573655447e+38
2561.5615615615616 4.9369467730279366e+38
2571.5715715715714 5.0167016906652434e+38
2581.5815815815813 5.0967269358842934e+38
2591.5915915915916 5.177008140604925e+38
2601.6016016016015 5.257530965816076e+38
2611.611611611612 5.338281107891115e+38
2621.6216216216217 5.419244304749128e+38
2631.6316316316315 5.500406341859463e+38
2641.6416416416414 5.581753058087437e+38
2651.6516516516517 5.6632703513795414e+38
2661.6616616616616 5.7449441842867315e+38
2671.671671671672 5.826760589325227e+38
2681.6816816816818 5.908705674173956e+38
2691.6916916916916 5.990765626708799e+38
2701.7017017017015 6.072926719873487e+38
2711.711711711712 6.155175316387614e+38
2721.7217217217217 6.237497873292356e+38
2731.731731731732 6.3198809463346875e+38
2741.741741741742 6.402311194191137e+38
2751.7517517517517 6.484775382532245e+38
2761.7617617617616 6.567260387929123e+38
2771.7717717717715 6.6497532016034735e+38
2781.781781781782 6.732240933022937e+38
2791.791791791792 6.814710813343261e+38
2801.801801801802 6.897150198699382e+38
2811.811811811812 6.979546573347173e+38
2821.8218218218217 7.061887552658106e+38
2831.8318318318316 7.144160885968803e+38
2841.841841841842 7.226354459287704e+38
2851.851851851852 7.3084562978613e+38
2861.861861861862 7.390454568601927e+38
2871.871871871872 7.472337582379846e+38
2881.881881881882 7.5540937961818e+38
2891.8918918918916 7.635711815138574e+38
2901.901901901902 7.71718039442415e+38
2911.911911911912 7.798488441028762e+38
2921.921921921922 7.879625015408678e+38
2931.931931931932 7.960579333015125e+38
2941.941941941942 8.041340765704881e+38
2951.9519519519517 8.121898843035312e+38
2961.961961961962 8.202243253446313e+38
2971.971971971972 8.282363845331833e+38
2981.9819819819822 8.362250628003635e+38
2991.991991991992 8.441893772549746e+38
3002.002002002002 8.52128361259049e+38
3012.012012012012 8.600410644934313e+38
3022.0220220220217 8.679265530136396e+38
3032.032032032032 8.757866691589768e+38
3042.0420420420423 8.836146776536962e+38
3052.052052052052 8.914126599125215e+38
3062.062062062062 8.991797712814022e+38
3072.072072072072 9.06915181233062e+38
3082.0820820820823 9.146180735402958e+38
3092.092092092092 9.222876464320126e+38
3102.102102102102 9.299231127326533e+38
3112.1121121121123 9.375236999855717e+38
3122.122122122122 9.450886505610004e+38
3132.132132132132 9.526172217491847e+38
3142.1421421421423 9.6010868583925e+38
3152.152152152152 9.675623301843676e+38
3162.162162162162 9.749774572537877e+38
3172.1721721721724 9.823533846722416e+38
3182.1821821821823 9.89689445247273e+38
3192.192192192192 9.969849869849776e+38
3202.202202202202 1.0042393730946685e+39
3212.2122122122123 1.0114519819829532e+39
3222.222222222222 1.018622207237656e+39
3232.232232232232 1.0257494576021096e+39
3242.2422422422424 1.0328331569401943e+39
3252.252252252252 1.0398727441925984e+39
3262.262262262262 1.0468676733246997e+39
3272.2722722722724 1.0538174132664857e+39
3282.2822822822823 1.0607214478448962e+39
3292.292292292292 1.0675792757089758e+39
3302.3023023023025 1.074390410248211e+39
3312.3123123123123 1.0811543795043965e+39
3322.322322322322 1.087870726077385e+39
3332.3323323323325 1.094539007025063e+39
3342.3423423423424 1.101158793757854e+39
3352.352352352352 1.10772967192809e+39
3362.3623623623625 1.1142512413145291e+39
3372.3723723723724 1.1207231157023207e+39
3382.3823823823823 1.127144922758704e+39
3392.3923923923926 1.133516303904699e+39
3402.4024024024025 1.1398369141830648e+39
3412.4124124124123 1.1461064221227613e+39
3422.4224224224226 1.1523245096001762e+39
3432.4324324324325 1.1584908716973268e+39
3442.4424424424424 1.1646052165572917e+39
3452.4524524524522 1.1706672652370491e+39
3462.4624624624626 1.1766767515579766e+39
3472.4724724724724 1.1826334219541628e+39
3482.4824824824823 1.1885370353187624e+39
3492.4924924924926 1.194387362848557e+39
3502.5025025025025 1.2001841878869071e+39
3512.5125125125123 1.2059273057652605e+39
3522.5225225225226 1.2116165236433774e+39
3532.5325325325325 1.2172516603484413e+39
3542.5425425425424 1.2228325462131836e+39
3552.5525525525527 1.2283590229131869e+39
3562.5625625625626 1.233830943303487e+39
3572.5725725725724 1.2392481712546171e+39
3582.5825825825827 1.2446105814882002e+39
3592.5925925925926 1.2499180594122426e+39
3602.6026026026025 1.2551705009561967e+39
3612.612612612613 1.2603678124059573e+39
3622.6226226226227 1.2655099102388315e+39
3632.6326326326325 1.270596720958647e+39
3642.642642642643 1.2756281809310399e+39
3652.6526526526527 1.2806042362190463e+39
3662.6626626626626 1.2855248424190543e+39
3672.672672672673 1.2903899644972418e+39
3682.6826826826828 1.2951995766265134e+39
3692.6926926926926 1.2999536620240801e+39
3702.7027027027025 1.3046522127896912e+39
3712.712712712713 1.309295229744624e+39
3722.7227227227227 1.3138827222714791e+39
3732.7327327327325 1.3184147081548294e+39
3742.742742742743 1.3228912134228154e+39
3752.7527527527527 1.3273122721896844e+39
3762.7627627627626 1.3316779264993744e+39
3772.772772772773 1.3359882261701607e+39
3782.7827827827828 1.3402432286404251e+39
3792.7927927927926 1.3444429988155651e+39
3802.802802802803 1.3485876089161169e+39
3812.812812812813 1.3526771383270998e+39
3822.8228228228227 1.3567116734486254e+39
3832.832832832833 1.3606913075478038e+39
3842.842842842843 1.3646161406119807e+39
3852.8528528528527 1.36848627920333e+39
3862.862862862863 1.3723018363148127e+39
3872.872872872873 1.3760629312275565e+39
3882.8828828828828 1.379769689369637e+39
3892.892892892893 1.3834222421763374e+39
3902.902902902903 1.3870207269518255e+39
3912.912912912913 1.390565286732351e+39
3922.922922922923 1.3940560701509085e+39
3932.932932932933 1.397493231303421e+39
3942.942942942943 1.4008769296164352e+39
3952.9529529529527 1.4042073297163576e+39
3962.962962962963 1.4074846013002056e+39
3972.972972972973 1.4107089190079296e+39
3982.982982982983 1.4138804622962865e+39
3992.992992992993 1.416999415314244e+39
4003.003003003003 1.4200659667799872e+39
4013.013013013013 1.423080309859462e+39
4023.023023023023 1.4260426420465056e+39
4033.033033033033 1.4289531650445403e+39
4043.043043043043 1.431812084649836e+39
4053.053053053053 1.4346196106363487e+39
4063.063063063063 1.4373759566421345e+39
4073.073073073073 1.4400813400573104e+39
4083.0830830830832 1.4427359819136094e+39
4093.093093093093 1.445340106775473e+39
4103.103103103103 1.44789394263271e+39
4113.113113113113 1.4503977207947216e+39
4123.123123123123 1.4528516757862457e+39
4133.133133133133 1.4552560452446692e+39
4143.143143143143 1.4576110698188617e+39
4153.153153153153 1.4599169930695408e+39
4163.163163163163 1.4621740613711628e+39
4173.173173173173 1.4643825238153127e+39
4183.183183183183 1.4665426321156175e+39
4193.193193193193 1.468654640514135e+39
4203.203203203203 1.4707188056892417e+39
4213.213213213214 1.472735386664996e+39
4223.223223223224 1.4747046447219622e+39
4233.2332332332335 1.476626843309494e+39
4243.243243243243 1.4785022479594633e+39
4253.253253253253 1.4803311262014225e+39
4263.263263263263 1.4821137474791945e+39
4273.273273273273 1.4838503830688617e+39
4283.283283283283 1.4855413059981764e+39
4293.293293293293 1.487186790967336e+39
4303.303303303303 1.48878711427115e+39
4313.313313313313 1.4903425537225703e+39
4323.323323323323 1.4918533885775596e+39
4333.333333333334 1.4933198994613132e+39
4343.343343343344 1.494742368295797e+39
4353.353353353354 1.4961210782286075e+39
4363.3633633633635 1.4974563135631145e+39
4373.373373373373 1.498748359689917e+39
4383.383383383383 1.4999975030195405e+39
4393.393393393393 1.5012040309164247e+39
4403.403403403403 1.5023682316341338e+39
4413.413413413413 1.503490394251813e+39
4423.423423423424 1.5045708086118636e+39
4433.4334334334335 1.505609765258811e+39
4443.443443443443 1.5066075553793874e+39
4453.453453453454 1.5075644707437698e+39
4463.463463463464 1.5084808036479993e+39
4473.473473473474 1.5093568468575393e+39
4483.483483483484 1.510192893551981e+39
4493.493493493494 1.5109892372708645e+39
4503.503503503503 1.5117461718606112e+39
4513.513513513513 1.512463991422561e+39
4523.523523523523 1.5131429902620727e+39
4533.533533533533 1.513783462838711e+39
4543.543543543543 1.5143857037174836e+39
4553.553553553554 1.514950007521111e+39
4563.563563563564 1.5154766688833333e+39
4573.573573573573 1.515965982403228e+39
4583.583583583584 1.516418242600526e+39
4593.593593593594 1.5168337438719214e+39
4603.603603603604 1.5172127804483434e+39
4613.613613613614 1.517555646353204e+39
4623.623623623624 1.517862635361577e+39
4633.6336336336335 1.5181340409603198e+39
4643.643643643643 1.5183701563091164e+39
4653.653653653653 1.518571274202425e+39
4663.663663663663 1.518737687032322e+39
4673.673673673674 1.5188696867522226e+39
4683.683683683684 1.5189675648414816e+39
4693.693693693694 1.519031612270838e+39
4703.703703703704 1.5190621194687118e+39
4713.713713713714 1.519059376288333e+39
4723.723723723724 1.5190236719756768e+39
4733.733733733734 1.5189552951382206e+39
4743.743743743744 1.5188545337144857e+39
4753.753753753754 1.5187216749443604e+39
4763.763763763764 1.5185570053402073e+39
4773.773773773773 1.5183608106587e+39
4783.783783783783 1.5181333758734398e+39
4793.793793793793 1.5178749851482803e+39
4803.803803803804 1.5175859218113797e+39
4813.813813813814 1.5172664683299847e+39
4823.823823823824 1.5169169062858828e+39
4833.833833833834 1.5165375163515644e+39
4843.843843843844 1.516128578267057e+39
4853.853853853854 1.515690370817423e+39
4863.863863863864 1.51522317181091e+39
4873.873873873874 1.5147272580577555e+39
4883.883883883884 1.5142029053496162e+39
4893.893893893894 1.5136503884396168e+39
4903.9039039039035 1.513069981023025e+39
4913.913913913913 1.5124619557185175e+39
4923.923923923924 1.511826584050034e+39
4933.933933933934 1.5111641364292254e+39
4943.943943943944 1.510474882138462e+39
4953.953953953955 1.509759089314406e+39
4963.9639639639645 1.5090170249321418e+39
4973.973973973974 1.5082489547898338e+39
4983.983983983984 1.5074551434939312e+39
4993.993993993994 1.506635854444885e+39
5004.004004004004 1.5057913498233805e+39
5014.014014014014 1.5049218905770776e+39
5024.024024024024 1.5040277364078418e+39
5034.0340340340335 1.5031091457594572e+39
5044.044044044043 1.5021663758058242e+39
5054.054054054054 1.501199682439618e+39
5064.064064064064 1.5002093202614113e+39
5074.074074074074 1.4991955425692438e+39
5084.084084084085 1.4981586013486267e+39
5094.0940940940945 1.497098747263002e+39
5104.104104104104 1.4960162296445983e+39
5114.114114114114 1.49491129648573e+39
5124.124124124124 1.4937841944304852e+39
5134.134134134134 1.4926351687668248e+39
5144.144144144144 1.4914644634190705e+39
5154.154154154154 1.4902723209407847e+39
5164.1641641641645 1.4890589825080178e+39
5174.174174174174 1.487824687912929e+39
5184.184184184184 1.4865696755577805e+39
5194.194194194194 1.485294182449264e+39
5204.204204204204 1.4839984441932003e+39
5214.214214214214 1.4826826949895598e+39
5224.224224224225 1.4813471676278318e+39
5234.2342342342345 1.4799920934827108e+39
5244.244244244244 1.478617702510099e+39
5254.254254254254 1.477224223243448e+39
5264.264264264264 1.475811882790362e+39
5274.274274274274 1.4743809068295514e+39
5284.284284284285 1.4729315196080416e+39
5294.294294294295 1.471463943938688e+39
5304.304304304304 1.4699784011979672e+39
5314.314314314314 1.4684751113240428e+39
5324.324324324324 1.4669542928151016e+39
5334.334334334334 1.4654161627279537e+39
5344.344344344345 1.463860936676884e+39
5354.354354354355 1.4622888288327578e+39
5364.3643643643645 1.4607000519223768e+39
5374.374374374374 1.4590948172280734e+39
5384.384384384384 1.4574733345875265e+39
5394.394394394394 1.4558358123938276e+39
5404.404404404404 1.454182457595753e+39
5414.414414414415 1.4525134756982655e+39
5424.424424424425 1.45082907076322e+39
5434.4344344344345 1.4491294454102864e+39
5444.444444444444 1.4474148008180646e+39
5454.454454454454 1.445685336725415e+39
5464.464464464464 1.4439412514329582e+39
5474.474474474475 1.4421827418047862e+39
5484.484484484485 1.440410003270343e+39
5494.494494494495 1.438623229826489e+39
5504.504504504504 1.4368226140397438e+39
5514.514514514514 1.435008347048684e+39
5524.524524524524 1.4331806185665356e+39
5534.534534534535 1.4313396168838947e+39
5544.544544544545 1.4294855288716277e+39
5554.554554554555 1.427618539983918e+39
5564.5645645645645 1.425738834261459e+39
5574.574574574574 1.423846594334799e+39
5584.584584584584 1.4219420014278172e+39
5594.594594594595 1.420025235361344e+39
5604.604604604605 1.4180964745569138e+39
5614.614614614615 1.4161558960406498e+39
5624.624624624625 1.4142036754472613e+39
5634.6346346346345 1.412239987024185e+39
5644.644644644644 1.4102650036358207e+39
5654.654654654654 1.4082788967679072e+39
5664.664664664665 1.4062818365319858e+39
5674.674674674675 1.4042739916699923e+39
5684.684684684685 1.4022555295589404e+39
5694.694694694695 1.4002266162157137e+39
5704.704704704704 1.398187416301953e+39
5714.714714714714 1.396138093129044e+39
5724.724724724725 1.3940788086631902e+39
5734.734734734735 1.392009723530583e+39
5744.744744744745 1.3899309970226523e+39
5754.754754754755 1.3878427871014006e+39
5764.764764764765 1.385745250404827e+39
5774.774774774774 1.3836385422524142e+39
5784.784784784785 1.3815228166507074e+39
5794.794794794795 1.3793982262989456e+39
5804.804804804805 1.377264922594788e+39
5814.814814814815 1.375123055640082e+39
5824.824824824825 1.3729727742467198e+39
5834.8348348348345 1.3708142259425328e+39
5844.844844844845 1.3686475569772706e+39
5854.854854854855 1.3664729123286172e+39
5864.864864864865 1.3642904357082748e+39
5874.874874874875 1.362100269568097e+39
5884.884884884885 1.3599025551062709e+39
