#lamb flux
1000.0 7.484462677428078e+39
1010.01001001001 7.84303692394262e+39
1020.0200200200201 8.20725269090717e+39
1030.03003003003 8.576718153978929e+39
1040.0400400400401 8.951036554667975e+39
1050.05005005005 9.329807559831856e+39
1060.06006006006 9.712628564713749e+39
1070.07007007007 1.0099095936452456e+40
1080.08008008008 1.0488806195671866e+40
1090.0900900900901 1.0881357134380232e+40
1100.1001001001 1.1276348868985069e+40
1110.11011011011 1.1673384827751634e+40
1120.1201201201202 1.207207267250677e+40
1130.13013013013 1.2472025154814909e+40
1140.1401401401401 1.28728609072326e+40
1150.1501501501502 1.3274205170582846e+40
1160.16016016016 1.367569045848382e+40
1170.1701701701702 1.4076957160620964e+40
1180.1801801801803 1.4477654086468703e+40
1190.1901901901902 1.4877438951350625e+40
1200.2002002002002 1.5275978806878727e+40
1210.2102102102103 1.5672950417934557e+40
1220.2202202202202 1.6068040588449465e+40
1230.2302302302303 1.6460946438313616e+40
1240.2402402402402 1.6851375633790557e+40
1250.2502502502502 1.723904625171672e+40
1260.2602602602603 1.7623686569020394e+40
1270.2702702702702 1.8005034971230014e+40
1280.2802802802803 1.8382842657719948e+40
1290.2902902902902 1.875687192250371e+40
1300.3003003003003 1.912689615606782e+40
1310.3103103103103 1.9492699817261275e+40
1320.3203203203202 1.9854078377457105e+40
1330.3303303303303 2.0210838239138263e+40
1340.3403403403404 2.0562796630989076e+40
1350.3503503503503 2.0909781481499726e+40
1360.3603603603603 2.125163127301345e+40
1370.3703703703704 2.1588194878065274e+40
1380.3803803803803 2.1919331379780187e+40
1390.3903903903904 2.224490987801517e+40
1400.4004004004005 2.256480928284602e+40
1410.4104104104103 2.287891809691762e+40
1420.4204204204204 2.3187134188093254e+40
1430.4304304304305 2.3489364553756687e+40
1440.4404404404404 2.378552507804217e+40
1450.4504504504505 2.4075540283187276e+40
1460.4604604604606 2.4359343076128817e+40
1470.4704704704704 2.4636874491386385e+40
1480.4804804804805 2.4908083431207303e+40
1490.4904904904906 2.5172926403876704e+40
1500.5005005005005 2.5431367261029467e+40
1510.5105105105106 2.5683376934737075e+40
1520.5205205205207 2.5928933175080267e+40
1530.5305305305305 2.6168020288860287e+40
1540.5405405405404 2.640062888004461e+40
1550.5505505505505 2.662675559249033e+40
1560.5605605605606 2.6846402855437565e+40
1570.5705705705705 2.7059578632217154e+40
1580.5805805805805 2.726629617257193e+40
1590.5905905905906 2.746657376894756e+40
1600.6006006006005 2.766043451706907e+40
1610.6106106106106 2.7847906081081675e+40
1620.6206206206207 2.802902046349812e+40
1630.6306306306305 2.820381378016296e+40
1640.6406406406406 2.8372326040411903e+40
1650.6506506506507 2.8534600932576993e+40
1660.6606606606606 2.86906856149605e+40
1670.6706706706707 2.8840630512376846e+40
1680.6806806806808 2.898448911833811e+40
1690.6906906906906 2.9122317802938646e+40
1700.7007007007007 2.925417565470757e+40
1710.7107107107108 2.9380124358748643e+40
1720.7207207207207 2.9500227810693007e+40
1730.7307307307308 2.9614552056994234e+40
1740.7407407407409 2.9723165147347224e+40
1750.7507507507507 2.9826136976974964e+40
1760.7607607607606 2.992353913456169e+40
1770.770770770771 3.001544475578407e+40
1780.7807807807808 3.010192838238591e+40
1790.7907907907907 3.01830658267382e+40
1800.8008008008007 3.0258934041824457e+40
1810.8108108108108 3.0329610996591673e+40
1820.8208208208207 3.0395175556609036e+40
1830.8308308308308 3.045570736998053e+40
1840.8408408408409 3.05112867584642e+40
1850.8508508508507 3.05619946137579e+40
1860.8608608608608 3.060791229892254e+40
1870.870870870871 3.0649121554923663e+40
1880.8808808808808 3.068570441228492e+40
1890.890890890891 3.0717743107857555e+40
1900.900900900901 3.0745320006720422e+40
1910.9109109109108 3.076851752922893e+40
1920.920920920921 3.078741808322973e+40
1930.930930930931 3.0802104001443095e+40
1940.940940940941 3.081265748398634e+40
1950.950950950951 3.0819160545956345e+40
1960.960960960961 3.082169496991017e+40
1970.970970970971 3.082034226296464e+40
1980.980980980981 3.081518361808045e+40
1990.9909909909911 3.080629987889912e+40
2001.001001001001 3.0793771507266454e+40
2011.0110110110109 3.0777678552317326e+40
2021.0210210210212 3.0758100619735946e+40
2031.031031031031 3.073511683958008e+40
2041.0410410410411 3.0708805830914335e+40
2051.051051051051 3.067924566149717e+40
2061.061061061061 3.064651380096331e+40
2071.071071071071 3.0610687066390065e+40
2081.081081081081 3.0571841559849313e+40
2091.091091091091 3.053005259850144e+40
2101.101101101101 3.048539463890698e+40
2111.1111111111113 3.043794119837069e+40
2121.121121121121 3.0387764777116354e+40
2131.131131131131 3.03349367857203e+40
2141.141141141141 3.02795274823521e+40
2151.151151151151 3.0221605923890247e+40
2161.161161161161 3.01612399339304e+40
2171.1711711711714 3.009849608921395e+40
2181.1811811811813 3.00334397243079e+40
2191.191191191191 2.996613495272688e+40
2201.201201201201 2.989664470135581e+40
2211.2112112112113 2.982503075417948e+40
2221.221221221221 2.9751353801025813e+40
2231.2312312312315 2.9675673487253233e+40
2241.2412412412414 2.9598048460940035e+40
2251.2512512512512 2.9518536415010226e+40
2261.261261261261 2.9437194122690798e+40
2271.271271271271 2.9354077465602125e+40
2281.2812812812813 2.9269241454540996e+40
2291.2912912912916 2.9182740243578307e+40
2301.3013013013015 2.909462713844883e+40
2311.3113113113113 2.900495460038684e+40
2321.321321321321 2.891377424658746e+40
2331.331331331331 2.882113684839877e+40
2341.3413413413414 2.872709232821078e+40
2351.3513513513512 2.863168975583781e+40
2361.3613613613616 2.853497734501515e+40
2371.3713713713714 2.8437002450467834e+40
2381.3813813813813 2.833781156586433e+40
2391.391391391391 2.823745032284956e+40
2401.4014014014015 2.8135963491256105e+40
2411.4114114114113 2.803339498052222e+40
2421.4214214214217 2.7929787842292835e+40
2431.4314314314315 2.7825184274145e+40
2441.4414414414414 2.7719625624357593e+40
2451.4514514514512 2.7613152397632717e+40
2461.4614614614616 2.750580426167155e+40
2471.4714714714714 2.7397620054507745e+40
2481.4814814814818 2.728863779250524e+40
2491.4914914914916 2.7178894678932948e+40
2501.5015015015015 2.7068427113036067e+40
2511.5115115115113 2.695727069953103e+40
2521.521521521521 2.6845460258458207e+40
2531.5315315315315 2.67330298353345e+40
2541.541541541542 2.662001271155376e+40
2551.5515515515517 2.6506441414989606e+40
2561.5615615615616 2.639234773076033e+40
2571.5715715715714 2.627776271212132e+40
2581.5815815815813 2.616271669145369e+40
2591.5915915915916 2.6047239291322316e+40
2601.6016016016015 2.593135943557993e+40
2611.611611611612 2.581510536049614e+40
2621.6216216216217 2.5698504625893533e+40
2631.6316316316315 2.558158412627473e+40
2641.6416416416414 2.5464370101926323e+40
2651.6516516516517 2.5346888149987347e+40
2661.6616616616616 2.522916323547113e+40
2671.671671671672 2.511121970223093e+40
2681.6816816816818 2.499308128386062e+40
2691.6916916916916 2.487477111452286e+40
2701.7017017017015 2.475631173969762e+40
2711.711711711712 2.463772512684524e+40
2721.7217217217217 2.4519032675978513e+40
2731.731731731732 2.4400255230138677e+40
2741.741741741742 2.4281413085771303e+40
2751.7517517517517 2.416252600299793e+40
2761.7617617617616 2.4043613215780295e+40
2771.7717717717715 2.392469344197361e+40
2781.781781781782 2.3805784893266635e+40
2791.791791791792 2.3686905285005904e+40
2801.801801801802 2.3568071845901993e+40
2811.811811811812 2.3449301327615957e+40
2821.8218218218217 2.333061001422437e+40
2831.8318318318316 2.3212013731561646e+40
2841.841841841842 2.3093527856438313e+40
2851.851851851852 2.297516732573436e+40
2861.861861861862 2.2856946645366915e+40
2871.871871871872 2.2738879899131347e+40
2881.881881881882 2.2620980757415794e+40
2891.8918918918916 2.25032624857883e+40
2901.901901901902 2.238573795345669e+40
2911.911911911912 2.2268419641601014e+40
2921.921921921922 2.21513196515786e+40
2931.931931931932 2.203444971300198e+40
2941.941941941942 2.19178211916898e+40
2951.9519519519517 2.1801445097491296e+40
2961.961961961962 2.1685332091984616e+40
2971.971971971972 2.1569492496049653e+40
2981.9819819819822 2.145393629731603e+40
2991.991991991992 2.1338673157486763e+40
3002.002002002002 2.122371241953867e+40
3012.012012012012 2.1109063114800113e+40
3022.0220220220217 2.0994733969907057e+40
3032.032032032032 2.0880753465927525e+40
3042.0420420420423 2.076708709770628e+40
3052.052052052052 2.065376461355643e+40
3062.062062062062 2.0540793781652192e+40
3072.072072072072 2.0428182071688126e+40
3082.0820820820823 2.0315936663944242e+40
3092.092092092092 2.0204064457982723e+40
3102.102102102102 2.009257208099809e+40
3112.1121121121123 1.998146589584154e+40
3122.122122122122 1.9870752008738532e+40
3132.132132132132 1.976043627671736e+40
3142.1421421421423 1.9650524314765158e+40
3152.152152152152 1.954102150272668e+40
3162.162162162162 1.9431932991960052e+40
3172.1721721721724 1.932326371176266e+40
3182.1821821821823 1.9215018375579554e+40
3192.192192192192 1.910720148700566e+40
3202.202202202202 1.8999817345592468e+40
3212.2122122122123 1.8892870052469187e+40
3222.222222222222 1.8786363515787407e+40
3232.232232232232 1.8680301455997864e+40
3242.2422422422424 1.8574687410967504e+40
3252.252252252252 1.8469524740943954e+40
3262.262262262262 1.8364816633374628e+40
3272.2722722722724 1.8260566107586866e+40
3282.2822822822823 1.8156776019335154e+40
3292.292292292292 1.8053449065221e+40
3302.3023023023025 1.795058778699101e+40
3312.3123123123123 1.784819457571791e+40
3322.322322322322 1.7746271675869174e+40
3332.3323323323325 1.7644821189267733e+40
3342.3423423423424 1.754384507894886e+40
3352.352352352352 1.7443345172916746e+40
3362.3623623623625 1.7343323167805007e+40
3372.3723723723724 1.7243780632443864e+40
3382.3823823823823 1.7144719011337536e+40
3392.3923923923926 1.7046139628054959e+40
3402.4024024024025 1.6948043688536412e+40
3412.4124124124123 1.685043228431885e+40
3422.4224224224226 1.6753306395682603e+40
3432.4324324324325 1.6656666894721783e+40
3442.4424424424424 1.6560514548340552e+40
3452.4524524524522 1.6464850021177656e+40
3462.4624624624626 1.636967387846115e+40
3472.4724724724724 1.6274986588795384e+40
3482.4824824824823 1.61807885268819e+40
3492.4924924924926 1.6087079976176397e+40
3502.5025025025025 1.5993861131483075e+40
3512.5125125125123 1.5901132101488353e+40
3522.5225225225226 1.580889291123522e+40
3532.5325325325325 1.5717143504539936e+40
3542.5425425425424 1.5625883746352435e+40
3552.5525525525527 1.5535113425061788e+40
3562.5625625625626 1.544483225474817e+40
3572.5725725725724 1.5355039877382452e+40
3582.5825825825827 1.5265735864974806e+40
3592.5925925925926 1.517691972167341e+40
3602.6026026026025 1.5088590885814446e+40
3612.612612612613 1.5000748731924617e+40
3622.6226226226227 1.4913392572676988e+40
3632.6326326326325 1.4826521660801425e+40
3642.642642642643 1.474013519095068e+40
3652.6526526526527 1.4654232301522906e+40
3662.6626626626626 1.4568812076441603e+40
3672.672672672673 1.4483873546894215e+40
3682.6826826826828 1.4399415693029774e+40
3692.6926926926926 1.431543744561699e+40
3702.7027027027025 1.4231937687663217e+40
3712.712712712713 1.4148915255995365e+40
3722.7227227227227 1.4066368942803682e+40
3732.7327327327325 1.398429749714875e+40
3742.742742742743 1.390269962643302e+40
3752.7527527527527 1.3821573997837255e+40
3762.7627627627626 1.374091923972276e+40
3772.772772772773 1.366073394300017e+40
3782.7827827827828 1.3581016662465408e+40
3792.7927927927926 1.350176591810351e+40
3802.802802802803 1.342298019636112e+40
3812.812812812813 1.334465795138816e+40
3822.8228228228227 1.3266797606249376e+40
3832.832832832833 1.3189397554106464e+40
3842.842842842843 1.31124561593713e+40
3852.8528528528527 1.3035971758830951e+40
3862.862862862863 1.2959942662745005e+40
3872.872872872873 1.2884367155915923e+40
3882.8828828828828 1.2809243498732722e+40
3892.892892892893 1.273456992818898e+40
3902.902902902903 1.266034465887525e+40
3912.912912912913 1.2586565883946766e+40
3922.922922922923 1.251323177606674e+40
3932.932932932933 1.2440340488326022e+40
3942.942942942943 1.2367890155139302e+40
3952.9529529529527 1.229587889311867e+40
3962.962962962963 1.2224304801924817e+40
3972.972972972973 1.2153165965096453e+40
3982.982982982983 1.2082460450858429e+40
3992.992992992993 1.201218631290881e+40
4003.003003003003 1.1942341591185796e+40
4013.013013013013 1.1872924312614426e+40
4023.023023023023 1.1803932491833854e+40
4033.033033033033 1.173536413190549e+40
4043.043043043043 1.1667217225002442e+40
4053.053053053053 1.1599489753080653e+40
4063.063063063063 1.153217968853218e+40
4073.073073073073 1.1465284994820957e+40
4083.0830830830832 1.1398803627101507e+40
4093.093093093093 1.1332733532820874e+40
4103.103103103103 1.1267072652304207e+40
4113.113113113113 1.1201818919324454e+40
4123.123123123123 1.1136970261656294e+40
4133.133133133133 1.1072524601614886e+40
4143.143143143143 1.100847985657965e+40
4153.153153153153 1.094483393950349e+40
4163.163163163163 1.0881584759407702e+40
4173.173173173173 1.0818730221862981e+40
4183.183183183183 1.0756268229456785e+40
4193.193193193193 1.069419668224742e+40
4203.203203203203 1.063251347820503e+40
4213.213213213214 1.0571216513640026e+40
4223.223223223224 1.0510303683618978e+40
4233.2332332332335 1.0449772882368397e+40
4243.243243243243 1.038962200366674e+40
4253.253253253253 1.0329848941224746e+40
4263.263263263263 1.0270451589054533e+40
4273.273273273273 1.021142784182765e+40
4283.283283283283 1.0152775595222305e+40
4293.293293293293 1.0094492746260143e+40
4303.303303303303 1.0036577193632633e+40
4313.313313313313 9.979026838017565e+39
4323.323323323323 9.921839582385583e+39
4333.333333333334 9.865013332297284e+39
4343.343343343344 9.808545996190917e+39
4353.353353353354 9.752435485660986e+39
4363.3633633633635 9.696679715727904e+39
4373.373373373373 9.641276605099068e+39
4383.383383383383 9.586224076421351e+39
4393.393393393393 9.531520056525395e+39
4403.403403403403 9.47716247666181e+39
4413.413413413413 9.42314927272947e+39
4423.423423423424 9.369478385496208e+39
4433.4334334334335 9.316147760811927e+39
4443.443443443443 9.263155349814445e+39
4453.453453453454 9.210499109128194e+39
4463.463463463464 9.158177001056046e+39
4473.473473473474 9.106186993764178e+39
4483.483483483484 9.054527061460508e+39
4493.493493493494 9.00319518456656e+39
4503.503503503503 8.952189349883105e+39
4513.513513513513 8.901507550749652e+39
4523.523523523523 8.851147787197907e+39
4533.533533533533 8.80110806609953e+39
4543.543543543543 8.751386401308077e+39
4553.553553553554 8.701980813795476e+39
4563.563563563564 8.652889331783117e+39
4573.573573573573 8.604109990867629e+39
4583.583583583584 8.555640834141592e+39
4593.593593593594 8.50747991230923e+39
4603.603603603604 8.459625283797215e+39
4613.613613613614 8.412075014860798e+39
4623.623623623624 8.364827179685257e+39
4633.6336336336335 8.317879860482886e+39
4643.643643643643 8.271231147585612e+39
4653.653653653653 8.224879139533312e+39
4663.663663663663 8.178821943158034e+39
4673.673673673674 8.133057673664104e+39
4683.683683683684 8.087584454704374e+39
4693.693693693694 8.042400418452591e+39
4703.703703703704 7.997503705672039e+39
4713.713713713714 7.952892465780579e+39
4723.723723723724 7.908564856912162e+39
4733.733733733734 7.864519045974823e+39
4743.743743743744 7.820753208705464e+39
4753.753753753754 7.77726552972128e+39
4763.763763763764 7.734054202568087e+39
4773.773773773773 7.691117429765493e+39
4783.783783783783 7.648453422849195e+39
4793.793793793793 7.606060402410262e+39
4803.803803803804 7.563936598131617e+39
4813.813813813814 7.522080248821819e+39
4823.823823823824 7.480489602446107e+39
4833.833833833834 7.439162916154872e+39
4843.843843843844 7.39809845630962e+39
4853.853853853854 7.357294498506461e+39
4863.863863863864 7.316749327597213e+39
4873.873873873874 7.276461237708221e+39
4883.883883883884 7.236428532256887e+39
4893.893893893894 7.196649523966055e+39
4903.9039039039035 7.157122534876252e+39
4913.913913913913 7.117845896355883e+39
4923.923923923924 7.078817949109428e+39
4933.933933933934 7.040037043183705e+39
4943.943943943944 7.001501537972232e+39
4953.953953953955 6.963209802217796e+39
4963.9639639639645 6.925160214013256e+39
4973.973973973974 6.887351160800562e+39
4983.983983983984 6.849781039368224e+39
4993.993993993994 6.81244825584707e+39
5004.004004004004 6.77535122570449e+39
5014.014014014014 6.73848837373717e+39
5024.024024024024 6.701858134062315e+39
5034.0340340340335 6.66545895010752e+39
5044.044044044043 6.629289274599204e+39
5054.054054054054 6.593347569549747e+39
5064.064064064064 6.55763230624334e+39
5074.074074074074 6.522141965220559e+39
5084.084084084085 6.486875036261762e+39
5094.0940940940945 6.451830018369318e+39
5104.104104104104 6.417005419748695e+39
5114.114114114114 6.382399757788463e+39
5124.124124124124 6.34801155903925e+39
5134.134134134134 6.31383935919169e+39
5144.144144144144 6.27988170305335e+39
5154.154154154154 6.246137144524773e+39
5164.1641641641645 6.212604246574538e+39
5174.174174174174 6.1792815812135e+39
5184.184184184184 6.146167729468138e+39
5194.194194194194 6.11326128135309e+39
5204.204204204204 6.080560835842924e+39
5214.214214214214 6.048065000843124e+39
5224.224224224225 6.015772393160338e+39
5234.2342342342345 5.983681638471976e+39
5244.244244244244 5.95179137129504e+39
5254.254254254254 5.920100234954397e+39
5264.264264264264 5.888606881550361e+39
5274.274274274274 5.85730997192572e+39
5284.284284284285 5.826208175632152e+39
5294.294294294295 5.795300170896123e+39
5304.304304304304 5.764584644584223e+39
5314.314314314314 5.734060292168034e+39
5324.324324324324 5.703725817688464e+39
5334.334334334334 5.673579933719685e+39
5344.344344344345 5.643621361332564e+39
5354.354354354355 5.613848830057714e+39
5364.3643643643645 5.584261077848127e+39
5374.374374374374 5.554856851041433e+39
5384.384384384384 5.525634904321782e+39
5394.394394394394 5.496594000681401e+39
5404.404404404404 5.467732911381791e+39
5414.414414414415 5.439050415914648e+39
5424.424424424425 5.410545301962484e+39
5434.4344344344345 5.382216365358926e+39
5444.444444444444 5.354062410048819e+39
5454.454454454454 5.326082248048035e+39
5464.464464464464 5.2982746994030724e+39
5474.474474474475 5.270638592150433e+39
5484.484484484485 5.243172762275788e+39
5494.494494494495 5.21587605367296e+39
5504.504504504504 5.1887473181027436e+39
5514.514514514514 5.161785415151533e+39
5524.524524524524 5.1349892121898275e+39
5534.534534534535 5.1083575843305813e+39
5544.544544544545 5.081889414387444e+39
5554.554554554555 5.055583592832858e+39
5564.5645645645645 5.029439017756087e+39
5574.574574574574 5.0034545948211304e+39
5584.584584584584 4.977629237224558e+39
5594.594594594595 4.951961865653268e+39
5604.604604604605 4.9264514082422286e+39
5614.614614614615 4.901096800532081e+39
5624.624624624625 4.8758969854267825e+39
5634.6346346346345 4.850850913151183e+39
5644.644644644644 4.8259575412085564e+39
5654.654654654654 4.801215834338173e+39
5664.664664664665 4.776624764472787e+39
5674.674674674675 4.75218331069621e+39
5684.684684684685 4.72789045920082e+39
5694.694694694695 4.7037452032451266e+39
5704.704704704704 4.679746543111352e+39
5714.714714714714 4.65589348606304e+39
5724.724724724725 4.632185046302696e+39
5734.734734734735 4.608620244929489e+39
5744.744744744745 4.585198109896985e+39
5754.754754754755 4.5619176759709484e+39
5764.764764764765 4.538777984687199e+39
5774.774774774774 4.515778084309551e+39
5784.784784784785 4.492917029787814e+39
5794.794794794795 4.470193882715876e+39
5804.804804804805 4.447607711289877e+39
5814.814814814815 4.4251575902664645e+39
5824.824824824825 4.402842600921158e+39
5834.8348348348345 4.380661831006794e+39
5844.844844844845 4.358614374712101e+39
5854.854854854855 4.336699332620361e+39
5864.864864864865 4.314915811668192e+39
5874.874874874875 4.2932629251044605e+39
5884.884884884885 4.271739792449291e+39
5894.894894894895 4.250345539453227e+39
5904.9049049049045 4.2290792980565e+39
