#lamb flux
1000.0 1.0894608929355844e+40
1010.01001001001 1.119709861311224e+40
1020.0200200200201 1.148251537862987e+40
1030.03003003003 1.175106925675315e+40
1040.0400400400401 1.2003071293301823e+40
1050.05005005005 1.2238916624152606e+40
1060.06006006006 1.2459069002920934e+40
1070.07007007007 1.2664046814892136e+40
1080.08008008008 1.2854410566631333e+40
1090.0900900900901 1.3030751807422285e+40
1100.1001001001 1.3193683414636993e+40
1110.11011011011 1.3343831158724293e+40
1120.1201201201202 1.348182645327956e+40
1130.13013013013 1.3608300190347384e+40
1140.1401401401401 1.3723877559612062e+40
1150.1501501501502 1.3829173751517665e+40
1160.16016016016 1.3924790447854592e+40
1170.1701701701702 1.4011313008319243e+40
1180.1801801801803 1.4089308267489786e+40
1190.1901901901902 1.4159322863159064e+40
1200.2002002002002 1.4221882023717042e+40
1210.2102102102103 1.4277488749042053e+40
1220.2202202202202 1.4326623325969645e+40
1230.2302302302303 1.4369743125737384e+40
1240.2402402402402 1.4407282636770222e+40
1250.2502502502502 1.4439077691234969e+40
1260.2602602602603 1.4463801310011908e+40
1270.2702702702702 1.4478740860776151e+40
1280.2802802802803 1.4484375770746904e+40
1290.2902902902902 1.448117625093331e+40
1300.3003003003003 1.4469601943117252e+40
1310.3103103103103 1.445010080041186e+40
1320.3203203203202 1.4423108177688995e+40
1330.3303303303303 1.4389046109666322e+40
1340.3403403403404 1.43483227559704e+40
1350.3503503503503 1.4301331994018974e+40
1360.3603603603603 1.4248453142066008e+40
1370.3703703703704 1.4190050796210576e+40
1380.3803803803803 1.4126474766570792e+40
1390.3903903903904 1.4058060099156905e+40
1400.4004004004005 1.3985127171236146e+40
1410.4104104104103 1.3907981849164215e+40
1420.4204204204204 1.3826915698759645e+40
1430.4304304304305 1.3742206239319717e+40
1440.4404404404404 1.36541172333212e+40
1450.4504504504505 1.3562899004716428e+40
1460.4604604604606 1.3468788779531127e+40
1470.4704704704704 1.337201104319486e+40
1480.4804804804805 1.327277790969559e+40
1490.4904904904906 1.31712894982476e+40
1500.5005005005005 1.3067734313703619e+40
1510.5105105105106 1.2962289627430343e+40
1520.5205205205207 1.2855121855806792e+40
1530.5305305305305 1.274638693390092e+40
1540.5405405405404 1.263623068223671e+40
1550.5505505505505 1.2524789164885094e+40
1560.5605605605606 1.2412189037401836e+40
1570.5705705705705 1.2298547883399475e+40
1580.5805805805805 1.2183974538780414e+40
1590.5905905905906 1.2068569402881124e+40
1600.6006006006005 1.195242473598613e+40
1610.6106106106106 1.1835624942870199e+40
1620.6206206206207 1.1718246842222725e+40
1630.6306306306305 1.1600359922005752e+40
1640.6406406406406 1.148202658100107e+40
1650.6506506506507 1.136330235702095e+40
1660.6606606606606 1.124423614249615e+40
1670.6706706706707 1.1124870388425316e+40
1680.6806806806808 1.1005241297978663e+40
1690.6906906906906 1.0885379011409157e+40
1700.7007007007007 1.0765329963556465e+40
1710.7107107107108 1.064520080483053e+40
1720.7207207207207 1.0524992644601995e+40
1730.7307307307308 1.0404690773114578e+40
1740.7407407407409 1.028427733258795e+40
1750.7507507507507 1.0163731384903085e+40
1760.7607607607606 1.0043029007346143e+40
1770.770770770771 9.922143424426842e+39
1780.7807807807808 9.801045185399971e+39
1790.7907907907907 9.679702398981028e+39
1800.8008008008007 9.55808103887234e+39
1810.8108108108108 9.436145336105342e+39
1820.8208208208207 9.313858276840916e+39
1830.8308308308308 9.191182227106893e+39
1840.8408408408409 9.068079708901538e+39
1850.8508508508507 8.944514355010387e+39
1860.8608608608608 8.820452072546038e+39
1870.870870870871 8.695862447301478e+39
1880.8808808808808 8.570720422049752e+39
1890.890890890891 8.445008281312998e+39
1900.900900900901 8.318717972065647e+39
1910.9109109109108 8.191853783336888e+39
1920.920920920921 8.064435396558658e+39
1930.930930930931 7.936501301444269e+39
1940.940940940941 7.808112547817989e+39
1950.950950950951 7.679356770923734e+39
1960.960960960961 7.550352385516381e+39
1970.970970970971 7.421252792485327e+39
1980.980980980981 7.292250382183828e+39
1990.9909909909911 7.163580054206743e+39
2001.001001001001 7.035521909628167e+39
2011.0110110110109 6.908402716962331e+39
2021.0210210210212 6.782595718300767e+39
2031.031031031031 6.658518340128395e+39
2041.0410410410411 6.536627417569044e+39
2051.051051051051 6.41741164252265e+39
2061.061061061061 6.301381111294148e+39
2071.071071071071 6.189054073091268e+39
2081.081081081081 6.080941252872523e+39
2091.091091091091 5.977528413625252e+39
2101.101101101101 5.879258096668454e+39
2111.1111111111113 5.786511690691728e+39
2121.121121121121 5.699593089692645e+39
2131.131131131131 5.618715176579488e+39
2141.141141141141 5.54399020186204e+39
2151.151151151151 5.475424828056701e+39
2161.161161161161 5.412920215660572e+39
2171.1711711711714 5.356277088253367e+39
2181.1811811811813 5.3052052918835743e+39
2191.191191191191 5.259337012344511e+39
2201.201201201201 5.218242573823035e+39
2211.2112112112113 5.181447633787981e+39
2221.221221221221 5.148450610213928e+39
2231.2312312312315 5.118739308155528e+39
2241.2412412412414 5.091805920967561e+39
2251.2512512512512 5.067159830042497e+39
2261.261261261261 5.044337880784079e+39
2271.271271271271 5.022912043545404e+39
2281.2812812812813 5.002494557730673e+39
2291.2912912912916 4.9827407961568204e+39
2301.3013013013015 4.963350174346632e+39
2311.3113113113113 4.9440654709437405e+39
2321.321321321321 4.924670929694468e+39
2331.331331331331 4.904989490547684e+39
2341.3413413413414 4.8848794571673006e+39
2351.3513513513512 4.86423085894625e+39
2361.3613613613616 4.8429617140125023e+39
2371.3713713713714 4.8210143503504923e+39
2381.3813813813813 4.7983518979115846e+39
2391.391391391391 4.774955026931384e+39
2401.4014014014015 4.7508189770421126e+39
2411.4114114114113 4.725950897894568e+39
2421.4214214214217 4.7003675041959224e+39
2431.4314314314315 4.67409303543279e+39
2441.4414414414414 4.647157502136998e+39
2451.4514514514512 4.619595195461733e+39
2461.4614614614616 4.591443434263312e+39
2471.4714714714714 4.562741523147024e+39
2481.4814814814818 4.5335298954775466e+39
2491.4914914914916 4.5038494167384464e+39
2501.5015015015015 4.4737408255168746e+39
2511.5115115115113 4.4432442915426576e+39
2521.521521521521 4.412399072450145e+39
2531.5315315315315 4.3812432531358596e+39
2541.541541541542 4.3498135536778765e+39
2551.5515515515517 4.318145193717377e+39
2561.5615615615616 4.286271802955556e+39
2571.5715715715714 4.2542253689822056e+39
2581.5815815815813 4.222036215028587e+39
2591.5915915915916 4.1897330014366544e+39
2601.6016016016015 4.1573427456724305e+39
2611.611611611612 4.124890856599287e+39
2621.6216216216217 4.0924011794829886e+39
2631.6316316316315 4.059896048840383e+39
2641.6416416416414 4.027396346782758e+39
2651.6516516516517 3.9949215649564926e+39
2661.6616616616616 3.9624898685606245e+39
2671.671671671672 3.9301181612338375e+39
2681.6816816816818 3.897822149862345e+39
2691.6916916916916 3.8656164085731825e+39
2701.7017017017015 3.8335144413522574e+39
2711.711711711712 3.801528742868987e+39
2721.7217217217217 3.7696708572051066e+39
2731.731731731732 3.73795143427854e+39
2741.741741741742 3.706380283828205e+39
2751.7517517517517 3.6749664268850916e+39
2761.7617617617616 3.6437181447020545e+39
2771.7717717717715 3.6126430251512815e+39
2781.781781781782 3.581748006626761e+39
2791.791791791792 3.551039419510256e+39
2801.801801801802 3.520523025275125e+39
2811.811811811812 3.490204053313475e+39
2821.8218218218217 3.460087235579857e+39
2831.8318318318316 3.430176839149311e+39
2841.841841841842 3.400476696790124e+39
2851.851851851852 3.3709902356522606e+39
2861.861861861862 3.34172050417169e+39
2871.871871871872 3.3126701972890676e+39
2881.881881881882 3.2838416800786376e+39
2891.8918918918916 3.255237009880056e+39
2901.901901901902 3.2268579570222304e+39
2911.911911911912 3.198706024224519e+39
2921.921921921922 3.1707824647565386e+39
2931.931931931932 3.143088299433843e+39
2941.941941941942 3.11562433252263e+39
2951.9519519519517 3.088391166622594e+39
2961.961961961962 3.0613892165931744e+39
2971.971971971972 3.0346187225845416e+39
2981.9819819819822 3.008079762231057e+39
2991.991991991992 2.981772262061366e+39
3002.002002002002 2.955696008175933e+39
3012.012012012012 2.9298506562396285e+39
3022.0220220220217 2.9042357408339066e+39
3032.032032032032 2.884758704158804e+39
3042.0420420420423 2.8588372522923916e+39
3052.052052052052 2.832945858074046e+39
3062.062062062062 2.807142146043285e+39
3072.072072072072 2.7814750513114593e+39
3082.0820820820823 2.7559857764133253e+39
3092.092092092092 2.7307086643273646e+39
3102.102102102102 2.705671992223567e+39
3112.1121121121123 2.680898690845842e+39
3122.122122122122 2.6564069945987983e+39
3132.132132132132 2.632211027430235e+39
3142.1421421421423 2.608321329517058e+39
3152.152152152152 2.5847453296024947e+39
3162.162162162162 2.5614877676196322e+39
3172.1721721721724 2.5385510719884166e+39
3182.1821821821823 2.5159356957047788e+39
3192.192192192192 2.4936404150620277e+39
3202.202202202202 2.4716625945646647e+39
3212.2122122122123 2.449998421319073e+39
3222.222222222222 2.428643111918622e+39
3232.232232232232 2.4075910945857448e+39
3242.2422422422424 2.3868361690922252e+39
3252.252252252252 2.3663716467525882e+39
3262.262262262262 2.3461904725746247e+39
3272.2722722722724 2.3262853314557653e+39
3282.2822822822823 2.306648740133949e+39
3292.292292292292 2.28727312643634e+39
3302.3023023023025 2.2681508972180377e+39
3312.3123123123123 2.249274496244984e+39
3322.322322322322 2.230636453149844e+39
3332.3323323323325 2.2122294244756324e+39
3342.3423423423424 2.1940462277187838e+39
3352.352352352352 2.1760798691898274e+39
3362.3623623623625 2.1583235664256654e+39
3372.3723723723724 2.1407707658111742e+39
3382.3823823823823 2.1234151559992607e+39
3392.3923923923926 2.1062506776567828e+39
3402.4024024024025 2.0892715300079147e+39
3412.4124124124123 2.0724721745965847e+39
3422.4224224224226 2.05584733664452e+39
3432.4324324324325 2.0393920043409136e+39
3442.4424424424424 2.023101426363334e+39
3452.4524524524522 2.006971107896745e+39
3462.4624624624626 1.990996805388111e+39
3472.4724724724724 1.9751745202476183e+39
3482.4824824824823 1.9595004916837358e+39
3492.4924924924926 1.9439711888380964e+39
3502.5025025025025 1.928583302366865e+39
3512.5125125125123 1.9133337355981374e+39
3522.5225225225226 1.89821959537935e+39
3532.5325325325325 1.8832381827147962e+39
3542.5425425425424 1.8683869832808597e+39
3552.5525525525527 1.8536636578953255e+39
3562.5625625625626 1.839066033007079e+39
3572.5725725725724 1.82459209126345e+39
3582.5825825825827 1.8102399622043722e+39
3592.5925925925926 1.7960079131252428e+39
3602.6026026026025 1.781894340143879e+39
3612.612612612613 1.7678977595011494e+39
3622.6226226226227 1.75401679911965e+39
3632.6326326326325 1.7402501904401665e+39
3642.642642642643 1.7265967605515447e+39
3652.6526526526527 1.713055424625904e+39
3662.6626626626626 1.6996251786678524e+39
3672.672672672673 1.6863050925835594e+39
3682.6826826826828 1.673094303572901e+39
3692.6926926926926 1.6599920098457376e+39
3702.7027027027025 1.646997464661388e+39
3712.712712712713 1.6341099706886858e+39
3722.7227227227227 1.621328874682527e+39
3732.7327327327325 1.608653562471523e+39
3742.742742742743 1.596083454250345e+39
3752.7527527527527 1.5836180001693825e+39
3762.7627627627626 1.5712566762135983e+39
3772.772772772773 1.5589989803618504e+39
3782.7827827827828 1.5468444290174148e+39
3792.7927927927926 1.5347925537000772e+39
3802.802802802803 1.5228428979898564e+39
3812.812812812813 1.5109950147122116e+39
3822.8228228228227 1.4992484633544598e+39
3832.832832832833 1.4876028077030624e+39
3842.842842842843 1.4760576136914525e+39
3852.8528528528527 1.4646124474481143e+39
3862.862862862863 1.453266873534725e+39
3872.872872872873 1.4420204533643398e+39
3882.8828828828828 1.4308727437897112e+39
3892.892892892893 1.4198232958521457e+39
3902.902902902903 1.4088716536814072e+39
3912.912912912913 1.398017353537538e+39
3922.922922922923 1.3872599229856642e+39
3932.932932932933 1.3765988801952033e+39
3942.942942942943 1.3660337333551022e+39
3952.9529529529527 1.3555639801971324e+39
3962.962962962963 1.3451891076195158e+39
3972.972972972973 1.3349085914034818e+39
3982.982982982983 1.3247218960156881e+39
3992.992992992993 1.314628474489727e+39
4003.003003003003 1.3046277683802912e+39
4013.013013013013 1.2947192077838276e+39
4023.023023023023 1.2849022114198651e+39
4033.033033033033 1.27517618676748e+39
4043.043043043043 1.2655405302516518e+39
4053.053053053053 1.2559946274745694e+39
4063.063063063063 1.2465378534872052e+39
4073.073073073073 1.2371695730967655e+39
4083.0830830830832 1.2278891412058812e+39
4093.093093093093 1.2186959031796555e+39
4103.103103103103 1.2095891952369319e+39
4113.113113113113 1.2005683448624033e+39
4123.123123123123 1.1916326712363538e+39
4133.133133133133 1.182781485679126e+39
4143.143143143143 1.1740140921075394e+39
4153.153153153153 1.1653297875007303e+39
4163.163163163163 1.1567278623730495e+39
4173.173173173173 1.1482076012518593e+39
4183.183183183183 1.1397682831582187e+39
4193.193193193193 1.1314091820886215e+39
4203.203203203203 1.1231295674961133e+39
4213.213213213214 1.1149287047692475e+39
4223.223223223224 1.1068058557074825e+39
4233.2332332332335 1.0987602789917573e+39
4243.243243243243 1.0907912306491069e+39
4253.253253253253 1.0828979645102802e+39
4263.263263263263 1.0750797326594615e+39
4273.273273273273 1.0673357858752585e+39
4283.283283283283 1.0596653740622494e+39
4293.293293293293 1.0520677466724639e+39
4303.303303303303 1.0445421531162304e+39
4313.313313313313 1.0370878431619431e+39
4323.323323323323 1.029704067324332e+39
4333.333333333334 1.022390077240915e+39
4343.343343343344 1.0151451260363667e+39
4353.353353353354 1.0079684686745753e+39
4363.3633633633635 1.0008593622982499e+39
4373.373373373373 9.938170665559561e+38
4383.383383383383 9.868408439165162e+38
4393.393393393393 9.799299599707514e+38
4403.403403403403 9.730836837205824e+38
4413.413413413413 9.663012878555258e+38
4423.423423423424 9.5958204901668e+38
4433.4334334334335 9.529252480482918e+38
4443.443443443443 9.463301702370473e+38
4453.453453453454 9.397961055392326e+38
4463.463463463464 9.333223487959561e+38
4473.473473473474 9.269081999365912e+38
4483.483483483484 9.205529641706964e+38
4493.493493493494 9.142559521685906e+38
4503.503503503503 9.080164802308486e+38
4513.513513513513 9.018338704469539e+38
4523.523523523523 8.957074508433501e+38
4533.533533533533 8.896365555211851e+38
4543.543543543543 8.836205247839767e+38
4553.553553553554 8.776587052555083e+38
4563.563563563564 8.717504499882077e+38
4573.573573573573 8.658951185623013e+38
4583.583583583584 8.600920771760202e+38
4593.593593593594 8.543406987271438e+38
4603.603603603604 8.486403628861563e+38
4613.613613613614 8.429904561613121e+38
4623.623623623624 8.373903719558705e+38
4633.6336336336335 8.318395106177986e+38
4643.643643643643 8.263372794822047e+38
4653.653653653653 8.208830929067802e+38
4663.663663663663 8.154763723005202e+38
4673.673673673674 8.101165461459862e+38
4683.683683683684 8.048030500153791e+38
4693.693693693694 7.995353265806694e+38
4703.703703703704 7.943128256180462e+38
4713.713713713714 7.891350040069336e+38
4723.723723723724 7.840013257238075e+38
4733.733733733734 7.78911261831059e+38
4743.743743743744 7.738642904611383e+38
4753.753753753754 7.688598967961947e+38
4763.763763763764 7.638975730434474e+38
4773.773773773773 7.589768184064867e+38
4783.783783783783 7.54097139052737e+38
4793.793793793793 7.492580480772618e+38
4803.803803803804 7.444590654631235e+38
4813.813813813814 7.396997180384892e+38
4823.823823823824 7.34979539430664e+38
4833.833833833834 7.302980700172356e+38
4843.843843843844 7.256548568745087e+38
4853.853853853854 7.210494537233925e+38
4863.863863863864 7.164814208729108e+38
4873.873873873874 7.119503251614904e+38
4883.883883883884 7.074557398961856e+38
4893.893893893894 7.029972447899776e+38
4903.9039039039035 6.985744258973059e+38
4913.913913913913 6.94186875547953e+38
4923.923923923924 6.89834192279427e+38
4933.933933933934 6.855159807679693e+38
4943.943943943944 6.812318517582975e+38
4953.953953953955 6.769814219922211e+38
4963.9639639639645 6.727643141362281e+38
4973.973973973974 6.685801567081551e+38
4983.983983983984 6.644285840030509e+38
4993.993993993994 6.603092360183283e+38
5004.004004004004 6.562217583783e+38
5014.014014014014 6.521658022581945e+38
5024.024024024024 6.481410243077343e+38
5034.0340340340335 6.441470865743682e+38
5044.044044044043 6.4018365642622765e+38
5054.054054054054 6.36250406474895e+38
5064.064064064064 6.323470144980466e+38
5074.074074074074 6.2847316336204745e+38
5084.084084084085 6.246285409445589e+38
5094.0940940940945 6.20812840057229e+38
5104.104104104104 6.170257583685142e+38
5114.114114114114 6.132669983267009e+38
5124.124124124124 6.095362670831744e+38
5134.134134134134 6.05833276415988e+38
5144.144144144144 6.021577426537771e+38
5154.154154154154 5.985093866000727e+38
5164.1641641641645 5.948879334580456e+38
5174.174174174174 5.912931127557319e+38
5184.184184184184 5.877246582717714e+38
5194.194194194194 5.8418230796169755e+38
5204.204204204204 5.806658038848149e+38
5214.214214214214 5.7717489213168856e+38
5224.224224224225 5.737093227522824e+38
5234.2342342342345 5.702688496847698e+38
5244.244244244244 5.668532306850401e+38
5254.254254254254 5.634622272569325e+38
5264.264264264264 5.6009560458320786e+38
5274.274274274274 5.567531314572904e+38
5284.284284284285 5.534345802157876e+38
5294.294294294295 5.5013972667181286e+38
5304.304304304304 5.468683500491196e+38
5314.314314314314 5.436202329170693e+38
5324.324324324324 5.4039516112643504e+38
5334.334334334334 5.371929237460644e+38
5344.344344344345 5.340133130003986e+38
5354.354354354355 5.308561242078694e+38
5364.3643643643645 5.277211557201692e+38
5374.374374374374 5.246082088624123e+38
5384.384384384384 5.215170878741823e+38
5394.394394394394 5.1844759985147854e+38
5404.404404404404 5.153995546895589e+38
5414.414414414415 5.123727650266851e+38
5424.424424424425 5.093670461887709e+38
5434.4344344344345 5.063822161349332e+38
5444.444444444444 5.034180954039459e+38
5454.454454454454 5.004745070616003e+38
5464.464464464464 4.975512766489617e+38
5474.474474474475 4.9464823213152876e+38
5484.484484484485 4.9176520384928746e+38
5494.494494494495 4.889020244676575e+38
5504.504504504504 4.86058528929329e+38
5514.514514514514 4.832345544069797e+38
5524.524524524524 4.804299402568762e+38
5534.534534534535 4.776445279733437e+38
5544.544544544545 4.748781611441059e+38
5554.554554554555 4.7213068540648356e+38
5564.5645645645645 4.6940194840444824e+38
5574.574574574574 4.666917997465219e+38
5584.584584584584 4.640000909645159e+38
5594.594594594595 4.6132667547309776e+38
5604.604604604605 4.586714085301875e+38
5614.614614614615 4.560341471981581e+38
5624.624624624625 4.534147503058495e+38
5634.6346346346345 4.508130784113746e+38
5644.644644644644 4.48228993765711e+38
5654.654654654654 4.4566236027707416e+38
5664.664664664665 4.431130434760513e+38
5674.674674674675 4.4058091048150075e+38
5684.684684684685 4.38065829967192e+38
5694.694694694695 4.355676721291858e+38
5704.704704704704 4.3308630865394255e+38
5714.714714714714 4.306216126871445e+38
5724.724724724725 4.281734588032258e+38
5734.734734734735 4.2574172297559814e+38
5744.744744744745 4.233262825475597e+38
5754.754754754755 4.209270162038793e+38
5764.764764764765 4.18543803943044e+38
5774.774774774774 4.161765270501596e+38
5784.784784784785 4.13825068070491e+38
5794.794794794795 4.11489310783636e+38
5804.804804804805 4.0916914017831765e+38
5814.814814814815 4.0686444242778575e+38
5824.824824824825 4.045751048658186e+38
5834.8348348348345 4.0230101596330916e+38
5844.844844844845 4.000420653054332e+38
5854.854854854855 3.97798143569379e+38
5864.864864864865 3.955691425026337e+38
5874.874874874875 3.9335495490181776e+38
5884.884884884885 3.911554745920497e+38
5894.894894894895 3.889705964068373e+38
