#lamb flux
1000.0 5.456848530595955
1010.01001001001 5.644023416808533
1020.0200200200201 5.829020912560905
1030.03003003003 6.011656857051048
1040.0400400400401 6.19176449967462
1050.05005005005 6.3691936545444054
1060.06006006006 6.543809842626865
1070.07007007007 6.71549343171637
1080.08008008008 6.884138782724158
1090.0900900900901 7.049653409219565
1100.1001001001 7.211957155813535
1110.11011011011 7.3709813998013685
1120.1201201201202 7.526668279468955
1130.13013013013 7.678969951597334
1140.1401401401401 7.827847879960249
1150.1501501501502 7.973272155983666
1160.16016016016 8.115220852211367
1170.1701701701702 8.253679408785464
1180.1801801801803 8.388640052792143
1190.1901901901902 8.520101250032038
1200.2002002002002 8.64806718854241
1210.2102102102103 8.772547293014709
1220.2202202202202 8.893555769111659
1230.2302302302303 9.011111176583366
1240.2402402402402 9.125236030008615
1250.2502502502502 9.235856456811462
1260.2602602602603 9.342698031009117
1270.2702702702702 9.445236156688154
1280.2802802802803 9.543501768651131
1290.2902902902902 9.63753092784197
1300.3003003003003 9.727364375954068
1310.3103103103103 9.813047111668164
1320.3203203203202 9.89462798817896
1330.3303303303303 9.972159331578013
1340.3403403403404 10.045696579582907
1350.3503503503503 10.11529794004098
1360.3603603603603 10.181024068585655
1370.3703703703704 10.242937764784445
1380.3803803803803 10.30110368608814
1390.3903903903904 10.355588078869717
1400.4004004004005 10.406458525826807
1410.4104104104103 10.453783709014083
1420.4204204204204 10.497633187768965
1430.4304304304305 10.538077190795251
1440.4404404404404 10.575186421675209
1450.4504504504505 10.609031877088329
1460.4604604604606 10.639684677026382
1470.4704704704704 10.667215906306915
1480.4804804804805 10.691696466702039
1490.4904904904906 10.713196939015202
1500.5005005005005 10.731787454455318
1510.5105105105106 10.74753757467558
1520.5205205205207 10.760516179862147
1530.5305305305305 10.770791364277025
1540.5405405405404 10.77843033867846
1550.5505505505505 10.78349933906214
1560.5605605605606 10.786063541186794
1570.5705705705705 10.786186980368864
1580.5805805805805 10.783932476053476
1590.5905905905906 10.77936156069211
1600.6006006006005 10.772534412483642
1610.6106106106106 10.763509791563303
1620.6206206206207 10.75234497925594
1630.6306306306305 10.73909572004672
1640.6406406406406 10.723816165964069
1650.6506506506507 10.706558823120131
1660.6606606606606 10.687374500213219
1670.6706706706707 10.666312258868356
1680.6806806806808 10.64341936577901
1690.6906906906906 10.618741246719145
1700.7007007007007 10.592327363991865
1710.7107107107108 10.564243209760056
1720.7207207207207 10.534525967830428
1730.7307307307308 10.503207856916378
1740.7407407407409 10.470319427718513
1750.7507507507507 10.43588952480958
1760.7607607607606 10.399945256909696
1770.770770770771 10.3625119779513
1780.7807807807808 10.323613281945265
1790.7907907907907 10.283271015390756
1800.8008008008007 10.241505311836022
1810.8108108108108 10.19833465421105
1820.8208208208207 10.153775971726652
1830.8308308308308 10.107844779472455
1840.8408408408409 10.060555370343424
1850.8508508508507 10.011921070558424
1860.8608608608608 9.961954571756715
1870.870870870871 9.91066835438792
1880.8808808808808 9.858075218713939
1890.890890890891 9.804188941022566
1900.900900900901 9.749025073331243
1910.9109109109108 9.692601904554815
1920.920920920921 9.634941599327025
1930.930930930931 9.57607152678167
1940.940940940941 9.516025784883725
1950.950950950951 9.454846915545684
1960.960960960961 9.392587790965749
1970.970970970971 9.329313631717254
1980.980980980981 9.265104091779666
1990.9909909909911 9.200055315227424
2001.001001001001 9.134281834932022
2011.0110110110109 9.067918147937291
2021.0210210210212 9.001119769274304
2031.031031031031 8.934063541702491
2041.0410410410411 8.86694697042713
2051.051051051051 8.799986367133009
2061.061061061061 8.73341363386186
2071.071071071071 8.667471598900681
2081.081081081081 8.602407933682354
2091.091091091091 8.538467824733557
2101.101101101101 8.475885733247653
2111.1111111111113 8.41487672528371
2121.121121121121 8.355627972228282
2131.131131131131 8.298291079169173
2141.141141141141 8.242975880124105
2151.151151151151 8.189746237627983
2161.161161161161 8.138618209095112
2171.1711711711714 8.089560717203813
2181.1811811811813 8.042498619917652
2191.191191191191 7.9973178541515795
2201.201201201201 7.953872157024849
2211.2112112112113 7.911990770367675
2221.221221221221 7.871486513604741
2231.2312312312315 7.83216365959766
2241.2412412412414 7.793825149739507
2251.2512512512512 7.756278815964283
2261.261261261261 7.719342416029617
2271.271271271271 7.682847416214797
2281.2812812812813 7.6466415603171995
2291.2912912912916 7.6105903397745225
2301.3013013013015 7.574577526527094
2311.3113113113113 7.53850495127244
2321.321321321321 7.502291710513542
2331.331331331331 7.465872972325335
2341.3413413413414 7.429198528709288
2351.3513513513512 7.392231216428445
2361.3613613613616 7.3549453017716
2371.3713713713714 7.317324900075516
2381.3813813813813 7.279362479344389
2391.391391391391 7.2410574795006
2401.4014014014015 7.202415064712158
2411.4114114114113 7.163445015581047
2421.4214214214217 7.12416076028294
2431.4314314314315 7.084578538502259
2441.4414414414414 7.044716688695563
2451.4514514514512 7.004595047378471
2461.4614614614616 6.964234448371932
2471.4714714714714 6.9236563099405695
2481.4814814814818 6.882882298255682
2491.4914914914916 6.841934056425588
2501.5015015015015 6.800832989314563
2511.5115115115113 6.759600095418187
2521.521521521521 6.718255838107961
2531.5315315315315 6.676820049558164
2541.541541541542 6.635311861595263
2551.5515515515517 6.593749658551499
2561.5615615615616 6.552151047954306
2571.5715715715714 6.510532845542793
2581.5815815815813 6.468911071675693
2591.5915915915916 6.427300956689332
2601.6016016016015 6.385716953186304
2611.611611611612 6.344172753593923
2621.6216216216217 6.302681311634144
2631.6316316316315 6.261254866600495
2641.6416416416414 6.219904969549821
2651.6516516516517 6.178642510693159
2661.6616616616616 6.137477747416179
2671.671671671672 6.096420332480331
2681.6816816816818 6.055479342054964
2691.6916916916916 6.014663303311569
2701.7017017017015 5.973980221377591
2711.711711711712 5.933437605500593
2721.7217217217217 5.893042494316949
2731.731731731732 5.852801480153616
2741.741741741742 5.812720732319445
2751.7517517517517 5.772806019363962
2761.7617617617616 5.733062730298955
2771.7717717717715 5.693495894791049
2781.781781781782 5.654110202343786
2791.791791791792 5.614910020495169
2801.801801801802 5.575899412061898
2811.811811811812 5.537082151465675
2821.8218218218217 5.498461740179143
2831.8318318318316 5.460041421330693
2841.841841841842 5.421824193507872
2851.851851851852 5.383812823799265
2861.861861861862 5.346009860114108
2871.871871871872 5.308417642818145
2881.881881881882 5.271038315723078
2891.8918918918916 5.233873836465642
2901.901901901902 5.19692598631092
2911.911911911912 5.160196379412929
2921.921921921922 5.123686471563987
2931.931931931932 5.087397568462796
2941.941941941942 5.051330833529513
2951.9519519519517 5.015487295294597
2961.961961961962 4.979867854386748
2971.971971971972 4.944473290143656
2981.9819819819822 4.90930426686804
2991.991991991992 4.8743613397499574
3002.002002002002 4.839644960475225
3012.012012012012 4.8051554825384475
3022.0220220220217 4.7708931662781415
3032.032032032032 4.739493910408842
3042.0420420420423 4.705348721774052
3052.052052052052 4.671341055746416
3062.062062062062 4.637496575675546
3072.072072072072 4.603837195146924
3082.0820820820823 4.570381480284026
3092.092092092092 4.537145015495886
3102.102102102102 4.504140735461267
3112.1121121121123 4.471379226000028
3122.122122122122 4.438868996334308
3132.132132132132 4.406616725090752
3142.1421421421423 4.374627482243958
3152.152152152152 4.342904929051883
3162.162162162162 4.311451497889231
3172.1721721721724 4.280268553744926
3182.1821821821823 4.249356539016522
3192.192192192192 4.218715103107607
3202.202202202202 4.188343218214947
3212.2122122122123 4.158239282579822
3222.222222222222 4.128401212373136
3232.232232232232 4.098826523286084
3242.2422422422424 4.069512402807358
3252.252252252252 4.0404557740837275
3262.262262262262 4.011653352182889
3272.2722722722724 3.9831016935058754
3282.2822822822823 3.9547972390300545
3292.292292292292 3.926736352003009
3302.3023023023025 3.898915350651748
3312.3123123123123 3.871330536420501
3322.322322322322 3.8439782182034152
3332.3323323323325 3.8168547329955596
3342.3423423423424 3.789956463346361
3352.352352352352 3.7632798519636426
3362.3623623623625 3.736821413783843
3372.3723723723724 3.7105777457938736
3382.3823823823823 3.6845455348628655
3392.3923923923926 3.65872156381733
3402.4024024024025 3.633102715970338
3412.4124124124123 3.607685978294877
3422.4224224224226 3.582468443412692
3432.4324324324325 3.5574473105528197
3442.4424424424424 3.532619885618445
3452.4524524524522 3.5079835804866044
3462.4624624624626 3.483535911652428
3472.4724724724724 3.45927449831785
3482.4824824824823 3.4351970600142088
3492.4924924924926 3.4113014138384905
3502.5025025025025 3.3875854713742504
3512.5125125125123 3.364047235360328
3522.5225225225226 3.340684796163327
3532.5325325325325 3.317496328103326
3542.5425425425424 3.294480085676384
3552.5525525525527 3.271634399712185
3562.5625625625626 3.2489576735002714
3572.5725725725724 3.2264483789140312
3582.5825825825827 3.2041050525577544
3592.5925925925926 3.1819262919584608
3602.6026026026025 3.1599107518211316
3612.612612612613 3.1380571403631086
3622.6226226226227 3.116364215740873
3632.6326326326325 3.0948307825801553
3642.642642642643 3.073455688618298
3652.6526526526527 3.052237821465993
3662.6626626626626 3.03117610549382
3672.672672672673 3.010269498847755
3682.6826826826828 2.98951699059634
3692.6926926926926 2.9689175980112834
3702.7027027027025 2.948470363982142
3712.712712712713 2.928174354564966
3722.7227227227227 2.908028656664013
3732.7327327327325 2.8880323758449533
3742.742742742743 2.868184634277547
3752.7527527527527 2.8484845688051585
3762.7627627627626 2.8289313291381872
3772.772772772773 2.8095240761681253
3782.7827827827828 2.790261980398638
3792.7927927927926 2.77114422048993
3802.802802802803 2.7521699819124086
3812.812812812813 2.7333384557055656
3822.8228228228227 2.714648837337887
3832.832832832833 2.696100325663579
3842.842842842843 2.677692121971807
3852.8528528528527 2.6594234291241956
3862.862862862863 2.6412934507763266
3872.872872872873 2.623301390679026
3882.8828828828828 2.6054464520552476
3892.892892892893 2.587727837048534
3902.902902902903 2.5701447462389506
3912.912912912913 2.5526963782226484
3922.922922922923 2.5353819292512036
3932.932932932933 2.518200592927069
3942.942942942943 2.5011515599514786
3952.9529529529527 2.484234017921407
3962.962962962963 2.467447151172187
3972.972972972973 2.450790140662587
3982.982982982983 2.4342621638992354
3992.992992992993 2.4178623948974196
4003.003003003003 2.401590004175455
4013.013013013013 2.3854441587798503
4023.023023023023 2.369424022338723
4033.033033033033 2.353528755140988
4043.043043043043 2.3377575142389557
4053.053053053053 2.322109453572155
4063.063063063063 2.3065837241102294
4073.073073073073 2.2911794740129383
4083.0830830830832 2.2758958488053853
4093.093093093093 2.260731991566677
4103.103103103103 2.245687043130351
4113.113113113113 2.230760142295028
4123.123123123123 2.2159504260437606
4133.133133133133 2.2012570297707534
4143.143143143143 2.1866790875141424
4153.153153153153 2.172215732193632
4163.163163163163 2.157866095851865
4173.173173173173 2.1436293098985013
4183.183183183183 2.129504505356035
4193.193193193193 2.115490813106439
4203.203203203203 2.1015873641378455
4213.213213213214 2.08779328979049
4223.223223223224 2.0741077220012123
4233.2332332332335 2.060529793545901
4243.243243243243 2.047058638279281
4253.253253253253 2.033693391371534
4263.263263263263 2.0204331895412624
4273.273273273273 2.0072771712843767
4283.283283283283 1.9942244770985096
4293.293293293293 1.9812742497026308
4303.303303303303 1.9684256342515416
4313.313313313313 1.9556777785449957
4323.323323323323 1.9430298332312055
4333.333333333334 1.9304809520045425
4343.343343343344 1.9180302917972576
4353.353353353354 1.905677012965084
4363.3633633633635 1.8934202794666026
4373.373373373373 1.8812592590362924
4383.383383383383 1.8691931233511894
4393.393393393393 1.8572210481911073
4403.403403403403 1.8453422135924078
4413.413413413413 1.833555803995285
4423.423423423424 1.8218610083846134
4433.4334334334335 1.8102570204243458
4443.443443443443 1.7987430385855119
4453.453453453454 1.7873182662678755
4463.463463463464 1.7759819119153206
4473.473473473474 1.7647331891249916
4483.483483483484 1.7535713167503375
4493.493493493494 1.7424955189981004
4503.503503503503 1.7315050255193698
4513.513513513513 1.720599071494804
4523.523523523523 1.709776897714114
4533.533533533533 1.6990377506499688
4543.543543543543 1.688380882526387
4553.553553553554 1.6778055513817853
4563.563563563564 1.667311021126796
4573.573573573573 1.656896561596974
4583.583583583584 1.646561448600547
4593.593593593594 1.6363049639613385
4603.603603603604 1.6261263955569825
4613.613613613614 1.6160250373526006
4623.623623623624 1.6060001894300469
4633.6336336336335 1.5960511580128838
4643.643643643643 1.586177255487215
4653.653653653653 1.5763778004185096
4663.663663663663 1.5666521175645738
4673.673673673674 1.5569995378847763
4683.683683683684 1.5474193985456994
4693.693693693694 1.537911042923315
4703.703703703704 1.5284738206018373
4713.713713713714 1.5191070873693822
4723.723723723724 1.5098102052105518
4733.733733733734 1.500582542296076
4743.743743743744 1.4914234729696445
4753.753753753754 1.4823323777320319
4763.763763763764 1.4733086432226548
4773.773773773773 1.4643516621986594
4783.783783783783 1.4554608335116823
4793.793793793793 1.446635562082362
4803.803803803804 1.4378752588727355
4813.813813813814 1.429179340856622
4823.823823823824 1.4205472309880944
4833.833833833834 1.4119783581681355
4843.843843843844 1.403472157209599
4853.853853853854 1.395028068800539
4863.863863863864 1.3866455394660364
4873.873873873874 1.3783240215285821
4883.883883883884 1.3700629730671319
4893.893893893894 1.3618618578748976
4903.9039039039035 1.353720145415973
4913.913913913913 1.3456373107808617
4923.923923923924 1.337612834640995
4933.933933933934 1.3296462032023135
4943.943943943944 1.3217369081579753
4953.953953953955 1.3138844466402746
4963.9639639639645 1.306088321171832
4973.973973973974 1.2983480396161182
4983.983983983984 1.2906631151273813
4993.993993993994 1.283033066100031
5004.004004004004 1.275457416117546
5014.014014014014 1.2679356939009534
5024.024024024024 1.260467433256936
5034.0340340340335 1.2530521730256252
5044.044044044043 1.2456894570281158
5054.054054054054 1.238378834013766
5064.064064064064 1.2311198576073163
5074.074074074074 1.2239120862558746
5084.084084084085 1.216755083175811
5094.0940940940945 1.2096484162996024
5104.104104104104 1.2025916582226586
5114.114114114114 1.1955843861501747
5124.124124124124 1.1886261818440393
5134.134134134134 1.1817166315698313
5144.144144144144 1.1748553260439376
5154.154154154154 1.1680418603808251
5164.1641641641645 1.1612758340404874
5174.174174174174 1.154556850776099
5184.184184184184 1.1478845185819007
5194.194194194194 1.141258449641336
5204.204204204204 1.1346782602754757
5214.214214214214 1.1281435708917262
5224.224224224225 1.1216540059328677
5234.2342342342345 1.1152091938264301
5244.244244244244 1.1088087669344135
5254.254254254254 1.1024523615033948
5264.264264264264 1.0961396176150089
5274.274274274274 1.0898701791368435
5284.284284284285 1.0836436936737386
5294.294294294295 1.077459812519523
5304.304304304304 1.0713181906091793
5314.314314314314 1.0652184864714724
5324.324324324324 1.0591603621820223
5334.334334334334 1.05314348331686
5344.344344344345 1.0471675189064482
5354.354354354355 1.0412321413901968
5364.3643643643645 1.0353370265714568
5374.374374374374 1.029481853573023
5384.384384384384 1.0236663047931314
5394.394394394394 1.017890065861965
5404.404404404404 1.0121528255986691
5414.414414414415 1.0064542759688835
5424.424424424425 1.0007941120427903
5434.4344344344345 0.995172031953676
5444.444444444444 0.9895877368570217
5454.454454454454 0.984040930890113
5464.464464464464 0.9785313211321726
5474.474474474475 0.9730586175650136
5484.484484484485 0.9676225330342226
5494.494494494495 0.9622227832108592
5504.504504504504 0.956859086553684
5514.514514514514 0.951531164271901
5524.524524524524 0.9462387402884259
5534.534534534535 0.9409815412036687
5544.544544544545 0.9357592962598326
5554.554554554555 0.930571737305725
5564.5645645645645 0.9254185987620827
5574.574574574574 0.9202996175873994
5584.584584584584 0.9152145332442629
5594.594594594595 0.910163087666187
5604.604604604605 0.9051450252249498
5614.614614614615 0.900160092698415
5624.624624624625 0.89520803923885
5634.6346346346345 0.890288616341728
5644.644644644644 0.8854015778150074
5654.654654654654 0.8805466797488939
5664.664664664665 0.8757236804860654
5674.674674674675 0.8709323405923782
5684.684684684685 0.8661724228280164
5694.694694694695 0.8614436921191159
5704.704704704704 0.8567459155298301
5714.714714714714 0.8520788622348466
5724.724724724725 0.8474423034923453
5734.734734734735 0.8428360126173906
5744.744744744745 0.8382597649557584
5754.754754754755 0.8337133378581835
5764.764764764765 0.829196510655033
5774.774774774774 0.8247090646313904
5784.784784784785 0.8202507830025483
5794.794794794795 0.8158214508899082
5804.804804804805 0.8114208552972728
5814.814814814815 0.8070487850875352
5824.824824824825 0.802705030959753
5834.8348348348345 0.7983893854265994
5844.844844844845 0.7941016427921992
5854.854854854855 0.7898415991303233
5864.864864864865 0.7856090522629527
5874.874874874875 0.781403801739203
5884.884884884885 0.7772256488145957
5894.894894894895 0.7730743964306817
5904.9049049049045 0.7689498491950036
5914.914914914915 0.7648518133613948
5924.924924924925 0.760780096810612
5934.934934934935 0.7567345090312846
5944.944944944945 0.7527148611011949
5954.954954954955 0.7487209656688639
5964.964964964965 0.7447526369354487
5974.974974974975 0.7408096906369452
5984.984984984985 0.7368919440266881
5994.994994994995 0.7329992158581421
6005.005005005005 0.7291313263679824
6015.015015015015 0.7252880972594603
6025.025025025025 0.7214693516860434
6035.035035035035 0.7176749142353285
6045.045045045045 0.7139046109132265
6055.055055055055 0.7101582691284049
6065.065065065065 0.7064357176769901
6075.075075075075 0.7027367867275265
6085.085085085085 0.6990613078061786
6095.0950950950955 0.6954091137821811
6105.105105105105 0.6917800388535267
6115.115115115115 0.6881739185328893
6125.125125125125 0.6845905896337753
6135.135135135135 0.6810298902569066
6145.145145145145 0.6774916597768158
6155.155155155155 0.673975738828669
6165.1651651651655 0.6704819692952934
6175.175175175175 0.6670101942944193
6185.185185185185 0.663560258166122
6195.195195195195 0.6601320064604705
6205.205205205205 0.6567252859253668
6215.215215215215 0.6533399444945818
6225.225225225226 0.6499758312759797
6235.235235235235 0.6466327965399258
6245.245245245245 0.6433106917078794
6255.255255255255 0.6400093693411618
6265.265265265265 0.6367286831298972
6275.275275275275 0.6334684878821292
6285.285285285286 0.6302286395131007
6295.295295295296 0.6270089950346996
6305.305305305305 0.6238094125450622
6315.315315315315 0.6206297512183389
6325.325325325325 0.6174698712946094
6335.335335335335 0.6143296340699517
6345.345345345346 0.6112089018866554
6355.355355355356 0.6081075381235852
6365.3653653653655 0.6050254071866816
6375.375375375375 0.6019623744996015
6385.385385385385 0.5989183064944953
6395.395395395395 0.5958930706029175
6405.405405405405 0.5928865352468685
6415.415415415416 0.5898985698299599
6425.425425425426 0.5869290447287122
