#lamb flux
1000.0 0.44276260814028195
1010.01001001001 0.4629624157160525
1020.0200200200201 0.4834252687376417
1030.03003003003 0.5041283042051634
1040.0400400400401 0.5250485516609656
1050.05005005005 0.5461630060705438
1060.06006006006 0.5674486968855408
1070.07007007007 0.588882753191646
1080.08008008008 0.6104424648797081
1090.0900900900901 0.632105339810428
1100.1001001001 0.6538491569719354
1110.11011011011 0.675652015655425
1120.1201201201202 0.6974923806968494
1130.13013013013 0.7193491238528192
1140.1401401401401 0.7412015613962565
1150.1501501501502 0.7630294880323039
1160.16016016016 0.7848132072476433
1170.1701701701702 0.8065335582168783
1180.1801801801803 0.8281719393981698
1190.1901901901902 0.8497103289569685
1200.2002002002002 0.8711313021618676
1210.2102102102103 0.892418045900038
1220.2202202202202 0.9135543704620626
1230.2302302302303 0.9345247187469252
1240.2402402402402 0.9553141730379163
1250.2502502502502 0.9759084583048269
1260.2602602602603 0.9962939432625403
1270.2702702702702 1.0164576400392278
1280.2802802802803 1.0363872124693767
1290.2902902902902 1.0560709664143566
1300.3003003003003 1.0754978450224877
1310.3103103103103 1.0946574225487589
1320.3203203203202 1.1135398968595835
1330.3303303303303 1.1321360807430974
1340.3403403403404 1.150437392140319
1350.3503503503503 1.1684358434073618
1360.3603603603603 1.1861240297135314
1370.3703703703704 1.2034951166748515
1380.3803803803803 1.2205428273172976
1390.3903903903904 1.2372614284587409
1400.4004004004005 1.2536457165933825
1410.4104104104103 1.2696910033574664
1420.4204204204204 1.2853931006499877
1430.4304304304305 1.3007483054773041
1440.4404404404404 1.3157533845858833
1450.4504504504505 1.330405558942804
1460.4604604604606 1.344702488119314
1470.4704704704704 1.3586422546284527
1480.4804804804805 1.3722233482637969
1490.4904904904906 1.3854446504824274
1500.5005005005005 1.3983054188715656
1510.5105105105106 1.4108052717348565
1520.5205205205207 1.4229441728308574
1530.5305305305305 1.434722416293217
1540.5405405405404 1.4461406117589777
1550.5505505505505 1.4571996697286862
1560.5605605605606 1.4679007871792613
1570.5705705705705 1.4782454334481783
1580.5805805805805 1.4882353364051275
1590.5905905905906 1.4978724689251302
1600.6006006006005 1.5071590356750966
1610.6106106106106 1.5160974602238868
1620.6206206206207 1.5246903724841545
1630.6306306306305 1.5329405964926948
1640.6406406406406 1.5408511385343981
1650.6506506506507 1.5484251756136291
1660.6606606606606 1.5556660442754857
1670.6706706706707 1.5625772297782696
1680.6806806806808 1.569162355617381
1690.6906906906906 1.575425173399913
1700.7007007007007 1.5813695531682463
1710.7107107107108 1.5869994741778428
1720.7207207207207 1.592319015063208
1730.7307307307308 1.5973323454793487
1740.7407407407409 1.6020437177462674
1750.7507507507507 1.606457458767667
1760.7607607607606 1.6105779622745422
1770.770770770771 1.6144096813878874
1780.7807807807808 1.6179571214943975
1790.7907907907907 1.6212248334287886
1800.8008008008007 1.6242174069560706
1810.8108108108108 1.6269394645469426
1820.8208208208207 1.6293956554393303
1830.8308308308308 1.6315906499789674
1840.8408408408409 1.6335291342318283
1850.8508508508507 1.635215804861239
1860.8608608608608 1.6366553642623856
1870.870870870871 1.6378525159470898
1880.8808808808808 1.638811960171625
1890.890890890891 1.63953838980052
1900.900900900901 1.6400364863993102
1910.9109109109108 1.640310916549261
1920.920920920921 1.6403663283772136
1930.930930930931 1.6402073482936042
1940.940940940941 1.6398385779318776
1950.950950950951 1.639264591282259
1960.960960960961 1.6384899320127746
1970.970970970971 1.6375191109701053
1980.980980980981 1.6363566038524424
1990.9909909909911 1.635006849045943
2001.001001001001 1.6334742456157774
2011.0110110110109 1.6317631514418969
2021.0210210210212 1.6298778814890529
2031.031031031031 1.6278227061998398
2041.0410410410411 1.6256018499992715
2051.051051051051 1.623219489899591
2061.061061061061 1.6206797541947888
2071.071071071071 1.6179867212360814
2081.081081081081 1.6151444182822159
2091.091091091091 1.6121568204218792
2101.101101101101 1.60902784956954
2111.1111111111113 1.6057613735400924
2121.121121121121 1.6023612052111638
2131.131131131131 1.5988311017842054
2141.141141141141 1.5951747641560154
2151.151151151151 1.5913958364107548
2161.161161161161 1.5874979054389624
2171.1711711711714 1.5834845006850742
2181.1811811811813 1.5793590940192233
2191.191191191191 1.5751250997235482
2201.201201201201 1.5707858745788643
2211.2112112112113 1.566344718034744
2221.221221221221 1.5618048724451916
2231.2312312312315 1.5571695233530651
2241.2412412412414 1.5524417998086977
2251.2512512512512 1.5476247747113092
2261.261261261261 1.5427214651652859
2271.271271271271 1.5377348328465712
2281.2812812812813 1.5326677843771606
2291.2912912912916 1.5275231717077034
2301.3013013013015 1.5223037925095133
2311.3113113113113 1.5170123905779678
2321.321321321321 1.5116516562494657
2331.331331331331 1.5062242268338886
2341.3413413413414 1.5007326870641393
2351.3513513513512 1.4951795695638093
2361.3613613613616 1.489567355333483
2371.3713713713714 1.4838984742557253
2381.3813813813813 1.4781753056183444
2391.391391391391 1.4724001786551946
2401.4014014014015 1.4665753731035278
2411.4114114114113 1.4607031197767293
2421.4214214214217 1.4547856011511295
2431.4314314314315 1.4488249519655745
2441.4414414414414 1.4428232598323745
2451.4514514514512 1.4367825658582887
2461.4614614614616 1.4307048652742513
2471.4714714714714 1.4245921080725688
2481.4814814814818 1.4184461996504096
2491.4914914914916 1.4122690014584616
2501.5015015015015 1.4060623316536962
2511.5115115115113 1.3998279657552792
2521.521521521521 1.3935676373026789
2531.5315315315315 1.3872830385151553
2541.541541541542 1.3809758209518244
2551.5515515515517 1.3746475961715665
2561.5615615615616 1.368299936392104
2571.5715715715714 1.3619343751476316
2581.5815815815813 1.3555524079444068
2591.5915915915916 1.34915549291377
2601.6016016016015 1.342745051462108
2611.611611611612 1.3363224689172897
2621.6216216216217 1.329889095171172
2631.6316316316315 1.323446245317758
2641.6416416416414 1.31699520028669
2651.6516516516517 1.3105372074717145
2661.6616616616616 1.3040734813538315
2671.671671671672 1.2976052041188515
2681.6816816816818 1.2911335262691097
2691.6916916916916 1.284659567229092
2701.7017017017015 1.2781844159447848
2711.711711711712 1.2717091314765367
2721.7217217217217 1.2652347435852829
2731.731731731732 1.258762253311945
2741.741741741742 1.2522926335499123
2751.7517517517517 1.2458268296104311
2761.7617617617616 1.239365759780844
2771.7717717717715 1.2329103158755452
2781.781781781782 1.2264613637795847
2791.791791791792 1.220019743984866
2801.801801801802 1.2135862721188506
2811.811811811812 1.2071617394657423
2821.8218218218217 1.2007469134801103
2831.8318318318316 1.1943425382929211
2841.841841841842 1.187949335209958
2851.851851851852 1.1815680032026221
2861.861861861862 1.1751992193911196
2871.871871871872 1.1688436395200128
2881.881881881882 1.1625018984261866
2891.8918918918916 1.1561746104992194
2901.901901901902 1.149862370134188
2911.911911911912 1.1435657521769511
2921.921921921922 1.1372853123619264
2931.931931931932 1.1310215877424217
2941.941941941942 1.12477509711355
2951.9519519519517 1.1185463414277834
2961.961961961962 1.112335804203205
2971.971971971972 1.1061439519245033
2981.9819819819822 1.099971234436785
2991.991991991992 1.0938180853322546
3002.002002002002 1.0876849223298377
3012.012012012012 1.0815721476478135
3022.0220220220217 1.075480148369528
3032.032032032032 1.0694093640670492
3042.0420420420423 1.063360009567148
3052.052052052052 1.0573325021387388
3062.062062062062 1.0513271724957192
3072.072072072072 1.0453443378541611
3082.0820820820823 1.0393843022676614
3092.092092092092 1.0334473569554627
3102.102102102102 1.0275337806234877
3112.1121121121123 1.0216438397784493
3122.122122122122 1.0157777890351765
3132.132132132132 1.0099358714172981
3142.1421421421423 1.0041183186514233
3152.152152152152 0.9983253514549577
3162.162162162162 0.9925571798176739
3172.1721721721724 0.9868140032771753
3182.1821821821823 0.9810960111883782
3192.192192192192 0.9754033829871184
3202.202202202202 0.9697362884480152
3212.2122122122123 0.964094887936707
3222.222222222222 0.9584793326565603
3232.232232232232 0.9528897648899768
3242.2422422422424 0.9473263182343937
3252.252252252252 0.9417891178330938
3262.262262262262 0.9362782806009207
3272.2722722722724 0.9307939154450027
3282.2822822822823 0.9253361234805888
3292.292292292292 0.9199049982420879
3302.3023023023025 0.9145006258894085
3312.3123123123123 0.9091230854096944
3322.322322322322 0.9037724488145477
3332.3323323323325 0.8984487813328256
3342.3423423423424 0.8931521415991049
3352.352352352352 0.8878825818378923
3362.3623623623625 0.8826401480436766
3372.3723723723724 0.8774248801568992
3382.3823823823823 0.8722368122359188
3392.3923923923926 0.8670759726250704
3402.4024024024025 0.8619423841188751
3412.4124124124123 0.8568360641224914
3422.4224224224226 0.8517570248084788
3432.4324324324325 0.8467052732699577
3442.4424424424424 0.8416808116702208
3452.4524524524522 0.8366836373888872
3462.4624624624626 0.8317137431646588
3472.4724724724724 0.8267711172347527
3482.4824824824823 0.821855743471074
3492.4924924924926 0.8169676015132008
3502.5025025025025 0.8121066668982456
3512.5125125125123 0.8072729111876578
3522.5225225225226 0.8024663020910238
3532.5325325325325 0.797686803586944
3542.5425425425424 0.792934376041028
3552.5525525525527 0.7882089763210814
3562.5625625625626 0.783510557909541
3572.5725725725724 0.7788390710132083
3582.5825825825827 0.7741944626703515
3592.5925925925926 0.7695766768552187
3602.6026026026025 0.7649856545800249
3612.612612612613 0.7604213339944678
3622.6226226226227 0.7558836504828159
3632.6326326326325 0.751372536758628
3642.642642642643 0.7468879229571599
3652.6526526526527 0.7424297367254924
3662.6626626626626 0.7379979033104435
3672.672672672673 0.7335923456443091
3682.6826826826828 0.7292129844284744
3692.6926926926926 0.7248597382149515
3702.7027027027025 0.7205325234858749
3712.712712712713 0.7162312547310132
3722.7227227227227 0.7119558445233358
3732.7327327327325 0.7077062035926682
3742.742742742743 0.7034822408974963
3752.7527527527527 0.6992838636949392
3762.7627627627626 0.69511097760895
3772.772772772773 0.6909634866967713
3782.7827827827828 0.6868412935136897
3792.7927927927926 0.6827442991761249
3802.802802802803 0.6786724034230928
3812.812812812813 0.6746255046760788
3822.8228228228227 0.6706035000973498
3832.832832832833 0.6666062856467556
3842.842842842843 0.6626337561370343
3852.8528528528527 0.6586858052876745
3862.862862862863 0.6547623257773494
3872.872872872873 0.6508632092949717
3882.8828828828828 0.646988346589382
3892.892892892893 0.6431376275177272
3902.902902902903 0.6393109410925297
3912.912912912913 0.6355081755275009
3922.922922922923 0.6317292182821119
3932.932932932933 0.627973956104966
3942.942942942943 0.6242422750759815
3952.9529529529527 0.6205340606474266
3962.962962962963 0.6168491976838303
3972.972972972973 0.6131875705007905
3982.982982982983 0.6095490629027102
3992.992992992993 0.6059335582194803
4003.003003003003 0.6023409393421456
4013.013013013013 0.5987710887575631
4023.023023023023 0.5952238885820874
4033.033033033033 0.5916992205942992
4043.043043043043 0.5881969662668045
4053.053053053053 0.584717006797123
4063.063063063063 0.5812592231376887
4073.073073073073 0.577823496024984
4083.0830830830832 0.5744097060078253
4093.093093093093 0.5710177334748259
4103.103103103103 0.5676474586810479
4113.113113113113 0.5642987617738731
4123.123123123123 0.5609715228180981
4133.133133133133 0.5576656218202848
4143.143143143143 0.5543809387523778
4153.153153153153 0.551117353574607
4163.163163163163 0.5478747462576943
4173.173173173173 0.5446529968043791
4183.183183183183 0.5414519852702817
4193.193193193193 0.5382715917841181
4203.203203203203 0.5351116965672837
4213.213213213214 0.5319721799528222
4223.223223223224 0.5288529224037929
4233.2332332332335 0.5257538045310504
4243.243243243243 0.5226747071104544
4253.253253253253 0.5196155110995204
4263.263263263263 0.5165760976535291
4273.273273273273 0.5135563481411022
4283.283283283283 0.5105561441592641
4293.293293293293 0.5075753675479969
4303.303303303303 0.504613900404305
4313.313313313313 0.5016716250958022
4323.323323323323 0.4987484242738261
4333.333333333334 0.49584418088610377
4343.343343343344 0.49295877818896794
4353.353353353354 0.4900920997591442
4363.3633633633635 0.4872440295051129
4373.373373373373 0.48441445167806413
4383.383383383383 0.48160325088244726
4393.393393393393 0.47881031208613545
4403.403403403403 0.476035520630205
4413.413413413413 0.4732787622383462
4423.423423423424 0.4705399230259147
4433.4334334334335 0.46781888950862877
4443.443443443443 0.46511554861092336
4453.453453453454 0.46242978767397375
4463.463463463464 0.45976149446339326
4473.473473473474 0.4571105571766104
4483.483483483484 0.45447686444994384
4493.493493493494 0.4518603053653735
4503.503503503503 0.44926076945702
4513.513513513513 0.4466781467173426
4523.523523523523 0.4441123276030538
4533.533533533533 0.44156320304077196
4543.543543543543 0.4390306644324068
4553.553553553554 0.4365146036602903
4563.563563563564 0.4340149130920617
4573.573573573573 0.43153148558530624
4583.583583583584 0.4290642144919644
4593.593593593594 0.42661299366250705
4603.603603603604 0.42417771744989097
4613.613613613614 0.4217582807132987
4623.623623623624 0.4193545788216645
4633.6336336336335 0.4169665076569986
4643.643643643643 0.4145939636175126
4653.653653653653 0.41223684362054813
4663.663663663663 0.4098950451053216
4673.673673673674 0.40756846603548225
4683.683683683684 0.40525700490149613
4693.693693693694 0.40296056072285447
4703.703703703704 0.40067903305011565
4713.713713713714 0.3984123219667844
4723.723723723724 0.3961603280910327
4733.733733733734 0.3939229525772652
4743.743743743744 0.3917000971175374
4753.753753753754 0.389491663942829
4763.763763763764 0.3872975558241748
4773.773773773773 0.3851176760736585
4783.783783783783 0.382951928545278
4793.793793793793 0.38080021763567773
4803.803803803804 0.37866244828475665
4813.813813813814 0.3765385259761584
4823.823823823824 0.37442835673764036
4833.833833833834 0.37233184714133005
4843.843843843844 0.37024890430387286
4853.853853853854 0.36817943588646934
4863.863863863864 0.3661233500948118
4873.873873873874 0.3640805556789186
4883.883883883884 0.3620509619328721
4893.893893893894 0.3600344786944615
4903.9039039039035 0.35803101634473533
4913.913913913913 0.35604048580746417
4923.923923923924 0.3540627985485188
4933.933933933934 0.35209786657516595
4943.943943943944 0.35014560243528187
4953.953953953955 0.3482059192164908
4963.9639639639645 0.34627873054522784
4973.973973973974 0.3443639505857278
4983.983983983984 0.3424614940389467
4993.993993993994 0.3405712761414134
5004.004004004004 0.3386932126640172
5014.014014014014 0.33682721991073217
5024.024024024024 0.33497321471727964
5034.0340340340335 0.3331311144497342
5044.044044044043 0.33130083700307056
5054.054054054054 0.32948230079965746
5064.064064064064 0.3276754247876991
5074.074074074074 0.3258801284396239
5084.084084084085 0.32409633175042674
5094.0940940940945 0.32232395523596374
5104.104104104104 0.32056291993120056
5114.114114114114 0.318813147388419
5124.124124124124 0.31707455967538
5134.134134134134 0.31534707937344897
5144.144144144144 0.31363062957567966
5154.154154154154 0.31192513388486437
5164.1641641641645 0.3102305164115452
5174.174174174174 0.3085467017719947
5184.184184184184 0.30687361508616195
5194.194194194194 0.30521118197558716
5204.204204204204 0.3035593285612895
5214.214214214214 0.3019179814616227
5224.224224224225 0.3002870677901063
5234.2342342342345 0.29866651515323034
5244.244244244244 0.297056251648234
5254.254254254254 0.2954562058608639
5264.264264264264 0.2938663068631062
5274.274274274274 0.2922864842109013
5284.284284284285 0.290716667941836
5294.294294294295 0.2891567885728177
5304.304304304304 0.2876067770977302
5314.314314314314 0.28606656498507377
5324.324324324324 0.2845360841755868
5334.334334334334 0.28301526707985575
5344.344344344345 0.2815040465759072
5354.354354354355 0.28000235600679096
5364.3643643643645 0.2785101291781469
5374.374374374374 0.2770273003557634
5384.384384384384 0.2755538042631231
5394.394394394394 0.2740895760789406
5404.404404404404 0.2726345514346886
5414.414414414415 0.27118866641211886
5424.424424424425 0.26975185754077385
5434.4344344344345 0.268324061795491
5444.444444444444 0.266905216593902
5454.454454454454 0.2654952597939267
5464.464464464464 0.2640941296912613
5474.474474474475 0.26270176501686293
5484.484484484485 0.26131810493443064
5494.494494494495 0.2599430890378832
5504.504504504504 0.2585766573488348
5514.514514514514 0.2572187503140681
5524.524524524524 0.2558693088030078
5534.534534534535 0.2545282741051915
5544.544544544545 0.2531955879277417
5554.554554554555 0.2518711923928364
5564.5645645645645 0.2505550300351825
5574.574574574574 0.24924704379948956
5584.584584584584 0.24794717703794433
5594.594594594595 0.24665537350768754
5604.604604604605 0.24537157736829593
5614.614614614615 0.24409573317926242
5624.624624624625 0.24282778589748358
5634.6346346346345 0.24156768087474934
5644.644644644644 0.24031536385523583
5654.654654654654 0.239070780973005
5664.664664664665 0.23783387874950557
5674.674674674675 0.2366046040910834
5684.684684684685 0.23538290428649306
5694.694694694695 0.2341687270044176
5704.704704704704 0.23296202029099433
5714.714714714714 0.23176273256734523
5724.724724724725 0.23057081262711593
5734.734734734735 0.22938620963402043
5744.744744744745 0.22820887311939272
5754.754754754755 0.22703875297974693
5764.764764764765 0.2258757994743438
5774.774774774774 0.2247199632227661
5784.784784784785 0.22357119520250113
5794.794794794795 0.22242944674653245
5804.804804804805 0.2212946695409393
5814.814814814815 0.2201668156225049
5824.824824824825 0.21904583737633443
5834.8348348348345 0.2179316875334804
5844.844844844845 0.2168243191685795
5854.854854854855 0.21572368569749664
5864.864864864865 0.21462974087497982
5874.874874874875 0.21354243879232468
5884.884884884885 0.21246173387504852
5894.894894894895 0.21138758088057436
5904.9049049049045 0.2103199348959254
5914.914914914915 0.20925875133542954
5924.924924924925 0.208203985938435
5934.934934934935 0.2071555947670345
5944.944944944945 0.20611353420380288
5954.954954954955 0.20507776094954283
5964.964964964965 0.2040482320210434
5974.974974974975 0.20302490474884796
5984.984984984985 0.2020077367750344
5994.994994994995 0.2009966860510054
6005.005005005005 0.19999171083529055
6015.015015015015 0.19899276969135946
6025.025025025025 0.19799982148544634
6035.035035035035 0.19701282538438555
6045.045045045045 0.19603174085345954
6055.055055055055 0.19505652765425693
6065.065065065065 0.19408714584254352
6075.075075075075 0.19312355576614368
6085.085085085085 0.19216571806283456
6095.0950950950955 0.19121359365825114
6105.105105105105 0.19026714376380371
6115.115115115115 0.1893263298746062
6125.125125125125 0.18839111376741702
6135.135135135135 0.18746145749859208
6145.145145145145 0.18653732340204837
6155.155155155155 0.18561867408724078
6165.1651651651655 0.18470547243715002
6175.175175175175 0.18379768160628288
6185.185185185185 0.18289526501868392
6195.195195195195 0.1819981863659597
6205.205205205205 0.1811064096053147
6215.215215215215 0.1802198989575987
6225.225225225226 0.17933861890536745
6235.235235235235 0.17846253419095334
6245.245245245245 0.17759160981455002
6255.255255255255 0.1767258110323078
6265.265265265265 0.1758651033544409
6275.275275275275 0.17500945254334754
6285.285285285286 0.17415882461174093
6295.295295295296 0.17331318582079341
6305.305305305305 0.17247250267829042
6315.315315315315 0.17163674193679912
6325.325325325325 0.17080587059184638
6335.335335335335 0.16997985588011036
