#lamb flux
1000.0 1.916807736627456e+40
1010.01001001001 2.0867687377280447e+40
1020.0200200200201 2.2566881444187314e+40
1030.03003003003 2.425557150059438e+40
1040.0400400400401 2.5924870147654613e+40
1050.05005005005 2.7567144025241025e+40
1060.06006006006 2.917602191689753e+40
1070.07007007007 3.0746366018037696e+40
1080.08008008008 3.227421460324679e+40
1090.0900900900901 3.3756703736256266e+40
1100.1001001001 3.5191974824113107e+40
1110.11011011011 3.6579073846490604e+40
1120.1201201201202 3.791784708494934e+40
1130.13013013013 3.920883720212052e+40
1140.1401401401401 4.0453182621585307e+40
1150.1501501501502 4.165252236173568e+40
1160.16016016016 4.280890779308992e+40
1170.1701701701702 4.392472222009424e+40
1180.1801801801803 4.500260873006457e+40
1190.1901901901902 4.60454063938889e+40
1200.2002002002002 4.705609463337601e+40
1210.2102102102103 4.803774537574646e+40
1220.2202202202202 4.899348248394585e+40
1230.2302302302303 4.992644787024646e+40
1240.2402402402402 5.083977365925601e+40
1250.2502502502502 5.17287475501784e+40
1260.2602602602603 5.2572444483959495e+40
1270.2702702702702 5.332952198320917e+40
1280.2802802802803 5.400178084794226e+40
1290.2902902902902 5.459137423936627e+40
1300.3003003003003 5.5100749712419295e+40
1310.3103103103103 5.553259526717911e+40
1320.3203203203202 5.588978963911543e+40
1330.3303303303303 5.617535692626434e+40
1340.3403403403404 5.639242555152962e+40
1350.3503503503503 5.654419147836125e+40
1360.3603603603603 5.663388553578647e+40
1370.3703703703704 5.666474466192747e+40
1380.3803803803803 5.663998684156812e+40
1390.3903903903904 5.656278949097601e+40
1400.4004004004005 5.643627103016188e+40
1410.4104104104103 5.626347537737026e+40
1420.4204204204204 5.604735910132572e+40
1430.4304304304305 5.579078097228856e+40
1440.4404404404404 5.549649366216845e+40
1450.4504504504505 5.516713735582412e+40
1460.4604604604606 5.480523504944703e+40
1470.4704704704704 5.44131893268976e+40
1480.4804804804805 5.399328042050927e+40
1490.4904904904906 5.354766537874507e+40
1500.5005005005005 5.307837817885834e+40
1510.5105105105106 5.258733063810924e+40
1520.5205205205207 5.2076313991930765e+40
1530.5305305305305 5.15470010215974e+40
1540.5405405405404 5.100094862733832e+40
1550.5505505505505 5.043960075541304e+40
1560.5605605605606 4.986429159941834e+40
1570.5705705705705 4.927624900704254e+40
1580.5805805805805 4.867659803365005e+40
1590.5905905905906 4.806636459353404e+40
1600.6006006006005 4.744647916847216e+40
1610.6106106106106 4.681778054144555e+40
1620.6206206206207 4.618101953111569e+40
1630.6306306306305 4.553686270999733e+40
1640.6406406406406 4.48858960963112e+40
1650.6506506506507 4.422862881636371e+40
1660.6606606606606 4.356549674107954e+40
1670.6706706706707 4.289686610713573e+40
1680.6806806806808 4.2223037140113356e+40
1690.6906906906906 4.1544247704327056e+40
1700.7007007007007 4.0860995695843314e+40
1710.7107107107108 4.017465872261944e+40
1720.7207207207207 3.94851128652338e+40
1730.7307307307308 3.8792041922913434e+40
1740.7407407407409 3.80951219571771e+40
1750.7507507507507 3.739402393003471e+40
1760.7607607607606 3.6688416926512913e+40
1770.770770770771 3.597797206094554e+40
1780.7807807807808 3.526236717773693e+40
1790.7907907907907 3.454129246824966e+40
1800.8008008008007 3.381445713533071e+40
1810.8108108108108 3.3081597244705403e+40
1820.8208208208207 3.234248490659844e+40
1830.8308308308308 3.159693892957846e+40
1840.8408408408409 3.084483707931553e+40
1850.8508508508507 3.008613005464156e+40
1860.8608608608608 2.9320857258315903e+40
1870.870870870871 2.8549164385945393e+40
1880.8808808808808 2.77713227788603e+40
1890.890890890891 2.698775038055211e+40
1900.900900900901 2.6199033997108565e+40
1910.9109109109108 2.540595238677016e+40
1920.920920920921 2.460949949160819e+40
1930.930930930931 2.3810906878756783e+40
1940.940940940941 2.3011664188956514e+40
1950.950950950951 2.2213536113670135e+40
1960.960960960961 2.1418574165721222e+40
1970.970970970971 2.0629121309890072e+40
1980.980980980981 1.9847807426604164e+40
1990.9909909909911 1.9077533647599598e+40
2001.001001001001 1.8321443880562457e+40
2011.0110110110109 1.7582882372555806e+40
2021.0210210210212 1.6865336966983827e+40
2031.031031031031 1.6172368764045544e+40
2041.0410410410411 1.5507530127116046e+40
2051.051051051051 1.487427425946198e+40
2061.061061061061 1.4275860733550708e+40
2071.071071071071 1.3715262194173594e+40
2081.081081081081 1.3195077799078287e+40
2091.091091091091 1.2717458691109087e+40
2101.101101101101 1.2284049898754924e+40
2111.1111111111113 1.1895951641206646e+40
2121.121121121121 1.1553701280605906e+40
2131.131131131131 1.1257275394028187e+40
2141.141141141141 1.1006109908374372e+40
2151.151151151151 1.0799135166583099e+40
2161.161161161161 1.0634822276794729e+40
2171.1711711711714 1.0511237115855558e+40
2181.1811811811813 1.042609878912026e+40
2191.191191191191 1.0376840005725967e+40
2201.201201201201 1.0360667524166974e+40
2211.2112112112113 1.0374621410598086e+40
2221.221221221221 1.0415632252703719e+40
2231.2312312312315 1.0480575675850343e+40
2241.2412412412414 1.0566323559831586e+40
2251.2512512512512 1.0669791325713542e+40
2261.261261261261 1.0787980626459869e+40
2271.271271271271 1.0918016787612735e+40
2281.2812812812813 1.1057180433394383e+40
2291.2912912912916 1.1202932899897523e+40
2301.3013013013015 1.1352935260606762e+40
2311.3113113113113 1.1505061039361501e+40
2321.321321321321 1.165740292939905e+40
2331.331331331331 1.1808274046998255e+40
2341.3413413413414 1.1956204406356352e+40
2351.3513513513512 1.209993340062138e+40
2361.3613613613616 1.2238399113269754e+40
2371.3713713713714 1.237072527151579e+40
2381.3813813813813 1.2496206600183552e+40
2391.391391391391 1.261429325281031e+40
2401.4014014014015 1.2724574898546996e+40
2411.4114114114113 1.2826764938873693e+40
2421.4214214214217 1.2920685225238069e+40
2431.4314314314315 1.3006251553102392e+40
2441.4414414414414 1.3083460123073814e+40
2451.4514514514512 1.315237508754643e+40
2461.4614614614616 1.3213117242002786e+40
2471.4714714714714 1.3265853873263673e+40
2481.4814814814818 1.3310789741391977e+40
2491.4914914914916 1.3348159146188913e+40
2501.5015015015015 1.3378219011694917e+40
2511.5115115115113 1.340124291127987e+40
2521.521521521521 1.3417515950356475e+40
2531.5315315315315 1.342733042222271e+40
2541.541541541542 1.3430982153966893e+40
2551.5515515515517 1.3428767462874388e+40
2561.5615615615616 1.342098064865052e+40
2571.5715715715714 1.3407911952470416e+40
2581.5815815815813 1.3389845919962112e+40
2591.5915915915916 1.3367060111416448e+40
2601.6016016016015 1.3339824108574544e+40
2611.611611611612 1.3308398773121973e+40
2621.6216216216217 1.3273035717422253e+40
2631.6316316316315 1.323397695299708e+40
2641.6416416416414 1.3191454686784253e+40
2651.6516516516517 1.3145691239273274e+40
2661.6616616616616 1.30968990622486e+40
2671.671671671672 1.3045280837083068e+40
2681.6816816816818 1.2991029637349964e+40
2691.6916916916916 1.2934329141993106e+40
2701.7017017017015 1.287535388744423e+40
2711.711711711712 1.2814269548939042e+40
2721.7217217217217 1.2751233242889016e+40
2731.731731731732 1.2686393843545478e+40
2741.741741741742 1.2619892308373451e+40
2751.7517517517517 1.255186200755963e+40
2761.7617617617616 1.248242905393492e+40
2771.7717717717715 1.2411712630316625e+40
2781.781781781782 1.2339825311887722e+40
2791.791791791792 1.2266873381744967e+40
2801.801801801802 1.2192957138178637e+40
2811.811811811812 1.2118171192606669e+40
2821.8218218218217 1.204260475738452e+40
2831.8318318318316 1.1966341922958852e+40
2841.841841841842 1.1889461924036383e+40
2851.851851851852 1.1812039394604335e+40
2861.861861861862 1.1734144611773504e+40
2871.871871871872 1.1655843728522232e+40
2881.881881881882 1.1577198995505243e+40
2891.8918918918916 1.1498268972157823e+40
2901.901901901902 1.1419108727377156e+40
2911.911911911912 1.1339770030100927e+40
2921.921921921922 1.1260301530130911e+40
2931.931931931932 1.1180748929568038e+40
2941.941941941942 1.1101155145237127e+40
2951.9519519519517 1.102156046248512e+40
2961.961961961962 1.0942002680737684e+40
2971.971971971972 1.086251725119625e+40
2981.9819819819822 1.0783137407051818e+40
2991.991991991992 1.0703894286583462e+40
3002.002002002002 1.0624817049500025e+40
3012.012012012012 1.05459329868717e+40
3022.0220220220217 1.0467267624986379e+40
3032.032032032032 1.0469785220180758e+40
3042.0420420420423 1.0381200640249227e+40
3052.052052052052 1.0290153467594107e+40
3062.062062062062 1.0197466728730636e+40
3072.072072072072 1.0103845740117405e+40
3082.0820820820823 1.0009890060109687e+40
3092.092092092092 9.916104790893347e+39
3102.102102102102 9.822911133233695e+39
3112.1121121121123 9.730656142845283e+39
3122.122122122122 9.639621671767043e+39
3132.132132132132 9.55003250345955e+39
3142.1421421421423 9.462063708286149e+39
3152.152152152152 9.37584725816966e+39
3162.162162162162 9.291477946848263e+39
3172.1721721721724 9.209018666358292e+39
3182.1821821821823 9.128505092024975e+39
3192.192192192192 9.049949828035457e+39
3202.202202202202 8.973346064152239e+39
3212.2122122122123 8.89867079172294e+39
3222.222222222222 8.825887624182189e+39
3232.232232232232 8.754949263968583e+39
3242.2422422422424 8.685799654375837e+39
3252.252252252252 8.618375851454468e+39
3262.262262262262 8.55260964777122e+39
3272.2722722722724 8.488428976679503e+39
3282.2822822822823 8.425759122794808e+39
3292.292292292292 8.364523761626738e+39
3302.3023023023025 8.30464584880248e+39
3312.3123123123123 8.2460483770262e+39
3322.322322322322 8.188655016848837e+39
3332.3323323323325 8.132390655461408e+39
3342.3423423423424 8.077181846061803e+39
3352.352352352352 8.02295717886219e+39
3362.3623623623625 7.969647583489743e+39
3372.3723723723724 7.917186571369668e+39
3382.3823823823823 7.865510425652321e+39
3392.3923923923926 7.814558345343207e+39
3402.4024024024025 7.764272549499068e+39
3412.4124124124123 7.714598346656543e+39
3422.4224224224226 7.66548417404807e+39
3432.4324324324325 7.6168816106241e+39
3442.4424424424424 7.568745367431424e+39
3452.4524524524522 7.521033258486316e+39
3462.4624624624626 7.473706154921125e+39
3472.4724724724724 7.426727924867191e+39
3482.4824824824823 7.380065361259474e+39
3492.4924924924926 7.333688099504874e+39
3502.5025025025025 7.287568526741076e+39
3512.5125125125123 7.241681684223564e+39
3522.5225225225226 7.196005164210483e+39
3532.5325325325325 7.150519002566035e+39
3542.5425425425424 7.105205568170732e+39
3552.5525525525527 7.060049450108211e+39
3562.5625625625626 7.01503734349223e+39
3572.5725725725724 6.970157934702003e+39
3582.5825825825827 6.925401786707997e+39
3592.5925925925926 6.880761225092127e+39
3602.6026026026025 6.836230225295695e+39
3612.612612612613 6.791804301563802e+39
3622.6226226226227 6.74748039799616e+39
3632.6326326326325 6.703256782060362e+39
3642.642642642643 6.659132940874345e+39
3652.6526526526527 6.615109480519596e+39
3662.6626626626626 6.571188028604835e+39
3672.672672672673 6.527371140262191e+39
3682.6826826826828 6.48366220772251e+39
3692.6926926926926 6.440065373584436e+39
3702.7027027027025 6.396585447862532e+39
3712.712712712713 6.35322782887279e+39
3722.7227227227227 6.309998427989423e+39
3732.7327327327325 6.266903598284333e+39
3742.742742742743 6.223950067040802e+39
3752.7527527527527 6.181144872114487e+39
3762.7627627627626 6.13849530209852e+39
3772.772772772773 6.09600884023513e+39
3782.7827827827828 6.053693112003067e+39
3792.7927927927926 6.011555836298957e+39
3802.802802802803 5.969604780120908e+39
3812.812812812813 5.927847716654041e+39
3822.8228228228227 5.886292386650769e+39
3832.832832832833 5.844946462992516e+39
3842.842842842843 5.803817518314788e+39
3852.8528528528527 5.762912995573927e+39
3862.862862862863 5.72224018143092e+39
3872.872872872873 5.681806182325919e+39
3882.8828828828828 5.641617903115888e+39
3892.892892892893 5.601682028147799e+39
3902.902902902903 5.562005004639745e+39
3912.912912912913 5.522593028243712e+39
3922.922922922923 5.483452030665002e+39
3932.932932932933 5.444587669215505e+39
3942.942942942943 5.4060053181802373e+39
3952.9529529529527 5.367710061879571e+39
3962.962962962963 5.3297066893126264e+39
3972.972972972973 5.2919996902705914e+39
3982.982982982983 5.2545932528125405e+39
3992.992992992993 5.217491261999914e+39
4003.003003003003 5.180697299790036e+39
4013.013013013013 5.14421464599276e+39
4023.023023023023 5.108046280198728e+39
4033.033033033033 5.0721948845918446e+39
4043.043043043043 5.036662847562613e+39
4053.053053053053 5.001452268043388e+39
4063.063063063063 4.966564960490556e+39
4073.073073073073 4.932002460442885e+39
4083.0830830830832 4.8977660305892625e+39
4093.093093093093 4.8638566672830596e+39
4103.103103103103 4.8302751074441336e+39
4113.113113113113 4.797021835793409e+39
4123.123123123123 4.764097092368376e+39
4133.133133133133 4.7315008802716874e+39
4143.143143143143 4.699232973608191e+39
4153.153153153153 4.6672929255691166e+39
4163.163163163163 4.635680076625281e+39
4173.173173173173 4.6043935627941403e+39
4183.183183183183 4.573432323948434e+39
4193.193193193193 4.5427951121368335e+39
4203.203203203203 4.512480499889642e+39
4213.213213213214 4.48248688848509e+39
4223.223223223224 4.452812516153957e+39
4233.2332332332335 4.423455466202581e+39
4243.243243243243 4.3944136750363174e+39
4253.253253253253 4.365684940067437e+39
4263.263263263263 4.337266927493295e+39
4273.273273273273 4.3091571799322574e+39
4283.283283283283 4.281353123906526e+39
4293.293293293293 4.2538520771623986e+39
4303.303303303303 4.226651255819901e+39
4313.313313313313 4.1997477813450314e+39
4323.323323323323 4.173138687338952e+39
4333.333333333334 4.1468209261396243e+39
4343.343343343344 4.12079137523233e+39
4353.353353353354 4.095046843466435e+39
4363.3633633633635 4.0695840770766075e+39
4373.373373373373 4.0443997655074476e+39
4383.383383383383 4.0194905470411866e+39
4393.393393393393 3.994853014228728e+39
4403.403403403403 3.970483719124861e+39
4413.413413413413 3.94637917832903e+39
4423.423423423424 3.9225358778334315e+39
4433.4334334334335 3.8989502776806755e+39
4443.443443443443 3.8756188164335506e+39
4453.453453453454 3.8525379154597925e+39
4463.463463463464 3.829703983035046e+39
4473.473473473474 3.807113418267307e+39
4483.483483483484 3.784762614846585e+39
4493.493493493494 3.7626479646234425e+39
4503.503503503503 3.7407658610203813e+39
4513.513513513513 3.7191127022800956e+39
4523.523523523523 3.697684894554675e+39
4533.533533533533 3.6764788548400315e+39
4543.543543543543 3.6554910137596924e+39
4553.553553553554 3.634717818202312e+39
4563.563563563564 3.614155733817138e+39
4573.573573573573 3.5938012473717535e+39
4583.583583583584 3.573650868976355e+39
4593.593593593594 3.553701134178815e+39
4603.603603603604 3.533948605934751e+39
4613.613613613614 3.514389876456782e+39
4623.623623623624 3.495021568947039e+39
4633.6336336336335 3.4758403392170755e+39
4643.643643643643 3.4568428771990805e+39
4653.653653653653 3.4380259083523515e+39
4663.663663663663 3.419386194968897e+39
4673.673673673674 3.4009205373818545e+39
4683.683683683684 3.382625775080506e+39
4693.693693693694 3.364498787735379e+39
4703.703703703704 3.346536496137022e+39
4713.713713713714 3.328735863051824e+39
4723.723723723724 3.311093893998235e+39
4733.733733733734 3.293607637946577e+39
4743.743743743744 3.2762741879456717e+39
4753.753753753754 3.259090681679247e+39
4763.763763763764 3.242054301955171e+39
4773.773773773773 3.2251622771303065e+39
4783.783783783783 3.208411881473877e+39
4793.793793793793 3.1918004354719324e+39
4803.803803803804 3.175325306075617e+39
4813.813813813814 3.158983906895722e+39
4823.823823823824 3.1427736983459807e+39
4833.833833833834 3.1266921877374795e+39
4843.843843843844 3.110736929326473e+39
4853.853853853854 3.09490552431778e+39
4863.863863863864 3.079195620825949e+39
4873.873873873874 3.063604913796191e+39
4883.883883883884 3.0481311448871164e+39
4893.893893893894 3.032772102317168e+39
4903.9039039039035 3.017525620676605e+39
4913.913913913913 3.0023895807068166e+39
4923.923923923924 2.9873619090486996e+39
4933.933933933934 2.9724405779617494e+39
4943.943943943944 2.9576236050154447e+39
4953.953953953955 2.9429090527545064e+39
4963.9639639639645 2.928295028339486e+39
4973.973973973974 2.913779683164103e+39
4983.983983983984 2.89936121245075e+39
4993.993993993994 2.885037854825447e+39
5004.004004004004 2.870807891873552e+39
5014.014014014014 2.85666964767746e+39
5024.024024024024 2.842621488337432e+39
5034.0340340340335 2.8286618214767705e+39
5044.044044044043 2.8147890957323686e+39
5054.054054054054 2.801001800231723e+39
5064.064064064064 2.78729846405744e+39
5074.074074074074 2.773677655700178e+39
5084.084084084085 2.7601379825010034e+39
5094.0940940940945 2.746678090084062e+39
5104.104104104104 2.733296661780408e+39
5114.114114114114 2.7199924180438763e+39
5124.124124124124 2.7067641158597734e+39
5134.134134134134 2.6936105481471815e+39
5144.144144144144 2.6805305431556037e+39
5154.154154154154 2.6675229638566985e+39
5164.1641641641645 2.6545867073317578e+39
5174.174174174174 2.6417207041556407e+39
5184.184184184184 2.6289239177777348e+39
5194.194194194194 2.6161953439006215e+39
5204.204204204204 2.6035340098570074e+39
5214.214214214214 2.590938973985471e+39
5224.224224224225 2.5784093250055924e+39
5234.2342342342345 2.5659441813929817e+39
5244.244244244244 2.553542690754685e+39
5254.254254254254 2.5412040292054722e+39
5264.264264264264 2.5289274007454477e+39
5274.274274274274 2.5167120366394315e+39
5284.284284284285 2.50455719479852e+39
5294.294294294295 2.4924621591642466e+39
5304.304304304304 2.480426239095693e+39
5314.314314314314 2.468448768759964e+39
5324.324324324324 2.456529106526326e+39
5334.334334334334 2.4446666343643813e+39
5344.344344344345 2.43286075724657e+39
5354.354354354355 2.4211109025553257e+39
5364.3643643643645 2.4094165194951344e+39
5374.374374374374 2.3977770785098233e+39
5384.384384384384 2.38619207070528e+39
5394.394394394394 2.3746610072778912e+39
5404.404404404404 2.3631834189489096e+39
5414.414414414415 2.351758855404973e+39
5424.424424424425 2.3403868847449833e+39
5434.4344344344345 2.3290670929335312e+39
5444.444444444444 2.317799083261057e+39
5454.454454454454 2.3065824758109143e+39
5464.464464464464 2.2954169069334947e+39
5474.474474474475 2.2843020287275517e+39
5484.484484484485 2.2732375085288737e+39
5494.494494494495 2.26222302840643e+39
5504.504504504504 2.251258284666091e+39
5514.514514514514 2.2403429873620528e+39
5524.524524524524 2.229476859816037e+39
5534.534534534535 2.2186596381443722e+39
5544.544544544545 2.2078910707930264e+39
5554.554554554555 2.1971709180806542e+39
5564.5645645645645 2.1864989517497332e+39
5574.574574574574 2.17587495452583e+39
5584.584584584584 2.1652987196850446e+39
5594.594594594595 2.1547700506296593e+39
5604.604604604605 2.1442887604720597e+39
5614.614614614615 2.133854671626872e+39
5624.624624624625 2.123467615411421e+39
5634.6346346346345 2.1131274316544557e+39
5644.644644644644 2.102833968313153e+39
5654.654654654654 2.0925870810984218e+39
5664.664664664665 2.0823866331084505e+39
5674.674674674675 2.0722324944705354e+39
5684.684684684685 2.062124541991104e+39
5694.694694694695 2.0520626588139584e+39
5704.704704704704 2.0420467340866757e+39
5714.714714714714 2.0320766626351258e+39
5724.724724724725 2.022152344646078e+39
5734.734734734735 2.012273685357832e+39
5744.744744744745 2.002440594758822e+39
5754.754754754755 1.992652987294146e+39
5764.764764764765 1.982910781579947e+39
5774.774774774774 1.973213900125581e+39
5784.784784784785 1.9635622690635086e+39
5794.794794794795 1.953955817886836e+39
5804.804804804805 1.9443944791944124e+39
5814.814814814815 1.934878188443431e+39
5824.824824824825 1.9254068837094295e+39
5834.8348348348345 1.9159805054536058e+39
5844.844844844845 1.906598996297381e+39
5854.854854854855 1.8972623008040824e+39
5864.864864864865 1.8879703652676873e+39
5874.874874874875 1.8787231375085147e+39
5884.884884884885 1.8695205666757702e+39
5894.894894894895 1.8603626030568367e+39
