#lamb flux
1000.0 0.013893015996756174
1010.01001001001 0.01354604375235504
1020.0200200200201 0.013208742732068283
1030.03003003003 0.012880851925085026
1040.0400400400401 0.012562114262211517
1050.05005005005 0.012252276955186193
1060.06006006006 0.01195109177836406
1070.07007007007 0.011658315299128393
1080.08008008008 0.01137370906276111
1090.0900900900901 0.011097039736934832
1100.1001001001 0.010828079220474204
1110.11011011011 0.010566604720568237
1120.1201201201202 0.010312398802192525
1130.13013013013 0.010065249413118704
1140.1401401401401 0.00982494988754268
1150.1501501501502 0.00959129893105125
1160.16016016016 0.009364100589364318
1170.1701701701702 0.009143164203035355
1180.1801801801803 0.008928304350062848
1190.1901901901902 0.008719340778157668
1200.2002002002002 0.008516098328224473
1210.2102102102103 0.008318406850446484
1220.2202202202202 0.008126101114210724
1230.2302302302303 0.007939020712974193
1240.2402402402402 0.007757009965047934
1250.2502502502502 0.007579917669527208
1260.2602602602603 0.007407596883342636
1270.2702702702702 0.007239904793388983
1280.2802802802803 0.0070767036881881585
1290.2902902902902 0.006917860042822242
1300.3003003003003 0.0067632444107115965
1310.3103103103103 0.006612731315579874
1320.3203203203202 0.006466199143954124
1330.3303303303303 0.00632353003850223
1340.3403403403404 0.006184609792467965
1350.3503503503503 0.006049327745426844
1360.3603603603603 0.005917576680552667
1370.3703703703704 0.0057892527235551385
1380.3803803803803 0.005664255243422324
1390.3903903903904 0.00554248675507843
1400.4004004004005 0.005423852824046375
1410.4104104104103 0.00530826197318619
1420.4204204204204 0.005195625591563843
1430.4304304304305 0.0050858578454906185
1440.4404404404404 0.0049788755917604885
1450.4504504504505 0.0048745982931015204
1460.4604604604606 0.004772947935847752
1470.4704704704704 0.004673848949829115
1480.4804804804805 0.004577228130469725
1490.4904904904906 0.004483014563078212
1500.5005005005005 0.004391139549308196
1510.5105105105106 0.004301536535762231
1520.5205205205207 0.004214141044708471
1530.5305305305305 0.004128890606875716
1540.5405405405404 0.004045724696289795
1550.5505505505505 0.003964584667111695
1560.5605605605606 0.00388541369243596
1570.5705705705705 0.00380815670500635
1580.5805805805805 0.0037327603398045485
1590.5905905905906 0.0036591728784667855
1600.6006006006005 0.003587344195482694
1610.6106106106106 0.0035172257061303054
1620.6206206206207 0.003448770316100967
1630.6306306306305 0.0033819323727679834
1640.6406406406406 0.0033166676180529306
1650.6506506506507 0.0032529331428441015
1660.6606606606606 0.003190687342921731
1670.6706706706707 0.0031298898763454895
1680.6806806806808 0.003070501622260212
1690.6906906906906 0.0030124846410766707
1700.7007007007007 0.002955802138837511
1710.7107107107108 0.0029004184354958678
1720.7207207207207 0.002846298907645153
1730.7307307307308 0.0027934099655345886
1740.7407407407409 0.0027417190211082585
1750.7507507507507 0.0026911944555451225
1760.7607607607606 0.002641805587899926
1770.770770770771 0.0025935226448093474
1780.7807807807808 0.0025463167312289136
1790.7907907907907 0.0025001598021674263
1800.8008008008007 0.0024550246353868166
1810.8108108108108 0.002410884805036664
1820.8208208208207 0.00236771465619376
1830.8308308308308 0.002325489280278543
1840.8408408408409 0.0022841844913214187
1850.8508508508507 0.0022437768030533585
1860.8608608608608 0.0022042434067964536
1870.870870870871 0.002165562150131365
1880.8808808808808 0.0021277115163197934
1890.890890890891 0.0020906706044610847
1900.900900900901 0.0020544191103629766
1910.9109109109108 0.002018937308106827
1920.920920920921 0.0019842060322877875
1930.930930930931 0.0019502066609095939
1940.940940940941 0.0019169210989122211
1950.950950950951 0.00188433176230804
1960.960960960961 0.0018524215628982924
1970.970970970971 0.0018211738935365084
1980.980980980981 0.0017905726138988584
1990.9909909909911 0.0017606020367135207
2001.001001001001 0.0017312469143925219
2011.0110110110109 0.00170249242600079
2021.0210210210212 0.0016743241644899545
2031.031031031031 0.0016467281241200847
2041.0410410410411 0.0016196906879935554
2051.051051051051 0.0015931986156335761
2061.061061061061 0.0015672390305574474
2071.071071071071 0.0015417994078224585
2081.081081081081 0.0015168675615597567
2091.091091091091 0.0014924316325558384
2101.101101101101 0.0014684800759875802
2111.1111111111113 0.001445001649457849
2121.121121121121 0.0014219854015070268
2131.131131131131 0.0013994206607838625
2141.141141141141 0.0013772970260426207
2151.151151151151 0.001355604357091957
2161.161161161161 0.0013343327667589384
2171.1711711711714 0.001313472613858034
2181.1811811811813 0.001293014497081203
2191.191191191191 0.0012729492496628254
2201.201201201201 0.0012532679346314221
2211.2112112112113 0.001233961840443262
2221.221221221221 0.001215022476801072
2231.2312312312315 0.0011964415704895073
2241.2412412412414 0.0011782110611007358
2251.2512512512512 0.0011603230965703652
2261.261261261261 0.0011427700284890713
2271.271271271271 0.0011255444071933667
2281.2812812812813 0.0011086389766673031
2291.2912912912916 0.0010920466693047672
2301.3013013013015 0.0010757606005903926
2311.3113113113113 0.0010597740637578038
2321.321321321321 0.0010440805244792428
2331.331331331331 0.001028673615632605
2341.3413413413414 0.001013547132182546
2351.3513513513512 0.0009986950262027188
2361.3613613613616 0.0009841114020574151
2371.3713713713714 0.0009697905117533323
2381.3813813813813 0.0009557267504660379
2391.391391391391 0.0009419146522410339
2401.4014014014015 0.0009283488858658781
2411.4114114114113 0.0009150242509075321
2421.4214214214217 0.0009019356739076276
2431.4314314314315 0.0008890782047276325
2441.4414414414414 0.0008764470130355749
2451.4514514514512 0.0008640373849261172
2461.4614614614616 0.0008518447196660523
2471.4714714714714 0.0008398645265577698
2481.4814814814818 0.0008280924219137419
2491.4914914914916 0.0008165241261356576
2501.5015015015015 0.0008051554608923497
2511.5115115115113 0.0007939823463912074
2521.521521521521 0.0007830007987382295
2531.5315315315315 0.0007722069273823145
2541.541541541542 0.0007615969326397966
2551.5515515515517 0.0007511671032955605
2561.5615615615616 0.0007409138142773936
2571.5715715715714 0.000730833524400517
2581.5815815815813 0.0007209227741794444
2591.5915915915916 0.0007111781837045644
2601.6016016016015 0.0007015964505809938
2611.611611611612 0.0006921743479274309
2621.6216216216217 0.0006829087224328734
2631.6316316316315 0.0006737964924691829
2641.6416416416414 0.0006648346462576086
2651.6516516516517 0.0006560202400874589
2661.6616616616616 0.0006473503965852155
2671.671671671672 0.0006388223030324551
2681.6816816816818 0.0006304332097310286
2691.6916916916916 0.0006221804284139962
2701.7017017017015 0.0006140613307008959
2711.711711711712 0.0006060733465959683
2721.7217217217217 0.0005982139630280219
2731.731731731732 0.0005904807224306552
2741.741741741742 0.0005828712213616275
2751.7517517517517 0.0005753831091601753
2761.7617617617616 0.0005680140866411564
2771.7717717717715 0.0005607619048248959
2781.781781781782 0.000553624363701684
2791.791791791792 0.0005465993110298948
2801.801801801802 0.0005396846411667197
2811.811811811812 0.0005328782939305613
2821.8218218218217 0.0005261782534941524
2831.8318318318316 0.0005195825473074955
2841.841841841842 0.00051308924504975
2851.851851851852 0.0005066964576092214
2861.861861861862 0.0005004023360906291
2871.871871871872 0.0004942050708488631
2881.881881881882 0.00048810289054845683
2891.8918918918916 0.0004820940612480353
2901.901901901902 0.00047617688550900816
2911.911911911912 0.0004703497015278197
2921.921921921922 0.00046461088229106373
2931.931931931932 0.0004589588347528208
2941.941941941942 0.00045339199903356696
2951.9519519519517 0.00044790884764004784
2961.961961961962 0.00044250788470551287
2971.971971971972 0.0004371876452497319
2981.9819819819822 0.0004319466944582316
2991.991991991992 0.0004267836269802064
3002.002002002002 0.00042169706624457456
3012.012012012012 0.0004166856637936697
3022.0220220220217 0.00041174809863406573
3032.032032032032 0.00040688346734402576
3042.0420420420423 0.00040208966886259205
3052.052052052052 0.00039736589051198555
3062.062062062062 0.00039271091892147347
3072.072072072072 0.0003881235645720402
3082.0820820820823 0.0003836026613126551
3092.092092092092 0.0003791470658831049
3102.102102102102 0.000374755657443708
3112.1121121121123 0.00037042733711219883
3122.122122122122 0.00036616102750799924
3132.132132132132 0.000361955672304063
3142.1421421421423 0.00035781023578643705
3152.152152152152 0.00035372370242165097
3162.162162162162 0.00034969507643200495
3172.1721721721724 0.0003457233813788136
3182.1821821821823 0.00034180765975362577
3192.192192192192 0.0003379469725774248
3202.202202202202 0.0003341403990077903
3212.2122122122123 0.00033038703595399127
3222.222222222222 0.00032668599769995857
3232.232232232232 0.00032303641553507327
3242.2422422422424 0.0003194374373927012
3252.252252252252 0.0003158882274963847
3262.262262262262 0.00031238796601360257
3272.2722722722724 0.00030893584871699505
3282.2822822822823 0.00030553108665295006
3292.292292292292 0.0003021729058174356
3302.3023023023025 0.0002988605468389642
3312.3123123123123 0.00029559326466856937
3322.322322322322 0.00029237032827666884
3332.3323323323325 0.0002891910203566916
3342.3423423423424 0.00028605463703534304
3352.352352352352 0.00028296048758937276
3362.3623623623625 0.000279907894168728
3372.3723723723724 0.0002768961915259544
3382.3823823823823 0.00027392472675171495
3392.3923923923926 0.00027099285901630715
3402.4024024024025 0.00026809995931704154
3412.4124124124123 0.00026524541023135594
3422.4224224224226 0.00026242860567554427
3432.4324324324325 0.0002596489506689716
3442.4424424424424 0.0002569058611036513
3452.4524524524522 0.00025419876351906527
3462.4624624624626 0.0002515270948821065
3472.4724724724724 0.0002488903023720272
3482.4824824824823 0.00024628784317027235
3492.4924924924926 0.00024371918425509064
3502.5025025025025 0.00024118380220080596
3512.5125125125123 0.0002386811829816421
3522.5225225225226 0.00023621082177999184
3532.5325325325325 0.00023377222279902517
3542.5425425425424 0.00023136489907953333
3552.5525525525527 0.00022898837232090673
3562.5625625625626 0.00022664217270614945
3572.5725725725724 0.00022432583873082992
3582.5825825825827 0.00022203891703587698
3592.5925925925926 0.0002197809622441263
3602.6026026026025 0.00021755153680052693
3612.612612612613 0.0002153502108159204
3622.6226226226227 0.00021317656191430557
3632.6326326326325 0.00021103017508350338
3642.642642642643 0.00020891064252914353
3652.6526526526527 0.00020681756353188815
3662.6626626626626 0.0002047505443078162
3672.672672672673 0.00020270919787189248
3682.6826826826828 0.00020069314390444684
3692.6926926926926 0.0001987020086205902
3702.7027027027025 0.00019673542464249558
3712.712712712713 0.00019479303087447774
3722.7227227227227 0.00019287447238080333
3732.7327327327325 0.00019097940026616247
3742.742742742743 0.0001891074715587436
3752.7527527527527 0.00018725834909584413
3762.7627627627626 0.00018543170141195885
3772.772772772773 0.00018362720262928684
3782.7827827827828 0.0001818445323505975
3792.7927927927926 0.00018008337555440096
3802.802802802803 0.00017834342249236777
3812.812812812813 0.0001766243685889441
3822.8228228228227 0.00017492591434311057
3832.832832832833 0.00017324776523223393
3842.842842842843 0.00017158963161796264
3852.8528528528527 0.00016995122865411753
3862.862862862863 0.0001683322761965309
3872.872872872873 0.00016673249871478928
3882.8828828828828 0.00016515162520583184
3892.892892892893 0.00016358938910936727
3902.902902902903 0.00016204552822506033
3912.912912912913 0.00016051978463145063
3922.922922922923 0.00015901190460656188
3932.932932932933 0.00015752163855016471
3942.942942942943 0.00015604874090765106
3952.9529529529527 0.000154592970095486
3962.962962962963 0.00015315408842820081
3972.972972972973 0.00015173186204688922
3982.982982982983 0.00015032606084917555
3992.992992992993 0.00014893645842061824
4003.003003003003 0.0001475628319675196
4013.013013013013 0.0001462049622511057
4023.023023023023 0.0001448626335230485
4033.033033033033 0.0001435356334622987
4043.043043043043 0.00014222375311319886
4053.053053053053 0.00014092678682485013
4063.063063063063 0.0001396445321917021
4073.073073073073 0.00013837678999533947
4083.0830830830832 0.00013712336414743945
4093.093093093093 0.0001358840616338721
4103.103103103103 0.00013465869245991914
4113.113113113113 0.00013344706959658758
4123.123123123123 0.00013224900892799043
4133.133133133133 0.000131064329199775
4143.143143143143 0.00012989285196857297
4153.153153153153 0.0001287344015524511
4163.163163163163 0.00012758880498233924
4173.173173173173 0.00012645589195441585
4183.183183183183 0.00012533549478342936
4193.193193193193 0.00012422744835693443
4203.203203203203 0.00012313159009042394
4213.213213213214 0.00012204775988333767
4223.223223223224 0.00012097580007592749
4233.2332332332335 0.00011991555540696111
4243.243243243243 0.0001188668729722468
4253.253253253253 0.00011782960218396068
4263.263263263263 0.00011680359473076003
4273.273273273273 0.00011578870453866504
4283.283283283283 0.00011478478773269311
4293.293293293293 0.00011379170259923005
4303.303303303303 0.00011280930954912118
4313.313313313313 0.00011183747108146884
4323.323323323323 0.0001108760517481192
4333.333333333334 0.00010992491811882612
4343.343343343344 0.00010898393874707635
4353.353353353354 0.00010805298413656215
4363.3633633633635 0.00010713192670828834
4373.373373373373 0.00010622064076830041
4383.383383383383 0.00010531900247602023
4393.393393393393 0.00010442688981317722
4403.403403403403 0.00010354418255332238
4413.413413413413 0.0001026707622319126
4423.423423423424 0.0001018065121169548
4433.4334334334335 0.00010095131718019648
4443.443443443443 0.00010010506406885321
4453.453453453454 9.926764107785992e-05
4463.463463463464 9.843893812263866e-05
4473.473473473474 9.761884671236716e-05
4483.483483483484 9.680725992374325e-05
4493.493493493494 9.600407237523131e-05
4503.503503503503 9.52091802017825e-05
4513.513513513513 9.442248103001927e-05
4523.523523523523 9.364387395387308e-05
4533.533533533533 9.287325951066929e-05
4543.543543543543 9.211053965764626e-05
4553.553553553554 9.135561774890315e-05
4563.563563563564 9.06083985127664e-05
4573.573573573573 8.986878802956601e-05
4583.583583583584 8.913669370981468e-05
4593.593593593594 8.841202427278094e-05
4603.603603603604 8.769468972544796e-05
4613.613613613614 8.698460134185208e-05
4623.623623623624 8.628167164279102e-05
4633.6336336336335 8.558581437589692e-05
4643.643643643643 8.489694449606523e-05
4653.653653653653 8.421497814623308e-05
4663.663663663663 8.353983263850034e-05
4673.673673673674 8.287142643558622e-05
4683.683683683684 8.220967913261551e-05
4693.693693693694 8.155451143922673e-05
4703.703703703704 8.090584516199738e-05
4713.713713713714 8.026360318717934e-05
4723.723723723724 7.962770946373795e-05
4733.733733733734 7.899808898668966e-05
4743.743743743744 7.83746677807322e-05
4753.753753753754 7.775737288416129e-05
4763.763763763764 7.714613233306883e-05
4773.773773773773 7.654087514581612e-05
4783.783783783783 7.594153130777891e-05
4793.793793793793 7.534803175635636e-05
4803.803803803804 7.476030836624065e-05
4813.813813813814 7.417829393494215e-05
4823.823823823824 7.360192216856411e-05
4833.833833833834 7.303112766782344e-05
4843.843843843844 7.246584591431207e-05
4853.853853853854 7.190601325699442e-05
4863.863863863864 7.135156689893687e-05
4873.873873873874 7.080244488426432e-05
4883.883883883884 7.025858608533989e-05
4893.893893893894 6.971993019016361e-05
4903.9039039039035 6.918641768998543e-05
4913.913913913913 6.865798986712914e-05
4923.923923923924 6.81345887830229e-05
4933.933933933934 6.761615726643273e-05
4943.943943943944 6.710263890189452e-05
4953.953953953955 6.659397801834202e-05
4963.9639639639645 6.609011967792608e-05
4973.973973973974 6.559100966502176e-05
4983.983983983984 6.509659447542052e-05
4993.993993993994 6.460682130570332e-05
5004.004004004004 6.412163804279128e-05
5014.014014014014 6.364099325367133e-05
5024.024024024024 6.31648361752926e-05
5034.0340340340335 6.269311670463153e-05
5044.044044044043 6.222578538892148e-05
5054.054054054054 6.176279341604457e-05
5064.064064064064 6.130409260508278e-05
5074.074074074074 6.084963539702464e-05
5084.084084084085 6.039937484562553e-05
5094.0940940940945 5.9953264608418645e-05
5104.104104104104 5.951125893787326e-05
5114.114114114114 5.9073312672698234e-05
5124.124124124124 5.863938122928802e-05
5134.134134134134 5.820942059330846e-05
5144.144144144144 5.778338731141974e-05
5154.154154154154 5.736123848313455e-05
5164.1641641641645 5.694293175280812e-05
5174.174174174174 5.652842530175881e-05
5184.184184184184 5.6117677840516015e-05
5194.194194194194 5.57106486011935e-05
5204.204204204204 5.530729732998636e-05
5214.214214214214 5.490758427978821e-05
5224.224224224225 5.451147020292763e-05
5234.2342342342345 5.411891634402137e-05
5244.244244244244 5.372988443294176e-05
5254.254254254254 5.334433667789717e-05
5264.264264264264 5.296223575862254e-05
5274.274274274274 5.258354481967918e-05
5284.284284284285 5.220822746386061e-05
5294.294294294295 5.1836247745703865e-05
5304.304304304304 5.1467570165103174e-05
5314.314314314314 5.110215966102537e-05
5324.324324324324 5.0739981605324276e-05
5334.334334334334 5.0381001796653156e-05
5344.344344344345 5.002518645447271e-05
5354.354354354355 4.9672502213153755e-05
5364.3643643643645 4.9322916116172194e-05
5374.374374374374 4.897639561039539e-05
5384.384384384384 4.863290854045758e-05
5394.394394394394 4.829242314322365e-05
5404.404404404404 4.795490804233886e-05
5414.414414414415 4.762033224286379e-05
5424.424424424425 4.728866512599261e-05
5434.4344344344345 4.6959876443853286e-05
5444.444444444444 4.66339363143883e-05
5454.454454454454 4.631081521631493e-05
5464.464464464464 4.599048398416303e-05
5474.474474474475 4.5672913803389415e-05
5484.484484484485 4.535807620556754e-05
5494.494494494495 4.504594306365101e-05
5504.504504504504 4.4736486587309867e-05
5514.514514514514 4.4429679318338124e-05
5524.524524524524 4.4125494126131845e-05
5534.534534534535 4.382390420323596e-05
5544.544544544545 4.352488306095912e-05
5554.554554554555 4.322840452505516e-05
5564.5645645645645 4.29344427314703e-05
5574.574574574574 4.2642972122154784e-05
5584.584584584584 4.235396744093792e-05
5594.594594594595 4.206740372946535e-05
5604.604604604605 4.178325632319811e-05
5614.614614614615 4.150150084747125e-05
5624.624624624625 4.1222113213612306e-05
5634.6346346346345 4.094506961511794e-05
5644.644644644644 4.0670346523887643e-05
5654.654654654654 4.0397920686514244e-05
5664.664664664665 4.012776912062931e-05
5674.674674674675 3.985986911130382e-05
5684.684684684685 3.959419820750155e-05
5694.694694694695 3.933073421858599e-05
5704.704704704704 3.906945521087863e-05
5714.714714714714 3.8810339504268505e-05
5724.724724724725 3.855336566887184e-05
5734.734734734735 3.829851252174101e-05
5744.744744744745 3.8045759123622164e-05
5754.754754754755 3.7795084775760434e-05
5764.764764764765 3.7546469016752244e-05
5774.774774774774 3.7299891619443916e-05
5784.784784784785 3.7055332587875416e-05
5794.794794794795 3.6812772154269214e-05
5804.804804804805 3.6572190776062856e-05
5814.814814814815 3.633356913298491e-05
5824.824824824825 3.609688812417356e-05
5834.8348348348345 3.586212886533693e-05
5844.844844844845 3.562927268595492e-05
5854.854854854855 3.5398301126521324e-05
5864.864864864865 3.5169195935825875e-05
5874.874874874875 3.494193906827582e-05
5884.884884884885 3.471651268125584e-05
5894.894894894895 3.4492899132526145e-05
5904.9049049049045 3.4271080977658014e-05
5914.914914914915 3.40510409675059e-05
5924.924924924925 3.383276204571633e-05
5934.934934934935 3.361622734627168e-05
