#lamb flux
1000.0 6.0517698440572954e+38
1010.01001001001 6.171487038577651e+38
1020.0200200200201 6.2794634146439145e+38
1030.03003003003 6.376154284621471e+38
1040.0400400400401 6.462059242540633e+38
1050.05005005005 6.5377096019564664e+38
1060.06006006006 6.603657439751138e+38
1070.07007007007 6.660466169157987e+38
1080.08008008008 6.7087025406462425e+38
1090.0900900900901 6.748929954155692e+38
1100.1001001001 6.781702958500072e+38
1110.11011011011 6.80756281181899e+38
1120.1201201201202 6.82703397926957e+38
1130.13013013013 6.840621449487475e+38
1140.1401401401401 6.848808758719911e+38
1150.1501501501502 6.85205662015689e+38
1160.16016016016 6.850802065252932e+38
1170.1701701701702 6.845458013282412e+38
1180.1801801801803 6.836413194672244e+38
1190.1901901901902 6.824032362570194e+38
1200.2002002002002 6.808656735479901e+38
1210.2102102102103 6.790604621528952e+38
1220.2202202202202 6.770172181986075e+38
1230.2302302302303 6.747634297994539e+38
1240.2402402402402 6.723245510152424e+38
1250.2502502502502 6.696929362970606e+38
1260.2602602602603 6.6679851723096754e+38
1270.2702702702702 6.634987465091756e+38
1280.2802802802803 6.5982399041238485e+38
1290.2902902902902 6.558033206326403e+38
1300.3003003003003 6.514644965411932e+38
1310.3103103103103 6.468339594708827e+38
1320.3203203203202 6.419368372457611e+38
1330.3303303303303 6.367969573663255e+38
1340.3403403403404 6.314368674246356e+38
1350.3503503503503 6.258778614790098e+38
1360.3603603603603 6.201400112622718e+38
1370.3703703703704 6.142422012305745e+38
1380.3803803803803 6.082021665817166e+38
1390.3903903903904 6.020365334828661e+38
1400.4004004004005 5.957608608481648e+38
1410.4104104104103 5.893896830973415e+38
1420.4204204204204 5.829365534077621e+38
1430.4304304304305 5.764140870449742e+38
1440.4404404404404 5.698340044214019e+38
1450.4504504504505 5.632071735900182e+38
1460.4604604604606 5.565436519302789e+38
1470.4704704704704 5.49852726827886e+38
1480.4804804804805 5.4314295518871546e+38
1490.4904904904906 5.364222016609884e+38
1500.5005005005005 5.296976754690594e+38
1510.5105105105106 5.229759657875065e+38
1520.5205205205207 5.16263075605995e+38
1530.5305305305305 5.095644540540569e+38
1540.5405405405404 5.028850271709121e+38
1550.5505505505505 4.96229227119076e+38
1560.5605605605606 4.89601019852091e+38
1570.5705705705705 4.830039312566547e+38
1580.5805805805805 4.764410717979068e+38
1590.5905905905906 4.699151597040249e+38
1600.6006006006005 4.634285427328274e+38
1610.6106106106106 4.569832185690247e+38
1620.6206206206207 4.505808539063828e+38
1630.6306306306305 4.442228022746596e+38
1640.6406406406406 4.379101206769493e+38
1650.6506506506507 4.316435851094224e+38
1660.6606606606606 4.254237050425778e+38
1670.6706706706707 4.192507369514944e+38
1680.6806806806808 4.131246969924684e+38
1690.6906906906906 4.0704537293535155e+38
1700.7007007007007 4.010132992459043e+38
1710.7107107107108 3.950316433376908e+38
1720.7207207207207 3.890990069216807e+38
1730.7307307307308 3.832133659259665e+38
1740.7407407407409 3.773726234967536e+38
1750.7507507507507 3.715746132024866e+38
1760.7607607607606 3.658171034147949e+38
1770.770770770771 3.600978031831042e+38
1780.7807807807808 3.544143699791218e+38
1790.7907907907907 3.487644197551977e+38
1800.8008008008007 3.4314553983695985e+38
1810.8108108108108 3.3755530525520644e+38
1820.8208208208207 3.3199129921362385e+38
1830.8308308308308 3.264511384850951e+38
1840.8408408408409 3.2093250462608673e+38
1850.8508508508507 3.154331819895363e+38
1860.8608608608608 3.0995110359241164e+38
1870.870870870871 3.0448440594148146e+38
1880.8808808808808 2.990314939217933e+38
1890.890890890891 2.9359111678326738e+38
1900.900900900901 2.8816245609180597e+38
1910.9109109109108 2.8274522620603304e+38
1920.920920920921 2.7733978735744702e+38
1930.930930930931 2.7194727070523362e+38
1940.940940940941 2.665697137634613e+38
1950.950950950951 2.612102033226961e+38
1960.960960960961 2.5587302139464836e+38
1970.970970970971 2.505637878158534e+38
1980.980980980981 2.4528959102487652e+38
1990.9909909909911 2.4005909631763066e+38
2001.001001001001 2.3488261881351392e+38
2011.0110110110109 2.2977214675021366e+38
2021.0210210210212 2.2474129996901635e+38
2031.031031031031 2.1980520900556957e+38
2041.0410410410411 2.149803024975218e+38
2051.051051051051 2.102839949841811e+38
2061.061061061061 2.0573427370383112e+38
2071.071071071071 2.0134919145612963e+38
2081.081081081081 1.9714628234451058e+38
2091.091091091091 1.9314192718957774e+38
2101.101101101101 1.8935070423965432e+38
2111.1111111111113 1.8578476702284e+38
2121.121121121121 1.82453293486401e+38
2131.131131131131 1.793620481291845e+38
2141.141141141141 1.765130915341955e+38
2151.151151151151 1.7390466023672387e+38
2161.161161161161 1.7153122562177005e+38
2171.1711711711714 1.693837254044492e+38
2181.1811811811813 1.6744994719454602e+38
2191.191191191191 1.6571503241500517e+38
2201.201201201201 1.6416206162417932e+38
2211.2112112112113 1.627726795758007e+38
2221.221221221221 1.6152771993442431e+38
2231.2312312312315 1.6040779467810062e+38
2241.2412412412414 1.5939382074364142e+38
2251.2512512512512 1.5846746516780054e+38
2261.261261261261 1.576114987077873e+38
2271.271271271271 1.5681005578347136e+38
2281.2812812812813 1.5604880497869327e+38
2291.2912912912916 1.5531503899196689e+38
2301.3013013013015 1.545976958276044e+38
2311.3113113113113 1.5388732435192907e+38
2321.321321321321 1.5317600740566458e+38
2331.331331331331 1.5245725480613392e+38
2341.3413413413414 1.5172587712412071e+38
2351.3513513513512 1.5097784936719854e+38
2361.3613613613616 1.5021017186891212e+38
2371.3713713713714 1.4942073393104188e+38
2381.3813813813813 1.4860818419473847e+38
2391.391391391391 1.4777181037754603e+38
2401.4014014014015 1.469114299229836e+38
2411.4114114114113 1.4602729225848852e+38
2421.4214214214217 1.4511999272230366e+38
2431.4314314314315 1.4419039776905964e+38
2441.4414414414414 1.4323958076401808e+38
2451.4514514514512 1.4226876749525505e+38
2461.4614614614616 1.4127929044281605e+38
2471.4714714714714 1.4027255081970826e+38
2481.4814814814818 1.3924998742154229e+38
2491.4914914914916 1.382130513739548e+38
2501.5015015015015 1.3716318593757293e+38
2511.5115115115113 1.3610181061030332e+38
2521.521521521521 1.3503030884977087e+38
2531.5315315315315 1.3395001882041572e+38
2541.541541541542 1.3286222664725756e+38
2551.5515515515517 1.3176816172995218e+38
2561.5615615615616 1.3066899373564516e+38
2571.5715715715714 1.2956583094698367e+38
2581.5815815815813 1.2845971969258212e+38
2591.5915915915916 1.2735164463162201e+38
2601.6016016016015 1.2624252970258617e+38
2611.611611611612 1.251332395789683e+38
2621.6216216216217 1.2402458150275701e+38
2631.6316316316315 1.2291730739014141e+38
2641.6416416416414 1.2181211612380176e+38
2651.6516516516517 1.2070965596281223e+38
2661.6616616616616 1.1961052701508295e+38
2671.671671671672 1.1851528372879584e+38
2681.6816816816818 1.1742443736881004e+38
2691.6916916916916 1.1633845845184202e+38
2701.7017017017015 1.1525777912063203e+38
2711.711711711712 1.1418279544252246e+38
2721.7217217217217 1.1311386962209898e+38
2731.731731731732 1.1205133212093807e+38
2741.741741741742 1.1099548368022593e+38
2751.7517517517517 1.0994659724415719e+38
2761.7617617617616 1.0890491978371591e+38
2771.7717717717715 1.0787067402174294e+38
2781.781781781782 1.0684406006119557e+38
2791.791791791792 1.0582525691924851e+38
2801.801801801802 1.048144239704267e+38
2811.811811811812 1.0381170230233932e+38
2821.8218218218217 1.0281721598782938e+38
2831.8318318318316 1.0183107327749585e+38
2841.841841841842 1.0085336771660548e+38
2851.851851851852 9.988417919040739e+37
2861.861861861862 9.892357490180999e+37
2871.871871871872 9.797161028529087e+37
2881.881881881882 9.702832986079174e+37
2891.8918918918916 9.609376803121483e+37
2901.901901901902 9.516794982698403e+37
2911.911911911912 9.425089160097916e+37
2921.921921921922 9.334260167698532e+37
2931.931931931932 9.244308095463748e+37
2941.941941941942 9.155232347367502e+37
2951.9519519519517 9.067031694016254e+37
2961.961961961962 8.979704321717613e+37
2971.971971971972 8.893247878230341e+37
2981.9819819819822 8.807659515416154e+37
2991.991991991992 8.7229359289998e+37
3002.002002002002 8.639073395630806e+37
3012.012012012012 8.556067807427714e+37
3022.0220220220217 8.473914704173869e+37
3032.032032032032 8.412704406881792e+37
3042.0420420420423 8.329622323388276e+37
3052.052052052052 8.246708644778942e+37
3062.062062062062 8.164158006689426e+37
3072.072072072072 8.082134927135912e+37
3082.0820820820823 8.0007771761320435e+37
3092.092092092092 7.920198848133462e+37
3102.102102102102 7.840493152675307e+37
3112.1121121121123 7.76173494019294e+37
3122.122122122122 7.683982980869308e+37
3132.132132132132 7.607282014618031e+37
3142.1421421421423 7.531664590137137e+37
3152.152152152152 7.457152710473701e+37
3162.162162162162 7.383759301820451e+37
3172.1721721721724 7.311489521395773e+37
3182.1821821821823 7.240341919297243e+37
3192.192192192192 7.170309468210657e+37
3202.202202202202 7.101380473835161e+37
3212.2122122122123 7.0335393778755845e+37
3222.222222222222 6.966767464473412e+37
3232.232232232232 6.901043480010425e+37
3242.2422422422424 6.836344175332543e+37
3252.252252252252 6.772644778609595e+37
3262.262262262262 6.709919406273238e+37
3272.2722722722724 6.648141418759621e+37
3282.2822822822823 6.587283727124885e+37
3292.292292292292 6.527319055998591e+37
3302.3023023023025 6.468220167789708e+37
3312.3123123123123 6.409960052559115e+37
3322.322322322322 6.3525120875184115e+37
3332.3323323323325 6.295850169703489e+37
3342.3423423423424 6.239948825000282e+37
3352.352352352352 6.184783296364766e+37
3362.3623623623625 6.130329613778215e+37
3372.3723723723724 6.076564648207125e+37
3382.3823823823823 6.023466151593533e+37
3392.3923923923926 5.971012784683064e+37
3402.4024024024025 5.919184134301248e+37
3412.4124124124123 5.867960721513035e+37
3422.4224224224226 5.817324001942565e+37
3432.4324324324325 5.767256359388953e+37
3442.4424424424424 5.717741093747179e+37
3452.4524524524522 5.668762404129885e+37
3462.4624624624626 5.620305367984219e+37
3472.4724724724724 5.572355916907003e+37
3482.4824824824823 5.524900809779937e+37
3492.4924924924926 5.47792760377376e+37
3502.5025025025025 5.431424623704776e+37
3512.5125125125123 5.3853809301688e+37
3522.5225225225226 5.339786286825127e+37
3532.5325325325325 5.294631127156132e+37
3542.5425425425424 5.249906520986261e+37
3552.5525525525527 5.205604141006405e+37
3562.5625625625626 5.161716229516089e+37
3572.5725725725724 5.118235565565756e+37
3582.5825825825827 5.075155432654566e+37
3592.5925925925926 5.032469587114975e+37
3602.6026026026025 4.990172227294022e+37
3612.612612612613 4.948257963621992e+37
3622.6226226226227 4.906721789642132e+37
3632.6326326326325 4.865559054059895e+37
3642.642642642643 4.824765433856794e+37
3652.6526526526527 4.784336908501929e+37
3662.6626626626626 4.74426973528371e+37
3672.672672672673 4.704560425775161e+37
3682.6826826826828 4.665205723437837e+37
3692.6926926926926 4.626202582362362e+37
3702.7027027027025 4.587548147137368e+37
3712.712712712713 4.549239733833216e+37
3722.7227227227227 4.511274812082331e+37
3732.7327327327325 4.473650988233828e+37
3742.742742742743 4.436365989557102e+37
3752.7527527527527 4.399417649465919e+37
3762.7627627627626 4.362803893732519e+37
3772.772772772773 4.326522727659224e+37
3782.7827827827828 4.290572224173723e+37
3792.7927927927926 4.254950512812987e+37
3802.802802802803 4.2196557695601247e+37
3812.812812812813 4.1846862074978655e+37
3822.8228228228227 4.150040068242219e+37
3832.832832832833 4.115715614119797e+37
3842.842842842843 4.081711121052421e+37
3852.8528528528527 4.04802487211307e+37
3862.862862862863 4.0146551517176135e+37
3872.872872872873 3.9816002404175115e+37
3882.8828828828828 3.948858410259191e+37
3892.892892892893 3.916427920676978e+37
3902.902902902903 3.8843070148869203e+37
3912.912912912913 3.8524939167501746e+37
3922.922922922923 3.820986828075431e+37
3932.932932932933 3.78978392633102e+37
3942.942942942943 3.7588833627383015e+37
3952.9529529529527 3.7282832607191813e+37
3962.962962962963 3.6979817146716504e+37
3972.972972972973 3.667976789048331e+37
3982.982982982983 3.6382665177142098e+37
3992.992992992993 3.6088489035607873e+37
4003.003003003003 3.579721918355095e+37
4013.013013013013 3.550883502802912e+37
4023.023023023023 3.5223315668068344e+37
4033.033033033033 3.494063989900702e+37
4043.043043043043 3.4660786218430243e+37
4053.053053053053 3.4383732833529864e+37
4063.063063063063 3.4109457669736364e+37
4073.073073073073 3.3837938380477137e+37
4083.0830830830832 3.3569152357925913e+37
4093.093093093093 3.330307674461564e+37
4103.103103103103 3.303968844579645e+37
4113.113113113113 3.2778964142428035e+37
4123.123123123123 3.2520880304703077e+37
4133.133133133133 3.2265413206006787e+37
4143.143143143143 3.20125389372236e+37
4153.153153153153 3.1762233421309456e+37
4163.163163163163 3.151447242805416e+37
4173.173173173173 3.1269231588964546e+37
4183.183183183183 3.1026486412205024e+37
4193.193193193193 3.078621229753707e+37
4203.203203203203 3.054838455120507e+37
4213.213213213214 3.0312978400720306e+37
4223.223223223224 3.0079969009499313e+37
4233.2332332332335 2.9849331491317795e+37
4243.243243243243 2.9621040924544654e+37
4253.253253253253 2.939507236612482e+37
4263.263263263263 2.91714008652832e+37
4273.273273273273 2.8950001476925054e+37
4283.283283283283 2.87308492747114e+37
4293.293293293293 2.8513919363791147e+37
4303.303303303303 2.829918689317379e+37
4313.313313313313 2.8086627067729616e+37
4323.323323323323 2.787621515980602e+37
4333.333333333334 2.766792652045142e+37
4343.343343343344 2.7461736590239495e+37
4353.353353353354 2.7257620909688654e+37
4363.3633633633635 2.705555512927341e+37
4373.373373373373 2.6855515019025485e+37
4383.383383383383 2.665747647772422e+37
4393.393393393393 2.6461415541676866e+37
4403.403403403403 2.6267308393090786e+37
4413.413413413413 2.607513136804005e+37
4423.423423423424 2.5884860964030877e+37
4433.4334334334335 2.5696473847169926e+37
4443.443443443443 2.5509946858941335e+37
4453.453453453454 2.5325257022598266e+37
4463.463463463464 2.5142381549176145e+37
4473.473473473474 2.496129784313391e+37
4483.483483483484 2.478198350763205e+37
4493.493493493494 2.4604416349454464e+37
4503.503503503503 2.4428574383583255e+37
4513.513513513513 2.425443583743474e+37
4523.523523523523 2.4081979154765564e+37
4533.533533533533 2.3911182999258344e+37
4543.543543543543 2.3742026257795664e+37
4553.553553553554 2.357448804343183e+37
4563.563563563564 2.3408547698072196e+37
4573.573573573573 2.3244184794868774e+37
4583.583583583584 2.308137914034229e+37
4593.593593593594 2.2920110776239654e+37
4603.603603603604 2.2760359981136376e+37
4613.613613613614 2.26021072717934e+37
4623.623623623624 2.244533340427726e+37
4633.6336336336335 2.2290019374853064e+37
4643.643643643643 2.21361464206592e+37
4653.653653653653 2.1983696020172446e+37
4663.663663663663 2.183264989347269e+37
4673.673673673674 2.1682990002315417e+37
4683.683683683684 2.153469855002081e+37
4693.693693693694 2.1387757981187357e+37
4703.703703703704 2.1242150981238358e+37
4713.713713713714 2.1097860475809188e+37
4723.723723723724 2.0954869629982947e+37
4733.733733733734 2.0813161847382083e+37
4743.743743743744 2.0672720769123492e+37
4753.753753753754 2.0533530272644006e+37
4763.763763763764 2.0395574470403452e+37
4773.773773773773 2.0258837708471768e+37
4783.783783783783 2.0123304565007194e+37
4793.793793793793 1.9988959848631405e+37
4803.803803803804 1.985578859670803e+37
4813.813813813814 1.9723776073530607e+37
4823.823823823824 1.9592907768425495e+37
4833.833833833834 1.946316939377556e+37
4843.843843843844 1.9334546882969985e+37
4853.853853853854 1.9207026388285327e+37
4863.863863863864 1.9080594278702982e+37
4873.873873873874 1.8955237137667828e+37
4883.883883883884 1.8830941760792787e+37
4893.893893893894 1.8707695153513743e+37
4903.9039039039035 1.8585484528699155e+37
4913.913913913913 1.8464297304218584e+37
4923.923923923924 1.8344121100474045e+37
4933.933933933934 1.8224943737898206e+37
4943.943943943944 1.810675323442274e+37
4953.953953953955 1.7989537802920857e+37
4963.9639639639645 1.787328584862703e+37
4973.973973973974 1.7757985966537248e+37
4983.983983983984 1.7643626938792974e+37
4993.993993993994 1.7530197732051699e+37
5004.004004004004 1.7417687494846913e+37
5014.014014014014 1.7306085554940227e+37
5024.024024024024 1.7195381416668134e+37
5034.0340340340335 1.708556475828611e+37
5044.044044044043 1.6976625429311968e+37
5054.054054054054 1.686855344787109e+37
5064.064064064064 1.676133899804545e+37
5074.074074074074 1.6654972427228374e+37
5084.084084084085 1.6549444243487118e+37
5094.0940940940945 1.6444745112934935e+37
5104.104104104104 1.6340865857114305e+37
5114.114114114114 1.623779745039305e+37
5124.124124124124 1.6135531017374755e+37
5134.134134134134 1.6034057830325022e+37
5144.144144144144 1.593336930661469e+37
5154.154154154154 1.583345700618161e+37
5164.1641641641645 1.5734312629011871e+37
5174.174174174174 1.5635928012641752e+37
5184.184184184184 1.5538295129681342e+37
5194.194194194194 1.5441406085360868e+37
5204.204204204204 1.5345253115100651e+37
5214.214214214214 1.5249828582105382e+37
5224.224224224225 1.515512497498367e+37
5234.2342342342345 1.5061134905393502e+37
5244.244244244244 1.4967851105714166e+37
5254.254254254254 1.4875266426745503e+37
5264.264264264264 1.4783373835434705e+37
5274.274274274274 1.4692166412631497e+37
5284.284284284285 1.460163735087185e+37
5294.294294294295 1.451177995219086e+37
5304.304304304304 1.4422587625964969e+37
5314.314314314314 1.4334053886784051e+37
5324.324324324324 1.4246172352353396e+37
5334.334334334334 1.4158936741426082e+37
5344.344344344345 1.4072340871765663e+37
5354.354354354355 1.398637865813967e+37
5364.3643643643645 1.390104411034367e+37
5374.374374374374 1.3816331331256363e+37
5384.384384384384 1.3732234514925472e+37
5394.394394394394 1.3648747944684663e+37
5404.404404404404 1.3565865991301417e+37
5414.414414414415 1.348358311115586e+37
5424.424424424425 1.3401893844450558e+37
5434.4344344344345 1.3320792813451073e+37
5444.444444444444 1.324027472075732e+37
5454.454454454454 1.3160334347605662e+37
5464.464464464464 1.3080966552201394e+37
5474.474474474475 1.3002166268081698e+37
5484.484484484485 1.2923928502508787e+37
5494.494494494495 1.284624833489305e+37
5504.504504504504 1.2769120915246059e+37
5514.514514514514 1.2692541462663133e+37
5524.524524524524 1.2616505263835375e+37
5534.534534534535 1.2541007671590757e+37
5544.544544544545 1.2466044103464135e+37
5554.554554554555 1.2391610040295858e+37
5564.5645645645645 1.2317701024858737e+37
5574.574574574574 1.2244312660513055e+37
5584.584584584584 1.2171440609889344e+37
5594.594594594595 1.2099080593598532e+37
5604.604604604605 1.2027228388969403e+37
5614.614614614615 1.195587982881263e+37
5624.624624624625 1.188503080021148e+37
5634.6346346346345 1.1814677243338623e+37
5644.644644644644 1.1744815150298678e+37
5654.654654654654 1.1675440563996335e+37
5664.664664664665 1.1606549577029471e+37
5674.674674674675 1.1538138330607203e+37
5684.684684684685 1.1470203013492135e+37
5694.694694694695 1.1402739860966831e+37
5704.704704704704 1.1335745153823883e+37
5714.714714714714 1.1269215217379324e+37
5724.724724724725 1.1203146420509008e+37
5734.734734734735 1.1137535174707554e+37
5744.744744744745 1.1072377933169533e+37
5754.754754754755 1.1007671189892491e+37
5764.764764764765 1.0943411478801474e+37
5774.774774774774 1.0879595372894643e+37
5784.784784784785 1.0816219483409657e+37
5794.794794794795 1.075328045901043e+37
5804.804804804805 1.0690774984993882e+37
5814.814814814815 1.0628699782516329e+37
5824.824824824825 1.0567051607839217e+37
5834.8348348348345 1.0505827251593643e+37
5844.844844844845 1.0445023538063613e+37
5854.854854854855 1.0384637324487329e+37
5864.864864864865 1.0324665500376397e+37
5874.874874874875 1.0265104986852528e+37
5884.884884884885 1.020595273600135e+37
