#lamb flux
1000.0 3.283824479386085e+40
1010.01001001001 3.1824944739489553e+40
1020.0200200200201 3.084929085299114e+40
1030.03003003003 2.9909688507774467e+40
1040.0400400400401 2.9004616106200425e+40
1050.05005005005 2.8132621727063803e+40
1060.06006006006 2.7292319900540314e+40
1070.07007007007 2.6482388510779697e+40
1080.08008008008 2.570156582531764e+40
1090.0900900900901 2.4948647649668007e+40
1100.1001001001 2.4222484604807555e+40
1110.11011011011 2.352197952475846e+40
1120.1201201201202 2.284608497108096e+40
1130.13013013013 2.2193800860795347e+40
1140.1401401401401 2.1564172204039964e+40
1150.1501501501502 2.0956286947629403e+40
1160.16016016016 2.0369273920588337e+40
1170.1701701701702 1.980230087769742e+40
1180.1801801801803 1.9254572637084616e+40
1190.1901901901902 1.8725329307924314e+40
1200.2002002002002 1.8213844604360379e+40
1210.2102102102103 1.7719424241843538e+40
1220.2202202202202 1.7241404412162226e+40
1230.2302302302303 1.6779150333547863e+40
1240.2402402402402 1.6332054872346285e+40
1250.2502502502502 1.5899534348414316e+40
1260.2602602602603 1.5481024947210355e+40
1270.2702702702702 1.5075981200132146e+40
1280.2802802802803 1.4683896701063355e+40
1290.2902902902902 1.430428655511018e+40
1300.3003003003003 1.3936686376856102e+40
1310.3103103103103 1.3580651338153383e+40
1320.3203203203202 1.323575526296109e+40
1330.3303303303303 1.2901589766856956e+40
1340.3403403403404 1.2577763438962584e+40
1350.3503503503503 1.2263901064130562e+40
1360.3603603603603 1.1959642883347005e+40
1370.3703703703704 1.1664643890404103e+40
1380.3803803803803 1.137857316299385e+40
1390.3903903903904 1.1101113226467106e+40
1400.4004004004005 1.0831959448590897e+40
1410.4104104104103 1.057081946372161e+40
1420.4204204204204 1.0317412624892708e+40
1430.4304304304305 1.0071469482392775e+40
1440.4404404404404 9.832731287483224e+39
1450.4504504504505 9.600949519974754e+39
1460.4604604604606 9.375885438448596e+39
1470.4704704704704 9.157309651971153e+39
1480.4804804804805 8.945001712211366e+39
1490.4904904904906 8.738749724926623e+39
1500.5005005005005 8.538349979837388e+39
1510.5105105105106 8.343606597961866e+39
1520.5205205205207 8.154331195530892e+39
1530.5305305305305 7.970342563649016e+39
1540.5405405405404 7.791466362911752e+39
1550.5505505505505 7.617534832230238e+39
1560.5605605605606 7.448386511153617e+39
1570.5705705705705 7.283865975017003e+39
1580.5805805805805 7.123823582277589e+39
1590.5905905905906 6.968115233435168e+39
1600.6006006006005 6.816602140964649e+39
1610.6106106106106 6.669150609718228e+39
1620.6206206206207 6.525631827283007e+39
1630.6306306306305 6.385921663806912e+39
1640.6406406406406 6.249900480830889e+39
1650.6506506506507 6.117452948689974e+39
1660.6606606606606 5.988467872068106e+39
1670.6706706706707 5.8628380233139e+39
1680.6806806806808 5.740459983144855e+39
1690.6906906906906 5.621233988387416e+39
1700.7007007007007 5.505063837999407e+39
1710.7107107107108 5.3918568522178805e+39
1720.7207207207207 5.281523353927968e+39
1730.7307307307308 5.1739767548536155e+39
1740.7407407407409 5.0691334627482376e+39
1750.7507507507507 4.9669127642883436e+39
1760.7607607607606 4.867236713078367e+39
1770.770770770771 4.770030022540596e+39
1780.7807807807808 4.6752199634790563e+39
1790.7907907907907 4.582736266121124e+39
1800.8008008008007 4.492511026455369e+39
1810.8108108108108 4.404478616698983e+39
1820.8208208208207 4.318575599742688e+39
1830.8308308308308 4.2347406474362696e+39
1840.8408408408409 4.1529144625923315e+39
1850.8508508508507 4.0730397046008434e+39
1860.8608608608608 3.9950609185611144e+39
1870.870870870871 3.918924467851305e+39
1880.8808808808808 3.844578470067283e+39
1890.890890890891 3.771972736271736e+39
1900.900900900901 3.701058713499788e+39
1910.9109109109108 3.63178943046637e+39
1920.920920920921 3.564119446411991e+39
1930.930930930931 3.498004803003385e+39
1940.940940940941 3.4334029791714396e+39
1950.950950950951 3.370272848716741e+39
1960.960960960961 3.308574640440356e+39
1970.970970970971 3.248269900461558e+39
1980.980980980981 3.189321456265154e+39
1990.9909909909911 3.131693381881938e+39
2001.001001001001 3.075350963454661e+39
2011.0110110110109 3.0202606642932297e+39
2021.0210210210212 2.9663900883989574e+39
2031.031031031031 2.913707941367577e+39
2041.0410410410411 2.862183987600474e+39
2051.051051051051 2.811789002899191e+39
2061.061061061061 2.7624947218203235e+39
2071.071071071071 2.714273779641199e+39
2081.081081081081 2.6670996494184726e+39
2091.091091091091 2.620946575364532e+39
2101.101101101101 2.575789504533733e+39
2111.1111111111113 2.5316040194838723e+39
2121.121121121121 2.4883662750260225e+39
2131.131131131131 2.446052942279303e+39
2141.141141141141 2.4046411629340406e+39
2151.151151151151 2.364108515895113e+39
2161.161161161161 2.3244329974085502e+39
2171.1711711711714 2.2855930145217494e+39
2181.1811811811813 2.2475673904860475e+39
2191.191191191191 2.2103353796728158e+39
2201.201201201201 2.1738766888898486e+39
2211.2112112112113 2.138171501727573e+39
2221.221221221221 2.1032005027259547e+39
2231.2312312312315 2.0689448986531964e+39
2241.2412412412414 2.035386434903114e+39
2251.2512512512512 2.0025074058143432e+39
2261.261261261261 1.970290658472771e+39
2271.271271271271 1.9387195901934158e+39
2281.2812812812813 1.907778140344308e+39
2291.2912912912916 1.877450777463175e+39
2301.3013013013015 1.847722482745355e+39
2311.3113113113113 1.8185787309811604e+39
2321.321321321321 1.790005469931291e+39
2331.331331331331 1.7619890989860852e+39
2341.3413413413414 1.734516447789078e+39
2351.3513513513512 1.7075747553393105e+39
2361.3613613613616 1.6811516499350282e+39
2371.3713713713714 1.655235130191598e+39
2381.3813813813813 1.62981354726145e+39
2391.391391391391 1.60487558830351e+39
2401.4014014014015 1.5804102611910047e+39
2411.4114114114113 1.556406880406723e+39
2421.4214214214217 1.5328550540497073e+39
2431.4314314314315 1.509744671863808e+39
2441.4414414414414 1.4870658941931205e+39
2451.4514514514512 1.464809141769941e+39
2461.4614614614616 1.442965086245098e+39
2471.4714714714714 1.4215246413771806e+39
2481.4814814814818 1.400478954804902e+39
2491.4914914914916 1.3798194003350775e+39
2501.5015015015015 1.3595375706867069e+39
2511.5115115115113 1.3396252706392926e+39
2521.521521521521 1.320074510540507e+39
2531.5315315315315 1.3008775001345661e+39
2541.541541541542 1.282026642678237e+39
2551.5515515515517 1.2635145293161645e+39
2561.5615615615616 1.2453339336913875e+39
2571.5715715715714 1.2274778067704553e+39
2581.5815815815813 1.2099392718655286e+39
2591.5915915915916 1.1927116198384197e+39
2601.6016016016015 1.175788304473633e+39
2611.611611611612 1.1591629380092472e+39
2621.6216216216217 1.1428292868159962e+39
2631.6316316316315 1.1267812672160917e+39
2641.6416416416414 1.1110129414344347e+39
2651.6516516516517 1.0955185136756422e+39
2661.6616616616616 1.0802923263210967e+39
2671.671671671672 1.0653288562407712e+39
2681.6816816816818 1.0506227112151307e+39
2691.6916916916916 1.0361686264627633e+39
2701.7017017017015 1.0219614612698119e+39
2711.711711711712 1.0079961957175242e+39
2721.7217217217217 9.942679275045162e+38
2731.731731731732 9.807718688605381e+38
2741.741741741742 9.675033435487489e+38
2751.7517517517517 9.544577839536227e+38
2761.7617617617616 9.416307282518003e+38
2771.7717717717715 9.290178176632754e+38
2781.781781781782 9.166147937804507e+38
2791.791791791792 9.044174959726915e+38
2801.801801801802 8.92421858864075e+38
2811.811811811812 8.806239098821491e+38
2821.8218218218217 8.690197668755681e+38
2831.8318318318316 8.576056357985503e+38
2841.841841841842 8.463778084601784e+38
2851.851851851852 8.353326603366172e+38
2861.861861861862 8.244666484443855e+38
2871.871871871872 8.137763092728806e+38
2881.881881881882 8.032582567744074e+38
2891.8918918918916 7.92909180410022e+38
2901.901901901902 7.827258432495326e+38
2911.911911911912 7.7270508012408e+38
2921.921921921922 7.628437958297353e+38
2931.931931931932 7.531389633806292e+38
2941.941941941942 7.435876223101432e+38
2951.9519519519517 7.341868770187622e+38
2961.961961961962 7.249338951672126e+38
2971.971971971972 7.158259061135576e+38
2981.9819819819822 7.068601993929611e+38
2991.991991991992 6.980341232388737e+38
3002.002002002002 6.893450831444164e+38
3012.012012012012 6.807905404628027e+38
3022.0220220220217 6.723680110456442e+38
3032.032032032032 6.640812554825488e+38
3042.0420420420423 6.5591469056180686e+38
3052.052052052052 6.478727998864174e+38
3062.062062062062 6.399533669035695e+38
3072.072072072072 6.321542135456553e+38
3082.0820820820823 6.2447320024248885e+38
3092.092092092092 6.1690822584195606e+38
3102.102102102102 6.094572274500337e+38
3112.1121121121123 6.021181802000852e+38
3122.122122122122 5.9488909696033605e+38
3132.132132132132 5.877680279875725e+38
3142.1421421421423 5.8075306053429604e+38
3152.152152152152 5.738423184158557e+38
3162.162162162162 5.670339615433896e+38
3172.1721721721724 5.6032618542785e+38
3182.1821821821823 5.5371722065980954e+38
3192.192192192192 5.472053323692734e+38
3202.202202202202 5.407888196692668e+38
3212.2122122122123 5.3446601508657474e+38
3222.222222222222 5.282352839826357e+38
3232.232232232232 5.22095023967257e+38
3242.2422422422424 5.160436643075412e+38
3252.252252252252 5.1007966533411556e+38
3262.262262262262 5.042015178465323e+38
3272.2722722722724 4.984077425194783e+38
3282.2822822822823 4.926968893112355e+38
3292.292292292292 4.870675368756551e+38
3302.3023023023025 4.8151829197874396e+38
3312.3123123123123 4.7604778892082265e+38
3322.322322322322 4.706546889650742e+38
3332.3323323323325 4.65337679773195e+38
3342.3423423423424 4.6009547484874905e+38
3352.352352352352 4.549268129887247e+38
3362.3623623623625 4.498304577437316e+38
3372.3723723723724 4.44805196887171e+38
3382.3823823823823 4.398498418936593e+38
3392.3923923923926 4.349632274269356e+38
3402.4024024024025 4.3014421083740556e+38
3412.4124124124123 4.2539167166944325e+38
3422.4224224224226 4.207045111785307e+38
3432.4324324324325 4.160816518582705e+38
3442.4424424424424 4.1152203697727344e+38
3452.4524524524522 4.070246301259052e+38
3462.4624624624626 4.02588414772837e+38
3472.4724724724724 3.982123938313361e+38
3482.4824824824823 3.9389558923519885e+38
3492.4924924924926 3.896370415242269e+38
3502.5025025025025 3.854358094391237e+38
3512.5125125125123 3.812909695256781e+38
3522.5225225225226 3.772016157480952e+38
3532.5325325325325 3.7316685911132114e+38
3542.5425425425424 3.691858272922059e+38
3552.5525525525527 3.6525766427934e+38
3562.5625625625626 3.6138153002139794e+38
3572.5725725725724 3.5755660008381526e+38
3582.5825825825827 3.537820653136299e+38
3592.5925925925926 3.500571315123088e+38
3602.6026026026025 3.463810191163855e+38
3612.612612612613 3.4275296288573424e+38
3622.6226226226227 3.391722115993022e+38
3632.6326326326325 3.3563802775812624e+38
3642.642642642643 3.321496872954627e+38
3652.6526526526527 3.2870647929385765e+38
3662.6626626626626 3.253077057089832e+38
3672.672672672673 3.2195268110008132e+38
3682.6826826826828 3.186407323668442e+38
3692.6926926926926 3.1537119849257015e+38
3702.7027027027025 3.121434302934365e+38
3712.712712712713 3.0895679017373294e+38
3722.7227227227227 3.0581065188690526e+38
3732.7327327327325 3.0270440030225183e+38
3742.742742742743 2.996374311771365e+38
3752.7527527527527 2.9660915093456597e+38
3762.7627627627626 2.93618976445997e+38
3772.772772772773 2.9066633481923455e+38
3782.7827827827828 2.8775066319128853e+38
3792.7927927927926 2.8487140852605795e+38
3802.802802802803 2.8202802741671807e+38
3812.812812812813 2.792199858926855e+38
3822.8228228228227 2.7644675923104088e+38
3832.832832832833 2.7370783177229387e+38
3842.842842842843 2.7100269674037582e+38
3852.8528528528527 2.6833085606674924e+38
3862.862862862863 2.6569182021852597e+38
3872.872872872873 2.630851080304927e+38
3882.8828828828828 2.6051024654093447e+38
3892.892892892893 2.5796677083116944e+38
3902.902902902903 2.554542238686854e+38
3912.912912912913 2.5297215635379485e+38
3922.922922922923 2.505201265697115e+38
3932.932932932933 2.480977002359663e+38
3942.942942942943 2.457044503650694e+38
3952.9529529529527 2.433399571223423e+38
3962.962962962963 2.4100380768883524e+38
3972.972972972973 2.3869559612725294e+38
3982.982982982983 2.3641492325081154e+38
3992.992992992993 2.3416139649495222e+38
4003.003003003003 2.3193462979184373e+38
4013.013013013013 2.2973424344759717e+38
4023.023023023023 2.2755986402213088e+38
4033.033033033033 2.2541112421161713e+38
4043.043043043043 2.2328766273344635e+38
4053.053053053053 2.2118912421364832e+38
4063.063063063063 2.191151590767079e+38
4073.073073073073 2.1706542343771804e+38
4083.0830830830832 2.1503957899681244e+38
4093.093093093093 2.1303729293582286e+38
4103.103103103103 2.110582378171056e+38
4113.113113113113 2.091020914844886e+38
4123.123123123123 2.0716853696628266e+38
4133.133133133133 2.0525726238031226e+38
4143.143143143143 2.033679608409158e+38
4153.153153153153 2.015003303678685e+38
4163.163163163163 1.996540737971819e+38
4173.173173173173 1.9782889869373774e+38
4183.183183183183 1.960245172657111e+38
4193.193193193193 1.9424064628074186e+38
4203.203203203203 1.9247700698381333e+38
4213.213213213214 1.9073332501680034e+38
4223.223223223224 1.8900933033964483e+38
4233.2332332332335 1.8730475715312417e+38
4243.243243243243 1.8561934382317464e+38
4253.253253253253 1.839528328067349e+38
4263.263263263263 1.8230497057907442e+38
4273.273273273273 1.806755075625738e+38
4283.283283283283 1.7906419805692268e+38
4293.293293293293 1.7747080017070646e+38
4303.303303303303 1.7589507575434626e+38
4313.313313313313 1.743367903343664e+38
4323.323323323323 1.727957130489557e+38
4333.333333333334 1.71271616584797e+38
4343.343343343344 1.69764277115136e+38
4353.353353353354 1.6827347423906027e+38
4363.3633633633635 1.667989909219645e+38
4373.373373373373 1.6534061343717442e+38
4383.383383383383 1.6389813130870446e+38
4393.393393393393 1.6247133725512426e+38
4403.403403403403 1.6106002713451101e+38
4413.413413413413 1.5966399989046163e+38
4423.423423423424 1.5828305749914536e+38
4433.4334334334335 1.569170049173719e+38
4443.443443443443 1.5556565003165357e+38
4453.453453453454 1.5422880360824098e+38
4463.463463463464 1.5290627924411307e+38
4473.473473473474 1.5159789331889542e+38
4483.483483483484 1.5030346494769513e+38
4493.493493493494 1.490228159348267e+38
4503.503503503503 1.4775577072841282e+38
4513.513513513513 1.4650215637584168e+38
4523.523523523523 1.4526180248006116e+38
4533.533533533533 1.4403454115669569e+38
4543.543543543543 1.4282020699196436e+38
4553.553553553554 1.4161863700138738e+38
4563.563563563564 1.404296705892625e+38
4573.573573573573 1.3925314950889564e+38
4583.583583583584 1.3808891782357118e+38
4593.593593593594 1.3693682186824587e+38
4603.603603603604 1.3579671021195086e+38
4613.613613613614 1.3466843362088963e+38
4623.623623623624 1.3355184502221442e+38
4633.6336336336335 1.3244679946847054e+38
4643.643643643643 1.3135315410269276e+38
4653.653653653653 1.3027076812414106e+38
4663.663663663663 1.291995027546635e+38
4673.673673673674 1.2813922120567277e+38
4683.683683683684 1.2708978864572466e+38
4693.693693693694 1.260510721686856e+38
4703.703703703704 1.250229407624778e+38
4713.713713713714 1.2400526527839162e+38
4723.723723723724 1.229979184009512e+38
4733.733733733734 1.2200077461832473e+38
4743.743743743744 1.2101371019326776e+38
4753.753753753754 1.200366031345883e+38
4763.763763763764 1.190693331691248e+38
4773.773773773773 1.1811178171422452e+38
4783.783783783783 1.1716383185071582e+38
4793.793793793793 1.1622536829636144e+38
4803.803803803804 1.1529627737978472e+38
4813.813813813814 1.1437644701486006e+38
4823.823823823824 1.1346576667555721e+38
4833.833833833834 1.1256412737123125e+38
4843.843843843844 1.116714216223502e+38
4853.853853853854 1.1078754343664984e+38
4863.863863863864 1.0991238828570969e+38
4873.873873873874 1.090458530819404e+38
4883.883883883884 1.0818783615597538e+38
4893.893893893894 1.0733823723445851e+38
4903.9039039039035 1.0649695741822024e+38
4913.913913913913 1.0566389916083512e+38
4923.923923923924 1.0483896624755265e+38
4933.933933933934 1.040220637745954e+38
4943.943943943944 1.0321309812881565e+38
4953.953953953955 1.0241197696770554e+38
4963.9639639639645 1.016186091997535e+38
4973.973973973974 1.0083290496513859e+38
4983.983983983984 1.0005477561675952e+38
4993.993993993994 9.928413370158921e+37
5004.004004004004 9.852089294234996e+37
5014.014014014014 9.776496821950348e+37
5024.024024024024 9.701627555354849e+37
5034.0340340340335 9.6274732087622e+37
5044.044044044043 9.554025607039666e+37
5054.054054054054 9.481276683926983e+37
5064.064064064064 9.409218480383886e+37
5074.074074074074 9.337843142965616e+37
5084.084084084085 9.267142922226025e+37
5094.0940940940945 9.197110171147693e+37
5104.104104104104 9.127737343598514e+37
5114.114114114114 9.05901699281433e+37
5124.124124124124 8.99094176990715e+37
5134.134134134134 8.923504422398348e+37
5144.144144144144 8.856697792776535e+37
5154.154154154154 8.790514817079542e+37
5164.1641641641645 8.724948523500102e+37
5174.174174174174 8.65999203101485e+37
5184.184184184184 8.595638548036083e+37
5194.194194194194 8.531881371085996e+37
5204.204204204204 8.468713883492925e+37
5214.214214214214 8.406129554109167e+37
5224.224224224225 8.344121936050037e+37
5234.2342342342345 8.282684665453753e+37
5244.244244244244 8.221811460261735e+37
5254.254254254254 8.161496119019031e+37
5264.264264264264 8.101732519694395e+37
5274.274274274274 8.042514618519781e+37
5284.284284284285 7.983836448848785e+37
5294.294294294295 7.925692120033803e+37
5304.304304304304 7.868075816321443e+37
5314.314314314314 7.810981795766021e+37
5324.324324324324 7.754404389160634e+37
5334.334334334334 7.698337998985686e+37
5344.344344344345 7.642777098374351e+37
5354.354354354355 7.58771623009489e+37
5364.3643643643645 7.533150005549296e+37
5374.374374374374 7.479073103788194e+37
5384.384384384384 7.42548027054149e+37
5394.394394394394 7.372366317264717e+37
5404.404404404404 7.319726120200564e+37
5414.414414414415 7.267554619455535e+37
5424.424424424425 7.21584681809133e+37
5434.4344344344345 7.164597781230709e+37
5444.444444444444 7.113802635177633e+37
5454.454454454454 7.063456566551424e+37
5464.464464464464 7.013554821434628e+37
5474.474474474475 6.9640927045344205e+37
5484.484484484485 6.915065578357288e+37
5494.494494494495 6.866468862396717e+37
5504.504504504504 6.818298032333757e+37
5514.514514514514 6.770548619250099e+37
5524.524524524524 6.723216208853604e+37
5534.534534534535 6.676296440715933e+37
5544.544544544545 6.629785007522153e+37
5554.554554554555 6.583677654332047e+37
5564.5645645645645 6.537970177853005e+37
5574.574574574574 6.492658425724225e+37
5584.584584584584 6.447738295812055e+37
5594.594594594595 6.403205735516282e+37
5604.604604604605 6.359056741087223e+37
5614.614614614615 6.315287356953314e+37
5624.624624624625 6.271893675059166e+37
5634.6346346346345 6.228871834213822e+37
5644.644644644644 6.186218019449011e+37
5654.654654654654 6.143928461387357e+37
5664.664664664665 6.1019994356201895e+37
5674.674674674675 6.060427262095013e+37
5684.684684684685 6.019208304512234e+37
5694.694694694695 5.978338969731181e+37
5704.704704704704 5.937815707185171e+37
5714.714714714714 5.897635008305475e+37
5724.724724724725 5.857793405954045e+37
5734.734734734735 5.818287473864857e+37
5744.744744744745 5.779113826093721e+37
5754.754754754755 5.740269116476399e+37
5764.764764764765 5.701750038094936e+37
5774.774774774774 5.663553322752016e+37
5784.784784784785 5.625675740453239e+37
5794.794794794795 5.588114098897186e+37
5804.804804804805 5.550865242973121e+37
5814.814814814815 5.513926054266228e+37
5824.824824824825 5.477293450570249e+37
5834.8348348348345 5.440964385407375e+37
5844.844844844845 5.404935847555355e+37
5854.854854854855 5.369204860581567e+37
5864.864864864865 5.33376848238405e+37
5874.874874874875 5.298623804739357e+37
5884.884884884885 5.263767952857066e+37
5894.894894894895 5.229198084940916e+37
