#lamb flux
1000.0 3.4709200315994056e+39
1010.01001001001 3.560058032325031e+39
1020.0200200200201 3.647904689521182e+39
1030.03003003003 3.734378717174056e+39
1040.0400400400401 3.8194043990498373e+39
1050.05005005005 3.902911516400551e+39
1060.06006006006 3.984835258195421e+39
1070.07007007007 4.0651161159221824e+39
1080.08008008008 4.1436997648898937e+39
1090.0900900900901 4.220536933849237e+39
1100.1001001001 4.295583264630745e+39
1110.11011011011 4.368799163386002e+39
1120.1201201201202 4.4401496449032534e+39
1130.13013013013 4.509604171357751e+39
1140.1401401401401 4.5771364867491356e+39
1150.1501501501502 4.642724448173626e+39
1160.16016016016 4.706349854978835e+39
1170.1701701701702 4.767998276752869e+39
1180.1801801801803 4.8276588810085596e+39
1190.1901901901902 4.8853242613369394e+39
1200.2002002002002 4.940990266722899e+39
1210.2102102102103 4.994655832639134e+39
1220.2202202202202 5.0463228144629076e+39
1230.2302302302303 5.095995823693079e+39
1240.2402402402402 5.143682067382678e+39
1250.2502502502502 5.18939117848297e+39
1260.2602602602603 5.233135049816504e+39
1270.2702702702702 5.2749276792646356e+39
1280.2802802802803 5.3147851267149456e+39
1290.2902902902902 5.3527253040311156e+39
1300.3003003003003 5.388767839544003e+39
1310.3103103103103 5.4229339472831e+39
1320.3203203203202 5.455246301014596e+39
1330.3303303303303 5.485728913125015e+39
1340.3403403403404 5.514407018363814e+39
1350.3503503503503 5.541306962436705e+39
1360.3603603603603 5.566456095421097e+39
1370.3703703703704 5.589882669958001e+39
1380.3803803803803 5.611615744159131e+39
1390.3903903903904 5.63168508915468e+39
1400.4004004004005 5.650121101195557e+39
1410.4104104104103 5.666954718214133e+39
1420.4204204204204 5.682217340738961e+39
1430.4304304304305 5.69594075705208e+39
1440.4404404404404 5.70815707247175e+39
1450.4504504504505 5.718898642638745e+39
1460.4604604604606 5.728198010681118e+39
1470.4704704704704 5.736087848129239e+39
1480.4804804804805 5.742600899451698e+39
1490.4904904904906 5.747769930081182e+39
1500.5005005005005 5.751627677799415e+39
1510.5105105105106 5.754206807350265e+39
1520.5205205205207 5.755539868151157e+39
1530.5305305305305 5.755659254973904e+39
1540.5405405405404 5.75459717146796e+39
1550.5505505505505 5.752385596400927e+39
1560.5605605605606 5.749056252493511e+39
1570.5705705705705 5.744640577728761e+39
1580.5805805805805 5.739169699018046e+39
1590.5905905905906 5.7326744081093e+39
1600.6006006006005 5.725185139626073e+39
1610.6106106106106 5.716731951129297e+39
1620.6206206206207 5.707344505096726e+39
1630.6306306306305 5.697052052718665e+39
1640.6406406406406 5.685883419411756e+39
1650.6506506506507 5.673866991956223e+39
1660.6606606606606 5.661030707165317e+39
1670.6706706706707 5.647402041999078e+39
1680.6806806806808 5.633008005038141e+39
1690.6906906906906 5.617875129236433e+39
1700.7007007007007 5.602029466581106e+39
1710.7107107107108 5.585496584606667e+39
1720.7207207207207 5.568301557250591e+39
1730.7307307307308 5.550468964767015e+39
1740.7407407407409 5.532022892170215e+39
1750.7507507507507 5.51298692814046e+39
1760.7607607607606 5.493384164731842e+39
1770.770770770771 5.473237197826079e+39
1780.7807807807808 5.452568128278972e+39
1790.7907907907907 5.431398563709079e+39
1800.8008008008007 5.409749620880781e+39
1810.8108108108108 5.3876419286364396e+39
1820.8208208208207 5.365095631334999e+39
1830.8308308308308 5.342130392756776e+39
1840.8408408408409 5.318765400436567e+39
1850.8508508508507 5.2950193703895997e+39
1860.8608608608608 5.27091055219702e+39
1870.870870870871 5.2464567344199343e+39
1880.8808808808808 5.221675250312941e+39
1890.890890890891 5.196582983810244e+39
1900.900900900901 5.1711963757591907e+39
1910.9109109109108 5.145531430377772e+39
1920.920920920921 5.119603721914036e+39
1930.930930930931 5.093428401486412e+39
1940.940940940941 5.067020204084852e+39
1950.950950950951 5.040393455712547e+39
1960.960960960961 5.01356208064784e+39
1970.970970970971 4.9865396088045855e+39
1980.980980980981 4.959339183167416e+39
1990.9909909909911 4.9319735672754865e+39
2001.001001001001 4.904455152725052e+39
2011.0110110110109 4.876795966657247e+39
2021.0210210210212 4.8490076791940556e+39
2031.031031031031 4.821101610782426e+39
2041.0410410410411 4.79308873940551e+39
2051.051051051051 4.7649797076220276e+39
2061.061061061061 4.736784829400247e+39
2071.071071071071 4.70851409672375e+39
2081.081081081081 4.68017718596134e+39
2091.091091091091 4.651783464012965e+39
2101.101101101101 4.623341994265364e+39
2111.1111111111113 4.5948615424125546e+39
2121.121121121121 4.566350582213772e+39
2131.131131131131 4.537817301271288e+39
2141.141141141141 4.509269606910299e+39
2151.151151151151 4.4807151322311366e+39
2161.161161161161 4.4521612423817e+39
2171.1711711711714 4.423615041068166e+39
2181.1811811811813 4.395083377289486e+39
2191.191191191191 4.36657285225076e+39
2201.201201201201 4.3380898263873643e+39
2211.2112112112113 4.3096404264182694e+39
2221.221221221221 4.281230552344277e+39
2231.2312312312315 4.252865884314163e+39
2241.2412412412414 4.224551889296128e+39
2251.2512512512512 4.196293827510252e+39
2261.261261261261 4.1680967585970325e+39
2271.271271271271 4.1399655475145215e+39
2281.2812812812813 4.1119048701708066e+39
2291.2912912912916 4.0839192188086266e+39
2301.3013013013015 4.056012907164909e+39
2311.3113113113113 4.028190075430558e+39
2321.321321321321 4.000454695035568e+39
2331.331331331331 3.972810573282424e+39
2341.3413413413414 3.945261357847775e+39
2351.3513513513512 3.917810541168657e+39
2361.3613613613616 3.890461464726131e+39
2371.3713713713714 3.863217323235983e+39
2381.3813813813813 3.836081168753314e+39
2391.391391391391 3.8090559146957613e+39
2401.4014014014015 3.7821443397882523e+39
2411.4114114114113 3.755349091931003e+39
2421.4214214214217 3.728672691991609e+39
2431.4314314314315 3.7021175375214525e+39
2441.4414414414414 3.6756859063963766e+39
2451.4514514514512 3.649379960381437e+39
2461.4614614614616 3.6232017486194516e+39
2471.4714714714714 3.597153211043223e+39
2481.4814814814818 3.57123618171134e+39
2491.4914914914916 3.5454523920676585e+39
2501.5015015015015 3.5198034741247015e+39
2511.5115115115113 3.494290963571365e+39
2521.521521521521 3.4689163028054673e+39
2531.5315315315315 3.443680843891843e+39
2541.541541541542 3.418585851446747e+39
2551.5515515515517 3.393632505449515e+39
2561.5615615615616 3.368821903982427e+39
2571.5715715715714 3.344155065899907e+39
2581.5815815815813 3.3196329334281606e+39
2591.5915915915916 3.2952563746964545e+39
2601.6016016016015 3.2710261862012833e+39
2611.611611611612 3.2469430952046397e+39
2621.6216216216217 3.223007762067767e+39
2631.6316316316315 3.1992207825215914e+39
2641.6416416416414 3.175582689875227e+39
2651.6516516516517 3.152093957163847e+39
2661.6616616616616 3.128754999237221e+39
2671.671671671672 3.105566174790254e+39
2681.6816816816818 3.0825277883368364e+39
2691.6916916916916 3.059640092128281e+39
2701.7017017017015 3.03690328801766e+39
2711.711711711712 3.0143175292712754e+39
2721.7217217217217 2.991882922328571e+39
2731.731731731732 2.9695995285116575e+39
2741.741741741742 2.94746736568575e+39
2751.7517517517517 2.925486409871628e+39
2761.7617617617616 2.903656596811384e+39
2771.7717717717715 2.881977823488575e+39
2781.781781781782 2.860449949603914e+39
2791.791791791792 2.8390727990076624e+39
2801.801801801802 2.8178461610897815e+39
2811.811811811812 2.7967697921289243e+39
2821.8218218218217 2.77584341660136e+39
2831.8318318318316 2.7550667284508264e+39
2841.841841841842 2.734439392320336e+39
2851.851851851852 2.713961044746947e+39
2861.861861861862 2.693631295320448e+39
2871.871871871872 2.673449727806906e+39
2881.881881881882 2.6534159012380298e+39
2891.8918918918916 2.633529350967252e+39
2901.901901901902 2.6137895896933867e+39
2911.911911911912 2.594196108452783e+39
2921.921921921922 2.5747483775807872e+39
2931.931931931932 2.555445847643356e+39
2941.941941941942 2.5362879503396307e+39
2951.9519519519517 2.517274099376257e+39
2961.961961961962 2.498403691314248e+39
2971.971971971972 2.4796761063890984e+39
2981.9819819819822 2.4610907093049377e+39
2991.991991991992 2.442646850003404e+39
3002.002002002002 2.4243438644079586e+39
3012.012012012012 2.4061810751443117e+39
3022.0220220220217 2.388157792237648e+39
3032.032032032032 2.3702736110042444e+39
3042.0420420420423 2.3525271856812265e+39
3052.052052052052 2.3349181177205256e+39
3062.062062062062 2.3174456761809447e+39
3072.072072072072 2.3001091202631448e+39
3082.0820820820823 2.2829076999264948e+39
3092.092092092092 2.2658406564826083e+39
3102.102102102102 2.2489072231664414e+39
3112.1121121121123 2.2321066256858792e+39
3122.122122122122 2.215438082750602e+39
3132.132132132132 2.198900806581044e+39
3142.1421421421423 2.1824940033982e+39
3152.152152152152 2.1662168738950048e+39
3162.162162162162 2.1500686136899538e+39
3172.1721721721724 2.134048413763648e+39
3182.1821821821823 2.118155460878879e+39
3192.192192192192 2.1023889379848454e+39
3202.202202202202 2.0867480246060924e+39
3212.2122122122123 2.071231897216712e+39
3222.222222222222 2.055839729600337e+39
3232.232232232232 2.0405706931964197e+39
3242.2422422422424 2.0254239574333057e+39
3252.252252252252 2.0103986900485325e+39
3262.262262262262 1.9954940573968268e+39
3272.2722722722724 1.9807092247462078e+39
3282.2822822822823 1.966043356562628e+39
3292.292292292292 1.9514956167835192e+39
3302.3023023023025 1.9370651690806477e+39
3312.3123123123123 1.922751177112634e+39
3322.322322322322 1.9085528047674774e+39
3332.3323323323325 1.8944692163954534e+39
3342.3423423423424 1.8804995770326798e+39
3352.352352352352 1.866643052615665e+39
3362.3623623623625 1.852898810187182e+39
3372.3723723723724 1.8392660180937108e+39
3382.3823823823823 1.8257438461747443e+39
3392.3923923923926 1.8123314659442602e+39
3402.4024024024025 1.7990280507645762e+39
3412.4124124124123 1.785832776012864e+39
3422.4224224224226 1.7727448192405715e+39
3432.4324324324325 1.7597633603259803e+39
3442.4424424424424 1.7468875816201203e+39
3452.4524524524522 1.73411666808628e+39
3462.4624624624626 1.7214498074333032e+39
3472.4724724724724 1.7088861902429048e+39
3482.4824824824823 1.6964250100911743e+39
3492.4924924924926 1.6840654636644832e+39
3502.5025025025025 1.671806750869974e+39
3512.5125125125123 1.6596480749408107e+39
3522.5225225225226 1.647588642536364e+39
3532.5325325325325 1.6356276638375047e+39
3542.5425425425424 1.6237643526371616e+39
3552.5525525525527 1.6119979264263106e+39
3562.5625625625626 1.6003276064755484e+39
3572.5725725725724 1.5887526179123778e+39
3582.5825825825827 1.5772721897943847e+39
3592.5925925925926 1.565885555178412e+39
3602.6026026026025 1.5545919511858855e+39
3612.612612612613 1.5433906190644175e+39
3622.6226226226227 1.5322808042458103e+39
3632.6326326326325 1.5212617564005745e+39
3642.642642642643 1.5103327294891175e+39
3652.6526526526527 1.4994929818096642e+39
3662.6626626626626 1.4887417760430576e+39
3672.672672672673 1.4780783792945394e+39
3682.6826826826828 1.4675020631326152e+39
3692.6926926926926 1.457012103625094e+39
3702.7027027027025 1.4466077813724188e+39
3712.712712712713 1.4362883815383656e+39
3722.7227227227227 1.4260531938782287e+39
3732.7327327327325 1.4159015127645418e+39
3742.742742742743 1.4058326372104653e+39
3752.7527527527527 1.3958458708908906e+39
3762.7627627627626 1.385940522161358e+39
3772.772772772773 1.3761159040748722e+39
3782.7827827827828 1.3663713343966705e+39
3792.7927927927926 1.3567061356170443e+39
3802.802802802803 1.3471196349622632e+39
3812.812812812813 1.3376111644036904e+39
3822.8228228228227 1.3281800606651348e+39
3832.832832832833 1.3188256652285304e+39
3842.842842842843 1.3095473243379867e+39
3852.8528528528527 1.3003443890022796e+39
3862.862862862863 1.2912162149958395e+39
3872.872872872873 1.2821621628583045e+39
3882.8828828828828 1.2731815978926641e+39
3892.892892892893 1.2642738901621029e+39
3902.902902902903 1.2554384144855296e+39
3912.912912912913 1.246674550431897e+39
3922.922922922923 1.237981682313329e+39
3932.932932932933 1.2293591991771233e+39
3942.942942942943 1.2208064947966583e+39
3952.9529529529527 1.2123229676612606e+39
3962.962962962963 1.2039080209650727e+39
3972.972972972973 1.1955610625949646e+39
3982.982982982983 1.187281505117528e+39
3992.992992992993 1.1790687657651821e+39
4003.003003003003 1.1709222664214606e+39
4013.013013013013 1.1628414336054775e+39
4023.023023023023 1.1548256984556324e+39
4033.033033033033 1.1468744967125851e+39
4043.043043043043 1.1389872687015258e+39
4053.053053053053 1.1311634593137813e+39
4063.063063063063 1.1234025179877878e+39
4073.073073073073 1.1157038986894523e+39
4083.0830830830832 1.1080670598919422e+39
4093.093093093093 1.1004914645549268e+39
4103.103103103103 1.0929765801032945e+39
4113.113113113113 1.0855218784053858e+39
4123.123123123123 1.0781268357507426e+39
4133.133133133133 1.0707909328274294e+39
4143.143143143143 1.0635136546989243e+39
4153.153153153153 1.0562944907806226e+39
4163.163163163163 1.049132934815956e+39
4173.173173173173 1.0420284848521698e+39
4183.183183183183 1.0349806432157625e+39
4193.193193193193 1.0279889164876161e+39
4203.203203203203 1.0210528154778328e+39
4213.213213213214 1.0141718552003045e+39
4223.223223223224 1.0073455548470234e+39
4233.2332332332335 1.0005734377621541e+39
4243.243243243243 9.938550314158926e+38
4253.253253253253 9.87189867378111e+38
4263.263263263263 9.805774812918284e+38
4273.273273273273 9.740174128464976e+38
4283.283283283283 9.675092057511386e+38
4293.293293293293 9.61052407707331e+38
4303.303303303303 9.546465703820722e+38
4313.313313313313 9.482912493805237e+38
4323.323323323323 9.419860042186481e+38
4333.333333333334 9.357303982957595e+38
4343.343343343344 9.295239988669935e+38
4353.353353353354 9.233663770157059e+38
4363.3633633633635 9.17257107625817e+38
4373.373373373373 9.111957693541098e+38
4383.383383383383 9.051819446024886e+38
4393.393393393393 8.992152194902133e+38
4403.403403403403 8.932951838261188e+38
4413.413413413413 8.874214310808171e+38
4423.423423423424 8.815935583589131e+38
4433.4334334334335 8.758111663712182e+38
4443.443443443443 8.70073859406986e+38
4453.453453453454 8.643812453061705e+38
4463.463463463464 8.587329354317249e+38
4473.473473473474 8.531285446419212e+38
4483.483483483484 8.475676912627367e+38
4493.493493493494 8.420499970602792e+38
4503.503503503503 8.365750872132776e+38
4513.513513513513 8.311425902856369e+38
4523.523523523523 8.257521381990581e+38
4533.533533533533 8.20403366205746e+38
4543.543543543543 8.150959128611872e+38
4553.553553553554 8.098294199970205e+38
4563.563563563564 8.046035326939996e+38
4573.573573573573 7.994178992550484e+38
4583.583583583584 7.942721711784188e+38
4593.593593593594 7.891660031309565e+38
4603.603603603604 7.84099052921466e+38
4613.613613613614 7.790709814742023e+38
4623.623623623624 7.740814528024658e+38
4633.6336336336335 7.691301339823244e+38
4643.643643643643 7.642166951264585e+38
4653.653653653653 7.593408093581272e+38
4663.663663663663 7.545021527852705e+38
4673.673673673674 7.497004044747363e+38
4683.683683683684 7.449352464266497e+38
4693.693693693694 7.402063635489132e+38
4703.703703703704 7.35513443631849e+38
4713.713713713714 7.308561773229842e+38
4723.723723723724 7.262342581019783e+38
4733.733733733734 7.216473822556955e+38
4743.743743743744 7.1709524885343e+38
4753.753753753754 7.12577559722273e+38
4763.763763763764 7.0809401942264e+38
4773.773773773773 7.036443352239395e+38
4783.783783783783 6.992282170804092e+38
4793.793793793793 6.948453776070962e+38
4803.803803803804 6.904955320559994e+38
4813.813813813814 6.861783982923695e+38
4823.823823823824 6.81893696771167e+38
4833.833833833834 6.7764115051367736e+38
4843.843843843844 6.734204850842939e+38
4853.853853853854 6.692314285674526e+38
4863.863863863864 6.650737115447379e+38
4873.873873873874 6.609470670721442e+38
4883.883883883884 6.568512306575049e+38
4893.893893893894 6.527859402380841e+38
4903.9039039039035 6.487509361583308e+38
4913.913913913913 6.447459611478005e+38
4923.923923923924 6.407707602992373e+38
4933.933933933934 6.368250810468267e+38
4943.943943943944 6.329086731446063e+38
4953.953953953955 6.2902128864504806e+38
4963.9639639639645 6.2516268187780394e+38
4973.973973973974 6.21332609428612e+38
4983.983983983984 6.175308301183757e+38
4993.993993993994 6.1375710498240244e+38
5004.004004004004 6.100111972498072e+38
5014.014014014014 6.0629287232308554e+38
5024.024024024024 6.0260189775784274e+38
5034.0340340340335 5.9893804324269714e+38
5044.044044044043 5.9530108057933796e+38
5054.054054054054 5.916907836627527e+38
5064.064064064064 5.881069284616155e+38
5074.074074074074 5.8454929299883656e+38
5084.084084084085 5.8101765733227554e+38
5094.0940940940945 5.775118035356172e+38
5104.104104104104 5.740315156794069e+38
5114.114114114114 5.705765798122443e+38
5124.124124124124 5.671467839421423e+38
5134.134134134134 5.637419180180421e+38
5144.144144144144 5.6036177391148456e+38
5154.154154154154 5.570061453984455e+38
5164.1641641641645 5.536748281413233e+38
5174.174174174174 5.50367619671085e+38
5184.184184184184 5.47084319369569e+38
5194.194194194194 5.4382472845193934e+38
5204.204204204204 5.405886499493011e+38
5214.214214214214 5.3737588869146204e+38
5224.224224224225 5.34186251289851e+38
5234.2342342342345 5.3101954612058895e+38
5244.244244244244 5.278755833077076e+38
5254.254254254254 5.2475417470652216e+38
5264.264264264264 5.216551338871495e+38
5274.274274274274 5.185782761181798e+38
5284.284284284285 5.155234183504913e+38
5294.294294294295 5.124903792012147e+38
5304.304304304304 5.094789789378412e+38
5314.314314314314 5.064890394624781e+38
5324.324324324324 5.03520384296245e+38
5334.334334334334 5.005728385638179e+38
5344.344344344345 4.9764622897810865e+38
5354.354354354355 4.9474038382509366e+38
5364.3643643643645 4.918551329487752e+38
5374.374374374374 4.8899030773628804e+38
5384.384384384384 4.861457411031398e+38
5394.394394394394 4.833212674785924e+38
5404.404404404404 4.805167227911759e+38
5414.414414414415 4.77731944454342e+38
5424.424424424425 4.7496677135225016e+38
5434.4344344344345 4.722210438256839e+38
5444.444444444444 4.694946036581045e+38
5454.454454454454 4.667872940618347e+38
5464.464464464464 4.6409895966437035e+38
5474.474474474475 4.6142944649482525e+38
5484.484484484485 4.587786019705005e+38
5494.494494494495 4.5614627488358505e+38
5504.504504504504 4.535323153879802e+38
5514.514514514514 4.509365749862496e+38
5524.524524524524 4.48358906516696e+38
5534.534534534535 4.4579916414055846e+38
5544.544544544545 4.432572033293349e+38
5554.554554554555 4.4073288085222314e+38
5564.5645645645645 4.382260547636844e+38
5574.574574574574 4.3573658439112636e+38
5584.584584584584 4.3326433032270454e+38
5594.594594594595 4.308091543952381e+38
5604.604604604605 4.283709196822495e+38
5614.614614614615 4.2594949048211064e+38
5624.624624624625 4.2354473230631044e+38
5634.6346346346345 4.211565118678334e+38
5644.644644644644 4.187846970696497e+38
5654.654654654654 4.164291569933208e+38
5664.664664664665 4.14089761887709e+38
5674.674674674675 4.117663831578056e+38
5684.684684684685 4.0945889335365925e+38
5694.694694694695 4.0716716615941796e+38
5704.704704704704 4.048910763824749e+38
5714.714714714714 4.026304999427219e+38
5724.724724724725 4.0038531386190635e+38
5734.734734734735 3.981553962530938e+38
5744.744744744745 3.9594062631023154e+38
5754.754754754755 3.937408842978166e+38
5764.764764764765 3.915560515406632e+38
5774.774774774774 3.893860104137722e+38
5784.784784784785 3.872306443322974e+38
5794.794794794795 3.85089837741614e+38
5804.804804804805 3.829634761074812e+38
5814.814814814815 3.808514459063027e+38
5824.824824824825 3.7875363461548484e+38
5834.8348348348345 3.766699307038859e+38
5844.844844844845 3.746002236223634e+38
5854.854854854855 3.725444037944122e+38
5864.864864864865 3.705023626068945e+38
5874.874874874875 3.684739924008635e+38
5884.884884884885 3.664591864624761e+38
5894.894894894895 3.644578390139946e+38
5904.9049049049045 3.624698452048796e+38
