#lamb flux
1000.0 0.09181399977462368
1010.01001001001 0.09810737505161754
1020.0200200200201 0.10433398021920906
1030.03003003003 0.1104701763321909
1040.0400400400401 0.11649589948871818
1050.05005005005 0.1223945602070541
1060.06006006006 0.1281528784439883
1070.07007007007 0.13376067146993734
1080.08008008008 0.13921060975924188
1090.0900900900901 0.14449795384270744
1100.1001001001 0.1496202828581414
1110.11011011011 0.15457722343248442
1120.1201201201202 0.1593701856065134
1130.13013013013 0.16400211080978377
1140.1401401401401 0.1684772354258322
1150.1501501501502 0.17280087225521218
1160.16016016016 0.176979211174649
1170.1701701701702 0.18101913948525186
1180.1801801801803 0.1849280818182203
1190.1901901901902 0.18871385899822218
1200.2002002002002 0.19238456492833367
1210.2102102102103 0.1959484603331407
1220.2202202202202 0.19941388205748864
1230.2302302302303 0.20278916654894036
1240.2402402402402 0.20608258613636338
1250.2502502502502 0.20928161724810268
1260.2602602602603 0.21233102441385807
1270.2702702702702 0.21512206628170513
1280.2802802802803 0.2176601824482146
1290.2902902902902 0.2199515206303395
1300.3003003003003 0.22200281841847336
1310.3103103103103 0.22382129412075402
1320.3203203203202 0.22541454671298572
1330.3303303303303 0.2267904647616148
1340.3403403403404 0.22795714407076442
1350.3503503503503 0.2289228137146898
1360.3603603603603 0.2296957700504477
1370.3703703703704 0.23028431825871334
1380.3803803803803 0.23069672093040589
1390.3903903903904 0.23094115320028852
1400.4004004004005 0.23102566392346457
1410.4104104104103 0.23095814239452223
1420.4204204204204 0.23074629012003517
1430.4304304304305 0.23039759717157313
1440.4404404404404 0.22991932266691278
1450.4504504504505 0.22931847895055596
1460.4604604604606 0.22860181907003005
1470.4704704704704 0.22777582717089864
1480.4804804804805 0.22684671146036173
1490.4904904904906 0.22582039941621082
1500.5005005005005 0.22470253494436632
1510.5105105105106 0.22349847721395047
1520.5205205205207 0.22221330092362143
1530.5305305305305 0.2208517977765939
1540.5405405405404 0.21941847896431219
1550.5505505505505 0.21791757848008844
1560.5605605605606 0.21635305710421618
1570.5705705705705 0.21472860692115153
1580.5805805805805 0.21304765624742655
1590.5905905905906 0.21131337486614227
1600.6006006006005 0.2095286794803178
1610.6106106106106 0.20769623931325648
1620.6206206206207 0.20581848179957618
1630.6306306306305 0.20389759832593668
1640.6406406406406 0.20193554999597058
1650.6506506506507 0.19993407340983566
1660.6606606606606 0.19789468646541813
1670.6706706706707 0.19581869420594272
1680.6806806806808 0.19370719475792658
1690.6906906906906 0.19156108542452935
1700.7007007007007 0.18938203545073432
1710.7107107107108 0.18717439546495304
1720.7207207207207 0.18493797176441196
1730.7307307307308 0.18267193988369104
1740.7407407407409 0.18037539872001493
1750.7507507507507 0.17804737576631655
1760.7607607607606 0.17568683406840976
1770.770770770771 0.1732926812713728
1780.7807807807808 0.17086378117882645
1790.7907907907907 0.16839896831260234
1800.8008008008007 0.16589706602820234
1810.8108108108108 0.16335690881139314
1820.8208208208207 0.16077736945003132
1830.8308308308308 0.15815739183791552
1840.8408408408409 0.15549603021716668
1850.8508508508507 0.15279249569280998
1860.8608608608608 0.15004621084514203
1870.870870870871 0.14725687320571615
1880.8808808808808 0.14442452823096572
1890.890890890891 0.14154965217916374
1900.900900900901 0.1386332449437798
1910.9109109109108 0.135676932389628
1920.920920920921 0.13268307704889312
1930.930930930931 0.12965489513926187
1940.940940940941 0.12659657675568528
1950.950950950951 0.1235134047721169
1960.960960960961 0.12041186651400392
1970.970970970971 0.11729975071478764
1980.980980980981 0.11418622079318391
1990.9909909909911 0.11108185428498918
2001.001001001001 0.1079986375905243
2011.0110110110109 0.10494990534813423
2021.0210210210212 0.10195021500261826
2031.031031031031 0.0990151497298357
2041.0410410410411 0.0961610468952578
2051.051051051051 0.09340465454868055
2061.061061061061 0.09076272471562992
2071.071071071071 0.08825155880086627
2081.081081081081 0.08588652642953973
2091.091091091091 0.08368158360138159
2101.101101101101 0.08164881831364507
2111.1111111111113 0.07979805130601536
2121.121121121121 0.07813651621921205
2131.131131131131 0.07666863764211014
2141.141141141141 0.07539591805491232
2151.151151151151 0.07431693658404119
2161.161161161161 0.07342745478809962
2171.1711711711714 0.07272061820647051
2181.1811811811813 0.0721872376102679
2191.191191191191 0.07181613094710718
2201.201201201201 0.07159450574648196
2211.2112112112113 0.07150836197672701
2221.221221221221 0.07154289669488524
2231.2312312312315 0.07168289400538926
2241.2412412412414 0.07191308658570485
2251.2512512512512 0.07221847812869824
2261.261261261261 0.07258461929454836
2271.271271271271 0.07299783297008769
2281.2812812812813 0.07344538762090447
2291.2912912912916 0.07391562013417285
2301.3013013013015 0.0743980116695966
2311.3113113113113 0.07488322159506884
2321.321321321321 0.07536308557117491
2331.331331331331 0.0758305843032666
2341.3413413413414 0.07627978947831017
2351.3513513513512 0.07670579304522702
2361.3613613613616 0.07710462538821722
2371.3713713713714 0.07747316718322973
2381.3813813813813 0.07780905890491188
2391.391391391391 0.0781106111331106
2401.4014014014015 0.07837671804297093
2411.4114114114113 0.07860677578157627
2421.4214214214217 0.07880060685256599
2431.4314314314315 0.0789583911523441
2441.4414414414414 0.07908060392330896
2451.4514514514512 0.07916796060179969
2461.4614614614616 0.07922136832922698
2471.4714714714714 0.07924188375127736
2481.4814814814818 0.07923067663953165
2491.4914914914916 0.07918899882078255
2501.5015015015015 0.07911815788164793
2511.5115115115113 0.07901949512123362
2521.521521521521 0.0788943672456424
2531.5315315315315 0.07874413132953988
2541.541541541542 0.07857013260751483
2551.5515515515517 0.07837369469843025
2561.5615615615616 0.07815611190704287
2571.5715715715714 0.07791864328726048
2581.5815815815813 0.07766250818944252
2591.5915915915916 0.07738888304948016
2601.6016016016015 0.07709889920966481
2611.611611611612 0.07679364159045335
2621.6216216216217 0.07647414805817973
2631.6316316316315 0.07614140935669052
2641.6416416416414 0.07579636949097997
2651.6516516516517 0.07543992646840529
2661.6616616616616 0.07507293331821847
2671.671671671672 0.07469619932320447
2681.6816816816818 0.07431049140840396
2691.6916916916916 0.07391653564145197
2701.7017017017015 0.07351501880718045
2711.711711711712 0.07310659002601164
2721.7217217217217 0.07269186239146994
2731.731731731732 0.07227141460701807
2741.741741741742 0.07184579260651032
2751.7517517517517 0.07141551114596498
2761.7617617617616 0.0709810553571944
2771.7717717717715 0.07054288225617521
2781.781781781782 0.07010142220097783
2791.791791791792 0.06965708029565816
2801.801801801802 0.06921023773780577
2811.811811811812 0.06876125310849103
2821.8218218218217 0.06831046360419223
2831.8318318318316 0.06785818621095312
2841.841841841842 0.06740471882154661
2851.851851851852 0.06695034129682821
2861.861861861862 0.06649531647277163
2871.871871871872 0.06603989111490736
2881.881881881882 0.06558429682205003
2891.8918918918916 0.0651287508813063
2901.901901901902 0.06467345707642377
2911.911911911912 0.06421860645156936
2921.921921921922 0.06376437803262988
2931.931931931932 0.0633109395081072
2941.941941941942 0.06285844787164412
2951.9519519519517 0.06240705002816667
2961.961961961962 0.06195688336557053
2971.971971971972 0.06150807629380978
2981.9819819819822 0.061060748753177733
2991.991991991992 0.06061501269349223
3002.002002002002 0.06017097252582289
3012.012012012012 0.059728725548320566
3022.0220220220217 0.05928836234763237
3032.032032032032 0.05914956561487951
3042.0420420420423 0.058674694231302935
3052.052052052052 0.05819175520481179
3062.062062062062 0.05770377260328969
3072.072072072072 0.05721333907526846
3082.0820820820823 0.05672266066642527
3092.092092092092 0.05623359856467038
3102.102102102102 0.05574770767098708
3112.1121121121123 0.05526627199290015
3122.122122122122 0.05479033693036185
3132.132132132132 0.054320738575312034
3142.1421421421423 0.05385813018071049
3152.152152152152 0.05340300597620313
3162.162162162162 0.05295572251887875
3172.1721721721724 0.05251651777128476
3182.1821821821823 0.05208552809703361
3192.192192192192 0.05166280335853277
3202.202202202202 0.05124832029286988
3212.2122122122123 0.05084199433164766
3222.222222222222 0.050443690019334894
3232.232232232232 0.05005323017303572
3242.2422422422424 0.04967040391488649
3252.252252252252 0.04929497369686157
3262.262262262262 0.04892668142681026
3272.2722722722724 0.04856525379418709
3282.2822822822823 0.04821040688425493
3292.292292292292 0.047861850160579714
3302.3023023023025 0.047519289887398834
3312.3123123123123 0.047182432055927495
3322.322322322322 0.046850984871842694
3332.3323323323325 0.04652466085500789
3342.3423423423424 0.04620317859694907
3352.352352352352 0.04588626421659727
3362.3623623623625 0.04557365255035016
3372.3723723723724 0.04526508810851296
3382.3823823823823 0.04496032582661939
3392.3923923923926 0.04465913163697066
3402.4024024024025 0.044361282882909435
3412.4124124124123 0.04406656859584657
3422.4224224224226 0.04377478965283587
3432.4324324324325 0.0434857588305204
3442.4424424424424 0.04319930076952351
3452.4524524524522 0.04291525186180423
3462.4624624624626 0.04263346007211671
3472.4724724724724 0.04235378470348813
3482.4824824824823 0.04207609611553644
3492.4924924924926 0.04180027540348209
3502.5025025025025 0.0415262140448384
3512.5125125125123 0.04125381351999573
3522.5225225225226 0.04098298491222291
3532.5325325325325 0.04071364849199076
3542.5425425425424 0.04044573328996953
3552.5525525525527 0.0401791766625533
3562.5625625625626 0.039913923853317275
3572.5725725725724 0.03964992755341003
3582.5825825825827 0.03938714746351994
3592.5925925925926 0.03912554985972518
3602.6026026026025 0.03886510716524004
3612.612612612613 0.03860579752980142
3622.6226226226227 0.03834760441819523
3632.6326326326325 0.038090516209201446
3642.642642642643 0.037834525806037037
3652.6526526526527 0.037579630259193614
3662.6626626626626 0.037325830402402074
3672.672672672673 0.03707313050230904
3682.6826826826828 0.03682153792231345
3692.6926926926926 0.03657106280089128
3702.7027027027025 0.03632171774462603
3712.712712712713 0.03607351753606509
3722.7227227227227 0.03582647885643315
3732.7327327327325 0.03558062002315481
3742.742742742743 0.03533596074206962
3752.7527527527527 0.03509252187415951
3762.7627627627626 0.03485032521655496
3772.772772772773 0.03460939329753849
3782.7827827827828 0.03436974918522257
3792.7927927927926 0.034131416309544166
3802.802802802803 0.03389441829718838
3812.812812812813 0.033658778819028345
3822.8228228228227 0.03342452144964885
3832.832832832833 0.033191669538505185
3842.842842842843 0.032960246092256146
3852.8528528528527 0.03273027366780231
3862.862862862863 0.032501774275554556
3872.872872872873 0.03227476929245611
3882.8828828828828 0.03204927938428047
3892.892892892893 0.03182532443673184
3902.902902902903 0.03160292349487696
3912.912912912913 0.0313820947104456
3922.922922922923 0.031162855296543928
3932.932932932933 0.03094522148933511
3942.942942942943 0.030729208516251147
3952.9529529529527 0.030514830570313005
3962.962962962963 0.030302100790147727
3972.972972972973 0.030091031245304666
3982.982982982983 0.029881632926487264
3992.992992992993 0.029673915740330393
4003.003003003003 0.029467888508369244
4013.013013013013 0.02926355896985858
4023.023023023023 0.029060933788118283
4033.033033033033 0.028860018560094767
4043.043043043043 0.028660817828843128
4053.053053053053 0.028463335098650032
4063.063063063063 0.02826757285253189
4073.073073073073 0.028073532571856775
4083.0830830830832 0.027881214757853545
4093.093093093093 0.027690618954784935
4103.103103103103 0.027501743774574747
4113.113113113113 0.027314586922692966
4123.123123123123 0.027129145225114126
4133.133133133133 0.026945414656178085
4143.143143143143 0.026763390367192642
4153.153153153153 0.02658306671562967
4163.163163163163 0.026404437294776845
4173.173173173173 0.026227494963717828
4183.183183183183 0.026052231877523306
4193.193193193193 0.02587863951754491
4203.203203203203 0.025706708721713066
4213.213213213214 0.025536429714748458
4223.223223223224 0.025367792138204386
4233.2332332332335 0.025200785080265603
4243.243243243243 0.02503539710523594
4253.253253253253 0.024871616282654024
4263.263263263263 0.02470943021598276
4273.273273273273 0.024548826070824165
4283.283283283283 0.02438979060261674
4293.293293293293 0.024232310183778073
4303.303303303303 0.024076370830259795
4313.313313313313 0.023921958227487026
4323.323323323323 0.023769057755658192
4333.333333333334 0.023617654514385727
4343.343343343344 0.023467733346660843
4353.353353353354 0.023319278862129946
4363.3633633633635 0.023172275459672372
4373.373373373373 0.023026707349272795
4383.383383383383 0.022882558573183685
4393.393393393393 0.022739813026375805
4403.403403403403 0.022598454476276956
4413.413413413413 0.022458466581800746
4423.423423423424 0.02231983291166984
4433.4334334334335 0.02218253696203844
4443.443443443443 0.02204656217342145
4453.453453453454 0.021911891946938152
4463.463463463464 0.021778509659880232
4473.473473473474 0.021646398680613643
4483.483483483484 0.02151554238282662
4493.493493493494 0.021385924159134914
4503.503503503503 0.02125752743405758
4513.513513513513 0.02113033567637627
4523.523523523523 0.021004332410891693
4533.533533533533 0.0208795012295918
4543.543543543543 0.02075582580224557
4553.553553553554 0.02063328988643763
4563.563563563564 0.020511877337058237
4573.573573573573 0.020391572115263816
4583.583583583584 0.020272358296923188
4593.593593593594 0.02015422008056444
4603.603603603604 0.020037141794837697
4613.613613613614 0.019921107905508877
4623.623623623624 0.019806103021999144
4633.6336336336335 0.019692111903485174
4643.643643643643 0.019579119464574885
4653.653653653653 0.019467110780572873
4663.663663663663 0.01935607109235023
4673.673673673674 0.01924598581083253
4683.683683683684 0.019136840521120153
4693.693693693694 0.019028620986254154
4703.703703703704 0.01892131315064145
4713.713713713714 0.018814903143152123
4723.723723723724 0.018709377279901716
4733.733733733734 0.01860472206673102
4743.743743743744 0.01850092420139573
4753.753753753754 0.01839797057547749
4763.763763763764 0.01829584827602856
4773.773773773773 0.018194544586960668
4783.783783783783 0.018094046990189957
4793.793793793793 0.01799434316654789
4803.803803803804 0.017895420996469156
4813.813813813814 0.017797268560466355
4823.823823823824 0.017699874139401526
4833.833833833834 0.01760322621456384
4843.843843843844 0.017507313467562898
4853.853853853854 0.01741212478004645
4863.863863863864 0.017317649233251343
4873.873873873874 0.017223876107396
4883.883883883884 0.017130794880922687
4893.893893893894 0.017038395229597297
4903.9039039039035 0.01694666702547444
4913.913913913913 0.016855600335735004
4923.923923923924 0.01676518542140344
4933.933933933934 0.016675412735951658
4943.943943943944 0.01658627292379595
4953.953953953955 0.016497756818693612
4963.9639639639645 0.016409855442045304
4973.973973973974 0.01632256000110901
4983.983983983984 0.016235861887131525
4993.993993993994 0.016149752673402927
5004.004004004004 0.016064224113239156
5014.014014014014 0.01597926813789829
5024.024024024024 0.01589487685443492
5034.0340340340335 0.01581104254349779
5044.044044044043 0.015727757657075028
5054.054054054054 0.015645014816191505
5064.064064064064 0.015562806808562455
5074.074074074074 0.01548112658620745
5084.084084084085 0.015399967263028627
5094.0940940940945 0.015319322112356938
5104.104104104104 0.01523918456446996
5114.114114114114 0.015159548204084716
5124.124124124124 0.01508040676782893
5134.134134134134 0.015001754141693687
5144.144144144144 0.014923584358470666
5154.154154154154 0.014845891595176896
5164.1641641641645 0.014768670170469587
5174.174174174174 0.014691914542054057
5184.184184184184 0.014615619304086884
5194.194194194194 0.014539779184577073
5204.204204204204 0.014464389042787365
5214.214214214214 0.014389443866637925
5224.224224224225 0.014314938770114548
5234.2342342342345 0.014240868990683447
5244.244244244244 0.01416722988671438
5254.254254254254 0.014094016934914154
5264.264264264264 0.014021225727771997
5274.274274274274 0.013948851971018722
5284.284284284285 0.01387689148110095
5294.294294294295 0.013805340182672127
5304.304304304304 0.01373419410610152
5314.314314314314 0.013663449385002715
5324.324324324324 0.01359310225378267
5334.334334334334 0.013523149045212712
5344.344344344345 0.013453586188022325
5354.354354354355 0.013384410204517104
5364.3643643643645 0.013315617708221435
5374.374374374374 0.013247205401547306
5384.384384384384 0.0131791700734896
5394.394394394394 0.013111508597349069
5404.404404404404 0.013044217928483495
5414.414414414415 0.012977295102087805
5424.424424424425 0.01291073723100377
5434.4344344344345 0.012844541503559822
5444.444444444444 0.012778705181441584
5454.454454454454 0.012713225597593579
5464.464464464464 0.012648100154152506
5474.474474474475 0.012583326320412536
5484.484484484485 0.01251890163082296
5494.494494494495 0.01245482368301849
5504.504504504504 0.012391090135882491
5514.514514514514 0.012327698707643364
5524.524524524524 0.012264647174004339
5534.534534534535 0.012201933366306709
5544.544544544545 0.012139555169726807
5554.554554554555 0.012077510521506608
5564.5645645645645 0.012015797409218244
5574.574574574574 0.011954413869062305
5584.584584584584 0.011893357984199989
5594.594594594595 0.011832627883119026
5604.604604604605 0.011772221738033512
5614.614614614615 0.011712137763317237
5624.624624624625 0.011652374213970751
5634.6346346346345 0.01159292938412188
5644.644644644644 0.011533801605559483
5654.654654654654 0.011474989246300504
5664.664664664665 0.01141649070918982
5674.674674674675 0.011358304430533088
5684.684684684685 0.01130042887876189
5694.694694694695 0.011242862553131346
5704.704704704704 0.011185603982449742
5714.714714714714 0.011128651723839856
5724.724724724725 0.011072004361531872
5734.734734734735 0.011015660505687402
5744.744744744745 0.010959618791254405
5754.754754754755 0.010903877876852637
5764.764764764765 0.010848436443689305
5774.774774774774 0.010793293194504604
5784.784784784785 0.010738446852546681
5794.794794794795 0.010683896160575785
5804.804804804805 0.010629639879897136
5814.814814814815 0.01057567678942214
5824.824824824825 0.010522005684757618
5834.8348348348345 0.010468625377322524
5844.844844844845 0.010415534693491933
5854.854854854855 0.010362732473767665
5864.864864864865 0.010310217571975314
5874.874874874875 0.010257988854487157
5884.884884884885 0.010206045199470552
5894.894894894895 0.010154385496161397
5904.9049049049045 0.01010300864416221
5914.914914914915 0.010051913552764379
5924.924924924925 0.01000109914029421
5934.934934934935 0.009950564333482214
5944.944944944945 0.009900308066855355
5954.954954954955 0.00985032928215165
5964.964964964965 0.00980062692775682
5974.974974974975 0.009751199958162456
5984.984984984985 0.009702047333445329
5994.994994994995 0.009653168018767326
6005.005005005005 0.009604560983895657
6015.015015015015 0.009556225202742848
6025.025025025025 0.009508159652926075
6035.035035035035 0.009460363315345444
6045.045045045045 0.00941283517378076
6055.055055055055 0.009365574214506352
6065.065065065065 0.009318579425923536
6075.075075075075 0.009271849798210309
6085.085085085085 0.009225384322987803
6095.0950950950955 0.009179181993003159
6105.105105105105 0.00913324180182836
6115.115115115115 0.009087562743574562
6125.125125125125 0.009042143812621637
6135.135135135135 0.00899698400336248
6145.145145145145 0.008952082309961567
6155.155155155155 0.008907437726127615
6165.1651651651655 0.008863049244899666
