#lamb flux
1000.0 4.842062810529517e+39
1010.01001001001 5.015512348358203e+39
1020.0200200200201 5.181820114131383e+39
1030.03003003003 5.340894303112698e+39
1040.0400400400401 5.492708717778655e+39
1050.05005005005 5.637294465833381e+39
1060.06006006006 5.774732061574686e+39
1070.07007007007 5.905144021147349e+39
1080.08008008008 6.02868800977188e+39
1090.0900900900901 6.145550572549924e+39
1100.1001001001 6.255941459331529e+39
1110.11011011011 6.360088537734314e+39
1120.1201201201202 6.458233276067177e+39
1130.13013013013 6.550626768995843e+39
1140.1401401401401 6.637526272700654e+39
1150.1501501501502 6.719192212486548e+39
1160.16016016016 6.795885623840422e+39
1170.1701701701702 6.867865987387644e+39
1180.1801801801803 6.935389418733504e+39
1190.1901901901902 6.998707175501217e+39
1200.2002002002002 7.058064445761763e+39
1210.2102102102103 7.113699384301995e+39
1220.2202202202202 7.165842365648109e+39
1230.2302302302303 7.214715425333545e+39
1240.2402402402402 7.26053186348555e+39
1250.2502502502502 7.303156133879931e+39
1260.2602602602603 7.341763327596959e+39
1270.2702702702702 7.37469486308598e+39
1280.2802802802803 7.402174442565e+39
1290.2902902902902 7.424425793680899e+39
1300.3003003003003 7.4416715255429e+39
1310.3103103103103 7.454132129878866e+39
1320.3203203203202 7.462025115706484e+39
1330.3303303303303 7.465564266230352e+39
1340.3403403403404 7.464959007096304e+39
1350.3503503503503 7.460413875629803e+39
1360.3603603603603 7.452128081231678e+39
1370.3703703703704 7.440295147683323e+39
1380.3803803803803 7.425102628708979e+39
1390.3903903903904 7.406731888742275e+39
1400.4004004004005 7.385357941437788e+39
1410.4104104104103 7.361149339048371e+39
1420.4204204204204 7.334268106349453e+39
1430.4304304304305 7.304869713327859e+39
1440.4404404404404 7.27310308136265e+39
1450.4504504504505 7.239110618106036e+39
1460.4604604604606 7.203028276723713e+39
1470.4704704704704 7.164985635574618e+39
1480.4804804804805 7.125105994801237e+39
1490.4904904904906 7.083506486663182e+39
1500.5005005005005 7.040298196780374e+39
1510.5105105105106 6.995586293758999e+39
1520.5205205205207 6.949470164954843e+39
1530.5305305305305 6.902043556386638e+39
1540.5405405405404 6.853394715048425e+39
1550.5505505505505 6.803606532086658e+39
1560.5605605605606 6.752756685506872e+39
1570.5705705705705 6.700917781258693e+39
1580.5805805805805 6.648157491718653e+39
1590.5905905905906 6.594538690750509e+39
1600.6006006006005 6.540119584675224e+39
1610.6106106106106 6.484953838629877e+39
1620.6206206206207 6.429090697939958e+39
1630.6306306306305 6.372575104276461e+39
1640.6406406406406 6.315447806520557e+39
1650.6506506506507 6.25774546642074e+39
1660.6606606606606 6.199500759302493e+39
1670.6706706706707 6.140742470286839e+39
1680.6806806806808 6.08149558669593e+39
1690.6906906906906 6.021781387579881e+39
1700.7007007007007 5.961631859414648e+39
1710.7107107107108 5.901118146166892e+39
1720.7207207207207 5.8402434384681e+39
1730.7307307307308 5.779000758687457e+39
1740.7407407407409 5.717381131345844e+39
1750.7507507507507 5.655373621756237e+39
1760.7607607607606 5.59296539445242e+39
1770.770770770771 5.530141796776826e+39
1780.7807807807808 5.466886474068394e+39
1790.7907907907907 5.4031815241225245e+39
1800.8008008008007 5.339007699993776e+39
1810.8108108108108 5.2743446717758545e+39
1820.8208208208207 5.209171359707851e+39
1830.8308308308308 5.143466352785656e+39
1840.8408408408409 5.077208428939598e+39
1850.8508508508507 5.0103771946715746e+39
1860.8608608608608 4.942953863672282e+39
1870.870870870871 4.8749221951387294e+39
1880.8808808808808 4.806269612975578e+39
1890.890890890891 4.736988526380617e+39
1900.900900900901 4.667077869958088e+39
1910.9109109109108 4.596544876824605e+39
1920.920920920921 4.5254070904110524e+39
1930.930930930931 4.45369460898131e+39
1940.940940940941 4.3814525404438275e+39
1950.950950950951 4.308743623102325e+39
1960.960960960961 4.2356509401637454e+39
1970.970970970971 4.1622806222449984e+39
1980.980980980981 4.0887643938263457e+39
1990.9909909909911 4.015261778845323e+39
2001.001001001001 3.941961741200365e+39
2011.0110110110109 3.869083503327652e+39
2021.0210210210212 3.796876267306751e+39
2031.031031031031 3.725617566272233e+39
2041.0410410410411 3.655610007367833e+39
2051.051051051051 3.587176237530546e+39
2061.061061061061 3.520652072800195e+39
2071.071071071071 3.4563778776419434e+39
2081.081081081081 3.394688452726026e+39
2091.091091091091 3.335901869989497e+39
2101.101101101101 3.2803078588272593e+39
2111.1111111111113 3.2281564705100005e+39
2121.121121121121 3.179647805262242e+39
2131.131131131131 3.134923561345221e+39
2141.141141141141 3.094061053509201e+39
2151.151151151151 3.057070158978473e+39
2161.161161161161 3.023893405516206e+39
2171.1711711711714 2.994409150014496e+39
2181.1811811811813 2.968437542486384e+39
2191.191191191191 2.9457487609061253e+39
2201.201201201201 2.926072859862106e+39
2211.2112112112113 2.909110511357748e+39
2221.221221221221 2.8945439279014304e+39
2231.2312312312315 2.8820473344983883e+39
2241.2412412412414 2.8712964787184036e+39
2251.2512512512512 2.8619768153745824e+39
2261.261261261261 2.853790154237437e+39
2271.271271271271 2.8464596990948617e+39
2281.2812812812813 2.839733523028075e+39
2291.2912912912916 2.8333866121444047e+39
2301.3013013013015 2.8272216671312954e+39
2311.3113113113113 2.8210688814175644e+39
2321.321321321321 2.8147849212287474e+39
2331.331331331331 2.8082513221584336e+39
2341.3413413413414 2.8013724947901414e+39
2351.3513513513512 2.794073503469736e+39
2361.3613613613616 2.786297751613887e+39
2371.3713713713714 2.778004676908988e+39
2381.3813813813813 2.769167532342075e+39
2391.391391391391 2.759771305283828e+39
2401.4014014014015 2.749810807228835e+39
2411.4114114114113 2.739288951244389e+39
2421.4214214214217 2.7282152223518127e+39
2431.4314314314315 2.7166043374741393e+39
2441.4414414414414 2.7044750856847748e+39
2451.4514514514512 2.6918493357448797e+39
2461.4614614614616 2.6787511958308235e+39
2471.4714714714714 2.6652063095017753e+39
2481.4814814814818 2.6512412719880437e+39
2491.4914914914916 2.6368831515105112e+39
2501.5015015015015 2.622159101351148e+39
2511.5115115115113 2.6070960496192514e+39
2521.521521521521 2.591720454977703e+39
2531.5315315315315 2.5760581179240164e+39
2541.541541541542 2.5601340385059382e+39
2551.5515515515517 2.5439723125552765e+39
2561.5615615615616 2.5275960596266746e+39
2571.5715715715714 2.5110273768212584e+39
2581.5815815815813 2.4942873135568122e+39
2591.5915915915916 2.4773958631204763e+39
2601.6016016016015 2.4603719675132122e+39
2611.611611611612 2.4432335326762222e+39
2621.6216216216217 2.4259974516872027e+39
2631.6316316316315 2.408679633938094e+39
2641.6416416416414 2.391295038665031e+39
2651.6516516516517 2.3738577115036296e+39
2661.6616616616616 2.35638082299662e+39
2671.671671671672 2.3388767081927903e+39
2681.6816816816818 2.3213569066525956e+39
2691.6916916916916 2.3038322023218175e+39
2701.7017017017015 2.2863126628552282e+39
2711.711711711712 2.2688076780711494e+39
2721.7217217217217 2.2513259972987522e+39
2731.731731731732 2.2338757654457254e+39
2741.741741741742 2.21646455766726e+39
2751.7517517517517 2.1990994125600077e+39
2761.7617617617616 2.1817868638389263e+39
2771.7717717717715 2.1645329704818264e+39
2781.781781781782 2.1473433453476457e+39
2791.791791791792 2.1302231822907717e+39
2801.801801801802 2.1131772818060703e+39
2811.811811811812 2.0962100752485312e+39
2821.8218218218217 2.079325647677969e+39
2831.8318318318316 2.0625277593837376e+39
2841.841841841842 2.045819866147255e+39
2851.851851851852 2.0292051383016363e+39
2861.861861861862 2.012686478648156e+39
2871.871871871872 1.9962665392889617e+39
2881.881881881882 1.9799477374344345e+39
2891.8918918918916 1.963732270242172e+39
2901.901901901902 1.947622128742725e+39
2911.911911911912 1.9316191109052465e+39
2921.921921921922 1.9157248338939246e+39
2931.931931931932 1.8999407455638264e+39
2941.941941941942 1.8842681352423684e+39
2951.9519519519517 1.8687081438403043e+39
2961.961961961962 1.8532617733337426e+39
2971.971971971972 1.8379298956564094e+39
2981.9819819819822 1.8227132610391476e+39
2991.991991991992 1.8076125058314508e+39
3002.002002002002 1.7926281598377765e+39
3012.012012012012 1.7777606531993812e+39
3022.0220220220217 1.7630103228505146e+39
3032.032032032032 1.752563700102682e+39
3042.0420420420423 1.7375074510164324e+39
3052.052052052052 1.7224277447381586e+39
3062.062062062062 1.7073659527069605e+39
3072.072072072072 1.6923573387754718e+39
3082.0820820820823 1.6774317229114424e+39
3092.092092092092 1.6626140885952322e+39
3102.102102102102 1.6479251364724598e+39
3112.1121121121123 1.6333817872108446e+39
3122.122122122122 1.618997636740054e+39
3132.132132132132 1.6047833671597463e+39
3142.1421421421423 1.5907471166137998e+39
3152.152152152152 1.5768948113720456e+39
3162.162162162162 1.5632304632541878e+39
3172.1721721721724 1.549756435389261e+39
3182.1821821821823 1.5364736791401375e+39
3192.192192192192 1.5233819448455492e+39
3202.202202202202 1.5104799688491082e+39
3212.2122122122123 1.4977656391011334e+39
3222.222222222222 1.4852361414387942e+39
3232.232232232232 1.4728880884759647e+39
3242.2422422422424 1.460717632868141e+39
3252.252252252252 1.4487205665610462e+39
3262.262262262262 1.4368924074848894e+39
3272.2722722722724 1.425228475019898e+39
3282.2822822822823 1.4137239554327212e+39
3292.292292292292 1.4023739583673863e+39
3302.3023023023025 1.3911735653683222e+39
3312.3123123123123 1.3801178713160088e+39
3322.322322322322 1.369202019567611e+39
3332.3323323323325 1.3584212315148041e+39
3342.3423423423424 1.3477708311984834e+39
3352.352352352352 1.337246265554334e+39
3362.3623623623625 1.3268431208040588e+39
3372.3723723723724 1.3165571354535525e+39
3382.3823823823823 1.3063842103111509e+39
3392.3923923923926 1.296320415895817e+39
3402.4024024024025 1.2863619975660412e+39
3412.4124124124123 1.2765053786652489e+39
3422.4224224224226 1.2667471619479894e+39
3432.4324324324325 1.2570841295228843e+39
3442.4424424424424 1.247513241522865e+39
3452.4524524524522 1.2380316336904447e+39
3462.4624624624626 1.2286366140452092e+39
3472.4724724724724 1.2193256587823303e+39
3482.4824824824823 1.2100964075343088e+39
3492.4924924924926 1.2009466581133388e+39
3502.5025025025025 1.1918743608382686e+39
3512.5125125125123 1.1828776125381654e+39
3522.5225225225226 1.1739546503136791e+39
3532.5325325325325 1.165103845127696e+39
3542.5425425425424 1.1563236952880739e+39
3552.5525525525527 1.1476128198773729e+39
3562.5625625625626 1.1389699521774937e+39
3572.5725725725724 1.1303939331307613e+39
3582.5825825825827 1.121883704873345e+39
3592.5925925925926 1.1134383043717516e+39
3602.6026026026025 1.1050568571885926e+39
3612.612612612613 1.0967385713996717e+39
3622.6226226226227 1.0884827316807885e+39
3632.6326326326325 1.0802886935793349e+39
3642.642642642643 1.0721558779828327e+39
3652.6526526526527 1.0640837657939181e+39
3662.6626626626626 1.056071892818942e+39
3672.672672672673 1.0481198448752831e+39
3682.6826826826828 1.0402272531206222e+39
3692.6926926926926 1.0323937896057873e+39
3702.7027027027025 1.0246191630513656e+39
3712.712712712713 1.0169031148470073e+39
3722.7227227227227 1.009245415271268e+39
3732.7327327327325 1.0016458599288466e+39
3742.742742742743 9.941042664013213e+38
3752.7527527527527 9.86620471106722e+38
3762.7627627627626 9.791943263627351e+38
3772.772772772773 9.718256976478194e+38
3782.7827827827828 9.645144610541175e+38
3792.7927927927926 9.572605009257152e+38
3802.802802802803 9.500637076755646e+38
3812.812812812813 9.429239757741724e+38
3822.8228228228227 9.358412019030498e+38
3832.832832832833 9.288152832658227e+38
3842.842842842843 9.218461160498736e+38
3852.8528528528527 9.149335940313938e+38
3862.862862862863 9.080776073167586e+38
3872.872872872873 9.01278041213227e+38
3882.8828828828828 8.945347752220344e+38
3892.892892892893 8.87847682147131e+38
3902.902902902903 8.812166273128801e+38
3912.912912912913 8.746414678842685e+38
3922.922922922923 8.681220522833056e+38
3932.932932932933 8.616582196955091e+38
3942.942942942943 8.552497996605356e+38
3952.9529529529527 8.488966117412518e+38
3962.962962962963 8.425984652657473e+38
3972.972972972973 8.363551591369725e+38
3982.982982982983 8.301664817049464e+38
3992.992992992993 8.240322106966562e+38
4003.003003003003 8.179521131990313e+38
4013.013013013013 8.11925945690533e+38
4023.023023023023 8.059534541171746e+38
4033.033033033033 8.000343740089575e+38
4043.043043043043 7.941684306329298e+38
4053.053053053053 7.883553391792841e+38
4063.063063063063 7.825948049770942e+38
4073.073073073073 7.768865237364957e+38
4083.0830830830832 7.712301818143013e+38
4093.093093093093 7.656254565002204e+38
4103.103103103103 7.600720163210264e+38
4113.113113113113 7.545695213602003e+38
4123.123123123123 7.491176235907122e+38
4133.133133133133 7.43715967218799e+38
4143.143143143143 7.383641890367098e+38
4153.153153153153 7.330619187825625e+38
4163.163163163163 7.278087795055691e+38
4173.173173173173 7.226043879350447e+38
4183.183183183183 7.174483548517145e+38
4193.193193193193 7.123402854599672e+38
4203.203203203203 7.07279779759815e+38
4213.213213213214 7.022664329174232e+38
4223.223223223224 6.972998356331687e+38
4233.2332332332335 6.923795745062966e+38
4243.243243243243 6.875052323953202e+38
4253.253253253253 6.826763887734023e+38
4263.263263263263 6.7789262007802845e+38
4273.273273273273 6.731535000543717e+38
4283.283283283283 6.684586000917921e+38
4293.293293293293 6.638074895530171e+38
4303.303303303303 6.591997360955676e+38
4313.313313313313 6.546349059850944e+38
4323.323323323323 6.501125644003005e+38
4333.333333333334 6.456322757292137e+38
4343.343343343344 6.411936038565909e+38
4353.353353353354 6.367961124422876e+38
4363.3633633633635 6.324393651904742e+38
4373.373373373373 6.281229261095979e+38
4383.383383383383 6.2384635976304004e+38
4393.393393393393 6.196092315104387e+38
4403.403403403403 6.15411107739678e+38
4413.413413413413 6.112515560895659e+38
4423.423423423424 6.071301456632601e+38
4433.4334334334335 6.03046447232498e+38
4443.443443443443 5.990000334327315e+38
4453.453453453454 5.949904789492639e+38
4463.463463463464 5.910173606945212e+38
4473.473473473474 5.870802579765735e+38
4483.483483483484 5.831787526590766e+38
4493.493493493494 5.79312429312772e+38
4503.503503503503 5.754808753587229e+38
4513.513513513513 5.7168368120345695e+38
4523.523523523523 5.6792044036619345e+38
4533.533533533533 5.641907495983541e+38
4543.543543543543 5.60494208995534e+38
4553.553553553554 5.568304221021383e+38
4563.563563563564 5.531989960088841e+38
4573.573573573573 5.495995414433612e+38
4583.583583583584 5.460316728538608e+38
4593.593593593594 5.424950084866755e+38
4603.603603603604 5.3898917045706784e+38
4613.613613613614 5.355137848141217e+38
4623.623623623624 5.320684815996664e+38
4633.6336336336335 5.286528949014876e+38
4643.643643643643 5.252666629010177e+38
4653.653653653653 5.21909427915702e+38
4663.663663663663 5.1858083643624564e+38
4673.673673673674 5.1528053915892174e+38
4683.683683683684 5.12008191013146e+38
4693.693693693694 5.08763451184489e+38
4703.703703703704 5.055459831333228e+38
4713.713713713714 5.023554546092792e+38
4723.723723723724 4.991915376616911e+38
4733.733733733734 4.960539086461972e+38
4743.743743743744 4.929422482276781e+38
4753.753753753754 4.898562413796875e+38
4763.763763763764 4.867955773805409e+38
4773.773773773773 4.837599498062195e+38
4783.783783783783 4.807490565202471e+38
4793.793793793793 4.777625996606813e+38
4803.803803803804 4.748002856243719e+38
4813.813813813814 4.7186182504862596e+38
4823.823823823824 4.689469327904143e+38
4833.833833833834 4.660553279032563e+38
4843.843843843844 4.631867336119115e+38
4853.853853853854 4.603408772850012e+38
4863.863863863864 4.575174904056841e+38
4873.873873873874 4.5471630854050196e+38
4883.883883883884 4.519370713065094e+38
4893.893893893894 4.491795223367986e+38
4903.9039039039035 4.464434092445223e+38
4913.913913913913 4.437284835855204e+38
4923.923923923924 4.4103450081964645e+38
4933.933933933934 4.383612202708938e+38
4943.943943943944 4.357084050864043e+38
4953.953953953955 4.33075822194459e+38
4963.9639639639645 4.30463242261528e+38
4973.973973973974 4.2787043964846246e+38
4983.983983983984 4.25297192365911e+38
4993.993993993994 4.227432820290318e+38
5004.004004004004 4.202084938115746e+38
5014.014014014014 4.1769261639940355e+38
5024.024024024024 4.151954419435223e+38
5034.0340340340335 4.12716766012675e+38
5044.044044044043 4.102563875455716e+38
5054.054054054054 4.078141088028063e+38
5064.064064064064 4.053897353185218e+38
5074.074074074074 4.0298307585186844e+38
5084.084084084085 4.005939423383166e+38
5094.0940940940945 3.982221498408664e+38
5104.104104104104 3.958675165012002e+38
5114.114114114114 3.935298634908254e+38
5124.124124124124 3.912090149622485e+38
5134.134134134134 3.88904798000217e+38
5144.144144144144 3.8661704257307254e+38
5154.154154154154 3.843455814842461e+38
5164.1641641641645 3.820902503239336e+38
5174.174174174174 3.798508874209812e+38
5184.184184184184 3.776273337950105e+38
5194.194194194194 3.7541943310881554e+38
5204.204204204204 3.73227031621057e+38
5214.214214214214 3.7104997813927724e+38
5224.224224224225 3.688881239732624e+38
5234.2342342342345 3.667413228887767e+38
5244.244244244244 3.646094310616819e+38
5254.254254254254 3.624923070324719e+38
5264.264264264264 3.603898116612324e+38
5274.274274274274 3.583018080830496e+38
5284.284284284285 3.562281616638768e+38
5294.294294294295 3.541687399568822e+38
5304.304304304304 3.521234126592824e+38
5314.314314314314 3.500920515696828e+38
5324.324324324324 3.48074530545929e+38
5334.334334334334 3.4607072546348605e+38
5344.344344344345 3.440805141743495e+38
5354.354354354355 3.4210377646650254e+38
5364.3643643643645 3.4014039402392106e+38
5374.374374374374 3.381902503871395e+38
5384.384384384384 3.3625323091437814e+38
5394.394394394394 3.3432922274324153e+38
5404.404404404404 3.3241811475298927e+38
5414.414414414415 3.305197975273862e+38
5424.424424424425 3.2863416331813286e+38
5434.4344344344345 3.267611060088784e+38
5444.444444444444 3.249005210798199e+38
5454.454454454454 3.2305230557288955e+38
5464.464464464464 3.212163580575266e+38
5474.474474474475 3.193925785970398e+38
5484.484484484485 3.1758086871555563e+38
5494.494494494495 3.157811313655533e+38
5504.504504504504 3.1399327089598605e+38
5514.514514514514 3.1221719302098538e+38
5524.524524524524 3.1045280478914774e+38
5534.534534534535 3.0870001455339936e+38
5544.544544544545 3.069587319414389e+38
5554.554554554555 3.0522886782675144e+38
5564.5645645645645 3.035103343001933e+38
5574.574574574574 3.0180304464214242e+38
5584.584584584584 3.0010691329521043e+38
5594.594594594595 2.9842185583751008e+38
5604.604604604605 2.967477889564789e+38
5614.614614614615 2.9508463042324588e+38
5624.624624624625 2.9343229906754358e+38
5634.6346346346345 2.9179071475315682e+38
5644.644644644644 2.9015979835390084e+38
5654.654654654654 2.8853947173012787e+38
5664.664664664665 2.8692965770575023e+38
5674.674674674675 2.853302800457806e+38
5684.684684684685 2.8374126343437637e+38
5694.694694694695 2.8216253345338646e+38
5704.704704704704 2.8059401656139347e+38
5714.714714714714 2.790356400732416e+38
5724.724724724725 2.7748733214004758e+38
5734.734734734735 2.759490217296854e+38
5744.744744744745 2.744206386077381e+38
5754.754754754755 2.7290211331891102e+38
5764.764764764765 2.7139337716889753e+38
5774.774774774774 2.698943622066935e+38
5784.784784784785 2.684050012073477e+38
5794.794794794795 2.6692522765514887e+38
5804.804804804805 2.6545497572723402e+38
5814.814814814815 2.6399418027761693e+38
5824.824824824825 2.625427768216279e+38
5834.8348348348345 2.611007015207546e+38
5844.844844844845 2.596678911678833e+38
5854.854854854855 2.5824428317292517e+38
5864.864864864865 2.5682981554882774e+38
5874.874874874875 2.5542442689796034e+38
5884.884884884885 2.5402805639886652e+38
5894.894894894895 2.5264064379337887e+38
5904.9049049049045 2.512621293740857e+38
