#lamb flux
1000.0 0.00028080687163408585
1010.01001001001 0.0003161505135516631
1020.0200200200201 0.00035494210451250636
1030.03003003003 0.0003974077883825831
1040.0400400400401 0.00044377896700510433
1050.05005005005 0.0004942917692332898
1060.06006006006 0.0005491864920444863
1070.07007007007 0.000608707017015851
1080.08008008008 0.0006731002055319012
1090.0900900900901 0.0007426152761512566
1100.1001001001 0.0008175031675855683
1110.11011011011 0.0008980158907394803
1120.1201201201202 0.0009844058732286771
1130.13013013013 0.0010769252997355017
1140.1401401401401 0.0011758254514808246
1150.1501501501502 0.0012813560479886694
1160.16016016016 0.0013937645941995524
1170.1701701701702 0.0015132957358511144
1180.1801801801803 0.001640190625893606
1190.1901901901902 0.001774686304544548
1200.2002002002002 0.0019170150954145417
1210.2102102102103 0.0020674040199558587
1220.2202202202202 0.0022260742323001077
1230.2302302302303 0.002393240476362096
1240.2402402402402 0.0025691105668959233
1250.2502502502502 0.002753884727136182
1260.2602602602603 0.0029477548874159844
1270.2702702702702 0.0031509040448193686
1280.2802802802803 0.0033635073144260364
1290.2902902902902 0.0035857306718144574
1300.3003003003003 0.003817730602920818
1310.3103103103103 0.004059653784535088
1320.3203203203202 0.004311636795688941
1330.3303303303303 0.004573805860039479
1340.3403403403404 0.00484627661920933
1350.3503503503503 0.005129153936909754
1360.3603603603603 0.005422531733548058
1370.3703703703704 0.005726492850904008
1380.3803803803803 0.0060411089463533315
1390.3903903903904 0.006366440416018159
1400.4004004004005 0.006702536346135152
1410.4104104104103 0.007049434491852396
1420.4204204204204 0.007407161282594829
1430.4304304304305 0.00777573185307482
1440.4404404404404 0.00815515009897056
1450.4504504504505 0.008545408756247767
1460.4604604604606 0.008946489503061634
1470.4704704704704 0.009358363083143802
1480.4804804804805 0.009780989449554576
1490.4904904904906 0.010214317927661786
1500.5005005005005 0.010658287396195598
1510.5105105105106 0.011112826485222235
1520.5205205205207 0.011577853789877371
1530.5305305305305 0.012053278098704536
1540.5405405405404 0.012538998635451245
1550.5505505505505 0.013034905313188213
1560.5605605605606 0.013540878999632723
1570.5705705705705 0.014056791792576757
1580.5805805805805 0.014582507304343083
1590.5905905905906 0.015117880954217417
1600.6006006006005 0.015662760267832213
1610.6106106106106 0.016216985182508387
1620.6206206206207 0.016780388357590933
1630.6306306306305 0.017352795488849517
1640.6406406406406 0.01793402562604846
1650.6506506506507 0.01852389149282594
1660.6606606606606 0.019122199808060035
1670.6706706706707 0.019728751607935382
1680.6806806806808 0.02034334256796279
1690.6906906906906 0.02096576332424352
1700.7007007007007 0.021595799861699773
1710.7107107107108 0.022233233986373693
1720.7207207207207 0.0228778431301652
1730.7307307307308 0.023529400910223836
1740.7407407407409 0.02418767747470367
1750.7507507507507 0.02485243980699231
1760.7607607607606 0.02552345202537628
1770.770770770771 0.02620047567777761
1780.7807807807808 0.02688327003124763
1790.7907907907907 0.027571592355960763
1800.8008008008007 0.028265198203510394
1810.8108108108108 0.02896384167937743
1820.8208208208207 0.029667275709515873
1830.8308308308308 0.030375252301082387
1840.8408408408409 0.03108752279743083
1850.8508508508507 0.03180383812759624
1860.8608608608608 0.032523949050608146
1870.870870870871 0.033247606395102665
1880.8808808808808 0.03397456129483756
1890.890890890891 0.03470456542086233
1900.900900900901 0.03543737121123761
1910.9109109109108 0.03617273209933647
1920.920920920921 0.036910402741868416
1930.930930930931 0.037650139247831484
1940.940940940941 0.03839169940958463
1950.950950950951 0.03913484293710414
1960.960960960961 0.03987933169619777
1970.970970970971 0.04062492995095217
1980.980980980981 0.04137140460992257
1990.9909909909911 0.042118525474506036
2001.001001001001 0.04286606548654549
2011.0110110110109 0.04361380097051356
2021.0210210210212 0.044361511863708264
2031.031031031031 0.0451089819259258
2041.0410410410411 0.04585599891830513
2051.051051051051 0.0466023547398472
2061.061061061061 0.04734784550987563
2071.071071071071 0.048092271585883285
2081.081081081081 0.04883543750908994
2091.091091091091 0.04957715187476058
2101.101101101101 0.05031722713067024
2111.1111111111113 0.05105547931447893
2121.121121121121 0.05179172774820852
2131.131131131131 0.05252579471429954
2141.141141141141 0.05325750514163803
2151.151151151151 0.05398668633053893
2161.161161161161 0.05471316774254636
2171.1711711711714 0.05543678087435962
2181.1811811811813 0.05615735922617546
2191.191191191191 0.056874738364692784
2201.201201201201 0.057588756071535296
2211.2112112112113 0.058299252560277494
2221.221221221221 0.059006070740504374
2231.2312312312315 0.059709056505694816
2241.2412412412414 0.060408059022897295
2251.2512512512512 0.061102931005503756
2261.261261261261 0.06179352895503673
2271.271271271271 0.062479713362887775
2281.2812812812813 0.06316134886768719
2291.2912912912916 0.06383830436796474
2301.3013013013015 0.06451045309275649
2311.3113113113113 0.06517767263478563
2321.321321321321 0.06583984495189732
2331.331331331331 0.06649685634274483
2341.3413413413414 0.06714859740250348
2351.3513513513512 0.06779496296382727
2361.3613613613616 0.06843585202751856
2371.3713713713714 0.06907116768657642
2381.3813813813813 0.06970081704651025
2391.391391391391 0.07032471114409919
2401.4014014014015 0.07094276486617218
2411.4114114114113 0.07155489686948742
2421.4214214214217 0.0721610295023967
2431.4314314314315 0.07276108872868053
2441.4414414414414 0.07335500405371942
2451.4514514514512 0.07394270845301301
2461.4614614614616 0.074524138302954
2471.4714714714714 0.07509923331369985
2481.4814814814818 0.07566793646395295
2491.4914914914916 0.0762301939374418
2501.5015015015015 0.07678595506090173
2511.5115115115113 0.07733517224336035
2521.521521521521 0.07787780091654944
2531.5315315315315 0.07841379947628814
2541.541541541542 0.07894312922469557
2551.5515515515517 0.07946575431312017
2561.5615615615616 0.07998164168568282
2571.5715715715714 0.08049076102335827
2581.5815815815813 0.08099308468852692
2591.5915915915916 0.08148858766994982
2601.6016016016015 0.08197724752812903
2611.611611611612 0.08245904434102594
2621.6216216216217 0.08293396065012199
2631.6316316316315 0.0834019814068099
2641.6416416416414 0.08386309391911528
2651.6516516516517 0.08431728779874698
2661.6616616616616 0.08476455490848589
2671.671671671672 0.0852048893099188
2681.6816816816818 0.08563828721153147
2691.6916916916916 0.08606474691717407
2701.7017017017015 0.0864842687749148
2711.711711711712 0.08689685512629748
2721.7217217217217 0.0873025102560215
2731.731731731732 0.08770124034205974
2741.741741741742 0.08809305340623311
2751.7517517517517 0.08847795926525756
2761.7617617617616 0.08885596948228185
2771.7717717717715 0.0892270973189299
2781.781781781782 0.08959135768786529
2791.791791791792 0.08994876710589218
2801.801801801802 0.09029934364760574
2811.811811811812 0.09064310689960622
2821.8218218218217 0.09098007791528864
2831.8318318318316 0.09131027917021992
2841.841841841842 0.0916337345181129
2851.851851851852 0.09195046914740866
2861.861861861862 0.09226050953847424
2871.871871871872 0.09256388342142452
2881.881881881882 0.09286061973457575
2891.8918918918916 0.09315074858353589
2901.901901901902 0.09343430120093789
2911.911911911912 0.09371130990682015
2921.921921921922 0.09398180806965878
2931.931931931932 0.09424583006805391
2941.941941941942 0.09450341125307274
2951.9519519519517 0.09475458791125127
2961.961961961962 0.09499939722825583
2971.971971971972 0.09523787725320416
2981.9819819819822 0.09547006686364719
2991.991991991992 0.09569600573120943
3002.002002002002 0.09591573428788774
3012.012012012012 0.09612929369300632
3022.0220220220217 0.09633672580082532
3032.032032032032 0.09653837734977173
3042.0420420420423 0.09673364653402605
3052.052052052052 0.09692290655485117
3062.062062062062 0.09710620449351677
3072.072072072072 0.09728358764348555
3082.0820820820823 0.09745510351104307
3092.092092092092 0.09762079981442348
3102.102102102102 0.09778072448155849
3112.1121121121123 0.0979349256465747
3122.122122122122 0.09808345164515272
3132.132132132132 0.098226351008858
3142.1421421421423 0.09836367245854236
3152.152152152152 0.09849546489691219
3162.162162162162 0.09862177740035215
3172.1721721721724 0.09874265921008549
3182.1821821821823 0.09885815972275024
3192.192192192192 0.09896832848046098
3202.202202202202 0.09907321516042539
3212.2122122122123 0.09917286956417669
3222.222222222222 0.0992673416064802
3232.232232232232 0.09935668130396813
3242.2422422422424 0.09944093876355307
3252.252252252252 0.09952016417066498
3262.262262262262 0.09959440777735637
3272.2722722722724 0.09966371989031388
3282.2822822822823 0.0997281508588134
3292.292292292292 0.09978775106265207
3302.3023023023025 0.0998425709000886
3312.3123123123123 0.099892660775819
3322.322322322322 0.09993807108901524
3332.3323323323325 0.09997885222144944
3342.3423423423424 0.10001505452572564
3352.352352352352 0.100046728313638
3362.3623623623625 0.1000739238446751
3372.3723723723724 0.10009669131468357
3382.3823823823823 0.10011508084470792
3392.3923923923926 0.10012914247001799
3402.4024024024025 0.10013892612933595
3412.4124124124123 0.10014448165427321
3422.4224224224226 0.1001458587589857
3432.4324324324325 0.10014310703005562
3442.4424424424424 0.10013627591660604
3452.4524524524522 0.10012541472065435
3462.4624624624626 0.10011057258770958
3472.4724724724724 0.10009179849761615
3482.4824824824823 0.10006914125564934
3492.4924924924926 0.10004264948386307
3502.5025025025025 0.10001237161269219
3512.5125125125123 0.0999783558728114
3522.5225225225226 0.09994065028724942
3532.5325325325325 0.09989930266375997
3542.5425425425424 0.09985436058744832
3552.5525525525527 0.09980587141365271
3562.5625625625626 0.09975388226107966
3572.5725725725724 0.09969844000518989
3582.5825825825827 0.0996395912718348
3592.5925925925926 0.09957738243114016
3602.6026026026025 0.09951185959163328
3612.612612612613 0.09944306859461421
3622.6226226226227 0.09937105500876225
3632.6326326326325 0.09929586412498063
3642.642642642643 0.09921754095147117
3652.6526526526527 0.09913613020903737
3662.6626626626626 0.09905167632661127
3672.672672672673 0.09896422343700229
3682.6826826826828 0.09887381537285903
3692.6926926926926 0.0987804956628467
3702.7027027027025 0.0986843075280299
3712.712712712713 0.09858529387845957
3722.7227227227227 0.09848349730996056
3732.7327327327325 0.09837896010111144
3742.742742742743 0.09827172421041784
3752.7527527527527 0.0981618312736695
3762.7627627627626 0.0980493226014805
3772.772772772773 0.09793423917700622
3782.7827827827828 0.09781662165383342
3792.7927927927926 0.09769651035403837
3802.802802802803 0.0975739452664103
3812.812812812813 0.09744896604483373
3822.8228228228227 0.0973216120068261
3832.832832832833 0.09719192213222813
3842.842842842843 0.09705993506203953
3852.8528528528527 0.09692568909739932
3862.862862862863 0.09678922219870309
3872.872872872873 0.09665057198485727
3882.8828828828828 0.096509775732661
3892.892892892893 0.0963668703763185
3902.902902902903 0.09622189250707106
3912.912912912913 0.09607487837294953
3922.922922922923 0.0959258638786424
3932.932932932933 0.09577488458547426
3942.942942942943 0.0956219757114931
3952.9529529529527 0.09546717213166162
3962.962962962963 0.09531050837814922
3972.972972972973 0.09515201864072179
3982.982982982983 0.09499173676722535
3992.992992992993 0.09482969626415948
4003.003003003003 0.09466593029734054
4013.013013013013 0.09450047169264658
4023.023023023023 0.0943333529368456
4033.033033033033 0.09416460617850071
4043.043043043043 0.09399426322895126
4053.053053053053 0.09382235556336611
4063.063063063063 0.09364891432186684
4073.073073073073 0.09347397031071726
4083.0830830830832 0.09329755400357743
4093.093093093093 0.09311969554281939
4103.103103103103 0.09294042474090106
4113.113113113113 0.09275977108179846
4123.123123123123 0.09257776372248963
4133.133133133133 0.09239443149449242
4143.143143143143 0.09220980290545008
4153.153153153153 0.0920239061407656
4163.163163163163 0.09183676906527977
4173.173173173173 0.09164841922499294
4183.183183183183 0.09145888384882751
4193.193193193193 0.09126818985042882
4203.203203203203 0.0910763638300037
4213.213213213214 0.09088343207619355
4223.223223223224 0.09068942056798097
4233.2332332332335 0.090494354976627
4243.243243243243 0.09029826066763967
4253.253253253253 0.09010116270276837
4263.263263263263 0.08990308584202657
4273.273273273273 0.08970405454573817
4283.283283283283 0.08950409297660743
4293.293293293293 0.08930322500181088
4303.303303303303 0.08910147419510907
4313.313313313313 0.08889886383897794
4323.323323323323 0.08869541692675668
4333.333333333334 0.08849115616481341
4343.343343343344 0.08828610397472399
4353.353353353354 0.08808028249546644
4363.3633633633635 0.08787371358562628
4373.373373373373 0.08766641882561488
4383.383383383383 0.08745841951989625
4393.393393393393 0.08724973669922495
4403.403403403403 0.08704039112289101
4413.413413413413 0.08683040328097208
4423.423423423424 0.08661979339659248
4433.4334334334335 0.08640858142818658
4443.443443443443 0.0861967870717673
4453.453453453454 0.08598442976319752
4463.463463463464 0.08577152868046478
4473.473473473474 0.08555810274595695
4483.483483483484 0.08534417062873964
4493.493493493494 0.0851297507468334
4503.503503503503 0.08491486126949063
4513.513513513513 0.08469952011947172
4523.523523523523 0.08448374497531837
4533.533533533533 0.08426755327362546
4543.543543543543 0.08405096221130906
4553.553553553554 0.08383398874787093
4563.563563563564 0.08361664960765894
4573.573573573573 0.0833989612821221
4583.583583583584 0.0831809400320607
4593.593593593594 0.08296260188987023
4603.603603603604 0.08274396266177866
4613.613613613614 0.08252503793007764
4623.623623623624 0.08230584305534511
4633.6336336336335 0.08208639317866114
4643.643643643643 0.08186670322381537
4653.653653653653 0.08164678789950518
4663.663663663663 0.08142666170152574
4673.673673673674 0.08120633891495
4683.683683683684 0.08098583361629959
4693.693693693694 0.08076515967570504
4703.703703703704 0.08054433075905608
4713.713713713714 0.08032336033014116
4723.723723723724 0.08010226165277594
4733.733733733734 0.07988104779292043
4743.743743743744 0.07965973162078506
4753.753753753754 0.07943832581292454
4763.763763763764 0.07921684285432017
4773.773773773773 0.07899529504044919
4783.783783783783 0.07877369447934292
4793.793793793793 0.07855205309363122
4803.803803803804 0.07833038262257448
4813.813813813814 0.07810869462408286
4823.823823823824 0.07788700047672222
4833.833833833834 0.07766531138170656
4843.843843843844 0.07744363836487748
4853.853853853854 0.07722199227866944
4863.863863863864 0.07700038380406188
4873.873873873874 0.07677882345251719
4883.883883883884 0.07655732156790467
4893.893893893894 0.0763358883284109
4903.9039039039035 0.07611453374843534
4913.913913913913 0.07589326768047232
4923.923923923924 0.07567209981697805
4933.933933933934 0.07545103969222422
4943.943943943944 0.07523009668413591
4953.953953953955 0.07500928001611627
4963.9639639639645 0.07478859875885581
4973.973973973974 0.07456806183212727
4983.983983983984 0.07434767800656625
4993.993993993994 0.07412745590543672
5004.004004004004 0.07390740400638199
5014.014014014014 0.07368753064316116
5024.024024024024 0.07346784400737057
5034.0340340340335 0.07324835215015073
5044.044044044043 0.07302906298387846
5054.054054054054 0.07280998428384418
5064.064064064064 0.07259112368991483
5074.074074074074 0.07237248870818148
5084.084084084085 0.07215408671259263
5094.0940940940945 0.0719359249465731
5104.104104104104 0.07171801052462738
5114.114114114114 0.07150035043392937
5124.124124124124 0.07128295153589642
5134.134134134134 0.07106582056775004
5144.144144144144 0.07084896414406064
5154.154154154154 0.07063238875827922
5164.1641641641645 0.07041610078425327
5174.174174174174 0.07020010647772916
5184.184184184184 0.06998441197783985
5194.194194194194 0.06976902330857798
5204.204204204204 0.06955394638025529
5214.214214214214 0.06933918699094734
5224.224224224225 0.06912475082792406
5234.2342342342345 0.0689106434690668
5244.244244244244 0.06869687038427034
5254.254254254254 0.06848343693683204
5264.264264264264 0.06827034838482596
5274.274274274274 0.06805760988246419
5284.284284284285 0.06784522648144366
5294.294294294295 0.06763320313227958
5304.304304304304 0.0674215446856251
5314.314314314314 0.06721025589357776
5324.324324324324 0.06699934141097177
5334.334334334334 0.0667888057966578
5344.344344344345 0.06657865351476867
5354.354354354355 0.06636888893597223
5364.3643643643645 0.06615951633871085
5374.374374374374 0.06595053991042822
5384.384384384384 0.0657419637487826
5394.394394394394 0.06553379186284757
5404.404404404404 0.06532602817429992
5414.414414414415 0.06511867651859443
5424.424424424425 0.06491174064612691
5434.4344344344345 0.06470522422338339
5444.444444444444 0.06449913083407784
5454.454454454454 0.0642934639802773
5464.464464464464 0.06408822708351436
5474.474474474475 0.06388342348588788
5484.484484484485 0.06367905645115132
5494.494494494495 0.06347512916578912
5504.504504504504 0.06327164474008137
5514.514514514514 0.063068606209156
5524.524524524524 0.06286601653403015
5534.534534534535 0.0626638786026392
5544.544544544545 0.062462195230854466
5554.554554554555 0.06226096916348941
5564.5645645645645 0.0620602030752945
5574.574574574574 0.06185989957194088
5584.584584584584 0.06166006119099269
5594.594594594595 0.06146069040286812
5604.604604604605 0.06126178961179027
5614.614614614615 0.061063361156726094
5624.624624624625 0.06086540731231502
5634.6346346346345 0.060667930289787175
5644.644644644644 0.06047093223787017
5654.654654654654 0.060274415243686257
5664.664664664665 0.060078381333638194
5674.674674674675 0.0598828324742857
5684.684684684685 0.05968777057321062
5694.694694694695 0.059493197479872834
5704.704704704704 0.059299114986455626
5714.714714714714 0.059105524828701204
5724.724724724725 0.058912428686736226
5734.734734734735 0.05871982818588781
5744.744744744745 0.05852772489748962
5754.754754754755 0.05833612033967821
5764.764764764765 0.058145015978180406
5774.774774774774 0.057954413227090634
5784.784784784785 0.05776431344963927
5794.794794794795 0.057574717958951714
5804.804804804805 0.05738562801879817
5814.814814814815 0.05719704484433442
5824.824824824825 0.05700896960283396
5834.8348348348345 0.05682140341441041
5844.844844844845 0.056634347352732164
5854.854854854855 0.056447802445727585
5864.864864864865 0.056261769676281694
5874.874874874875 0.056076249982924674
5884.884884884885 0.05589124426051155
5894.894894894895 0.05570675336089361
5904.9049049049045 0.05552277809358154
5914.914914914915 0.05533931922640054
5924.924924924925 0.055156377486137
5934.934934934935 0.054973953559177245
5944.944944944945 0.05479204809213874
5954.954954954955 0.05461066169249265
5964.964964964965 0.05442979492917929
5974.974974974975 0.05424944833321561
5984.984984984985 0.054069622398295054
5994.994994994995 0.05389031758137989
6005.005005005005 0.053711534303286054
6015.015015015015 0.053533272949260705
6025.025025025025 0.053355533869552406
6035.035035035035 0.05317831737997397
6045.045045045045 0.05300162376245851
6055.055055055055 0.05282545326560796
6065.065065065065 0.0526498061052348
6075.075075075075 0.052474682464897074
6085.085085085085 0.05230008249642621
6095.0950950950955 0.052126006320448254
6105.105105105105 0.05195245402689834
6115.115115115115 0.05177942567552867
6125.125125125125 0.05160692129640976
6135.135135135135 0.05143494089042532
6145.145145145145 0.05126348442976067
6155.155155155155 0.05109255185838488
6165.1651651651655 0.05092214309252652
6175.175175175175 0.0507522580211435
6185.185185185185 0.0505828965063863
