#lamb flux
1000.0 1.1735920380707288e+40
1010.01001001001 1.177830724852918e+40
1020.0200200200201 1.181372978963831e+40
1030.03003003003 1.1842447565917385e+40
1040.0400400400401 1.1864718034815822e+40
1050.05005005005 1.1880795843483893e+40
1060.06006006006 1.1890932214446317e+40
1070.07007007007 1.1895374414803942e+40
1080.08008008008 1.1894365301470072e+40
1090.0900900900901 1.1888142935454215e+40
1100.1001001001 1.1876940258697595e+40
1110.11011011011 1.1860984827437959e+40
1120.1201201201202 1.1840498596533245e+40
1130.13013013013 1.1815697749604315e+40
1140.1401401401401 1.1786792570263776e+40
1150.1501501501502 1.1753987350082013e+40
1160.16016016016 1.171748032930156e+40
1170.1701701701702 1.1677463666648327e+40
1180.1801801801803 1.1634123434903377e+40
1190.1901901901902 1.1587639639190715e+40
1200.2002002002002 1.153818625520984e+40
1210.2102102102103 1.1485931284892695e+40
1220.2202202202202 1.1431036827198262e+40
1230.2302302302303 1.1373659161972399e+40
1240.2402402402402 1.1313948844999212e+40
1250.2502502502502 1.1252028484701374e+40
1260.2602602602603 1.118797197060145e+40
1270.2702702702702 1.112179756889229e+40
1280.2802802802803 1.1053643274072651e+40
1290.2902902902902 1.0983641898202167e+40
1300.3003003003003 1.091192117109213e+40
1310.3103103103103 1.0838603846465094e+40
1320.3203203203202 1.0763807813038007e+40
1330.3303303303303 1.0687646209585258e+40
1340.3403403403404 1.0610227543129563e+40
1350.3503503503503 1.0531655809494762e+40
1360.3603603603603 1.0452030615532558e+40
1370.3703703703704 1.0371447302407629e+40
1380.3803803803803 1.0289997069391429e+40
1390.3903903903904 1.0207767097675746e+40
1400.4004004004005 1.0124840673772125e+40
1410.4104104104103 1.0041297312114244e+40
1420.4204204204204 9.957212876526047e+39
1430.4304304304305 9.872659700260502e+39
1440.4404404404404 9.787706704352215e+39
1450.4504504504505 9.702419514061278e+39
1460.4604604604606 9.616860573217728e+39
1470.4704704704704 9.531089256303569e+39
1480.4804804804805 9.44516197813578e+39
1490.4904904904906 9.359132301036093e+39
1500.5005005005005 9.27305103939444e+39
1510.5105105105106 9.186966361551651e+39
1520.5205205205207 9.100923888943554e+39
1530.5305305305305 9.014966792463614e+39
1540.5405405405404 8.929135886014764e+39
1550.5505505505505 8.84346971723291e+39
1560.5605605605606 8.758004655375339e+39
1570.5705705705705 8.672774976376905e+39
1580.5805805805805 8.587812945085359e+39
1590.5905905905906 8.503148894695154e+39
1600.6006006006005 8.418811303406053e+39
1610.6106106106106 8.334826868339681e+39
1620.6206206206207 8.251220576753351e+39
1630.6306306306305 8.168015774596812e+39
1640.6406406406406 8.085234232463695e+39
1650.6506506506507 8.002896208996175e+39
1660.6606606606606 7.92102051180835e+39
1670.6706706706707 7.839624556001888e+39
1680.6806806806808 7.758724420356798e+39
1690.6906906906906 7.678334901291005e+39
1700.7007007007007 7.598470343424184e+39
1710.7107107107108 7.519146229373867e+39
1720.7207207207207 7.440373403136102e+39
1730.7307307307308 7.362161255083305e+39
1740.7407407407409 7.284518204538764e+39
1750.7507507507507 7.207451738400923e+39
1760.7607607607606 7.130968449056846e+39
1770.770770770771 7.055074071889414e+39
1780.7807807807808 6.979773522743773e+39
1790.7907907907907 6.90507093579175e+39
1800.8008008008007 6.830969702318368e+39
1810.8108108108108 6.757472511055058e+39
1820.8208208208207 6.684581390799259e+39
1830.8308308308308 6.612297756191539e+39
1840.8408408408409 6.540622457666535e+39
1850.8508508508507 6.469555836752185e+39
1860.8608608608608 6.39909778805605e+39
1870.870870870871 6.329247829440259e+39
1880.8808808808808 6.26000518203312e+39
1890.890890890891 6.191368861835583e+39
1900.900900900901 6.123337784725065e+39
1910.9109109109108 6.055910886598561e+39
1920.920920920921 5.989087260180106e+39
1930.930930930931 5.922866309580834e+39
1940.940940940941 5.857247922968474e+39
1950.950950950951 5.79223266259419e+39
1960.960960960961 5.72782196985753e+39
1970.970970970971 5.664018380997905e+39
1980.980980980981 5.600825746354303e+39
1990.9909909909911 5.538249442969081e+39
2001.001001001001 5.47629656676436e+39
2011.0110110110109 5.41497608686511e+39
2021.0210210210212 5.354298941326228e+39
2031.031031031031 5.2942780511636323e+39
2041.0410410410411 5.234928228966147e+39
2051.051051051051 5.17626596031862e+39
2061.061061061061 5.11830904155981e+39
2071.071071071071 5.061076066505437e+39
2081.081081081081 5.0045857676269914e+39
2091.091091091091 4.948856232982958e+39
2101.101101101101 4.893904037287087e+39
2111.1111111111113 4.8397433414355425e+39
2121.121121121121 4.7863850267329774e+39
2131.131131131131 4.733835935214189e+39
2141.141141141141 4.682098283917654e+39
2151.151151151151 4.6311693082123795e+39
2161.161161161161 4.581041168541928e+39
2171.1711711711714 4.5317011291074214e+39
2181.1811811811813 4.483131990032508e+39
2191.191191191191 4.435312730625782e+39
2201.201201201201 4.38821930396054e+39
2211.2112112112113 4.341825514188314e+39
2221.221221221221 4.2961039081316544e+39
2231.2312312312315 4.25102662053026e+39
2241.2412412412414 4.2065661255310975e+39
2251.2512512512512 4.162695862874415e+39
2261.261261261261 4.1193907231628036e+39
2271.271271271271 4.076627390629972e+39
2281.2812812812813 4.0343845527514e+39
2291.2912912912916 3.9926429934202374e+39
2301.3013013013015 3.9513855904114275e+39
2311.3113113113113 3.9105972390237913e+39
2321.321321321321 3.8702647228497106e+39
2331.331331331331 3.83037655031446e+39
2341.3413413413414 3.790922772599828e+39
2351.3513513513512 3.751894795322267e+39
2361.3613613613616 3.7132851932250934e+39
2371.3713713713714 3.6750875343790195e+39
2381.3813813813813 3.6372962180678457e+39
2391.391391391391 3.5999063286907596e+39
2401.4014014014015 3.5629135066118465e+39
2411.4114114114113 3.526313835877134e+39
2421.4214214214217 3.490103748032824e+39
2431.4314314314315 3.454279940848395e+39
2441.4414414414414 3.418839310513225e+39
2451.4514514514512 3.383778895782538e+39
2461.4614614614616 3.349095832554218e+39
2471.4714714714714 3.3147873174288766e+39
2481.4814814814818 3.280850578915251e+39
2491.4914914914916 3.247282855073409e+39
2501.5015015015015 3.214081376525638e+39
2511.5115115115113 3.181243353900817e+39
2521.521521521521 3.148765968906818e+39
2531.5315315315315 3.116646368343615e+39
2541.541541541542 3.084881660476226e+39
2551.5515515515517 3.0534689132803226e+39
2561.5615615615616 3.0224051541551216e+39
2571.5715715715714 2.991687370768678e+39
2581.5815815815813 2.9613125127605714e+39
2591.5915915915916 2.9312774940779486e+39
2601.6016016016015 2.9015791957634736e+39
2611.611611611612 2.8722144690494195e+39
2621.6216216216217 2.843180138641735e+39
2631.6316316316315 2.8144730061022925e+39
2641.6416416416414 2.786089853257678e+39
2651.6516516516517 2.758027445579212e+39
2661.6616616616616 2.730282535492271e+39
2671.671671671672 2.702851865583777e+39
2681.6816816816818 2.6757321716854197e+39
2691.6916916916916 2.648920185817068e+39
2701.7017017017015 2.6224126389804328e+39
2711.711711711712 2.5962062637973094e+39
2721.7217217217217 2.5702977969901976e+39
2731.731731731732 2.544683981705606e+39
2741.741741741742 2.5193615696824998e+39
2751.7517517517517 2.4943273232696585e+39
2761.7617617617616 2.4695780172969416e+39
2771.7717717717715 2.4451104408061147e+39
2781.781781781782 2.4209213986474265e+39
2791.791791791792 2.397007712948459e+39
2801.801801801802 2.373366224461834e+39
2811.811811811812 2.3499937937984596e+39
2821.8218218218217 2.326887302552875e+39
2831.8318318318316 2.304043654327133e+39
2841.841841841842 2.2814597756594552e+39
2851.851851851852 2.2591326168636828e+39
2861.861861861862 2.237059152785258e+39
2871.871871871872 2.2152363834792382e+39
2881.881881881882 2.193661334815559e+39
2891.8918918918916 2.172331059016473e+39
2901.901901901902 2.1512426351308253e+39
2911.911911911912 2.130393169449554e+39
2921.921921921922 2.109779795866534e+39
2931.931931931932 2.089399676188662e+39
2941.941941941942 2.0692500003987708e+39
2951.9519519519517 2.0493279868748116e+39
2961.961961961962 2.029630882568454e+39
2971.971971971972 2.0101559631460915e+39
2981.9819819819822 1.9909005330950103e+39
2991.991991991992 1.9718619257973306e+39
3002.002002002002 1.9530375035741057e+39
3012.012012012012 1.9344246577018646e+39
3022.0220220220217 1.9160208084036727e+39
3032.032032032032 1.8980169562645883e+39
3042.0420420420423 1.8799982893439724e+39
3052.052052052052 1.8621746017068476e+39
3062.062062062062 1.844545347445252e+39
3072.072072072072 1.8271097238250034e+39
3082.0820820820823 1.8098667036826863e+39
3092.092092092092 1.7928150646038953e+39
3102.102102102102 1.775953415171124e+39
3112.1121121121123 1.7592802185460067e+39
3122.122122122122 1.742793813628449e+39
3132.132132132132 1.7264924340148478e+39
3142.1421421421423 1.7103742249587315e+39
3152.152152152152 1.6944372585197715e+39
3162.162162162162 1.6786795470710588e+39
3172.1721721721724 1.6630990553198598e+39
3182.1821821821823 1.6476937109834436e+39
3192.192192192192 1.6324614142491612e+39
3202.202202202202 1.6174000461364975e+39
3212.2122122122123 1.6025074758683718e+39
3222.222222222222 1.5877815673493062e+39
3232.232232232232 1.5732201848393174e+39
3242.2422422422424 1.5588211979043257e+39
3252.252252252252 1.5445824857165035e+39
3262.262262262262 1.5305019407712415e+39
3272.2722722722724 1.516577472081278e+39
3282.2822822822823 1.5028070079028945e+39
3292.292292292292 1.489188498043954e+39
3302.3023023023025 1.4757199157988867e+39
3312.3123123123123 1.4623992595514303e+39
3322.322322322322 1.4492245540820845e+39
3332.3323323323325 1.436193851613621e+39
3342.3423423423424 1.423305232624852e+39
3352.352352352352 1.4105568064598032e+39
3362.3623623623625 1.3979467117568896e+39
3372.3723723723724 1.3854731167201405e+39
3382.3823823823823 1.3731342192523633e+39
3392.3923923923926 1.360928246968146e+39
3402.4024024024025 1.3488534571027025e+39
3412.4124124124123 1.3369081363309608e+39
3422.4224224224226 1.3250906005097734e+39
3432.4324324324325 1.3133991943547654e+39
3442.4424424424424 1.3018322910620809e+39
3452.4524524524522 1.2903882918842003e+39
3462.4624624624626 1.2790656256679618e+39
3472.4724724724724 1.267862748362026e+39
3482.4824824824823 1.2567781425001535e+39
3492.4924924924926 1.2458103166659761e+39
3502.5025025025025 1.2349578049442206e+39
3512.5125125125123 1.2242191663627458e+39
3522.5225225225226 1.2135929843292294e+39
3532.5325325325325 1.203077866065812e+39
3542.5425425425424 1.1926724420445944e+39
3552.5525525525527 1.1823753654264722e+39
3562.5625625625626 1.1721853115054377e+39
3572.5725725725724 1.1621009771601563e+39
3582.5825825825827 1.1521210803143605e+39
3592.5925925925926 1.1422443594073185e+39
3602.6026026026025 1.1324695728754411e+39
3612.612612612613 1.1227954986458698e+39
3622.6226226226227 1.1132209336427159e+39
3632.6326326326325 1.103744693306461e+39
3642.642642642643 1.094365611126915e+39
3652.6526526526527 1.0850825381899597e+39
3662.6626626626626 1.0758943427382382e+39
3672.672672672673 1.0667999097458525e+39
3682.6826826826828 1.0577981405070332e+39
3692.6926926926926 1.0488879522386905e+39
3702.7027027027025 1.0400682776966912e+39
3712.712712712713 1.0313380648056597e+39
3722.7227227227227 1.0226962763020634e+39
3732.7327327327325 1.01414188939027e+39
3742.742742742743 1.0056738954113068e+39
3752.7527527527527 9.972912995239469e+38
3762.7627627627626 9.889931203977928e+38
3772.772772772773 9.807783899179724e+38
3782.7827827827828 9.726461529010792e+38
3792.7927927927926 9.64595466821959e+38
3802.802802802803 9.566254015509556e+38
3812.812812812813 9.48735039101231e+38
3822.8228228228227 9.409234733857465e+38
3832.832832832833 9.331898099835432e+38
3842.842842842843 9.255331659149115e+38
3852.8528528528527 9.179526694250906e+38
3862.862862862863 9.10447459776108e+38
3872.872872872873 9.030166870464136e+38
3882.8828828828828 8.956595119379309e+38
3892.892892892893 8.883751055902115e+38
3902.902902902903 8.811626494013192e+38
3912.912912912913 8.740213348551539e+38
3922.922922922923 8.669503633548762e+38
3932.932932932933 8.599489460621539e+38
3942.942942942943 8.530163037419114e+38
3952.9529529529527 8.461516666123256e+38
3962.962962962963 8.393542741997917e+38
3972.972972972973 8.326233751985976e+38
3982.982982982983 8.259582273350646e+38
3992.992992992993 8.193580972359174e+38
4003.003003003003 8.128222603006652e+38
4013.013013013013 8.063500005777688e+38
4023.023023023023 7.999406106443987e+38
4033.033033033033 7.935933914895898e+38
4043.043043043043 7.873076524006023e+38
4053.053053053053 7.810827108523247e+38
4063.063063063063 7.749178923995461e+38
4073.073073073073 7.688125305719404e+38
4083.0830830830832 7.627659667716223e+38
4093.093093093093 7.567775501731292e+38
4103.103103103103 7.50846637625695e+38
4113.113113113113 7.449725935577038e+38
4123.123123123123 7.39154789883187e+38
4133.133133133133 7.333926059102714e+38
4143.143143143143 7.276854282514661e+38
4153.153153153153 7.220326507356955e+38
4163.163163163163 7.164336743219759e+38
4173.173173173173 7.108879070146685e+38
4183.183183183183 7.053947637802127e+38
4193.193193193193 6.99953666465273e+38
4203.203203203203 6.945640437162253e+38
4213.213213213214 6.892253308999233e+38
4223.223223223224 6.839369700256761e+38
4233.2332332332335 6.786984096683845e+38
4243.243243243243 6.735091048927847e+38
4253.253253253253 6.683685171787447e+38
4263.263263263263 6.63276114347574e+38
4273.273273273273 6.58231370489299e+38
4283.283283283283 6.532337658908665e+38
4293.293293293293 6.4828278696524116e+38
4303.303303303303 6.433779261813585e+38
4313.313313313313 6.38518681994907e+38
4323.323323323323 6.33704558779905e+38
4333.333333333334 6.289350667610508e+38
4343.343343343344 6.242097219468225e+38
4353.353353353354 6.195280460632958e+38
4363.3633633633635 6.148895664886691e+38
4373.373373373373 6.102938161884746e+38
4383.383383383383 6.057403336514518e+38
4393.393393393393 6.012286628260753e+38
4403.403403403403 5.9675835305771966e+38
4413.413413413413 5.923289590264411e+38
4423.423423423424 5.879400406853778e+38
4433.4334334334335 5.8359116319974416e+38
4443.443443443443 5.79281896886415e+38
4453.453453453454 5.750118171540894e+38
4463.463463463464 5.707805044440306e+38
4473.473473473474 5.66587544171361e+38
4483.483483483484 5.6243252666692035e+38
4493.493493493494 5.5831504711967225e+38
4503.503503503503 5.5423470551965416e+38
4513.513513513513 5.5019110660146904e+38
4523.523523523523 5.4618385978830645e+38
4533.533533533533 5.4221257913650045e+38
4543.543543543543 5.382768832806077e+38
4553.553553553554 5.343763953790099e+38
4563.563563563564 5.305107430600369e+38
4573.573573573573 5.266795583686022e+38
4583.583583583584 5.228824777133549e+38
4593.593593593594 5.1911914181434084e+38
4603.603603603604 5.1538919565117e+38
4613.613613613614 5.116922884116937e+38
4623.623623623624 5.080280734411803e+38
4633.6336336336335 5.043962081919971e+38
4643.643643643643 5.007963541737894e+38
4653.653653653653 4.9722817690415695e+38
4663.663663663663 4.93691345859828e+38
4673.673673673674 4.901855344283253e+38
4683.683683683684 4.867104198601267e+38
4693.693693693694 4.832656832213142e+38
4703.703703703704 4.798510093467135e+38
4713.713713713714 4.764660867935196e+38
4723.723723723724 4.731106077954088e+38
4733.733733733734 4.6978426821713165e+38
4743.743743743744 4.664867675095919e+38
4753.753753753754 4.63217808665401e+38
4763.763763763764 4.59977098174914e+38
4773.773773773773 4.5676434598273705e+38
4783.783783783783 4.535792654447158e+38
4793.793793793793 4.504215732853888e+38
4803.803803803804 4.472909895559135e+38
4813.813813813814 4.4418723759246175e+38
4823.823823823824 4.411100439750776e+38
4833.833833833834 4.380591384869997e+38
4843.843843843844 4.350342540744457e+38
4853.853853853854 4.320351268068511e+38
4863.863863863864 4.290614958375688e+38
4873.873873873874 4.261131033650184e+38
4883.883883883884 4.231896945942875e+38
4893.893893893894 4.202910176991805e+38
4903.9039039039035 4.17416823784714e+38
4913.913913913913 4.145668668500521e+38
4923.923923923924 4.117409037518831e+38
4933.933933933934 4.0893869416823364e+38
4943.943943943944 4.06160000562712e+38
4953.953953953955 4.034045881491883e+38
4963.9639639639645 4.006722248568976e+38
4973.973973973974 3.979626812959678e+38
4983.983983983984 3.9527573072337105e+38
4993.993993993994 3.926111490092907e+38
5004.004004004004 3.8996871460390315e+38
5014.014014014014 3.873482085045726e+38
5024.024024024024 3.847494142234504e+38
5034.0340340340335 3.821721177554836e+38
5044.044044044043 3.796161075468189e+38
5054.054054054054 3.7708117446360854e+38
5064.064064064064 3.745671117612087e+38
5074.074074074074 3.720737150537667e+38
5084.084084084085 3.696007822841975e+38
5094.0940940940945 3.671481136945425e+38
5104.104104104104 3.6471551179670765e+38
5114.114114114114 3.6230278134357695e+38
5124.124124124124 3.599097293005e+38
5134.134134134134 3.575361648171471e+38
5144.144144144144 3.551818991997287e+38
5154.154154154154 3.5284674588357734e+38
5164.1641641641645 3.505305204060858e+38
5174.174174174174 3.482330403800007e+38
5184.184184184184 3.4595412546706416e+38
5194.194194194194 3.4369359735200256e+38
5204.204204204204 3.414512797168589e+38
5214.214214214214 3.39226998215663e+38
5224.224224224225 3.3702058044943516e+38
5234.2342342342345 3.3483185594152596e+38
5244.244244244244 3.3266065611327723e+38
5254.254254254254 3.3050681426001306e+38
5264.264264264264 3.283701655273458e+38
5274.274274274274 3.26250546887803e+38
5284.284284284285 3.2414779711776343e+38
5294.294294294295 3.2206175677470526e+38
5304.304304304304 3.1999226817475627e+38
5314.314314314314 3.179391753705498e+38
5324.324324324324 3.1590232412937473e+38
5334.334334334334 3.1388156191162366e+38
5344.344344344345 3.118767378495284e+38
5354.354354354355 3.0988770272618677e+38
5364.3643643643645 3.0791430895486854e+38
5374.374374374374 3.0595641055860552e+38
5384.384384384384 3.040138631500559e+38
5394.394394394394 3.0208652391164287e+38
5404.404404404404 3.0017425157596196e+38
5414.414414414415 2.982769064064554e+38
5424.424424424425 2.9639435017834945e+38
5434.4344344344345 2.9452644615984968e+38
5444.444444444444 2.926730590935928e+38
5454.454454454454 2.9083405517835312e+38
5464.464464464464 2.890093020509949e+38
5474.474474474475 2.8719866876867327e+38
5484.484484484485 2.8540202579127683e+38
5494.494494494495 2.8361924496410985e+38
5504.504504504504 2.8185019950081086e+38
5514.514514514514 2.8009476396650395e+38
5524.524524524524 2.7835281426118116e+38
5534.534534534535 2.7662422760331013e+38
5544.544544544545 2.749088825136669e+38
5554.554554554555 2.7320665879938814e+38
5564.5645645645645 2.7151743753824187e+38
5574.574574574574 2.698411010631129e+38
5584.584584584584 2.681775329466994e+38
5594.594594594595 2.6652661798641787e+38
5604.604604604605 2.6488824218951638e+38
5614.614614614615 2.6326229275838708e+38
5624.624624624625 2.616486580760814e+38
5634.6346346346345 2.60047227692023e+38
5644.644644644644 2.5845789230791274e+38
5654.654654654654 2.5688054376382836e+38
5664.664664664665 2.5531507502451046e+38
5674.674674674675 2.5376138016583867e+38
5684.684684684685 2.5221935436148696e+38
5694.694694694695 2.506888938697641e+38
5704.704704704704 2.4916989602063083e+38
5714.714714714714 2.4766225920289334e+38
5724.724724724725 2.4616588285157065e+38
5734.734734734735 2.4468066743543274e+38
5744.744744744745 2.4320651444470782e+38
5754.754754754755 2.4174332637895407e+38
5764.764764764765 2.40291006735098e+38
5774.774774774774 2.3884945999563226e+38
5784.784784784785 2.3741859161697273e+38
5794.794794794795 2.35998308017973e+38
5804.804804804805 2.345885165685933e+38
5814.814814814815 2.33189125578721e+38
5824.824824824825 2.3180004428714283e+38
5834.8348348348345 2.3042118285066267e+38
5844.844844844845 2.290524523333678e+38
5854.854854854855 2.2769376469603675e+38
5864.864864864865 2.2634503278568955e+38
5874.874874874875 2.2500617032527737e+38
5884.884884884885 2.2367709190351013e+38
5894.894894894895 2.2235771296481843e+38
