#lamb flux
1000.0 0.04471231137678848
1010.01001001001 0.047864113027213044
1020.0200200200201 0.0511355834739696
1030.03003003003 0.054525567536727604
1040.0400400400401 0.05803269267852395
1050.05005005005 0.061655378977460956
1060.06006006006 0.06539184939838773
1070.07007007007 0.0692401402888584
1080.08008008008 0.0731981120296036
1090.0900900900901 0.07726345977553688
1100.1001001001 0.08143372422893842
1110.11011011011 0.0857063023918626
1120.1201201201202 0.09007845824999042
1130.13013013013 0.09454733334506937
1140.1401401401401 0.09910995719775513
1150.1501501501502 0.10376325754705545
1160.16016016016 0.10850407037672537
1170.1701701701702 0.11332914970280628
1180.1801801801803 0.11823517710012356
1190.1901901901902 0.12321877094887948
1200.2002002002002 0.12827649538558955
1210.2102102102103 0.13340486894544734
1220.2202202202202 0.1386003728858325
1230.2302302302303 0.14385945918307097
1240.2402402402402 0.14917855819674092
1250.2502502502502 0.15455317230250354
1260.2602602602603 0.15997680576570975
1270.2702702702702 0.16544028009930364
1280.2802802802803 0.1709393470103586
1290.2902902902902 0.1764697857435261
1300.3003003003003 0.18202741033668307
1310.3103103103103 0.18760807638974059
1320.3203203203202 0.19320768735350569
1330.3303303303303 0.1988222003469945
1340.3403403403404 0.20444763151289014
1350.3503503503503 0.21008006092193682
1360.3603603603603 0.21571563703798932
1370.3703703703704 0.2213505807561764
1380.3803803803803 0.22698118902724584
1390.3903903903904 0.23260383808159765
1400.4004004004005 0.2382149862668483
1410.4104104104103 0.24381117651294698
1420.4204204204204 0.24938903843898658
1430.4304304304305 0.2549452901157967
1440.4404404404404 0.26047673949834677
1450.4504504504505 0.26598028554177366
1460.4604604604606 0.2714529190145924
1470.4704704704704 0.27689172302233017
1480.4804804804805 0.2822938732544249
1490.4904904904906 0.2876566379667949
1500.5005005005005 0.292977377711997
1510.5105105105106 0.29825354482836663
1520.5205205205207 0.30348268269896717
1530.5305305305305 0.3086624247905982
1540.5405405405404 0.31379049348249693
1550.5505505505505 0.31886469869375716
1560.5605605605606 0.32388293631786136
1570.5705705705705 0.3288431864721155
1580.5805805805805 0.33374351156917315
1590.5905905905906 0.3385820542172755
1600.6006006006005 0.34335703495531233
1610.6106106106106 0.3480667498283787
1620.6206206206207 0.3527095678091308
1630.6306306306305 0.35728392807004306
1640.6406406406406 0.3617883371115986
1650.6506506506507 0.36622136575160696
1660.6606606606606 0.370581645981289
1670.6706706706707 0.3748678676945349
1680.6806806806808 0.3790787752979962
1690.6906906906906 0.38321316421144846
1700.7007007007007 0.38726999551470515
1710.7107107107108 0.39124864336912474
1720.7207207207207 0.39514800700390434
1730.7307307307308 0.3989669578570548
1740.7407407407409 0.40270440181347533
1750.7507507507507 0.4063592755991166
1760.7607607607606 0.4099305432535398
1770.770770770771 0.413417192750671
1780.7807807807808 0.416818232855833
1790.7907907907907 0.42013269032955614
1800.8008008008007 0.42335960761590696
1810.8108108108108 0.4264980411858474
1820.8208208208207 0.42954706074514387
1830.8308308308308 0.4325057495621564
1840.8408408408409 0.4353732062238743
1850.8508508508507 0.4381485481887556
1860.8608608608608 0.44083091757162074
1870.870870870871 0.44341948966744327
1880.8808808808808 0.44591348479416726
1890.890890890891 0.4483121841047169
1900.900900900901 0.45061495007725233
1910.9109109109108 0.45282125242933624
1920.920920920921 0.45493070020052045
1930.930930930931 0.45694308068874945
1940.940940940941 0.4588584057835239
1950.950950950951 0.46067696598313906
1960.960960960961 0.46239939198180285
1970.970970970971 0.46402672313308413
1980.980980980981 0.46556048131379674
1990.9909909909911 0.46700274771736244
2001.001001001001 0.4683562389156999
2011.0110110110109 0.4696243772021645
2021.0210210210212 0.47081134887793535
2031.031031031031 0.471922142946657
2041.0410410410411 0.4729625618763416
2051.051051051051 0.4739391959590981
2061.061061061061 0.4748593536421172
2071.071071071071 0.47573094225891394
2081.081081081081 0.4765622969681664
2091.091091091091 0.47736196030653605
2101.101101101101 0.4781384202086353
2111.1111111111113 0.4788998199896817
2121.121121121121 0.47965365875919
2131.131131131131 0.4804065041047597
2141.141141141141 0.4811637398568036
2151.151151151151 0.4819293698681536
2161.161161161161 0.4827058940679782
2171.1711711711714 0.4834942661682352
2181.1811811811813 0.48429393434235796
2191.191191191191 0.48510295820779237
2201.201201201201 0.48591818871668885
2211.2112112112113 0.486735492975303
2221.221221221221 0.4875500039934899
2231.2312312312315 0.488356375843652
2241.2412412412414 0.4891490272179989
2251.2512512512512 0.4899223602131982
2261.261261261261 0.49067094558519925
2271.271271271271 0.49138967003830025
2281.2812812812813 0.4920738448571124
2291.2912912912916 0.49271927808392574
2301.3013013013015 0.4933223144044328
2311.3113113113113 0.49387984799280576
2321.321321321321 0.4943893139314605
2331.331331331331 0.4948486636471219
2341.3413413413414 0.49525632927760266
2351.3513513513512 0.49561118116285774
2361.3613613613616 0.49591248186390796
2371.3713713713714 0.4961598393414848
2381.3813813813813 0.49635316122716555
2391.391391391391 0.49649261152142404
2401.4014014014015 0.49657857056446136
2411.4114114114113 0.4966115987433021
2421.4214214214217 0.4965924041116763
2431.4314314314315 0.4965218138932784
2441.4414414414414 0.49640074969911363
2451.4514514514512 0.4962302062014829
2461.4614614614616 0.49601123295814026
2471.4714714714714 0.49574491905965695
2481.4814814814818 0.4954323802725808
2491.4914914914916 0.49507474836377396
2501.5015015015015 0.4946731623124295
2511.5115115115113 0.4942287611418986
2521.521521521521 0.49374267813099953
2531.5315315315315 0.49321603619212495
2541.541541541542 0.4926499442300084
2551.5515515515517 0.4920454943197646
2561.5615615615616 0.4914037595653847
2571.5715715715714 0.49072579252008314
2581.5815815815813 0.49001262406779095
2591.5915915915916 0.48926526268072057
2601.6016016016015 0.488484693981511
2611.611611611612 0.4876718805501264
2621.6216216216217 0.4868277619256748
2631.6316316316315 0.48595325476180573
2641.6416416416414 0.4850492531015412
2651.6516516516517 0.48411662874344674
2661.6616616616616 0.4831562316761516
2671.671671671672 0.4821688905624823
2681.6816816816818 0.481155413258021
2691.6916916916916 0.48011658735187224
2701.7017017017015 0.47905318071984515
2711.711711711712 0.47796594208230314
2721.7217217217217 0.4768556015605951
2731.731731731732 0.4757228712273325
2741.741741741742 0.4745684456469266
2751.7517517517517 0.4733930024036829
2761.7617617617616 0.4721972026155061
2771.7717717717715 0.47098169143185953
2781.781781781782 0.46974709851509966
2791.791791791792 0.46849403850469773
2801.801801801802 0.46722311146414464
2811.811811811812 0.46593490331058757
2821.8218218218217 0.4646299862274169
2831.8318318318316 0.46330891906017035
2841.841841841842 0.46197224769620915
2851.851851851852 0.4606205054287127
2861.861861861862 0.4592542133055725
2871.871871871872 0.4578738804638064
2881.881881881882 0.45648000445013276
2891.8918918918916 0.45507307152834237
2901.901901901902 0.4536535569741115
2911.911911911912 0.45222192535788075
2921.921921921922 0.4507786308164135
2931.931931931932 0.449324117313634
2941.941941941942 0.4478588188913041
2951.9519519519517 0.4463831599100984
2961.961961961962 0.44489755528159447
2971.971971971972 0.44340241069167413
2981.9819819819822 0.44189812281581065
2991.991991991992 0.44038507952668504
3002.002002002002 0.4388636600945518
3012.012012012012 0.43733423538075117
3022.0220220220217 0.43579716802473967
3032.032032032032 0.4343847699886236
3042.0420420420423 0.4328169848505047
3052.052052052052 0.4312379411317842
3062.062062062062 0.4296492242584191
3072.072072072072 0.42805224428603617
3082.0820820820823 0.4264482529732129
3092.092092092092 0.4248383594220341
3102.102102102102 0.42322354438821874
3112.1121121121123 0.4216046733579173
3122.122122122122 0.4199825084829549
3132.132132132132 0.41835771946097183
3142.1421421421423 0.4167308934416562
3152.152152152152 0.41510254403511243
3162.162162162162 0.41347311949343357
3172.1721721721724 0.4118430101317395
3182.1821821821823 0.41021255505037146
3192.192192192192 0.40858204821555544
3202.202202202202 0.4069517439517274
3212.2122122122123 0.40532186189480984
3222.222222222222 0.40369259145204794
3232.232232232232 0.4020640958105927
3242.2422422422424 0.40043651553377607
3252.252252252252 0.39880997178102473
3262.262262262262 0.3971845691845511
3272.2722722722724 0.3955603984133474
3282.2822822822823 0.393937538452588
3292.292292292292 0.3923160586242821
3302.3023023023025 0.39069602037294204
3312.3123123123123 0.38907747883809235
3322.322322322322 0.3874604842336533
3332.3323323323325 0.38584508305258214
3342.3423423423424 0.3842313191136245
3352.352352352352 0.3826192344656124
3362.3623623623625 0.38100887016344964
3372.3723723723724 0.37940026692871837
3382.3823823823823 0.3777934657067286
3392.3923923923926 0.3761885081308268
3402.4024024024025 0.3745854369038189
3412.4124124124123 0.3729842961055144
3422.4224224224226 0.3713851314345912
3432.4324324324325 0.3697879903922547
3442.4424424424424 0.36819292241448703
3452.4524524524522 0.36659997895905877
3462.4624624624626 0.36500921355292054
3472.4724724724724 0.3634206818050529
3482.4824824824823 0.36183444138938153
3492.4924924924926 0.36025055200192485
3502.5025025025025 0.35866907529593645
3512.5125125125123 0.3570900747984291
3522.5225225225226 0.3555136158111387
3532.5325325325325 0.35393976529866567
3542.5425425425424 0.35236859176625157
3552.5525525525527 0.3508001651293934
3562.5625625625626 0.3492345565772483
3572.5725725725724 0.34767183843157756
3582.5825825825827 0.34611208400277255
3592.5925925925926 0.3445553674443286
3602.6026026026025 0.3430017636069663
3612.612612612613 0.3414513478934529
3622.6226226226227 0.3399041961150362
3632.6326326326325 0.3383603843502856
3642.642642642643 0.33681998880701935
3652.6526526526527 0.33528308568789644
3662.6626626626626 0.33374975106015825
3672.672672672673 0.3322200607299333
3682.6826826826828 0.33069409012142237
3692.6926926926926 0.3291719141612422
3702.7027027027025 0.3276536071681188
3712.712712712713 0.3261392427480907
3722.7227227227227 0.32462889369532094
3732.7327327327325 0.323122631898575
3742.742742742743 0.3216205282533949
3752.7527527527527 0.32012265257995215
3762.7627627627626 0.3186290735465427
3772.772772772773 0.31713985859866123
3782.7827827827828 0.3156550738935626
3792.7927927927926 0.3141747842402087
3802.802802802803 0.31269905304447726
3812.812812812813 0.31122794225949535
3822.8228228228227 0.30976151234095
3832.832832832833 0.30829982220722074
3842.842842842843 0.30684292920416756
3852.8528528528527 0.30539088907440426
3862.862862862863 0.3039437559308809
3872.872872872873 0.30250158223460044
3882.8828828828828 0.3010644187762831
3892.892892892893 0.2996323146618077
3902.902902902903 0.29820531730123573
3912.912912912913 0.2967834724012506
3922.922922922923 0.29536682396082486
3932.932932932933 0.293955414269945
3942.942942942943 0.29254928391121676
3952.9529529529527 0.2911484717641818
3962.962962962963 0.2897530150121821
3972.972972972973 0.28836294915160615
3982.982982982983 0.2869783080033621
3992.992992992993 0.2855991237264205
4003.003003003003 0.2842254268332846
4013.013013013013 0.2828572462072385
4023.023023023023 0.28149460912123747
4033.033033033033 0.28013754125830737
4043.043043043043 0.27878606673332273
4053.053053053053 0.27744020811604314
4063.063063063063 0.27609998645528844
4073.073073073073 0.2747654213041389
4083.0830830830832 0.27343653074605523
4093.093093093093 0.2721133314218148
4103.103103103103 0.2707958385571638
4113.113113113113 0.2694840659910984
4123.123123123123 0.26817802620467834
4133.133133133133 0.26687773035029905
4143.143143143143 0.26558318828133537
4153.153153153153 0.2642944085820886
4163.163163163163 0.2630113985979599
4173.173173173173 0.261734164465793
4183.183183183183 0.26046271114431546
4193.193193193193 0.2591970424446255
4203.203203203203 0.2579371610606683
4213.213213213214 0.2566830685996533
4223.223223223224 0.25543476561236145
4233.2332332332335 0.25419225162330106
4243.243243243243 0.25295552516067243
4253.253253253253 0.25172458378609963
4263.263263263263 0.2504994241241003
4273.273273273273 0.24928004189125727
4283.283283283283 0.24806643192506325
4293.293293293293 0.2468585882124152
4303.303303303303 0.24565650391773
4313.313313313313 0.24446017141066215
4323.323323323323 0.24326958229340262
4333.333333333334 0.2420847274275416
4343.343343343344 0.24090559696048003
4353.353353353354 0.2397321803513742
4363.3633633633635 0.2385644663966036
4373.373373373373 0.23740244325475077
4383.383383383383 0.23624609847108313
4393.393393393393 0.2350954190015312
4403.403403403403 0.23395039123615669
4413.413413413413 0.23281100102210414
4423.423423423424 0.23167723368603646
4433.4334334334335 0.2305490740560466
4443.443443443443 0.22942650648304921
4453.453453453454 0.22830951486164855
4463.463463463464 0.22719808265048624
4473.473473473474 0.22609219289206553
4483.483483483484 0.2249918282320604
4493.493493493494 0.2238969709381081
4503.503503503503 0.22280760291808976
4513.513513513513 0.22172370573790523
4523.523523523523 0.22064526063874332
4533.533533533533 0.2195722485538574
4543.543543543543 0.21850465012484807
4553.553553553554 0.21744244571746127
4563.563563563564 0.21638561543690893
4573.573573573573 0.21533413914271687
4583.583583583584 0.2142879964631101
4593.593593593594 0.2132471668089413
4603.603603603604 0.21221162938716978
4613.613613613614 0.2111813632139019
4623.623623623624 0.21015634712699727
4633.6336336336335 0.209136559798252
4643.643643643643 0.20812197974516716
4653.653653653653 0.20711258534230859
4663.663663663663 0.20610835483227116
4673.673673673674 0.20510926633625143
4683.683683683684 0.20411529786424135
4693.693693693694 0.20312642732484953
4703.703703703704 0.20214263253476053
4713.713713713714 0.20116389122783904
4723.723723723724 0.2001901810638902
4733.733733733734 0.19922147963708203
4743.743743743744 0.1982577644840421
4753.753753753754 0.19729901309163358
4763.763763763764 0.19634520290442192
4773.773773773773 0.19539631133183838
4783.783783783783 0.1944523157550528
4793.793793793793 0.1935131935335584
4803.803803803804 0.19257892201148044
4813.813813813814 0.1916494785236178
4823.823823823824 0.19072484040122165
4833.833833833834 0.1898049849775227
4843.843843843844 0.18888988959301267
4853.853853853854 0.1879795316004884
4863.863863863864 0.18707388836986588
4873.873873873874 0.18617293729277237
4883.883883883884 0.1852766557869215
4893.893893893894 0.18438502130028192
4903.9039039039035 0.18349801131504317
4913.913913913913 0.18261560335138738
4923.923923923924 0.1817377749710727
4933.933933933934 0.18086450378083613
4943.943943943944 0.17999576743561946
4953.953953953955 0.17913154364162764
4963.9639639639645 0.17827181015922422
4973.973973973974 0.1774165448056684
4983.983983983984 0.17656572545770244
4993.993993993994 0.17571933005399235
5004.004004004004 0.17487733659742846
5014.014014014014 0.17403972315729174
5024.024024024024 0.173206467871289
5034.0340340340335 0.1723775489474656
5044.044044044043 0.171552944665996
5054.054054054054 0.1707326333808608
5064.064064064064 0.16991659352141317
5074.074074074074 0.1691048035938385
5084.084084084085 0.16829724218251335
5094.0940940940945 0.1674938879512672
5104.104104104104 0.16669471964455015
5114.114114114114 0.16589971608851153
5124.124124124124 0.1651088561919939
5134.134134134134 0.16432211894744433
5144.144144144144 0.16353948343174834
5154.154154154154 0.16276092880698884
5164.1641641641645 0.16198643432113388
5174.174174174174 0.16121597930865697
5184.184184184184 0.1604495431910921
5194.194194194194 0.15968710547752635
5204.204204204204 0.15892864576503604
5214.214214214214 0.15817414373906424
5224.224224224225 0.15742357917374694
5234.2342342342345 0.15667693193218787
5244.244244244244 0.1559341819666852
5254.254254254254 0.1551953093189139
5264.264264264264 0.15446029412006307
5274.274274274274 0.1537291165909342
5284.284284284285 0.15300175704199936
5294.294294294295 0.15227819587342453
5304.304304304304 0.15155841357505592
5314.314314314314 0.15084239072637648
5324.324324324324 0.15013010799642948
5334.334334334334 0.1494215461437149
5344.344344344345 0.14871668601605717
5354.354354354355 0.14801550855044904
5364.3643643643645 0.14731799477286994
5374.374374374374 0.1466241257980832
5384.384384384384 0.14593388282941203
5394.394394394394 0.14524724715849552
5404.404404404404 0.14456420016502713
5414.414414414415 0.1438847233164762
5424.424424424425 0.14320879816779356
5434.4344344344345 0.14253640636110285
5444.444444444444 0.14186752962537835
5454.454454454454 0.14120214977611126
5464.464464464464 0.14054024871496315
5474.474474474475 0.13988180842941114
5484.484484484485 0.1392268109923824
5494.494494494495 0.13857523856188003
5504.504504504504 0.13792707338060275
5514.514514514514 0.13728229777555595
5524.524524524524 0.13664089415765793
5534.534534534535 0.13600284502134058
5544.544544544545 0.13536813294414515
5554.554554554555 0.13473674058631369
5564.5645645645645 0.13410865069037808
5574.574574574574 0.1334838460807451
5584.584584584584 0.13286230966328036
5594.594594594595 0.13224402442488908
5604.604604604605 0.1316289734330974
5614.614614614615 0.13101713983563099
5624.624624624625 0.13040850685999444
5634.6346346346345 0.12980305781305088
5644.644644644644 0.1292007760806006
5654.654654654654 0.12860164512696218
5664.664664664665 0.12800564849455354
5674.674674674675 0.12741276980347474
5684.684684684685 0.1268229927510925
5694.694694694695 0.1262363011116268
5704.704704704704 0.1256526787357392
5714.714714714714 0.12507210955012463
5724.724724724725 0.12449457755710447
5734.734734734735 0.12392006683422382
5744.744744744745 0.12334856153385061
5754.754754754755 0.12278004588277895
5764.764764764765 0.12221450418183513
5774.774774774774 0.12165192080548766
5784.784784784785 0.12109228020146011
5794.794794794795 0.12053556689034886
5804.804804804805 0.11998176546524333
5814.814814814815 0.11943086059135126
5824.824824824825 0.11888283700562743
5834.8348348348345 0.11833767951640603
5844.844844844845 0.11779537300303845
5854.854854854855 0.11725590241553371
5864.864864864865 0.11671925277420375
5874.874874874875 0.11618540916931347
5884.884884884885 0.11565435676073377
5894.894894894895 0.11512608077759987
5904.9049049049045 0.11460056651797357
5914.914914914915 0.11407779934850959
5924.924924924925 0.11355776470412646
5934.934934934935 0.11304044808768111
5944.944944944945 0.1125258350696485
5954.954954954955 0.11201391128780469
5964.964964964965 0.11150466244691436
5974.974974974975 0.11099807431842247
5984.984984984985 0.11049413274015031
5994.994994994995 0.10999282361599486
6005.005005005005 0.10949413291563265
6015.015015015015 0.10899804667422786
6025.025025025025 0.10850455099214366
6035.035035035035 0.10801363203465782
6045.045045045045 0.10752527603168223
6055.055055055055 0.10703946927748563
6065.065065065065 0.1065561981304206
6075.075075075075 0.10607544901265381
6085.085085085085 0.1055972084099001
6095.0950950950955 0.10512146287115956
6105.105105105105 0.10464819900845888
6115.115115115115 0.10417740349659499
6125.125125125125 0.10370906307288277
6135.135135135135 0.10324316453690593
6145.145145145145 0.10277969475027034
6155.155155155155 0.10231864063636138
6165.1651651651655 0.1018599891801035
6175.175175175175 0.10140372742772336
6185.185185185185 0.10094984248651509
6195.195195195195 0.10049832152460908
6205.205205205205 0.10004915177074299
6215.215215215215 0.09960232051403546
6225.225225225226 0.09915781510376273
6235.235235235235 0.09871562294913705
6245.245245245245 0.09827573151908828
6255.255255255255 0.09783812834204754
6265.265265265265 0.09740280100573269
