#lamb flux
1000.0 2.884139792498867e+39
1010.01001001001 3.057494379348898e+39
1020.0200200200201 3.235984084308942e+39
1030.03003003003 3.41948857793857e+39
1040.0400400400401 3.607877778817344e+39
1050.05005005005 3.801012468558499e+39
1060.06006006006 3.998744919148947e+39
1070.07007007007 4.200919528456397e+39
1080.08008008008 4.40737346001514e+39
1090.0900900900901 4.61793728347843e+39
1100.1001001001 4.832435612405315e+39
1110.11011011011 5.050687736329823e+39
1120.1201201201202 5.272508244337355e+39
1130.13013013013 5.497707637645568e+39
1140.1401401401401 5.726092928952162e+39
1150.1501501501502 5.957468226568462e+39
1160.16016016016 6.191635301604568e+39
1170.1701701701702 6.428394136707322e+39
1180.1801801801803 6.667543455076402e+39
1190.1901901901902 6.908881228694773e+39
1200.2002002002002 7.152205164909272e+39
1210.2102102102103 7.397313170681481e+39
1220.2202202202202 7.644003794002881e+39
1230.2302302302303 7.892076642126635e+39
1240.2402402402402 8.141332776415906e+39
1250.2502502502502 8.391575073471845e+39
1260.2602602602603 8.642608561348848e+39
1270.2702702702702 8.894240737170104e+39
1280.2802802802803 9.146281953865883e+39
1290.2902902902902 9.398545643907459e+39
1300.3003003003003 9.650848576337982e+39
1310.3103103103103 9.903011092119677e+39
1320.3203203203202 1.0154857318354478e+40
1330.3303303303303 1.0406215361986612e+40
1340.3403403403404 1.0656917483637163e+40
1350.3503503503503 1.0906800252256427e+40
1360.3603603603603 1.1155704681307647e+40
1370.3703703703704 1.1403476347217575e+40
1380.3803803803803 1.164996549084556e+40
1390.3903903903904 1.1895027102733995e+40
1400.4004004004005 1.2138520992907895e+40
1410.4104104104103 1.238031184599465e+40
1420.4204204204204 1.2620269262431354e+40
1430.4304304304305 1.2858267786522315e+40
1440.4404404404404 1.3094186922100338e+40
1450.4504504504505 1.3327911136533919e+40
1460.4604604604606 1.3559329853808548e+40
1470.4704704704704 1.3788337437394536e+40
1480.4804804804805 1.4014833163596237e+40
1490.4904904904906 1.4238721186058057e+40
1500.5005005005005 1.445991049208229e+40
1510.5105105105106 1.467831485139306e+40
1520.5205205205207 1.4893852757957298e+40
1530.5305305305305 1.5106447365452048e+40
1540.5405405405404 1.5316026416943396e+40
1550.5505505505505 1.5522522169319118e+40
1560.5605605605606 1.5725871312993429e+40
1570.5705705705705 1.5926014887378699e+40
1580.5805805805805 1.6122898192595376e+40
1590.5905905905906 1.6316470697867897e+40
1600.6006006006005 1.6506685947031727e+40
1610.6106106106106 1.669350146155362e+40
1620.6206206206207 1.687687864144514e+40
1630.6306306306305 1.7056782664428045e+40
1640.6406406406406 1.723318238368824e+40
1650.6506506506507 1.7406050224535355e+40
1660.6606606606606 1.7575362080264258e+40
1670.6706706706707 1.7741097207495954e+40
1680.6806806806808 1.7903238121256389e+40
1690.6906906906906 1.8061770490033982e+40
1700.7007007007007 1.8216683032190692e+40
1710.7107107107108 1.8367967414059663e+40
1720.7207207207207 1.8515618137601797e+40
1730.7307307307308 1.865963244186431e+40
1740.7407407407409 1.8800010201605035e+40
1750.7507507507507 1.8936753826358373e+40
1760.7607607607606 1.9069868160719868e+40
1770.770770770771 1.9199360385971668e+40
1780.7807807807808 1.932523992315905e+40
1790.7907907907907 1.9447518337717456e+40
1800.8008008008007 1.9566209245738906e+40
1810.8108108108108 1.9681328221956835e+40
1820.8208208208207 1.979289270951954e+40
1830.8308308308308 1.9900921931613858e+40
1840.8408408408409 2.0005436804992426e+40
1850.8508508508507 2.0106459855451502e+40
1860.8608608608608 2.0204015135298157e+40
1870.870870870871 2.029812814284134e+40
1880.8808808808808 2.038882574393362e+40
1890.890890890891 2.0476136095586498e+40
1900.900900900901 2.0560088571676917e+40
1910.9109109109108 2.064071369075713e+40
1920.920920920921 2.0718043045976538e+40
1930.930930930931 2.0792109237117806e+40
1940.940940940941 2.0862945804745895e+40
1950.950950950951 2.0930587166461034e+40
1960.960960960961 2.0995068555240698e+40
1970.970970970971 2.1056425959846636e+40
1980.980980980981 2.1114696067263192e+40
1990.9909909909911 2.116991620712104e+40
2001.001001001001 2.1222124298047336e+40
2011.0110110110109 2.1271358795867964e+40
2021.0210210210212 2.1317658643573627e+40
2031.031031031031 2.1361063222947627e+40
2041.0410410410411 2.140161230774362e+40
2051.051051051051 2.1439346018299486e+40
2061.061061061061 2.147430477747867e+40
2071.071071071071 2.1506529267849786e+40
2081.081081081081 2.1536060390045576e+40
2091.091091091091 2.156293922228643e+40
2101.101101101101 2.1587206981104972e+40
2111.1111111111113 2.1608904983363845e+40
2121.121121121121 2.1628074609705872e+40
2131.131131131131 2.1644757269609334e+40
2141.141141141141 2.1658994368231018e+40
2151.151151151151 2.1670827275200218e+40
2161.161161161161 2.168029729548218e+40
2171.1711711711714 2.1687445642360554e+40
2181.1811811811813 2.1692313412510382e+40
2191.191191191191 2.169494156305391e+40
2201.201201201201 2.169537089042761e+40
2211.2112112112113 2.1693642010844843e+40
2221.221221221221 2.168979534212041e+40
2231.2312312312315 2.1683871086631826e+40
2241.2412412412414 2.1675909215217743e+40
2251.2512512512512 2.1665949451854428e+40
2261.261261261261 2.1654031258995896e+40
2271.271271271271 2.164019382350607e+40
2281.2812812812813 2.1624476043148584e+40
2291.2912912912916 2.1606916513627543e+40
2301.3013013013015 2.158755351619151e+40
2311.3113113113113 2.1566425005823036e+40
2321.321321321321 2.1543568600038793e+40
2331.331331331331 2.1519021568323866e+40
2341.3413413413414 2.149282082221797e+40
2351.3513513513512 2.1465002906065162e+40
2361.3613613613616 2.1435603988430916e+40
2371.3713713713714 2.140465985418327e+40
2381.3813813813813 2.137220589722935e+40
2391.391391391391 2.1338277113893153e+40
2401.4014014014015 2.1302908096916085e+40
2411.4114114114113 2.126613303006009e+40
2421.4214214214217 2.122798568329011e+40
2431.4314314314315 2.1188499408512294e+40
2441.4414414414414 2.1147707135843042e+40
2451.4514514514512 2.1105641370385147e+40
2461.4614614614616 2.1062334189485885e+40
2471.4714714714714 2.10178172404543e+40
2481.4814814814818 2.0972121738713983e+40
2491.4914914914916 2.0925278466369591e+40
2501.5015015015015 2.0877317771165731e+40
2511.5115115115113 2.0828269565817525e+40
2521.521521521521 2.077816332769371e+40
2531.5315315315315 2.0727028098833083e+40
2541.541541541542 2.0674892486276954e+40
2551.5515515515517 2.0621784662699982e+40
2561.5615615615616 2.0567732367323456e+40
2571.5715715715714 2.0512762907095267e+40
2581.5815815815813 2.0456903158121695e+40
2591.5915915915916 2.040017956733668e+40
2601.6016016016015 2.0342618154394967e+40
2611.611611611612 2.0284244513776067e+40
2621.6216216216217 2.022508381708662e+40
2631.6316316316315 2.0165160815548924e+40
2641.6416416416414 2.0104499842664413e+40
2651.6516516516517 2.0043124817040958e+40
2661.6616616616616 1.9981059245373552e+40
2671.671671671672 1.9918326225568237e+40
2681.6816816816818 1.985494844999955e+40
2691.6916916916916 1.979094820889243e+40
2701.7017017017015 1.9726347393819533e+40
2711.711711711712 1.966116750130549e+40
2721.7217217217217 1.9595429636530167e+40
2731.731731731732 1.952915451712292e+40
2741.741741741742 1.946236247704055e+40
2751.7517517517517 1.9395073470521705e+40
2761.7617617617616 1.932730707611114e+40
2771.7717717717715 1.925908250074717e+40
2781.781781781782 1.9190418583905967e+40
2791.791791791792 1.9121333801797278e+40
2801.801801801802 1.9051846271605178e+40
2811.811811811812 1.8981973755769072e+40
2821.8218218218217 1.8911733666299454e+40
2831.8318318318316 1.8841143069123598e+40
2841.841841841842 1.8770218688456481e+40
2851.851851851852 1.8698976911192559e+40
2861.861861861862 1.8627433791314073e+40
2871.871871871872 1.8555605054311758e+40
2881.881881881882 1.8483506101614383e+40
2891.8918918918916 1.8411152015023258e+40
2901.901901901902 1.833855756114833e+40
2911.911911911912 1.8265737195842595e+40
2921.921921921922 1.8192705068631655e+40
2931.931931931932 1.8119475027135695e+40
2941.941941941942 1.8046060621480808e+40
2951.9519519519517 1.7972475108697141e+40
2961.961961961962 1.789873145710164e+40
2971.971971971972 1.7824842350662596e+40
2981.9819819819822 1.7750820193344187e+40
2991.991991991992 1.7676677113428737e+40
3002.002002002002 1.7602424967814804e+40
3012.012012012012 1.7528075346289264e+40
3022.0220220220217 1.7453639575771697e+40
3032.032032032032 1.7379129817659503e+40
3042.0420420420423 1.730455456222999e+40
3052.052052052052 1.722992556504177e+40
3062.062062062062 1.7155253153819125e+40
3072.072072072072 1.7080547412755843e+40
3082.0820820820823 1.7005818186708588e+40
3092.092092092092 1.6931075085340829e+40
3102.102102102102 1.6856327487217157e+40
3112.1121121121123 1.6781584543848082e+40
3122.122122122122 1.6706855183685462e+40
3132.132132132132 1.6632148116068615e+40
3142.1421421421423 1.655747183512115e+40
3152.152152152152 1.6482834623598664e+40
3162.162162162162 1.6408244556687393e+40
3172.1721721721724 1.633370950575395e+40
3182.1821821821823 1.625923714204628e+40
3192.192192192192 1.6184834940345894e+40
3202.202202202202 1.61105101825716e+40
3212.2122122122123 1.6036269961334965e+40
3222.222222222222 1.5962121183447476e+40
3232.232232232232 1.58880705733798e+40
3242.2422422422424 1.5814124676673217e+40
3252.252252252252 1.5740289863303494e+40
3262.262262262262 1.5666572330997383e+40
3272.2722722722724 1.5592978108502032e+40
3282.2822822822823 1.551951305880755e+40
3292.292292292292 1.5446182882322918e+40
3302.3023023023025 1.5372993120005682e+40
3312.3123123123123 1.529994915644549e+40
3322.322322322322 1.5227056222902029e+40
3332.3323323323325 1.5154319400297392e+40
3342.3423423423424 1.5081743622163524e+40
3352.352352352352 1.5009333677544719e+40
3362.3623623623625 1.4937094213855802e+40
3372.3723723723724 1.486502973969626e+40
3382.3823823823823 1.4793144627620471e+40
3392.3923923923926 1.4721443116864829e+40
3402.4024024024025 1.4649929316031727e+40
3412.4124124124123 1.4578607205730988e+40
3422.4224224224226 1.4507480641179123e+40
3432.4324324324325 1.4436553354756753e+40
3442.4424424424424 1.4365828958524694e+40
3452.4524524524522 1.4295310946698922e+40
3462.4624624624626 1.4225002698085129e+40
3472.4724724724724 1.4154907478473028e+40
3482.4824824824823 1.4085028442990924e+40
3492.4924924924926 1.401536863842101e+40
3502.5025025025025 1.3945931005475808e+40
3512.5125125125123 1.3876718381036175e+40
3522.5225225225226 1.3807733500351255e+40
3532.5325325325325 1.3738978999200978e+40
3542.5425425425424 1.367045741602137e+40
3552.5525525525527 1.3602171193993204e+40
3562.5625625625626 1.353412268309455e+40
3572.5725725725724 1.346631414211736e+40
3582.5825825825827 1.3398747740648928e+40
3592.5925925925926 1.3331425561018324e+40
3602.6026026026025 1.326434960020852e+40
3612.612612612613 1.3197521771734523e+40
3622.6226226226227 1.313094390748792e+40
3632.6326326326325 1.3064617759548425e+40
3642.642642642643 1.2998545001962799e+40
3652.6526526526527 1.293272723249159e+40
3662.6626626626626 1.2867165974324032e+40
3672.672672672673 1.2801862677761915e+40
3682.6826826826828 1.2736818721872312e+40
3692.6926926926926 1.2672035416110135e+40
3702.7027027027025 1.2607514001910625e+40
3712.712712712713 1.2543255654252289e+40
3722.7227227227227 1.247926148319086e+40
3732.7327327327325 1.241553253536446e+40
3742.742742742743 1.2352069795470634e+40
3752.7527527527527 1.2288874187715537e+40
3762.7627627627626 1.2225946577235704e+40
3772.772772772773 1.216328777149294e+40
3782.7827827827828 1.210089852164259e+40
3792.7927927927926 1.2038779523875673e+40
3802.802802802803 1.1976931420735356e+40
3812.812812812813 1.1915354802408068e+40
3822.8228228228227 1.1854050207989633e+40
3832.832832832833 1.1793018126727038e+40
3842.842842842843 1.1732258999235896e+40
3852.8528528528527 1.167177321869433e+40
3862.862862862863 1.1611561132013388e+40
3872.872872872873 1.1551623040984622e+40
3882.8828828828828 1.1491959203404865e+40
3892.892892892893 1.1432569834179134e+40
3902.902902902903 1.1373455106401312e+40
3912.912912912913 1.1314615152413643e+40
3922.922922922923 1.1256050064844957e+40
3932.932932932933 1.1197759897628209e+40
3942.942942942943 1.1139744666997588e+40
3952.9529529529527 1.1082004352465547e+40
3962.962962962963 1.1024538897780197e+40
3972.972972972973 1.0967348211863238e+40
3982.982982982983 1.091043216972896e+40
3992.992992992993 1.0853790613384408e+40
4003.003003003003 1.0797423352711301e+40
4013.013013013013 1.0741330166329839e+40
4023.023023023023 1.0685510802444754e+40
4033.033033033033 1.0629964979674e+40
4043.043043043043 1.0574692387860258e+40
4053.053053053053 1.0519692688865728e+40
4063.063063063063 1.046496551735033e+40
4073.073073073073 1.041051048153373e+40
4083.0830830830832 1.0356327163941478e+40
4093.093093093093 1.03024151221355e+40
4103.103103103103 1.0248773889429178e+40
4113.113113113113 1.0195402975587556e+40
4123.123123123123 1.0142301867512519e+40
4133.133133133133 1.008947002991362e+40
4143.143143143143 1.0036906905964613e+40
4153.153153153153 9.984611917946015e+39
4163.163163163163 9.932584467873907e+39
4173.173173173173 9.880823938115285e+39
4183.183183183183 9.82932969199022e+39
4193.193193193193 9.778101074360999e+39
4203.203203203203 9.727137412208536e+39
4213.213213213214 9.676438015196374e+39
4223.223223223224 9.626002176222345e+39
4233.2332332332335 9.575829171958248e+39
4243.243243243243 9.525918263377721e+39
4253.253253253253 9.476268696272538e+39
4263.263263263263 9.42687970175762e+39
4273.273273273273 9.37775049676481e+39
4283.283283283283 9.32888028452582e+39
4293.293293293293 9.280268255044427e+39
4303.303303303303 9.231913585558176e+39
4313.313313313313 9.183815440989806e+39
4323.323323323323 9.135972974388523e+39
4333.333333333334 9.088385327361428e+39
4343.343343343344 9.041051630495217e+39
4353.353353353354 8.993971003768336e+39
4363.3633633633635 8.947142556953826e+39
4373.373373373373 8.900565390013033e+39
4383.383383383383 8.854238593480293e+39
4393.393393393393 8.808161248838852e+39
4403.403403403403 8.762332428888223e+39
4413.413413413413 8.716751198102946e+39
4423.423423423424 8.671416612983222e+39
4433.4334334334335 8.626327722397317e+39
4443.443443443443 8.581483567916066e+39
4453.453453453454 8.536883184139544e+39
4463.463463463464 8.492525599016162e+39
4473.473473473474 8.448409834154132e+39
4483.483483483484 8.404534905125765e+39
4493.493493493494 8.360899821764442e+39
4503.503503503503 8.317503588454597e+39
4513.513513513513 8.274345204414815e+39
4523.523523523523 8.231423663974087e+39
4533.533533533533 8.188737956841525e+39
4543.543543543543 8.146287068369523e+39
4553.553553553554 8.104069979810579e+39
4563.563563563564 8.062085668567891e+39
4573.573573573573 8.020333108439821e+39
4583.583583583584 7.978811269858416e+39
4593.593593593594 7.937519120122059e+39
4603.603603603604 7.896455623622335e+39
4613.613613613614 7.855619742065387e+39
4623.623623623624 7.815010434687648e+39
4633.6336336336335 7.774626658466262e+39
4643.643643643643 7.73446736832421e+39
4653.653653653653 7.694531517330255e+39
4663.663663663663 7.654818056893838e+39
4673.673673673674 7.615325936954998e+39
4683.683683683684 7.576054106169496e+39
4693.693693693694 7.537001512089114e+39
4703.703703703704 7.498167101337341e+39
4713.713713713714 7.459549819780532e+39
4723.723723723724 7.421148612694566e+39
4733.733733733734 7.382962424927126e+39
4743.743743743744 7.344990201055791e+39
4753.753753753754 7.307230885541835e+39
4763.763763763764 7.269683422880066e+39
4773.773773773773 7.232346757744472e+39
4783.783783783783 7.195219835130174e+39
4793.793793793793 7.158301600491363e+39
4803.803803803804 7.121590999875529e+39
4813.813813813814 7.085086980054092e+39
4823.823823823824 7.048788488649319e+39
4833.833833833834 7.012694474257796e+39
4843.843843843844 6.976803886570448e+39
4853.853853853854 6.941115676489175e+39
4863.863863863864 6.905628796240188e+39
4873.873873873874 6.870342199484143e+39
4883.883883883884 6.835254841423087e+39
4893.893893893894 6.800365678904372e+39
4903.9039039039035 6.765673670521474e+39
4913.913913913913 6.731177776711926e+39
4923.923923923924 6.696876959852317e+39
4933.933933933934 6.662770184350514e+39
4943.943943943944 6.628856416735055e+39
4953.953953953955 6.595134625741885e+39
4963.9639639639645 6.561603782398468e+39
4973.973973973974 6.528262860105239e+39
4983.983983983984 6.495110834714606e+39
4993.993993993994 6.462146684607457e+39
5004.004004004004 6.429369390767198e+39
5014.014014014014 6.396777936851532e+39
5024.024024024024 6.36437130926183e+39
5034.0340340340335 6.332148497210293e+39
5044.044044044043 6.300108492784918e+39
5054.054054054054 6.26825029101226e+39
5064.064064064064 6.236572889918124e+39
5074.074074074074 6.2050752905862e+39
5084.084084084085 6.173756497214623e+39
5094.0940940940945 6.14261551717067e+39
5104.104104104104 6.111651361043413e+39
5114.114114114114 6.080863042694596e+39
5124.124124124124 6.0502495793076e+39
5134.134134134134 6.019809991434663e+39
5144.144144144144 5.989543303042316e+39
5154.154154154154 5.959448541555123e+39
5164.1641641641645 5.929524737897742e+39
5174.174174174174 5.899770926535351e+39
5184.184184184184 5.870186145512474e+39
5194.194194194194 5.840769436490253e+39
5204.204204204204 5.811519844782209e+39
5214.214214214214 5.782436419388483e+39
5224.224224224225 5.753518213028655e+39
5234.2342342342345 5.724764282173142e+39
5244.244244244244 5.696173687073197e+39
5254.254254254254 5.667745491789566e+39
5264.264264264264 5.639478764219815e+39
5274.274274274274 5.61137257612441e+39
5284.284284284285 5.583426003151471e+39
5294.294294294295 5.555638124860369e+39
5304.304304304304 5.528008024744072e+39
5314.314314314314 5.500534790250363e+39
5324.324324324324 5.473217512801895e+39
5334.334334334334 5.446055287815129e+39
5344.344344344345 5.419047214718222e+39
5354.354354354355 5.392192396967819e+39
5364.3643643643645 5.3654899420648227e+39
5374.374374374374 5.338938961569178e+39
5384.384384384384 5.3125385711136495e+39
5394.394394394394 5.2862878904166506e+39
5404.404404404404 5.260186043294141e+39
5414.414414414415 5.2342321576706186e+39
5424.424424424425 5.208425365589222e+39
5434.4344344344345 5.1827648032209544e+39
5444.444444444444 5.157249610873084e+39
5454.454454454454 5.1318789329967195e+39
5464.464464464464 5.106651918193593e+39
5474.474474474475 5.0815677192220324e+39
5484.484484484485 5.0566254930022135e+39
5494.494494494495 5.031824400620652e+39
5504.504504504504 5.0071636073339784e+39
5514.514514514514 4.9826422825720115e+39
5524.524524524524 4.958259599940158e+39
5534.534534534535 4.9340147372211334e+39
5544.544544544545 4.909906876376056e+39
5554.554554554555 4.885935203544876e+39
5564.5645645645645 4.862098909046237e+39
5574.574574574574 4.8383971873767104e+39
5584.584584584584 4.81482923720947e+39
5594.594594594595 4.791394261392359e+39
5604.604604604605 4.768091466945496e+39
5614.614614614615 4.7449200650582413e+39
5624.624624624625 4.7218792710857294e+39
5634.6346346346345 4.6989683045448604e+39
5644.644644644644 4.6761863891097903e+39
5654.654654654654 4.6535327526069924e+39
5664.664664664665 4.6310066270097934e+39
5674.674674674675 4.6086072484325263e+39
5684.684684684685 4.5863338571241923e+39
5694.694694694695 4.564185697461733e+39
5704.704704704704 4.54216201794288e+39
5714.714714714714 4.520262071178612e+39
5724.724724724725 4.498485113885213e+39
5734.734734734735 4.476830406875975e+39
5744.744744744745 4.4552972150525197e+39
5754.754754754755 4.4338848073957704e+39
5764.764764764765 4.4125924569565966e+39
5774.774774774774 4.39141944084611e+39
5784.784784784785 4.370365040225653e+39
5794.794794794795 4.349428540296466e+39
5804.804804804805 4.328609230289063e+39
5814.814814814815 4.30790640345231e+39
5824.824824824825 4.28731935704223e+39
5834.8348348348345 4.266847392310518e+39
5844.844844844845 4.246489814492833e+39
5854.854854854855 4.226245932796781e+39
5864.864864864865 4.2061150603896897e+39
5874.874874874875 4.186096514386148e+39
5884.884884884885 4.166189615835292e+39
