#lamb flux
1000.0 3.002391918644823
1010.01001001001 3.1255321332652866
1020.0200200200201 3.2430955105334376
1030.03003003003 3.3549547251115377
1040.0400400400401 3.46105203613515
1050.05005005005 3.561390730323475
1060.06006006006 3.6560267881921393
1070.07007007007 3.7450609408185778
1080.08008008008 3.828631235037973
1090.0900900900901 3.9069061833147223
1100.1001001001 3.9800785404878525
1110.11011011011 4.048359722500134
1120.1201201201202 4.1119748613087905
1130.13013013013 4.1711584746004755
1140.1401401401401 4.226150717854889
1150.1501501501502 4.277194178928516
1160.16016016016 4.3245311709396175
1170.1701701701702 4.368401477190167
1180.1801801801803 4.4090405016104555
1190.1901901901902 4.446677779293405
1200.2002002002002 4.481535803716532
1210.2102102102103 4.513829129918916
1220.2202202202202 4.543763715963053
1230.2302302302303 4.57153646827531
1240.2402402402402 4.597334959778935
1250.2502502502502 4.621029124546914
1260.2602602602603 4.64186393638055
1270.2702702702702 4.65833150806435
1280.2802802802803 4.670631800077674
1290.2902902902902 4.6789645419829515
1300.3003003003003 4.683528028792398
1310.3103103103103 4.684518082286375
1320.3203203203202 4.6821271638036555
1330.3303303303303 4.67654362523863
1340.3403403403404 4.667951085373829
1350.3503503503503 4.656527919203578
1360.3603603603603 4.642446848527769
1370.3703703703704 4.625874622782079
1380.3803803803803 4.606971779796799
1390.3903903903904 4.585892476919689
1400.4004004004005 4.562784383682306
1410.4104104104103 4.537788627921229
1420.4204204204204 4.511039787975434
1430.4304304304305 4.4826659242616405
1440.4404404404404 4.452788644175711
1450.4504504504505 4.421523194876303
1460.4604604604606 4.38897857907597
1470.4704704704704 4.355257689492761
1480.4804804804805 4.320457458103635
1490.4904904904906 4.284669016789254
1500.5005005005005 4.247977866370352
1510.5105105105106 4.210464051410233
1520.5205205205207 4.172202338498182
1530.5305305305305 4.133262396037302
1540.5405405405404 4.093708973839662
1550.5505505505505 4.053602081084639
1560.5605605605606 4.012997161425227
1570.5705705705705 3.9719452642350515
1580.5805805805805 3.9304932111782875
1590.5905905905906 3.8886837574586086
1600.6006006006005 3.8465557472646954
1610.6106106106106 3.8041442630815303
1620.6206206206207 3.761480768681908
1630.6306306306305 3.7185932457546196
1640.6406406406406 3.6755063242680714
1650.6506506506507 3.632241406814559
1660.6606606606606 3.5888167873349412
1670.6706706706707 3.5452477647909557
1680.6806806806808 3.5015467525374575
1690.6906906906906 3.457723384355421
1700.7007007007007 3.413796375879468
1710.7107107107108 3.3698166753548304
1720.7207207207207 3.325779597269834
1730.7307307307308 3.281672608313253
1740.7407407407409 3.237482066621248
1750.7507507507507 3.193193270730428
1760.7607607607606 3.1487905257446367
1770.770770770771 3.1042572308942993
1780.7807807807808 3.059575993415845
1790.7907907907907 3.014728774520853
1800.8008008008007 2.9696970741563593
1810.8108108108108 2.9244621622672047
1820.8208208208207 2.8790053653345935
1830.8308308308308 2.8333084180409265
1840.8408408408409 2.7873538909357305
1850.8508508508507 2.7411257058565517
1860.8608608608608 2.694609751458384
1870.870870870871 2.6477946113439232
1880.8808808808808 2.6006724167248643
1890.890890890891 2.55323983397815
1900.900900900901 2.5054991945192504
1910.9109109109108 2.4574597696653697
1920.920920920921 2.409139186132414
1930.930930930931 2.360564968027531
1940.940940940941 2.3117761782601356
1950.950950950951 2.262825115965765
1960.960960960961 2.2137790068994083
1970.970970970971 2.164721601374172
1980.980980980981 2.115754570441894
1990.9909909909911 2.0669985677290708
2001.001001001001 2.0185938047009038
2011.0110110110109 1.9706999750815335
2021.0210210210212 1.923495364294962
2031.031031031031 1.8771749967583302
2041.0410410410411 1.8319477114903
2051.051051051051 1.7880321166939073
2061.061061061061 1.745651455546293
2071.071071071071 1.7050275132131427
2081.081081081081 1.6663737997156223
2091.091091091091 1.62988834181406
2101.101101101101 1.5957464949024616
2111.1111111111113 1.5640942292957551
2121.121121121121 1.5350423443236996
2131.131131131131 1.5086620146707317
2141.141141141141 1.4849819802435271
2151.151151151151 1.4639875643639282
2161.161161161161 1.445621561148934
2171.1711711711714 1.4297868894188719
2181.1811811811813 1.4163507840246106
2191.191191191191 1.4051501989458892
2201.201201201201 1.3959980374059286
2211.2112112112113 1.3886898044570533
2221.221221221221 1.3830102939350255
2231.2312312312315 1.37873996758792
2241.2412412412414 1.3756607506355152
2251.2512512512512 1.3735610454212477
2261.261261261261 1.3722398441948072
2271.271271271271 1.3715098959524288
2281.2812812812813 1.3711999452829684
2291.2912912912916 1.3711561101887926
2301.3013013013015 1.3712424998382997
2311.3113113113113 1.3713411928448558
2321.321321321321 1.3713517038476102
2331.331331331331 1.371190063465507
2341.3413413413414 1.3707876268922368
2351.3513513513512 1.3700897121367526
2361.3613613613616 1.3690541524556712
2371.3713713713714 1.3676498306459148
2381.3813813813813 1.3658552468366945
2391.391391391391 1.3636571570444382
2401.4014014014015 1.361049307454618
2411.4114114114113 1.3580312793014444
2421.4214214214217 1.3546074512584576
2431.4314314314315 1.3507860802325276
2441.4414414414414 1.3465784971072259
2451.4514514514512 1.3419984110237297
2461.4614614614616 1.33706131394035
2471.4714714714714 1.3317839762229455
2481.4814814814818 1.3261840236688949
2491.4914914914916 1.3202795864752839
2501.5015015015015 1.3140890110809296
2511.5115115115113 1.3076306264279016
2521.521521521521 1.3009225569148335
2531.5315315315315 1.2939825750884222
2541.541541541542 1.286827987896257
2551.5515515515517 1.2794755510733515
2561.5615615615616 1.2719414069373356
2571.5715715715714 1.2642410415122587
2581.5815815815813 1.2563892574832825
2591.5915915915916 1.2484001600034427
2601.6016016016015 1.2402871528308794
2611.611611611612 1.2320629426742393
2621.6216216216217 1.2237395499698693
2631.6316316316315 1.2153283246120783
2641.6416416416414 1.206839965412406
2651.6516516516517 1.198284542280423
2661.6616616616616 1.189671520302052
2671.671671671672 1.181009785045953
2681.6816816816818 1.1723076685582718
2691.6916916916916 1.1635729756144724
2701.7017017017015 1.1548130098872103
2711.711711711712 1.1460345997640462
2721.7217217217217 1.1372441236105084
2731.731731731732 1.1284475343247693
2741.741741741742 1.1196503830716844
2751.7517517517517 1.1108578421176658
2761.7617617617616 1.1020747267151596
2771.7717717717715 1.0933055160073433
2781.781781781782 1.0845543729411162
2791.791791791792 1.075825163190176
2801.801801801802 1.0671214731006347
2811.811811811812 1.0584466266798485
2821.8218218218217 1.0498037016552462
2831.8318318318316 1.0411955446344257
2841.841841841842 1.0326247854009103
2851.851851851852 1.024093850382
2861.861861861862 1.0156049753262986
2871.871871871872 1.0071602172289968
2881.881881881882 0.9987614655429202
2891.8918918918916 0.9904104527128528
2901.901901901902 0.9821087640698378
2911.911911911912 0.9738578471211345
2921.921921921922 0.9656590202702422
2931.931931931932 0.957513481000099
2941.941941941942 0.9494223135511106
2951.9519519519517 0.941386496124209
2961.961961961962 0.9334069076376622
2971.971971971972 0.925484334064851
2981.9819819819822 0.9176194743787988
2991.991991991992 0.9098129461277922
3002.002002002002 0.9020652906650464
3012.012012012012 0.8943769780540504
3022.0220220220217 0.8867484116699197
3032.032032032032 0.8821982158367325
3042.0420420420423 0.8742992967900055
3052.052052052052 0.866359464611961
3062.062062062062 0.8584088188873863
3072.072072072072 0.8504730182882404
3082.0820820820823 0.8425737610974522
3092.092092092092 0.834729227088029
3102.102102102102 0.8269544816808094
3112.1121121121123 0.8192618438548276
3122.122122122122 0.8116612196570134
3132.132132132132 0.8041604033913288
3142.1421421421423 0.7967653486931526
3152.152152152152 0.7894804117386641
3162.162162162162 0.782308568822273
3172.1721721721724 0.7752516104744014
3182.1821821821823 0.768310314200636
3192.192192192192 0.7614845978117206
3202.202202202202 0.7547736551901675
3212.2122122122123 0.7481760762095083
3222.222222222222 0.741689952390983
3232.232232232232 0.7353129697531507
3242.2422422422424 0.7290424901848382
3252.252252252252 0.7228756225526207
3262.262262262262 0.7168092846417835
3272.2722722722724 0.7108402569248862
3282.2822822822823 0.7049652290550056
3292.292292292292 0.6991808398913936
3302.3023023023025 0.693483711783514
3312.3123123123123 0.6878704797648855
3322.322322322322 0.6823378162405033
3332.3323323323325 0.6768824516903391
3342.3423423423424 0.6715011918561922
3352.352352352352 0.6661909318293338
3362.3623623623625 0.6609486674117098
3372.3723723723724 0.6557715040832893
3382.3823823823823 0.6506566638721761
3392.3923923923926 0.6456014903919378
3402.4024024024025 0.6406034522817561
3412.4124124124123 0.6356601452592985
3422.4224224224226 0.6307692929731855
3432.4324324324325 0.6259287468213915
3442.4424424424424 0.6211364848835598
3452.4524524524522 0.6163906100988137
3462.4624624624626 0.611689347806012
3472.4724724724724 0.6070310427502998
3482.4824824824823 0.6024141556480951
3492.4924924924926 0.5978372593922174
3502.5025025025025 0.5932990349694598
3512.5125125125123 0.5887982671545534
3522.5225225225226 0.5843338400369545
3532.5325325325325 0.5799047324301395
3542.5425425425424 0.5755100132070774
3552.5525525525527 0.5711488366001204
3562.5625625625626 0.5668204374986947
3572.5725725725724 0.5625241267738083
3582.5825825825827 0.5582592866544799
3592.5925925925926 0.5540253661776581
3602.6026026026025 0.5498218767300587
3612.612612612613 0.5456483876974888
3622.6226226226227 0.5415045222346904
3632.6326326326325 0.5373899531664532
3642.642642642643 0.5333043990286928
3652.6526526526527 0.529247620256363
3662.6626626626626 0.5252194155234239
3672.672672672673 0.5212196182386518
3682.6826826826828 0.5172480931997466
3692.6926926926926 0.5133047334070626
3702.7027027027025 0.5093894570372565
3712.712712712713 0.5055022045762532
3722.7227227227227 0.5016429361101455
3732.7327327327325 0.4978116287719358
3742.742742742743 0.49400827434146527
3752.7527527527527 0.49023287699532886
3762.7627627627626 0.48648545120315995
3772.772772772773 0.48276601976629363
3782.7827827827828 0.4790746119945097
3792.7927927927926 0.47541126201630884
3802.802802802803 0.4717760072179851
3812.812812812813 0.4681688868065955
3822.8228228228227 0.4645899404918278
3832.832832832833 0.4610392072816952
3842.842842842843 0.45751672438694135
3852.8528528528527 0.45402252622904693
3862.862862862863 0.4505566435467281
3872.872872872873 0.44711910259588133
3882.8828828828828 0.4437099244379711
3892.892892892893 0.4403291243119646
3902.902902902903 0.43697671108498287
3912.912912912913 0.43365268677697993
3922.922922922923 0.4303570461548605
3932.932932932933 0.42708977639159595
3942.942942942943 0.4238508567860189
3952.9529529529527 0.4206402585391428
3962.962962962963 0.41745794458299035
3972.972972972973 0.4143038694580702
3982.982982982983 0.4111779792358029
3992.992992992993 0.40808021148234863
4003.003003003003 0.4050104952604576
4013.013013013013 0.4019687511661057
4023.023023023023 0.39895489139685175
4033.033033033033 0.39596881984899657
4043.043043043043 0.39301043224077825
4053.053053053053 0.39007961625899473
4063.063063063063 0.3871762517265784
4073.073073073073 0.38430021078880205
4083.0830830830832 0.38145135811592734
4093.093093093093 0.3786295511202439
4103.103103103103 0.37583464018557394
4113.113113113113 0.3730664689074519
4123.123123123123 0.3703248743422909
4133.133133133133 0.3676096872639892
4143.143143143143 0.3649207324265181
4153.153153153153 0.36225782883115204
4163.163163163163 0.35962078999709707
4173.173173173173 0.3570094242343778
4183.183183183183 0.35442353491792616
4193.193193193193 0.35186292076190834
4203.203203203203 0.3493273760934081
4213.213213213214 0.34681669112466573
4223.223223223224 0.3443306522231363
4233.2332332332335 0.34186904217871406
4243.243243243243 0.33943164046752705
4253.253253253253 0.33701822351176824
4263.263263263263 0.3346285649350929
4273.273273273273 0.3322624358131586
4283.283283283283 0.32991960491894085
4293.293293293293 0.3275998389625053
4303.303303303303 0.3253029028249527
4313.313313313313 0.32302855978630934
4323.323323323323 0.32077657174715457
4333.333333333334 0.31854669944383296
4343.343343343344 0.31633870265711217
4353.353353353354 0.3141523404141924
4363.3633633633635 0.3119873711839906
4373.373373373373 0.30984355306565625
4383.383383383383 0.3077206439702916
4393.393393393393 0.3056184017958757
4403.403403403403 0.3035365845954089
4413.413413413413 0.3014749507383099
4423.423423423424 0.29943325906512025
4433.4334334334335 0.29741126903557463
4443.443443443443 0.29540874087011965
4453.453453453454 0.2934254356849656
4463.463463463464 0.29146111562077576
4473.473473473474 0.2895155439650909
4483.483483483484 0.2875884852686183
4493.493493493494 0.2856797054554951
4503.503503503503 0.28378897192766306
4513.513513513513 0.28191605366348393
4523.523523523523 0.28006072131073234
4533.533533533533 0.27822274727411234
4543.543543543543 0.27640190579743384
4553.553553553554 0.27459797304060035
4563.563563563564 0.27281072715155386
4573.573573573573 0.27103994833332223
4583.583583583584 0.26928541890632285
4593.593593593594 0.26754692336606695
4603.603603603604 0.26582424843641356
4613.613613613614 0.2641171831185253
4623.623623623624 0.26242551873566367
4633.6336336336335 0.2607490489739799
4643.643643643643 0.25908756991943577
4653.653653653653 0.2574408800910017
4663.663663663663 0.25580878047026984
4673.673673673674 0.2541910745276202
4683.683683683684 0.2525875682450761
4693.693693693694 0.25099807013597836
4703.703703703704 0.24942239126161306
4713.713713713714 0.24786034524491665
4723.723723723724 0.24631174828138486
4733.733733733734 0.24477641914730516
4743.743743743744 0.24325417920543496
4753.753753753754 0.2417448524082381
4763.763763763764 0.24024826529879442
4773.773773773773 0.2387642470094908
4783.783783783783 0.23729262925860378
4793.793793793793 0.23583324634487288
4803.803803803804 0.23438593514016876
4813.813813813814 0.23295053508035474
4823.823823823824 0.2315268881544333
4833.833833833834 0.2301148388920726
4843.843843843844 0.22871423434960095
4853.853853853854 0.22732492409455526
4863.863863863864 0.22594676018886758
4873.873873873874 0.2245795971707691
4883.883883883884 0.22322329203549218
4893.893893893894 0.22187770421484163
4903.9039039039035 0.22054269555571177
4913.913913913913 0.21921813029761666
4923.923923923924 0.2179038750493019
4933.933933933934 0.21659979876450397
4943.943943943944 0.21530577271691667
4953.953953953955 0.21402167047442905
4963.9639639639645 0.21274736787268997
4973.973973973974 0.21148274298805436
4983.983983983984 0.21022767610996831
4993.993993993994 0.20898204971284043
5004.004004004004 0.20774574842745064
5014.014014014014 0.2065186590119442
5024.024024024024 0.20530067032245453
5034.0340340340335 0.20409167328340075
5044.044044044043 0.20289156085749874
5054.054054054054 0.20170022801552787
5064.064064064064 0.20051757170589019
5074.074074074074 0.1993434908239986
5084.084084084085 0.19817788618152934
5094.0940940940945 0.1970206604755716
5104.104104104104 0.1958717182577054
5114.114114114114 0.19473096590303896
5124.124124124124 0.1935983115792333
5134.134134134134 0.19247366521554202
5144.144144144144 0.19135693847189186
5154.154154154154 0.19024804470802895
5164.1641641641645 0.18914689895275416
5174.174174174174 0.18805341787326968
5184.184184184184 0.18696751974465797
5194.194194194194 0.1858891244195124
5204.204204204204 0.1848181532977402
5214.214214214214 0.18375452929655284
5224.224224224225 0.18269817682066256
5234.2342342342345 0.1816490217327008
5244.244244244244 0.18060699132387123
5254.254254254254 0.17957201428485461
5264.264264264264 0.17854402067697508
5274.274274274274 0.1775229419036434
5284.284284284285 0.17650871068208498
5294.294294294295 0.17550126101536692
5304.304304304304 0.17450052816473
5314.314314314314 0.17350644862223907
5324.324324324324 0.17251896008375603
5334.334334334334 0.17153800142224618
5344.344344344345 0.17056351266142317
5354.354354354355 0.16959543494974033
5364.3643643643645 0.16863371053473294
5374.374374374374 0.16767828273771831
5384.384384384384 0.16672909592885626
5394.394394394394 0.16578609550257659
5404.404404404404 0.1648492278533753
5414.414414414415 0.16391844035198413
5424.424424424425 0.16299368132191544
5434.4344344344345 0.16207490001638442
5444.444444444444 0.16116204659561156
5454.454454454454 0.16025507210450646
5464.464464464464 0.15935392845073326
5474.474474474475 0.15845856838315975
5484.484484484485 0.15756894547068895
5494.494494494495 0.15668501408147506
5504.504504504504 0.15580672936252202
5514.514514514514 0.15493404721966372
5524.524524524524 0.15406692429792768
5534.534534534535 0.15320531796227724
5544.544544544545 0.15234918627873387
5554.554554554555 0.15149848799587584
5564.5645645645645 0.15065318252671311
5574.574574574574 0.14981322993093477
5584.584584584584 0.1489785908975275
5594.594594594595 0.14814922672776173
5604.604604604605 0.14732509931854484
5614.614614614615 0.1465061711461345
5624.624624624625 0.14569240525021343
5634.6346346346345 0.14488376521831944
5644.644644644644 0.14408021517062802
5654.654654654654 0.14328171974508505
5664.664664664665 0.14248824408288313
5674.674674674675 0.14169975381428246
5684.684684684685 0.14091621504476623
5694.694694694695 0.14013759434153242
5704.704704704704 0.13936385872031365
5714.714714714714 0.13859497563252296
5724.724724724725 0.13783091295272099
5734.734734734735 0.13707163896639946
5744.744744744745 0.13631712235807728
5754.754754754755 0.13556733219970413
5764.764764764765 0.1348222379393681
5774.774774774774 0.13408180939030154
5784.784784784785 0.13334601672018084
5794.794794794795 0.13261483044071617
5804.804804804805 0.1318882213975256
5814.814814814815 0.13116616076028936
5824.824824824825 0.13044862001317958
5834.8348348348345 0.1297355709455597
5844.844844844845 0.12902698564295123
5854.854854854855 0.12832283647825996
5864.864864864865 0.12762309610325873
5874.874874874875 0.12692773744032262
5884.884884884885 0.12623673367440943
5894.894894894895 0.12555005824528298
5904.9049049049045 0.12486768483997315
5914.914914914915 0.12418958738546859
5924.924924924925 0.12351574004163716
5934.934934934935 0.12284611719436878
5944.944944944945 0.12218069344893782
5954.954954954955 0.1215194436235782
5964.964964964965 0.12086234274326782
5974.974974974975 0.12020936603371826
5984.984984984985 0.11956048891556344
5994.994994994995 0.11891568699874466
6005.005005005005 0.11827493607708614
6015.015015015015 0.11763821212305747
6025.025025025025 0.11700549128271868
6035.035035035035 0.11637674987084241
6045.045045045045 0.11575196436621059
6055.055055055055 0.11513111140708013
6065.065065065065 0.11451416778681375
6075.075075075075 0.1139011104496725
6085.085085085085 0.11329191648676443
6095.0950950950955 0.1126865631321473
6105.105105105105 0.11208502775907968
6115.115115115115 0.111487287876417
6125.125125125125 0.11089332112514938
6135.135135135135 0.11030310527507693
6145.145145145145 0.1097166182216179
6155.155155155155 0.10913383798274796
6165.1651651651655 0.10855474269606506
6175.175175175175 0.10797931061597756
6185.185185185185 0.10740752011101094
6195.195195195195 0.10683934966123156
6205.205205205205 0.10627477785578152
6215.215215215215 0.10571378339052327
6225.225225225226 0.10515634506579029
6235.235235235235 0.10460244178423947
6245.245245245245 0.10405205254880391
6255.255255255255 0.10350515646074147
6265.265265265265 0.10296173271777655
6275.275275275275 0.10242176061233257
6285.285285285286 0.10188521952985158
6295.295295295296 0.10135208894719862
6305.305305305305 0.10082234843114712
6315.315315315315 0.1002959776369444
