#lamb flux
1000.0 12.216761293230366
1010.01001001001 12.203043985598333
1020.0200200200201 12.183774659417562
1030.03003003003 12.159214014130642
1040.0400400400401 12.129617127023058
1050.05005005005 12.095233134259866
1060.06006006006 12.056304968908094
1070.07007007007 12.013069150688063
1080.08008008008 11.965755622545474
1090.0900900900901 11.91458762947365
1100.1001001001 11.859781635339136
1110.11011011011 11.801547273776205
1120.1201201201202 11.740087329511402
1130.13013013013 11.675597746761598
1140.1401401401401 11.608267661615091
1150.1501501501502 11.538279455556868
1160.16016016016 11.465808827535207
1170.1701701701702 11.391024882188225
1180.1801801801803 11.314090232056545
1190.1901901901902 11.23516111180081
1200.2002002002002 11.154387502623326
1210.2102102102103 11.071913265259727
1220.2202202202202 10.987876280061707
1230.2302302302303 10.902408592835098
1240.2402402402402 10.815636565230161
1250.2502502502502 10.727677008436519
1260.2602602602603 10.638633642004315
1270.2702702702702 10.548596091389244
1280.2802802802803 10.457671460727484
1290.2902902902902 10.365961919657499
1300.3003003003003 10.273564857973442
1310.3103103103103 10.180573039908873
1320.3203203203202 10.087074757532722
1330.3303303303303 9.993153982803738
1340.3403403403404 9.89889051788677
1350.3503503503503 9.804360143387118
1360.3603603603603 9.709634764206868
1370.3703703703704 9.614782552770379
1380.3803803803803 9.519868089405396
1390.3903903903904 9.424952499701636
1400.4004004004005 9.330093588700528
1410.4104104104103 9.235345971798724
1420.4204204204204 9.140761202273572
1430.4304304304305 9.04638789536186
1440.4404404404404 8.952271848843894
1450.4504504504505 8.858456160102982
1460.4604604604606 8.764981339647132
1470.4704704704704 8.671885421093624
1480.4804804804805 8.57920406763017
1490.4904904904906 8.48697067497744
1500.5005005005005 8.395216470887062
1510.5105105105106 8.303970611218118
1520.5205205205207 8.213260272642005
1530.5305305305305 8.123110742031846
1540.5405405405404 8.033545502597883
1550.5505505505505 7.944586316834707
1560.5605605605606 7.856253306349632
1570.5705705705705 7.76856502864479
1580.5805805805805 7.6815385509275975
1590.5905905905906 7.595189521026225
1600.6006006006005 7.509532235488111
1610.6106106106106 7.4245797049404985
1620.6206206206207 7.340343716792707
1630.6306306306305 7.2568348953603365
1640.6406406406406 7.1740627594916155
1650.6506506506507 7.092035777776652
1660.6606606606606 7.0107614214198595
1670.6706706706707 6.930246214856376
1680.6806806806808 6.850495784193119
1690.6906906906906 6.771514903555695
1700.7007007007007 6.69330766896856
1710.7107107107108 6.615877795910067
1720.7207207207207 6.539227690976058
1730.7307307307308 6.463359014380007
1740.7407407407409 6.38827278990395
1750.7507507507507 6.313969439554567
1760.7607607607606 6.240448816797682
1770.770770770771 6.16771023847218
1780.7807807807808 6.095752515492556
1790.7907907907907 6.024573982459401
1800.8008008008007 5.954172526309247
1810.8108108108108 5.884545614149694
1820.8208208208207 5.815690320442527
1830.8308308308308 5.747603353717158
1840.8408408408409 5.6802810830182855
1850.8508508508507 5.613719564315566
1860.8608608608608 5.547914567127743
1870.870870870871 5.482861601638383
1880.8808808808808 5.418555946602112
1890.890890890891 5.354992678356415
1900.900900900901 5.292166701259583
1910.9109109109108 5.230072779863963
1920.920920920921 5.168705573097244
1930.930930930931 5.108059670652653
1940.940940940941 5.048129631669752
1950.950950950951 4.988910025607543
1960.960960960961 4.930395474958034
1970.970970970971 4.872580699110076
1980.980980980981 4.815460558246019
1990.9909909909911 4.759030095642497
2001.001001001001 4.703284576174281
2011.0110110110109 4.648219518230429
2021.0210210210212 4.593830715717147
2031.031031031031 4.540114246442131
2041.0410410410411 4.487066463076491
2051.051051051051 4.434683963209324
2061.061061061061 4.382963535870193
2071.071071071071 4.331902083373969
2081.081081081081 4.281496519430366
2091.091091091091 4.231743647026071
2101.101101101101 4.182640022359398
2111.1111111111113 4.1341818136886275
2121.121121121121 4.086364665878198
2131.131131131131 4.039183582243544
2141.141141141141 3.9926328346913005
2151.151151151151 3.946705911044294
2161.161161161161 3.901395505035567
2171.1711711711714 3.856693550227176
2181.1811811811813 3.8125912947102916
2191.191191191191 3.7690794095591325
2201.201201201201 3.726148121210392
2211.2112112112113 3.6837873565534505
2221.221221221221 3.641986889592841
2231.2312312312315 3.600736479873825
2241.2412412412414 3.5600259950586106
2251.2512512512512 3.5198455126528723
2261.261261261261 3.4801853984882483
2271.271271271271 3.4410363618453434
2281.2812812812813 3.4023894888619024
2291.2912912912916 3.364236257045823
2301.3013013013015 3.326568534333782
2311.3113113113113 3.2893785662973283
2321.321321321321 3.2526589549203457
2331.331331331331 3.216402631976643
2341.3413413413414 3.180602829530164
2351.3513513513512 3.145253049544097
2361.3613613613616 3.110347034075203
2371.3713713713714 3.0758787370796026
2381.3813813813813 3.0418422984810984
2391.391391391391 3.0082320208565143
2401.4014014014015 2.975042348868653
2411.4114114114113 2.9422678514175074
2421.4214214214217 2.909903206372621
2431.4314314314315 2.877943187683269
2441.4414414414414 2.846382654627901
2451.4514514514512 2.815216542951772
2461.4614614614616 2.7844398576446125
2471.4714714714714 2.754047667123242
2481.4814814814818 2.7240350986029753
2491.4914914914916 2.694397334463715
2501.5015015015015 2.665129609439449
2511.5115115115113 2.636227208482301
2521.521521521521 2.607685465173383
2531.5315315315315 2.579499760571917
2541.541541541542 2.5516655224113935
2551.5515515515517 2.5241782245665996
2561.5615615615616 2.497033386728568
2571.5715715715714 2.4702265742357667
2581.5815815815813 2.4437533980193846
2591.5915915915916 2.417609514628716
2601.6016016016015 2.3917906263093673
2611.611611611612 2.366292481112633
2621.6216216216217 2.3411108730190664
2631.6316316316315 2.316241642063053
2641.6416416416414 2.2916806744483473
2651.6516516516517 2.2674239026470433
2661.6616616616616 2.2434673054765226
2671.671671671672 2.219806908150542
2681.6816816816818 2.1964387823019784
2691.6916916916916 2.173359045975732
2701.7017017017015 2.1505638635911417
2711.711711711712 2.128049445873886
2721.7217217217217 2.1058120497578314
2731.731731731732 2.0838479782576207
2741.741741741742 2.0621535803131197
2751.7517517517517 2.0407252506069553
2761.7617617617616 2.019559429356588
2771.7717717717715 1.9986526020823565
2781.781781781782 1.9780012993530225
2791.791791791792 1.9576020965103749
2801.801801801802 1.937451613374358
2811.811811811812 1.9175465139302503
2821.8218218218217 1.8978835059993264
2831.8318318318316 1.8784593408943953
2841.841841841842 1.859270813061555
2851.851851851852 1.8403147597094465
2861.861861861862 1.8215880604272046
2871.871871871872 1.8030876367922666
2881.881881881882 1.7848104519691217
2891.8918918918916 1.7667535103000227
2901.901901901902 1.7489138568886125
2911.911911911912 1.7312885771773723
2921.921921921922 1.713874796519725
2931.931931931932 1.6966696797475993
2941.941941941942 1.679670430735157
2951.9519519519517 1.6628742919593933
2961.961961961962 1.6462785440582433
2971.971971971972 1.6298805053867722
2981.9819819819822 1.6136775315720135
2991.991991991992 1.5976670150669572
3002.002002002002 1.5818463847041613
3012.012012012012 1.5662131052494286
3022.0220220220217 1.5507646769559484
3032.032032032032 1.5355282080710342
3042.0420420420423 1.5204382654294386
3052.052052052052 1.5055249009032006
3062.062062062062 1.4907860460343807
3072.072072072072 1.4762196216913301
3082.0820820820823 1.4618235426767237
3092.092092092092 1.4475957218356168
3102.102102102102 1.433534073709743
3112.1121121121123 1.4196365177802854
3122.122122122122 1.4059009813376553
3132.132132132132 1.392325402013444
3142.1421421421423 1.378907730006646
3152.152152152152 1.3656459300334
3162.162162162162 1.3525379830269137
3172.1721721721724 1.339581887611868
3182.1821821821823 1.326775661375444
3192.192192192192 1.3141173419550949
3202.202202202202 1.3016049879614102
3212.2122122122123 1.289236679752744
3222.222222222222 1.277010520076767
3232.232232232232 1.2649246345927025
3242.2422422422424 1.2529771722867789
3252.252252252252 1.241166305792232
3262.262262262262 1.2294902316241747
3272.2722722722724 1.2179471703386602
3282.2822822822823 1.2065353666244099
3292.292292292292 1.1952530893348587
3302.3023023023025 1.1840986314674564
3312.3123123123123 1.17307031009649
3322.322322322322 1.1621664662650844
3332.3323323323325 1.1513854648414938
3342.3423423423424 1.1407256943442938
3352.352352352352 1.1301855667406104
3362.3623623623625 1.119763517221147
3372.3723723723724 1.1094580039553388
3382.3823823823823 1.0992675078296514
3392.3923923923926 1.089190532171751
3402.4024024024025 1.0792256024629314
3412.4124124124123 1.069371266040968
3422.4224224224226 1.0596260917953435
3432.4324324324325 1.0499886698565448
3442.4424424424424 1.040457611280954
3452.4524524524522 1.0310315477327043
3462.4624624624626 1.0217091311636788
3472.4724724724724 1.0124890334927221
3482.4824824824823 1.0033699462849723
3492.4924924924926 0.9943505804321509
3502.5025025025025 0.9854296658344971
3512.5125125125123 0.9766059510849711
3522.5225225225226 0.967878203156257
3532.5325325325325 0.9592452070910211
3542.5425425425424 0.9507057656958088
3552.5525525525527 0.9422586992389128
3562.5625625625626 0.9339028451524881
3572.5725725725724 0.925637057739125
3582.5825825825827 0.9174602078830809
3592.5925925925926 0.9093711827663007
3602.6026026026025 0.9013688855893374
3612.612612612613 0.893452235297261
3622.6226226226227 0.885620166310597
3632.6326326326325 0.8778716282613259
3642.642642642643 0.8702055857339652
3652.6526526526527 0.86262101801171
3662.6626626626626 0.8551169188276084
3672.672672672673 0.8476922961207487
3682.6826826826828 0.8403461717973927
3692.6926926926926 0.8330775814970024
3702.7027027027025 0.8258855743630901
3712.712712712713 0.8187692128188198
3722.7227227227227 0.8117275723472835
3732.7327327327325 0.8047597412763462
3742.742742742743 0.797864820568003
3752.7527527527527 0.7910419236121234
3762.7627627627626 0.784290176024513
3772.772772772773 0.7776087154491801
3782.7827827827828 0.770996691364724
3792.7927927927926 0.764453264894732
3802.802802802803 0.7579776086221038
3812.812812812813 0.7515689064071949
3822.8228228228227 0.7452263532096868
3832.832832832833 0.7389491549140889
3842.842842842843 0.7327365281587785
3852.8528528528527 0.7265877001684854
3862.862862862863 0.7205019085901284
3872.872872872873 0.7144784013319225
3882.8828828828828 0.7085164364056518
3892.892892892893 0.7026152817720521
3902.902902902903 0.6967742151891886
3912.912912912913 0.6909925240637675
3922.922922922923 0.6852695053052985
3932.932932932933 0.6796044651830296
3942.942942942943 0.6739967191855797
3952.9529529529527 0.6684455918831967
3962.962962962963 0.662950416792578
3972.972972972973 0.6575105362441729
3982.982982982983 0.6521253012519131
3992.992992992993 0.6467940713852971
4003.003003003003 0.6415162146437821
4013.013013013013 0.636291107333404
4023.023023023023 0.6311181339455869
4033.033033033033 0.6259966870380729
4043.043043043043 0.6209261671179265
4053.053053053053 0.6159059825265598
4063.063063063063 0.6109355493267263
4073.073073073073 0.6060142911914368
4083.0830830830832 0.6011416392947522
4093.093093093093 0.5963170322044068
4103.103103103103 0.5915399157762145
4113.113113113113 0.5868097430502289
4123.123123123123 0.5821259741485969
4133.133133133133 0.5774880761750868
4143.143143143143 0.5728955231162407
4153.153153153153 0.5683477957441205
4163.163163163163 0.5638443815206066
4173.173173173173 0.5593847745032232
4183.183183183183 0.5549684752524524
4193.193193193193 0.5505949907405048
4203.203203203203 0.5462638342615178
4213.213213213214 0.5419745253431558
4223.223223223224 0.537726589659574
4233.2332332332335 0.5335195589457284
4243.243243243243 0.5293529709129973
4253.253253253253 0.5252263691660943
4263.263263263263 0.5211393031212442
4273.273273273273 0.5170913279255986
4283.283283283283 0.5130820043778658
4293.293293293293 0.5091108988501382
4303.303303303303 0.5051775832108847
4313.313313313313 0.5012816347490994
4323.323323323323 0.4974226360995719
4333.333333333334 0.4936001751692706
4343.343343343344 0.48981384506481507
4353.353353353354 0.48606324402101425
4363.3633633633635 0.4823479753304581
4373.373373373373 0.47866764727414246
4383.383383383383 0.4750218730531077
4393.393393393393 0.47141027072107666
4403.403403403403 0.4678324631180739
4413.413413413413 0.4642880778050072
4423.423423423424 0.46077674699920274
4433.4334334334335 0.45729810751087235
4443.443443443443 0.4538518006804962
4453.453453453454 0.4504374723171124
4463.463463463464 0.4470547726374999
4473.473473473474 0.4437033562062249
4483.483483483484 0.4403828818765621
4493.493493493494 0.4370930127322555
4503.503503503503 0.43383341603011666
4513.513513513513 0.43060376314344645
4523.523523523523 0.4274037295062621
4533.533533533533 0.42423299455832697
4543.543543543543 0.4210912416909591
4553.553553553554 0.4179781581936174
4563.563563563564 0.4148934352012476
4573.573573573573 0.41183676764237653
4583.583583583584 0.40880785418794796
4593.593593593594 0.4058063972008851
4603.603603603604 0.4028321026863676
4613.613613613614 0.39988468024282003
4623.623623623624 0.3969638430135909
4633.6336336336335 0.39406930763932074
4643.643643643643 0.39120079421098564
4653.653653653653 0.38835802622360455
4663.663663663663 0.3855407305306049
4673.673673673674 0.3827486372988321
4683.683683683684 0.3799814799642006
4693.693693693694 0.3772389951879678
4703.703703703704 0.37452092281362875
4713.713713713714 0.3718270058244235
4723.723723723724 0.3691569903014403
4733.733733733734 0.36651062538231455
4743.743743743744 0.36388766322051125
4753.753753753754 0.3612878589451824
4763.763763763764 0.3587109706215915
4773.773773773773 0.3561567592120967
4783.783783783783 0.3536249885376863
4793.793793793793 0.351115425240056
4803.803803803804 0.3486278387442212
4813.813813813814 0.346162001221659
4823.823823823824 0.343717687553968
4833.833833833834 0.3412946752970409
4843.843843843844 0.3388927446457444
4853.853853853854 0.33651167839909435
4863.863863863864 0.3341512619259237
4873.873873873874 0.3318112831310331
4883.883883883884 0.3294915324218195
4893.893893893894 0.32719180267537384
4903.9039039039035 0.3249118892060428
4913.913913913913 0.3226515897334462
4923.923923923924 0.3204107043509453
4933.933933933934 0.3181890354945557
4943.943943943944 0.31598638791229433
4953.953953953955 0.3138025686339613
4963.9639639639645 0.3116373869413445
4973.973973973974 0.30949065433884215
4983.983983983984 0.3073621845245004
4993.993993993994 0.30525179336145597
5004.004004004004 0.30315929884977943
5014.014014014014 0.3010845210987153
5024.024024024024 0.29902728229930975
5034.0340340340335 0.29698740669742346
5044.044044044043 0.29496472056712186
5054.054054054054 0.2929590521844391
5064.064064064064 0.2909702318015085
5074.074074074074 0.28899809162105583
5084.084084084085 0.28704246577124876
5094.0940940940945 0.28510319028089987
5104.104104104104 0.28318010305501395
5114.114114114114 0.2812730438506781
5124.124124124124 0.2793818542532892
5134.134134134134 0.2775063776531123
5144.144144144144 0.2756464592221658
5154.154154154154 0.27380194589143014
5164.1641641641645 0.2719726863283731
5174.174174174174 0.2701585309147885
5184.184184184184 0.2683593317249433
5194.194194194194 0.26657494250402797
5204.204204204204 0.264805218646909
5214.214214214214 0.26305001717717275
5224.224224224225 0.2613091967264641
5234.2342342342345 0.25958261751410905
5244.244244244244 0.25787014132702113
5254.254254254254 0.25617163149988637
5264.264264264264 0.25448695289562145
5274.274274274274 0.25281597188610433
5284.284284284285 0.25115855633316947
5294.294294294295 0.2495145755698666
5304.304304304304 0.24788390038197763
5314.314314314314 0.24626640298978966
5324.324324324324 0.24466195703011787
5334.334334334334 0.2430704375385773
5344.344344344345 0.24149172093209756
5354.354354354355 0.23992568499167974
5364.3643643643645 0.23837220884538743
5374.374374374374 0.23683117295157463
5384.384384384384 0.2353024590823412
5394.394394394394 0.23378595030721644
5404.404404404404 0.2322815309770654
5414.414414414415 0.2307890867082159
5424.424424424425 0.229308504366803
5434.4344344344345 0.2278396720533256
5444.444444444444 0.22638247908741546
5454.454454454454 0.22493681599281368
5464.464464464464 0.22350257448255087
5474.474474474475 0.22207964744433012
5484.484484484485 0.22066792892610804
5494.494494494495 0.21926731412187125
5504.504504504504 0.21787769935760742
5514.514514514514 0.21649898207746432
5524.524524524524 0.21513106083009859
5534.534534534535 0.2137738352552073
5544.544544544545 0.21242720607024287
5554.554554554555 0.21109107505730618
5564.5645645645645 0.20976534505021754
5574.574574574574 0.20844991992176137
5584.584584584584 0.20714470457110246
5594.594594594595 0.2058496049113712
5604.604604604605 0.20456452785741713
5614.614614614615 0.20328938131372387
5624.624624624625 0.2020240741624888
5634.6346346346345 0.20076851625186118
5644.644644644644 0.1995226183843371
5654.654654654654 0.19828629230531036
5664.664664664665 0.19705945069177527
5674.674674674675 0.19584200714118125
5684.684684684685 0.19463387616043396
5694.694694694695 0.19343497315504446
5704.704704704704 0.19224521441842146
5714.714714714714 0.19106451712130615
5724.724724724725 0.18989279930134656
5734.734734734735 0.18872997985281062
5744.744744744745 0.1875759785164344
5754.754754754755 0.1864307158694047
5764.764764764765 0.1852941133154743
5774.774774774774 0.184166093075207
5784.784784784785 0.18304657817635053
5794.794794794795 0.18193549244433735
5804.804804804805 0.18083276049290833
5814.814814814815 0.17973830771486116
5824.824824824825 0.17865206027291855
5834.8348348348345 0.1775739450907166
5844.844844844845 0.17650388984391094
5854.854854854855 0.17544182295139835
5864.864864864865 0.1743876735666533
5874.874874874875 0.17334137156917698
5884.884884884885 0.17230284755605763
5894.894894894895 0.17127203283364034
5904.9049049049045 0.17024885940930495
5914.914914914915 0.1692332599833502
5924.924924924925 0.16822516794098386
5934.934934934935 0.16722451734441407
5944.944944944945 0.1662312429250457
5954.954954954955 0.16524528007577466
5964.964964964965 0.164266564843383
5974.974974974975 0.16329503392103104
5984.984984984985 0.16233062464084627
5994.994994994995 0.16137327496660678
6005.005005005005 0.16042292348651854
6015.015015015015 0.15947950940608546
6025.025025025025 0.1585429725410702
6035.035035035035 0.1576132533105441
6045.045045045045 0.1566902927300274
6055.055055055055 0.15577403240471469
6065.065065065065 0.1548644145227875
6075.075075075075 0.15396138184881208
6085.085085085085 0.1530648777172195
6095.0950950950955 0.15217484602587003
6105.105105105105 0.15129123122969773
6115.115115115115 0.15041397833443487
6125.125125125125 0.1495430328904167
6135.135135135135 0.14867834098646376
6145.145145145145 0.1478198492438401
6155.155155155155 0.14696750481028906
6165.1651651651655 0.14612125535414233
6175.175175175175 0.14528104905850428
6185.185185185185 0.1444468346155071
6195.195195195195 0.14361856122063987
6205.205205205205 0.14279617856714644
6215.215215215215 0.14197963684049458
6225.225225225226 0.14116888671291306
6235.235235235235 0.14036387933799646
6245.245245245245 0.1395645663453783
6255.255255255255 0.13877089983546845
6265.265265265265 0.13798283237425651
6275.275275275275 0.1372003169881797
6285.285285285286 0.1364233071590533
6295.295295295296 0.13565175681906474
6305.305305305305 0.13488562034582746
6315.315315315315 0.13412485255749795
6325.325325325325 0.13336940870795067
6335.335335335335 0.13261924448201343
6345.345345345346 0.13187431599076027
6355.355355355356 0.13113457976686294
