#lamb flux
1000.0 5.002792100503073
1010.01001001001 5.201217207248629
1020.0200200200201 5.390861653910445
1030.03003003003 5.571550000719709
1040.0400400400401 5.743208581127736
1050.05005005005 5.905852863706761
1060.06006006006 6.059575225972012
1070.07007007007 6.2045333564796366
1080.08008008008 6.340939434859546
1090.0900900900901 6.4690501838469485
1100.1001001001 6.589157842205271
1110.11011011011 6.70158207170591
1120.1201201201202 6.806662783912406
1130.13013013013 6.904753852228513
1140.1401401401401 6.996217660360178
1150.1501501501502 7.081420428937485
1160.16016016016 7.160728256575962
1170.1701701701702 7.2345038092773715
1180.1801801801803 7.303103592049928
1190.1901901901902 7.366875738353337
1200.2002002002002 7.426158255941759
1210.2102102102103 7.4812776714777325
1220.2202202202202 7.532548020599587
1230.2302302302303 7.58027013469047
1240.2402402402402 7.624731180228757
1250.2502502502502 7.6657351514748155
1260.2602602602603 7.702134223110175
1270.2702702702702 7.731632634921538
1280.2802802802803 7.754534718464258
1290.2902902902902 7.771144560148605
1300.3003003003003 7.78176423953833
1310.3103103103103 7.786692304577951
1320.3203203203202 7.786222464481315
1330.3303303303303 7.780642481380952
1340.3403403403404 7.7702332424361975
1350.3503503503503 7.755267994870437
1360.3603603603603 7.736011727302987
1370.3703703703704 7.712720681717821
1380.3803803803803 7.6856419814357
1390.3903903903904 7.655013361501042
1400.4004004004005 7.621062988937302
1410.4104104104103 7.584009361349226
1420.4204204204204 7.5440612733425585
1430.4304304304305 7.50141784118309
1440.4404404404404 7.456268577020602
1450.4504504504505 7.4087935048540015
1460.4604604604606 7.359163311210809
1470.4704704704704 7.307539524254348
1480.4804804804805 7.254074715717787
1490.4904904904906 7.198912720694781
1500.5005005005005 7.142188870895414
1510.5105105105106 7.084030237505187
1520.5205205205207 7.024555880266726
1530.5305305305305 6.963877099842527
1540.5405405405404 6.902097690915184
1550.5505505505505 6.839314193843392
1560.5605605605606 6.775616143020576
1570.5705705705705 6.711086310383086
1580.5805805805805 6.6458009427893066
1590.5905905905906 6.579829992244705
1600.6006006006005 6.513237338184688
1610.6106106106106 6.446081001251229
1620.6206206206207 6.378413348215681
1630.6306306306305 6.3102812879134875
1640.6406406406406 6.24172645827225
1650.6506506506507 6.172785404738583
1660.6606606606606 6.103489750647299
1670.6706706706707 6.033866360336827
1680.6806806806808 5.963937496104004
1690.6906906906906 5.893720970419687
1700.7007007007007 5.823248705263055
1710.7107107107108 5.752603066365937
1720.7207207207207 5.681779268267452
1730.7307307307308 5.610760040275776
1740.7407407407409 5.539526164842279
1750.7507507507507 5.468056547728515
1760.7607607607606 5.396328314776733
1770.770770770771 5.3243169419379885
1780.7807807807808 5.251996426439569
1790.7907907907907 5.179339508363177
1800.8008008008007 5.106317953454862
1810.8108108108108 5.032902909682501
1820.8208208208207 4.959065351863418
1830.8308308308308 4.884776630544156
1840.8408408408409 4.810009143130272
1850.8508508508507 4.734737146892346
1860.8608608608608 4.658937734707073
1870.870870870871 4.582591994942859
1880.8808808808808 4.505686376385976
1890.890890890891 4.4282142770336765
1900.900900900901 4.3501778713479435
1910.9109109109108 4.271590183446731
1920.920920920921 4.192477402906416
1930.930930930931 4.112881424529647
1940.940940940941 4.032862572849528
1950.950950950951 3.952502445787412
1960.960960960961 3.871906779721959
1970.970970970971 3.7912082009842183
1980.980980980981 3.7105686882775077
1990.9909909909911 3.63018152994538
2001.001001001001 3.5502725242101234
2011.0110110110109 3.4711001459318034
2021.0210210210212 3.392954397802207
2031.031031031031 3.31615408530069
2041.0410410410411 3.241042310318967
2051.051051051051 3.1679800723830054
2061.061061061061 3.097337998262253
2071.071071071071 3.029486383285083
2081.081081081081 2.9647839063674906
2091.091091091091 2.9035655545593344
2101.101101101101 2.846130436847386
2111.1111111111113 2.7927302563826277
2121.121121121121 2.7435592259573753
2131.131131131131 2.6987461441472256
2141.141141141141 2.658349202501189
2151.151151151151 2.622353883751128
2161.161161161161 2.5906740634476373
2171.1711711711714 2.563156174003153
2181.1811811811813 2.53958606146485
2191.191191191191 2.5196979863370226
2201.201201201201 2.503185106182236
2211.2112112112113 2.4897107349300884
2221.221221221221 2.478919697546447
2231.2312312312315 2.4704491772199573
2241.2412412412414 2.4639385691874076
2251.2512512512512 2.459037992852804
2261.261261261261 2.4554152551013066
2271.271271271271 2.4527611887638248
2281.2812812812813 2.4507934011857566
2291.2912912912916 2.4492585532550506
2301.3013013013015 2.4479333474684664
2311.3113113113113 2.4466244362253975
2321.321321321321 2.4451674722328947
2331.331331331331 2.443425516500821
2341.3413413413414 2.441287000980832
2351.3513513513512 2.4386634171665755
2361.3613613613616 2.4354868728828007
2371.3713713713714 2.431707630086637
2381.3813813813813 2.427291708902877
2391.391391391391 2.4222186186156436
2401.4014014014015 2.416479255579195
2411.4114114114113 2.4100739911372027
2421.4214214214217 2.4030109594668314
2431.4314314314315 2.3953045454060296
2441.4414414414414 2.386974065297147
2451.4514514514512 2.3780426291807
2461.4614614614616 2.3685361698156813
2471.4714714714714 2.358482622554083
2481.4814814814818 2.347911239686195
2491.4914914914916 2.3368520231949335
2501.5015015015015 2.3253352606690796
2511.5115115115113 2.3133911502391817
2521.521521521521 2.3010495016757866
2531.5315315315315 2.288339502125724
2541.541541541542 2.2752895362875316
2551.5515515515517 2.261927052094592
2561.5615615615616 2.2482784641550375
2571.5715715715714 2.2343690882753338
2581.5815815815813 2.2202231013628295
2591.5915915915916 2.2058635218619833
2601.6016016016015 2.1913122066334125
2611.611611611612 2.1765898608415846
2621.6216216216217 2.1617160579840777
2631.6316316316315 2.1467092676819712
2641.6416416416414 2.1315868892660967
2651.6516516516517 2.116365289546091
2661.6616616616616 2.101059843446818
2671.671671671672 2.085684976446808
2681.6816816816818 2.0702542079628707
2691.6916916916916 2.0547801949996347
2701.7017017017015 2.0392747755277942
2711.711711711712 2.023749011174782
2721.7217217217217 2.008213228910273
2731.731731731732 1.9926770614898761
2741.741741741742 1.9771494864863337
2751.7517517517517 1.9616388637910218
2761.7617617617616 1.9461529715117274
2771.7717717717715 1.930699040227007
2781.781781781782 1.9152837855848819
2791.791791791792 1.89991343925498
2801.801801801802 1.8845937782597977
2811.811811811812 1.8693301527233785
2821.8218218218217 1.8541275120850607
2831.8318318318316 1.838990429832634
2841.841841841842 1.8239231268138814
2851.851851851852 1.80892949318836
2861.861861861862 1.7940131090827698
2871.871871871872 1.7791772640137555
2881.881881881882 1.7644249751415864
2891.8918918918916 1.7497590044171054
2901.901901901902 1.7351818746828316
2911.911911911912 1.7206958847872111
2921.921921921922 1.7063031237688497
2931.931931931932 1.6920054841652619
2941.941941941942 1.6778046744982213
2951.9519519519517 1.663702230985305
2961.961961961962 1.6496995285247673
2971.971971971972 1.635797790998324
2981.9819819819822 1.6219981009340771
2991.991991991992 1.6083014085693543
3002.002002002002 1.5947085403510004
3012.012012012012 1.5812202069084242
3022.0220220220217 1.5678370105325776
3032.032032032032 1.5594576870678805
3042.0420420420423 1.5456523070965238
3052.052052052052 1.5317884356520348
3062.062062062062 1.5179148184666533
3072.072072072072 1.5040730113018432
3082.0820820820823 1.4902981587818582
3092.092092092092 1.4766197096653868
3102.102102102102 1.4630620704601949
3112.1121121121123 1.4496452000599083
3122.122122122122 1.4363851485952968
3132.132132132132 1.4232945440018394
3142.1421421421423 1.410383029957855
3152.152152152152 1.3976576588813945
3162.162162162162 1.385123243620464
3172.1721721721724 1.3727826713545588
3182.1821821821823 1.360637183065604
3192.192192192192 1.3486866217484352
3202.202202202202 1.336929652326712
3212.2122122122123 1.325363956028551
3222.222222222222 1.313986401763854
3232.232232232232 1.3027931968372426
3242.2422422422424 1.291780019129968
3252.252252252252 1.2809421326935262
3262.262262262262 1.2702744885184563
3272.2722722722724 1.259771812074624
3282.2822822822823 1.249428679064533
3292.292292292292 1.2392395806888274
3302.3023023023025 1.2291989795927243
3312.3123123123123 1.219301357543244
3322.322322322322 1.209541255779082
3332.3323323323325 1.1999133088770928
3342.3423423423424 1.1904122728910147
3352.352352352352 1.1810330484382816
3362.3623623623625 1.1717706993391583
3372.3723723723724 1.1626204673479252
3382.3823823823823 1.1535777834580139
3392.3923923923926 1.1446382762112368
3402.4024024024025 1.135797777394719
3412.4124124124123 1.1270523254676355
3422.4224224224226 1.1183981670226353
3432.4324324324325 1.1098317565535516
3442.4424424424424 1.1013497547712283
3452.4524524524522 1.0929490256826448
3462.4624624624626 1.0846266326247116
3472.4724724724724 1.076379833422777
3482.4824824824823 1.0682060748247741
3492.4924924924926 1.0601029863448819
3502.5025025025025 1.0520683736352168
3512.5125125125123 1.0441002114903841
3522.5225225225226 1.0361966365773876
3532.5325325325325 1.0283559399723532
3542.5425425425424 1.0205765595756484
3552.5525525525527 1.0128570724680421
3562.5625625625626 1.0051961872626052
3572.5725725725724 0.9975927364998435
3582.5825825825827 0.9900456691271595
3592.5925925925926 0.9825540430979022
3602.6026026026025 0.9751170181201154
3612.612612612613 0.9677338485804136
3622.6226226226227 0.9604038766642236
3632.6326326326325 0.9531265256899041
3642.642642642643 0.945901293670885
3652.6526526526527 0.9387277471169738
3662.6626626626626 0.9316055150832776
3672.672672672673 0.9245342834728474
3682.6826826826828 0.9175137895969738
3692.6926926926926 0.9105438169952325
3702.7027027027025 0.9036241905156694
3712.712712712713 0.8967547716541054
3722.7227227227227 0.8899354541502161
3732.7327327327325 0.8831661598369439
3742.742742742743 0.8764468347388465
3752.7527527527527 0.869777445414131
3762.7627627627626 0.8631579755344445
3772.772772772773 0.8565884226958851
3782.7827827827828 0.8500687954542089
3792.7927927927926 0.843599110576818
3802.802802802803 0.8371793905037972
3812.812812812813 0.8308096610100252
3822.8228228228227 0.8244899490602206
3832.832832832833 0.818220280848676
3842.842842842843 0.8120006800153662
3852.8528528528527 0.8058311660301221
3862.862862862863 0.799711752736591
3872.872872872873 0.7936424470477845
3882.8828828828828 0.7876232477850988
3892.892892892893 0.7816541446528775
3902.902902902903 0.7757351173406818
3912.912912912913 0.769866134745674
3922.922922922923 0.7640471543076803
3932.932932932933 0.7582781214497462
3942.942942942943 0.752558969117186
3952.9529529529527 0.7468896174084043
3962.962962962963 0.7412699732909941
3972.972972972973 0.7356999303968579
3982.982982982983 0.7301793688903705
3992.992992992993 0.7247081554038379
4003.003003003003 0.7192861430347939
4013.013013013013 0.7139131713998842
4023.023023023023 0.7085890667403877
4033.033033033033 0.7033136420746486
4043.043043043043 0.6980866973929397
4053.053053053053 0.6929080198905356
4063.063063063063 0.6877773842349877
4073.073073073073 0.6826945528638416
4083.0830830830832 0.6776592763092503
4093.093093093093 0.6726712935461596
4103.103103103103 0.6677303323609441
4113.113113113113 0.6628361097375892
4123.123123123123 0.6579883322586826
4133.133133133133 0.6531866965187013
4143.143143143143 0.6484308895472292
4153.153153153153 0.6437205892399234
4163.163163163163 0.6390554647952187
4173.173173173173 0.6344351771548994
4183.183183183183 0.6298593794468329
4193.193193193193 0.6253277174282857
4203.203203203203 0.6208398299283906
4213.213213213214 0.6163953492884509
4223.223223223224 0.611993901798887
4233.2332332332335 0.6076351081317508
4243.243243243243 0.6033185837678312
4253.253253253253 0.599043939417486
4263.263263263263 0.5948107814344117
4273.273273273273 0.5906187122216685
4283.283283283283 0.5864673306293464
4293.293293293293 0.5823562323433511
4303.303303303303 0.5782850102648349
4313.313313313313 0.574253254879896
4323.323323323323 0.5702605546192009
4333.333333333334 0.5663064962072679
4343.343343343344 0.5623906650011854
4353.353353353354 0.5585126453185925
4363.3633633633635 0.5546720207548
4373.373373373373 0.5508683744889653
4383.383383383383 0.547101289579273
4393.393393393393 0.5433703492471111
4403.403403403403 0.5396751371502639
4413.413413413413 0.5360152376451648
4423.423423423424 0.5323902360382912
4433.4334334334335 0.5287997188267961
4443.443443443443 0.5252432739284932
4453.453453453454 0.5217204909013378
4463.463463463464 0.5182309611525631
4473.473473473474 0.5147742781376268
4483.483483483484 0.5113500375491712
4493.493493493494 0.5079578374961753
4503.503503503503 0.5045972786735136
4513.513513513513 0.5012679645221303
4523.523523523523 0.4979695013800474
4533.533533533533 0.49470149862444096
4543.543543543543 0.4914635688050046
4553.553553553554 0.4882553277688437
4563.563563563564 0.4850763947771366
4573.573573573573 0.481926392613794
4583.583583583584 0.4788049476863692
4593.593593593594 0.4757116901194489
4603.603603603604 0.47264625384076897
4613.613613613614 0.46960827666029753
4623.623623623624 0.4665974003425147
4633.6336336336335 0.4636132706721342
4643.643643643643 0.4606555375134952
4653.653653653653 0.45772385486385325
4663.663663663663 0.45481788090080255
4673.673673673674 0.45193727802405115
4683.683683683684 0.44908171289176907
4693.693693693694 0.44625085645172585
4703.703703703704 0.44344438396743185
4713.713713713714 0.440661975039489
4723.723723723724 0.43790331362235524
4733.733733733734 0.4351680880367208
4743.743743743744 0.4324559909776952
4753.753753753754 0.4297667195189865
4763.763763763764 0.42709997511326725
4773.773773773773 0.4244554635888963
4783.783783783783 0.42183289514318417
4793.793793793793 0.4192319843323607
4803.803803803804 0.41665245005841783
4813.813813813814 0.4140940155529859
4823.823823823824 0.4115564083583995
4833.833833833834 0.40903936030610205
4843.843843843844 0.40654260749254134
4853.853853853854 0.40406589025269035
4863.863863863864 0.4016089531313359
4873.873873873874 0.3991715448522654
4883.883883883884 0.39675341828548194
4893.893893893894 0.39435433041256795
4903.9039039039035 0.39197404229032184
4913.913913913913 0.38961231901277776
4923.923923923924 0.38726892967172377
4933.933933933934 0.3849436473158246
4943.943943943944 0.38263624890844866
4953.953953953955 0.3803465152843051
4963.9639639639645 0.37807423110498106
4973.973973973974 0.3758191848134721
4983.983983983984 0.3735811685877961
4993.993993993994 0.37135997829377393
5004.004004004004 0.3691554134370567
5014.014014014014 0.36696727711448235
5024.024024024024 0.36479537596482886
5034.0340340340335 0.3626395201190451
5044.044044044043 0.36049952315001965
5054.054054054054 0.3583752020219571
5064.064064064064 0.3562663770394264
5074.074074074074 0.3541728717961351
5084.084084084085 0.3520945131234947
5094.0940940940945 0.3500311310390256
5104.104104104104 0.3479825586946565
5114.114114114114 0.3459486323249677
5124.124124124124 0.3439291911954246
5134.134134134134 0.3419240775506496
5144.144144144144 0.33993313656276924
5154.154154154154 0.33795621627988404
5164.1641641641645 0.3359931675746944
5174.174174174174 0.3340438440933226
5184.184184184184 0.3321081022043624
5194.194194194194 0.33018580094819056
5204.204204204204 0.32827680198657444
5214.214214214214 0.3263809695525968
5224.224224224225 0.3244981704009331
5234.2342342342345 0.32262827375850406
5244.244244244244 0.32077115127552597
5254.254254254254 0.3189266769769858
5264.264264264264 0.3170947272145566
5274.274274274274 0.3152751806189817
5284.284284284285 0.3134679180529351
5294.294294294295 0.3116728225643859
5304.304304304304 0.30988977934047474
5314.314314314314 0.3081186756619233
5324.324324324324 0.3063594008579849
5334.334334334334 0.30461184626195403
5344.344344344345 0.30287590516724017
5354.354354354355 0.3011514727840249
5364.3643643643645 0.29943844619650006
5374.374374374374 0.2977367243207087
5384.384384384384 0.2960462078629843
5394.394394394394 0.2943667992790038
5404.404404404404 0.2926984027334549
5414.414414414415 0.2910409240603257
5424.424424424425 0.28939427072381996
5434.4344344344345 0.2877583517799007
5444.444444444444 0.2861330778384664
5454.454454454454 0.28451836102616207
5464.464464464464 0.28291411494982466
5474.474474474475 0.2813202546605673
5484.484484484485 0.27973669661849854
5494.494494494495 0.27816335865807973
5504.504504504504 0.27660015995411913
5514.514514514514 0.2750470209883989
5524.524524524524 0.2735038635169388
5534.534534534535 0.27197061053788796
5544.544544544545 0.2704471862600473
5554.554554554555 0.2689335160720157
5564.5645645645645 0.26742952651196056
5574.574574574574 0.26593514523800543
5584.584584584584 0.2644503009992324
5594.594594594595 0.26297492360729374
5604.604604604605 0.26150894390863183
5614.614614614615 0.26005229375729405
5624.624624624625 0.2586049059883478
5634.6346346346345 0.2571667143918821
5644.644644644644 0.25573765368759305
5654.654654654654 0.25431765949994833
5664.664664664665 0.2529066683339206
5674.674674674675 0.2515046175512897
5684.684684684685 0.25011144534749863
5694.694694694695 0.24872709072906468
5704.704704704704 0.24735149349153424
5714.714714714714 0.2459845941979749
5724.724724724725 0.24462633415799884
5734.734734734735 0.24327665540730872
5744.744744744745 0.2419355006877599
5754.754754754755 0.24060281342793088
5764.764764764765 0.23927853772419455
5774.774774774774 0.23796261832228313
5784.784784784785 0.23665500059933745
5794.794794794795 0.23535563054643494
5804.804804804805 0.23406445475158738
5814.814814814815 0.23278142038320002
5824.824824824825 0.23150647517398598
5834.8348348348345 0.2302395674053254
5844.844844844845 0.2289806458920657
5854.854854854855 0.22772965996774916
5864.864864864865 0.22648655947026491
5874.874874874875 0.2252512947279161
5884.884884884885 0.22402381654589212
5894.894894894895 0.22280407619314113
5904.9049049049045 0.2215920253896336
5914.914914914915 0.22038761629400835
5924.924924924925 0.21919080149159564
5934.934934934935 0.21800153398280575
5944.944944944945 0.2168197671718802
5954.954954954955 0.21564545485599357
5964.964964964965 0.21447855121470114
5974.974974974975 0.21331901079972376
5984.984984984985 0.21216678852506266
5994.994994994995 0.21102183965743604
6005.005005005005 0.2098841198070318
6015.015015015015 0.2087535849185679
6025.025025025025 0.20763019126265309
6035.035035035035 0.20651389542744156
6045.045045045045 0.20540465431057403
6055.055055055055 0.20430242511139846
6065.065065065065 0.2032071653234638
6075.075075075075 0.20211883272727887
6085.085085085085 0.20103738538333166
6095.0950950950955 0.1999627816253601
6105.105105105105 0.1988949800538705
6115.115115115115 0.19783393952989375
6125.125125125125 0.1967796191689764
6135.135135135135 0.1957319783353989
6145.145145145145 0.19469097663661297
6155.155155155155 0.19365657391789684
6165.1651651651655 0.19262873025721666
6175.175175175175 0.19160740596029366
6185.185185185185 0.19059256155586565
6195.195195195195 0.18958415779114363
6205.205205205205 0.18858215562745187
6215.215215215215 0.18758651623604977
6225.225225225226 0.18659720099412946
6235.235235235235 0.1856141714809823
6245.245245245245 0.18463738947433153
6255.255255255255 0.18366681694682405
6265.265265265265 0.18270241606267676
6275.275275275275 0.18174414917447368
6285.285285285286 0.18079197882010795
6295.295295295296 0.17984586771986413
6305.305305305305 0.17890577877363636
6315.315315315315 0.1779716750582787
6325.325325325325 0.17704351982508196
6335.335335335335 0.17612127649737316
6345.345345345346 0.1752049086682338
6355.355355355356 0.1742943800983331
