#lamb flux
1000.0 3.0742251278377347e+40
1010.01001001001 3.1561799752879773e+40
1020.0200200200201 3.233684272416239e+40
1030.03003003003 3.3067951075024563e+40
1040.0400400400401 3.375593197782187e+40
1050.05005005005 3.4401789481461046e+40
1060.06006006006 3.5006688564513135e+40
1070.07007007007 3.557192268132717e+40
1080.08008008008 3.609888474047628e+40
1090.0900900900901 3.658904138977147e+40
1100.1001001001 3.7043910435781974e+40
1110.11011011011 3.746504119493489e+40
1120.1201201201202 3.785399755484264e+40
1130.13013013013 3.821234351590717e+40
1140.1401401401401 3.8541630982234776e+40
1150.1501501501502 3.8843389575584756e+40
1160.16016016016 3.9119118254904554e+40
1170.1701701701702 3.9370278535704595e+40
1180.1801801801803 3.959828911707676e+40
1190.1901901901902 3.980452173875512e+40
1200.2002002002002 3.999029810564079e+40
1210.2102102102103 4.0156887732185935e+40
1220.2202202202202 4.030550657361624e+40
1230.2302302302303 4.0437316324918666e+40
1240.2402402402402 4.0553424281668176e+40
1250.2502502502502 4.065345949210496e+40
1260.2602602602603 4.073417541061396e+40
1270.2702702702702 4.0788894283941477e+40
1280.2802802802803 4.0818829406138385e+40
1290.2902902902902 4.082517194394768e+40
1300.3003003003003 4.0809087693330787e+40
1310.3103103103103 4.077171437793713e+40
1320.3203203203202 4.071415943547983e+40
1330.3303303303303 4.063749824142086e+40
1340.3403403403404 4.0542772722841953e+40
1350.3503503503503 4.043099031883145e+40
1360.3603603603603 4.030312324709916e+40
1370.3703703703704 4.016010803980346e+40
1380.3803803803803 4.0002845314715374e+40
1390.3903903903904 3.9832199750828767e+40
1400.4004004004005 3.9649000240343706e+40
1410.4104104104103 3.9454040191596744e+40
1420.4204204204204 3.9248077959979046e+40
1430.4304304304305 3.9031837386176578e+40
1440.4404404404404 3.88060084231865e+40
1450.4504504504505 3.857124783551563e+40
1460.4604604604606 3.832817995575872e+40
1470.4704704704704 3.8077397485391364e+40
1480.4804804804805 3.7819462328107026e+40
1490.4904904904906 3.7554906445384904e+40
1500.5005005005005 3.728423272520741e+40
1510.5105105105106 3.70079158559617e+40
1520.5205205205207 3.67264031985684e+40
1530.5305305305305 3.6440115650790915e+40
1540.5405405405404 3.6149448498503515e+40
1550.5505505505505 3.585477224944027e+40
1560.5605605605606 3.5556433445623917e+40
1570.5705705705705 3.5254755451291395e+40
1580.5805805805805 3.495003921369985e+40
1590.5905905905906 3.4642563994726114e+40
1600.6006006006005 3.433258807167247e+40
1610.6106106106106 3.4020349406173535e+40
1620.6206206206207 3.370606628057578e+40
1630.6306306306305 3.3389937901645674e+40
1640.6406406406406 3.3072144971968517e+40
1650.6506506506507 3.2752850229946694e+40
1660.6606606606606 3.243219895990759e+40
1670.6706706706707 3.21103194745156e+40
1680.6806806806808 3.178732357246768e+40
1690.6906906906906 3.146330697537277e+40
1700.7007007007007 3.1138406086514537e+40
1710.7107107107108 3.081290980463412e+40
1720.7207207207207 3.048683845393675e+40
1730.7307307307308 3.016017124113464e+40
1740.7407407407409 2.983287840576231e+40
1750.7507507507507 2.950492137743701e+40
1760.7607607607606 2.917625300278909e+40
1770.770770770771 2.8846817862633675e+40
1780.7807807807808 2.8516552704204456e+40
1790.7907907907907 2.818538701820043e+40
1800.8008008008007 2.7853243796054433e+40
1810.8108108108108 2.75200405092346e+40
1820.8208208208207 2.7185690359507915e+40
1830.8308308308308 2.685010385683119e+40
1840.8408408408409 2.65131907896818e+40
1850.8508508508507 2.617486266085127e+40
1860.8608608608608 2.583503566944117e+40
1870.870870870871 2.549363432620465e+40
1880.8808808808808 2.515059579329764e+40
1890.890890890891 2.4805875039355643e+40
1900.900900900901 2.4459450894507216e+40
1910.9109109109108 2.4111333074840774e+40
1920.920920920921 2.3761570218786344e+40
1930.930930930931 2.3410258935235686e+40
1940.940940940941 2.3057553801179835e+40
1950.950950950951 2.270367816160688e+40
1960.960960960961 2.2348935473750064e+40
1970.970970970971 2.1993720800861536e+40
1980.980980980981 2.16385319001865e+40
1990.9909909909911 2.1283979173264804e+40
2001.001001001001 2.0930793568038142e+40
2011.0110110110109 2.0579831362967443e+40
2021.0210210210212 2.0232074652618701e+40
2031.031031031031 1.988862632725451e+40
2041.0410410410411 1.955069843347581e+40
2051.051051051051 1.9219593052321363e+40
2061.061061061061 1.8896675255904472e+40
2071.071071071071 1.858333830133082e+40
2081.081081081081 1.8280961957694265e+40
2091.091091091091 1.7990865669417043e+40
2101.101101101101 1.7714259036044102e+40
2111.1111111111113 1.7452192714180589e+40
2121.121121121121 1.7205513202280439e+40
2131.131131131131 1.6974824961128871e+40
2141.141141141141 1.6760462910791127e+40
2151.151151151151 1.656247755343911e+40
2161.161161161161 1.6380633892947082e+40
2171.1711711711714 1.6214424100842478e+40
2181.1811811811813 1.6063092683062208e+40
2191.191191191191 1.592567189327121e+40
2201.201201201201 1.5801024437763955e+40
2211.2112112112113 1.5687890187393917e+40
2221.221221221221 1.5584933653247132e+40
2231.2312312312315 1.5490789339629484e+40
2241.2412412412414 1.5404102668377993e+40
2251.2512512512512 1.5323564865846368e+40
2261.261261261261 1.5247940917018276e+40
2271.271271271271 1.5176090339077582e+40
2281.2812812812813 1.5106981055943088e+40
2291.2912912912916 1.5039697040469773e+40
2301.3013013013015 1.4973440630901577e+40
2311.3113113113113 1.490753053855776e+40
2321.321321321321 1.4841396570290193e+40
2331.331331331331 1.4774572021030554e+40
2341.3413413413414 1.470668457653179e+40
2351.3513513513512 1.4637446427799e+40
2361.3613613613616 1.4566644154858074e+40
2371.3713713713714 1.4494128801030902e+40
2381.3813813813813 1.4419806437469337e+40
2391.391391391391 1.4343629415117696e+40
2401.4014014014015 1.4265588418435077e+40
2411.4114114114113 1.4185705371136378e+40
2421.4214214214217 1.4104027196827569e+40
2431.4314314314315 1.4020620404137522e+40
2441.4414414414414 1.393556644411078e+40
2451.4514514514512 1.384895777470887e+40
2461.4614614614616 1.3760894561053905e+40
2471.4714714714714 1.3671481938676305e+40
2481.4814814814818 1.358082776899161e+40
2491.4914914914916 1.3489040820355718e+40
2501.5015015015015 1.3396229313444281e+40
2511.5115115115113 1.3302499775720192e+40
2521.521521521521 1.3207956155934533e+40
2531.5315315315315 1.3112699155640873e+40
2541.541541541542 1.3016825740393593e+40
2551.5515515515517 1.2920428798533399e+40
2561.5615615615616 1.282359692018274e+40
2571.5715715715714 1.2726414273267283e+40
2581.5815815815813 1.2628960557058467e+40
2591.5915915915916 1.2531311016929072e+40
2601.6016016016015 1.243353650676604e+40
2611.611611611612 1.2335703587838633e+40
2621.6216216216217 1.22378746549189e+40
2631.6316316316315 1.2140108082139733e+40
2641.6416416416414 1.204245838249482e+40
2651.6516516516517 1.194497637607058e+40
2661.6616616616616 1.1847709363087953e+40
2671.671671671672 1.1750701298650125e+40
2681.6816816816818 1.1653992966767905e+40
2691.6916916916916 1.155762215178885e+40
2701.7017017017015 1.1461623805810585e+40
2711.711711711712 1.1366030211027858e+40
2721.7217217217217 1.127087113626186e+40
2731.731731731732 1.1176173987161172e+40
2741.741741741742 1.108196394975607e+40
2751.7517517517517 1.0988264127200338e+40
2761.7617617617616 1.0895095669654927e+40
2771.7717717717715 1.080247789736042e+40
2781.781781781782 1.0710428417016918e+40
2791.791791791792 1.0618963231643101e+40
2801.801801801802 1.0528096844125342e+40
2811.811811811812 1.0437842354695271e+40
2821.8218218218217 1.0348211552592423e+40
2831.8318318318316 1.0259215002179331e+40
2841.841841841842 1.0170862123781655e+40
2851.851851851852 1.0083161269526316e+40
2861.861861861862 9.996119794447684e+39
2871.871871871872 9.90974412312622e+39
2881.881881881882 9.824039812116508e+39
2891.8918918918916 9.739011608412426e+39
2901.901901901902 9.654663504187356e+39
2911.911911911912 9.570998788036744e+39
2921.921921921922 9.488020092939231e+39
2931.931931931932 9.405729441141853e+39
2941.941941941942 9.324128286163248e+39
2951.9519519519517 9.243217552098523e+39
2961.961961961962 9.162997670398476e+39
2971.971971971972 9.083468614285723e+39
2981.9819819819822 9.004629930960512e+39
2991.991991991992 8.926480771739423e+39
3002.002002002002 8.849019920261276e+39
3012.012012012012 8.772245818886061e+39
3022.0220220220217 8.696156593404458e+39
3032.032032032032 8.63628459146289e+39
3042.0420420420423 8.559546512262772e+39
3052.052052052052 8.482964114844149e+39
3062.062062062062 8.40668812651326e+39
3072.072072072072 8.330846482536473e+39
3082.0820820820823 8.255546838210712e+39
3092.092092092092 8.180878858307988e+39
3102.102102102102 8.106916296994324e+39
3112.1121121121123 8.033718881908088e+39
3122.122122122122 7.961334016257061e+39
3132.132132132132 7.889798312659437e+39
3142.1421421421423 7.819138972092583e+39
3152.152152152152 7.749375020790409e+39
3162.162162162162 7.680518417298041e+39
3172.1721721721724 7.612575041191258e+39
3182.1821821821823 7.545545574230339e+39
3192.192192192192 7.479426283966789e+39
3202.202202202202 7.414209719075826e+39
3212.2122122122123 7.349885324960185e+39
3222.222222222222 7.286439987471089e+39
3232.232232232232 7.223858511927154e+39
3242.2422422422424 7.162124043984652e+39
3252.252252252252 7.101218438325607e+39
3262.262262262262 7.041122580584384e+39
3272.2722722722724 6.981816667428363e+39
3282.2822822822823 6.923280449242835e+39
3292.292292292292 6.865493439443329e+39
3302.3023023023025 6.808435094047646e+39
3312.3123123123123 6.75208496478335e+39
3322.322322322322 6.696422828681931e+39
3332.3323323323325 6.641428796815702e+39
3342.3423423423424 6.58708340456627e+39
3352.352352352352 6.533367685570813e+39
3362.3623623623625 6.480263231273623e+39
3372.3723723723724 6.427752237812034e+39
3382.3823823823823 6.375817541787113e+39
3392.3923923923926 6.324442646308513e+39
3402.4024024024025 6.273611738556976e+39
3412.4124124124123 6.223309699977339e+39
3422.4224224224226 6.173522110096686e+39
3432.4324324324325 6.124235244855992e+39
3442.4424424424424 6.075436070247938e+39
3452.4524524524522 6.027112231967438e+39
3462.4624624624626 5.979252041703907e+39
3472.4724724724724 5.931844460634593e+39
3482.4824824824823 5.884879080615393e+39
3492.4924924924926 5.838346103509363e+39
3502.5025025025025 5.792236319042107e+39
3512.5125125125123 5.746541081527723e+39
3522.5225225225226 5.701252285767904e+39
3532.5325325325325 5.656362342389761e+39
3542.5425425425424 5.611864152854933e+39
3552.5525525525527 5.567751084342589e+39
3562.5625625625626 5.524016944682289e+39
3572.5725725725724 5.480655957488526e+39
3582.5825825825827 5.437662737627349e+39
3592.5925925925926 5.395032267126105e+39
3602.6026026026025 5.3527598716199965e+39
3612.612612612613 5.310841197413856e+39
3622.6226226226227 5.269272189223517e+39
3632.6326326326325 5.228049068649039e+39
3642.642642642643 5.187168313420995e+39
3652.6526526526527 5.1466266374513013e+39
3662.6626626626626 5.1064209717114143e+39
3672.672672672673 5.066548445953183e+39
3682.6826826826828 5.0270063712808435e+39
3692.6926926926926 4.9877922235767306e+39
3702.7027027027025 4.948903627778214e+39
3712.712712712713 4.9103383429987604e+39
3722.7227227227227 4.8720942484823194e+39
3732.7327327327325 4.834169330376604e+39
3742.742742742743 4.796561669308377e+39
3752.7527527527527 4.7592694287411245e+39
3762.7627627627626 4.7222908440936844e+39
3772.772772772773 4.685624212596762e+39
3782.7827827827828 4.6492678838628524e+39
3792.7927927927926 4.613220251144168e+39
3802.802802802803 4.577479743252385e+39
3812.812812812813 4.542044817113421e+39
3822.8228228228227 4.5069139509302466e+39
3832.832832832833 4.472085637926495e+39
3842.842842842843 4.437558380643642e+39
3852.8528528528527 4.403330685764793e+39
3862.862862862863 4.369401059438208e+39
3872.872872872873 4.335768003074291e+39
3882.8828828828828 4.3024300095899705e+39
3892.892892892893 4.2693855600753184e+39
3902.902902902903 4.2366331208574424e+39
3912.912912912913 4.2041711409377134e+39
3922.922922922923 4.171998049778893e+39
3932.932932932933 4.1401122554196215e+39
3942.942942942943 4.108512142894327e+39
3952.9529529529527 4.077196072937625e+39
3962.962962962963 4.0461623809529366e+39
3972.972972972973 4.0154093762259735e+39
3982.982982982983 3.984935341364466e+39
3992.992992992993 3.9547385319464326e+39
4003.003003003003 3.924817176360112e+39
4013.013013013013 3.895169475819359e+39
4023.023023023023 3.865793604539278e+39
4033.033033033033 3.836687710057562e+39
4043.043043043043 3.807849913687755e+39
4053.053053053053 3.779278311091492e+39
4063.063063063063 3.7509709729574365e+39
4073.073073073073 3.7229259457753574e+39
4083.0830830830832 3.6951412526944963e+39
4093.093093093093 3.667614894456049e+39
4103.103103103103 3.6403448503901577e+39
4113.113113113113 3.6133290794685786e+39
4123.123123123123 3.586565521404552e+39
4133.133133133133 3.560052097792249e+39
4143.143143143143 3.533786713278481e+39
4153.153153153153 3.5077672567600135e+39
4163.163163163163 3.4819916026002514e+39
4173.173173173173 3.456457611859614e+39
4183.183183183183 3.431163133534283e+39
4193.193193193193 3.4061060057984817e+39
4203.203203203203 3.38128405724586e+39
4213.213213213214 3.3566951081259146e+39
4223.223223223224 3.332336971571745e+39
4233.2332332332335 3.3082074548157915e+39
4243.243243243243 3.2843043603905344e+39
4253.253253253253 3.260625487311418e+39
4263.263263263263 3.237168632239562e+39
4273.273273273273 3.213931590622094e+39
4283.283283283283 3.190912157808155e+39
4293.293293293293 3.1681081301389267e+39
4303.303303303303 3.1455173060101805e+39
4313.313313313313 3.1231374869061015e+39
4323.323323323323 3.1009664784032967e+39
4333.333333333334 3.0790020911441093e+39
4343.343343343344 3.057242141778489e+39
4353.353353353354 3.0356844538738385e+39
4363.3633633633635 3.0143268587923877e+39
4373.373373373373 2.993167196535807e+39
4383.383383383383 2.972203316556822e+39
4393.393393393393 2.951433078537777e+39
4403.403403403403 2.9308543531361503e+39
4413.413413413413 2.910465022697109e+39
4423.423423423424 2.8902629819333164e+39
4433.4334334334335 2.8702461385722335e+39
4443.443443443443 2.8504124139712495e+39
4453.453453453454 2.8307597437010196e+39
4463.463463463464 2.8112860780975014e+39
4473.473473473474 2.791989382783092e+39
4483.483483483484 2.7728676391575066e+39
4493.493493493494 2.75391884485889e+39
4503.503503503503 2.7351410141958185e+39
4513.513513513513 2.7165321785508103e+39
4523.523523523523 2.698090386755975e+39
4533.533533533533 2.679813705441566e+39
4543.543543543543 2.661700219358032e+39
4553.553553553554 2.6437480316723483e+39
4563.563563563564 2.6259552642393353e+39
4573.573573573573 2.6083200578486773e+39
4583.583583583584 2.590840572448397e+39
4593.593593593594 2.5735149873455203e+39
4603.603603603604 2.556341501384656e+39
4613.613613613614 2.5393183331052695e+39
4623.623623623624 2.522443720878319e+39
4633.6336336336335 2.5057159230230686e+39
4643.643643643643 2.4891332179047376e+39
4653.653653653653 2.47269390401373e+39
4663.663663663663 2.456396300027168e+39
4673.673673673674 2.4402387448533936e+39
4683.683683683684 2.4242195976601794e+39
4693.693693693694 2.4083372378872715e+39
4703.703703703704 2.392590065243975e+39
4713.713713713714 2.3769764996924257e+39
4723.723723723724 2.3614949814171683e+39
4733.733733733734 2.3461439707817015e+39
4743.743743743744 2.3309219482725855e+39
4753.753753753754 2.315827414431708e+39
4763.763763763764 2.3008588897773128e+39
4773.773773773773 2.2860149147143278e+39
4783.783783783783 2.2712940494346065e+39
4793.793793793793 2.256694873807547e+39
4803.803803803804 2.2422159872616777e+39
4813.813813813814 2.2278560086576908e+39
4823.823823823824 2.213613576153424e+39
4833.833833833834 2.1994873470612732e+39
4843.843843843844 2.1854759976984978e+39
4853.853853853854 2.171578223230873e+39
4863.863863863864 2.157792737510128e+39
4873.873873873874 2.144118272905585e+39
4883.883883883884 2.1305535801304083e+39
4893.893893893894 2.1170974280628667e+39
4903.9039039039035 2.1037486035629756e+39
4913.913913913913 2.0905059112848892e+39
4923.923923923924 2.077368173485396e+39
4933.933933933934 2.0643342298288745e+39
4943.943943943944 2.051402937188989e+39
4953.953953953955 2.0385731694474974e+39
4963.9639639639645 2.0258438172904378e+39
4973.973973973974 2.0132137880019782e+39
4983.983983983984 2.000682005256242e+39
4993.993993993994 1.9882474089073414e+39
5004.004004004004 1.9759089547778834e+39
5014.014014014014 1.9636656144462137e+39
5024.024024024024 1.9515163750325883e+39
5034.0340340340335 1.939460238984556e+39
5044.044044044043 1.9274962238617024e+39
5054.054054054054 1.9156233621200043e+39
5064.064064064064 1.9038407008959775e+39
5074.074074074074 1.8921473017907786e+39
5084.084084084085 1.8805422406544764e+39
5094.0940940940945 1.8690246073706387e+39
5104.104104104104 1.857593505641377e+39
5114.114114114114 1.846248052773045e+39
5124.124124124124 1.8349873794626828e+39
5134.134134134134 1.823810629585385e+39
5144.144144144144 1.8127169599826868e+39
5154.154154154154 1.8017055402521145e+39
5164.1641641641645 1.790775552537998e+39
5174.174174174174 1.779926191323662e+39
5184.184184184184 1.7691566632250886e+39
5194.194194194194 1.758466186786149e+39
5204.204204204204 1.747853992275505e+39
5214.214214214214 1.737319321485241e+39
5224.224224224225 1.726861427531315e+39
5234.2342342342345 1.7164795746559115e+39
5244.244244244244 1.7061730380317408e+39
5254.254254254254 1.695941103568365e+39
5264.264264264264 1.6857830677205942e+39
5274.274274274274 1.675698237299025e+39
5284.284284284285 1.665685929282744e+39
5294.294294294295 1.6557454706342603e+39
5304.304304304304 1.645876198116694e+39
5314.314314314314 1.6360774581132728e+39
5324.324324324324 1.6263486064491475e+39
5334.334334334334 1.6166890082155733e+39
5344.344344344345 1.6070980375964724e+39
5354.354354354355 1.597575077697411e+39
5364.3643643643645 1.5881195203769844e+39
5374.374374374374 1.578730766080667e+39
5384.384384384384 1.5694082236770968e+39
5394.394394394394 1.5601513102968402e+39
5404.404404404404 1.5509594511736156e+39
5414.414414414415 1.541832079488011e+39
5424.424424424425 1.5327686362136735e+39
5434.4344344344345 1.523768569965982e+39
5444.444444444444 1.5148313368532024e+39
5454.454454454454 1.505956400330124e+39
5464.464464464464 1.4971432310541638e+39
5474.474474474475 1.4883913067439387e+39
5484.484484484485 1.479700112040293e+39
5494.494494494495 1.4710691383697743e+39
5504.504504504504 1.4624978838105428e+39
5514.514514514514 1.453985852960697e+39
5524.524524524524 1.445532556809019e+39
5534.534534534535 1.4371375126080928e+39
5544.544544544545 1.4288002437498102e+39
5554.554554554555 1.420520279643219e+39
5564.5645645645645 1.412297155594714e+39
5574.574574574574 1.4041304126905434e+39
5584.584584584584 1.3960195976816025e+39
5594.594594594595 1.387964262870496e+39
5604.604604604605 1.379963966000866e+39
5614.614614614615 1.372018270148916e+39
5624.624624624625 1.3641267436171575e+39
5634.6346346346345 1.3562889598303223e+39
5644.644644644644 1.3485044972334178e+39
5654.654654654654 1.3407729391919161e+39
5664.664664664665 1.3330938738940249e+39
5674.674674674675 1.325466894255044e+39
5684.684684684685 1.3178915978237428e+39
5694.694694694695 1.3103675866907637e+39
5704.704704704704 1.3028944673990087e+39
5714.714714714714 1.2954718508559756e+39
5724.724724724725 1.2880993522480282e+39
5734.734734734735 1.2807765909565618e+39
5744.744744744745 1.2735031904760373e+39
5754.754754754755 1.2662787783338553e+39
5764.764764764765 1.2591029860120426e+39
5774.774774774774 1.2519754488707213e+39
5784.784784784785 1.244895806073323e+39
5794.794794794795 1.2378637005135334e+39
5804.804804804805 1.2308787787439238e+39
5814.814814814815 1.22394069090625e+39
5824.824824824825 1.2170490906633835e+39
5834.8348348348345 1.2102036351328445e+39
5844.844844844845 1.2034039848219223e+39
5854.854854854855 1.1966498035643264e+39
5864.864864864865 1.1899407584583655e+39
5874.874874874875 1.183276519806614e+39
5884.884884884885 1.1766567610570394e+39
