#lamb flux
1000.0 0.9238587844156437
1010.01001001001 0.93242968467746
1020.0200200200201 0.9390236711573134
1030.03003003003 0.9437792298021043
1040.0400400400401 0.9468356569723388
1050.05005005005 0.9483309856656172
1060.06006006006 0.9484003118990598
1070.07007007007 0.9471744781076671
1080.08008008008 0.9447790699334071
1090.0900900900901 0.9413336839748686
1100.1001001001 0.9369514264140167
1110.11011011011 0.9317386055157456
1120.1201201201202 0.9257945844816381
1130.13013013013 0.9192117647866578
1140.1401401401401 0.9120756737576095
1150.1501501501502 0.904465133640844
1160.16016016016 0.8964524926720213
1170.1701701701702 0.8881039016541198
1180.1801801801803 0.8794796222473381
1190.1901901901902 0.8706343555701931
1200.2002002002002 0.8616175818118754
1210.2102102102103 0.8524739033770948
1220.2202202202202 0.8432433856468666
1230.2302302302303 0.8339618907654783
1240.2402402402402 0.8246614009797888
1250.2502502502502 0.815327454545316
1260.2602602602603 0.8058608220354779
1270.2702702702702 0.7960669216929083
1280.2802802802803 0.7859895114977765
1290.2902902902902 0.7756693650385215
1300.3003003003003 0.7651443741128611
1310.3103103103103 0.7544496606936982
1320.3203203203202 0.7436176955658619
1330.3303303303303 0.7326784213330704
1340.3403403403404 0.7216593778468937
1350.3503503503503 0.7105858284230707
1360.3603603603603 0.6994808854878458
1370.3703703703704 0.6883656345406524
1380.3803803803803 0.6772592555323662
1390.3903903903904 0.6661791409432549
1400.4004004004005 0.655141010004329
1410.4104104104103 0.6441590186427539
1420.4204204204204 0.6332458648486896
1430.4304304304305 0.6224128892597115
1440.4404404404404 0.6116701708419982
1450.4504504504505 0.6010266176165626
1460.4604604604606 0.5904900524359038
1470.4704704704704 0.5800672938629451
1480.4804804804805 0.5697642322416474
1490.4904904904906 0.5595859010783446
1500.5005005005005 0.5495365438758841
1510.5105105105106 0.5396196765800658
1520.5205205205207 0.5298381458105037
1530.5305305305305 0.5201941830567194
1540.5405405405404 0.5106894550257031
1550.5505505505505 0.5013251103299248
1560.5605605605606 0.49210182270542174
1570.5705705705705 0.4830198309485842
1580.5805805805805 0.4740789757580228
1590.5905905905906 0.46527873366483047
1600.6006006006005 0.4566182482309677
1610.6106106106106 0.4480963586917341
1620.6206206206207 0.4397116262146195
1630.6306306306305 0.43146235794356036
1640.6406406406406 0.4233466289950051
1650.6506506506507 0.4153623025705665
1660.6606606606606 0.40750704835058876
1670.6706706706707 0.39977835933413813
1680.6806806806808 0.39217356729394276
1690.6906906906906 0.38468985702012076
1700.7007007007007 0.37732530427700073
1710.7107107107108 0.37008085129217444
1720.7207207207207 0.3629526553180688
1730.7307307307308 0.35593632493652
1740.7407407407409 0.34902750760957035
1750.7507507507507 0.34222189018148774
1760.7607607607606 0.3355152007074211
1770.770770770771 0.3289032118996171
1780.7807807807808 0.32238174653431345
1790.7907907907907 0.3159466852212434
1800.8008008008007 0.30959397700293123
1810.8108108108108 0.30331965332185984
1820.8208208208207 0.2971198459685477
1830.8308308308308 0.2909908096998646
1840.8408408408409 0.2849289502901188
1850.8508508508507 0.2789308588411311
1860.8608608608608 0.27299335322238244
1870.870870870871 0.26711352752568174
1880.8808808808808 0.2612888103838119
1890.890890890891 0.25551703289764105
1900.900900900901 0.24979650671463996
1910.9109109109108 0.24412611247211607
1920.920920920921 0.2385053983258173
1930.930930930931 0.23293468759280725
1940.940940940941 0.22741519361443896
1950.950950950951 0.2219491387693333
1960.960960960961 0.21653987313700046
1970.970970970971 0.21119198666329708
1980.980980980981 0.20591140689096046
1990.9909909909911 0.20070547253639917
2001.001001001001 0.19558297163511143
2011.0110110110109 0.1905541319334371
2021.0210210210212 0.18563055102293943
2031.031031031031 0.1808250547654105
2041.0410410410411 0.17615147516959398
2051.051051051051 0.17162434325743223
2061.061061061061 0.16725849857968197
2071.071071071071 0.16306862458688137
2081.081081081081 0.15906872736603456
2091.091091091091 0.15527158333375926
2101.101101101101 0.15168818814919896
2111.1111111111113 0.14832724318549284
2121.121121121121 0.14519471642526552
2131.131131131131 0.14229351114042443
2141.141141141141 0.1396232683186162
2151.151151151151 0.1371803182929006
2161.161161161161 0.13495778472678574
2171.1711711711714 0.1329458315971747
2181.1811811811813 0.13113203268421264
2191.191191191191 0.12950183461005207
2201.201201201201 0.12803907947145943
2211.2112112112113 0.12672655181906844
2221.221221221221 0.12554651685164633
2231.2312312312315 0.12448122151257275
2241.2412412412414 0.1235133367601355
2251.2512512512512 0.12262632664186086
2261.261261261261 0.1218047370422867
2271.271271271271 0.12103440340013052
2281.2812812812813 0.12030258185956258
2291.2912912912916 0.11959801203259211
2301.3013013013015 0.11891092181550987
2311.3113113113113 0.11823298568322732
2321.321321321321 0.1175572478314205
2331.331331331331 0.11687802073088951
2341.3413413413414 0.11619076837506992
2351.3513513513512 0.11549198197644087
2361.3613613613616 0.11477905428608147
2371.3713713713714 0.11405015720469007
2381.3813813813813 0.11330412600604681
2391.391391391391 0.11254035234802648
2401.4014014014015 0.11175868731449995
2411.4114114114113 0.11095935500576856
2421.4214214214217 0.11014287665495218
2431.4314314314315 0.10931000486610176
2441.4414414414414 0.10846166731806231
2451.4514514514512 0.10759891912874738
2461.4614614614616 0.10672290300281134
2471.4714714714714 0.10583481627069048
2481.4814814814818 0.10493588395137822
2491.4914914914916 0.10402733702149485
2501.5015015015015 0.10311039513878013
2511.5115115115113 0.10218625314136617
2521.521521521521 0.1012560707195809
2531.5315315315315 0.10032096473081598
2541.541541541542 0.09938200369775164
2551.5515515515517 0.0984402040945188
2561.5615615615616 0.09749652808349595
2571.5715715715714 0.09655188241716363
2581.5815815815813 0.09560711826490619
2591.5915915915916 0.094663031764201
2601.6016016016015 0.09372036512973417
2611.611611611612 0.09277980818315662
2621.6216216216217 0.0918420001909894
2631.6316316316315 0.0909075319191291
2641.6416416416414 0.08997694783000179
2651.6516516516517 0.08905074836311484
2661.6616616616616 0.08812939225198796
2671.671671671672 0.08721329884056393
2681.6816816816818 0.08630285037053967
2691.6916916916916 0.08539839421788936
2701.7017017017015 0.08450024506242709
2711.711711711712 0.08360868697877391
2721.7217217217217 0.0827239754407385
2731.731731731732 0.08184633923403409
2741.741741741742 0.08097598227457145
2751.7517517517517 0.08011308533138577
2761.7617617617616 0.07925780765467293
2771.7717717717715 0.07841028851049062
2781.781781781782 0.07757064862449776
2791.791791791792 0.07673899153769966
2801.801801801802 0.07591540487758706
2811.811811811812 0.07509996154833813
2821.8218218218217 0.07429272084392048
2831.8318318318316 0.07349372948800932
2841.841841841842 0.0727030226046519
2851.851851851852 0.0719206246235643
2861.861861861862 0.07114655012386699
2871.871871871872 0.07038080461995447
2881.881881881882 0.06962338529306003
2891.8918918918916 0.06887428167193292
2901.901901901902 0.0681334762658843
2911.911911911912 0.06740094515330149
2921.921921921922 0.06667665852856246
2931.931931931932 0.06596058121012348
2941.941941941942 0.06525267311238961
2951.9519519519517 0.06455288968382415
2961.961961961962 0.0638611823136016
2971.971971971972 0.06317749870896373
2981.9819819819822 0.0625017832452998
2991.991991991992 0.06183397729084168
3002.002002002002 0.061174019507737425
3012.012012012012 0.06052184613115149
3022.0220220220217 0.059877391227926444
3032.032032032032 0.059400898232843675
3042.0420420420423 0.058750630902014385
3052.052052052052 0.0581025934734349
3062.062062062062 0.057458322772510326
3072.072072072072 0.05681910999471586
3082.0820820820823 0.0561860287418932
3092.092092092092 0.055559960550933325
3102.102102102102 0.0549416180421492
3112.1121121121123 0.054331565830423485
3122.122122122122 0.053730239350781174
3132.132132132132 0.05313796175310427
3142.1421421421423 0.05255495901967059
3152.152152152152 0.051981373455171793
3162.162162162162 0.051417275692749946
3172.1721721721724 0.050862675352072145
3182.1821821821823 0.05031753047709365
3192.192192192192 0.04978175587234782
3202.202202202202 0.049255230447666165
3212.2122122122123 0.04873780367239592
3222.222222222222 0.04822930123161673
3232.232232232232 0.047729529968673065
3242.2422422422424 0.04723828219060876
3252.252252252252 0.04675533940585621
3262.262262262262 0.046280475556818475
3272.2722722722724 0.0458134598037873
3282.2822822822823 0.04535405891095518
3292.292292292292 0.04490203928008841
3302.3023023023025 0.044457168672702406
3312.3123123123123 0.04401921765729708
3322.322322322322 0.04358796081433492
3332.3323323323325 0.04316317772814821
3342.3423423423424 0.04274465379181567
3352.352352352352 0.04233218084821843
3362.3623623623625 0.04192555768794963
3372.3723723723724 0.04152459042247446
3382.3823823823823 0.04112909274890115
3392.3923923923926 0.0407388861209033
3402.4024024024025 0.04035379983870221
3412.4124124124123 0.03997367106956506
3422.4224224224226 0.03959834480897435
3432.4324324324325 0.0392276737914643
3442.4424424424424 0.03886151835908412
3452.4524524524522 0.038499746294524774
3462.4624624624626 0.038142232625121
3472.4724724724724 0.03778885940320531
3482.4824824824823 0.03743951546763323
3492.4924924924926 0.0370940961907153
3502.5025025025025 0.03675250321426685
3512.5125125125123 0.03641464417802206
3522.5225225225226 0.036080432443241515
3532.5325325325325 0.035749786813972284
3542.5425425425424 0.03542263125808795
3552.5525525525527 0.035098894629941
3562.5625625625626 0.03477851039619662
3572.5725725725724 0.03446141636618229
3582.5825825825827 0.034147554427878916
3592.5925925925926 0.03383687029049286
3602.6026026026025 0.033529313234383046
3612.612612612613 0.03322483586897081
3622.6226226226227 0.032923393899129065
3632.6326326326325 0.03262494590043277
3642.642642642643 0.03232945310355089
3652.6526526526527 0.032036879187969436
3662.6626626626626 0.031747190085156564
3672.672672672673 0.03146035379121229
3682.6826826826828 0.031176340188983735
3692.6926926926926 0.03089512087957534
3702.7027027027025 0.030616669023137713
3712.712712712713 0.03034095918878012
3722.7227227227227 0.03006796721341909
3732.7327327327325 0.029797670069345954
3742.742742742743 0.029530045740275707
3752.7527527527527 0.029265073105617958
3762.7627627627626 0.029002731832697085
3772.772772772773 0.028743002276636453
3782.7827827827828 0.028485865387612462
3792.7927927927926 0.028231302625177906
3802.802802802803 0.027979295879351204
3812.812812812813 0.0277298273981648
3822.8228228228227 0.02748287972136758
3832.832832832833 0.027238435619977137
3842.842842842843 0.026996478041380872
3852.8528528528527 0.02675699005968971
3862.862862862863 0.026519954831053117
3872.872872872873 0.02628535555365114
3882.8828828828828 0.026053175432085084
3892.892892892893 0.025823397645898194
3902.902902902903 0.025596005321963464
3912.912912912913 0.025370981510486435
3922.922922922923 0.02514830916437872
3932.932932932933 0.02492797112176782
3942.942942942943 0.024709950091417396
3952.9529529529527 0.024494228640842507
3962.962962962963 0.024280789186913603
3972.972972972973 0.02406961398875186
3982.982982982983 0.023860685142728964
3992.992992992993 0.023653984579392818
4003.003003003003 0.023449494062150703
4013.013013013013 0.023247195187549394
4023.023023023023 0.023047069387001493
4033.033033033033 0.022849097929815303
4043.043043043043 0.022653261927393975
4053.053053053053 0.022459542338477977
4063.063063063063 0.02226791997531234
4073.073073073073 0.022078375510628134
4083.0830830830832 0.02189088948533459
4093.093093093093 0.02170544231682545
4103.103103103103 0.021522014307809555
4113.113113113113 0.02134058565558258
4123.123123123123 0.02116113646166209
4133.133133133133 0.020983646741715066
4143.143143143143 0.02080809643571151
4153.153153153153 0.020634465418243715
4163.163163163163 0.020462733508955316
4173.173173173173 0.020292880483029418
4183.183183183183 0.020124886081689195
4193.193193193193 0.019958730022668594
4203.203203203203 0.01979439201061511
4213.213213213214 0.019631851747389878
4223.223223223224 0.019471088942234024
4233.2332332332335 0.01931208332177363
4243.243243243243 0.01915481463983842
4253.253253253253 0.01899926268707261
4263.263263263263 0.018845407300318473
4273.273273273273 0.018693228371756188
4283.283283283283 0.018542705857785464
4293.293293293293 0.01839381978763694
4303.303303303303 0.0182465502717029
4313.313313313313 0.018100877509579224
4323.323323323323 0.017956781797811527
4333.333333333334 0.017814243537340808
4343.343343343344 0.017673243240644593
4353.353353353354 0.01753376153857122
4363.3633633633635 0.017395779186866283
4373.373373373373 0.01725927707239092
4383.383383383383 0.017124236219032907
4393.393393393393 0.016990637793312387
4403.403403403403 0.01685846310968477
4413.413413413413 0.01672769363554399
4423.423423423424 0.0165983109959304
4433.4334334334335 0.016470296977947448
4443.443443443443 0.01634363353489237
4453.453453453454 0.016218302790106328
4463.463463463464 0.016094287040550007
4473.473473473474 0.015971568760110362
4483.483483483484 0.01585013060264575
4493.493493493494 0.015729955404775432
4503.503503503503 0.015611026188420819
4513.513513513513 0.015493326163105404
4523.523523523523 0.01537683872802036
4533.533533533533 0.015261547473863553
4543.543543543543 0.01514743618445874
4553.553553553554 0.01503448883816277
4563.563563563564 0.014922689609067995
4573.573573573573 0.014812022868007143
4583.583583583584 0.01470247318336829
4593.593593593594 0.014594025321726892
4603.603603603604 0.01448666424830226
4613.613613613614 0.014380375127245666
4623.623623623624 0.014275143321766888
4633.6336336336335 0.014170954394106422
4643.643643643643 0.014067794105359934
4653.653653653653 0.013965648415161739
4663.663663663663 0.013864503481233912
4673.673673673674 0.013764345658807312
4683.683683683684 0.013665161499921027
4693.693693693694 0.013566937752606043
4703.703703703704 0.013469661359959431
4713.713713713714 0.013373319459114706
4723.723723723724 0.013277899380114012
4733.733733733734 0.013183388644687686
4743.743743743744 0.013089774964946618
4753.753753753754 0.01299704624199241
4763.763763763764 0.012905190564450546
4773.773773773773 0.012814196206931276
4783.783783783783 0.012724051628423164
4793.793793793793 0.01263474547062354
4803.803803803804 0.012546266556210488
4813.813813813814 0.012458603887060582
4823.823823823824 0.012371746642416338
4833.833833833834 0.01228568417700747
4843.843843843844 0.01220040601912971
4853.853853853854 0.012115901868684765
4863.863863863864 0.012032161595185038
4873.873873873874 0.01194917523572643
4883.883883883884 0.011866932992932469
4893.893893893894 0.011785425232872864
4903.9039039039035 0.011704642482959535
4913.913913913913 0.011624575429822818
4923.923923923924 0.011545214917170745
4933.933933933934 0.011466551943633989
4943.943943943944 0.01138857766059875
4953.953953953955 0.01131128337003031
4963.9639639639645 0.011234660522289308
4973.973973973974 0.011158700713942872
4983.983983983984 0.011083395685572863
4993.993993993994 0.011008737319583019
5004.004004004004 0.01093471763800694
5014.014014014014 0.010861328800318721
5024.024024024024 0.010788563101247773
5034.0340340340335 0.010716412968599678
5044.044044044043 0.010644870961084293
5054.054054054054 0.01057392976615276
5064.064064064064 0.0105035821978447
5074.074074074074 0.01043382119464677
5084.084084084085 0.01036463981736394
5094.0940940940945 0.010296031247004551
5104.104104104104 0.010227988782680131
5114.114114114114 0.01016050583952111
5124.124124124124 0.010093575946609278
5134.134134134134 0.010027192744927868
5144.144144144144 0.009961349985330053
5154.154154154154 0.00989604152652671
5164.1641641641645 0.009831261333093996
5174.174174174174 0.009767003473501549
5184.184184184184 0.009703262118161773
5194.194194194194 0.00964003153750083
5204.204204204204 0.009577306100051905
5214.214214214214 0.009515080270571014
5224.224224224225 0.009453348608175972
5234.2342342342345 0.00939210576450883
5244.244244244244 0.00933134648192204
5254.254254254254 0.0092710655916888
5264.264264264264 0.00921125801223769
5274.274274274274 0.009151918747411992
5284.284284284285 0.00909304288475375
5294.294294294295 0.00903462559381283
5304.304304304304 0.008976662124481083
5314.314314314314 0.00891914780535174
5324.324324324324 0.008862078042104106
5334.334334334334 0.008805448315913655
5344.344344344345 0.008749254181887498
5354.354354354355 0.008693491267525302
5364.3643643643645 0.008638155271205589
5374.374374374374 0.008583241960697452
5384.384384384384 0.008528747171697583
5394.394394394394 0.008474666806392573
5404.404404404404 0.008420996832046371
5414.414414414415 0.008367733279612866
5424.424424424425 0.008314872242373391
5434.4344344344345 0.008262409874599039
5444.444444444444 0.008210342390237695
5454.454454454454 0.008158666061625571
5464.464464464464 0.00810737721822307
5474.474474474475 0.00805647224537483
5484.484484484485 0.008005947583093713
5494.494494494495 0.007955799724868562
5504.504504504504 0.007906025216495506
5514.514514514514 0.007856620654932544
5524.524524524524 0.007807582687177277
5534.534534534535 0.007758908009167434
5544.544544544545 0.007710593364704009
5554.554554554555 0.007662635544396725
5564.5645645645645 0.0076150313846316126
5574.574574574574 0.007567777766560379
5584.584584584584 0.00752087161511132
5594.594594594595 0.0074743098980214985
5604.604604604605 0.007428089624889965
5614.614614614615 0.00738220784625158
5624.624624624625 0.007336661652671348
5634.6346346346345 0.007291448173858871
5644.644644644644 0.007246564577802567
5654.654654654654 0.007202008069923545
5664.664664664665 0.007157775892248604
5674.674674674675 0.00711386532260232
5684.684684684685 0.007070273673817654
5694.694694694695 0.007026998292964999
5704.704704704704 0.006984036560599255
5714.714714714714 0.006941385890024651
5724.724724724725 0.0068990437265770335
5734.734734734735 0.0068570075469232975
5744.744744744745 0.006815274858377673
5754.754754754755 0.006773843198234571
5764.764764764765 0.006732710133117682
5774.774774774774 0.006691873258345048
5784.784784784785 0.006651330197309776
5794.794794794795 0.006611078600876146
5804.804804804805 0.00657111614679078
5814.814814814815 0.006531440539108607
5824.824824824825 0.006492049507633331
5834.8348348348345 0.006452940807372098
5844.844844844845 0.006414112218004112
5854.854854854855 0.006375561543362883
5864.864864864865 0.0063372866109318296
5874.874874874875 0.006299285271353009
5884.884884884885 0.0062615553979486335
5894.894894894895 0.0062240948862551234
5904.9049049049045 0.006186901653569477
5914.914914914915 0.006149973638507597
5924.924924924925 0.006113308800574436
5934.934934934935 0.006076905119745523
5944.944944944945 0.006040760596059852
5954.954954954955 0.00600487324922364
5964.964964964965 0.005969241118224875
5974.974974974975 0.005933862260958328
5984.984984984985 0.005898734753860812
5994.994994994995 0.00586385669155643
6005.005005005005 0.00582922618651159
6015.015015015015 0.005794841368699556
6025.025025025025 0.005760700385274322
6035.035035035035 0.005726801400253503
6045.045045045045 0.005693142594210154
6055.055055055055 0.005659722163973162
6065.065065065065 0.0056265383223361035
6075.075075075075 0.005593589297774285
6085.085085085085 0.005560873334169789
6095.0950950950955 0.005528388690544341
6105.105105105105 0.005496133640799744
6115.115115115115 0.005464106473465715
6125.125125125125 0.005432305491454943
6135.135135135135 0.005400729011825167
6145.145145145145 0.005369375365548045
6155.155155155155 0.005338242897284729
6165.1651651651655 0.005307329965167846
6175.175175175175 0.0052766349405898244
