#lamb flux
1000.0 5.850070547747404e+39
1010.01001001001 5.900635856850021e+39
1020.0200200200201 5.94778953767166e+39
1030.03003003003 5.991586768408146e+39
1040.0400400400401 6.032086564556628e+39
1050.05005005005 6.069351336179414e+39
1060.06006006006 6.103446469873485e+39
1070.07007007007 6.134439935111292e+39
1080.08008008008 6.162401914494395e+39
1090.0900900900901 6.187404457357783e+39
1100.1001001001 6.209521156078142e+39
1110.11011011011 6.22882684437117e+39
1120.1201201201202 6.245397316809722e+39
1130.13013013013 6.259309068754496e+39
1140.1401401401401 6.270639055860027e+39
1150.1501501501502 6.279464472300218e+39
1160.16016016016 6.285862546847485e+39
1170.1701701701702 6.289910355937145e+39
1180.1801801801803 6.291684652852798e+39
1190.1901901901902 6.291261712177514e+39
1200.2002002002002 6.288717188669974e+39
1210.2102102102103 6.284125989742503e+39
1220.2202202202202 6.277562160738672e+39
1230.2302302302303 6.269098782232056e+39
1240.2402402402402 6.258807878592752e+39
1250.2502502502502 6.246760025424155e+39
1260.2602602602603 6.233023980505439e+39
1270.2702702702702 6.217666512851313e+39
1280.2802802802803 6.200754809141194e+39
1290.2902902902902 6.18235468902562e+39
1300.3003003003003 6.162530566538615e+39
1310.3103103103103 6.141345418341858e+39
1320.3203203203202 6.118860758274894e+39
1330.3303303303303 6.095136617714334e+39
1340.3403403403404 6.070231531271987e+39
1350.3503503503503 6.044202527388716e+39
1360.3603603603603 6.017105123406614e+39
1370.3703703703704 5.988993324727013e+39
1380.3803803803803 5.959919627685972e+39
1390.3903903903904 5.929935025801974e+39
1400.4004004004005 5.899089019072543e+39
1410.4104104104103 5.867429626017879e+39
1420.4204204204204 5.835003398189629e+39
1430.4304304304305 5.80185543688216e+39
1440.4404404404404 5.76802941180202e+39
1450.4504504504505 5.733567581468467e+39
1460.4604604604606 5.698510815134544e+39
1470.4704704704704 5.662898616033434e+39
1480.4804804804805 5.626769145769721e+39
1490.4904904904906 5.590159249688849e+39
1500.5005005005005 5.55310448307105e+39
1510.5105105105106 5.515639138008365e+39
1520.5205205205207 5.47779627083473e+39
1530.5305305305305 5.439607729989919e+39
1540.5405405405404 5.401104184208234e+39
1550.5505505505505 5.362315150932284e+39
1560.5605605605606 5.3232690248608655e+39
1570.5705705705705 5.2839931065484996e+39
1580.5805805805805 5.244513630981519e+39
1590.5905905905906 5.204855796063017e+39
1600.6006006006005 5.165043790945478e+39
1610.6106106106106 5.1251008241562266e+39
1620.6206206206207 5.0850491514664763e+39
1630.6306306306305 5.044910103460266e+39
1640.6406406406406 5.004704112764312e+39
1650.6506506506507 4.9644507409047347e+39
1660.6606606606606 4.924168704760592e+39
1670.6706706706707 4.883875902588349e+39
1680.6806806806808 4.8435894395949914e+39
1690.6906906906906 4.80332565304105e+39
1700.7007007007007 4.7631001491316316e+39
1710.7107107107108 4.722927851580825e+39
1720.7207207207207 4.682822933414758e+39
1730.7307307307308 4.642798889277638e+39
1740.7407407407409 4.6028685649083556e+39
1750.7507507507507 4.563044179131752e+39
1760.7607607607606 4.5233373453327274e+39
1770.770770770771 4.483759092416127e+39
1780.7807807807808 4.444319885257731e+39
1790.7907907907907 4.405029644654327e+39
1800.8008008008007 4.365897766783428e+39
1810.8108108108108 4.326933142185987e+39
1820.8208208208207 4.2881441742883646e+39
1830.8308308308308 4.249538797483015e+39
1840.8408408408409 4.2111244947905484e+39
1850.8508508508507 4.1729083151293804e+39
1860.8608608608608 4.134896890222564e+39
1870.870870870871 4.0970964511750504e+39
1880.8808808808808 4.059512844757616e+39
1890.890890890891 4.0221515494364e+39
1900.900900900901 3.985017691188428e+39
1910.9109109109108 3.9481160591431936e+39
1920.920920920921 3.9114511210875416e+39
1930.930930930931 3.8750270388644104e+39
1940.940940940941 3.8388476836844914e+39
1950.950950950951 3.802916651351631e+39
1960.960960960961 3.767237277376975e+39
1970.970970970971 3.731812651921458e+39
1980.980980980981 3.6966456344613903e+39
1990.9909909909911 3.661738868017181e+39
2001.001001001001 3.6270947927235397e+39
2011.0110110110109 3.5927156584545726e+39
2021.0210210210212 3.558603536157094e+39
2031.031031031031 3.5247603275002014e+39
2041.0410410410411 3.491187772432598e+39
2051.051051051051 3.457887454265939e+39
2061.061061061061 3.424860801986482e+39
2071.071071071071 3.392109089647889e+39
2081.081081081081 3.359633432915539e+39
2091.091091091091 3.327434783104368e+39
2101.101101101101 3.295513919350677e+39
2111.1111111111113 3.263871439841969e+39
2121.121121121121 3.2325077532473715e+39
2131.131131131131 3.201423071595888e+39
2141.141141141141 3.1706174058046005e+39
2151.151151151151 3.140090564852141e+39
2161.161161161161 3.109842159243261e+39
2171.1711711711714 3.0798716089662064e+39
2181.1811811811813 3.0501781556743324e+39
2191.191191191191 3.020760878400372e+39
2201.201201201201 2.99161871179854e+39
2211.2112112112113 2.9627504657439614e+39
2221.221221221221 2.9341548451089774e+39
2231.2312312312315 2.905830468662e+39
2241.2412412412414 2.877775886257228e+39
2251.2512512512512 2.8499895937552274e+39
2261.261261261261 2.822470045390191e+39
2271.271271271271 2.7952156635442767e+39
2281.2812812812813 2.768224846081396e+39
2291.2912912912916 2.7414959715238386e+39
2301.3013013013015 2.715027402427377e+39
2311.3113113113113 2.6888174873334265e+39
2321.321321321321 2.6628645616626837e+39
2331.331331331331 2.6371669478762498e+39
2341.3413413413414 2.6117229551790398e+39
2351.3513513513512 2.5865308789847178e+39
2361.3613613613616 2.5615890003079356e+39
2371.3713713713714 2.5368955852019423e+39
2381.3813813813813 2.5124488843194202e+39
2391.391391391391 2.4882471326423678e+39
2401.4014014014015 2.4642885494023078e+39
2411.4114114114113 2.4405713381944072e+39
2421.4214214214217 2.4170936872768943e+39
2431.4314314314315 2.393853770039457e+39
2441.4414414414414 2.370849745619946e+39
2451.4514514514512 2.3480797596468583e+39
2461.4614614614616 2.3255419450849105e+39
2471.4714714714714 2.3032344231620653e+39
2481.4814814814818 2.2811553043580003e+39
2491.4914914914916 2.2593026894361486e+39
2501.5015015015015 2.2376746705035913e+39
2511.5115115115113 2.2162693320853535e+39
2521.521521521521 2.195084752201646e+39
2531.5315315315315 2.1741190034386293e+39
2541.541541541542 2.1533701540049103e+39
2551.5515515515517 2.132836268767553e+39
2561.5615615615616 2.1125154102626465e+39
2571.5715715715714 2.0924056396767146e+39
2581.5815815815813 2.0725050177960465e+39
2591.5915915915916 2.0528116059219796e+39
2601.6016016016015 2.0333234667507356e+39
2611.611611611612 2.014038665216993e+39
2621.6216216216217 1.9949552693008344e+39
2631.6316316316315 1.9760713507980408e+39
2641.6416416416414 1.9573849860540193e+39
2651.6516516516517 1.9388942566618698e+39
2661.6616616616616 1.9205972501252608e+39
2671.671671671672 1.90249206048693e+39
2681.6816816816818 1.884576788923738e+39
2691.6916916916916 1.8668495443092624e+39
2701.7017017017015 1.8493084437449536e+39
2711.711711711712 1.8319516130609346e+39
2721.7217217217217 1.8147771872875485e+39
2731.731731731732 1.7977833110986982e+39
2741.741741741742 1.7809681392281107e+39
2751.7517517517517 1.7643298368595637e+39
2761.7617617617616 1.747866579992158e+39
2771.7717717717715 1.7315765557816335e+39
2781.781781781782 1.715457962858763e+39
2791.791791791792 1.699509011625796e+39
2801.801801801802 1.6837279245318825e+39
2811.811811811812 1.6681129363284156e+39
2821.8218218218217 1.652662294305171e+39
2831.8318318318316 1.6373742585080968e+39
2841.841841841842 1.622247101939572e+39
2851.851851851852 1.607279110741949e+39
2861.861861861862 1.5924685843651115e+39
2871.871871871872 1.5778138357187983e+39
2881.881881881882 1.5633131913103997e+39
2891.8918918918916 1.5489649913688956e+39
2901.901901901902 1.534767589955575e+39
2911.911911911912 1.520719355062184e+39
2921.921921921922 1.506818668697064e+39
2931.931931931932 1.493063926959894e+39
2941.941941941942 1.4794535401055377e+39
2951.9519519519517 1.4659859325975655e+39
2961.961961961962 1.452659543151919e+39
2971.971971971972 1.439472824771231e+39
2981.9819819819822 1.4264242447702358e+39
2991.991991991992 1.413512284792733e+39
3002.002002002002 1.4007354408205155e+39
3012.012012012012 1.3880922231746787e+39
3022.0220220220217 1.3755811565096947e+39
3032.032032032032 1.3632042752709052e+39
3042.0420420420423 1.3509526884601557e+39
3052.052052052052 1.3388287953472554e+39
3062.062062062062 1.3268312122561458e+39
3072.072072072072 1.3149585646253566e+39
3082.0820820820823 1.3032094875413634e+39
3092.092092092092 1.2915826262106606e+39
3102.102102102102 1.2800766363758869e+39
3112.1121121121123 1.2686901846809181e+39
3122.122122122122 1.2574219489894132e+39
3132.132132132132 1.2462706186609349e+39
3142.1421421421423 1.2352348947884139e+39
3152.152152152152 1.2243134904004242e+39
3162.162162162162 1.2135051306314188e+39
3172.1721721721724 1.2028085528628344e+39
3182.1821821821823 1.1922225068377225e+39
3192.192192192192 1.1817457547513239e+39
3202.202202202202 1.1713770713198171e+39
3212.2122122122123 1.1611152438292781e+39
3222.222222222222 1.150959072166709e+39
3232.232232232232 1.1409073688348298e+39
3242.2422422422424 1.1309589589522036e+39
3252.252252252252 1.1211126802401103e+39
3262.262262262262 1.1113673829974666e+39
3272.2722722722724 1.1017219300649854e+39
3282.2822822822823 1.092175196779657e+39
3292.292292292292 1.0827260709205446e+39
3302.3023023023025 1.0733734526467924e+39
3312.3123123123123 1.0641162544286822e+39
3322.322322322322 1.0549534009724828e+39
3332.3323323323325 1.0458838291397778e+39
3342.3423423423424 1.0369064878619104e+39
3352.352352352352 1.0280203380500889e+39
3362.3623623623625 1.0192243525017097e+39
3372.3723723723724 1.0105175158033353e+39
3382.3823823823823 1.0018988242307718e+39
3392.3923923923926 9.933672856466461e+38
3402.4024024024025 9.849219193958223e+38
3412.4124124124123 9.765617561989851e+38
3422.4224224224226 9.682858380446895e+38
3432.4324324324325 9.600932180801384e+38
3442.4424424424424 9.519829605009244e+38
3452.4524524524522 9.439541404399602e+38
3462.4624624624626 9.360058438557972e+38
3472.4724724724724 9.281371674205049e+38
3482.4824824824823 9.203472184072706e+38
3492.4924924924926 9.126351145778771e+38
3502.5025025025025 9.049999840701766e+38
3512.5125125125123 8.974409652856867e+38
3522.5225225225226 8.899572067774107e+38
3532.5325325325325 8.825478671379823e+38
3542.5425425425424 8.752121148882127e+38
3552.5525525525527 8.679491283661253e+38
3562.5625625625626 8.607580956165414e+38
3572.5725725725724 8.536382142812755e+38
3582.5825825825827 8.465886914900002e+38
3592.5925925925926 8.39608743751825e+38
3602.6026026026025 8.326975968476307e+38
3612.612612612613 8.258544857232006e+38
3622.6226226226227 8.190786543831753e+38
3632.6326326326325 8.123693557858624e+38
3642.642642642643 8.057258517389298e+38
3652.6526526526527 7.991474127959992e+38
3662.6626626626626 7.926333181541519e+38
3672.672672672673 7.8618285555238e+38
3682.6826826826828 7.797953211709769e+38
3692.6926926926926 7.734700195318901e+38
3702.7027027027025 7.67206263400037e+38
3712.712712712713 7.610033736855938e+38
3722.7227227227227 7.548606793472703e+38
3732.7327327327325 7.4877751729655e+38
3742.742742742743 7.427532323029316e+38
3752.7527527527527 7.367871769001407e+38
3762.7627627627626 7.308787112933325e+38
3772.772772772773 7.250272032672757e+38
3782.7827827827828 7.192320280955177e+38
3792.7927927927926 7.134925684505254e+38
3802.802802802803 7.078082143148023e+38
3812.812812812813 7.021783628929769e+38
3822.8228228228227 6.966024185248517e+38
3832.832832832833 6.910797925994183e+38
3842.842842842843 6.856099034698224e+38
3852.8528528528527 6.801921763692807e+38
3862.862862862863 6.7482604332793755e+38
3872.872872872873 6.695109430906609e+38
3882.8828828828828 6.6424632103575785e+38
3892.892892892893 6.590316290946274e+38
3902.902902902903 6.53866325672313e+38
3912.912912912913 6.487498755689702e+38
3922.922922922923 6.436817499022283e+38
3932.932932932933 6.3866142603045326e+38
3942.942942942943 6.336883874768821e+38
3952.9529529529527 6.287621238546431e+38
3962.962962962963 6.238821307926401e+38
3972.972972972973 6.190479098622985e+38
3982.982982982983 6.142589685051642e+38
3992.992992992993 6.095148199613417e+38
4003.003003003003 6.048149831987783e+38
4013.013013013013 6.001589828433678e+38
4023.023023023023 5.955463491098781e+38
4033.033033033033 5.909766177336924e+38
4043.043043043043 5.864493299033513e+38
4053.053053053053 5.819640321938945e+38
4063.063063063063 5.7752027650098885e+38
4073.073073073073 5.731176199758378e+38
4083.0830830830832 5.687556249608632e+38
4093.093093093093 5.644338589261526e+38
4103.103103103103 5.601518944066613e+38
4113.113113113113 5.559093089401682e+38
4123.123123123123 5.517056850059666e+38
4133.133133133133 5.475406099642935e+38
4143.143143143143 5.434136759964855e+38
4153.153153153153 5.393244800458507e+38
4163.163163163163 5.35272623759252e+38
4173.173173173173 5.312577134293955e+38
4183.183183183183 5.272793599378151e+38
4193.193193193193 5.233371786985436e+38
4203.203203203203 5.194307896024666e+38
4213.213213213214 5.1555981696235264e+38
4223.223223223224 5.117238894585469e+38
4233.2332332332335 5.079226400853269e+38
4243.243243243243 5.041557060979095e+38
4253.253253253253 5.004227289601049e+38
4263.263263263263 4.9672335429260844e+38
4273.273273273273 4.930572318219238e+38
4283.283283283283 4.894240153299111e+38
4293.293293293293 4.858233626039546e+38
4303.303303303303 4.8225493538773774e+38
4313.313313313313 4.787183993326278e+38
4323.323323323323 4.7521342394965174e+38
4333.333333333334 4.71739682562069e+38
4343.343343343344 4.682968522585259e+38
4353.353353353354 4.648846138467876e+38
4363.3633633633635 4.615026518080429e+38
4373.373373373373 4.581506542517728e+38
4383.383383383383 4.548283128711789e+38
4393.393393393393 4.515353228991629e+38
4403.403403403403 4.482713830648536e+38
4413.413413413413 4.450361955506715e+38
4423.423423423424 4.4182946594992925e+38
4433.4334334334335 4.386509032249591e+38
4443.443443443443 4.3550021966576095e+38
4453.453453453454 4.3237713084916474e+38
4463.463463463464 4.292813555985092e+38
4473.473473473474 4.262126159438126e+38
4483.483483483484 4.231706370824525e+38
4493.493493493494 4.201551473403302e+38
4503.503503503503 4.1716587813352504e+38
4513.513513513513 4.1420256393042825e+38
4523.523523523523 4.112649422143493e+38
4533.533533533533 4.0835275344659735e+38
4543.543543543543 4.054657410300193e+38
4553.553553553554 4.026036512730012e+38
4563.563563563564 3.99766233353921e+38
4573.573573573573 3.969532392860478e+38
4583.583583583584 3.941644238828833e+38
4593.593593593594 3.9139954472394216e+38
4603.603603603604 3.886583621209602e+38
4613.613613613614 3.859406390845326e+38
4623.623623623624 3.832461412911707e+38
4633.6336336336335 3.805746370507752e+38
4643.643643643643 3.779258972745233e+38
4653.653653653653 3.752996954431569e+38
4663.663663663663 3.72695807575676e+38
4673.673673673674 3.701140121984266e+38
4683.683683683684 3.675540903145801e+38
4693.693693693694 3.65015825374e+38
4703.703703703704 3.624990032434885e+38
4713.713713713714 3.600034121774132e+38
4723.723723723724 3.5752884278870355e+38
4733.733733733734 3.55075088020216e+38
4743.743743743744 3.526419431164639e+38
4753.753753753754 3.502292055957035e+38
4763.763763763764 3.478366752223776e+38
4773.773773773773 3.454641539799044e+38
4783.783783783783 3.4311144604381825e+38
4793.793793793793 3.4077835775524584e+38
4803.803803803804 3.3846469759472176e+38
4813.813813813814 3.361702761563387e+38
4823.823823823824 3.3389490612222164e+38
4833.833833833834 3.3163840223733085e+38
4843.843843843844 3.2940058128458326e+38
4853.853853853854 3.2718126206028908e+38
4863.863863863864 3.249802653499036e+38
4873.873873873874 3.227974139040845e+38
4883.883883883884 3.2063253241505488e+38
4893.893893893894 3.184854474932672e+38
4903.9039039039035 3.163559876443633e+38
4913.913913913913 3.142439832464269e+38
4923.923923923924 3.1214926652752667e+38
4933.933933933934 3.100716715435443e+38
4943.943943943944 3.0801103415628287e+38
4953.953953953955 3.0596719201185644e+38
4963.9639639639645 3.039399845193524e+38
4973.973973973974 3.0192925282976427e+38
4983.983983983984 2.999348398151947e+38
4993.993993993994 2.9795659004832045e+38
5004.004004004004 2.9599434978211947e+38
5014.014014014014 2.9404796692985525e+38
5024.024024024024 2.9211729104531367e+38
5034.0340340340335 2.9020217330329487e+38
5044.044044044043 2.8830246648034752e+38
5054.054054054054 2.864180249357519e+38
5064.064064064064 2.8454870459274154e+38
5074.074074074074 2.826943629199646e+38
5084.084084084085 2.8085485891317858e+38
5094.0940940940945 2.790300530771799e+38
5104.104104104104 2.7721980740795887e+38
5114.114114114114 2.7542398537508374e+38
5124.124124124124 2.736424519043059e+38
5134.134134134134 2.7187507336038688e+38
5144.144144144144 2.701217175301407e+38
5154.154154154154 2.6838225360569247e+38
5164.1641641641645 2.6665655216794776e+38
5174.174174174174 2.6494448517027144e+38
5184.184184184184 2.6324592592237186e+38
5194.194194194194 2.615607490743892e+38
5204.204204204204 2.5988883060118515e+38
5214.214214214214 2.582300477868294e+38
5224.224224224225 2.5658427920928302e+38
5234.2342342342345 2.5495140472527484e+38
5244.244244244244 2.5333130545536714e+38
5254.254254254254 2.5172386376921115e+38
5264.264264264264 2.501289632709862e+38
5274.274274274274 2.4854648878502457e+38
5284.284284284285 2.469763263416142e+38
5294.294294294295 2.4541836316298256e+38
5304.304304304304 2.43872487649454e+38
5314.314314314314 2.4233858936578298e+38
5324.324324324324 2.4081655902765733e+38
5334.334334334334 2.39306288488372e+38
5344.344344344345 2.378076707256682e+38
5354.354354354355 2.363205998287391e+38
5364.3643643643645 2.3484497098539664e+38
5374.374374374374 2.333806804694001e+38
5384.384384384384 2.319276256279424e+38
5394.394394394394 2.3048570486929265e+38
5404.404404404404 2.2905481765059333e+38
5414.414414414415 2.2763486446580944e+38
5424.424424424425 2.262257468338289e+38
5434.4344344344345 2.2482736728670924e+38
5444.444444444444 2.234396293580719e+38
5454.454454454454 2.2206243757164194e+38
5464.464464464464 2.20695697429928e+38
5474.474474474475 2.1933931540304462e+38
5484.484484484485 2.179931989176729e+38
5494.494494494495 2.1665725634615773e+38
5504.504504504504 2.15331396995741e+38
5514.514514514514 2.1401553109792705e+38
5524.524524524524 2.1270956979798163e+38
5534.534534534535 2.1141342514455865e+38
5544.544544544545 2.1012701007945724e+38
5554.554554554555 2.0885023842750353e+38
5564.5645645645645 2.075830248865584e+38
5574.574574574574 2.063252850176485e+38
5584.584584584584 2.050769352352188e+38
5594.594594594595 2.0383789279750404e+38
5604.604604604605 2.0260807579702172e+38
5614.614614614615 2.0138740315117775e+38
5624.624624624625 2.0017579459299146e+38
5634.6346346346345 1.989731706619323e+38
5644.644644644644 1.977794526948692e+38
5654.654654654654 1.96594562817132e+38
5664.664664664665 1.9541842393368025e+38
5674.674674674675 1.942509597203831e+38
5684.684684684685 1.930920946154023e+38
5694.694694694695 1.9194175381068393e+38
5704.704704704704 1.9079986324355117e+38
5714.714714714714 1.8966634958840163e+38
5724.724724724725 1.8854114024850446e+38
5734.734734734735 1.874241633478986e+38
5744.744744744745 1.863153477233887e+38
5754.754754754755 1.8521462291663804e+38
5764.764764764765 1.8412191916635914e+38
5774.774774774774 1.8303716740059728e+38
5784.784784784785 1.8196029922910904e+38
5794.794794794795 1.808912469358316e+38
5804.804804804805 1.798299434714452e+38
5814.814814814815 1.7877632244602354e+38
5824.824824824825 1.7773031812177454e+38
5834.8348348348345 1.7669186540586757e+38
5844.844844844845 1.7566089984334847e+38
5854.854854854855 1.7463735761013856e+38
5864.864864864865 1.7362117550611867e+38
5874.874874874875 1.7261229094829678e+38
5884.884884884885 1.7161064196405668e+38
5894.894894894895 1.7061616718448864e+38
