#lamb flux
1000.0 7.91234002231616e+38
1010.01001001001 8.422286233609848e+38
1020.0200200200201 8.923222250891718e+38
1030.03003003003 9.413320084497611e+38
1040.0400400400401 9.891075488760137e+38
1050.05005005005 1.0355292846058147e+39
1060.06006006006 1.0805065269932653e+39
1070.07007007007 1.1239751451170765e+39
1080.08008008008 1.1658950552579239e+39
1090.0900900900901 1.2062476236851238e+39
1100.1001001001 1.2450330699703054e+39
1110.11011011011 1.2822679385352739e+39
1120.1201201201202 1.3179826888083243e+39
1130.13013013013 1.3522194394151694e+39
1140.1401401401401 1.3850298892856363e+39
1150.1501501501502 1.416473428304936e+39
1160.16016016016 1.4466154419861434e+39
1170.1701701701702 1.4755258083514385e+39
1180.1801801801803 1.5032775805288052e+39
1190.1901901901902 1.5299458452447397e+39
1200.2002002002002 1.5556067451826792e+39
1210.2102102102103 1.580336651863429e+39
1220.2202202202202 1.604211475095471e+39
1230.2302302302303 1.6273060949740063e+39
1240.2402402402402 1.6496939027384413e+39
1250.2502502502502 1.671281295097977e+39
1260.2602602602603 1.6916350731597536e+39
1270.2702702702702 1.7099005533599e+39
1280.2802802802803 1.7261360477803132e+39
1290.2902902902902 1.740404495292825e+39
1300.3003003003003 1.7527725118451275e+39
1310.3103103103103 1.763309525598758e+39
1320.3203203203202 1.7720869950850427e+39
1330.3303303303303 1.7791777075332932e+39
1340.3403403403404 1.7846551537631772e+39
1350.3503503503503 1.7885929754848743e+39
1360.3603603603603 1.7910644804829456e+39
1370.3703703703704 1.7921422209427042e+39
1380.3803803803803 1.7918976300845066e+39
1390.3903903903904 1.7904007122776426e+39
1400.4004004004005 1.7877197818906964e+39
1410.4104104104103 1.783921246281426e+39
1420.4204204204204 1.779069428520914e+39
1430.4304304304305 1.773226425671127e+39
1440.4404404404404 1.7664519986814348e+39
1450.4504504504505 1.7588034902289598e+39
1460.4604604604606 1.7503357670931516e+39
1470.4704704704704 1.7411011839205373e+39
1480.4804804804805 1.7311495654972195e+39
1490.4904904904906 1.7205282049007355e+39
1500.5005005005005 1.7092818751470103e+39
1510.5105105105106 1.697452852180774e+39
1520.5205205205207 1.6850809472777562e+39
1530.5305305305305 1.6722035471337696e+39
1540.5405405405404 1.6588556601095725e+39
1550.5505505505505 1.6450699672810776e+39
1560.5605605605606 1.63087687711299e+39
1570.5705705705705 1.6163045827309875e+39
1580.5805805805805 1.601379120914114e+39
1590.5905905905906 1.586124432066523e+39
1600.6006006006005 1.570562420557276e+39
1610.6106106106106 1.5547130149404308e+39
1620.6206206206207 1.5385942276864464e+39
1630.6306306306305 1.522222214172326e+39
1640.6406406406406 1.5056113307935626e+39
1650.6506506506507 1.4887741921784237e+39
1660.6606606606606 1.4717217276065072e+39
1670.6706706706707 1.4544632368619413e+39
1680.6806806806808 1.4370064458895087e+39
1690.6906906906906 1.4193575627729975e+39
1700.7007007007007 1.401528486806255e+39
1710.7107107107108 1.3835508896920976e+39
1720.7207207207207 1.365422753102469e+39
1730.7307307307308 1.3471374282138773e+39
1740.7407407407409 1.3286877433129006e+39
1750.7507507507507 1.3100660440732531e+39
1760.7607607607606 1.2912642461694917e+39
1770.770770770771 1.2722739028271065e+39
1780.7807807807808 1.2530862903197063e+39
1790.7907907907907 1.233692514870365e+39
1800.8008008008007 1.2140836448873691e+39
1810.8108108108108 1.1942508729495208e+39
1820.8208208208207 1.1741857124292478e+39
1830.8308308308308 1.1538802340679126e+39
1840.8408408408409 1.1333273481469522e+39
1850.8508508508507 1.1125211380623915e+39
1860.8608608608608 1.0914572510180066e+39
1870.870870870871 1.0701333510872549e+39
1880.8808808808808 1.048549638911314e+39
1890.890890890891 1.0267094406274227e+39
1900.900900900901 1.0046198660626605e+39
1910.9109109109108 9.82292532575398e+38
1920.920920920921 9.597443459818753e+38
1930.930930930931 9.369983236130013e+38
1940.940940940941 9.140844366430706e+38
1950.950950950951 8.910404395103073e+38
1960.960960960961 8.679126438359473e+38
1970.970970970971 8.447565833867637e+38
1980.980980980981 8.21637506344402e+38
1990.9909909909911 7.986306228904404e+38
2001.001001001001 7.758210317143712e+38
2011.0110110110109 7.53303250561482e+38
2021.0210210210212 7.311802853704084e+38
2031.031031031031 7.095621914546499e+38
2041.0410410410411 6.885641091346141e+38
2051.051051051051 6.683037943239708e+38
2061.061061061061 6.488987090825785e+38
2071.071071071071 6.3046278347942394e+38
2081.081081081081 6.13103002258862e+38
2091.091091091091 5.96916001287106e+38
2101.101101101101 5.8198487389729215e+38
2111.1111111111113 5.6837638252237455e+38
2121.121121121121 5.561387460099509e+38
2131.131131131131 5.453001307635916e+38
2141.141141141141 5.358679201848152e+38
2151.151151151151 5.278287791491995e+38
2161.161161161161 5.21149475689695e+38
2171.1711711711714 5.1577837640613264e+38
2181.1811811811813 5.1164749874969645e+38
2191.191191191191 5.086749831954001e+38
2201.201201201201 5.067678404679387e+38
2211.2112112112113 5.0582483139836016e+38
2221.221221221221 5.057393473119654e+38
2231.2312312312315 5.064021749003007e+38
2241.2412412412414 5.077040494681837e+38
2251.2512512512512 5.0953792271161436e+38
2261.261261261261 5.118008943704685e+38
2271.271271271271 5.143957798771774e+38
2281.2812812812813 5.172323072334583e+38
2291.2912912912916 5.2022795470152516e+38
2301.3013013013015 5.2330845568337046e+38
2311.3113113113113 5.264080079365364e+38
2321.321321321321 5.294692309836545e+38
2331.331331331331 5.324429185141532e+38
2341.3413413413414 5.3528763231182084e+38
2351.3513513513512 5.3796918148542906e+38
2361.3613613613616 5.404600262895169e+38
2371.3713713713714 5.427386403124073e+38
2381.3813813813813 5.447888588891583e+38
2391.391391391391 5.4659923574548175e+38
2401.4014014014015 5.48162424433083e+38
2411.4114114114113 5.494745962882342e+38
2421.4214214214217 5.505349025385175e+38
2431.4314314314315 5.513449848211708e+38
2441.4414414414414 5.5190853572722806e+38
2451.4514514514512 5.522309089801555e+38
2461.4614614614616 5.523187774087547e+38
2471.4714714714714 5.521798358889422e+38
2481.4814814814818 5.518225458170932e+38
2491.4914914914916 5.51255917356589e+38
2501.5015015015015 5.5048932559707806e+38
2511.5115115115113 5.495323568223416e+38
2521.521521521521 5.483946812484472e+38
2531.5315315315315 5.4708594883025054e+38
2541.541541541542 5.4561570501141266e+38
2551.5515515515517 5.439933235887873e+38
2561.5615615615616 5.422279541601883e+38
2571.5715715715714 5.403284819141214e+38
2581.5815815815813 5.3830349779374954e+38
2591.5915915915916 5.361612773207911e+38
2601.6016016016015 5.3390976659596456e+38
2611.611611611612 5.3155657420030756e+38
2621.6216216216217 5.291089679065277e+38
2631.6316316316315 5.2657387527256526e+38
2641.6416416416414 5.239578873322315e+38
2651.6516516516517 5.212672647218404e+38
2661.6616616616616 5.185079456889921e+38
2671.671671671672 5.156855555218818e+38
2681.6816816816818 5.128054170164418e+38
2691.6916916916916 5.098725616658878e+38
2701.7017017017015 5.068917413143324e+38
2711.711711711712 5.038674400644116e+38
2721.7217217217217 5.008038862695319e+38
2731.731731731732 4.977050644754575e+38
2741.741741741742 4.945747272045233e+38
2751.7517517517517 4.91416406499489e+38
2761.7617617617616 4.8823342516379146e+38
2771.7717717717715 4.850289076512052e+38
2781.781781781782 4.8180579057131986e+38
2791.791791791792 4.785668327881648e+38
2801.801801801802 4.753146250981935e+38
2811.811811811812 4.720515994810099e+38
2821.8218218218217 4.687800379219353e+38
2831.8318318318316 4.655020808100508e+38
2841.841841841842 4.622197349188842e+38
2851.851851851852 4.589348809796265e+38
2861.861861861862 4.556492808587997e+38
2871.871871871872 4.523645843537815e+38
2881.881881881882 4.490823356206241e+38
2891.8918918918916 4.4580397924926076e+38
2901.901901901902 4.4253086600155574e+38
2911.911911911912 4.392642582277866e+38
2921.921921921922 4.3600533497707215e+38
2931.931931931932 4.327551968170599e+38
2941.941941941942 4.295148703778525e+38
2951.9519519519517 4.262853126347432e+38
2961.961961961962 4.230674149438584e+38
2971.971971971972 4.198620068442796e+38
2981.9819819819822 4.1666985963966934e+38
2991.991991991992 4.134916897718583e+38
3002.002002002002 4.103281619982745e+38
3012.012012012012 4.07179892384521e+38
3022.0220220220217 4.040474511228348e+38
3032.032032032032 4.029724608123769e+38
3042.0420420420423 3.996102059528093e+38
3052.052052052052 3.9619605620340135e+38
3062.062062062062 3.9275061112109264e+38
3072.072072072072 3.892915089270646e+38
3082.0820820820823 3.8583373637834084e+38
3092.092092092092 3.823899170785949e+38
3102.102102102102 3.789705775914253e+38
3112.1121121121123 3.7558439139683574e+38
3122.122122122122 3.722384012252e+38
3132.132132132132 3.689382206496279e+38
3142.1421421421423 3.656882160485213e+38
3152.152152152152 3.624916701910342e+38
3162.162162162162 3.593509287705148e+38
3172.1721721721724 3.562675312318574e+38
3182.1821821821823 3.5324232722200294e+38
3192.192192192192 3.502755799494388e+38
3202.202202202202 3.473670576770725e+38
3212.2122122122123 3.4451611449990545e+38
3222.222222222222 3.4172176147953454e+38
3232.232232232232 3.3898272912548112e+38
3242.2422422422424 3.362975221314067e+38
3252.252252252252 3.3366446719440617e+38
3262.262262262262 3.3108175466916147e+38
3272.2722722722724 3.285474747366134e+38
3282.2822822822823 3.2605964869952132e+38
3292.292292292292 3.2361625595506773e+38
3302.3023023023025 3.2121525713755616e+38
3312.3123123123123 3.1885461387217475e+38
3322.322322322322 3.165323055335533e+38
3332.3323323323325 3.142463433601383e+38
3342.3423423423424 3.1199478223702205e+38
3352.352352352352 3.0977573042537736e+38
3362.3623623623625 3.075873574858339e+38
3372.3723723723724 3.054279006156016e+38
3382.3823823823823 3.0329566959460134e+38
3392.3923923923926 3.011890505140697e+38
3402.4024024024025 2.9910650844167514e+38
3412.4124124124123 2.9704658915998076e+38
3422.4224224224226 2.950079200997891e+38
3432.4324324324325 2.929892105763528e+38
3442.4424424424424 2.9098925142439454e+38
3452.4524524524522 2.890069141172113e+38
3462.4624624624626 2.870411494456583e+38
3472.4724724724724 2.850909858243946e+38
3482.4824824824823 2.83155527285285e+38
3492.4924924924926 2.8123395121120393e+38
3502.5025025025025 2.79325505857548e+38
3512.5125125125123 2.7742950770347932e+38
3522.5225225225226 2.75545338670198e+38
3532.5325325325325 2.736724432393067e+38
3542.5425425425424 2.7181032550055702e+38
3552.5525525525527 2.6995854615485624e+38
3562.5625625625626 2.6811671949537e+38
3572.5725725725724 2.6628451038680045e+38
3582.5825825825827 2.6446163126045088e+38
3592.5925925925926 2.6264783914044617e+38
3602.6026026026025 2.6084293271446515e+38
3612.612612612613 2.5904674946051343e+38
3622.6226226226227 2.572591628396146e+38
3632.6326326326325 2.554800795628047e+38
3642.642642642643 2.537094369394621e+38
3652.6526526526527 2.5194720031277995e+38
3662.6626626626626 2.5019336058707888e+38
3672.672672672673 2.4844793185066472e+38
3682.6826826826828 2.46710949097024e+38
3692.6926926926926 2.4498246604633953e+38
3702.7027027027025 2.432625530685777e+38
3712.712712712713 2.415512952087396e+38
3722.7227227227227 2.3984879031428773e+38
3732.7327327327325 2.3815514726422418e+38
3742.742742742743 2.364704842988501e+38
3752.7527527527527 2.3479492744881324e+38
3762.7627627627626 2.3312860906169972e+38
3772.772772772773 2.3147166642411394e+38
3782.7827827827828 2.298242404769202e+38
3792.7927927927926 2.281864746210942e+38
3802.802802802803 2.265585136114384e+38
3812.812812812813 2.249405025352592e+38
3822.8228228228227 2.233325858729753e+38
3832.832832832833 2.2173490663752883e+38
3842.842842842843 2.201476055893967e+38
3852.8528528528527 2.185708205239512e+38
3862.862862862863 2.1700468562788955e+38
3872.872872872873 2.154493309014441e+38
3882.8828828828828 2.1390488164308988e+38
3892.892892892893 2.1237145799349723e+38
3902.902902902903 2.108491745355024e+38
3912.912912912913 2.093381399469312e+38
3922.922922922923 2.078384567031614e+38
3932.932932932933 2.063502208263845e+38
3942.942942942943 2.0487352167859853e+38
3952.9529529529527 2.0340844179545383e+38
3962.962962962963 2.0195505675815863e+38
3972.972972972973 2.005134351007459e+38
3982.982982982983 1.9908363825009948e+38
3992.992992992993 1.9766572049623877e+38
4003.003003003003 1.962597289904655e+38
4013.013013013013 1.9486570376906992e+38
4023.023023023023 1.934836778004098e+38
4033.033033033033 1.9211367705326923e+38
4043.043043043043 1.9075572058451274e+38
4053.053053053053 1.8940982064414893e+38
4063.063063063063 1.8807598279602183e+38
4073.073073073073 1.8675420605244176e+38
4083.0830830830832 1.854444830211704e+38
4093.093093093093 1.8414680006326384e+38
4103.103103103103 1.8286113746037007e+38
4113.113113113113 1.815874695901715e+38
4123.123123123123 1.80325765108738e+38
4133.133133133133 1.7907598713865183e+38
4143.143143143143 1.7783809346183657e+38
4153.153153153153 1.7661203671610173e+38
4163.163163163163 1.7539776459448797e+38
4173.173173173173 1.7419522004656962e+38
4183.183183183183 1.7300434148093505e+38
4193.193193193193 1.7182506296813055e+38
4203.203203203203 1.706573144434152e+38
4213.213213213214 1.6950102190873075e+38
4223.223223223224 1.6835610763334164e+38
4233.2332332332335 1.6722249035265755e+38
4243.243243243243 1.6610008546479437e+38
4253.253253253253 1.6498880522447659e+38
4263.263263263263 1.6388855893392756e+38
4273.273273273273 1.627992531304324e+38
4283.283283283283 1.6172079177029683e+38
4293.293293293293 1.6065307640896094e+38
4303.303303303303 1.5959600637705642e+38
4313.313313313313 1.585494789522311e+38
4323.323323323323 1.5751338952658623e+38
4333.333333333334 1.5648763176960476e+38
4343.343343343344 1.5547209778646765e+38
4353.353353353354 1.544666782716805e+38
4363.3633633633635 1.5347126265795076e+38
4373.373373373373 1.5248573926027805e+38
4383.383383383383 1.5150999541523264e+38
4393.393393393393 1.5054391761541704e+38
4403.403403403403 1.4958739163911672e+38
4413.413413413413 1.4864030267516e+38
4423.423423423424 1.477025354430207e+38
4433.4334334334335 1.4677397430820319e+38
4443.443443443443 1.4585450339296301e+38
4453.453453453454 1.4494400668242232e+38
4463.463463463464 1.4404236812614936e+38
4473.473473473474 1.4314947173527092e+38
4483.483483483484 1.422652016752045e+38
4493.493493493494 1.4138944235408748e+38
4503.503503503503 1.405220785069975e+38
4513.513513513513 1.3966299527605339e+38
4523.523523523523 1.3881207828649162e+38
4533.533533533533 1.3796921371881992e+38
4543.543543543543 1.3713428837714173e+38
4553.553553553554 1.3630718975375826e+38
4563.563563563564 1.354878060901467e+38
4573.573573573573 1.3467602643441913e+38
4583.583583583584 1.3387174069536516e+38
4593.593593593594 1.3307483969318094e+38
4603.603603603604 1.3228521520698764e+38
4613.613613613614 1.3150276001924334e+38
4623.623623623624 1.3072736795714633e+38
4633.6336336336335 1.2995893393113513e+38
4643.643643643643 1.291973539705811e+38
4653.653653653653 1.284425252567732e+38
4663.663663663663 1.2769434615329265e+38
4673.673673673674 1.2695271623386988e+38
4683.683683683684 1.2621753630782133e+38
4693.693693693694 1.2548870844315353e+38
4703.703703703704 1.2476613598742766e+38
4713.713713713714 1.240497235864709e+38
4723.723723723724 1.233393772010213e+38
4733.733733733734 1.2263500412138913e+38
4743.743743743744 1.2193651298021889e+38
4753.753753753754 1.2124381376342904e+38
4763.763763763764 1.2055681781941029e+38
4773.773773773773 1.1987543786655489e+38
4783.783783783783 1.1919958799919501e+38
4793.793793793793 1.1852918369201714e+38
4803.803803803804 1.1786414180302578e+38
4813.813813813814 1.1720438057512177e+38
4823.823823823824 1.1654981963636243e+38
4833.833833833834 1.1590037999896545e+38
4843.843843843844 1.152559840571195e+38
4853.853853853854 1.1461655558366009e+38
4863.863863863864 1.1398201972566965e+38
4873.873873873874 1.1335230299905586e+38
4883.883883883884 1.1272733328216471e+38
4893.893893893894 1.1210703980847782e+38
4903.9039039039035 1.1149135315844662e+38
4913.913913913913 1.1088020525051115e+38
4923.923923923924 1.102735293313501e+38
4933.933933933934 1.096712599654089e+38
4943.943943943944 1.0907333302374777e+38
4953.953953953955 1.0847968567225384e+38
4963.9639639639645 1.0789025635925664e+38
4973.973973973974 1.0730498480258667e+38
4983.983983983984 1.0672381197611515e+38
4993.993993993994 1.0614668009581067e+38
5004.004004004004 1.0557353260534811e+38
5014.014014014014 1.0500431416130383e+38
5024.024024024024 1.044389706179684e+38
5034.0340340340335 1.0387744901180982e+38
5044.044044044043 1.0331969754561509e+38
5054.054054054054 1.0276566557234056e+38
5064.064064064064 1.0221530357869785e+38
5074.074074074074 1.0166856316850189e+38
5084.084084084085 1.0112539704580658e+38
5094.0940940940945 1.0058575899785318e+38
5104.104104104104 1.0004960387785325e+38
5114.114114114114 9.95168875876301e+37
5124.124124124124 9.898756706013952e+37
5134.134134134134 9.846160024189036e+37
5144.144144144144 9.793894607528458e+37
5154.154154154154 9.741956448089634e+37
5164.1641641641645 9.69034163397065e+37
5174.174174174174 9.639046347531188e+37
5184.184184184184 9.588066863612363e+37
5194.194194194194 9.537399547757172e+37
5204.204204204204 9.487040854433022e+37
5214.214214214214 9.436987325257695e+37
5224.224224224225 9.387235587230191e+37
5234.2342342342345 9.337782350967703e+37
5244.244244244244 9.288624408949923e+37
5254.254254254254 9.239758633771895e+37
5264.264264264264 9.191181976406457e+37
5274.274274274274 9.142891464477411e+37
5284.284284284285 9.094884200544308e+37
5294.294294294295 9.047157360399867e+37
5304.304304304304 8.999708191380843e+37
5314.314314314314 8.952534010693265e+37
5324.324324324324 8.905632203752736e+37
5334.334334334334 8.859000222540636e+37
5344.344344344345 8.812635583976788e+37
5354.354354354355 8.766535868309436e+37
5364.3643643643645 8.720698717522874e+37
5374.374374374374 8.675121833763603e+37
5384.384384384384 8.629802977785246e+37
5394.394394394394 8.58473996741295e+37
5404.404404404404 8.539930676027562e+37
5414.414414414415 8.495373031070096e+37
5424.424424424425 8.4510650125668315e+37
5434.4344344344345 8.407004651675381e+37
5444.444444444444 8.36319002925208e+37
5454.454454454454 8.319619274440984e+37
5464.464464464464 8.276290563284691e+37
5474.474474474475 8.233202117357233e+37
5484.484484484485 8.190352202419298e+37
5494.494494494495 8.147739127095837e+37
5504.504504504504 8.105361241576337e+37
5514.514514514514 8.06321693633777e+37
5524.524524524524 8.02130464089042e+37
5534.534534534535 7.979622822546576e+37
5544.544544544545 7.938169985212208e+37
5554.554554554555 7.89694466820164e+37
5564.5645645645645 7.855945445075226e+37
5574.574574574574 7.815170922500058e+37
5584.584584584584 7.774619739133645e+37
5594.594594594595 7.734290564530509e+37
5604.604604604605 7.694182098071783e+37
5614.614614614615 7.654293067917471e+37
5624.624624624625 7.614622229981551e+37
5634.6346346346345 7.575168366929674e+37
5644.644644644644 7.535930287199347e+37
5654.654654654654 7.49690682404254e+37
5664.664664664665 7.45809683459044e+37
5674.674674674675 7.419499198940444e+37
5684.684684684685 7.381112819264853e+37
5694.694694694695 7.342936618941474e+37
5704.704704704704 7.304969541705693e+37
5714.714714714714 7.267210550823877e+37
5724.724724724725 7.229658628287976e+37
5734.734734734735 7.192312774030989e+37
5744.744744744745 7.155172005163166e+37
5754.754754754755 7.11823535522865e+37
5764.764764764765 7.08150187348239e+37
5774.774774774774 7.044970624186994e+37
5784.784784784785 7.008640685929328e+37
5794.794794794795 6.972511150956603e+37
5804.804804804805 6.936581124531658e+37
5814.814814814815 6.90084972430718e+37
5824.824824824825 6.865316079718629e+37
5834.8348348348345 6.829979331395504e+37
5844.844844844845 6.794838630590796e+37
5854.854854854855 6.759893138628204e+37
5864.864864864865 6.725142026366929e+37
5874.874874874875 6.690584473683746e+37
5884.884884884885 6.6562196689719975e+37
5894.894894894895 6.622046808657287e+37
