#lamb flux
1000.0 8.67480796276746e+38
1010.01001001001 8.843271692493794e+38
1020.0200200200201 8.988330580953058e+38
1030.03003003003 9.111107951121638e+38
1040.0400400400401 9.212841347978439e+38
1050.05005005005 9.29484522514009e+38
1060.06006006006 9.358478750948579e+38
1070.07007007007 9.405118548786934e+38
1080.08008008008 9.436136062397902e+38
1090.0900900900901 9.452879158283167e+38
1100.1001001001 9.456657534498373e+38
1110.11011011011 9.448731489953649e+38
1120.1201201201202 9.430303613460321e+38
1130.13013013013 9.402512971219493e+38
1140.1401401401401 9.36643140035606e+38
1150.1501501501502 9.32306155063534e+38
1160.16016016016 9.273336353733506e+38
1170.1701701701702 9.218119637207035e+38
1180.1801801801803 9.158207637085793e+38
1190.1901901901902 9.09433119776399e+38
1200.2002002002002 9.0271584799404e+38
1210.2102102102103 8.957298026414271e+38
1220.2202202202202 8.885302061448697e+38
1230.2302302302303 8.811669922194635e+38
1240.2402402402402 8.736851540460721e+38
1250.2502502502502 8.660627057626312e+38
1260.2602602602603 8.581538879713494e+38
1270.2702702702702 8.496722329228727e+38
1280.2802802802803 8.406782137000458e+38
1290.2902902902902 8.312288886156453e+38
1300.3003003003003 8.213779139925239e+38
1310.3103103103103 8.111755866886511e+38
1320.3203203203202 8.006689110132881e+38
1330.3303303303303 7.899016852937867e+38
1340.3403403403404 7.789146039269718e+38
1350.3503503503503 7.677453712812516e+38
1360.3603603603603 7.564288243037052e+38
1370.3703703703704 7.449970611301379e+38
1380.3803803803803 7.334795733963407e+38
1390.3903903903904 7.21903380307182e+38
1400.4004004004005 7.102931628388585e+38
1410.4104104104103 6.986713967312459e+38
1420.4204204204204 6.870584831745637e+38
1430.4304304304305 6.754728763103401e+38
1440.4404404404404 6.639312068538684e+38
1450.4504504504505 6.524484013066491e+38
1460.4604604604606 6.410377963655415e+38
1470.4704704704704 6.297112482528825e+38
1480.4804804804805 6.184792367911636e+38
1490.4904904904906 6.073509641290731e+38
1500.5005005005005 5.9633444809488065e+38
1510.5105105105106 5.854366102100666e+38
1520.5205205205207 5.7466335844243924e+38
1530.5305305305305 5.640196648152199e+38
1540.5405405405404 5.5350963801808586e+38
1550.5505505505505 5.431365911891085e+38
1560.5605605605606 5.329031050539835e+38
1570.5705705705705 5.2281108662194065e+38
1580.5805805805805 5.1286182364701594e+38
1590.5905905905906 5.0305603506981484e+38
1600.6006006006005 4.9339391765916355e+38
1610.6106106106106 4.8387518907578154e+38
1620.6206206206207 4.744991275818934e+38
1630.6306306306305 4.652646086221081e+38
1640.6406406406406 4.561701385024309e+38
1650.6506506506507 4.472138853964954e+38
1660.6606606606606 4.383937079114535e+38
1670.6706706706707 4.2970718145104926e+38
1680.6806806806808 4.211516226206853e+38
1690.6906906906906 4.127241119293847e+38
1700.7007007007007 4.044230195716438e+38
1710.7107107107108 3.962508970437792e+38
1720.7207207207207 3.882032449003026e+38
1730.7307307307308 3.8027475024427575e+38
1740.7407407407409 3.72460151970448e+38
1750.7507507507507 3.647542433888442e+38
1760.7607607607606 3.57151876923867e+38
1770.770770770771 3.49647971305245e+38
1780.7807807807808 3.422375217358437e+38
1790.7907907907907 3.349156135970046e+38
1800.8008008008007 3.276774403336911e+38
1810.8108108108108 3.205183262473519e+38
1820.8208208208207 3.1343375501078448e+38
1830.8308308308308 3.0641940480139413e+38
1840.8408408408409 2.9947119101958887e+38
1850.8508508508507 2.925853176072601e+38
1860.8608608608608 2.857583379930648e+38
1870.870870870871 2.7898722664782553e+38
1880.8808808808808 2.7226946211084813e+38
1890.890890890891 2.6560312211690432e+38
1900.900900900901 2.5898699107938e+38
1910.9109109109108 2.52420679628914e+38
1920.920920920921 2.4590475512881032e+38
1930.930930930931 2.394408810520473e+38
1940.940940940941 2.330319617843964e+38
1950.950950950951 2.2668228781004097e+38
1960.960960960961 2.2039767437150517e+38
1970.970970970971 2.1418558465709214e+38
1980.980980980981 2.0805522650594794e+38
1990.9909909909911 2.0201760976225417e+38
2001.001001001001 1.960855500671906e+38
2011.0110110110109 1.9027360443066845e+38
2021.0210210210212 1.8459792478773856e+38
2031.031031031031 1.79076018299623e+38
2041.0410410410411 1.737264076693079e+38
2051.051051051051 1.6856819124591618e+38
2061.061061061061 1.6362051091070763e+38
2071.071071071071 1.5890194501449627e+38
2081.081081081081 1.5442985295409008e+38
2091.091091091091 1.5021970606437682e+38
2101.101101101101 1.4628444504267576e+38
2111.1111111111113 1.4263390600311891e+38
2121.121121121121 1.3927435483915113e+38
2131.131131131131 1.362081628568129e+38
2141.141141141141 1.3343364632372515e+38
2151.151151151151 1.3094507992318161e+38
2161.161161161161 1.2873288070033182e+38
2171.1711711711714 1.267839465523493e+38
2181.1811811811813 1.2508212300657556e+38
2191.191191191191 1.236087648667734e+38
2201.201201201201 1.223433556894853e+38
2211.2112112112113 1.212641478991319e+38
2221.221221221221 1.2034878920092432e+38
2231.2312312312315 1.1957490609651782e+38
2241.2412412412414 1.1892062192476936e+38
2251.2512512512512 1.1836499411352075e+38
2261.261261261261 1.178883624992217e+38
2271.271271271271 1.1747260705818578e+38
2281.2812812812813 1.1710131878607064e+38
2291.2912912912916 1.167598915386819e+38
2301.3013013013015 1.1643554535776001e+38
2311.3113113113113 1.1611729323988103e+38
2321.321321321321 1.1579586365187397e+38
2331.331331331331 1.1546359059191741e+38
2341.3413413413414 1.1511428189501843e+38
2351.3513513513512 1.1474307502160551e+38
2361.3613613613616 1.1434628794934932e+38
2371.3713713713714 1.1392127116675747e+38
2381.3813813813813 1.1346626525206159e+38
2391.391391391391 1.1298026718003929e+38
2401.4014014014015 1.1246290736595454e+38
2411.4114114114113 1.1191433853709262e+38
2421.4214214214217 1.1133513680799966e+38
2431.4314314314315 1.1072621480426262e+38
2441.4414414414414 1.1008874630488723e+38
2451.4514514514512 1.0942410162703557e+38
2461.4614614614616 1.087337928322332e+38
2471.4714714714714 1.0801942776605546e+38
2481.4814814814818 1.0728267193307877e+38
2491.4914914914916 1.0652521723853479e+38
2501.5015015015015 1.0574875668404455e+38
2511.5115115115113 1.0495496417659524e+38
2521.521521521521 1.0414547868970666e+38
2531.5315315315315 1.0332189209788668e+38
2541.541541541542 1.0248574008607178e+38
2551.5515515515517 1.0163849561222218e+38
2561.5615615615616 1.0078156447204238e+38
2571.5715715715714 9.991628257911309e+37
2581.5815815815813 9.904391463126734e+37
2591.5915915915916 9.816565388491152e+37
2601.6016016016015 9.7282622803487e+37
2611.611611611612 9.639587438485817e+37
2621.6216216216217 9.55063940056253e+37
2631.6316316316315 9.461510164875313e+37
2641.6416416416414 9.372285440504229e+37
2651.6516516516517 9.283044915936593e+37
2661.6616616616616 9.19386253897519e+37
2671.671671671672 9.104806802174784e+37
2681.6816816816818 9.01594102924728e+37
2691.6916916916916 8.9273236588675e+37
2701.7017017017015 8.83900852313081e+37
2711.711711711712 8.75104511858636e+37
2721.7217217217217 8.663478868319206e+37
2731.731731731732 8.57635137400136e+37
2741.741741741742 8.489700657192428e+37
2751.7517517517517 8.403561389459512e+37
2761.7617617617616 8.317965111115935e+37
2771.7717717717715 8.232940438558993e+37
2781.781781781782 8.148513260327657e+37
2791.791791791792 8.064706922108523e+37
2801.801801801802 7.981542400998747e+37
2811.811811811812 7.899038469393481e+37
2821.8218218218217 7.817211848906155e+37
2831.8318318318316 7.736077354756567e+37
2841.841841841842 7.655648031077373e+37
2851.851851851852 7.575935277595687e+37
2861.861861861862 7.496948968146086e+37
2871.871871871872 7.418697561465268e+37
2881.881881881882 7.34118820470848e+37
2891.8918918918916 7.264426830114704e+37
2901.901901901902 7.188418245232115e+37
2911.911911911912 7.113166217098639e+37
2921.921921921922 7.038673550754411e+37
2931.931931931932 6.964942162444819e+37
2941.941941941942 6.891973147854096e+37
2951.9519519519517 6.8197668456911485e+37
2961.961961961962 6.748322896931209e+37
2971.971971971972 6.677640299999113e+37
2981.9819819819822 6.607717462163092e+37
2991.991991991992 6.538552247391383e+37
3002.002002002002 6.470142020908368e+37
3012.012012012012 6.402483690671878e+37
3022.0220220220217 6.335573745979069e+37
3032.032032032032 6.292659763043642e+37
3042.0420420420423 6.224184900529484e+37
3052.052052052052 6.155678548160834e+37
3062.062062062062 6.0873694202730925e+37
3072.072072072072 6.019450561169381e+37
3082.0820820820823 5.952083359608775e+37
3092.092092092092 5.885401224363199e+37
3102.102102102102 5.81951293108882e+37
3112.1121121121123 5.75450565523611e+37
3122.122122122122 5.690447708661395e+37
3132.132132132132 5.627390999345874e+37
3142.1421421421423 5.565373234457171e+37
3152.152152152152 5.50441988713232e+37
3162.162162162162 5.444545947004636e+37
3172.1721721721724 5.385757473784708e+37
3182.1821821821823 5.3280529722541335e+37
3192.192192192192 5.271424605927382e+37
3202.202202202202 5.215859265450732e+37
3212.2122122122123 5.161339506588437e+37
3222.222222222222 5.107844371432687e+37
3232.232232232232 5.055350105292413e+37
3242.2422422422424 5.003830780585115e+37
3252.252252252252 4.953258837987484e+37
3262.262262262262 4.903605554102016e+37
3272.2722722722724 4.854841443971577e+37
3282.2822822822823 4.806936605922223e+37
3292.292292292292 4.759861015435832e+37
3302.3023023023025 4.713584774045117e+37
3312.3123123123123 4.668078318601115e+37
3322.322322322322 4.623312595682978e+37
3332.3323323323325 4.57925920539738e+37
3342.3423423423424 4.535890518345845e+37
3352.352352352352 4.493179769117684e+37
3362.3623623623625 4.451101129290522e+37
3372.3723723723724 4.4096297625844895e+37
3382.3823823823823 4.36874186451662e+37
3392.3923923923926 4.328414688635655e+37
3402.4024024024025 4.288626561179482e+37
3412.4124124124123 4.249356885786656e+37
3422.4224224224226 4.2105861397053106e+37
3432.4324324324325 4.1722958627760516e+37
3442.4424424424424 4.1344686403168533e+37
3452.4524524524522 4.0970880809061864e+37
3462.4624624624626 4.06013878994338e+37
3472.4724724724724 4.023606339761003e+37
3482.4824824824823 3.9874772369712915e+37
3492.4924924924926 3.9517388876463945e+37
3502.5025025025025 3.9163795608586047e+37
3512.5125125125123 3.88138835104165e+37
3522.5225225225226 3.8467551395758135e+37
3532.5325325325325 3.8124705559478506e+37
3542.5425425425424 3.778525938790499e+37
3552.5525525525527 3.7449132970651807e+37
3562.5625625625626 3.7116252716147204e+37
3572.5725725725724 3.6786550972801935e+37
3582.5825825825827 3.6459965657467875e+37
3592.5925925925926 3.613643989257465e+37
3602.6026026026025 3.5815921653100234e+37
3612.612612612613 3.5498363424324624e+37
3622.6226226226227 3.518372187113093e+37
3632.6326326326325 3.4871957519454885e+37
3642.642642642643 3.4563034450338287e+37
3652.6526526526527 3.425692000691275e+37
3662.6626626626626 3.3953584514525487e+37
3672.672672672673 3.3653001014120243e+37
3682.6826826826828 3.335514500889526e+37
3692.6926926926926 3.3059994224184954e+37
3702.7027027027025 3.27675283804429e+37
3712.712712712713 3.247772897914623e+37
3722.7227227227227 3.21905791013905e+37
3732.7327327327325 3.190606321890039e+37
3742.742742742743 3.162416701714687e+37
3752.7527527527527 3.1344877230228924e+37
3762.7627627627626 3.106818148715442e+37
3772.772772772773 3.0794068169133825e+37
3782.7827827827828 3.0522526277484924e+37
3792.7927927927926 3.0253545311734885e+37
3802.802802802803 2.9987115157497795e+37
3812.812812812813 2.97232259837007e+37
3822.8228228228227 2.946186814872887e+37
3832.832832832833 2.920303211506148e+37
3842.842842842843 2.8946708371970998e+37
3852.8528528528527 2.869288736586446e+37
3862.862862862863 2.8441559437850417e+37
3872.872872872873 2.819271476812353e+37
3882.8828828828828 2.794634332676668e+37
3892.892892892893 2.7702434830582043e+37
3902.902902902903 2.7460978705571206e+37
3912.912912912913 2.722196405469799e+37
3922.922922922923 2.6985379630578546e+37
3932.932932932933 2.6751213812756855e+37
3942.942942942943 2.651945458923556e+37
3952.9529529529527 2.629008954194666e+37
3962.962962962963 2.606310583585928e+37
3972.972972972973 2.583849021143488e+37
3982.982982982983 2.5616228980154554e+37
3992.992992992993 2.5396308022855614e+37
4003.003003003003 2.517871279062886e+37
4013.013013013013 2.496342830803942e+37
4023.023023023023 2.4750439178448773e+37
4033.033033033033 2.4539729591226517e+37
4043.043043043043 2.4331283330653326e+37
4053.053053053053 2.412508378632863e+37
4063.063063063063 2.3921113964907394e+37
4073.073073073073 2.37193565030022e+37
4083.0830830830832 2.3519793681097093e+37
4093.093093093093 2.3322407438330325e+37
4103.103103103103 2.312717938801269e+37
4113.113113113113 2.2934090833758315e+37
4123.123123123123 2.2743122786112843e+37
4133.133133133133 2.255425597957377e+37
4143.143143143143 2.236747088990524e+37
4153.153153153153 2.2182747751657594e+37
4163.163163163163 2.20000665758095e+37
4173.173173173173 2.1819407167457694e+37
4183.183183183183 2.16407491434858e+37
4193.193193193193 2.146407195015005e+37
4203.203203203203 2.1289354880525824e+37
4213.213213213214 2.1116577091764454e+37
4223.223223223224 2.0945717622114729e+37
4233.2332332332335 2.0776755407668772e+37
4243.243243243243 2.0609669298796582e+37
4253.253253253253 2.0444438076237351e+37
4263.263263263263 2.028104046682031e+37
4273.273273273273 2.0119455158791061e+37
4283.283283283283 1.995966081672306e+37
4293.293293293293 1.980163609599706e+37
4303.303303303303 1.9645359656834235e+37
4313.313313313313 1.949081017787154e+37
4323.323323323323 1.9337966369270159e+37
4333.333333333334 1.9186806985350482e+37
4343.343343343344 1.9037310836749033e+37
4353.353353353354 1.8889456802094392e+37
4363.3633633633635 1.8743223839201688e+37
4373.373373373373 1.8598590995785856e+37
4383.383383383383 1.8455537419696208e+37
4393.393393393393 1.8314042368675363e+37
4403.403403403403 1.817408521964744e+37
4413.413413413413 1.8035645477540971e+37
4423.423423423424 1.789870278365317e+37
4433.4334334334335 1.7763236923562954e+37
4443.443443443443 1.7629227834600792e+37
4453.453453453454 1.749665561288403e+37
4463.463463463464 1.7365500519927373e+37
4473.473473473474 1.7235742988837496e+37
4483.483483483484 1.7107363630102846e+37
4493.493493493494 1.6980343236988271e+37
4503.503503503503 1.685466279054575e+37
4513.513513513513 1.6730303464251855e+37
4523.523523523523 1.6607246628283027e+37
4533.533533533533 1.6485473853440044e+37
4543.543543543543 1.636496691473265e+37
4553.553553553554 1.6245707794635725e+37
4563.563563563564 1.6127678686028353e+37
4573.573573573573 1.6010861994826719e+37
4583.583583583584 1.589524034232222e+37
4593.593593593594 1.5780796567235683e+37
4603.603603603604 1.5667513727498583e+37
4613.613613613614 1.5555375101772145e+37
4623.623623623624 1.5444364190714767e+37
4633.6336336336335 1.5334464718008312e+37
4643.643643643643 1.522566063115353e+37
4653.653653653653 1.511793610204448e+37
4663.663663663663 1.5011275527332005e+37
4673.673673673674 1.4905663528585656e+37
4683.683683683684 1.4801084952263675e+37
4693.693693693694 1.4697524869499956e+37
4703.703703703704 1.459496857571705e+37
4713.713713713714 1.449340159007392e+37
4723.723723723724 1.4392809654756754e+37
4733.733733733734 1.4293178734121094e+37
4743.743743743744 1.4194495013693354e+37
4753.753753753754 1.4096744899039193e+37
4763.763763763764 1.399991501450651e+37
4773.773773773773 1.3903992201849955e+37
4783.783783783783 1.380896351874438e+37
4793.793793793793 1.3714816237193562e+37
4803.803803803804 1.3621537841840972e+37
4813.813813813814 1.3529116028188912e+37
4823.823823823824 1.3437538700731937e+37
4833.833833833834 1.3346793971010563e+37
4843.843843843844 1.325687015559088e+37
4853.853853853854 1.3167755773975377e+37
4863.863863863864 1.30794395464504e+37
4873.873873873874 1.2991910391875102e+37
4883.883883883884 1.2905157425416773e+37
4893.893893893894 1.281916995623721e+37
4903.9039039039035 1.2733937485134466e+37
4913.913913913913 1.264944970214437e+37
4923.923923923924 1.2565696484105732e+37
4933.933933933934 1.24826678921934e+37
4943.943943943944 1.240035416942251e+37
4953.953953953955 1.2318745738127954e+37
4963.9639639639645 1.223783319742215e+37
4973.973973973974 1.2157607320634516e+37
4983.983983983984 1.2078059052735725e+37
4993.993993993994 1.1999179507749767e+37
5004.004004004004 1.192095996615655e+37
5014.014014014014 1.184339187228785e+37
5024.024024024024 1.1766466831719023e+37
5034.0340340340335 1.1690176608659162e+37
5044.044044044043 1.1614513123341706e+37
5054.054054054054 1.1539468449417944e+37
5064.064064064064 1.146503481135545e+37
5074.074074074074 1.1391204581843286e+37
5084.084084084085 1.1317970279206037e+37
5094.0940940940945 1.124532456482836e+37
5104.104104104104 1.117326024059166e+37
5114.114114114114 1.1101770246324586e+37
5124.124124124124 1.1030847657268758e+37
5134.134134134134 1.0960485681561139e+37
5144.144144144144 1.0890677657734377e+37
5154.154154154154 1.0821417052236338e+37
5164.1641641641645 1.0752697456969987e+37
5174.174174174174 1.0684512586854725e+37
5184.184184184184 1.0616856277410133e+37
5194.194194194194 1.0549722482363095e+37
5204.204204204204 1.0483105271279231e+37
5214.214214214214 1.0416998827219311e+37
5224.224224224225 1.0351397444421531e+37
5234.2342342342345 1.0286295526010292e+37
5244.244244244244 1.022168758173204e+37
5254.254254254254 1.0157568225718941e+37
5264.264264264264 1.0093932174280632e+37
5274.274274274274 1.0030774243724873e+37
5284.284284284285 9.96808934820715e+36
5294.294294294295 9.905872497609994e+36
5304.304304304304 9.844118795452006e+36
5314.314314314314 9.782823436827188e+36
5324.324324324324 9.721981706374597e+36
5334.334334334334 9.661588976278738e+36
5344.344344344345 9.60164070430071e+36
5354.354354354355 9.542132431840449e+36
5364.3643643643645 9.48305978202997e+36
5374.374374374374 9.424418457857857e+36
5384.384384384384 9.366204240325006e+36
5394.394394394394 9.308412986631631e+36
5404.404404404404 9.251040628395541e+36
5414.414414414415 9.194083169901679e+36
5424.424424424425 9.137536686382891e+36
5434.4344344344345 9.081397322331761e+36
5444.444444444444 9.025661289843511e+36
5454.454454454454 8.970324866989857e+36
5464.464464464464 8.915384396223577e+36
5474.474474474475 8.86083628281374e+36
5484.484484484485 8.806676993311385e+36
5494.494494494495 8.752903054045439e+36
5504.504504504504 8.699511049648717e+36
5514.514514514514 8.646497621613714e+36
5524.524524524524 8.59385946687806e+36
5534.534534534535 8.541593336439241e+36
5544.544544544545 8.489696033998477e+36
5554.554554554555 8.438164414633373e+36
5564.5645645645645 8.386995383499105e+36
5574.574574574574 8.336185894557869e+36
5584.584584584584 8.28573294933624e+36
5594.594594594595 8.235633595710132e+36
5604.604604604605 8.185884926717158e+36
5614.614614614615 8.136484079395802e+36
5624.624624624625 8.087428233651393e+36
5634.6346346346345 8.038714611148283e+36
5644.644644644644 7.990340474228e+36
5654.654654654654 7.942303124853044e+36
5664.664664664665 7.89459990357582e+36
5674.674674674675 7.847228188532638e+36
5684.684684684685 7.800185394462036e+36
5694.694694694695 7.753468971747403e+36
5704.704704704704 7.70707640548333e+36
5714.714714714714 7.661005214565372e+36
5724.724724724725 7.615252950802883e+36
5734.734734734735 7.569817198054468e+36
5744.744744744745 7.52469557138579e+36
5754.754754754755 7.47988571624919e+36
5764.764764764765 7.435385307684955e+36
5774.774774774774 7.391192049543648e+36
5784.784784784785 7.34730367372927e+36
5794.794794794795 7.303717939462781e+36
5804.804804804805 7.260432632565686e+36
5814.814814814815 7.217445564763225e+36
5824.824824824825 7.174754573006883e+36
5834.8348348348345 7.132357518815723e+36
5844.844844844845 7.090252287636363e+36
5854.854854854855 7.048436788221e+36
5864.864864864865 7.006908952023274e+36
5874.874874874875 6.965666732611584e+36
5884.884884884885 6.924708105099416e+36
5894.894894894895 6.884031065592408e+36
5904.9049049049045 6.843633630651775e+36
