#lamb flux
1000.0 1.682199480959554e+39
1010.01001001001 1.6462275194367643e+39
1020.0200200200201 1.6109837717319043e+39
1030.03003003003 1.5764656502974892e+39
1040.0400400400401 1.5426691091650792e+39
1050.05005005005 1.5095888183358816e+39
1060.06006006006 1.47721832193905e+39
1070.07007007007 1.4455501815335143e+39
1080.08008008008 1.4145761058232452e+39
1090.0900900900901 1.3842870679564643e+39
1100.1001001001 1.354673411486211e+39
1110.11011011011 1.3257249459830362e+39
1120.1201201201202 1.297431033209818e+39
1130.13013013013 1.2697806646938784e+39
1140.1401401401401 1.2427625314621641e+39
1150.1501501501502 1.2163650866412035e+39
1160.16016016016 1.1905766015642977e+39
1170.1701701701702 1.1653852159738839e+39
1180.1801801801803 1.1407789828567603e+39
1190.1901901901902 1.1167459084036564e+39
1200.2002002002002 1.0932739875421815e+39
1210.2102102102103 1.0703512354532386e+39
1220.2202202202202 1.0479657154452087e+39
1230.2302302302303 1.0261055635274713e+39
1240.2402402402402 1.0047590099948016e+39
1250.2502502502502 9.839137028064079e+38
1260.2602602602603 9.635561357694924e+38
1270.2702702702702 9.436715452824038e+38
1280.2802802802803 9.242492427685676e+38
1290.2902902902902 9.052786722227249e+38
1300.3003003003003 8.867494206522106e+38
1310.3103103103103 8.68651227019694e+38
1320.3203203203202 8.509739898298574e+38
1330.3303303303303 8.337077734902963e+38
1340.3403403403404 8.168428135656336e+38
1350.3503503503503 8.003695210335544e+38
1360.3603603603603 7.842784856419833e+38
1370.3703703703704 7.685604784579781e+38
1380.3803803803803 7.532064536909416e+38
1390.3903903903904 7.382075498654732e+38
1400.4004004004005 7.235550904125134e+38
1410.4104104104103 7.09240583741306e+38
1420.4204204204204 6.952557228491162e+38
1430.4304304304305 6.815923845205035e+38
1440.4404404404404 6.682426281632688e+38
1450.4504504504505 6.5519869432388235e+38
1460.4604604604606 6.424530029212955e+38
1470.4704704704704 6.299981512344121e+38
1480.4804804804805 6.178269116752411e+38
1490.4904904904906 6.059322293767226e+38
1500.5005005005005 5.943072196214846e+38
1510.5105105105106 5.8294516513527535e+38
1520.5205205205207 5.718395132665268e+38
1530.5305305305305 5.609838730714043e+38
1540.5405405405404 5.503720123217971e+38
1550.5505505505505 5.3999785445196e+38
1560.5605605605606 5.298554754579234e+38
1570.5705705705705 5.1993910076235545e+38
1580.5805805805805 5.102431020562393e+38
1590.5905905905906 5.00761994127532e+38
1600.6006006006005 4.914904316859011e+38
1610.6106106106106 4.824232061916516e+38
1620.6206206206207 4.735552426960737e+38
1630.6306306306305 4.648815966996641e+38
1640.6406406406406 4.563974510339529e+38
1650.6506506506507 4.4809811277207524e+38
1660.6606606606606 4.399790101726604e+38
1670.6706706706707 4.3203568966116434e+38
1680.6806806806808 4.242638128523899e+38
1690.6906906906906 4.1665915361762246e+38
1700.7007007007007 4.09217610139195e+38
1710.7107107107108 4.019352308450186e+38
1720.7207207207207 3.9480809993448196e+38
1730.7307307307308 3.8783239604139e+38
1740.7407407407409 3.810043979591767e+38
1750.7507507507507 3.743204818812774e+38
1760.7607607607606 3.677771187224841e+38
1770.770770770771 3.613708715247017e+38
1780.7807807807808 3.550983929513378e+38
1790.7907907907907 3.489564228755475e+38
1800.8008008008007 3.4294178606873376e+38
1810.8108108108108 3.3705138999708767e+38
1820.8208208208207 3.3128222273553963e+38
1830.8308308308308 3.2563135101030334e+38
1840.8408408408409 3.2009591838315733e+38
1850.8508508508507 3.146731435927272e+38
1860.8608608608608 3.093603190701619e+38
1870.870870870871 3.0415480964863353e+38
1880.8808808808808 2.990540514877674e+38
1890.890890890891 2.940555512351353e+38
1900.900900900901 2.8915688544686065e+38
1910.9109109109108 2.843557002875769e+38
1920.920920920921 2.7964971152573758e+38
1930.930930930931 2.7503670483261686e+38
1940.940940940941 2.705145363812556e+38
1950.950950950951 2.660811337239169e+38
1960.960960960961 2.6173449690229213e+38
1970.970970970971 2.5747269971293253e+38
1980.980980980981 2.5329389101102747e+38
1990.9909909909911 2.4919629588957183e+38
2001.001001001001 2.45178216520597e+38
2011.0110110110109 2.4123803239495676e+38
2021.0210210210212 2.373741996541049e+38
2031.031031031031 2.335852491807408e+38
2041.0410410410411 2.298697831165197e+38
2051.051051051051 2.262264695161123e+38
2061.061061061061 2.2265403493794405e+38
2071.071071071071 2.1915125491824482e+38
2081.081081081081 2.15716942473495e+38
2091.091091091091 2.123499350125657e+38
2101.101101101101 2.0904908028702614e+38
2111.1111111111113 2.058132222288735e+38
2121.121121121121 2.026411876770235e+38
2131.131131131131 1.995317750386425e+38
2141.141141141141 1.9648374584402957e+38
2151.151151151151 1.934958199317731e+38
2161.161161161161 1.905666746681307e+38
2171.1711711711714 1.8769494820827315e+38
2181.1811811811813 1.8487924640858393e+38
2191.191191191191 1.8211815266050297e+38
2201.201201201201 1.7941023968618984e+38
2211.2112112112113 1.767540822402202e+38
2221.221221221221 1.7414826969903166e+38
2231.2312312312315 1.7159141766740664e+38
2241.2412412412414 1.6908217795091467e+38
2251.2512512512512 1.6661924649243223e+38
2261.261261261261 1.6420136911157447e+38
2271.271271271271 1.6182734509027268e+38
2281.2812812812813 1.5949602880037966e+38
2291.2912912912916 1.5720632966609636e+38
2301.3013013013015 1.5495721079984385e+38
2311.3113113113113 1.5274768665482451e+38
2321.321321321321 1.5057682001275964e+38
2331.331331331331 1.4844371858263903e+38
2341.3413413413414 1.4634753143544412e+38
2351.3513513513512 1.4428744544792582e+38
2361.3613613613616 1.422626818804525e+38
2371.3713713713714 1.4027249317239151e+38
2381.3813813813813 1.3831616000454357e+38
2391.391391391391 1.3639298865182293e+38
2401.4014014014015 1.3450230862996502e+38
2411.4114114114113 1.3264347062654803e+38
2421.4214214214217 1.3081584469789357e+38
2431.4314314314315 1.2901881870839237e+38
2441.4414414414414 1.2725179698650975e+38
2451.4514514514512 1.2551419917137596e+38
2461.4614614614616 1.2380545922480041e+38
2471.4714714714714 1.2212502458528876e+38
2481.4814814814818 1.2047235544281482e+38
2491.4914914914916 1.1884692411545804e+38
2501.5015015015015 1.1724821451137575e+38
2511.5115115115113 1.1567572166183598e+38
2521.521521521521 1.1412895131311869e+38
2531.5315315315315 1.1260741956696625e+38
2541.541541541542 1.1111065256092635e+38
2551.5515515515517 1.0963818618137089e+38
2561.5615615615616 1.0818956580321758e+38
2571.5715715715714 1.0676434605144193e+38
2581.5815815815813 1.0536209058035584e+38
2591.5915915915916 1.0398237186738196e+38
2601.6016016016015 1.0262477101867442e+38
2611.611611611612 1.01288877584452e+38
2621.6216216216217 9.997428938233727e+37
2631.6316316316315 9.868061232733926e+37
2641.6416416416414 9.740746026740535e+37
2651.6516516516517 9.615445482369328e+37
2661.6616616616616 9.492122523490385e+37
2671.671671671672 9.370740820516143e+37
2681.6816816816818 9.251264775505024e+37
2691.6916916916916 9.133659507550676e+37
2701.7017017017015 9.017890838434568e+37
2711.711711711712 8.903925278525327e+37
2721.7217217217217 8.791730012912861e+37
2731.731731731732 8.681272887768617e+37
2741.741741741742 8.572522396926265e+37
2751.7517517517517 8.465447668678626e+37
2761.7617617617616 8.36001845278864e+37
2771.7717717717715 8.256205107712575e+37
2781.781781781782 8.153978588034892e+37
2791.791791791792 8.0533104321143565e+37
2801.801801801802 7.954172749941174e+37
2811.811811811812 7.85653821120519e+37
2821.8218218218217 7.760380033575126e+37
2831.8318318318316 7.665671971188632e+37
2841.841841841842 7.572388303352869e+37
2851.851851851852 7.480503823455227e+37
2861.861861861862 7.389993828083331e+37
2871.871871871872 7.300834106353517e+37
2881.881881881882 7.213000929446628e+37
2891.8918918918916 7.126471040349757e+37
2901.901901901902 7.041221643802311e+37
2911.911911911912 6.957230396444716e+37
2921.921921921922 6.874475397167662e+37
2931.931931931932 6.792935177659906e+37
2941.941941941942 6.712588693152165e+37
2951.9519519519517 6.633415313354752e+37
2961.961961961962 6.555394813586383e+37
2971.971971971972 6.478507366091402e+37
2981.9819819819822 6.402733531542689e+37
2991.991991991992 6.328054250727379e+37
3002.002002002002 6.254450836412408e+37
3012.012012012012 6.181904965386949e+37
3022.0220220220217 6.1103986706786445e+37
3032.032032032032 6.040133756689306e+37
3042.0420420420423 5.970625158126311e+37
3052.052052052052 5.902097132955356e+37
3062.062062062062 5.834535268561866e+37
3072.072072072072 5.767925133197825e+37
3082.0820820820823 5.702252309288231e+37
3092.092092092092 5.637502422757482e+37
3102.102102102102 5.573661168764355e+37
3112.1121121121123 5.510714334199377e+37
3122.122122122122 5.4486478172660245e+37
3132.132132132132 5.387447644437872e+37
3142.1421421421423 5.327099985057046e+37
3152.152152152152 5.26759116381484e+37
3162.162162162162 5.208907671332857e+37
3172.1721721721724 5.151036173042958e+37
3182.1821821821823 5.093963516545485e+37
3192.192192192192 5.037676737608421e+37
3202.202202202202 4.982163064954702e+37
3212.2122122122123 4.927409923970935e+37
3222.222222222222 4.873404939457935e+37
3232.232232232232 4.820135937531837e+37
3242.2422422422424 4.767590946774166e+37
3252.252252252252 4.715758198719415e+37
3262.262262262262 4.664626127760114e+37
3272.2722722722724 4.614183370541364e+37
3282.2822822822823 4.56441876490966e+37
3292.292292292292 4.515321348474256e+37
3302.3023023023025 4.466880356833424e+37
3312.3123123123123 4.419085221512579e+37
3322.322322322322 4.371925567656354e+37
3332.3323323323325 4.325391211512298e+37
3342.3423423423424 4.279472157739948e+37
3352.352352352352 4.2341585965751913e+37
3362.3623623623625 4.1894409008769003e+37
3372.3723723723724 4.1453096230795386e+37
3382.3823823823823 4.101755492072899e+37
3392.3923923923926 4.05876941002783e+37
3402.4024024024025 4.0163424491843965e+37
3412.4124124124123 3.9744658486171254e+37
3422.4224224224226 3.9331310109901837e+37
3432.4324324324325 3.892329499313728e+37
3442.4424424424424 3.8520530337111975e+37
3452.4524524524522 3.812293488206106e+37
3462.4624624624626 3.7730428875357004e+37
3472.4724724724724 3.734293403997816e+37
3482.4824824824823 3.69603735433629e+37
3492.4924924924926 3.658267196669583e+37
3502.5025025025025 3.620975527466384e+37
3512.5125125125123 3.5841550785713994e+37
3522.5225225225226 3.5477987142839023e+37
3532.5325325325325 3.5118994284911234e+37
3542.5425425425424 3.476450341858065e+37
3552.5525525525527 3.4414446990749556e+37
3562.5625625625626 3.406875866163161e+37
3572.5725725725724 3.3727373278400673e+37
3582.5825825825827 3.339022684943196e+37
3592.5925925925926 3.3057256519135094e+37
3602.6026026026025 3.272840054337722e+37
3612.612612612613 3.24035982654921e+37
3622.6226226226227 3.2082790092869424e+37
3632.6326326326325 3.176591747411748e+37
3642.642642642643 3.1452922876791477e+37
3652.6526526526527 3.1143749765677984e+37
3662.6626626626626 3.0838342581625665e+37
3672.672672672673 3.053664672091235e+37
3682.6826826826828 3.0238608515136797e+37
3692.6926926926926 2.9944175211624166e+37
3702.7027027027025 2.9653294954332964e+37
3712.712712712713 2.9365916765251954e+37
3722.7227227227227 2.9081990526274865e+37
3732.7327327327325 2.8801466961540046e+37
3742.742742742743 2.852429762022388e+37
3752.7527527527527 2.8250434859774777e+37
3762.7627627627626 2.7979831829576262e+37
3772.772772772773 2.7712442455026875e+37
3782.7827827827828 2.7448221422025125e+37
3792.7927927927926 2.718712416184765e+37
3802.802802802803 2.692910683640944e+37
3812.812812812813 2.6674126323894497e+37
3822.8228228228227 2.6422140204746086e+37
3832.832832832833 2.6173106748005813e+37
3842.842842842843 2.5926984897990967e+37
3852.8528528528527 2.5683734261299913e+37
3862.862862862863 2.5443315094135464e+37
3872.872872872873 2.5205688289936775e+37
3882.8828828828828 2.497081536730977e+37
3892.892892892893 2.473865845824797e+37
3902.902902902903 2.4509180296633655e+37
3912.912912912913 2.428234420701168e+37
3922.922922922923 2.4058114093627125e+37
3932.932932932933 2.3836454429719114e+37
3942.942942942943 2.3617330247062596e+37
3952.9529529529527 2.3400707125750824e+37
3962.962962962963 2.3186551184211374e+37
3972.972972972973 2.2974829069448333e+37
3982.982982982983 2.2765507947504176e+37
3992.992992992993 2.255855549413454e+37
4003.003003003003 2.2353939885690073e+37
4013.013013013013 2.2151629790198535e+37
4023.023023023023 2.1951594358641856e+37
4033.033033033033 2.1753803216422362e+37
4043.043043043043 2.1558226455012503e+37
4053.053053053053 2.13648346237831e+37
4063.063063063063 2.1173598722004856e+37
4073.073073073073 2.098449019101826e+37
4083.0830830830832 2.0797480906567283e+37
4093.093093093093 2.06125431712922e+37
4103.103103103103 2.0429649707377157e+37
4113.113113113113 2.0248773649348495e+37
4123.123123123123 2.0069888537019263e+37
4133.133133133133 1.9892968308576563e+37
4143.143143143143 1.9717987293807596e+37
4153.153153153153 1.9544920207460891e+37
4163.163163163163 1.9373742142739034e+37
4173.173173173173 1.9204428564919732e+37
4183.183183183183 1.9036955305101838e+37
4193.193193193193 1.887129855407305e+37
4203.203203203203 1.8707434856296378e+37
4213.213213213214 1.8545341104012517e+37
4223.223223223224 1.8384994531454966e+37
4233.2332332332335 1.822637270917546e+37
4243.243243243243 1.8069453538476866e+37
4253.253253253253 1.7914215245951033e+37
4263.263263263263 1.7760636378119202e+37
4273.273273273273 1.7608695796172354e+37
4283.283283283283 1.74583726708094e+37
4293.293293293293 1.7309646477170847e+37
4303.303303303303 1.7162496989865773e+37
4313.313313313313 1.7016904278090042e+37
4323.323323323323 1.687284870083361e+37
4333.333333333334 1.673031090217513e+37
4343.343343343344 1.6589271806661783e+37
4353.353353353354 1.6449712614772512e+37
4363.3633633633635 1.6311614798462845e+37
4373.373373373373 1.6174960096789647e+37
4383.383383383383 1.6039730511613982e+37
4393.393393393393 1.590590830338049e+37
4403.403403403403 1.5773475986971713e+37
4413.413413413413 1.5642416327635667e+37
4423.423423423424 1.5512712336985397e+37
4433.4334334334335 1.5384347269068795e+37
4443.443443443443 1.5257304616507382e+37
4453.453453453454 1.5131568106702587e+37
4463.463463463464 1.5007121698108428e+37
4473.473473473474 1.4883949576568672e+37
4483.483483483484 1.4762036151717975e+37
4493.493493493494 1.4641366053445101e+37
4503.503503503503 1.4521924128417356e+37
4513.513513513513 1.4403695436664963e+37
4523.523523523523 1.4286665248224067e+37
4533.533533533533 1.417081903983759e+37
4543.543543543543 1.4056142491712434e+37
4553.553553553554 1.3942621484332177e+37
4563.563563563564 1.3830242095324288e+37
4573.573573573573 1.3718990596380518e+37
4583.583583583584 1.3608853450229839e+37
4593.593593593594 1.3499817307662737e+37
4603.603603603604 1.3391869004605838e+37
4613.613613613614 1.32849955592462e+37
4623.623623623624 1.3179184169204062e+37
4633.6336336336335 1.3074422208753353e+37
4643.643643643643 1.297069722608904e+37
4653.653653653653 1.286799694064036e+37
4663.663663663663 1.276630924042925e+37
4673.673673673674 1.2665622179473054e+37
4683.683683683684 1.2565923975230783e+37
4693.693693693694 1.246720300609201e+37
4703.703703703704 1.2369447808907765e+37
4713.713713713714 1.227264707656271e+37
4723.723723723724 1.2176789655587612e+37
4733.733733733734 1.2081864543811675e+37
4743.743743743744 1.198786088805389e+37
4753.753753753754 1.189476798185267e+37
4763.763763763764 1.1802575263233246e+37
4773.773773773773 1.1711272312511876e+37
4783.783783783783 1.1620848850136622e+37
4793.793793793793 1.1531294734563644e+37
4803.803803803804 1.1442599960168627e+37
4813.813813813814 1.1354754655192694e+37
4823.823823823824 1.1267749079722104e+37
4833.833833833834 1.1181573623701247e+37
4843.843843843844 1.1096218804978328e+37
4853.853853853854 1.101167526738308e+37
4863.863863863864 1.092793377883614e+37
4873.873873873874 1.0844985229489283e+37
4883.883883883884 1.0762820629896236e+37
4893.893893893894 1.0681431109213338e+37
4903.9039039039035 1.0600807913429648e+37
4913.913913913913 1.0520942403625933e+37
4923.923923923924 1.0441826054262035e+37
4933.933933933934 1.0363450451492231e+37
4943.943943943944 1.0285807291507862e+37
4953.953953953955 1.0208888378907082e+37
4963.9639639639645 1.0132685625090988e+37
4973.973973973974 1.0057191046685785e+37
4983.983983983984 9.982396763990587e+36
4993.993993993994 9.908294999450317e+36
5004.004004004004 9.8348780761533e+36
5014.014014014014 9.762138416353216e+36
5024.024024024024 9.690068540014809e+36
5034.0340340340335 9.618661063383171e+36
5044.044044044043 9.54790869757599e+36
5054.054054054054 9.477804247198522e+36
5064.064064064064 9.4083406089808e+36
5074.074074074074 9.339510770436742e+36
5084.084084084085 9.271307808544784e+36
5094.0940940940945 9.203724888449686e+36
5104.104104104104 9.136755262185072e+36
5114.114114114114 9.070392267416442e+36
5124.124124124124 9.004629326204286e+36
5134.134134134134 8.939459943786914e+36
5144.144144144144 8.874877707382683e+36
5154.154154154154 8.810876285011352e+36
5164.1641641641645 8.747449424334128e+36
5174.174174174174 8.684590951512208e+36
5184.184184184184 8.622294770083396e+36
5194.194194194194 8.560554859856527e+36
5204.204204204204 8.499365275823471e+36
5214.214214214214 8.438720147088273e+36
5224.224224224225 8.378613675813249e+36
5234.2342342342345 8.319040136181736e+36
5244.244244244244 8.25999387337715e+36
5254.254254254254 8.201469302578164e+36
5264.264264264264 8.14346090796966e+36
5274.274274274274 8.085963241769253e+36
5284.284284284285 8.028970923269064e+36
5294.294294294295 7.972478637892522e+36
5304.304304304304 7.916481136265913e+36
5314.314314314314 7.860973233304495e+36
5324.324324324324 7.805949807312801e+36
5334.334334334334 7.751405799099079e+36
5344.344344344345 7.69733621110341e+36
5354.354354354355 7.64373610653951e+36
5364.3643643643645 7.590600608549759e+36
5374.374374374374 7.537924899373415e+36
5384.384384384384 7.485704219527685e+36
5394.394394394394 7.433933867001488e+36
5404.404404404404 7.382609196461657e+36
5414.414414414415 7.331725618471427e+36
5424.424424424425 7.281278598720963e+36
5434.4344344344345 7.231263657269709e+36
5444.444444444444 7.181676367800404e+36
5454.454454454454 7.132512356884598e+36
5464.464464464464 7.083767303259342e+36
5474.474474474475 7.035436937115041e+36
5484.484484484485 6.987517039394147e+36
5494.494494494495 6.940003441100571e+36
5504.504504504504 6.892892022619663e+36
5514.514514514514 6.846178713048482e+36
5524.524524524524 6.799859489536333e+36
5534.534534534535 6.753930376635254e+36
5544.544544544545 6.708387445660406e+36
5554.554554554555 6.663226814060097e+36
5564.5645645645645 6.618444644795383e+36
5574.574574574574 6.574037145729014e+36
5584.584584584584 6.530000569023612e+36
5594.594594594595 6.486331210548865e+36
5604.604604604605 6.443025409297744e+36
5614.614614614615 6.400079546811333e+36
5624.624624624625 6.357490046612422e+36
5634.6346346346345 6.315253373647516e+36
5644.644644644644 6.273366033737173e+36
5654.654654654654 6.23182457303461e+36
5664.664664664665 6.190625577492288e+36
5674.674674674675 6.14976567233655e+36
5684.684684684685 6.109241521549964e+36
5694.694694694695 6.069049827361398e+36
5704.704704704704 6.029187329743667e+36
5714.714714714714 5.989650805918566e+36
5724.724724724725 5.950437069869257e+36
5734.734734734735 5.911542971859832e+36
5744.744744744745 5.872965397961942e+36
5754.754754754755 5.834701269588412e+36
5764.764764764765 5.796747543033689e+36
5774.774774774774 5.75910120902103e+36
5784.784784784785 5.72175929225632e+36
5794.794794794795 5.684718850988421e+36
5804.804804804805 5.647976976575921e+36
5814.814814814815 5.611530793060204e+36
5824.824824824825 5.575377456744742e+36
5834.8348348348345 5.539514155780468e+36
5844.844844844845 5.503938109757219e+36
5854.854854854855 5.468646569301028e+36
5864.864864864865 5.433636815677286e+36
5874.874874874875 5.398906160399625e+36
5884.884884884885 5.364451944844416e+36
5894.894894894895 5.330271539870847e+36
