#lamb flux
1000.0 2.1615647042471015e+37
1010.01001001001 2.395848681727363e+37
1020.0200200200201 2.6485820408444526e+37
1030.03003003003 2.9205817619975562e+37
1040.0400400400401 3.212657449772607e+37
1050.05005005005 3.5256088874259783e+37
1060.06006006006 3.8602236483991396e+37
1070.07007007007 4.2172747756524814e+37
1080.08008008008 4.597518538640682e+37
1090.0900900900901 5.001692276771895e+37
1100.1001001001 5.430512337213048e+37
1110.11011011011 5.884672113929947e+37
1120.1201201201202 6.364840193893581e+37
1130.13013013013 6.87165861544961e+37
1140.1401401401401 7.405741242942861e+37
1150.1501501501502 7.967672260816975e+37
1160.16016016016 8.558004789578367e+37
1170.1701701701702 9.177259625221894e+37
1180.1801801801803 9.825924102972322e+37
1190.1901901901902 1.050445108549548e+38
1200.2002002002002 1.1213258075084797e+38
1210.2102102102103 1.1952726448726375e+38
1220.2202202202202 1.272320081439538e+38
1230.2302302302303 1.3524988486433419e+38
1240.2402402402402 1.4358359077401799e+38
1250.2502502502502 1.5223487909707111e+38
1260.2602602602603 1.6120381465372373e+38
1270.2702702702702 1.704881844571205e+38
1280.2802802802803 1.800883146682953e+38
1290.2902902902902 1.9000411740445235e+38
1300.3003003003003 2.0023509483367734e+38
1310.3103103103103 2.1078034424711205e+38
1320.3203203203202 2.2163856404672843e+38
1330.3303303303303 2.328080605860658e+38
1340.3403403403404 2.4428675580082735e+38
1350.3503503503503 2.56072195566203e+38
1360.3603603603603 2.681615587179852e+38
1370.3703703703704 2.805516666750727e+38
1380.3803803803803 2.9323899360173184e+38
1390.3903903903904 3.062196770489653e+38
1400.4004004004005 3.194895290155001e+38
1410.4104104104103 3.3304404737028707e+38
1420.4204204204204 3.468784275798427e+38
1430.4304304304305 3.609875746853638e+38
1440.4404404404404 3.753661154762459e+38
1450.4504504504505 3.900084108083366e+38
1460.4604604604606 4.04908568017079e+38
1470.4704704704704 4.200604533774845e+38
1480.4804804804805 4.354577045647087e+38
1490.4904904904906 4.510937430708036e+38
1500.5005005005005 4.669617865349983e+38
1510.5105105105106 4.830548609466241e+38
1520.5205205205207 4.993658126814769e+38
1530.5305305305305 5.158873203340633e+38
1540.5405405405404 5.3261190630974685e+38
1550.5505505505505 5.4953194814233116e+38
1560.5605605605606 5.666396895040204e+38
1570.5705705705705 5.839272508761263e+38
1580.5805805805805 6.0138663985013e+38
1590.5905905905906 6.190097610300506e+38
1600.6006006006005 6.367884255082247e+38
1610.6106106106106 6.5471435988791605e+38
1620.6206206206207 6.7277921482735824e+38
1630.6306306306305 6.90974573081286e+38
1640.6406406406406 7.092919570174245e+38
1650.6506506506507 7.27722835587191e+38
1660.6606606606606 7.462586307319859e+38
1670.6706706706707 7.648907232089422e+38
1680.6806806806808 7.83610457823305e+38
1690.6906906906906 8.024091480587146e+38
1700.7007007007007 8.212782369501217e+38
1710.7107107107108 8.402096477179812e+38
1720.7207207207207 8.59194614992368e+38
1730.7307307307308 8.782242647337442e+38
1740.7407407407409 8.972897025885613e+38
1750.7507507507507 9.163820155012514e+38
1760.7607607607606 9.354922729284318e+38
1770.770770770771 9.546115277627603e+38
1780.7807807807808 9.737308171104084e+38
1790.7907907907907 9.928411631115959e+38
1800.8008008008007 1.0119335740496605e+39
1810.8108108108108 1.0309990460627405e+39
1820.8208208208207 1.0500285658553614e+39
1830.8308308308308 1.0690131149069622e+39
1840.8408408408409 1.0879436757925626e+39
1850.8508508508507 1.106811241368619e+39
1860.8608608608608 1.1256068277347877e+39
1870.870870870871 1.1443214920585536e+39
1880.8808808808808 1.1629463565401621e+39
1890.890890890891 1.1814726399922824e+39
1900.900900900901 1.1998916986989027e+39
1910.9109109109108 1.2181950783803701e+39
1920.920920920921 1.2363745791964491e+39
1930.930930930931 1.2544223357253902e+39
1940.940940940941 1.2723309137103337e+39
1950.950950950951 1.2900934249975521e+39
1960.960960960961 1.3077036614262862e+39
1970.970970970971 1.3251562473832902e+39
1980.980980980981 1.3424468092290685e+39
1990.9909909909911 1.3595721577816587e+39
2001.001001001001 1.3765304775010893e+39
2011.0110110110109 1.3933215130250153e+39
2021.0210210210212 1.409946740449738e+39
2031.031031031031 1.4264095075599848e+39
2041.0410410410411 1.442715124571684e+39
2051.051051051051 1.4588708854908495e+39
2061.061061061061 1.4748860006100738e+39
2071.071071071071 1.4907714236213078e+39
2081.081081081081 1.506539562766077e+39
2091.091091091091 1.5222038744124565e+39
2101.101101101101 1.5377783489064868e+39
2111.1111111111113 1.5532769113041734e+39
2121.121121121121 1.5687127718780366e+39
2131.131131131131 1.5840977710179556e+39
2141.141141141141 1.5994417683173553e+39
2151.151151151151 1.614752124845982e+39
2161.161161161161 1.6300333204546155e+39
2171.1711711711714 1.6452867352273634e+39
2181.1811811811813 1.6605106077786542e+39
2191.191191191191 1.6757001655626434e+39
2201.201201201201 1.6908479064151694e+39
2211.2112112112113 1.7059439984060896e+39
2221.221221221221 1.7209767580750215e+39
2231.2312312312315 1.7359331655396563e+39
2241.2412412412414 1.750799378144801e+39
2251.2512512512512 1.7655612109674526e+39
2261.261261261261 1.78020456105019e+39
2271.271271271271 1.794715761223252e+39
2281.2812812812813 1.8090818576288088e+39
2291.2912912912916 1.8232908118314202e+39
2301.3013013013015 1.8373316333514037e+39
2311.3113113113113 1.851194451592079e+39
2321.321321321321 1.8648705376703785e+39
2331.331331331331 1.8783522869429085e+39
2341.3413413413414 1.8916331724142006e+39
2351.3513513513512 1.904707678059878e+39
2361.3613613613616 1.9175712196726802e+39
2371.3713713713714 1.9302200593505145e+39
2381.3813813813813 1.9426512183314696e+39
2391.391391391391 1.954862391622788e+39
2401.4014014014015 1.966851866806913e+39
2411.4114114114113 1.9786184485457545e+39
2421.4214214214217 1.9901613896325243e+39
2431.4314314314315 2.001480328936604e+39
2441.4414414414414 2.0125752362247315e+39
2451.4514514514512 2.0234463635937842e+39
2461.4614614614616 2.0340942030922427e+39
2471.4714714714714 2.0445194500167503e+39
2481.4814814814818 2.0547229713293133e+39
2491.4914914914916 2.0647057786346533e+39
2501.5015015015015 2.0744690051749028e+39
2511.5115115115113 2.0840138863314387e+39
2521.521521521521 2.0933417431647613e+39
2531.5315315315315 2.1024539685685165e+39
2541.541541541542 2.1113520156596618e+39
2551.5515515515517 2.1200373880714713e+39
2561.5615615615616 2.1285116318580272e+39
2571.5715715715714 2.136776328757614e+39
2581.5815815815813 2.1448330905972817e+39
2591.5915915915916 2.1526835546520645e+39
2601.6016016016015 2.1603293797998427e+39
2611.611611611612 2.1677722433368182e+39
2621.6216216216217 2.1750138383394855e+39
2631.6316316316315 2.1820558714769296e+39
2641.6416416416414 2.1889000611927627e+39
2651.6516516516517 2.1955481361891306e+39
2661.6616616616616 2.202001834156499e+39
2671.671671671672 2.208262900702372e+39
2681.6816816816818 2.2143330884401937e+39
2691.6916916916916 2.2202141562063835e+39
2701.7017017017015 2.225907868379184e+39
2711.711711711712 2.2314159942777563e+39
2721.7217217217217 2.236740307623954e+39
2731.731731731732 2.2418825860524616e+39
2741.741741741742 2.2468446106578717e+39
2751.7517517517517 2.251628165569435e+39
2761.7617617617616 2.2562350375462053e+39
2771.7717717717715 2.260667015586834e+39
2781.781781781782 2.26492589054952e+39
2791.791791791792 2.269013454778774e+39
2801.801801801802 2.2729315017363883e+39
2811.811811811812 2.2766818256347952e+39
2821.8218218218217 2.280266221071517e+39
2831.8318318318316 2.2836864826638876e+39
2841.841841841842 2.2869444046835372e+39
2851.851851851852 2.290041780690484e+39
2861.861861861862 2.2929804031668212e+39
2871.871871871872 2.295762063150215e+39
2881.881881881882 2.2983885498675355e+39
2891.8918918918916 2.3008616503689847e+39
2901.901901901902 2.3031831491632534e+39
2911.911911911912 2.3053548278541748e+39
2921.921921921922 2.3073784647794206e+39
2931.931931931932 2.309255834651781e+39
2941.941941941942 2.3109887082035843e+39
2951.9519519519517 2.3125788518347193e+39
2961.961961961962 2.3140280272648562e+39
2971.971971971972 2.3153379911902834e+39
2981.9819819819822 2.3165104949458312e+39
2991.991991991992 2.3175472841723117e+39
3002.002002002002 2.3184500984898854e+39
3012.012012012012 2.319220671177679e+39
3022.0220220220217 2.3198607288600087e+39
3032.032032032032 2.320812999215556e+39
3042.0420420420423 2.3211435238001337e+39
3052.052052052052 2.3213325744105915e+39
3062.062062062062 2.3213859128278817e+39
3072.072072072072 2.321308786466586e+39
3082.0820820820823 2.3211059748469125e+39
3092.092092092092 2.3207818325100032e+39
3102.102102102102 2.3203403286030253e+39
3112.1121121121123 2.319785083350845e+39
3122.122122122122 2.3191194016208627e+39
3132.132132132132 2.3183463037773948e+39
3142.1421421421423 2.3174685540116492e+39
3152.152152152152 2.3164886863231574e+39
3162.162162162162 2.3154090283186563e+39
3172.1721721721724 2.314231722984535e+39
3182.1821821821823 2.3129587485797525e+39
3192.192192192192 2.311591936786924e+39
3202.202202202202 2.3101329892507826e+39
3212.2122122122123 2.308583492624836e+39
3222.222222222222 2.3069449322391947e+39
3232.232232232232 2.3052187044951992e+39
3242.2422422422424 2.303406128085241e+39
3252.252252252252 2.3015084541296522e+39
3262.262262262262 2.299526875316177e+39
3272.2722722722724 2.29746253412165e+39
3282.2822822822823 2.2953165301899447e+39
3292.292292292292 2.2930899269350205e+39
3302.3023023023025 2.2907837574330305e+39
3312.3123123123123 2.288399029662873e+39
3322.322322322322 2.2859367311502252e+39
3332.3323323323325 2.2833978330661863e+39
3342.3423423423424 2.2807832938278e+39
3352.352352352352 2.2780940622443293e+39
3362.3623623623625 2.2753310802498263e+39
3372.3723723723724 2.2724952852595078e+39
3382.3823823823823 2.2695876121846362e+39
3392.3923923923926 2.266608995137924e+39
3402.4024024024025 2.2635603688590585e+39
3412.4124124124123 2.2604426698875715e+39
3422.4224224224226 2.2572568375082844e+39
3432.4324324324325 2.2540038144923874e+39
3442.4424424424424 2.2506845476555614e+39
3452.4524524524522 2.2472999882526567e+39
3462.4624624624626 2.2438510922269912e+39
3472.4724724724724 2.2403388203307597e+39
3482.4824824824823 2.236764138131691e+39
3492.4924924924926 2.2331280159198623e+39
3502.5025025025025 2.2294314285273027e+39
3512.5125125125123 2.2256753550720298e+39
3522.5225225225226 2.2218607786370354e+39
3532.5325325325325 2.2179886858938896e+39
3542.5425425425424 2.214060066679703e+39
3552.5525525525527 2.2100759135353778e+39
3562.5625625625626 2.2060372212124002e+39
3572.5725725725724 2.201944986154614e+39
3582.5825825825827 2.197800205960902e+39
3592.5925925925926 2.193603878834049e+39
3602.6026026026025 2.1893570030205072e+39
3612.612612612613 2.1850605762453443e+39
3622.6226226226227 2.180715595146102e+39
3632.6326326326325 2.1763230547089894e+39
3642.642642642643 2.1718839477103198e+39
3652.6526526526527 2.1673992641658443e+39
3662.6626626626626 2.1628699907902294e+39
3672.672672672673 2.158297110468713e+39
3682.6826826826828 2.1536816017425847e+39
3692.6926926926926 2.1490244383100127e+39
3702.7027027027025 2.144326588543383e+39
3712.712712712713 2.139589015024233e+39
3722.7227227227227 2.1348126740965693e+39
3732.7327327327325 2.1299985154392444e+39
3742.742742742743 2.1251474816579047e+39
3752.7527527527527 2.1202605078968525e+39
3762.7627627627626 2.115338521471095e+39
3772.772772772773 2.110382441518661e+39
3782.7827827827828 2.1053931786732482e+39
3792.7927927927926 2.1003716347571032e+39
3802.802802802803 2.0953187024940138e+39
3812.812812812813 2.0902352652421685e+39
3822.8228228228227 2.0851221967465994e+39
3832.832832832833 2.0799803609109074e+39
3842.842842842843 2.074810611587839e+39
3852.8528528528527 2.0696137923883152e+39
3862.862862862863 2.064390736508435e+39
3872.872872872873 2.0591422665739932e+39
3882.8828828828828 2.0538691945019348e+39
3892.892892892893 2.0485723213783e+39
3902.902902902903 2.0432524373520146e+39
3912.912912912913 2.0379103215440278e+39
3922.922922922923 2.0325467419711998e+39
3932.932932932933 2.02716245548437e+39
3942.942942942943 2.021758207720006e+39
3952.9529529529527 2.016334733064892e+39
3962.962962962963 2.0108927546332314e+39
3972.972972972973 2.0054329842556275e+39
3982.982982982983 1.9999561224793593e+39
3992.992992992993 1.9944628585793747e+39
4003.003003003003 1.9889538705794838e+39
4013.013013013013 1.9834298252831864e+39
4023.023023023023 1.977891378313596e+39
4033.033033033033 1.972339174161965e+39
4043.043043043043 1.9667738462442802e+39
4053.053053053053 1.9611960169654494e+39
4063.063063063063 1.9556062977905947e+39
4073.073073073073 1.9500052893229824e+39
4083.0830830830832 1.9443935813881398e+39
4093.093093093093 1.938771753123733e+39
4103.103103103103 1.9331403730747562e+39
4113.113113113113 1.9274999992936714e+39
4123.123123123123 1.9218511794450413e+39
4133.133133133133 1.9161944509143436e+39
4143.143143143143 1.9105303409205638e+39
4153.153153153153 1.9048593666322375e+39
4163.163163163163 1.8991820352865878e+39
4173.173173173173 1.8934988443114724e+39
4183.183183183183 1.8878102814498013e+39
4193.193193193193 1.882116824886159e+39
4203.203203203203 1.8764189433753416e+39
4213.213213213214 1.870717096372552e+39
4223.223223223224 1.8650117341650005e+39
4233.2332332332335 1.859303298004665e+39
4243.243243243243 1.853592220242e+39
4253.253253253253 1.8478789244603714e+39
4263.263263263263 1.8421638256110135e+39
4273.273273273273 1.8364473301483265e+39
4283.283283283283 1.8307298361653283e+39
4293.293293293293 1.8250117335290887e+39
4303.303303303303 1.8192934040159994e+39
4313.313313313313 1.8135752214467213e+39
4323.323323323323 1.8078575518206612e+39
4333.333333333334 1.802140753449876e+39
4343.343343343344 1.7964251770922508e+39
4353.353353353354 1.7907111660838603e+39
4363.3633633633635 1.7849990564703907e+39
4373.373373373373 1.7792891771375583e+39
4383.383383383383 1.7735818499403724e+39
4393.393393393393 1.7678773898312414e+39
4403.403403403403 1.7621761049867808e+39
4413.413413413413 1.7564782969332708e+39
4423.423423423424 1.7507842606707323e+39
4433.4334334334335 1.7450942847955134e+39
4443.443443443443 1.739408651621374e+39
4453.453453453454 1.7337276372990028e+39
4463.463463463464 1.7280515119339384e+39
4473.473473473474 1.7223805397028372e+39
4483.483483483484 1.7167149789680807e+39
4493.493493493494 1.7110550823906795e+39
4503.503503503503 1.7054010970414545e+39
4513.513513513513 1.6997532645104796e+39
4523.523523523523 1.6941118210147544e+39
4533.533533533533 1.6884769975041264e+39
4543.543543543543 1.6828490197654082e+39
4553.553553553554 1.677228108524726e+39
4563.563563563564 1.6716144795480753e+39
4573.573573573573 1.666008343740071e+39
4583.583583583584 1.6604099072409296e+39
4593.593593593594 1.6548193715216518e+39
4603.603603603604 1.6492369334774233e+39
4613.613613613614 1.6436627855192564e+39
4623.623623623624 1.6380971156638587e+39
4633.6336336336335 1.6325401076217547e+39
4643.643643643643 1.6269919408836778e+39
4653.653653653653 1.621452790805227e+39
4663.663663663663 1.6159228286898315e+39
4673.673673673674 1.6104022218700156e+39
4683.683683683684 1.604891133787004e+39
4693.693693693694 1.599389724068666e+39
4703.703703703704 1.5938981486058373e+39
4713.713713713714 1.5884165596270333e+39
4723.723723723724 1.5829451057715694e+39
4733.733733733734 1.577483932161119e+39
4743.743743743744 1.5720331804697426e+39
4753.753753753754 1.5665929889923774e+39
4763.763763763764 1.561163492711861e+39
4773.773773773773 1.5557448233644593e+39
4783.783783783783 1.5503371095039797e+39
4793.793793793793 1.544940476564446e+39
4803.803803803804 1.5395550469213853e+39
4813.813813813814 1.534180939951758e+39
4823.823823823824 1.5288182720925387e+39
4833.833833833834 1.5234671568979796e+39
4843.843843843844 1.5181277050955966e+39
4853.853853853854 1.5128000246408782e+39
4863.863863863864 1.5074842207707674e+39
4873.873873873874 1.5021803960559286e+39
4883.883883883884 1.4968886504518253e+39
4893.893893893894 1.4916090813486407e+39
4903.9039039039035 1.4863417836200643e+39
4913.913913913913 1.4810868496709652e+39
4923.923923923924 1.475844369483976e+39
4933.933933933934 1.470614430665026e+39
4943.943943943944 1.465397118487831e+39
4953.953953953955 1.4601925159373672e+39
4963.9639639639645 1.4550007037523673e+39
4973.973973973974 1.4498217604668416e+39
4983.983983983984 1.444655762450659e+39
4993.993993993994 1.4395027839492146e+39
5004.004004004004 1.4343628971221878e+39
5014.014014014014 1.4292361720814463e+39
5024.024024024024 1.4241226769280676e+39
5034.0340340340335 1.419022477788562e+39
5044.044044044043 1.413935638850257e+39
5054.054054054054 1.4088622223959076e+39
5064.064064064064 1.4038022888375335e+39
5074.074074074074 1.3987558967495043e+39
5084.084084084085 1.3937231029008926e+39
5094.0940940940945 1.3887039622871208e+39
5104.104104104104 1.3836985281609126e+39
5114.114114114114 1.3787068520625686e+39
5124.124124124124 1.373728983849588e+39
5134.134134134134 1.368764971725649e+39
5144.144144144144 1.3638148622689662e+39
5154.154154154154 1.358878700460052e+39
5164.1641641641645 1.3539565297088707e+39
5174.174174174174 1.3490483918814411e+39
5184.184184184184 1.344154327325866e+39
5194.194194194194 1.3392743748978244e+39
5204.204204204204 1.3344085719855394e+39
5214.214214214214 1.3295569545342305e+39
5224.224224224225 1.3247195570700641e+39
5234.2342342342345 1.3198964127236279e+39
5244.244244244244 1.3150875532529218e+39
5254.254254254254 1.3102930090658988e+39
5264.264264264264 1.305512809242559e+39
5274.274274274274 1.3007469815566043e+39
5284.284284284285 1.2959955524966802e+39
5294.294294294295 1.2912585472871995e+39
5304.304304304304 1.2865359899087717e+39
5314.314314314314 1.2818279031182445e+39
5324.324324324324 1.277134308468368e+39
5334.334334334334 1.2724552263270934e+39
5344.344344344345 1.2677906758965126e+39
5354.354354354355 1.2631406752314564e+39
5364.3643643643645 1.258505241257749e+39
5374.374374374374 1.2538843897901434e+39
5384.384384384384 1.2492781355499317e+39
5394.394394394394 1.244686492182245e+39
5404.404404404404 1.2401094722730594e+39
5414.414414414415 1.2355470873658991e+39
5424.424424424425 1.230999347978264e+39
5434.4344344344345 1.2264662636177696e+39
5444.444444444444 1.2219478427980228e+39
5454.454454454454 1.2174440930542405e+39
5464.464464464464 1.2129550209585957e+39
5474.474474474475 1.2084806321353342e+39
5484.484484484485 1.2040209312756329e+39
5494.494494494495 1.1995759221522306e+39
5504.504504504504 1.1951456076338296e+39
5514.514514514514 1.1907299896992656e+39
5524.524524524524 1.1863290694514667e+39
5534.534534534535 1.1819428471311989e+39
5544.544544544545 1.1775713221305998e+39
5554.554554554555 1.1732144930065142e+39
5564.5645645645645 1.1688723574936324e+39
5574.574574574574 1.1645449125174351e+39
5584.584584584584 1.1602321542069516e+39
5594.594594594595 1.1559340779073314e+39
5604.604604604605 1.1516506781922484e+39
5614.614614614615 1.1473819488761156e+39
5624.624624624625 1.143127883026141e+39
5634.6346346346345 1.1388884729742134e+39
5644.644644644644 1.1346637103286231e+39
5654.654654654654 1.1304535859856331e+39
5664.664664664665 1.1262580901408795e+39
5674.674674674675 1.1220772123006395e+39
5684.684684684685 1.117910941292933e+39
5694.694694694695 1.1137592652784922e+39
5704.704704704704 1.109622171761582e+39
5714.714714714714 1.1054996476006834e+39
5724.724724724725 1.101391679019042e+39
5734.734734734735 1.0972982516150801e+39
5744.744744744745 1.093219350372681e+39
5754.754754754755 1.0891549596713433e+39
5764.764764764765 1.0851050632962097e+39
5774.774774774774 1.081069644447975e+39
5784.784784784785 1.0770486857526685e+39
5794.794794794795 1.0730421692713217e+39
5804.804804804805 1.06905007650952e+39
5814.814814814815 1.0650723884268335e+39
5824.824824824825 1.0611090854461458e+39
5834.8348348348345 1.0571601474628597e+39
5844.844844844845 1.0532255538540091e+39
5854.854854854855 1.0493052834872505e+39
5864.864864864865 1.0453993147297547e+39
