#lamb flux
1000.0 2.1591761749878606e+40
1010.01001001001 2.216206163651438e+40
1020.0200200200201 2.2683640376013357e+40
1030.03003003003 2.315774524271769e+40
1040.0400400400401 2.3585947641258674e+40
1050.05005005005 2.397007417849294e+40
1060.06006006006 2.431214470602843e+40
1070.07007007007 2.461431747921581e+40
1080.08008008008 2.4878841324980963e+40
1090.0900900900901 2.510801452594119e+40
1100.1001001001 2.5304150000729003e+40
1110.11011011011 2.54695462797234e+40
1120.1201201201202 2.560646373178137e+40
1130.13013013013 2.571710548257222e+40
1140.1401401401401 2.580360247147321e+40
1150.1501501501502 2.586800211564314e+40
1160.16016016016 2.5912260081925913e+40
1170.1701701701702 2.5938234705742613e+40
1180.1801801801803 2.5947683638077795e+40
1190.1901901901902 2.5942262344758514e+40
1200.2002002002002 2.5923524124795195e+40
1210.2102102102103 2.589292135541601e+40
1220.2202202202202 2.585180770980244e+40
1230.2302302302303 2.580144112894333e+40
1240.2402402402402 2.574298736122883e+40
1250.2502502502502 2.56759521532164e+40
1260.2602602602603 2.559668952805593e+40
1270.2702702702702 2.5497875456990645e+40
1280.2802802802803 2.538091104029755e+40
1290.2902902902902 2.5247146399807796e+40
1300.3003003003003 2.5097878049248223e+40
1310.3103103103103 2.4934347059904673e+40
1320.3203203203202 2.4757737918176697e+40
1330.3303303303303 2.4569177980222274e+40
1340.3403403403404 2.436973743740493e+40
1350.3503503503503 2.4160429714515937e+40
1360.3603603603603 2.394221223064528e+40
1370.3703703703704 2.3715987460044074e+40
1380.3803803803803 2.3482604237313577e+40
1390.3903903903904 2.3242859257744527e+40
1400.4004004004005 2.2997498729606616e+40
1410.4104104104103 2.2747220140654957e+40
1420.4204204204204 2.249267410609039e+40
1430.4304304304305 2.2234466269702507e+40
1440.4404404404404 2.1973159233965337e+40
1450.4504504504505 2.1709274498469056e+40
1460.4604604604606 2.144329438929127e+40
1470.4704704704704 2.1175663964763833e+40
1480.4804804804805 2.0906792885611251e+40
1490.4904904904906 2.0637057239649196e+40
1500.5005005005005 2.0366801313169788e+40
1510.5105105105106 2.0096339302829586e+40
1520.5205205205207 1.9825956963322643e+40
1530.5305305305305 1.9555913187390991e+40
1540.5405405405404 1.9286441515819924e+40
1550.5505505505505 1.9017751576008613e+40
1560.5605605605606 1.8750030448516668e+40
1570.5705705705705 1.848344396168582e+40
1580.5805805805805 1.8218137915036968e+40
1590.5905905905906 1.7954239232667553e+40
1600.6006006006005 1.7691857048335438e+40
1610.6106106106106 1.7431083724330826e+40
1620.6206206206207 1.7171995806620774e+40
1630.6306306306305 1.691465491911904e+40
1640.6406406406406 1.6659108600299814e+40
1650.6506506506507 1.6405391085756863e+40
1660.6606606606606 1.6153524040722132e+40
1670.6706706706707 1.5903517247022575e+40
1680.6806806806808 1.5655369249485683e+40
1690.6906906906906 1.54090679674275e+40
1700.7007007007007 1.516463922023293e+40
1710.7107107107108 1.4922240219644832e+40
1720.7207207207207 1.4681801488605054e+40
1730.7307307307308 1.4443223412947766e+40
1740.7407407407409 1.4206403792443275e+40
1750.7507507507507 1.3971238018299963e+40
1760.7607607607606 1.3737619314139208e+40
1770.770770770771 1.350543905587242e+40
1780.7807807807808 1.3274587188626858e+40
1790.7907907907907 1.3044952761922674e+40
1800.8008008008007 1.2816424607684135e+40
1810.8108108108108 1.2588892189328802e+40
1820.8208208208207 1.2362246654031134e+40
1830.8308308308308 1.2136382124152311e+40
1840.8408408408409 1.1911197267529544e+40
1850.8508508508507 1.16865971894816e+40
1860.8608608608608 1.146249569152119e+40
1870.870870870871 1.1238817942202355e+40
1880.8808808808808 1.1015503603392179e+40
1890.890890890891 1.0792510449421745e+40
1900.900900900901 1.0569818505674023e+40
1910.9109109109108 1.0347434715606266e+40
1920.920920920921 1.0125398119227771e+40
1930.930930930931 9.903785489890297e+39
1940.940940940941 9.68271732837023e+39
1950.950950950951 9.46236405271343e+39
1960.960960960961 9.242952149399346e+39
1970.970970970971 9.024769968066281e+39
1980.980980980981 8.808172752837502e+39
1990.9909909909911 8.593586415884408e+39
2001.001001001001 8.3815094845373e+39
2011.0110110110109 8.172512606768735e+39
2021.0210210210212 7.967234998526228e+39
2031.031031031031 7.766377277956773e+39
2041.0410410410411 7.570690271053257e+39
2051.051051051051 7.380959598689579e+39
2061.061061061061 7.19798616296664e+39
2071.071071071071 7.022563022783632e+39
2081.081081081081 6.855449549736451e+39
2091.091091091091 6.6973441368994e+39
2101.101101101101 6.548857038146802e+39
2111.1111111111113 6.410485090014835e+39
2121.121121121121 6.282590070937486e+39
2131.131131131131 6.165382266932076e+39
2141.141141141141 6.058910450676943e+39
2151.151151151151 5.963058983214224e+39
2161.161161161161 5.877552176481196e+39
2171.1711711711714 5.801965482559738e+39
2181.1811811811813 5.735742570652881e+39
2191.191191191191 5.678216969469544e+39
2201.201201201201 5.628636723293425e+39
2211.2112112112113 5.586190442975065e+39
2221.221221221221 5.550033215232621e+39
2231.2312312312315 5.519311035554263e+39
2241.2412412412414 5.493182712862684e+39
2251.2512512512512 5.470838516626872e+39
2261.261261261261 5.451515161289595e+39
2271.271271271271 5.4345070181402647e+39
2281.2812812812813 5.419173690123964e+39
2291.2912912912916 5.404944269533143e+39
2301.3013013013015 5.3913187199763074e+39
2311.3113113113113 5.377866887258436e+39
2321.321321321321 5.3642256581574016e+39
2331.331331331331 5.3500947630601665e+39
2341.3413413413414 5.3352316698411395e+39
2351.3513513513512 5.319445952949928e+39
2361.3613613613616 5.302593452279316e+39
2371.3713713713714 5.2845704676697014e+39
2381.3813813813813 5.265308171403096e+39
2391.391391391391 5.2447673654163077e+39
2401.4014014014015 5.222933663411997e+39
2411.4114114114113 5.199813140684261e+39
2421.4214214214217 5.1754284657098284e+39
2431.4314314314315 5.149815506384106e+39
2441.4414414414414 5.12302038901873e+39
2451.4514514514512 5.095096978656002e+39
2461.4614614614616 5.066104743763596e+39
2471.4714714714714 5.036106965951592e+39
2481.4814814814818 5.005169255158626e+39
2491.4914914914916 4.9733583320988926e+39
2501.5015015015015 4.940741042105625e+39
2511.5115115115113 4.907383567437507e+39
2521.521521521521 4.8733508083270333e+39
2531.5315315315315 4.838705906326939e+39
2541.541541541542 4.803509886703862e+39
2551.5515515515517 4.767821399641472e+39
2561.5615615615616 4.731696542792278e+39
2571.5715715715714 4.695188750230432e+39
2581.5815815815813 4.658348735098832e+39
2591.5915915915916 4.6212244752193545e+39
2601.6016016016015 4.583861232658565e+39
2611.611611611612 4.546301599732902e+39
2621.6216216216217 4.50858556521858e+39
2631.6316316316315 4.470750595625038e+39
2641.6416416416414 4.432831727319047e+39
2651.6516516516517 4.39486166606992e+39
2661.6616616616616 4.3568708912448776e+39
2671.671671671672 4.3188877624339913e+39
2681.6816816816818 4.280938626742694e+39
2691.6916916916916 4.243047925369754e+39
2701.7017017017015 4.205238298402326e+39
2711.711711711712 4.1675306870172136e+39
2721.7217217217217 4.1299444324881456e+39
2731.731731731732 4.09249737156996e+39
2741.741741741742 4.0552059279690805e+39
2751.7517517517517 4.018085199720581e+39
2761.7617617617616 3.9811490423806964e+39
2771.7717717717715 3.9444101480132534e+39
2781.781781781782 3.907880120002952e+39
2791.791791791792 3.8715695437701735e+39
2801.801801801802 3.835488053493401e+39
2811.811811811812 3.7996443949685217e+39
2821.8218218218217 3.7640464847505923e+39
2831.8318318318316 3.7287014657344845e+39
2841.841841841842 3.6936157593374895e+39
2851.851851851852 3.65879511444994e+39
2861.861861861862 3.6242446533204285e+39
2871.871871871872 3.5899689145403747e+39
2881.881881881882 3.55597189328956e+39
2891.8918918918916 3.5222570789996204e+39
2901.901901901902 3.488827490587204e+39
2911.911911911912 3.455685709402534e+39
2921.921921921922 3.422833910032717e+39
2931.931931931932 3.3902738890926504e+39
2941.941941941942 3.3580070921295586e+39
2951.9519519519517 3.3260346387606584e+39
2961.961961961962 3.2943573461568164e+39
2971.971971971972 3.2629757509785923e+39
2981.9819819819822 3.231890129864903e+39
2991.991991991992 3.2011005185684524e+39
3002.002002002002 3.1706067298263904e+39
3012.012012012012 3.140408370049081e+39
3022.0220220220217 3.110504854904677e+39
3032.032032032032 3.0906029647403275e+39
3042.0420420420423 3.06002158364747e+39
3052.052052052052 3.0294089667196534e+39
3062.062062062062 2.998860722453594e+39
3072.072072072072 2.968457884055245e+39
3082.0820820820823 2.9382685254593276e+39
3092.092092092092 2.908349240820323e+39
3102.102102102102 2.878746492431392e+39
3112.1121121121123 2.849497833480092e+39
3122.122122122122 2.820633012978556e+39
3132.132132132132 2.7921749707286804e+39
3142.1421421421423 2.764140730396043e+39
3152.152152152152 2.7365421987475275e+39
3162.162162162162 2.709386878920417e+39
3172.1721721721724 2.682678505284043e+39
3182.1821821821823 2.656417607068907e+39
3192.192192192192 2.6306020075022966e+39
3202.202202202202 2.605227264727595e+39
3212.2122122122123 2.5802870603136977e+39
3222.222222222222 2.5557735406944826e+39
3232.232232232232 2.5316776164251982e+39
3242.2422422422424 2.5079892237092947e+39
3252.252252252252 2.4846975522397538e+39
3262.262262262262 2.4617912430159377e+39
3272.2722722722724 2.439258559441356e+39
3282.2822822822823 2.4170875346798807e+39
3292.292292292292 2.395266097947231e+39
3302.3023023023025 2.3737821821401618e+39
3312.3123123123123 2.352623814956194e+39
3322.322322322322 2.331779195430754e+39
3332.3323323323325 2.3112367576141707e+39
3342.3423423423424 2.2909852229270275e+39
3352.352352352352 2.2710136425665748e+39
3362.3623623623625 2.2513114311883872e+39
3372.3723723723724 2.231868392954002e+39
3382.3823823823823 2.2126747409158468e+39
3392.3923923923926 2.1937211106041038e+39
3402.4024024024025 2.1749985685844482e+39
3412.4124124124123 2.156498616670408e+39
3422.4224224224226 2.1382131923978447e+39
3432.4324324324325 2.120134666301016e+39
3442.4424424424424 2.1022558364689226e+39
3452.4524524524522 2.0845699208064652e+39
3462.4624624624626 2.067070547376476e+39
3472.4724724724724 2.0497517431555405e+39
3482.4824824824823 2.0326079214978262e+39
3492.4924924924926 2.0156338685667782e+39
3502.5025025025025 1.9988247289636225e+39
3512.5125125125123 1.9821759907541415e+39
3522.5225225225226 1.9656834700705677e+39
3532.5325325325325 1.949343295443358e+39
3542.5425425425424 1.933151891998007e+39
3552.5525525525527 1.9171059656343436e+39
3562.5625625625626 1.90120248729004e+39
3572.5725725725724 1.8854386773759078e+39
3582.5825825825827 1.8698119904579902e+39
3592.5925925925926 1.854320100250078e+39
3602.6026026026025 1.8389608849702575e+39
3612.612612612613 1.82373241310603e+39
3622.6226226226227 1.8086329296245083e+39
3632.6326326326325 1.7936608426569773e+39
3642.642642642643 1.778814710680776e+39
3652.6526526526527 1.7640932302156943e+39
3662.6626626626626 1.7494952240470552e+39
3672.672672672673 1.73501962998323e+39
3682.6826826826828 1.720665490151328e+39
3692.6926926926926 1.7064319408313712e+39
3702.7027027027025 1.6923182028262033e+39
3712.712712712713 1.6783235723617796e+39
3722.7227227227227 1.6644474125101427e+39
3732.7327327327325 1.6506891451254206e+39
3742.742742742743 1.6370482432815568e+39
3752.7527527527527 1.6235242241989678e+39
3762.7627627627626 1.6101166426462195e+39
3772.772772772773 1.5968250848018033e+39
3782.7827827827828 1.583649162560321e+39
3792.7927927927926 1.570588508266778e+39
3802.802802802803 1.55764276986226e+39
3812.812812812813 1.5448116064239217e+39
3822.8228228228227 1.532094684082059e+39
3832.832832832833 1.5194916722969618e+39
3842.842842842843 1.507002240478238e+39
3852.8528528528527 1.49462605492946e+39
3862.862862862863 1.4823627761011233e+39
3872.872872872873 1.4702120561351987e+39
3882.8828828828828 1.4581735366848258e+39
3892.892892892893 1.4462468469931274e+39
3902.902902902903 1.4344316022154348e+39
3912.912912912913 1.422727401969721e+39
3922.922922922923 1.4111338291004767e+39
3932.932932932933 1.3996504486417618e+39
3942.942942942943 1.38827680696564e+39
3952.9529529529527 1.3770124311027804e+39
3962.962962962963 1.365856828222489e+39
3972.972972972973 1.3548094852599906e+39
3982.982982982983 1.3438698686793107e+39
3992.992992992993 1.3330374243606442e+39
4003.003003003003 1.3223115776016521e+39
4013.013013013013 1.3116917332225985e+39
4023.023023023023 1.3011772757658218e+39
4033.033033033033 1.2907675697805136e+39
4043.043043043043 1.2804619601842662e+39
4053.053053053053 1.2702597726933693e+39
4063.063063063063 1.260160314314276e+39
4073.073073073073 1.2501628738891413e+39
4083.0830830830832 1.240266722688767e+39
4093.093093093093 1.2304711150467253e+39
4103.103103103103 1.22077528902883e+39
4113.113113113113 1.2111784671325555e+39
4123.123123123123 1.2016798570113262e+39
4133.133133133133 1.1922786522190314e+39
4143.143143143143 1.1829740329704199e+39
4153.153153153153 1.1737651669133763e+39
4163.163163163163 1.1646512099093966e+39
4173.173173173173 1.1556313068188821e+39
4183.183183183183 1.1467045922881568e+39
4193.193193193193 1.1378701915353651e+39
4203.203203203203 1.1291272211326904e+39
4213.213213213214 1.1204747897825571e+39
4223.223223223224 1.1119119990856955e+39
4233.2332332332335 1.1034379442991837e+39
4243.243243243243 1.0950517150827694e+39
4253.253253253253 1.0867523962319583e+39
4263.263263263263 1.0785390683965356e+39
4273.273273273273 1.0704108087833491e+39
4283.283283283283 1.0623666918423305e+39
4293.293293293293 1.0544057899348913e+39
4303.303303303303 1.046527173983921e+39
4313.313313313313 1.0387299141047971e+39
4323.323323323323 1.0310130802168584e+39
4333.333333333334 1.0233757426349687e+39
4343.343343343344 1.015816972640838e+39
4353.353353353354 1.0083358430338792e+39
4363.3633633633635 1.0009314286614691e+39
4373.373373373373 9.936028069285351e+38
4383.383383383383 9.863490582864688e+38
4393.393393393393 9.791692667014263e+38
4403.403403403403 9.720625201021327e+38
4413.413413413413 9.650279108073475e+38
4423.423423423424 9.580645359332156e+38
4433.4334334334335 9.511714977807396e+38
4443.443443443443 9.443479042036682e+38
4453.453453453454 9.375928689571127e+38
4463.463463463464 9.309055120272518e+38
4473.473473473474 9.242849599424653e+38
4483.483483483484 9.177303460663263e+38
4493.493493493494 9.112408108728275e+38
4503.503503503503 9.048155022042848e+38
4513.513513513513 8.98453575512355e+38
4523.523523523523 8.921541940825966e+38
4533.533533533533 8.859165292430635e+38
4543.543543543543 8.797397605573492e+38
4553.553553553554 8.736230760025865e+38
4563.563563563564 8.675656721328484e+38
4573.573573573573 8.615667542284211e+38
4583.583583583584 8.556255364314277e+38
4593.593593593594 8.497412418682585e+38
4603.603603603604 8.43913102759276e+38
4613.613613613614 8.381403605162613e+38
4623.623623623624 8.324222658280408e+38
4633.6336336336335 8.26758078734763e+38
4643.643643643643 8.211470686912559e+38
4653.653653653653 8.155885146199046e+38
4663.663663663663 8.10081704953481e+38
4673.673673673674 8.04625937668344e+38
4683.683683683684 7.992205203084277e+38
4693.693693693694 7.938647700004154e+38
4703.703703703704 7.885580134604997e+38
4713.713713713714 7.832995869931178e+38
4723.723723723724 7.780888364820297e+38
4733.733733733734 7.729251173741124e+38
4743.743743743744 7.678077946562341e+38
4753.753753753754 7.627362428255389e+38
4763.763763763764 7.577098458535028e+38
4773.773773773773 7.527279971440649e+38
4783.783783783783 7.47790099486179e+38
4793.793793793793 7.428955650010692e+38
4803.803803803804 7.380438150845069e+38
4813.813813813814 7.332342803443917e+38
4823.823823823824 7.28466400533917e+38
4833.833833833834 7.237396244805901e+38
4843.843843843844 7.190534100113762e+38
4853.853853853854 7.144072238742058e+38
4863.863863863864 7.098005416561032e+38
4873.873873873874 7.052328476981607e+38
4883.883883883884 7.007036350075937e+38
4893.893893893894 6.962124051670852e+38
4903.9039039039035 6.917586682416402e+38
4913.913913913913 6.873419426831428e+38
4923.923923923924 6.829617552328143e+38
4933.933933933934 6.7861764082176224e+38
4943.943943943944 6.743091424697886e+38
4953.953953953955 6.7003581118264105e+38
4963.9639639639645 6.657972058478654e+38
4973.973973973974 6.615928931294137e+38
4983.983983983984 6.574224473611678e+38
4993.993993993994 6.532854504395172e+38
5004.004004004004 6.491814917151256e+38
5014.014014014014 6.451101678840307e+38
5024.024024024024 6.410710828781854e+38
5034.0340340340335 6.370638477555806e+38
5044.044044044043 6.330880805900463e+38
5054.054054054054 6.291434063608517e+38
5064.064064064064 6.2522945684220496e+38
5074.074074074074 6.213458704927495e+38
5084.084084084085 6.174922923451538e+38
5094.0940940940945 6.136683738958842e+38
5104.104104104104 6.0987377299524035e+38
5114.114114114114 6.0610815373774196e+38
5124.124124124124 6.0237118635293484e+38
5134.134134134134 5.986625470966941e+38
5144.144144144144 5.949819181430873e+38
5154.154154154154 5.913289874768672e+38
5164.1641641641645 5.877034487866479e+38
5174.174174174174 5.841050013588299e+38
5184.184184184184 5.805333499723167e+38
5194.194194194194 5.7698820479408136e+38
5204.204204204204 5.734692812756292e+38
5214.214214214214 5.699763000503951e+38
5224.224224224225 5.665089868321206e+38
5234.2342342342345 5.630670723142498e+38
5244.244244244244 5.596502920703738e+38
5254.254254254254 5.562583864557639e+38
5264.264264264264 5.528911005100157e+38
5274.274274274274 5.495481838608408e+38
5284.284284284285 5.4622939062902206e+38
5294.294294294295 5.429344793345635e+38
5304.304304304304 5.396632128040504e+38
5314.314314314314 5.36415358079242e+38
5324.324324324324 5.331906863269128e+38
5334.334334334334 5.299889727499574e+38
5344.344344344345 5.2680999649977024e+38
5354.354354354355 5.236535405899203e+38
5364.3643643643645 5.205193918111144e+38
5374.374374374374 5.1740734064747864e+38
5384.384384384384 5.143171811941458e+38
5394.394394394394 5.1124871107616595e+38
5404.404404404404 5.082017313687393e+38
5414.414414414415 5.051760465187777e+38
5424.424424424425 5.021714642677907e+38
5434.4344344344345 4.991877955761034e+38
5444.444444444444 4.962248545483986e+38
5454.454454454454 4.932824583605898e+38
5464.464464464464 4.903604271880103e+38
5474.474474474475 4.8745858413492784e+38
5484.484484484485 4.845767551653702e+38
5494.494494494495 4.81714769035259e+38
5504.504504504504 4.788724572258497e+38
5514.514514514514 4.760496538784608e+38
5524.524524524524 4.7324619573049726e+38
5534.534534534535 4.704619220527456e+38
5544.544544544545 4.676966745879442e+38
5554.554554554555 4.649502974906069e+38
5564.5645645645645 4.622226372681006e+38
5574.574574574574 4.595135427229579e+38
5584.584584584584 4.5682286489641666e+38
5594.594594594595 4.5415045701317115e+38
5604.604604604605 4.5149617442733194e+38
5614.614614614615 4.488598745695639e+38
5624.624624624625 4.462414168954096e+38
5634.6346346346345 4.436406628347686e+38
5644.644644644644 4.410574757425268e+38
5654.654654654654 4.3849172085031935e+38
5664.664664664665 4.359432652194102e+38
5674.674674674675 4.3341197769468294e+38
5684.684684684685 4.308977288597112e+38
5694.694694694695 4.284003909929102e+38
5704.704704704704 4.2591983802474595e+38
5714.714714714714 4.234559454959853e+38
5724.724724724725 4.2100859051697584e+38
5734.734734734735 4.185776517279374e+38
5744.744744744745 4.1616300926024745e+38
5754.754754754755 4.1376454469870784e+38
5764.764764764765 4.113821410447769e+38
5774.774774774774 4.090156826807459e+38
5784.784784784785 4.066650553348497e+38
5794.794794794795 4.0433014604729236e+38
5804.804804804805 4.0201084313717065e+38
5814.814814814815 3.9970703617028284e+38
5824.824824824825 3.974186159278033e+38
5834.8348348348345 3.9514547437580664e+38
5844.844844844845 3.928875046356317e+38
5854.854854854855 3.906446009550574e+38
5864.864864864865 3.884166586802868e+38
5874.874874874875 3.8620357422871714e+38
5884.884884884885 3.840052450624795e+38
5894.894894894895 3.818215696627358e+38
