#lamb flux
1000.0 11.802115826903899
1010.01001001001 11.780656571045165
1020.0200200200201 11.754035715134593
1030.03003003003 11.722509441125059
1040.0400400400401 11.686327633424483
1050.05005005005 11.645733634690965
1060.06006006006 11.60096405389887
1070.07007007007 11.552248621548127
1080.08008008008 11.499810087255556
1090.0900900900901 11.443864155318145
1100.1001001001 11.384619454172658
1110.11011011011 11.322277535994827
1120.1201201201202 11.257032902981672
1130.13013013013 11.189073057144867
1140.1401401401401 11.118578570709339
1150.1501501501502 11.045723174461674
1160.16016016016 10.970673861625842
1170.1701701701702 10.893591005062225
1180.1801801801803 10.814628485788015
1190.1901901901902 10.733933831004979
1200.2002002002002 10.651648359995002
1210.2102102102103 10.567907336404287
1220.2202202202202 10.482840125585946
1230.2302302302303 10.396570355807114
1240.2402402402402 10.309216082252552
1250.2502502502502 10.220886122624341
1260.2602602602603 10.131676710902505
1270.2702702702702 10.041670575036825
1280.2802802802803 9.95096701222262
1290.2902902902902 9.85966053952469
1300.3003003003003 9.767841054533177
1310.3103103103103 9.675593994624645
1320.3203203203202 9.583000494396344
1330.3303303303303 9.49013754090034
1340.3403403403404 9.39707812635627
1350.3503503503503 9.30389139806938
1360.3603603603603 9.210642805323443
1370.3703703703704 9.117394243056967
1380.3803803803803 9.02420419216614
1390.3903903903904 8.931127856309224
1400.4004004004005 8.838217295115253
1410.4104104104103 8.745521553724988
1420.4204204204204 8.653086788614573
1430.4304304304305 8.560956389671922
1440.4404404404404 8.469171098513847
1450.4504504504505 8.377769123047031
1460.4604604604606 8.286786248289987
1470.4704704704704 8.196255943484633
1480.4804804804805 8.106209465536862
1490.4904904904906 8.01667595883415
1500.5005005005005 7.9276825514959555
1510.5105105105106 7.839254448119343
1520.5205205205207 7.751415019087611
1530.5305305305305 7.664185886514231
1540.5405405405404 7.577587006898308
1550.5505505505505 7.49163675057066
1560.5605605605606 7.406351978011869
1570.5705705705705 7.321748113125673
1580.5805805805805 7.237839213552088
1590.5905905905906 7.154638038105558
1600.6006006006005 7.072156111423897
1610.6106106106106 6.9904037859139505
1620.6206206206207 6.909390301079585
1630.6306306306305 6.829123840317683
1640.6406406406406 6.749611585266818
1650.6506506506507 6.670859767793345
1660.6606606606606 6.5928737196986145
1670.6706706706707 6.515657920230705
1680.6806806806808 6.439216041483723
1690.6906906906906 6.363550991767368
1700.7007007007007 6.2886650787438585
1710.7107107107108 6.214560288527545
1720.7207207207207 6.141237413153117
1730.7307307307308 6.06869657898156
1740.7407407407409 5.9969373495997935
1750.7507507507507 5.925958757931939
1760.7607607607606 5.855759336988293
1770.770770770771 5.786337149350127
1780.7807807807808 5.717689815495733
1790.7907907907907 5.649814541082328
1800.8008008008007 5.58270814330948
1810.8108108108108 5.5163670765029735
1820.8208208208207 5.4507874570734804
1830.8308308308308 5.385965088022429
1840.8408408408409 5.321895483187379
1850.8508508508507 5.258573891441199
1860.8608608608608 5.195995321082175
1870.870870870871 5.134154564674762
1880.8808808808808 5.073046224620916
1890.890890890891 5.012664739756419
1900.900900900901 4.953004413271634
1910.9109109109108 4.894059442244859
1920.920920920921 4.835823949042202
1930.930930930931 4.778292014770224
1940.940940940941 4.721457714856143
1950.950950950951 4.665315156661921
1960.960960960961 4.609858518801722
1970.970970970971 4.555082091516472
1980.980980980981 4.50098031706066
1990.9909909909911 4.447547828580113
2001.001001001001 4.394779485426501
2011.0110110110109 4.342670402305608
2021.0210210210212 4.2912159691599445
2031.031031031031 4.2404118583348485
2041.0410410410411 4.190254015488818
2051.051051051051 4.140738631010049
2061.061061061061 4.091862089507319
2071.071071071071 4.043620896325932
2081.081081081081 3.996011581988514
2091.091091091091 3.9490305878526795
2101.101101101101 3.90267413885966
2111.1111111111113 3.856938111649206
2121.121121121121 3.811817908100584
2131.131131131131 3.767308345110533
2141.141141141141 3.723403570844759
2151.151151151151 3.6800970157247535
2161.161161161161 3.63738138322961
2171.1711711711714 3.5952486816469778
2181.1811811811813 3.553690293807095
2191.191191191191 3.512697078218511
2201.201201201201 3.4722594924218746
2211.2112112112113 3.43236772809632
2221.221221221221 3.3930118475347815
2231.2312312312315 3.354181912352959
2241.2412412412414 3.315868097351345
2251.2512512512512 3.2780607848885475
2261.261261261261 3.2407506375546133
2271.271271271271 3.203928649056123
2281.2812812812813 3.1675861748628984
2291.2912912912916 3.131714945257748
2301.3013013013015 3.0963070640058317
2311.3113113113113 3.061354996006776
2321.321321321321 3.026851547123699
2331.331331331331 2.99278983901255
2341.3413413413414 2.9591632813016027
2351.3513513513512 2.9259655429699305
2361.3613613613616 2.893190524297821
2371.3713713713714 2.8608323303422654
2381.3813813813813 2.8288852465411396
2391.391391391391 2.79734371677332
2401.4014014014015 2.766202323993803
2411.4114114114113 2.735455773414013
2421.4214214214217 2.7050988780975582
2431.4314314314315 2.675126546780265
2441.4414414414414 2.645533773690804
2451.4514514514512 2.616315630136867
2461.4614614614616 2.587467257624776
2471.4714714714714 2.5589838622927883
2481.4814814814818 2.530860710456157
2491.4914914914916 2.5030931250826938
2501.5015015015015 2.4756764830389293
2511.5115115115113 2.4486062129679533
2521.521521521521 2.421877793679749
2531.5315315315315 2.395486752952755
2541.541541541542 2.3694286666615767
2551.5515515515517 2.343699158159814
2561.5615615615616 2.3182938978592906
2571.5715715715714 2.2932086029575065
2581.5815815815813 2.2684390372740166
2591.5915915915916 2.243981011164015
2601.6016016016015 2.2198303814836997
2611.611611611612 2.1959830515872074
2621.6216216216217 2.1724349713392903
2631.6316316316315 2.149182137131379
2641.6416416416414 2.1262205918916965
2651.6516516516517 2.1035464250823357
2661.6616616616616 2.081155772678198
2671.671671671672 2.0590448171241773
2681.6816816816818 2.037209787268248
2691.6916916916916 2.015646958268998
2701.7017017017015 1.9943526514769894
2711.711711711712 1.9733232342898608
2721.7217217217217 1.9525551199815745
2731.731731731732 1.9320447675064774
2741.741741741742 1.9117886812792122
2751.7517517517517 1.8917834109315421
2761.7617617617616 1.8720255510474182
2771.7717717717715 1.8525117408775689
2781.781781781782 1.8332386640349976
2791.791791791792 1.8142030481727938
2801.801801801802 1.7954016646455742
2811.811811811812 1.7768313281559431
2821.8218218218217 1.758488896387253
2831.8318318318316 1.740371269623927
2841.841841841842 1.7224753903605443
2851.851851851852 1.7047982429008508
2861.861861861862 1.687336852947759
2871.871871871872 1.6700882871853908
2881.881881881882 1.65304965285412
2891.8918918918916 1.636218097319544
2901.901901901902 1.619590807636215
2911.911911911912 1.6031650101069606
2921.921921921922 1.586937969838512
2931.931931931932 1.5709069902941744
2941.941941941942 1.5550694128441493
2951.9519519519517 1.539422616314137
2961.961961961962 1.5239640165327821
2971.971971971972 1.5086910658784602
2981.9819819819822 1.4936012528259084
2991.991991991992 1.4786921014931307
3002.002002002002 1.4639611711889968
3012.012012012012 1.4494060559619046
3022.0220220220217 1.4350243841498684
3032.032032032032 1.4208411821106783
3042.0420420420423 1.406795846599151
3052.052052052052 1.392916132396497
3062.062062062062 1.3792000724784996
3072.072072072072 1.3656456911691737
3082.0820820820823 1.3522510083841006
3092.092092092092 1.339014043410252
3102.102102102102 1.3259328182652463
3112.1121121121123 1.3130053606753063
3122.122122122122 1.3002297067076998
3132.132132132132 1.2876039030903499
3142.1421421421423 1.2751260092484127
3152.152152152152 1.2627940990849955
3162.162162162162 1.2506062625307575
3172.1721721721724 1.2385606068849668
3182.1821821821823 1.2266552579685461
3192.192192192192 1.2148883611077874
3202.202202202202 1.2032580819657628
3212.2122122122123 1.191762607236882
3222.222222222222 1.180400145218664
3232.232232232232 1.169168926273482
3242.2422422422424 1.1580672031918864
3252.252252252252 1.14709325146803
3262.262262262262 1.1362453694967256
3272.2722722722724 1.1255218787008028
3282.2822822822823 1.1149211235965883
3292.292292292292 1.1044414718046076
3302.3023023023025 1.0940813140119177
3312.3123123123123 1.0838390638918756
3322.322322322322 1.0737131579865755
3332.3323323323325 1.0637020555566739
3342.3423423423424 1.0538042384028752
3352.352352352352 1.044018210662885
3362.3623623623625 1.0343424985873189
3372.3723723723724 1.0247756502976295
3382.3823823823823 1.0153162355288445
3392.3923923923926 1.0059628453596217
3402.4024024024025 0.9967140919318273
3412.4124124124123 0.9875686081616368
3422.4224224224226 0.9785250474439403
3432.4324324324325 0.9695820833516254
3442.4424424424424 0.9607384093311387
3452.4524524524522 0.951992738395571
3462.4624624624626 0.9433438028163661
3472.4724724724724 0.9347903538146211
3482.4824824824823 0.926331161252816
3492.4924924924926 0.9179650133277323
3502.5025025025025 0.9096907162651949
3512.5125125125123 0.9015070940172021
3522.5225225225226 0.8934129879619267
3532.5325325325325 0.8854072566070038
3542.5425425425424 0.8774887752964504
3552.5525525525527 0.8696564359215171
3562.5625625625626 0.8619091466357195
3572.5725725725724 0.8542458315742406
3582.5825825825827 0.8466654305778748
3592.5925925925926 0.8391668989216362
3602.6026026026025 0.8317492070481232
3612.612612612613 0.8244113403057117
3622.6226226226227 0.8171522986916148
3632.6326326326325 0.8099710965998294
3642.642642642643 0.8028667625739808
3652.6526526526527 0.7958383390650431
3662.6626626626626 0.7888848821939023
3672.672672672673 0.7820054615187403
3682.6826826826828 0.7751991598071699
3692.6926926926926 0.7684650728130688
3702.7027027027025 0.761802309058046
3712.712712712713 0.755209989617462
3722.7227227227227 0.7486872479109318
3732.7327327327325 0.7422332294972142
3742.742742742743 0.7358470918734148
3752.7527527527527 0.7295280042784027
3762.7627627627626 0.7232751475003543
3772.772772772773 0.7170877136883306
3782.7827827827828 0.7109649061677964
3792.7927927927926 0.7049059392599819
3802.802802802803 0.6989100381050014
3812.812812812813 0.6929764384886288
3822.8228228228227 0.6871043866726415
3832.832832832833 0.68129313922864
3842.842842842843 0.6755419628752543
3852.8528528528527 0.6698501343186474
3862.862862862863 0.6642169400962279
3872.872872872873 0.6586416764234928
3882.8828828828828 0.6531236490439015
3892.892892892893 0.6476621730817264
3902.902902902903 0.6422565728977703
3912.912912912913 0.6369061819478942
3922.922922922923 0.6316103426442727
3932.932932932933 0.6263684062193067
3942.942942942943 0.6211797325921147
3952.9529529529527 0.6160436902375461
3962.962962962963 0.6109596560576381
3972.972972972973 0.6059270152554599
3982.982982982983 0.6009451612112745
3992.992992992993 0.5960134953609607
4003.003003003003 0.5911314270766411
4013.013013013013 0.5862983735494485
4023.023023023023 0.5815137596743847
4033.033033033033 0.5767770179372178
4043.043043043043 0.5720875883033594
4053.053053053053 0.5674449181086811
4063.063063063063 0.5628484619522202
4073.073073073073 0.558297681590721
4083.0830830830832 0.553792045834979
4093.093093093093 0.549331030447935
4103.103103103103 0.5449141180444824
4113.113113113113 0.5405407979929501
4123.123123123123 0.53621056631821
4133.133133133133 0.5319229256063888
4143.143143143143 0.5276773849111351
4153.153153153153 0.5234734596614139
4163.163163163163 0.5193106715707869
4173.173173173173 0.5151885485481579
4183.183183183183 0.51110662460994
4193.193193193193 0.5070644397936218
4203.203203203203 0.5030615400726979
4213.213213213214 0.4990974772729422
4223.223223223224 0.4951718089899887
4233.2332332332335 0.4912840985081978
4243.243243243243 0.4874339147207811
4253.253253253253 0.48362083205115974
4263.263263263263 0.4798444303755327
4273.273273273273 0.4761042949466304
4283.283283283283 0.472400016318632
4293.293293293293 0.4687311902732243
4303.303303303303 0.465097417746779
4313.313313313313 0.4614983047586327
4323.323323323323 0.45793346234044047
4333.333333333334 0.45440250646659386
4343.343343343344 0.45090505798567737
4353.353353353354 0.4474407425529469
4363.3633633633635 0.44400919056381183
4373.373373373373 0.4406100370883052
4383.383383383383 0.4372429218065217
4393.393393393393 0.43390748894500997
4403.403403403403 0.4306033872141019
4413.413413413413 0.4273302697461603
4423.423423423424 0.4240877940347363
4433.4334334334335 0.4208756218746151
4443.443443443443 0.4176934193027382
4453.453453453454 0.41454085653998657
4463.463463463464 0.41141760793381704
4473.473473473474 0.40832335190172336
4483.483483483484 0.4052577708755289
4493.493493493494 0.4022205512464795
4503.503503503503 0.39921138331113587
4513.513513513513 0.39622996121804815
4523.523523523523 0.3932759829151988
4533.533533533533 0.3903491500982081
4543.543543543543 0.3874491681592835
4553.553553553554 0.38457574613690587
4563.563563563564 0.38172859666624037
4573.573573573573 0.37890743593025933
4583.583583583584 0.3761119836115687
4593.593593593594 0.3733419628449273
4603.603603603604 0.3705971001704437
4613.613613613614 0.36787712548745055
4623.623623623624 0.3651817720090329
4633.6336336336335 0.36251077621721456
4643.643643643643 0.35986387781878165
4653.653653653653 0.35724081970174
4663.663663663663 0.3546413478923955
4673.673673673674 0.35206521151304726
4683.683683683684 0.3495121627402862
4693.693693693694 0.34698195676388877
4703.703703703704 0.3444743517462974
4713.713713713714 0.3419891087826803
4723.723723723724 0.33952599186156
4733.733733733734 0.3370847678260034
4743.743743743744 0.3346652063353667
4753.753753753754 0.3322670798275834
4763.763763763764 0.32989016348199146
4773.773773773773 0.3275342351826883
4783.783783783783 0.3251990754824094
4793.793793793793 0.3228844675669193
4803.803803803804 0.3205901972199107
4813.813813813814 0.3183160527884019
4823.823823823824 0.31606182514862735
4833.833833833834 0.31382730767241124
4843.843843843844 0.31161229619402264
4853.853853853854 0.3094165889774971
4863.863863863864 0.3072399866844255
4873.873873873874 0.3050822923421995
4883.883883883884 0.3029433113127078
4893.893893893894 0.3008228512614758
4903.9039039039035 0.29872072212724504
4913.913913913913 0.2966367360919814
4923.923923923924 0.2945707075513105
4933.933933933934 0.2925224530853722
4943.943943943944 0.2904917914300857
4953.953953953955 0.2884785434488244
4963.9639639639645 0.28648253210449043
4973.973973973974 0.28450358243198354
4983.983983983984 0.2825415215110612
4993.993993993994 0.28059617843958184
5004.004004004004 0.27866738430712484
5014.014014014014 0.27675497216898587
5024.024024024024 0.27485877702053657
5034.0340340340335 0.27297863577194925
5044.044044044043 0.27111438722327524
5054.054054054054 0.2692658720398768
5064.064064064064 0.26743293272820484
5074.074074074074 0.26561541361191715
5084.084084084085 0.26381316080833345
5094.0940940940945 0.2620260222052228
5104.104104104104 0.26025384743791574
5114.114114114114 0.25849648786673957
5124.124124124124 0.2567537965547701
5134.134134134134 0.2550256282458964
5144.144144144144 0.25331183934319296
5154.154154154154 0.2516122878875954
5164.1641641641645 0.24992683353687467
5174.174174174174 0.2482553375449075
5184.184184184184 0.24659766274123493
5194.194194194194 0.24495367351090752
5204.204204204204 0.24332323577461412
5214.214214214214 0.24170621696908573
5224.224224224225 0.24010248602777473
5234.2342342342345 0.23851191336180355
5244.244244244244 0.23693437084117805
5254.254254254254 0.235369731776264
5264.264264264264 0.2338178708995203
5274.274274274274 0.23227866434748723
5284.284284284285 0.2307519896430253
5294.294294294295 0.22923772567779999
5304.304304304304 0.22773575269500967
5314.314314314314 0.22624595227235456
5324.324324324324 0.22476820730523966
5334.334334334334 0.22330240199021253
5344.344344344345 0.2218484218086278
5354.354354354355 0.22040615351054008
5364.3643643643645 0.21897548509881679
5374.374374374374 0.2175563058134731
5384.384384384384 0.2161485061162202
5394.394394394394 0.2147519776752283
5404.404404404404 0.21336661335009835
5414.414414414415 0.21199230717704112
5424.424424424425 0.2106289543542598
5434.4344344344345 0.20927645122753252
5444.444444444444 0.2079346952759934
5454.454454454454 0.2066035850981086
5464.464464464464 0.2052830203978435
5474.474474474475 0.2039729019710196
5484.484484484485 0.20267313169185788
5494.494494494495 0.2013836124997053
5504.504504504504 0.20010424838594285
5514.514514514514 0.1988349443810714
5524.524524524524 0.197575606541974
5534.534534534535 0.19632614193935052
5544.544544544545 0.19508645864532345
5554.554554554555 0.1938564657212114
5564.5645645645645 0.19263607320546863
5574.574574574574 0.19142519210178788
5584.584584584584 0.19022373436736376
5594.594594594595 0.18903161290131415
5604.604604604605 0.18784874153326012
5614.614614614615 0.1866750350120559
5624.624624624625 0.18551040899467466
5634.6346346346345 0.18435478003524075
5644.644644644644 0.18320806557421057
5654.654654654654 0.182070183927699
5664.664664664665 0.18094105427694698
5674.674674674675 0.17982059665793293
5684.684684684685 0.17870873195112041
5694.694694694695 0.17760538187134395
5704.704704704704 0.17651046895783018
5714.714714714714 0.1754239165643509
5724.724724724725 0.17434564884950798
5734.734734734735 0.1732755907671472
5744.744744744745 0.17221366805689903
5754.754754754755 0.1711598072348453
5764.764764764765 0.17011393558430932
5774.774774774774 0.16907598114676803
5784.784784784785 0.16804587271288382
5794.794794794795 0.1670235398136551
5804.804804804805 0.16600891271168336
5814.814814814815 0.16500192239255518
5824.824824824825 0.16400250055633783
5834.8348348348345 0.16301057960918572
5844.844844844845 0.16202609265505852
5854.854854854855 0.1610489734875461
5864.864864864865 0.16007915658180147
5874.874874874875 0.15911657708657873
5884.884884884885 0.1581611708163751
5894.894894894895 0.1572128742436753
5904.9049049049045 0.15627162449129706
5914.914914914915 0.15533735932483556
5924.924924924925 0.15441001714520744
5934.934934934935 0.15348953698128914
5944.944944944945 0.15257585848265334
5954.954954954955 0.15166892191239698
5964.964964964965 0.15076866814006348
5974.974974974975 0.14987503863465554
5984.984984984985 0.14898797545773843
5994.994994994995 0.14810742125663168
6005.005005005005 0.14723331925768818
6015.015015015015 0.14636561325965988
6025.025025025025 0.14550424762714903
6035.035035035035 0.1446491672841416
6045.045045045045 0.14380031770762552
6055.055055055055 0.14295764492128862
6065.065065065065 0.14212109548929783
6075.075075075075 0.1412906165101577
6085.085085085085 0.14046615561064643
6095.0950950950955 0.1396476609398295
6105.105105105105 0.1388350811631492
6115.115115115115 0.13802836545658834
6125.125125125125 0.1372274635009087
6135.135135135135 0.13643232547596215
6145.145145145145 0.13564290205507265
6155.155155155155 0.1348591443994904
6165.1651651651655 0.13408100415291446
6175.175175175175 0.13330843343608575
6185.185185185185 0.13254138484144604
6195.195195195195 0.1317798114278657
6205.205205205205 0.13102366671543642
6215.215215215215 0.1302729046803288
6225.225225225226 0.12952747974971549
6235.235235235235 0.12878734679675585
6245.245245245245 0.12805246113564464
6255.255255255255 0.1273227785167216
6265.265265265265 0.12659825512164122
6275.275275275275 0.1258788475586035
6285.285285285286 0.12516451285764324
6295.295295295296 0.12445520846597759
6305.305305305305 0.1237508922434109
6315.315315315315 0.12305152245779664
6325.325325325325 0.1223570577805554
6335.335335335335 0.12166745728224716
6345.345345345346 0.12098268042819887
6355.355355355356 0.12030268707418536
