#lamb flux
1000.0 5.48643303861253e+40
1010.01001001001 5.680091406380611e+40
1020.0200200200201 5.871812341144003e+40
1030.03003003003 6.061396800931267e+40
1040.0400400400401 6.24866312751322e+40
1050.05005005005 6.433446279716989e+40
1060.06006006006 6.615597044996179e+40
1070.07007007007 6.794981240099138e+40
1080.08008008008 6.971478909946525e+40
1090.0900900900901 7.144983532288958e+40
1100.1001001001 7.315401234356858e+40
1110.11011011011 7.482650026523103e+40
1120.1201201201202 7.646659056961324e+40
1130.13013013013 7.807367890384946e+40
1140.1401401401401 7.964725813180173e+40
1150.1501501501502 8.118691166587551e+40
1160.16016016016 8.269230709028419e+40
1170.1701701701702 8.416319008203156e+40
1180.1801801801803 8.55993786319715e+40
1190.1901901901902 8.700075756507076e+40
1200.2002002002002 8.836727335637187e+40
1210.2102102102103 8.969892923702678e+40
1220.2202202202202 9.09957805830991e+40
1230.2302302302303 9.225793057853091e+40
1240.2402402402402 9.348552614269418e+40
1250.2502502502502 9.467772931826895e+40
1260.2602602602603 9.583164565081223e+40
1270.2702702702702 9.694180872653167e+40
1280.2802802802803 9.800844699770793e+40
1290.2902902902902 9.9031845064899e+40
1300.3003003003003 1.0001233912143762e+41
1310.3103103103103 1.0095031260354088e+41
1320.3203203203202 1.018461920442742e+41
1330.3303303303303 1.0270044312855117e+41
1340.3403403403404 1.0351356694544038e+41
1350.3503503503503 1.0428609643330237e+41
1360.3603603603603 1.0501859301265558e+41
1370.3703703703704 1.0571164340116812e+41
1380.3803803803803 1.0636585660476886e+41
1390.3903903903904 1.0698186107856447e+41
1400.4004004004005 1.0756030205100803e+41
1410.4104104104103 1.0810183900460936e+41
1420.4204204204204 1.0860714330636277e+41
1430.4304304304305 1.0907689598101428e+41
1440.4404404404404 1.0951178562027965e+41
1450.4504504504505 1.099125064211403e+41
1460.4604604604606 1.1027975634640356e+41
1470.4704704704704 1.1061423540078762e+41
1480.4804804804805 1.1091664401589108e+41
1490.4904904904906 1.1118768153752334e+41
1500.5005005005005 1.114280448090015e+41
1510.5105105105106 1.1163842684416093e+41
1520.5205205205207 1.1181951558397686e+41
1530.5305305305305 1.1197199273085452e+41
1540.5405405405404 1.120965326548133e+41
1550.5505505505505 1.1219380136596149e+41
1560.5605605605606 1.1226445554784773e+41
1570.5705705705705 1.1230914164646588e+41
1580.5805805805805 1.123284950098979e+41
1590.5905905905906 1.1232313907380673e+41
1600.6006006006005 1.1229368458823664e+41
1610.6106106106106 1.1224072888145667e+41
1620.6206206206207 1.1216485515689866e+41
1630.6306306306305 1.1206663181960587e+41
1640.6406406406406 1.1194661182903765e+41
1650.6506506506507 1.118053320755869e+41
1660.6606606606606 1.1164331277877812e+41
1670.6706706706707 1.1146105690585917e+41
1680.6806806806808 1.1125904961040091e+41
1690.6906906906906 1.110377576916277e+41
1700.7007007007007 1.107976910151549e+41
1710.7107107107108 1.1053952804848876e+41
1720.7207207207207 1.1026365201876015e+41
1730.7307307307308 1.0997039482342128e+41
1740.7407407407409 1.096600714617795e+41
1750.7507507507507 1.0933297959196386e+41
1760.7607607607606 1.0898939917660547e+41
1770.770770770771 1.0862959224254133e+41
1780.7807807807808 1.0825380278632126e+41
1790.7907907907907 1.0786225686502949e+41
1800.8008008008007 1.0745516292108512e+41
1810.8108108108108 1.0703271240041702e+41
1820.8208208208207 1.0659508073584468e+41
1830.8308308308308 1.0614242878168319e+41
1840.8408408408409 1.0567490480147144e+41
1850.8508508508507 1.0519264712807972e+41
1860.8608608608608 1.0469578763376286e+41
1870.870870870871 1.041844561661495e+41
1880.8808808808808 1.0365878612327864e+41
1890.890890890891 1.031189213545597e+41
1900.900900900901 1.0256502458196832e+41
1910.9109109109108 1.0199728753289086e+41
1920.920920920921 1.0141594295752373e+41
1930.930930930931 1.0082127866307099e+41
1940.940940940941 1.002136536263988e+41
1950.950950950951 9.959351613771502e+40
1960.960960960961 9.896142377170814e+40
1970.970970970971 9.831806477227796e+40
1980.980980980981 9.766428016901836e+40
1990.9909909909911 9.700108562097792e+40
2001.001001001001 9.632969161900665e+40
2011.0110110110109 9.56515202990448e+40
2021.0210210210212 9.496821676867882e+40
2031.031031031031 9.428165258960636e+40
2041.0410410410411 9.359391896586087e+40
2051.051051051051 9.290730734534948e+40
2061.061061061061 9.222427562673373e+40
2071.071071071071 9.154739902369204e+40
2081.081081081081 9.087930587216784e+40
2091.091091091091 9.022260020009116e+40
2101.101101101101 8.957977455850188e+40
2111.1111111111113 8.895311820951595e+40
2121.121121121121 8.834462700844378e+40
2131.131131131131 8.775592194111283e+40
2141.141141141141 8.71881830903359e+40
2151.151151151151 8.664210474226585e+40
2161.161161161161 8.611787549854935e+40
2171.1711711711714 8.561518488178694e+40
2181.1811811811813 8.513325536483112e+40
2191.191191191191 8.467089640515852e+40
2201.201201201201 8.422657525822867e+40
2211.2112112112113 8.379849829408576e+40
2221.221221221221 8.338469631390497e+40
2231.2312312312315 8.298310787740034e+40
2241.2412412412414 8.259165572121917e+40
2251.2512512512512 8.220831273409159e+40
2261.261261261261 8.183115542029964e+40
2271.271271271271 8.14584041356202e+40
2281.2812812812813 8.108845049032373e+40
2291.2912912912916 8.071987312052851e+40
2301.3013013013015 8.035144352779491e+40
2311.3113113113113 7.998212391288793e+40
2321.321321321321 7.961105894059793e+40
2331.331331331331 7.923756323237347e+40
2341.3413413413414 7.886110615199648e+40
2351.3513513513512 7.848129517591832e+40
2361.3613613613616 7.809785886082372e+40
2371.3713713713714 7.771063016083994e+40
2381.3813813813813 7.731953061948378e+40
2391.391391391391 7.692455577289977e+40
2401.4014014014015 7.65257619516064e+40
2411.4114114114113 7.612325455483307e+40
2421.4214214214217 7.571717778977666e+40
2431.4314314314315 7.530770581225255e+40
2441.4414414414414 7.48950351698713e+40
2451.4514514514512 7.447937842914966e+40
2461.4614614614616 7.406095885969222e+40
2471.4714714714714 7.364000604835009e+40
2481.4814814814818 7.32167523213885e+40
2491.4914914914916 7.279142986113894e+40
2501.5015015015015 7.236426841386266e+40
2511.5115115115113 7.193549349654705e+40
2521.521521521521 7.150532502135619e+40
2531.5315315315315 7.107397626699302e+40
2541.541541541542 7.064165313601325e+40
2551.5515515515517 7.020855364601026e+40
2561.5615615615616 6.977486761051224e+40
2571.5715715715714 6.934077647240257e+40
2581.5815815815813 6.890645325873586e+40
2591.5915915915916 6.84720626310479e+40
2601.6016016016015 6.803776100972628e+40
2611.611611611612 6.760369675480175e+40
2621.6216216216217 6.71700103887271e+40
2631.6316316316315 6.673683484939792e+40
2641.6416416416414 6.630429576392277e+40
2651.6516516516517 6.587251173551884e+40
2661.6616616616616 6.544159463746259e+40
2671.671671671672 6.501164990930418e+40
2681.6816816816818 6.458277685160717e+40
2691.6916916916916 6.415506891633638e+40
2701.7017017017015 6.372861399071904e+40
2711.711711711712 6.330349467297396e+40
2721.7217217217217 6.287978853876369e+40
2731.731731731732 6.245756839759256e+40
2741.741741741742 6.203690253866986e+40
2751.7517517517517 6.161785496598717e+40
2761.7617617617616 6.12004856225449e+40
2771.7717717717715 6.078485060380092e+40
2781.781781781782 6.037100236052432e+40
2791.791791791792 5.995898989131801e+40
2801.801801801802 5.954885892513142e+40
2811.811811811812 5.91406520941273e+40
2821.8218218218217 5.873440909729394e+40
2831.8318318318316 5.833016685520945e+40
2841.841841841842 5.792795965637343e+40
2851.851851851852 5.752781929552136e+40
2861.861861861862 5.7129775204332895e+40
2871.871871871872 5.673385457493647e+40
2881.881881881882 5.634008247660199e+40
2891.8918918918916 5.5948481965998745e+40
2901.901901901902 5.555907419138189e+40
2911.911911911912 5.51718784910544e+40
2921.921921921922 5.478691248643471e+40
2931.931931931932 5.440419217004499e+40
2941.941941941942 5.4023731988716995e+40
2951.9519519519517 5.364554492229722e+40
2961.961961961962 5.326964255811697e+40
2971.971971971972 5.2896035161477915e+40
2981.9819819819822 5.252473174238854e+40
2991.991991991992 5.215574011877297e+40
3002.002002002002 5.178906697636081e+40
3012.012012012012 5.142471792545281e+40
3022.0220220220217 5.106269755474622e+40
3032.032032032032 5.073122212327195e+40
3042.0420420420423 5.037025730987011e+40
3052.052052052052 5.001066611009166e+40
3062.062062062062 4.965272475224128e+40
3072.072072072072 4.92966693894332e+40
3082.0820820820823 4.894270038878708e+40
3092.092092092092 4.859098623178804e+40
3102.102102102102 4.824166705540256e+40
3112.1121121121123 4.789485786206736e+40
3122.122122122122 4.755065142510832e+40
3132.132132132132 4.720912091455203e+40
3142.1421421421423 4.687032226669433e+40
3152.152152152152 4.653429631921454e+40
3162.162162162162 4.620107073208822e+40
3172.1721721721724 4.587066171307468e+40
3182.1821821821823 4.554307556513987e+40
3192.192192192192 4.52183100718344e+40
3202.202202202202 4.489635573537895e+40
3212.2122122122123 4.45771968810198e+40
3222.222222222222 4.42608126401029e+40
3232.232232232232 4.394717782327792e+40
3242.2422422422424 4.363626369427865e+40
3252.252252252252 4.3328038653831644e+40
3262.262262262262 4.302246884241896e+40
3272.2722722722724 4.2719518669857175e+40
3282.2822822822823 4.2419151278952268e+40
3292.292292292292 4.212132894984307e+40
3302.3023023023025 4.1826013451052773e+40
3312.3123123123123 4.153316634272227e+40
3322.322322322322 4.124274923700084e+40
3332.3323323323325 4.0954724020111622e+40
3342.3423423423424 4.0669053040192465e+40
3352.352352352352 4.038569926462872e+40
3362.3623623623625 4.0104626410248024e+40
3372.3723723723724 3.982579904942598e+40
3382.3823823823823 3.954918269486213e+40
3392.3923923923926 3.9274743865521267e+40
3402.4024024024025 3.9002450135991647e+40
3412.4124124124123 3.8732270171293157e+40
3422.4224224224226 3.846417374896773e+40
3432.4324324324325 3.819813177010127e+40
3442.4424424424424 3.7934116260761213e+40
3452.4524524524522 3.767210036518219e+40
3462.4624624624626 3.741205833189582e+40
3472.4724724724724 3.7153965493875387e+40
3482.4824824824823 3.689779824365288e+40
3492.4924924924926 3.664353400426384e+40
3502.5025025025025 3.639115119678139e+40
3512.5125125125123 3.614062920511642e+40
3522.5225225225226 3.5891948338685036e+40
3532.5325325325325 3.564508979347358e+40
3542.5425425425424 3.5400035611970036e+40
3552.5525525525527 3.515676864237329e+40
3562.5625625625626 3.491527249744015e+40
3572.5725725725724 3.467553151328416e+40
3582.5825825825827 3.4437530708398297e+40
3592.5925925925926 3.4201255743136087e+40
3602.6026026026025 3.3966692879851593e+40
3612.612612612613 3.373382894386876e+40
3622.6226226226227 3.350265128542291e+40
3632.6326326326325 3.327314774269302e+40
3642.642642642643 3.3045306606021587e+40
3652.6526526526527 3.2819116583399515e+40
3662.6626626626626 3.259456676727537e+40
3672.672672672673 3.2371646602734745e+40
3682.6826826826828 3.215034585707953e+40
3692.6926926926926 3.193065459082715e+40
3702.7027027027025 3.1712563130137444e+40
3712.712712712713 3.149606204066697e+40
3722.7227227227227 3.1281142102842085e+40
3732.7327327327325 3.106779428853427e+40
3742.742742742743 3.085600973911708e+40
3752.7527527527527 3.064577974487714e+40
3762.7627627627626 3.043709572574839e+40
3772.772772772773 3.0229949213334804e+40
3782.7827827827828 3.0024331834184007e+40
3792.7927927927926 2.98202352942714e+40
3802.802802802803 2.961765136465324e+40
3812.812812812813 2.941657186824506e+40
3822.8228228228227 2.921698866768078e+40
3832.832832832833 2.9018893654207974e+40
3842.842842842843 2.8822278737573247e+40
3852.8528528528527 2.8627135836852605e+40
3862.862862862863 2.843345687218127e+40
3872.872872872873 2.8241233757338075e+40
3882.8828828828828 2.8050458393139703e+40
3892.892892892893 2.7861122661601812e+40
3902.902902902903 2.767321842082338e+40
3912.912912912913 2.748673750055292e+40
3922.922922922923 2.730167169839567e+40
3932.932932932933 2.7118012776622294e+40
3942.942942942943 2.693575245954028e+40
3952.9529529529527 2.6754882431391264e+40
3962.962962962963 2.657539433473836e+40
3972.972972972973 2.6397279769308913e+40
3982.982982982983 2.6220530291259454e+40
3992.992992992993 2.604513741283106e+40
4003.003003003003 2.587109260236504e+40
4013.013013013013 2.5698387284649047e+40
4023.023023023023 2.55270128415667e+40
4033.033033033033 2.535696061302361e+40
4043.043043043043 2.5188221898125045e+40
4053.053053053053 2.5020787956581216e+40
4063.063063063063 2.4854650010317615e+40
4073.073073073073 2.4689799245268807e+40
4083.0830830830832 2.4526226813335854e+40
4093.093093093093 2.4363923834487953e+40
4103.103103103103 2.4202881398990286e+40
4113.113113113113 2.404309056974178e+40
4123.123123123123 2.388454238470608e+40
4133.133133133133 2.372722785942165e+40
4143.143143143143 2.357113798957679e+40
4153.153153153153 2.341626375363674e+40
4163.163163163163 2.326259611551066e+40
4173.173173173173 2.3110126027247535e+40
4183.183183183183 2.2958844431750535e+40
4193.193193193193 2.2808742265499983e+40
4203.203203203203 2.26598104612765e+40
4213.213213213214 2.2512039950875864e+40
4223.223223223224 2.236542166780813e+40
4233.2332332332335 2.2219946549974136e+40
4243.243243243243 2.2075605542313353e+40
4253.253253253253 2.1932389599416957e+40
4263.263263263263 2.1790289688101566e+40
4273.273273273273 2.1649296789938362e+40
4283.283283283283 2.1509401903733937e+40
4293.293293293293 2.1370596047958937e+40
4303.303303303303 2.123287026312119e+40
4313.313313313313 2.109621561408058e+40
4323.323323323323 2.0960623192302983e+40
4333.333333333334 2.0826084118051206e+40
4343.343343343344 2.06925895425112e+40
4353.353353353354 2.056013064985171e+40
4363.3633633633635 2.0428698659216406e+40
4373.373373373373 2.0298284826647478e+40
4383.383383383383 2.0168880446939785e+40
4393.393393393393 2.004047685542525e+40
4403.403403403403 1.991306542968716e+40
4413.413413413413 1.978663759120407e+40
4423.423423423424 1.9661184806923853e+40
4433.4334334334335 1.9536698590767624e+40
4443.443443443443 1.9413170505064243e+40
4453.453453453454 1.9290592161915856e+40
4463.463463463464 1.9168955224495258e+40
4473.473473473474 1.9048251408275483e+40
4483.483483483484 1.8928472482192995e+40
4493.493493493494 1.880961026974504e+40
4503.503503503503 1.8691656650022509e+40
4513.513513513513 1.8574603558679258e+40
4523.523523523523 1.8458442988839047e+40
4533.533533533533 1.8343166991941657e+40
4543.543543543543 1.8228767678529055e+40
4553.553553553554 1.8115237218973266e+40
4563.563563563564 1.8002567844147287e+40
4573.573573573573 1.7890751846040254e+40
4583.583583583584 1.777978157831863e+40
4593.593593593594 1.7669649456834616e+40
4603.603603603604 1.7560347960083252e+40
4613.613613613614 1.7451869629610005e+40
4623.623623623624 1.7344207070369843e+40
4633.6336336336335 1.7237352951039743e+40
4643.643643643643 1.7131300004285933e+40
4653.653653653653 1.70260410269872e+40
4663.663663663663 1.6921568880416083e+40
4673.673673673674 1.6817876490379123e+40
4683.683683683684 1.6714956847317875e+40
4693.693693693694 1.6612803006371806e+40
4703.703703703704 1.6511408087404917e+40
4713.713713713714 1.641076527499714e+40
4723.723723723724 1.631086781840209e+40
4733.733733733734 1.6211709031472438e+40
4743.743743743744 1.611328229255443e+40
4753.753753753754 1.601558104435258e+40
4763.763763763764 1.5918598793766148e+40
4773.773773773773 1.582232911169834e+40
4783.783783783783 1.57267656328399e+40
4793.793793793793 1.5631902055427836e+40
4803.803803803804 1.5537732140980797e+40
4813.813813813814 1.5444249714012207e+40
4823.823823823824 1.5351448661722142e+40
4833.833833833834 1.5259322933669197e+40
4843.843843843844 1.516786654142344e+40
4853.853853853854 1.5077073558201276e+40
4863.863863863864 1.498693811848357e+40
4873.873873873874 1.4897454417617696e+40
4883.883883883884 1.4808616711404693e+40
4893.893893893894 1.4720419315672363e+40
4903.9039039039035 1.4632856605835226e+40
4913.913913913913 1.4545923016442194e+40
4923.923923923924 1.44596130407128e+40
4933.933933933934 1.4373921230062935e+40
4943.943943943944 1.42888421936206e+40
4953.953953953955 1.420437059773273e+40
4963.9639639639645 1.412050116546371e+40
4973.973973973974 1.4037228676086148e+40
4983.983983983984 1.3954547964564925e+40
4993.993993993994 1.387245392103482e+40
5004.004004004004 1.379094149027261e+40
5014.014014014014 1.3710005671164132e+40
5024.024024024024 1.3629641516166862e+40
5034.0340340340335 1.3549844130768763e+40
5044.044044044043 1.3470608672943677e+40
5054.054054054054 1.3391930352604007e+40
5064.064064064064 1.3313804431051048e+40
5074.074074074074 1.3236226220423542e+40
5084.084084084085 1.3159191083144764e+40
5094.0940940940945 1.3082694431368834e+40
5104.104104104104 1.300673172642635e+40
5114.114114114114 1.2931298478270006e+40
5124.124124124124 1.2856390244920424e+40
5134.134134134134 1.278200263191262e+40
5144.144144144144 1.2708131291743436e+40
5154.154154154154 1.2634771923320257e+40
5164.1641641641645 1.2561920271411326e+40
5174.174174174174 1.2489572126097976e+40
5184.184184184184 1.241772332222901e+40
5194.194194194194 1.2346369738877494e+40
5204.204204204204 1.2275507298800363e+40
5214.214214214214 1.2205131967900764e+40
5224.224224224225 1.2135239754693698e+40
5234.2342342342345 1.2065826709774965e+40
5244.244244244244 1.199688892529361e+40
5254.254254254254 1.1928422534428196e+40
5264.264264264264 1.186042371086689e+40
5274.274274274274 1.1792888668291723e+40
5284.284284284285 1.1725813659866958e+40
5294.294294294295 1.1659194977731904e+40
5304.304304304304 1.159302895249815e+40
5314.314314314314 1.1527311952751474e+40
5324.324324324324 1.1462040384558388e+40
5334.334334334334 1.1397210690977592e+40
5344.344344344345 1.1332819351576252e+40
5354.354354354355 1.1268862881951352e+40
5364.3643643643645 1.120533783325604e+40
5374.374374374374 1.1142240791731197e+40
5384.384384384384 1.1079568378242134e+40
5394.394394394394 1.1017317247820587e+40
5404.404404404404 1.0955484089211994e+40
5414.414414414415 1.0894065624428127e+40
5424.424424424425 1.0833058608305137e+40
5434.4344344344345 1.0772459828066913e+40
5444.444444444444 1.0712266102893945e+40
5454.454454454454 1.0652474283497671e+40
5464.464464464464 1.059308125170018e+40
5474.474474474475 1.0534083920019473e+40
5484.484484484485 1.0475479231260164e+40
5494.494494494495 1.041726415810964e+40
5504.504504504504 1.0359435702739758e+40
5514.514514514514 1.0301990896413866e+40
5524.524524524524 1.0244926799099428e+40
5534.534534534535 1.0188240499085977e+40
5544.544544544545 1.0131929112608518e+40
5554.554554554555 1.0075989783476273e+40
5564.5645645645645 1.0020419682706841e+40
5574.574574574574 9.965216008165688e+39
5584.584584584584 9.91037598421087e+39
5594.594594594595 9.855896861343098e+39
5604.604604604605 9.801775915861023e+39
5614.614614614615 9.748010449521652e+39
5624.624624624625 9.694597789205984e+39
5634.6346346346345 9.641535286589732e+39
5644.644644644644 9.588820317819087e+39
5654.654654654654 9.536450283191547e+39
5664.664664664665 9.48442260684164e+39
5674.674674674675 9.432734736431685e+39
5684.684684684685 9.381384142847297e+39
5694.694694694695 9.330368319897816e+39
5704.704704704704 9.279684784021422e+39
5714.714714714714 9.22933107399503e+39
5724.724724724725 9.179304750648818e+39
5734.734734734735 9.129603396585337e+39
5744.744744744745 9.080224615903219e+39
5754.754754754755 9.031166033925316e+39
5764.764764764765 8.982425296931321e+39
5774.774774774774 8.93400007189478e+39
5784.784784784785 8.885888046224337e+39
5794.794794794795 8.838086927509354e+39
5804.804804804805 8.790594443269635e+39
5814.814814814815 8.743408340709343e+39
5824.824824824825 8.696526386475009e+39
5834.8348348348345 8.649946366417513e+39
5844.844844844845 8.603666085358097e+39
5854.854854854855 8.557683366858242e+39
5864.864864864865 8.51199605299338e+39
5874.874874874875 8.466602004130447e+39
5884.884884884885 8.421499098709112e+39
5894.894894894895 8.376685233026701e+39
