#lamb flux
1000.0 2.6960571633493754e+39
1010.01001001001 2.8387961249990264e+39
1020.0200200200201 2.983471386755518e+39
1030.03003003003 3.1299038383676485e+39
1040.0400400400401 3.277918091614029e+39
1050.05005005005 3.4273428612430686e+39
1060.06006006006 3.578011279858921e+39
1070.07007007007 3.7297611530495965e+39
1080.08008008008 3.882435160748406e+39
1090.0900900900901 4.0358810104769756e+39
1100.1001001001 4.189951547754216e+39
1110.11011011011 4.344504828580243e+39
1120.1201201201202 4.4994041585277497e+39
1130.13013013013 4.654518102602184e+39
1140.1401401401401 4.8097204696717166e+39
1150.1501501501502 4.9648902749223996e+39
1160.16016016016 5.1199116834658053e+39
1170.1701701701702 5.274673937917426e+39
1180.1801801801803 5.42907127247561e+39
1190.1901901901902 5.583002815762477e+39
1200.2002002002002 5.736372484441124e+39
1210.2102102102103 5.889088869395903e+39
1220.2202202202202 6.041065116054883e+39
1230.2302302302303 6.192218800244278e+39
1240.2402402402402 6.342471800793194e+39
1250.2502502502502 6.491668006051626e+39
1260.2602602602603 6.639482358898633e+39
1270.2702702702702 6.785370149445949e+39
1280.2802802802803 6.929239995628643e+39
1290.2902902902902 7.071006734119678e+39
1300.3003003003003 7.210591253691939e+39
1310.3103103103103 7.347920320474095e+39
1320.3203203203202 7.482926396560024e+39
1330.3303303303303 7.615547453298345e+39
1340.3403403403404 7.745726780461348e+39
1350.3503503503503 7.873412792374226e+39
1360.3603603603603 7.998558831973349e+39
1370.3703703703704 8.12112297365756e+39
1380.3803803803803 8.241067825698914e+39
1390.3903903903904 8.35836033288789e+39
1400.4004004004005 8.472971580002803e+39
1410.4104104104103 8.584876596614994e+39
1420.4204204204204 8.694054163667305e+39
1430.4304304304305 8.800486622195829e+39
1440.4404404404404 8.904159684502143e+39
1450.4504504504505 9.005062248024764e+39
1460.4604604604606 9.103186212105222e+39
1470.4704704704704 9.198526297794096e+39
1480.4804804804805 9.291079870797138e+39
1490.4904904904906 9.380846767619065e+39
1500.5005005005005 9.467829124923863e+39
1510.5105105105106 9.55203121209542e+39
1520.5205205205207 9.633459266949037e+39
1530.5305305305305 9.7121213345156e+39
1540.5405405405404 9.788027108792983e+39
1550.5505505505505 9.861187777336133e+39
1560.5605605605606 9.93161586853608e+39
1570.5705705705705 9.999325101421285e+39
1580.5805805805805 1.0064330237800586e+40
1590.5905905905906 1.0126646936557153e+40
1600.6006006006005 1.0186291609897791e+40
1610.6106106106106 1.0243281281362311e+40
1620.6206206206207 1.0297633445404172e+40
1630.6306306306305 1.0349365928368841e+40
1640.6406406406406 1.0398496750720436e+40
1650.6506506506507 1.0445043990404182e+40
1660.6606606606606 1.0489025647283008e+40
1670.6706706706707 1.0530459508656613e+40
1680.6806806806808 1.0569363015962887e+40
1690.6906906906906 1.0605753132881682e+40
1700.7007007007007 1.0639653170160366e+40
1710.7107107107108 1.0671107068335183e+40
1720.7207207207207 1.0700127243346228e+40
1730.7307307307308 1.0726721515854981e+40
1740.7407407407409 1.0750896896888152e+40
1750.7507507507507 1.0772659477946785e+40
1760.7607607607606 1.0792014330977268e+40
1770.770770770771 1.0808965421557579e+40
1780.7807807807808 1.0823515539512442e+40
1790.7907907907907 1.0835666252207115e+40
1800.8008008008007 1.0845417887006679e+40
1810.8108108108108 1.0852769550848952e+40
1820.8208208208207 1.0857719196586886e+40
1830.8308308308308 1.0860263747721444e+40
1840.8408408408409 1.0860399295368295e+40
1850.8508508508507 1.0858121383759098e+40
1860.8608608608608 1.0853425403211228e+40
1870.870870870871 1.0846307112205002e+40
1880.8808808808808 1.0836763312808374e+40
1890.890890890891 1.0824792705919163e+40
1900.900900900901 1.0810396954269517e+40
1910.9109109109108 1.0793581981321545e+40
1920.920920920921 1.0774359532374555e+40
1930.930930930931 1.0752749019511358e+40
1940.940940940941 1.0728779663366864e+40
1950.950950950951 1.0702492930905431e+40
1960.960960960961 1.0673945248219274e+40
1970.970970970971 1.0643210939734339e+40
1980.980980980981 1.0610385309505155e+40
1990.9909909909911 1.0575587736695351e+40
2001.001001001001 1.0538964607395796e+40
2011.0110110110109 1.0500691851979862e+40
2021.0210210210212 1.0460976806866967e+40
2031.031031031031 1.042005907995872e+40
2041.0410410410411 1.0378210080403242e+40
2051.051051051051 1.0335730887191612e+40
2061.061061061061 1.0292948188176762e+40
2071.071071071071 1.0250208128864789e+40
2081.081081081081 1.0207868069707904e+40
2091.091091091091 1.0166286453217313e+40
2101.101101101101 1.0125811208645177e+40
2111.1111111111113 1.0086767342664104e+40
2121.121121121121 1.0049444543323081e+40
2131.131131131131 1.0014085725625593e+40
2141.141141141141 9.980877442787065e+39
2151.151151151151 9.949942966135709e+39
2161.161161161161 9.921338608144434e+39
2171.1711711711714 9.895053557335241e+39
2181.1811811811813 9.871013156057246e+39
2191.191191191191 9.849085233251176e+39
2201.201201201201 9.829088849784987e+39
2211.2112112112113 9.810804654845035e+39
2221.221221221221 9.7939859999153e+39
2231.2312312312315 9.778370004613747e+39
2241.2412412412414 9.763687893884184e+39
2251.2512512512512 9.749674098688479e+39
2261.261261261261 9.736073801507432e+39
2271.271271271271 9.722648787463377e+39
2281.2812812812813 9.709181613433812e+39
2291.2912912912916 9.695478221494718e+39
2301.3013013013015 9.681369197380098e+39
2311.3113113113113 9.66670991288767e+39
2321.321321321321 9.651379800066234e+39
2331.331331331331 9.635280992579559e+39
2341.3413413413414 9.618336543585637e+39
2351.3513513513512 9.600488396377989e+39
2361.3613613613616 9.581695248945649e+39
2371.3713713713714 9.561930419998988e+39
2381.3813813813813 9.541179793987504e+39
2391.391391391391 9.519439897234686e+39
2401.4014014014015 9.496716136792878e+39
2411.4114114114113 9.473021217736793e+39
2421.4214214214217 9.448373742842802e+39
2431.4314314314315 9.422796990292888e+39
2441.4414414414414 9.396317859528426e+39
2451.4514514514512 9.368965972036512e+39
2461.4614614614616 9.340772912135308e+39
2471.4714714714714 9.311771592281084e+39
2481.4814814814818 9.281995727684411e+39
2491.4914914914916 9.251479405813821e+39
2501.5015015015015 9.220256737470665e+39
2511.5115115115113 9.188361577384214e+39
2521.521521521521 9.155827303592968e+39
2531.5315315315315 9.122686646173545e+39
2541.541541541542 9.088971557105873e+39
2551.5515515515517 9.054713114195353e+39
2561.5615615615616 9.019941452996109e+39
2571.5715715715714 8.984685721590299e+39
2581.5815815815813 8.948974053878901e+39
2591.5915915915916 8.912833557735956e+39
2601.6016016016015 8.87629031497905e+39
2611.611611611612 8.83936939062343e+39
2621.6216216216217 8.802094849325186e+39
2631.6316316316315 8.764489777289636e+39
2641.6416416416414 8.726576308233676e+39
2651.6516516516517 8.688375652252755e+39
2661.6616616616616 8.649908126662193e+39
2671.671671671672 8.611193188064925e+39
2681.6816816816818 8.572249465048689e+39
2691.6916916916916 8.53309479104086e+39
2701.7017017017015 8.493746236951775e+39
2711.711711711712 8.454220143321893e+39
2721.7217217217217 8.414532151757044e+39
2731.731731731732 8.374697235492011e+39
2741.741741741742 8.334729728968287e+39
2751.7517517517517 8.294643356348149e+39
2761.7617617617616 8.254451258916749e+39
2771.7717717717715 8.214166021346836e+39
2781.781781781782 8.17379969681931e+39
2791.791791791792 8.133363831006875e+39
2801.801801801802 8.092869484939011e+39
2811.811811811812 8.052327256774837e+39
2821.8218218218217 8.011747302516346e+39
2831.8318318318316 7.971139355698988e+39
2841.841841841842 7.93051274609925e+39
2851.851851851852 7.889876417500931e+39
2861.861861861862 7.849238944562381e+39
2871.871871871872 7.808608548827406e+39
2881.881881881882 7.767993113922109e+39
2891.8918918918916 7.727400199979113e+39
2901.901901901902 7.686837057329536e+39
2911.911911911912 7.646310639501949e+39
2921.921921921922 7.605827615565802e+39
2931.931931931932 7.565394381855511e+39
2941.941941941942 7.525017073109574e+39
2951.9519519519517 7.484701573057531e+39
2961.961961961962 7.44445352448592e+39
2971.971971971972 7.40427833881265e+39
2981.9819819819822 7.364181205197777e+39
2991.991991991992 7.324167099216894e+39
3002.002002002002 7.284240791122076e+39
3012.012012012012 7.244406853713666e+39
3022.0220220220217 7.204669669844963e+39
3032.032032032032 7.169695568703424e+39
3042.0420420420423 7.129573721750264e+39
3052.052052052052 7.089399179383763e+39
3062.062062062062 7.049220623138604e+39
3072.072072072072 7.009080328116204e+39
3082.0820820820823 6.969014822833188e+39
3092.092092092092 6.929055491906462e+39
3102.102102102102 6.889229125566475e+39
3112.1121121121123 6.849558419855593e+39
3122.122122122122 6.810062431206993e+39
3132.132132132132 6.770756988920099e+39
3142.1421421421423 6.731655068858555e+39
3152.152152152152 6.692767131501257e+39
3162.162162162162 6.654101427280498e+39
3172.1721721721724 6.61566427194712e+39
3182.1821821821823 6.577460294513068e+39
3192.192192192192 6.539492660138781e+39
3202.202202202202 6.50176327015779e+39
3212.2122122122123 6.464272941264184e+39
3222.222222222222 6.427021565731251e+39
3232.232232232232 6.390008254381472e+39
3242.2422422422424 6.353231463889303e+39
3252.252252252252 6.316689109868608e+39
3262.262262262262 6.280378667076153e+39
3272.2722722722724 6.244297257950621e+39
3282.2822822822823 6.208441730603104e+39
3292.292292292292 6.172808727279223e+39
3302.3023023023025 6.137394744224744e+39
3312.3123123123123 6.102196183805173e+39
3322.322322322322 6.067209399655041e+39
3332.3323323323325 6.032430735563719e+39
3342.3423423423424 5.997856558741563e+39
3352.352352352352 5.963483288052221e+39
3362.3623623623625 5.929307417743956e+39
3372.3723723723724 5.895325537164207e+39
3382.3823823823823 5.861534346897079e+39
3392.3923923923926 5.827930671722943e+39
3402.4024024024025 5.79451147076195e+39
3412.4124124124123 5.761273845129395e+39
3422.4224224224226 5.728215043399744e+39
3432.4324324324325 5.695332465147894e+39
3442.4424424424424 5.662623662810195e+39
3452.4524524524522 5.630086342084216e+39
3462.4624624624626 5.597718361064787e+39
3472.4724724724724 5.56551772829405e+39
3482.4824824824823 5.533482599885328e+39
3492.4924924924926 5.501611275864517e+39
3502.5025025025025 5.469902195857562e+39
3512.5125125125123 5.438353934239195e+39
3522.5225225225226 5.406965194845786e+39
3532.5325325325325 5.375734805343878e+39
3542.5425425425424 5.344661711335839e+39
3552.5525525525527 5.313744970274816e+39
3562.5625625625626 5.2829837452527167e+39
3572.5725725725724 5.252377298717338e+39
3582.5825825825827 5.2219249861678945e+39
3592.5925925925926 5.191626249871826e+39
3602.6026026026025 5.1614806126402233e+39
3612.612612612613 5.1314876716940185e+39
3622.6226226226227 5.101647092648388e+39
3632.6326326326325 5.0719586036388484e+39
3642.642642642643 5.042421989608585e+39
3652.6526526526527 5.0130370867732436e+39
3662.6626626626626 4.9838037772764e+39
3672.672672672673 4.9547219840462486e+39
3682.6826826826828 4.925791665861539e+39
3692.6926926926926 4.897012812632723e+39
3702.7027027027025 4.8683854409022955e+39
3712.712712712713 4.8399095895666696e+39
3722.7227227227227 4.811585315820458e+39
3732.7327327327325 4.783412691322533e+39
3742.742742742743 4.755391798582406e+39
3752.7527527527527 4.7275227275641606e+39
3762.7627627627626 4.6998055725044955e+39
3772.772772772773 4.672240428940642e+39
3782.7827827827828 4.64482739094329e+39
3792.7927927927926 4.617566548549113e+39
3802.802802802803 4.590457985387112e+39
3812.812812812813 4.563501776492556e+39
3822.8228228228227 4.536697986302054e+39
3832.832832832833 4.5100466668231313e+39
3842.842842842843 4.4835478559714356e+39
3852.8528528528527 4.4572015760686394e+39
3862.862862862863 4.4310078324940455e+39
3872.872872872873 4.404966612482924e+39
3882.8828828828828 4.379077884064464e+39
3892.892892892893 4.3533415951326216e+39
3902.902902902903 4.3277576726427344e+39
3912.912912912913 4.302326021927361e+39
3922.922922922923 4.2770465261245925e+39
3932.932932932933 4.251919045712412e+39
3942.942942942943 4.2269434181426913e+39
3952.9529529529527 4.20211945756873e+39
3962.962962962963 4.177446954660336e+39
3972.972972972973 4.1529256765006046e+39
3982.982982982983 4.128555366558859e+39
3992.992992992993 4.1043357447342676e+39
4003.003003003003 4.080266507465036e+39
4013.013013013013 4.0563473278980844e+39
4023.023023023023 4.032577856114453e+39
4033.033033033033 4.008957719405854e+39
4043.043043043043 3.9854865225979706e+39
4053.053053053053 3.9621638484163296e+39
4063.063063063063 3.938989257890745e+39
4073.073073073073 3.915962290794566e+39
4083.0830830830832 3.8930824661151145e+39
4093.093093093093 3.870349282551924e+39
4103.103103103103 3.8477622190394974e+39
4113.113113113113 3.8253207352916527e+39
4123.123123123123 3.803024272364426e+39
4133.133133133133 3.780872253234963e+39
4143.143143143143 3.758864083393778e+39
4153.153153153153 3.736999151448026e+39
4163.163163163163 3.7152768297335324e+39
4173.173173173173 3.6936964749335066e+39
4183.183183183183 3.672257428701992e+39
4193.193193193193 3.6509590182902155e+39
4203.203203203203 3.6298005571741626e+39
4213.213213213214 3.608781345681854e+39
4223.223223223224 3.5879006716187953e+39
4233.2332332332335 3.5671578108903355e+39
4243.243243243243 3.5465520281196824e+39
4253.253253253253 3.526082577260447e+39
4263.263263263263 3.505748702202708e+39
4273.273273273273 3.485549637371633e+39
4283.283283283283 3.465484608317825e+39
4293.293293293293 3.4455528322986225e+39
4303.303303303303 3.425753518849673e+39
4313.313313313313 3.406085870346147e+39
4323.323323323323 3.386549082553045e+39
4333.333333333334 3.367142345164143e+39
4343.343343343344 3.347864842329131e+39
4353.353353353354 3.328715753168596e+39
4363.3633633633635 3.3096942522765016e+39
4373.373373373373 3.290799510210001e+39
4383.383383383383 3.272030693966236e+39
4393.393393393393 3.253386967446086e+39
4403.403403403403 3.234867491904658e+39
4413.413413413413 3.2164714263884485e+39
4423.423423423424 3.1981979281591546e+39
4433.4334334334335 3.180046153104062e+39
4443.443443443443 3.162015256133072e+39
4453.453453453454 3.144104391562365e+39
4463.463463463464 3.1263127134848224e+39
4473.473473473474 3.108639376127176e+39
4483.483483483484 3.091083534194162e+39
4493.493493493494 3.073644343199662e+39
4503.503503503503 3.056320959785057e+39
4513.513513513513 3.039112542024938e+39
4523.523523523523 3.022018249720329e+39
4533.533533533533 3.0050372446796646e+39
4543.543543543543 2.9881686909876703e+39
4553.553553553554 2.9714117552623877e+39
4563.563563563564 2.954765606900571e+39
4573.573573573573 2.938229418311658e+39
4583.583583583584 2.921802365140581e+39
4593.593593593594 2.905483626479656e+39
4603.603603603604 2.8892723850697584e+39
4613.613613613614 2.87316782749113e+39
4623.623623623624 2.857169144343941e+39
4633.6336336336335 2.8412755304189885e+39
4643.643643643643 2.8254861848587216e+39
4653.653653653653 2.809800311308859e+39
4663.663663663663 2.7942171180608935e+39
4673.673673673674 2.77873581818569e+39
4683.683683683684 2.763355629658503e+39
4693.693693693694 2.748075775475613e+39
4703.703703703704 2.732895483762868e+39
4713.713713713714 2.7178139878763934e+39
4723.723723723724 2.7028305264957004e+39
4733.733733733734 2.6879443437094472e+39
4743.743743743744 2.673154689094129e+39
4753.753753753754 2.6584608177858986e+39
4763.763763763764 2.6438619905457974e+39
4773.773773773773 2.6293574738185913e+39
4783.783783783783 2.6149465397854984e+39
4793.793793793793 2.6006284664109907e+39
4803.803803803804 2.58640253748391e+39
4813.813813813814 2.5722680426531393e+39
4823.823823823824 2.558224277458006e+39
4833.833833833834 2.5442705433536696e+39
4843.843843843844 2.530406147731673e+39
4853.853853853854 2.5166304039358665e+39
4863.863863863864 2.502942631273917e+39
4873.873873873874 2.4893421550245675e+39
4883.883883883884 2.475828306440864e+39
4893.893893893894 2.462400422749516e+39
4903.9039039039035 2.449057847146576e+39
4913.913913913913 2.435799928789604e+39
4923.923923923924 2.4226260227864924e+39
4933.933933933934 2.409535490181131e+39
4943.943943943944 2.3965276979360317e+39
4953.953953953955 2.383602018912109e+39
4963.9639639639645 2.3707578318457518e+39
4973.973973973974 2.3579945213233153e+39
4983.983983983984 2.3453114777532103e+39
4993.993993993994 2.332708097335692e+39
5004.004004004004 2.320183782030498e+39
5014.014014014014 2.307737939522471e+39
5024.024024024024 2.2953699831852625e+39
5034.0340340340335 2.2830793320432768e+39
5044.044044044043 2.270865410731932e+39
5054.054054054054 2.2587276494563715e+39
5064.064064064064 2.2466654839487393e+39
5074.074074074074 2.2346783554240948e+39
5084.084084084085 2.2227657105350972e+39
5094.0940940940945 2.2109270013255463e+39
5104.104104104104 2.1991616851828582e+39
5114.114114114114 2.1874692247895838e+39
5124.124124124124 2.1758490880740466e+39
5134.134134134134 2.1643007481601884e+39
5144.144144144144 2.1528236833166844e+39
5154.154154154154 2.1414173769054332e+39
5164.1641641641645 2.1300813173294623e+39
5174.174174174174 2.1188149979803436e+39
5184.184184184184 2.1076179171851703e+39
5194.194194194194 2.0964895781531606e+39
5204.204204204204 2.085429488921967e+39
5214.214214214214 2.074437162303715e+39
5224.224224224225 2.0635121158308603e+39
5234.2342342342345 2.0526538717019012e+39
5244.244244244244 2.0418619567269906e+39
5254.254254254254 2.031135902273518e+39
5264.264264264264 2.020475244211674e+39
5274.274274274274 2.0098795228600822e+39
5284.284284284285 1.999348282931497e+39
5294.294294294295 1.9888810734786422e+39
5304.304304304304 1.978477447840195e+39
5314.314314314314 1.9681369635869842e+39
5324.324324324324 1.957859182468403e+39
5334.334334334334 1.9476436703590992e+39
5344.344344344345 1.937489997205936e+39
5354.354354354355 1.927397736975293e+39
5364.3643643643645 1.9173664676006892e+39
5374.374374374374 1.9073957709307953e+39
5384.384384384384 1.897485232677821e+39
5394.394394394394 1.887634442366327e+39
5404.404404404404 1.8778429932824575e+39
5414.414414414415 1.868110482423637e+39
5424.424424424425 1.858436510448728e+39
5434.4344344344345 1.8488206816286704e+39
5444.444444444444 1.8392626037976207e+39
5454.454454454454 1.8297618883046153e+39
5464.464464464464 1.820318149965739e+39
5474.474474474475 1.810931007016845e+39
5484.484484484485 1.8016000810668106e+39
5494.494494494495 1.7923249970513534e+39
5504.504504504504 1.7831053831874134e+39
5514.514514514514 1.773940870928093e+39
5524.524524524524 1.764831094918193e+39
5534.534534534535 1.7557756929503157e+39
5544.544544544545 1.7467743059215636e+39
5554.554554554555 1.7378265777908233e+39
5564.5645645645645 1.728932155536653e+39
5574.574574574574 1.72009068911576e+39
5584.584584584584 1.71130183142208e+39
5594.594594594595 1.7025652382464542e+39
5604.604604604605 1.69388056823692e+39
5614.614614614615 1.6852474828595813e+39
5624.624624624625 1.676665646360101e+39
5634.6346346346345 1.6681347257257833e+39
5644.644644644644 1.659654390648253e+39
5654.654654654654 1.651224313486741e+39
5664.664664664665 1.642844169231951e+39
5674.674674674675 1.634513635470536e+39
5684.684684684685 1.6262323923501425e+39
5694.694694694695 1.6180001225450584e+39
5704.704704704704 1.6098165112224314e+39
5714.714714714714 1.60168124600907e+39
5724.724724724725 1.5935940169588152e+39
5734.734734734735 1.5855545165204815e+39
5744.744744744745 1.5775624395063618e+39
5754.754754754755 1.5696174830612856e+39
5764.764764764765 1.56171934663224e+39
5774.774774774774 1.5538677319385284e+39
5784.784784784785 1.546062342942473e+39
5794.794794794795 1.5383028858206558e+39
5804.804804804805 1.530589068935684e+39
5814.814814814815 1.5229206028084798e+39
5824.824824824825 1.51529720009109e+39
5834.8348348348345 1.5077185755399954e+39
5844.844844844845 1.5001844459899388e+39
5854.854854854855 1.4926945303282318e+39
5864.864864864865 1.4852485494695625e+39
5874.874874874875 1.4778462263312817e+39
5884.884884884885 1.4704872858091648e+39
5894.894894894895 1.4631714547536378e+39
5904.9049049049045 1.455898461946472e+39
