#lamb flux
1000.0 1.0106547880892886e+39
1010.01001001001 1.0977980316375769e+39
1020.0200200200201 1.189485204680249e+39
1030.03003003003 1.2857579845086482e+39
1040.0400400400401 1.38665036461569e+39
1050.05005005005 1.4921887941006728e+39
1060.06006006006 1.6023923371413397e+39
1070.07007007007 1.7172728497949676e+39
1080.08008008008 1.8368351715999006e+39
1090.0900900900901 1.961077329653267e+39
1100.1001001001 2.0899907530385873e+39
1110.11011011011 2.2235604956658365e+39
1120.1201201201202 2.3617654657659757e+39
1130.13013013013 2.504578660450966e+39
1140.1401401401401 2.6519674039083727e+39
1150.1501501501502 2.8038935879468114e+39
1160.16016016016 2.96031391374524e+39
1170.1701701701702 3.1211801337844884e+39
1180.1801801801803 3.2864392930557445e+39
1190.1901901901902 3.4560339687460984e+39
1200.2002002002002 3.6299025076984644e+39
1210.2102102102103 3.807979261031113e+39
1220.2202202202202 3.9901948153821736e+39
1230.2302302302303 4.176476220316936e+39
1240.2402402402402 4.3667472115012784e+39
1250.2502502502502 4.560870703165431e+39
1260.2602602602603 4.75857809992362e+39
1270.2702702702702 4.9594202221293865e+39
1280.2802802802803 5.163253024567349e+39
1290.2902902902902 5.36993024014046e+39
1300.3003003003003 5.57930373339452e+39
1310.3103103103103 5.791223839913293e+39
1320.3203203203202 6.005539691138229e+39
1330.3303303303303 6.222099524264045e+39
1340.3403403403404 6.440750976949053e+39
1350.3503503503503 6.661341366658404e+39
1360.3603603603603 6.883717954529009e+39
1370.3703703703704 7.107728193707038e+39
1380.3803803803803 7.333219962164341e+39
1390.3903903903904 7.560041780047026e+39
1400.4004004004005 7.788043011650192e+39
1410.4104104104103 8.017074052147294e+39
1420.4204204204204 8.246986499229834e+39
1430.4304304304305 8.477633309835529e+39
1440.4404404404404 8.708868942159671e+39
1450.4504504504505 8.940549483155815e+39
1460.4604604604606 9.172532761738379e+39
1470.4704704704704 9.404678447902386e+39
1480.4804804804805 9.636848137972893e+39
1490.4904904904906 9.868905426191257e+39
1500.5005005005005 1.0100715962835343e+40
1510.5105105105106 1.0332147499058882e+40
1520.5205205205207 1.0563069918618519e+40
1530.5305305305305 1.0793355256639888e+40
1540.5405405405404 1.1022877705553333e+40
1550.5505505505505 1.1251513608308645e+40
1560.5605605605606 1.147914143895514e+40
1570.5705705705705 1.1705641770651407e+40
1580.5805805805805 1.193089723114631e+40
1590.5905905905906 1.2154792445753718e+40
1600.6006006006005 1.2377213967825984e+40
1610.6106106106106 1.2598050196720575e+40
1620.6206206206207 1.2817191283249521e+40
1630.6306306306305 1.3034529022607864e+40
1640.6406406406406 1.324995673479716e+40
1650.6506506506507 1.3463369132597443e+40
1660.6606606606606 1.3674662177203384e+40
1670.6706706706707 1.388373292173106e+40
1680.6806806806808 1.4090479342932565e+40
1690.6906906906906 1.429480016163509e+40
1700.7007007007007 1.4496604128825288e+40
1710.7107107107108 1.4695830181271772e+40
1720.7207207207207 1.4892376381176098e+40
1730.7307307307308 1.5086135499155055e+40
1740.7407407407409 1.5277000076246108e+40
1750.7507507507507 1.5464862224972322e+40
1760.7607607607606 1.564961343441011e+40
1770.770770770771 1.5831144385283364e+40
1780.7807807807808 1.60093447827644e+40
1790.7907907907907 1.6184103216690266e+40
1800.8008008008007 1.63553070613633e+40
1810.8108108108108 1.6522842430061273e+40
1820.8208208208207 1.668659420289811e+40
1830.8308308308308 1.6846446150802162e+40
1840.8408408408409 1.700228118314975e+40
1850.8508508508507 1.7153981752002905e+40
1860.8608608608608 1.730143045189134e+40
1870.870870870871 1.7444510860499845e+40
1880.8808808808808 1.7583108672195265e+40
1890.890890890891 1.77171131825958e+40
1900.900900900901 1.784641918765589e+40
1910.9109109109108 1.7970929364012993e+40
1920.920920920921 1.8090557197251184e+40
1930.930930930931 1.8205230519492238e+40
1940.940940940941 1.8314895705103347e+40
1950.950950950951 1.8419522550698437e+40
1960.960960960961 1.8519109830179513e+40
1970.970970970971 1.8613691464571722e+40
1980.980980980981 1.8703343177746516e+40
1990.9909909909911 1.8788189422087218e+40
2001.001001001001 1.8868410254427168e+40
2011.0110110110109 1.8944247727435646e+40
2021.0210210210212 1.9016011244957486e+40
2031.031031031031 1.908408122691578e+40
2041.0410410410411 1.914891036078501e+40
2051.051051051051 1.9211021706565305e+40
2061.061061061061 1.927100299526498e+40
2071.071071071071 1.9329496636976522e+40
2081.081081081081 1.9387185242240088e+40
2091.091091091091 1.9444772850186564e+40
2101.101101101101 1.950296251712959e+40
2111.1111111111113 1.9562431395246585e+40
2121.121121121121 1.9623804851106132e+40
2131.131131131131 1.9687631461400325e+40
2141.141141141141 1.9754360813112786e+40
2151.151151151151 1.9824325890579905e+40
2161.161161161161 1.9897731456014092e+40
2171.1711711711714 1.9974649269986224e+40
2181.1811811811813 2.005502033642874e+40
2191.191191191191 2.0138663693302444e+40
2201.201201201201 2.0225290701908802e+40
2211.2112112112113 2.0314523388199138e+40
2221.221221221221 2.0405915195556682e+40
2231.2312312312315 2.0498972518857634e+40
2241.2412412412414 2.0593175570212896e+40
2251.2512512512512 2.0687997423647256e+40
2261.261261261261 2.0782920438918583e+40
2271.271271271271 2.087744961927112e+40
2281.2812812812813 2.097112277306378e+40
2291.2912912912916 2.1063517600104358e+40
2301.3013013013015 2.1154256000696654e+40
2311.3113113113113 2.124300601141859e+40
2321.321321321321 2.1329481816802728e+40
2331.331331331331 2.1413442284428431e+40
2341.3413413413414 2.1494688437072447e+40
2351.3513513513512 2.1573060222631225e+40
2361.3613613613616 2.1648432881093762e+40
2371.3713713713714 2.172071314562734e+40
2381.3813813813813 2.1789835456906766e+40
2391.391391391391 2.185575831903799e+40
2401.4014014014015 2.191846088301726e+40
2411.4114114114113 2.1977939809706177e+40
2421.4214214214217 2.2034206438164276e+40
2431.4314314314315 2.208728426586604e+40
2441.4414414414414 2.213720673370019e+40
2451.4514514514512 2.218401529957659e+40
2461.4614614614616 2.222775777892361e+40
2471.4714714714714 2.2268486927458133e+40
2481.4814814814818 2.2306259240619157e+40
2491.4914914914916 2.234113394438695e+40
2501.5015015015015 2.237317215341136e+40
2511.5115115115113 2.240243617410332e+40
2521.521521521521 2.242898893235192e+40
2531.5315315315315 2.245289350764265e+40
2541.541541541542 2.247421275744579e+40
2551.5515515515517 2.249300901774451e+40
2561.5615615615616 2.250934386742831e+40
2571.5715715715714 2.252327794596985e+40
2581.5815815815813 2.253487081531739e+40
2591.5915915915916 2.2544180858278124e+40
2601.6016016016015 2.2551265206842805e+40
2611.611611611612 2.255617969492473e+40
2621.6216216216217 2.2558978830868314e+40
2631.6316316316315 2.2559715785839556e+40
2641.6416416416414 2.2558442394857244e+40
2651.6516516516517 2.2555209167772783e+40
2661.6616616616616 2.2550065307972066e+40
2671.671671671672 2.2543058736964566e+40
2681.6816816816818 2.2534236123354946e+40
2691.6916916916916 2.252364291496935e+40
2701.7017017017015 2.251132337313859e+40
2711.711711711712 2.2497320608334156e+40
2721.7217217217217 2.248167661651243e+40
2731.731731731732 2.2464432315654994e+40
2741.741741741742 2.2445627582103124e+40
2751.7517517517517 2.242530128637396e+40
2761.7617617617616 2.2403491328220804e+40
2771.7717717717715 2.238023467075965e+40
2781.781781781782 2.2355567373534133e+40
2791.791791791792 2.232952462443054e+40
2801.801801801802 2.2302140770386643e+40
2811.811811811812 2.2273449346864206e+40
2821.8218218218217 2.224348310607488e+40
2831.8318318318316 2.2212274043965854e+40
2841.841841841842 2.217985342598328e+40
2851.851851851852 2.214625181164172e+40
2861.861861861862 2.2111499077934246e+40
2871.871871871872 2.207562444162333e+40
2881.881881881882 2.203865648045607e+40
2891.8918918918916 2.200062315334948e+40
2901.901901901902 2.1961551819592766e+40
2911.911911911912 2.1921469257114025e+40
2921.921921921922 2.1880401679858406e+40
2931.931931931932 2.183837475432438e+40
2941.941941941942 2.1795413615303224e+40
2951.9519519519517 2.17515428808657e+40
2961.961961961962 2.1706786666638567e+40
2971.971971971972 2.166116859941121e+40
2981.9819819819822 2.1614711830111765e+40
2991.991991991992 2.1567439046189242e+40
3002.002002002002 2.151937248343719e+40
3012.012012012012 2.1470533937292121e+40
3022.0220220220217 2.1420944773638114e+40
3032.032032032032 2.1384531333784714e+40
3042.0420420420423 2.1331780057604212e+40
3052.052052052052 2.127784376145744e+40
3062.062062062062 2.122287320034487e+40
3072.072072072072 2.1167001580266064e+40
3082.0820820820823 2.1110346242288646e+40
3092.092092092092 2.1053010213143756e+40
3102.102102102102 2.099508363029128e+40
3112.1121121121123 2.0936645049343705e+40
3122.122122122122 2.0877762641582307e+40
3132.132132132132 2.081849528907231e+40
3142.1421421421423 2.0758893584601566e+40
3152.152152152152 2.069900074334957e+40
3162.162162162162 2.0638853432851215e+40
3172.1721721721724 2.05784825274641e+40
3182.1821821821823 2.0517913793187986e+40
3192.192192192192 2.0457168508325947e+40
3202.202202202202 2.039626402512315e+40
3212.2122122122123 2.0335214277177487e+40
3222.222222222222 2.0274030237084196e+40
3232.232232232232 2.0212720328461886e+40
3242.2422422422424 2.0151290796205679e+40
3252.252252252252 2.0089746038529209e+40
3262.262262262262 2.0028088904089172e+40
3272.2722722722724 1.9966320957234092e+40
3282.2822822822823 1.990444271418402e+40
3292.292292292292 1.9842453852727397e+40
3302.3023023023025 1.978035339781704e+40
3312.3123123123123 1.9718139885256526e+40
3322.322322322322 1.965581150549179e+40
3332.3323323323325 1.959336622935875e+40
3342.3423423423424 1.9530801917486748e+40
3352.352352352352 1.9468116414916834e+40
3362.3623623623625 1.9405307632365218e+40
3372.3723723723724 1.9342373615442126e+40
3382.3823823823823 1.9279312603026555e+40
3392.3923923923926 1.9216123075895722e+40
3402.4024024024025 1.9152803796614316e+40
3412.4124124124123 1.9089353841602633e+40
3422.4224224224226 1.9025772626223144e+40
3432.4324324324325 1.8962059923652215e+40
3442.4424424424424 1.8898215878236273e+40
3452.4524524524522 1.8834241013969901e+40
3462.4624624624626 1.877013623867683e+40
3472.4724724724724 1.8705902844421905e+40
3482.4824824824823 1.8641542504634515e+40
3492.4924924924926 1.857705726837972e+40
3502.5025025025025 1.8512449552172498e+40
3512.5125125125123 1.8447722129693426e+40
3522.5225225225226 1.8382878119729844e+40
3532.5325325325325 1.8317920972635058e+40
3542.5425425425424 1.8252854455569186e+40
3552.5525525525527 1.8187682636759132e+40
3562.5625625625626 1.8122409868990358e+40
3572.5725725725724 1.8057040772521207e+40
3582.5825825825827 1.799158021759025e+40
3592.5925925925926 1.792603330666799e+40
3602.6026026026025 1.7860405356587644e+40
3612.612612612613 1.7794701880673982e+40
3622.6226226226227 1.7728928570974553e+40
3632.6326326326325 1.766309128068532e+40
3642.642642642643 1.7597196006850143e+40
3652.6526526526527 1.753124887340325e+40
3662.6626626626626 1.746525611461356e+40
3672.672672672673 1.7399224058981394e+40
3682.6826826826828 1.7333159113629193e+40
3692.6926926926926 1.7267067749221312e+40
3702.7027027027025 1.7200956485440784e+40
3712.712712712713 1.713483187704523e+40
3722.7227227227227 1.7068700500518736e+40
3732.7327327327325 1.7002568941331312e+40
3742.742742742743 1.693644378181391e+40
3752.7527527527527 1.6870331589652263e+40
3762.7627627627626 1.6804238907000234e+40
3772.772772772773 1.67381722402096e+40
3782.7827827827828 1.6672138050171082e+40
3792.7927927927926 1.6606142743258576e+40
3802.802802802803 1.6540192662867025e+40
3812.812812812813 1.6474294081532152e+40
3822.8228228228227 1.6408453193618846e+40
3832.832832832833 1.6342676108564092e+40
3842.842842842843 1.6276968844658632e+40
3852.8528528528527 1.6211337323351154e+40
3862.862862862863 1.614578736405776e+40
3872.872872872873 1.6080324679459203e+40
3882.8828828828828 1.6014954871267552e+40
3892.892892892893 1.5949683426444248e+40
3902.902902902903 1.58845157138505e+40
3912.912912912913 1.5819456981311736e+40
3922.922922922923 1.5754512353077268e+40
3932.932932932933 1.568968682765662e+40
3942.942942942943 1.5624985276014113e+40
3952.9529529529527 1.5560412440103496e+40
3962.962962962963 1.5495972931724718e+40
3972.972972972973 1.5431671231685226e+40
3982.982982982983 1.5367511689248605e+40
3992.992992992993 1.530349852185357e+40
4003.003003003003 1.5239635815087148e+40
4013.013013013013 1.5175927522895853e+40
4023.023023023023 1.5112377468019597e+40
4033.033033033033 1.5048989342633109e+40
4043.043043043043 1.498576670918052e+40
4053.053053053053 1.4922713001389214e+40
4063.063063063063 1.485983152544919e+40
4073.073073073073 1.4797125461345305e+40
4083.0830830830832 1.4734597864329726e+40
4093.093093093093 1.4672251666522874e+40
4103.103103103103 1.4610089678631215e+40
4113.113113113113 1.454811459177138e+40
4123.123123123123 1.448632897938973e+40
4133.133133133133 1.4424735299267914e+40
4143.143143143143 1.4363335895604787e+40
4153.153153153153 1.4302133001165773e+40
4163.163163163163 1.4241128739491203e+40
4173.173173173173 1.4180325127155657e+40
4183.183183183183 1.4119724076070627e+40
4193.193193193193 1.4059327395823418e+40
4203.203203203203 1.3999136796045515e+40
4213.213213213214 1.393915388880411e+40
4223.223223223224 1.3879380191010733e+40
4233.2332332332335 1.3819817126841455e+40
4243.243243243243 1.3760466030163542e+40
4253.253253253253 1.3701328146963428e+40
4263.263263263263 1.364240463777174e+40
4273.273273273273 1.358369658008092e+40
4283.283283283283 1.3525204970751657e+40
4293.293293293293 1.346693072840444e+40
4303.303303303303 1.3408874695792871e+40
4313.313313313313 1.3351037642155707e+40
4323.323323323323 1.3293420265544656e+40
4333.333333333334 1.3236023195125587e+40
4343.343343343344 1.317884699345049e+40
4353.353353353354 1.3121892158698314e+40
4363.3633633633635 1.3065159126882533e+40
4373.373373373373 1.300864827402392e+40
4383.383383383383 1.2952359918286664e+40
4393.393393393393 1.2896294322076892e+40
4403.403403403403 1.2840451694101925e+40
4413.413413413413 1.2784832191389527e+40
4423.423423423424 1.272943592126617e+40
4433.4334334334335 1.2674262943293443e+40
4443.443443443443 1.2619313271162142e+40
4453.453453453454 1.2564586874543295e+40
4463.463463463464 1.2510083680896103e+40
4473.473473473474 1.2455803577231987e+40
4483.483483483484 1.2401746411835024e+40
4493.493493493494 1.234791199593841e+40
4503.503503503503 1.2294300105356993e+40
4513.513513513513 1.2240910482076035e+40
4523.523523523523 1.2187742835796114e+40
4533.533533533533 1.213479684543476e+40
4543.543543543543 1.2082072160584668e+40
4553.553553553554 1.2029568402929132e+40
4563.563563563564 1.1977285167615043e+40
4573.573573573573 1.1925222024583669e+40
4583.583583583584 1.187337851986005e+40
4593.593593593594 1.1821754176801243e+40
4603.603603603604 1.1770348497304088e+40
4613.613613613614 1.1719160962973162e+40
4623.623623623624 1.1668191036249328e+40
4633.6336336336335 1.1617438161499834e+40
4643.643643643643 1.156690176607037e+40
4653.653653653653 1.151658126129985e+40
4663.663663663663 1.14664760434988e+40
4673.673673673674 1.141658549489175e+40
4683.683683683684 1.1366908984524732e+40
4693.693693693694 1.1317445869138349e+40
4703.703703703704 1.1268195494007316e+40
4713.713713713714 1.1219157193747263e+40
4723.723723723724 1.1170330293089452e+40
4733.733733733734 1.1121714107624244e+40
4743.743743743744 1.107330794451416e+40
4753.753753753754 1.102511110317717e+40
4763.763763763764 1.0977122875941165e+40
4773.773773773773 1.092934254867011e+40
4783.783783783783 1.0881769401363005e+40
4793.793793793793 1.0834402708726082e+40
4803.803803803804 1.07872417407192e+40
4813.813813813814 1.0740285763077122e+40
4823.823823823824 1.0693534037806403e+40
4833.833833833834 1.0646985823658643e+40
4843.843843843844 1.0600640376580866e+40
4853.853853853854 1.0554496950143602e+40
4863.863863863864 1.0508554795947607e+40
4873.873873873874 1.0462813164009667e+40
4883.883883883884 1.0417271303128364e+40
4893.893893893894 1.0371928461230353e+40
4903.9039039039035 1.0326783885697903e+40
4913.913913913913 1.0281836823678238e+40
4923.923923923924 1.023708652237541e+40
4933.933933933934 1.0192532229325333e+40
4943.943943943944 1.0148173192654486e+40
4953.953953953955 1.0104008661322949e+40
4963.9639639639645 1.0060037885352413e+40
4973.973973973974 1.0016260116039624e+40
4983.983983983984 9.97267460615586e+39
4993.993993993994 9.929280610133026e+39
5004.004004004004 9.886077384236855e+39
5014.014014014014 9.843064186727757e+39
5024.024024024024 9.800240278009735e+39
5034.0340340340335 9.757604920768077e+39
5044.044044044043 9.715157380095992e+39
5054.054054054054 9.672896923610967e+39
5064.064064064064 9.630822821561058e+39
5074.074074074074 9.588934346921693e+39
5084.084084084085 9.547230775483331e+39
5094.0940940940945 9.505711385930527e+39
5104.104104104104 9.464375459912618e+39
5114.114114114114 9.423222282106529e+39
5124.124124124124 9.382251140272136e+39
5134.134134134134 9.341461325300396e+39
5144.144144144144 9.300852131254732e+39
5154.154154154154 9.260422855405988e+39
5164.1641641641645 9.220172798261217e+39
5174.174174174174 9.180101263586728e+39
5184.184184184184 9.140207558425638e+39
5194.194194194194 9.100490993110216e+39
5204.204204204204 9.06095088126941e+39
5214.214214214214 9.021586539831702e+39
5224.224224224225 8.982397289023644e+39
5234.2342342342345 8.943382452364356e+39
5244.244244244244 8.904541356656136e+39
5254.254254254254 8.865873331971557e+39
5264.264264264264 8.827377711637142e+39
5274.274274274274 8.789053832214006e+39
5284.284284284285 8.750901033475498e+39
5294.294294294295 8.712918658382234e+39
5304.304304304304 8.675106053054493e+39
5314.314314314314 8.637462566742515e+39
5324.324324324324 8.59998755179442e+39
5334.334334334334 8.562680363622403e+39
5344.344344344345 8.52554036066698e+39
5354.354354354355 8.488566904359722e+39
5364.3643643643645 8.451759359084445e+39
5374.374374374374 8.415117092137147e+39
5384.384384384384 8.378639473684726e+39
5394.394394394394 8.342325876722648e+39
5404.404404404404 8.306175677031733e+39
5414.414414414415 8.270188253134135e+39
5424.424424424425 8.234362986248636e+39
5434.4344344344345 8.198699260245382e+39
5444.444444444444 8.163196461600152e+39
5454.454454454454 8.127853979348302e+39
5464.464464464464 8.092671205038406e+39
5474.474474474475 8.057647532685737e+39
5484.484484484485 8.022782358725666e+39
5494.494494494495 7.988075081967055e+39
5504.504504504504 7.953525103545706e+39
5514.514514514514 7.919131826877962e+39
5524.524524524524 7.884894657614533e+39
5534.534534534535 7.850813003594562e+39
5544.544544544545 7.816886274800058e+39
5554.554554554555 7.783113883310688e+39
5564.5645645645645 7.749495243259033e+39
5574.574574574574 7.716029770786346e+39
5584.584584584584 7.682716883998819e+39
5594.594594594595 7.649556002924434e+39
5604.604604604605 7.616546549470481e+39
5614.614614614615 7.583687947381666e+39
5624.624624624625 7.55097962219896e+39
5634.6346346346345 7.518421001219138e+39
5644.644644644644 7.486011513455101e+39
5654.654654654654 7.453750589596952e+39
5664.664664664665 7.421637661973858e+39
5674.674674674675 7.389672164516795e+39
5684.684684684685 7.357853532722045e+39
5694.694694694695 7.326181203615634e+39
5704.704704704704 7.294654615718585e+39
5714.714714714714 7.263273209013087e+39
5724.724724724725 7.23203642490955e+39
5734.734734734735 7.200943706214571e+39
5744.744744744745 7.169994497099807e+39
5754.754754754755 7.13918824307177e+39
5764.764764764765 7.108524390942552e+39
5774.774774774774 7.07800238880148e+39
5784.784784784785 7.047621685987678e+39
5794.794794794795 7.017381733063604e+39
5804.804804804805 6.987281981789463e+39
5814.814814814815 6.957321885098579e+39
5824.824824824825 6.927500897073709e+39
5834.8348348348345 6.897818472924208e+39
5844.844844844845 6.868274068964209e+39
5854.854854854855 6.838867142591634e+39
5864.864864864865 6.809597152268124e+39
5874.874874874875 6.78046355749989e+39
5884.884884884885 6.751465818819442e+39
