#lamb flux
1000.0 2.295226701910829e+40
1010.01001001001 2.295114567586124e+40
1020.0200200200201 2.293927827565015e+40
1030.03003003003 2.2917110963449036e+40
1040.0400400400401 2.288508376190106e+40
1050.05005005005 2.2843629740180023e+40
1060.06006006006 2.2793174290464753e+40
1070.07007007007 2.273413450384582e+40
1080.08008008008 2.2666918637865224e+40
1090.0900900900901 2.259192566827739e+40
1100.1001001001 2.2509544918014e+40
1110.11011011011 2.242015575672818e+40
1120.1201201201202 2.2324127364682096e+40
1130.13013013013 2.2221818555125273e+40
1140.1401401401401 2.2113577649682195e+40
1150.1501501501502 2.1999742401630373e+40
1160.16016016016 2.1880639962297865e+40
1170.1701701701702 2.175658688614437e+40
1180.1801801801803 2.1627889170410044e+40
1190.1901901901902 2.1494842325521159e+40
1200.2002002002002 2.135773147273147e+40
1210.2102102102103 2.1216831465752716e+40
1220.2202202202202 2.1072407033385758e+40
1230.2302302302303 2.0924712940408989e+40
1240.2402402402402 2.0773994164208341e+40
1250.2502502502502 2.062048589321204e+40
1260.2602602602603 2.0464413551210754e+40
1270.2702702702702 2.0305992951488072e+40
1280.2802802802803 2.0145432014633366e+40
1290.2902902902902 1.9982929917988637e+40
1300.3003003003003 1.981867732478959e+40
1310.3103103103103 1.9652856616744025e+40
1320.3203203203202 1.9485642128889076e+40
1330.3303303303303 1.9317200385689982e+40
1340.3403403403404 1.914769033745235e+40
1350.3503503503503 1.8977263596221615e+40
1360.3603603603603 1.880606467043674e+40
1370.3703703703704 1.8634231197690804e+40
1380.3803803803803 1.846189417502952e+40
1390.3903903903904 1.8289178186290742e+40
1400.4004004004005 1.81162016260532e+40
1410.4104104104103 1.7943076919822968e+40
1420.4204204204204 1.7769910740140302e+40
1430.4304304304305 1.7596804218338904e+40
1440.4404404404404 1.742385315173483e+40
1450.4504504504505 1.7251148206062366e+40
1460.4604604604606 1.7078775113011518e+40
1470.4704704704704 1.6906814862753925e+40
1480.4804804804805 1.6735343891374634e+40
1490.4904904904906 1.656443426315315e+40
1500.5005005005005 1.6394153847661051e+40
1510.5105105105106 1.622456649166508e+40
1520.5205205205207 1.6055732185843035e+40
1530.5305305305305 1.588770722633661e+40
1540.5405405405404 1.5720544371180136e+40
1550.5505505505505 1.555429299165682e+40
1560.5605605605606 1.5388999218645625e+40
1570.5705705705705 1.5224706084031377e+40
1580.5805805805805 1.506145365725929e+40
1590.5905905905906 1.4899279177122065e+40
1600.6006006006005 1.473821717887383e+40
1610.6106106106106 1.4578299616770318e+40
1620.6206206206207 1.4419555982138378e+40
1630.6306306306305 1.426201341708185e+40
1640.6406406406406 1.410569682393261e+40
1650.6506506506507 1.395062897055819e+40
1660.6606606606606 1.3796830591638215e+40
1670.6706706706707 1.3644320486022873e+40
1680.6806806806808 1.3493115610286924e+40
1690.6906906906906 1.3343231168592762e+40
1700.7007007007007 1.3194680705308618e+40
1710.7107107107108 1.304747620032015e+40
1720.7207207207207 1.2901628101127463e+40
1730.7307307307308 1.2757145424640818e+40
1740.7407407407409 1.2614035833826223e+40
1750.7507507507507 1.2472305707720144e+40
1760.7607607607606 1.233196020852459e+40
1770.770770770771 1.2193003345886257e+40
1780.7807807807808 1.2055438038461974e+40
1790.7907907907907 1.1919266172871085e+40
1800.8008008008007 1.1784488660133586e+40
1810.8108108108108 1.1651105489691591e+40
1820.8208208208207 1.1519115781109623e+40
1830.8308308308308 1.1388517833548623e+40
1840.8408408408409 1.1259309173106567e+40
1850.8508508508507 1.1131486598117877e+40
1860.8608608608608 1.1005046222502346e+40
1870.870870870871 1.087998351725344e+40
1880.8808808808808 1.0756293350154397e+40
1890.890890890891 1.0633970023809111e+40
1900.900900900901 1.0513007312072902e+40
1910.9109109109108 1.0393398494965268e+40
1920.920920920921 1.0275136392142969e+40
1930.930930930931 1.0158213395005896e+40
1940.940940940941 1.0042621497500354e+40
1950.950950950951 9.928352325673243e+39
1960.960960960961 9.815397166016208e+39
1970.970970970971 9.703746992619842e+39
1980.980980980981 9.593392493135113e+39
1990.9909909909911 9.484324093511562e+39
2001.001001001001 9.376531981451623e+39
2011.0110110110109 9.270006128488927e+39
2021.0210210210212 9.164736310569927e+39
2031.031031031031 9.06071212699714e+39
2041.0410410410411 8.957923017584993e+39
2051.051051051051 8.856358277893374e+39
2061.061061061061 8.756007072444082e+39
2071.071071071071 8.656858445897386e+39
2081.081081081081 8.558901332267708e+39
2091.091091091091 8.462124562383903e+39
2101.101101101101 8.366516869936673e+39
2111.1111111111113 8.272066896583503e+39
2121.121121121121 8.178763196677491e+39
2131.131131131131 8.086594242227161e+39
2141.141141141141 7.995548428664753e+39
2151.151151151151 7.90561408189561e+39
2161.161161161161 7.816779466931515e+39
2171.1711711711714 7.729032798199203e+39
2181.1811811811813 7.642362251395189e+39
2191.191191191191 7.556755976562216e+39
2201.201201201201 7.472202111921477e+39
2211.2112112112113 7.388688797923273e+39
2221.221221221221 7.306204190980672e+39
2231.2312312312315 7.224736476415093e+39
2241.2412412412414 7.144273880251144e+39
2251.2512512512512 7.064804679626758e+39
2261.261261261261 6.986317211714075e+39
2271.271271271271 6.908799881159469e+39
2281.2812812812813 6.832241166138303e+39
2291.2912912912916 6.756629623178421e+39
2301.3013013013015 6.681953890936839e+39
2311.3113113113113 6.608202693121906e+39
2321.321321321321 6.535364840744048e+39
2331.331331331331 6.463429233857871e+39
2341.3413413413414 6.392384862933137e+39
2351.3513513513512 6.322220809964703e+39
2361.3613613613616 6.252926249405732e+39
2371.3713713713714 6.184490448985734e+39
2381.3813813813813 6.116902770455663e+39
2391.391391391391 6.05015267028727e+39
2401.4014014014015 5.984229700342198e+39
2411.4114114114113 5.919123508517982e+39
2421.4214214214217 5.854823839372359e+39
2431.4314314314315 5.791320534723603e+39
2441.4414414414414 5.72860353422244e+39
2451.4514514514512 5.666662875890204e+39
2461.4614614614616 5.605488696617622e+39
2471.4714714714714 5.545071232619063e+39
2481.4814814814818 5.485400819837544e+39
2491.4914914914916 5.4264678942968396e+39
2501.5015015015015 5.368262992397647e+39
2511.5115115115113 5.310776751155849e+39
2521.521521521521 5.253999908381525e+39
2531.5315315315315 5.197923302798199e+39
2541.541541541542 5.14253787410243e+39
2551.5515515515517 5.087834662964327e+39
2561.5615615615616 5.033804810970052e+39
2571.5715715715714 4.9804395605078176e+39
2581.5815815815813 4.9277302545990056e+39
2591.5915915915916 4.875668336676429e+39
2601.6016016016015 4.8242453503118105e+39
2611.611611611612 4.773452938894669e+39
2621.6216216216217 4.723282845265018e+39
2631.6316316316315 4.673726911302051e+39
2641.6416416416414 4.624777077471363e+39
2651.6516516516517 4.5764253823328564e+39
2661.6616616616616 4.52866396201177e+39
2671.671671671672 4.481485049635025e+39
2681.6816816816818 4.434880974735167e+39
2691.6916916916916 4.3888441626239757e+39
2701.7017017017015 4.34336713373787e+39
2711.711711711712 4.2984425029571206e+39
2721.7217217217217 4.254062978900787e+39
2731.731731731732 4.210221363199202e+39
2741.741741741742 4.1669105497458585e+39
2751.7517517517517 4.1241235239302986e+39
2761.7617617617616 4.081853361853732e+39
2771.7717717717715 4.040093229528837e+39
2781.781781781782 3.9988363820652585e+39
2791.791791791792 3.958076162842238e+39
2801.801801801802 3.91780600266963e+39
2811.811811811812 3.8780194189386247e+39
2821.8218218218217 3.838710014763376e+39
2831.8318318318316 3.799871478114631e+39
2841.841841841842 3.7614975809464835e+39
2851.851851851852 3.723582178317252e+39
2861.861861861862 3.686119207505427e+39
2871.871871871872 3.6491026871216304e+39
2881.881881881882 3.612526716217418e+39
2891.8918918918916 3.5763854733917825e+39
2901.901901901902 3.5406732158960463e+39
2911.911911911912 3.505384278737953e+39
2921.921921921922 3.470513073785557e+39
2931.931931931932 3.4360540888716266e+39
2941.941941941942 3.4020018868990867e+39
2951.9519519519517 3.368351104948123e+39
2961.961961961962 3.335096453385457e+39
2971.971971971972 3.3022327149762765e+39
2981.9819819819822 3.269754743999316e+39
2991.991991991992 3.237657465365491e+39
3002.002002002002 3.205935873740515e+39
3012.012012012012 3.1745850326718793e+39
3022.0220220220217 3.143600073720537e+39
3032.032032032032 3.112977682421923e+39
3042.0420420420423 3.082709956341067e+39
3052.052052052052 3.052793857098593e+39
3062.062062062062 3.0232247944909274e+39
3072.072072072072 2.993998239863529e+39
3082.0820820820823 2.965109725529526e+39
3092.092092092092 2.936554844169864e+39
3102.102102102102 2.9083292482173246e+39
3112.1121121121123 2.8804286492268254e+39
3122.122122122122 2.8528488172339793e+39
3132.132132132132 2.8255855801038516e+39
3142.1421421421423 2.798634822871627e+39
3152.152152152152 2.771992487076785e+39
3162.162162162162 2.74565457009216e+39
3172.1721721721724 2.7196171244492526e+39
3182.1821821821823 2.6938762571609314e+39
3192.192192192192 2.6684281290426155e+39
3202.202202202202 2.643268954032903e+39
3212.2122122122123 2.6183949985145488e+39
3222.222222222222 2.5938025806365713e+39
3232.232232232232 2.569488069638203e+39
3242.2422422422424 2.5454478851753683e+39
3252.252252252252 2.521678496650244e+39
3262.262262262262 2.4981764225444428e+39
3272.2722722722724 2.4749382297562956e+39
3282.2822822822823 2.451960532942652e+39
3292.292292292292 2.4292399938655704e+39
3302.3023023023025 2.4067733207442548e+39
3312.3123123123123 2.3845572676125094e+39
3322.322322322322 2.362588633681995e+39
3332.3323323323325 2.3408642627115126e+39
3342.3423423423424 2.3193810423825182e+39
3352.352352352352 2.2981359036810204e+39
3362.3623623623625 2.2771258202860706e+39
3372.3723723723724 2.2563478079649127e+39
3382.3823823823823 2.2357989239749182e+39
3392.3923923923926 2.215476266472436e+39
3402.4024024024025 2.1953769739285787e+39
3412.4124124124123 2.1754982245520172e+39
3422.4224224224226 2.1558372357188524e+39
3432.4324324324325 2.136391263409572e+39
3442.4424424424424 2.117157601653111e+39
3452.4524524524522 2.0981335819780373e+39
3462.4624624624626 2.079316572870852e+39
3472.4724724724724 2.0607039792414144e+39
3482.4824824824823 2.042293241895435e+39
3492.4924924924926 2.024081837014065e+39
3502.5025025025025 2.0060672756405043e+39
3512.5125125125123 1.988247103173628e+39
3522.5225225225226 1.9706188988685683e+39
3532.5325325325325 1.9531802753442117e+39
3542.5425425425424 1.9359288780975705e+39
3552.5525525525527 1.9188623850249602e+39
3562.5625625625626 1.9019785059499433e+39
3572.5725725725724 1.8852749821579565e+39
3582.5825825825827 1.8687495859375897e+39
3592.5925925925926 1.85240012012842e+39
3602.6026026026025 1.8362244176753584e+39
3612.612612612613 1.8202203411894355e+39
3622.6226226226227 1.804385782514946e+39
3632.6326326326325 1.7887186623028872e+39
3642.642642642643 1.7732169295906327e+39
3652.6526526526527 1.757878561387751e+39
3662.6626626626626 1.7427015622678924e+39
3672.672672672673 1.727683963966697e+39
3682.6826826826828 1.7128238249856188e+39
3692.6926926926926 1.6981192302016114e+39
3702.7027027027025 1.68356829048259e+39
3712.712712712713 1.669169142308593e+39
3722.7227227227227 1.6549199473985978e+39
3732.7327327327325 1.640818892342853e+39
3742.742742742743 1.6268641882407292e+39
3752.7527527527527 1.6130540703439556e+39
3762.7627627627626 1.599386797705192e+39
3772.772772772773 1.5858606528318663e+39
3782.7827827827828 1.5724739413451964e+39
3792.7927927927926 1.5592249916443202e+39
3802.802802802803 1.5461121545754752e+39
3812.812812812813 1.533133803106146e+39
3822.8228228228227 1.5202883320041056e+39
3832.832832832833 1.5075741575212948e+39
3842.842842842843 1.4949897170824545e+39
3852.8528528528527 1.482533468978454e+39
3862.862862862863 1.470203892064235e+39
3872.872872872873 1.4579994854613196e+39
3882.8828828828828 1.44591876826479e+39
3892.892892892893 1.4339602792547168e+39
3902.902902902903 1.422122576611915e+39
3912.912912912913 1.4104042376380153e+39
3922.922922922923 1.3988038584797412e+39
3932.932932932933 1.3873200538573804e+39
3942.942942942943 1.3759514567973328e+39
3952.9529529529527 1.3646967183687073e+39
3962.962962962963 1.3535545074239122e+39
3972.972972972973 1.3425235103431489e+39
3982.982982982983 1.3316024307827822e+39
3992.992992992993 1.3207899894274941e+39
4003.003003003003 1.3100849237462131e+39
4013.013013013013 1.2994859877517033e+39
4023.023023023023 1.2889919517638043e+39
4033.033033033033 1.2786016021762422e+39
4043.043043043043 1.2683137412269647e+39
4053.053053053053 1.2581271867719455e+39
4063.063063063063 1.2480407720624089e+39
4073.073073073073 1.2380533455254083e+39
4083.0830830830832 1.2281637705477317e+39
4093.093093093093 1.218370925263057e+39
4103.103103103103 1.2086737023423232e+39
4113.113113113113 1.1990710087872688e+39
4123.123123123123 1.1895617657270746e+39
4133.133133133133 1.1801449082180786e+39
4143.143143143143 1.1708193850465104e+39
4153.153153153153 1.1615841585341938e+39
4163.163163163163 1.1524382043471791e+39
4173.173173173173 1.1433805113072516e+39
4183.183183183183 1.134410081206287e+39
4193.193193193193 1.1255259286233842e+39
4203.203203203203 1.1167270807447611e+39
4213.213213213214 1.1080125771863532e+39
4223.223223223224 1.0993814698190765e+39
4233.2332332332335 1.0908328225967129e+39
4243.243243243243 1.0823657113863833e+39
4253.253253253253 1.0739792238015578e+39
4263.263263263263 1.0656724590375785e+39
4273.273273273273 1.05744452770964e+39
4283.283283283283 1.0492945516931964e+39
4293.293293293293 1.0412216639667646e+39
4303.303303303303 1.0332250084570723e+39
4313.313313313313 1.0253037398865278e+39
4323.323323323323 1.0174570236229618e+39
4333.333333333334 1.0096840355316215e+39
4343.343343343344 1.0019839618293695e+39
4353.353353353354 9.943559989410597e+38
4363.3633633633635 9.867993533580518e+38
4373.373373373373 9.793132414988385e+38
4383.383383383383 9.718968895717434e+38
4393.393393393393 9.645495334396668e+38
4403.403403403403 9.572704184868394e+38
4413.413413413413 9.500587994875549e+38
4423.423423423424 9.429139404768571e+38
4433.4334334334335 9.35835114623144e+38
4443.443443443443 9.28821604102658e+38
4453.453453453454 9.218726999758367e+38
4463.463463463464 9.149877020655082e+38
4473.473473473474 9.081659188368626e+38
4483.483483483484 9.01406667279225e+38
4493.493493493494 8.947092727895581e+38
4503.503503503503 8.880730690576954e+38
4513.513513513513 8.814973979532612e+38
4523.523523523523 8.749816094142588e+38
4533.533533533533 8.685250613373062e+38
4543.543543543543 8.621271194694777e+38
4553.553553553554 8.557871573017446e+38
4563.563563563564 8.495045559639785e+38
4573.573573573573 8.432787041214959e+38
4583.583583583584 8.371089978731237e+38
4593.593593593594 8.309948406507578e+38
4603.603603603604 8.24935643120389e+38
4613.613613613614 8.189308230845887e+38
4623.623623623624 8.129798053864056e+38
4633.6336336336335 8.070820218146808e+38
4643.643643643643 8.012369110107376e+38
4653.653653653653 7.954439183764325e+38
4663.663663663663 7.89702495983551e+38
4673.673673673674 7.84012102484516e+38
4683.683683683684 7.783722030244042e+38
4693.693693693694 7.727822691542333e+38
4703.703703703704 7.672417787455099e+38
4713.713713713714 7.617502159060258e+38
4723.723723723724 7.563070708968637e+38
4733.733733733734 7.509118400506087e+38
4743.743743743744 7.4556402569075e+38
4753.753753753754 7.402631360522373e+38
4763.763763763764 7.350086852031941e+38
4773.773773773773 7.29800192967752e+38
4783.783783783783 7.24637184850007e+38
4793.793793793793 7.195191919590627e+38
4803.803803803804 7.144457509351574e+38
4813.813813813814 7.094164038768511e+38
4823.823823823824 7.044306982692583e+38
4833.833833833834 6.994881869133114e+38
4843.843843843844 6.945884278560392e+38
4853.853853853854 6.897309843218388e+38
4863.863863863864 6.849154246447385e+38
4873.873873873874 6.801413222016214e+38
4883.883883883884 6.7540825534640815e+38
4893.893893893894 6.707158073451748e+38
4903.9039039039035 6.660635663121989e+38
4913.913913913913 6.614511251469105e+38
4923.923923923924 6.568780814717462e+38
4933.933933933934 6.523440375708827e+38
4943.943943943944 6.4784860032983815e+38
4953.953953953955 6.433913811759348e+38
4963.9639639639645 6.389719960196014e+38
4973.973973973974 6.345900651965062e+38
4983.983983983984 6.302452134105094e+38
4993.993993993994 6.259370696774209e+38
5004.004004004004 6.216652672695499e+38
5014.014014014014 6.17429443661038e+38
5024.024024024024 6.132292404739586e+38
5034.0340340340335 6.0906430342518015e+38
5044.044044044043 6.0493428227396785e+38
5054.054054054054 6.008388307703273e+38
5064.064064064064 5.9677760660406975e+38
5074.074074074074 5.927502713545891e+38
5084.084084084085 5.887564904413429e+38
5094.0940940940945 5.8479593307502675e+38
5104.104104104104 5.808682722094273e+38
5114.114114114114 5.76973184493947e+38
5124.124124124124 5.731103502267928e+38
5134.134134134134 5.692794533088128e+38
5144.144144144144 5.65480181197976e+38
5154.154154154154 5.617122248644844e+38
5164.1641641641645 5.57975278746506e+38
5174.174174174174 5.542690407065226e+38
5184.184184184184 5.5059321198828124e+38
5194.194194194194 5.469474971743381e+38
5204.204204204204 5.433316041441942e+38
5214.214214214214 5.397452440330019e+38
5224.224224224225 5.361881311908459e+38
5234.2342342342345 5.326599831425804e+38
5244.244244244244 5.291605205482201e+38
5254.254254254254 5.256894671638762e+38
5264.264264264264 5.222465498032241e+38
5274.274274274274 5.188314982995053e+38
5284.284284284285 5.154440454680425e+38
5294.294294294295 5.120839270692732e+38
5304.304304304304 5.087508817722818e+38
5314.314314314314 5.054446511188351e+38
5324.324324324324 5.021649794879031e+38
5334.334334334334 4.989116140606662e+38
5344.344344344345 4.95684304785994e+38
5354.354354354355 4.924828043463977e+38
5364.3643643643645 4.8930686812443834e+38
5374.374374374374 4.861562541695966e+38
5384.384384384384 4.8303072316558526e+38
5394.394394394394 4.799300383981069e+38
5404.404404404404 4.768539657230444e+38
5414.414414414415 4.73802273535083e+38
5424.424424424425 4.70774732736753e+38
5434.4344344344345 4.677711167078901e+38
5444.444444444444 4.647912012755029e+38
5454.454454454454 4.618347646840517e+38
5464.464464464464 4.589015875661182e+38
5474.474474474475 4.5599145291347294e+38
5484.484484484485 4.5310414604852804e+38
5494.494494494495 4.502394545961704e+38
5504.504504504504 4.473971684559733e+38
5514.514514514514 4.445770797747752e+38
5524.524524524524 4.4177898291962694e+38
5534.534534534535 4.390026744510966e+38
5544.544544544545 4.362479530969291e+38
5554.554554554555 4.335146197260561e+38
5564.5645645645645 4.308024773229493e+38
5574.574574574574 4.281113309623149e+38
5584.584584584584 4.254409877841211e+38
5594.594594594595 4.227912569689538e+38
5604.604604604605 4.201619497137042e+38
5614.614614614615 4.175528792075667e+38
5624.624624624625 4.1496386060836116e+38
5634.6346346346345 4.123947110191624e+38
5644.644644644644 4.098452494652365e+38
5654.654654654654 4.073152968712822e+38
5664.664664664665 4.0480467603896546e+38
5674.674674674675 4.023132116247549e+38
5684.684684684685 3.998407301180398e+38
5694.694694694695 3.973870598195385e+38
5704.704704704704 3.949520308199858e+38
5714.714714714714 3.925354749791002e+38
5724.724724724725 3.901372259048216e+38
5734.734734734735 3.877571189328218e+38
5744.744744744745 3.853949911062788e+38
5754.754754754755 3.8305068115591385e+38
5764.764764764765 3.807240294802871e+38
5774.774774774774 3.784148781263488e+38
5784.784784784785 3.7612307077023906e+38
5794.794794794795 3.738484526983389e+38
5804.804804804805 3.715908707885625e+38
5814.814814814815 3.69350173491891e+38
5824.824824824825 3.671262108141454e+38
5834.8348348348345 3.649188342979899e+38
5844.844844844845 3.627278970051706e+38
5854.854854854855 3.605532534989775e+38
5864.864864864865 3.583947598269327e+38
5874.874874874875 3.5625227350370075e+38
5884.884884884885 3.541256534942155e+38
5894.894894894895 3.520147601970221e+38
5904.9049049049045 3.499194554278328e+38
