#lamb flux
1000.0 2.858220658017206e+38
1010.01001001001 3.103301672085378e+38
1020.0200200200201 3.3579891777617305e+38
1030.03003003003 3.6220149966746385e+38
1040.0400400400401 3.895106213883766e+38
1050.05005005005 4.176988218248755e+38
1060.06006006006 4.467387355787633e+38
1070.07007007007 4.766033212407779e+38
1080.08008008008 5.072660547312677e+38
1090.0900900900901 5.387010901714776e+38
1100.1001001001 5.708833909489545e+38
1110.11011011011 6.0378883373330964e+38
1120.1201201201202 6.373942882059403e+38
1130.13013013013 6.716776752088279e+38
1140.1401401401401 7.066180059099532e+38
1150.1501501501502 7.42195404440386e+38
1160.16016016016 7.78391116292485e+38
1170.1701701701702 8.151875045892858e+38
1180.1801801801803 8.525680361497326e+38
1190.1901901901902 8.905172590886163e+38
1200.2002002002002 9.290207735086383e+38
1210.2102102102103 9.680651966677664e+38
1220.2202202202202 1.0076381238406682e+39
1230.2302302302303 1.0477280859395288e+39
1240.2402402402402 1.088324504818189e+39
1250.2502502502502 1.1293696106637793e+39
1260.2602602602603 1.1707013083380248e+39
1270.2702702702702 1.2120160526720738e+39
1280.2802802802803 1.2532697449771733e+39
1290.2902902902902 1.2944200468136869e+39
1300.3003003003003 1.3354263898089974e+39
1310.3103103103103 1.376249974773369e+39
1320.3203203203202 1.4168537612416258e+39
1330.3303303303303 1.457202448496158e+39
1340.3403403403404 1.4972624490526196e+39
1350.3503503503503 1.5370018555153713e+39
1360.3603603603603 1.5763904016360456e+39
1370.3703703703704 1.615399418336333e+39
1380.3803803803803 1.6540017853860418e+39
1390.3903903903904 1.6921718793598995e+39
1400.4004004004005 1.729885518431835e+39
1410.4104104104103 1.767119904504026e+39
1420.4204204204204 1.803853563109638e+39
1430.4304304304305 1.8400662814731832e+39
1440.4404404404404 1.8757390450608396e+39
1450.4504504504505 1.910853972904667e+39
1460.4604604604606 1.9453942519395046e+39
1470.4704704704704 1.9793440705493424e+39
1480.4804804804805 2.012688551480963e+39
1490.4904904904906 2.0454136842465834e+39
1500.5005005005005 2.0775062571039296e+39
1510.5105105105106 2.1089537886718236e+39
1520.5205205205207 2.139744459211367e+39
1530.5305305305305 2.169867041577831e+39
1540.5405405405404 2.1993108318258504e+39
1550.5505505505505 2.2280655794308823e+39
1560.5605605605606 2.256121417073192e+39
1570.5705705705705 2.2834687899171337e+39
1580.5805805805805 2.3100983843085277e+39
1590.5905905905906 2.336001055807e+39
1600.6006006006005 2.3611677564690184e+39
1610.6106106106106 2.38558946130167e+39
1620.6206206206207 2.4092570938182493e+39
1630.6306306306305 2.4321614506458145e+39
1640.6406406406406 2.4542931251637124e+39
1650.6506506506507 2.4756424301927808e+39
1660.6606606606606 2.4961993198104472e+39
1670.6706706706707 2.5159533104399864e+39
1680.6806806806808 2.5348934014573298e+39
1690.6906906906906 2.5530079956804587e+39
1700.7007007007007 2.570290466394453e+39
1710.7107107107108 2.586750915100023e+39
1720.7207207207207 2.6023738527156382e+39
1730.7307307307308 2.6171398787782997e+39
1740.7407407407409 2.6310287772756194e+39
1750.7507507507507 2.644019461763324e+39
1760.7607607607606 2.6560899295279442e+39
1770.770770770771 2.6672172281315112e+39
1780.7807807807808 2.677377438454271e+39
1790.7907907907907 2.6865456792746626e+39
1800.8008008008007 2.6946961395085563e+39
1810.8108108108108 2.701802145484823e+39
1820.8208208208207 2.7078362720683882e+39
1830.8308308308308 2.71277050805119e+39
1840.8408408408409 2.7165764879968856e+39
1850.8508508508507 2.7192258046031997e+39
1860.8608608608608 2.7206904175595724e+39
1870.870870870871 2.7209431767035548e+39
1880.8808808808808 2.7199584788322694e+39
1890.890890890891 2.7177130785411774e+39
1900.900900900901 2.7141870735824777e+39
1910.9109109109108 2.7093650839894255e+39
1920.920920920921 2.7032376410138715e+39
1930.930930930931 2.6958027960733973e+39
1940.940940940941 2.6870679506236624e+39
1950.950950950951 2.6770518943683547e+39
1960.960960960961 2.6657870208030236e+39
1970.970970970971 2.6533216653449845e+39
1980.980980980981 2.6397224823280948e+39
1990.9909909909911 2.6250767438402384e+39
2001.001001001001 2.6094944077669786e+39
2011.0110110110109 2.593109767864648e+39
2021.0210210210212 2.5760824700973064e+39
2031.031031031031 2.5585976630462078e+39
2041.0410410410411 2.540865052930591e+39
2051.051051051051 2.5231166624104252e+39
2061.061061061061 2.5056031518907253e+39
2071.071071071071 2.4885886540538366e+39
2081.081081081081 2.4723441932412253e+39
2091.091091091091 2.4571399014071066e+39
2101.101101101101 2.4432363860423758e+39
2111.1111111111113 2.4308757328287144e+39
2121.121121121121 2.4202727158612583e+39
2131.131131131131 2.411606823169676e+39
2141.141141141141 2.4050156742631388e+39
2151.151151151151 2.4005903089829717e+39
2161.161161161161 2.398372673562691e+39
2171.1711711711714 2.3983554403850813e+39
2181.1811811811813 2.400484098074518e+39
2191.191191191191 2.404661064600672e+39
2201.201201201201 2.4107514302460842e+39
2211.2112112112113 2.418589844184254e+39
2221.221221221221 2.427988023283323e+39
2231.2312312312315 2.4387423809211512e+39
2241.2412412412414 2.4506413364881877e+39
2251.2512512512512 2.4634719583024745e+39
2261.261261261261 2.4770256983617207e+39
2271.271271271271 2.4911030827954927e+39
2281.2812812812813 2.5055173163749676e+39
2291.2912912912916 2.520096836232861e+39
2301.3013013013015 2.5346869060820498e+39
2311.3113113113113 2.5491503778560985e+39
2321.321321321321 2.5633677651615243e+39
2331.331331331331 2.577236775780885e+39
2341.3413413413414 2.5906714426503982e+39
2351.3513513513512 2.6036009780187016e+39
2361.3613613613616 2.6159684570889067e+39
2371.3713713713714 2.6277294178580792e+39
2381.3813813813813 2.6388504448770992e+39
2391.391391391391 2.6493077873924884e+39
2401.4014014014015 2.6590860474082855e+39
2411.4114114114113 2.6681769608373305e+39
2421.4214214214217 2.6765782850459116e+39
2431.4314314314315 2.684292798518036e+39
2441.4414414414414 2.6913274127736606e+39
2451.4514514514512 2.6976923927382648e+39
2461.4614614614616 2.70340067915522e+39
2471.4714714714714 2.70846730506249e+39
2481.4814814814818 2.7129088975663858e+39
2491.4914914914916 2.7167432559244124e+39
2501.5015015015015 2.7199889971258137e+39
2511.5115115115113 2.722665260598005e+39
2521.521521521521 2.724791464267835e+39
2531.5315315315315 2.7263871048930134e+39
2541.541541541542 2.727471596296815e+39
2551.5515515515517 2.7280641398510064e+39
2561.5615615615616 2.7281836222329573e+39
2571.5715715715714 2.727848536118106e+39
2581.5815815815813 2.7270769200497914e+39
2591.5915915915916 2.725886314251982e+39
2601.6016016016015 2.724293729616336e+39
2611.611611611612 2.722315627505741e+39
2621.6216216216217 2.719967908375552e+39
2631.6316316316315 2.7172659075254175e+39
2641.6416416416414 2.7142243965636725e+39
2651.6516516516517 2.710857589397205e+39
2661.6616616616616 2.707179151757133e+39
2671.671671671672 2.7032022134387083e+39
2681.6816816816818 2.698939382576342e+39
2691.6916916916916 2.6944027613951694e+39
2701.7017017017015 2.6896039629819972e+39
2711.711711711712 2.6845541287038214e+39
2721.7217217217217 2.6792639459734447e+39
2731.731731731732 2.67374366612135e+39
2741.741741741742 2.6680031221826775e+39
2751.7517517517517 2.66205174644925e+39
2761.7617617617616 2.6558985876707823e+39
2771.7717717717715 2.649552327817343e+39
2781.781781781782 2.6430212983383106e+39
2791.791791791792 2.636313495871826e+39
2801.801801801802 2.6294365973740512e+39
2811.811811811812 2.6223979746499497e+39
2821.8218218218217 2.615204708277178e+39
2831.8318318318316 2.6078636009226057e+39
2841.841841841842 2.6003811900571685e+39
2851.851851851852 2.5927637600796114e+39
2861.861861861862 2.585017353863309e+39
2871.871871871872 2.577147783743124e+39
2881.881881881882 2.5691606419612822e+39
2891.8918918918916 2.561061310592501e+39
2901.901901901902 2.5528549709695397e+39
2911.911911911912 2.5445466126307812e+39
2921.921921921922 2.536141041811522e+39
2931.931931931932 2.5276428895006143e+39
2941.941941941942 2.5190566190836796e+39
2951.9519519519517 2.5103865335937102e+39
2961.961961961962 2.501636782589257e+39
2971.971971971972 2.492811368679712e+39
2981.9819819819822 2.4839141537164945e+39
2991.991991991992 2.4749488646681428e+39
3002.002002002002 2.4659190991965755e+39
3012.012012012012 2.456828330950906e+39
3022.0220220220217 2.447679914594493e+39
3032.032032032032 2.443813157695176e+39
3042.0420420420423 2.4338907220632615e+39
3052.052052052052 2.4237321682522862e+39
3062.062062062062 2.4133914117146214e+39
3072.072072072072 2.4029153990970258e+39
3082.0820820820823 2.3923447925433604e+39
3092.092092092092 2.381714603636271e+39
3102.102102102102 2.371054778197851e+39
3112.1121121121123 2.360390733739456e+39
3122.122122122122 2.349743851745868e+39
3132.132132132132 2.339131927234933e+39
3142.1421421421423 2.3285695781805127e+39
3152.152152152152 2.3180686174486415e+39
3162.162162162162 2.307638389894624e+39
3172.1721721721724 2.297286077218494e+39
3182.1821821821823 2.287016973091414e+39
3192.192192192192 2.276834730956287e+39
3202.202202202202 2.2667415867809223e+39
3212.2122122122123 2.256738558907524e+39
3222.222222222222 2.2468256270033687e+39
3232.232232232232 2.237001891978142e+39
3242.2422422422424 2.227265718596032e+39
3252.252252252252 2.21761486237765e+39
3262.262262262262 2.2080465822594892e+39
3272.2722722722724 2.1985577403578325e+39
3282.2822822822823 2.189144890070379e+39
3292.292292292292 2.179804353642655e+39
3302.3023023023025 2.170532290227548e+39
3312.3123123123123 2.1613247553748737e+39
3322.322322322322 2.152177752803704e+39
3332.3323323323325 2.1430872792326734e+39
3342.3423423423424 2.134049362972573e+39
3352.352352352352 2.1250600969205734e+39
3362.3623623623625 2.1161156665362225e+39
3372.3723723723724 2.107212373325339e+39
3382.3823823823823 2.098346654308712e+39
3392.3923923923926 2.0895150979079274e+39
3402.4024024024025 2.0807144566398748e+39
3412.4124124124123 2.071941656974693e+39
3422.4224224224226 2.0631938066783436e+39
3432.4324324324325 2.054468199930646e+39
3442.4424424424424 2.0457623204819207e+39
3452.4524524524522 2.037073843086407e+39
3462.4624624624626 2.02840063342782e+39
3472.4724724724724 2.0197407467317527e+39
3482.4824824824823 2.011092425240848e+39
3492.4924924924926 2.002454094711622e+39
3502.5025025025025 1.993824360076279e+39
3512.5125125125123 1.9852020003987338e+39
3522.5225225225226 1.9765859632412434e+39
3532.5325325325325 1.967975358546301e+39
3542.5425425425424 1.959369452127826e+39
3552.5525525525527 1.950767658855933e+39
3562.5625625625626 1.9421695356107458e+39
3572.5725725725724 1.9335747740725663e+39
3582.5825825825827 1.9249831934084542e+39
3592.5925925925926 1.9163947329084228e+39
3602.6026026026025 1.907809444618422e+39
3612.612612612613 1.8992274860116132e+39
3622.6226226226227 1.8906491127343912e+39
3632.6326326326325 1.8820746714588937e+39
3642.642642642643 1.8735045928695777e+39
3652.6526526526527 1.864939384807496e+39
3662.6626626626626 1.856379625592438e+39
3672.672672672673 1.847825957539937e+39
3682.6826826826828 1.839279080687157e+39
3692.6926926926926 1.8307397467391478e+39
3702.7027027027025 1.8222087532444872e+39
3712.712712712713 1.813686938007265e+39
3722.7227227227227 1.8051751737403768e+39
3732.7327327327325 1.7966743629633535e+39
3742.742742742743 1.7881854331464456e+39
3752.7527527527527 1.7797093321012388e+39
3762.7627627627626 1.77124702361686e+39
3772.772772772773 1.762799483339761e+39
3782.7827827827828 1.7543676948940576e+39
3792.7927927927926 1.7459526462385885e+39
3802.802802802803 1.7375553262561328e+39
3812.812812812813 1.7291767215695572e+39
3822.8228228228227 1.7208178135791566e+39
3832.832832832833 1.712479575714986e+39
3842.842842842843 1.7041629708976027e+39
3852.8528528528527 1.6958689492003344e+39
3862.862862862863 1.687598445705948e+39
3872.872872872873 1.679352378550422e+39
3882.8828828828828 1.6711316471463462e+39
3892.892892892893 1.662937130578508e+39
3902.902902902903 1.6547696861640113e+39
3912.912912912913 1.6466301481694426e+39
3922.922922922923 1.6385193266775306e+39
3932.932932932933 1.6304380065958547e+39
3942.942942942943 1.622386946800213e+39
3952.9529529529527 1.6143668794054287e+39
3962.962962962963 1.6063785091564655e+39
3972.972972972973 1.5984225129328858e+39
3982.982982982983 1.5904995393598762e+39
3992.992992992993 1.582610208519215e+39
4003.003003003003 1.5747551117537803e+39
4013.013013013013 1.5669348115593758e+39
4023.023023023023 1.5591498415578592e+39
4033.033033033033 1.551400706545802e+39
4043.043043043043 1.5436878826130712e+39
4053.053053053053 1.5360118173260104e+39
4063.063063063063 1.528372929970053e+39
4073.073073073073 1.520771611846862e+39
4083.0830830830832 1.513208226621299e+39
4093.093093093093 1.5056831107137432e+39
4103.103103103103 1.49819657373347e+39
4113.113113113113 1.4907488989490793e+39
4123.123123123123 1.4833403437920674e+39
4133.133133133133 1.4759711403899474e+39
4143.143143143143 1.468641496125443e+39
4153.153153153153 1.4613515942185062e+39
4163.163163163163 1.4541015943280968e+39
4173.173173173173 1.4468916331708333e+39
4183.183183183183 1.4397218251538114e+39
4193.193193193193 1.4325922630190383e+39
4203.203203203203 1.4255030184971262e+39
4213.213213213214 1.4184541429680107e+39
4223.223223223224 1.411445668126634e+39
4233.2332332332335 1.404477606651663e+39
4243.243243243243 1.3975499528754767e+39
4253.253253253253 1.3906626834537462e+39
4263.263263263263 1.3838157580331118e+39
4273.273273273273 1.377009119915529e+39
4283.283283283283 1.370242696718007e+39
4293.293293293293 1.3635164010265686e+39
4303.303303303303 1.3568301310433336e+39
4313.313313313313 1.350183771225766e+39
4323.323323323323 1.3435771929171939e+39
4333.333333333334 1.3370102549678078e+39
4343.343343343344 1.3304828043454137e+39
4353.353353353354 1.3239946767353161e+39
4363.3633633633635 1.3175456971287586e+39
4373.373373373373 1.3111356803994364e+39
4383.383383383383 1.3047644318676393e+39
4393.393393393393 1.2984317478516645e+39
4403.403403403403 1.292137416206188e+39
4413.413413413413 1.2858812168473203e+39
4423.423423423424 1.2796629222641587e+39
4433.4334334334335 1.2734822980166483e+39
4443.443443443443 1.2673391032196447e+39
4453.453453453454 1.2612330910130851e+39
4463.463463463464 1.2551640090182413e+39
4473.473473473474 1.24913159978e+39
4483.483483483484 1.2431356011952458e+39
4493.493493493494 1.237175746927345e+39
4503.503503503503 1.2312517668068246e+39
4513.513513513513 1.2253633872183556e+39
4523.523523523523 1.2195103314741203e+39
4533.533533533533 1.2136923201737533e+39
4543.543543543543 1.2079090715509678e+39
4553.553553553554 1.2021603018070697e+39
4563.563563563564 1.196445725431532e+39
4573.573573573573 1.1907650555098346e+39
4583.583583583584 1.185118004018782e+39
4593.593593593594 1.1795042821095216e+39
4603.603603603604 1.1739236003784838e+39
4613.613613613614 1.1683756691265046e+39
4623.623623623624 1.1628601986063467e+39
4633.6336336336335 1.1573768992588943e+39
4643.643643643643 1.151925481938268e+39
4653.653653653653 1.146505658126112e+39
4663.663663663663 1.1411171401353279e+39
4673.673673673674 1.1357596413035082e+39
4683.683683683684 1.130432876176348e+39
4693.693693693694 1.1251365606812821e+39
4703.703703703704 1.1198704122916342e+39
4713.713713713714 1.1146341501815319e+39
4723.723723723724 1.1094274953718522e+39
4733.733733733734 1.1042501708674678e+39
4743.743743743744 1.0991019017860562e+39
4753.753753753754 1.0939824154787196e+39
4763.763763763764 1.0888914416426946e+39
4773.773773773773 1.0838287124263729e+39
4783.783783783783 1.0787939625269338e+39
4793.793793793793 1.07378692928078e+39
4803.803803803804 1.0688073527470647e+39
4813.813813813814 1.0638549757845311e+39
4823.823823823824 1.0589295441219082e+39
4833.833833833834 1.0540308064220864e+39
4843.843843843844 1.0491585143403171e+39
4853.853853853854 1.0443124225766408e+39
4863.863863863864 1.039492288922787e+39
4873.873873873874 1.0346978743037354e+39
4883.883883883884 1.0299289428141737e+39
4893.893893893894 1.02518526175004e+39
4903.9039039039035 1.020466601635361e+39
4913.913913913913 1.0157727362445793e+39
4923.923923923924 1.0111034426205624e+39
4933.933933933934 1.0064585010884838e+39
4943.943943943944 1.001837695265753e+39
4953.953953953955 9.972408120681762e+38
4963.9639639639645 9.926676417125252e+38
4973.973973973974 9.881179777156729e+38
4983.983983983984 9.835916168904695e+38
4993.993993993994 9.790883593385149e+38
5004.004004004004 9.746080084399792e+38
5014.014014014014 9.701503708406337e+38
5024.024024024024 9.657152564362159e+38
5034.0340340340335 9.613024783543023e+38
5044.044044044043 9.569118529337962e+38
5054.054054054054 9.525431997021794e+38
5064.064064064064 9.481963413506616e+38
5074.074074074074 9.438711037073325e+38
5084.084084084085 9.39567315708463e+38
5094.0940940940945 9.352848093680522e+38
5104.104104104104 9.310234197457425e+38
5114.114114114114 9.267829849132153e+38
5124.124124124124 9.225633459191604e+38
5134.134134134134 9.183643467529394e+38
5144.144144144144 9.141858343070197e+38
5154.154154154154 9.100276583382985e+38
5164.1641641641645 9.058896714283823e+38
5174.174174174174 9.017717289429346e+38
5184.184184184184 8.976736889901558e+38
5194.194194194194 8.935954123784914e+38
5204.204204204204 8.895367625736414e+38
5214.214214214214 8.854976056549447e+38
5224.224224224225 8.814778102712132e+38
5234.2342342342345 8.774772475960864e+38
5244.244244244244 8.734957912829688e+38
5254.254254254254 8.695333174196213e+38
5264.264264264264 8.655897044824557e+38
5274.274274274274 8.61664833290608e+38
5284.284284284285 8.577585869598294e+38
5294.294294294295 8.538708508562607e+38
5304.304304304304 8.500015125501326e+38
5314.314314314314 8.461504617694533e+38
5324.324324324324 8.423175903537098e+38
5334.334334334334 8.385027922076498e+38
5344.344344344345 8.347059632551694e+38
5354.354354354355 8.309270013933558e+38
5364.3643643643645 8.27165806446719e+38
5374.374374374374 8.234222801216514e+38
5384.384384384384 8.196963259611469e+38
5394.394394394394 8.159878492998126e+38
5404.404404404404 8.122967572192056e+38
5414.414414414415 8.086229585035221e+38
5424.424424424425 8.049663635956655e+38
5434.4344344344345 8.013268845537194e+38
5444.444444444444 7.97704435007851e+38
5454.454454454454 7.940989301176669e+38
5464.464464464464 7.905102865300384e+38
5474.474474474475 7.869384223374248e+38
5484.484484484485 7.833832570367008e+38
5494.494494494495 7.798447114885161e+38
5504.504504504504 7.763227078771973e+38
5514.514514514514 7.728171696712041e+38
5524.524524524524 7.693280215841635e+38
5534.534534534535 7.658551895364783e+38
5544.544544544545 7.623986006175364e+38
5554.554554554555 7.589581830485196e+38
5564.5645645645645 7.55533866145828e+38
5574.574574574574 7.521255802851219e+38
5584.584584584584 7.487332568659962e+38
5594.594594594595 7.453568282772819e+38
5604.604604604605 7.419962278629953e+38
5614.614614614615 7.386513898889206e+38
5624.624624624625 7.353222495098466e+38
5634.6346346346345 7.320087427374533e+38
5644.644644644644 7.287108064088439e+38
5654.654654654654 7.254283781557389e+38
5664.664664664665 7.221613963743152e+38
5674.674674674675 7.189098001957097e+38
5684.684684684685 7.156735294571651e+38
5694.694694694695 7.12452524673838e+38
5704.704704704704 7.092467270112518e+38
5714.714714714714 7.060560782584021e+38
5724.724724724725 7.028805208015054e+38
5734.734734734735 6.997199975983925e+38
5744.744744744745 6.965744521535412e+38
5754.754754754755 6.934438284937422e+38
5764.764764764765 6.90328071144399e+38
5774.774774774774 6.872271251064533e+38
5784.784784784785 6.841409358339278e+38
5794.794794794795 6.810694492120909e+38
5804.804804804805 6.780126115362241e+38
5814.814814814815 6.749703694909977e+38
5824.824824824825 6.719426701304436e+38
5834.8348348348345 6.6892946085851275e+38
5844.844844844845 6.659306894102275e+38
5854.854854854855 6.629463038333974e+38
5864.864864864865 6.599762524709123e+38
5874.874874874875 6.570204839435973e+38
5884.884884884885 6.540789471336162e+38
