#lamb flux
1000.0 3.989327528112762e+40
1010.01001001001 4.104718168553679e+40
1020.0200200200201 4.2146065781805983e+40
1030.03003003003 4.319021928898214e+40
1040.0400400400401 4.4180265683089e+40
1050.05005005005 4.511711069657052e+40
1060.06006006006 4.600189663184079e+40
1070.07007007007 4.68359606322499e+40
1080.08008008008 4.762079693145615e+40
1090.0900900900901 4.835802300809007e+40
1100.1001001001 4.904934950253895e+40
1110.11011011011 4.969655370273925e+40
1120.1201201201202 5.030145637245629e+40
1130.13013013013 5.086590167547226e+40
1140.1401401401401 5.139173993960898e+40
1150.1501501501502 5.188081300320966e+40
1160.16016016016 5.233494189157873e+40
1170.1701701701702 5.27559165802761e+40
1180.1801801801803 5.314548761471572e+40
1190.1901901901902 5.350535937013623e+40
1200.2002002002002 5.383718475182893e+40
1210.2102102102103 5.414256115184891e+40
1220.2202202202202 5.442302749478849e+40
1230.2302302302303 5.46800622211765e+40
1240.2402402402402 5.491508207241344e+40
1250.2502502502502 5.512751032206127e+40
1260.2602602602603 5.5312865119205e+40
1270.2702702702702 5.546197765307035e+40
1280.2802802802803 5.557637769933927e+40
1290.2902902902902 5.565757736601702e+40
1300.3003003003003 5.570706600125989e+40
1310.3103103103103 5.572630583692158e+40
1320.3203203203202 5.571672830074988e+40
1330.3303303303303 5.567973093373586e+40
1340.3403403403404 5.561667485286401e+40
1350.3503503503503 5.552888270334149e+40
1360.3603603603603 5.541763704823229e+40
1370.3703703703704 5.528417914721431e+40
1380.3803803803803 5.512970807988083e+40
1390.3903903903904 5.495538017258146e+40
1400.4004004004005 5.476230869121415e+40
1410.4104104104103 5.455156376563073e+40
1420.4204204204204 5.43241725143793e+40
1430.4304304304305 5.408111934138361e+40
1440.4404404404404 5.382334637884403e+40
1450.4504504504505 5.355175405313711e+40
1460.4604604604606 5.326720175280289e+40
1470.4704704704704 5.297050857983488e+40
1480.4804804804805 5.266245416744881e+40
1490.4904904904906 5.234377954929796e+40
1500.5005005005005 5.201518806674568e+40
1510.5105105105106 5.167734630230248e+40
1520.5205205205207 5.133088502870075e+40
1530.5305305305305 5.097640016432285e+40
1540.5405405405404 5.061445372683212e+40
1550.5505505505505 5.024557477788903e+40
1560.5605605605606 4.987026035278153e+40
1570.5705705705705 4.948897636967058e+40
1580.5805805805805 4.910215851395879e+40
1590.5905905905906 4.871021309404927e+40
1600.6006006006005 4.831351786548507e+40
1610.6106106106106 4.791242282116154e+40
1620.6206206206207 4.750725094600182e+40
1630.6306306306305 4.709829893519888e+40
1640.6406406406406 4.6685837875873425e+40
1650.6506506506507 4.627011389280436e+40
1660.6606606606606 4.585134875977597e+40
1670.6706706706707 4.542974047909552e+40
1680.6806806806808 4.500546383298922e+40
1690.6906906906906 4.457867091193855e+40
1700.7007007007007 4.41495715050062e+40
1710.7107107107108 4.371859194499443e+40
1720.7207207207207 4.328577800440286e+40
1730.7307307307308 4.2851116740057363e+40
1740.7407407407409 4.2414582013714464e+40
1750.7507507507507 4.1976134685553e+40
1760.7607607607606 4.1535722908889373e+40
1770.770770770771 4.1093282555786645e+40
1780.7807807807808 4.064873780941501e+40
1790.7907907907907 4.020200196620974e+40
1800.8008008008007 3.97529784991289e+40
1810.8108108108108 3.9301562442668427e+40
1820.8208208208207 3.8847642170708555e+40
1830.8308308308308 3.8391101649606993e+40
1840.8408408408409 3.7931823260929157e+40
1850.8508508508507 3.746969130031386e+40
1860.8608608608608 3.700459627041843e+40
1870.870870870871 3.6536440095484866e+40
1880.8808808808808 3.606514239113254e+40
1890.890890890891 3.55906479232126e+40
1900.900900900901 3.5112935380927955e+40
1910.9109109109108 3.4632027568098473e+40
1920.920920920921 3.414800307781736e+40
1930.930930930931 3.366100945450282e+40
1940.940940940941 3.317127775789694e+40
1950.950950950951 3.267913832060896e+40
1960.960960960961 3.218503733041705e+40
1970.970970970971 3.168955366964242e+40
1980.980980980981 3.1193415210199354e+40
1990.9909909909911 3.06975135051514e+40
2001.001001001001 3.020291555582961e+40
2011.0110110110109 2.971087109883619e+40
2021.0210210210212 2.922281369185722e+40
2031.031031031031 2.874035383252312e+40
2041.0410410410411 2.826526247554003e+40
2051.051051051051 2.779944366912617e+40
2061.061061061061 2.7344895643006734e+40
2071.071071071071 2.690366054455184e+40
2081.081081081081 2.64777640893998e+40
2091.091091091091 2.606914756885893e+40
2101.101101101101 2.5679595792280055e+40
2111.1111111111113 2.5310665463060725e+40
2121.121121121121 2.4963619017747572e+40
2131.131131131131 2.46393689630167e+40
2141.141141141141 2.433843716285262e+40
2151.151151151151 2.406093239180784e+40
2161.161161161161 2.3806547911585684e+40
2171.1711711711714 2.3574579055806435e+40
2181.1811811811813 2.336395906690676e+40
2191.191191191191 2.317330995337651e+40
2201.201201201201 2.3001004103220505e+40
2211.2112112112113 2.284523189466921e+40
2221.221221221221 2.27040705895412e+40
2231.2312312312315 2.257555029985389e+40
2241.2412412412414 2.245771365186841e+40
2251.2512512512512 2.2348666779244653e+40
2261.261261261261 2.2246620311284307e+40
2271.271271271271 2.2149919965046784e+40
2281.2812812812813 2.2057067122841447e+40
2291.2912912912916 2.196673034151892e+40
2301.3013013013015 2.187774909429636e+40
2311.3113113113113 2.178913121185522e+40
2321.321321321321 2.1700045503935876e+40
2331.331331331331 2.1609810947594918e+40
2341.3413413413414 2.1517883663964838e+40
2351.3513513513512 2.142384270609565e+40
2361.3613613613616 2.1327375472764714e+40
2371.3713713713714 2.122826336548598e+40
2381.3813813813813 2.1126368129677004e+40
2391.391391391391 2.1021619171683244e+40
2401.4014014014015 2.0914002022563203e+40
2411.4114114114113 2.0803548025885508e+40
2421.4214214214217 2.069032525733844e+40
2431.4314314314315 2.0574430635007848e+40
2441.4414414414414 2.0455983146888534e+40
2451.4514514514512 2.033511810292305e+40
2461.4614614614616 2.0211982309395881e+40
2471.4714714714714 2.0086730061147311e+40
2481.4814814814818 1.9959519849617773e+40
2491.4914914914916 1.983051169047806e+40
2501.5015015015015 1.9699864982244421e+40
2511.5115115115113 1.9567736815868595e+40
2521.521521521521 1.9434280664156755e+40
2531.5315315315315 1.9299645388551849e+40
2541.541541541542 1.9163974509018954e+40
2551.5515515515517 1.902740569033055e+40
2561.5615615615616 1.8890070404876688e+40
2571.5715715715714 1.8752093738198464e+40
2581.5815815815813 1.8613594308778936e+40
2591.5915915915916 1.8474684278266145e+40
2601.6016016016015 1.833546943230303e+40
2611.611611611612 1.819604931556207e+40
2621.6216216216217 1.8056517407493698e+40
2631.6316316316315 1.7916961327756747e+40
2641.6416416416414 1.7777463062369674e+40
2651.6516516516517 1.7638099203352016e+40
2661.6616616616616 1.7498941196069179e+40
2671.671671671672 1.7360055589690403e+40
2681.6816816816818 1.7221504287158962e+40
2691.6916916916916 1.708334479188668e+40
2701.7017017017015 1.6945630449051279e+40
2711.711711711712 1.6808410679917556e+40
2721.7217217217217 1.6671731208043961e+40
2731.731731731732 1.6535634276590282e+40
2741.741741741742 1.6400158856227177e+40
2751.7517517517517 1.6265340843373254e+40
2761.7617617617616 1.6131213248664303e+40
2771.7717717717715 1.5997806375696703e+40
2781.781781781782 1.5865147990194577e+40
2791.791791791792 1.573326347982999e+40
2801.801801801802 1.560217600498455e+40
2811.811811811812 1.5471906640783152e+40
2821.8218218218217 1.5342474510758808e+40
2831.8318318318316 1.5213896912524744e+40
2841.841841841842 1.508618943583914e+40
2851.851851851852 1.4959366073449638e+40
2861.861861861862 1.483343932510167e+40
2871.871871871872 1.4708420295087514e+40
2881.881881881882 1.4584318783703018e+40
2891.8918918918916 1.4461143372966374e+40
2901.901901901902 1.4338901506939692e+40
2911.911911911912 1.4217599566979442e+40
2921.921921921922 1.4097242942226234e+40
2931.931931931932 1.397783609562912e+40
2941.941941941942 1.385938262578371e+40
2951.9519519519517 1.3741885324848188e+40
2961.961961961962 1.3625346232786303e+40
2971.971971971972 1.3509766688171595e+40
2981.9819819819822 1.3395147375773305e+40
2991.991991991992 1.328148837113076e+40
3002.002002002002 1.316878918231031e+40
3012.012012012012 1.3057048789026507e+40
3022.0220220220217 1.2946265679297813e+40
3032.032032032032 1.2859569031187467e+40
3042.0420420420423 1.274770229418226e+40
3052.052052052052 1.2636007133807257e+40
3062.062062062062 1.2524708890958947e+40
3072.072072072072 1.2413999097899907e+40
3082.0820820820823 1.2304039188435599e+40
3092.092092092092 1.2194963881029566e+40
3102.102102102102 1.208688425385085e+40
3112.1121121121123 1.197989053166258e+40
3122.122122122122 1.1874054604763983e+40
3132.132132132132 1.1769432300039446e+40
3142.1421421421423 1.166606542367018e+40
3152.152152152152 1.156398359432153e+40
3162.162162162162 1.1463205884711875e+40
3172.1721721721724 1.1363742288455973e+40
3182.1821821821823 1.1265595028005233e+40
3192.192192192192 1.1168759718414484e+40
3202.202202202202 1.1073226400577734e+40
3212.2122122122123 1.097898045651296e+40
3222.222222222222 1.0886003418252623e+40
3232.232232232232 1.0794273680922607e+40
3242.2422422422424 1.0703767129672729e+40
3252.252252252252 1.0614457689260875e+40
3262.262262262262 1.0526317804291419e+40
3272.2722722722724 1.0439318857366376e+40
3282.2822822822823 1.0353431531723842e+40
3292.292292292292 1.0268626124309627e+40
3302.3023023023025 1.0184872814653272e+40
3312.3123123123123 1.010214189439414e+40
3322.322322322322 1.0020403961825357e+40
3332.3323323323325 9.939630085388361e+39
3342.3423423423424 9.859791939656681e+39
3352.352352352352 9.780861916989703e+39
3362.3623623623625 9.702813217714364e+39
3372.3723723723724 9.625619921399752e+39
3382.3823823823823 9.549257041525727e+39
3392.3923923923926 9.473700565608697e+39
3402.4024024024025 9.398927482632049e+39
3412.4124124124123 9.324915799435532e+39
3422.4224224224226 9.251644547542966e+39
3432.4324324324325 9.17909378175044e+39
3442.4424424424424 9.10724457165533e+39
3452.4524524524522 9.036078987179058e+39
3462.4624624624626 8.96558007902147e+39
3472.4724724724724 8.895731854881536e+39
3482.4824824824823 8.826519252185545e+39
3492.4924924924926 8.7579281079808e+39
3502.5025025025025 8.689945126576835e+39
3512.5125125125123 8.622557845448734e+39
3522.5225225225226 8.555754599855917e+39
3532.5325325325325 8.489524486574861e+39
3542.5425425425424 8.423857327094912e+39
3552.5525525525527 8.358743630581968e+39
3562.5625625625626 8.294174556874859e+39
3572.5725725725724 8.23014187974348e+39
3582.5825825825827 8.166637950605661e+39
3592.5925925925926 8.10365566287082e+39
3602.6026026026025 8.041188417052672e+39
3612.612612612613 7.979230086770179e+39
3622.6226226226227 7.917774985735198e+39
3632.6326326326325 7.856817835806877e+39
3642.642642642643 7.796353736176484e+39
3652.6526526526527 7.73637813373159e+39
3662.6626626626626 7.676886794635661e+39
3672.672672672673 7.61787577714765e+39
3682.6826826826828 7.559341405696042e+39
3692.6926926926926 7.501280246212834e+39
3702.7027027027025 7.443689082725209e+39
3712.712712712713 7.386564895195923e+39
3722.7227227227227 7.32990483859745e+39
3732.7327327327325 7.273706223199792e+39
3742.742742742743 7.217966496047845e+39
3752.7527527527527 7.162683223600113e+39
3762.7627627627626 7.107854075497914e+39
3772.772772772773 7.053476809431421e+39
3782.7827827827828 6.999549257067013e+39
3792.7927927927926 6.946069310998667e+39
3802.802802802803 6.893034912685116e+39
3812.812812812813 6.840444041333417e+39
3822.8228228228227 6.788294703689152e+39
3832.832832832833 6.736584924693211e+39
3842.842842842843 6.685312738964941e+39
3852.8528528528527 6.634476183071832e+39
3862.862862862863 6.584073288546002e+39
3872.872872872873 6.534102075608568e+39
3882.8828828828828 6.484560547563295e+39
3892.892892892893 6.435446685822156e+39
3902.902902902903 6.386758445525772e+39
3912.912912912913 6.338493751723178e+39
3922.922922922923 6.290650496076006e+39
3932.932932932933 6.243226534053603e+39
3942.942942942943 6.196219682586368e+39
3952.9529529529527 6.149627718146165e+39
3962.962962962963 6.103448375223529e+39
3972.972972972973 6.057679345172795e+39
3982.982982982983 6.012318275397406e+39
3992.992992992993 5.967362768848877e+39
4003.003003003003 5.92281038381422e+39
4013.013013013013 5.878658633967607e+39
4023.023023023023 5.834904988663458e+39
4033.033033033033 5.791546873449199e+39
4043.043043043043 5.748581670777083e+39
4053.053053053053 5.706006720895599e+39
4063.063063063063 5.66381932290207e+39
4073.073073073073 5.622016735939151e+39
4083.0830830830832 5.58059618051883e+39
4093.093093093093 5.53955483995874e+39
4103.103103103103 5.498889861916289e+39
4113.113113113113 5.458598360007314e+39
4123.123123123123 5.4186774154965426e+39
4133.133133133133 5.379124079048344e+39
4143.143143143143 5.33993537252676e+39
4153.153153153153 5.3011082908347656e+39
4163.163163163163 5.26263980378338e+39
4173.173173173173 5.2245268579819845e+39
4183.183183183183 5.1867663787419133e+39
4193.193193193193 5.149355271985875e+39
4203.203203203203 5.1122904261566184e+39
4213.213213213214 5.075568714118597e+39
4223.223223223224 5.039186995047055e+39
4233.2332332332335 5.0031421162994466e+39
4243.243243243243 4.9674309152645906e+39
4253.253253253253 4.9320502211853954e+39
4263.263263263263 4.8969968569514547e+39
4273.273273273273 4.8622676408581944e+39
4283.283283283283 4.827859388329594e+39
4293.293293293293 4.793768913601989e+39
4303.303303303303 4.759993031366587e+39
4313.313313313313 4.7265285583688595e+39
4323.323323323323 4.69337231496305e+39
4333.333333333334 4.660521126620499e+39
4343.343343343344 4.6279718253905787e+39
4353.353353353354 4.5957212513133443e+39
4363.3633633633635 4.563766253783193e+39
4373.373373373373 4.532103692863047e+39
4383.383383383383 4.500730440548682e+39
4393.393393393393 4.469643381983097e+39
4403.403403403403 4.438839416620873e+39
4413.413413413413 4.408315459342646e+39
4423.423423423424 4.3780684415200014e+39
4433.4334334334335 4.348095312031074e+39
4443.443443443443 4.3183930382273964e+39
4453.453453453454 4.2889586068525004e+39
4463.463463463464 4.25978902491301e+39
4473.473473473474 4.23088132050279e+39
4483.483483483484 4.2022325435811376e+39
4493.493493493494 4.173839766705679e+39
4503.503503503503 4.1457000857210083e+39
4513.513513513513 4.1178106204039267e+39
4523.523523523523 4.09016851506628e+39
4533.533533533533 4.062770939116453e+39
4543.543543543543 4.0356150875805e+39
4553.553553553554 4.0086981815839936e+39
4563.563563563564 3.9820174687957e+39
4573.573573573573 3.9555702238341234e+39
4583.583583583584 3.9293537486380685e+39
4593.593593593594 3.903365372802293e+39
4603.603603603604 3.877602453879367e+39
4613.613613613614 3.852062377648884e+39
4623.623623623624 3.826742558355053e+39
4633.6336336336335 3.801640438913861e+39
4643.643643643643 3.7767534910908294e+39
4653.653653653653 3.752079215650473e+39
4663.663663663663 3.727615142478532e+39
4673.673673673674 3.703358830678017e+39
4683.683683683684 3.679307868640145e+39
4693.693693693694 3.655459874091133e+39
4703.703703703704 3.6318124941159086e+39
4713.713713713714 3.608363405159707e+39
4723.723723723724 3.585110313008506e+39
4733.733733733734 3.562050952749286e+39
4743.743743743744 3.539183088711011e+39
4753.753753753754 3.516504514387252e+39
4763.763763763764 3.494013052341348e+39
4773.773773773773 3.4717065540949287e+39
4783.783783783783 3.449582900000728e+39
4793.793793793793 3.4276399991003836e+39
4803.803803803804 3.405875788968139e+39
4813.813813813814 3.38428823554115e+39
4823.823823823824 3.3628753329371734e+39
4833.833833833834 3.341635103260376e+39
4843.843843843844 3.320565596395947e+39
4853.853853853854 3.299664889794225e+39
4863.863863863864 3.2789310882449967e+39
4873.873873873874 3.2583623236425946e+39
4883.883883883884 3.237956754742445e+39
4893.893893893894 3.2177125669096393e+39
4903.9039039039035 3.1976279718601205e+39
4913.913913913913 3.177701207395043e+39
4923.923923923924 3.1579305371288393e+39
4933.933933933934 3.1383142502115365e+39
4943.943943943944 3.118850661045769e+39
4953.953953953955 3.0995381089990364e+39
4963.9639639639645 3.080374958111622e+39
4973.973973973974 3.061359596800621e+39
4983.983983983984 3.042490437560529e+39
4993.993993993994 3.023765916660781e+39
5004.004004004004 3.005184493840623e+39
5014.014014014014 2.9867446520017367e+39
5024.024024024024 2.968444896898901e+39
5034.0340340340335 2.9502837568291294e+39
5044.044044044043 2.932259782319525e+39
5054.054054054054 2.914371545814226e+39
5064.064064064064 2.8966176413607096e+39
5074.074074074074 2.8789966842957613e+39
5084.084084084085 2.8615073109313535e+39
5094.0940940940945 2.844148178240737e+39
5104.104104104104 2.826917963544944e+39
5114.114114114114 2.809815364199961e+39
5124.124124124124 2.792839097284805e+39
5134.134134134134 2.775987899290685e+39
5144.144144144144 2.759260525811464e+39
5154.154154154154 2.7426557512356195e+39
5164.1641641641645 2.726172368439852e+39
5174.174174174174 2.7098091884845474e+39
5184.184184184184 2.693565040311213e+39
5194.194194194194 2.6774387704420543e+39
5204.204204204204 2.6614292426818543e+39
5214.214214214214 2.645535337822233e+39
5224.224224224225 2.6297559533484604e+39
5234.2342342342345 2.6140900031489044e+39
5244.244244244244 2.598536417227239e+39
5254.254254254254 2.5830941414175076e+39
5264.264264264264 2.5677621371021088e+39
5274.274274274274 2.5525393809328444e+39
5284.284284284285 2.5374248645550433e+39
5294.294294294295 2.5224175943348785e+39
5304.304304304304 2.5075165910899147e+39
5314.314314314314 2.4927208898229736e+39
5324.324324324324 2.4780295394593325e+39
5334.334334334334 2.463441602587349e+39
5344.344344344345 2.448956155202506e+39
5354.354354354355 2.4345722864549685e+39
5364.3643643643645 2.4202890984006252e+39
5374.374374374374 2.4061057057557025e+39
5384.384384384384 2.3920212356549283e+39
5394.394394394394 2.3780348274132937e+39
5404.404404404404 2.3641456322914116e+39
5414.414414414415 2.350352813264496e+39
5424.424424424425 2.3366555447949695e+39
5434.4344344344345 2.3230530126086845e+39
5444.444444444444 2.309544413474786e+39
5454.454454454454 2.29612895498921e+39
5464.464464464464 2.2828058553617873e+39
5474.474474474475 2.269574343206981e+39
5484.484484484485 2.2564336573382202e+39
5494.494494494495 2.2433830465658304e+39
5504.504504504504 2.230421769498548e+39
5514.514514514514 2.2175490943485843e+39
5524.524524524524 2.2047642987402485e+39
5534.534534534535 2.1920666695220713e+39
5544.544544544545 2.179455502582446e+39
5554.554554554555 2.1669301026687255e+39
5564.5645645645645 2.1544897832097684e+39
5574.574574574574 2.14213386614191e+39
5584.584584584584 2.1298616817383104e+39
5594.594594594595 2.1176725684416525e+39
5604.604604604605 2.10556587270019e+39
5614.614614614615 2.0935409488070453e+39
5624.624624624625 2.0815971587427912e+39
5634.6346346346345 2.0697338720212408e+39
5644.644644644644 2.0579504655384137e+39
5654.654654654654 2.046246323424657e+39
5664.664664664665 2.0346208368998524e+39
5674.674674674675 2.023073404131719e+39
5684.684684684685 2.0116034300971087e+39
5694.694694694695 2.0002103264463068e+39
5704.704704704704 1.9888935113702763e+39
5714.714714714714 1.977652409470797e+39
5724.724724724725 1.9664864516334706e+39
5734.734734734735 1.9553950749035474e+39
5744.744744744745 1.9443777223645243e+39
5754.754754754755 1.933433843019474e+39
5764.764764764765 1.9225628916750768e+39
5774.774774774774 1.9117643288282912e+39
5784.784784784785 1.9010376205556264e+39
5794.794794794795 1.8903822384049852e+39
5804.804804804805 1.8797976592900184e+39
5814.814814814815 1.869283365386957e+39
5824.824824824825 1.8588388440338746e+39
5834.8348348348345 1.8484635876323347e+39
5844.844844844845 1.8381570935513975e+39
5854.854854854855 1.8279188640339116e+39
5864.864864864865 1.8177484061050742e+39
5874.874874874875 1.8076452314832113e+39
5884.884884884885 1.797608856492731e+39
5894.894894894895 1.7876388019792037e+39
5904.9049049049045 1.7777345932265462e+39
