#lamb flux
1000.0 0.04956496346698374
1010.01001001001 0.052790802802914344
1020.0200200200201 0.05611968821994589
1030.03003003003 0.05954947746901374
1040.0400400400401 0.06307785897701823
1050.05005005005 0.06670236420521634
1060.06006006006 0.0704203799194158
1070.07007007007 0.0742291603140876
1080.08008008008 0.07812583893961632
1090.0900900900901 0.08210744038851532
1100.1001001001 0.08617089170258224
1110.11011011011 0.09031303346864199
1120.1201201201202 0.09453063057573964
1130.13013013013 0.09882038261142856
1140.1401401401401 0.10317893387915174
1150.1501501501502 0.10760288302267297
1160.16016016016 0.11208879224709246
1170.1701701701702 0.11663319612920078
1180.1801801801803 0.12123261001281459
1190.1901901901902 0.12588353798731275
1200.2002002002002 0.1305824804498758
1210.2102102102103 0.1353259412539526
1220.2202202202202 0.14011043444824836
1230.2302302302303 0.14493249061207256
1240.2402402402402 0.14978866279421604
1250.2502502502502 0.15467461765039922
1260.2602602602603 0.15958408094780266
1270.2702702702702 0.1645081860522073
1280.2802802802803 0.16944305853130504
1290.2902902902902 0.17438489104885604
1300.3003003003003 0.17932994824566553
1310.3103103103103 0.18427457113711113
1320.3203203203202 0.18921518104429946
1330.3303303303303 0.1941482830764929
1340.3403403403404 0.1990704691828398
1350.3503503503503 0.20397842079170317
1360.3603603603603 0.20886891105597175
1370.3703703703704 0.21373880672273504
1380.3803803803803 0.21858506964557106
1390.3903903903904 0.22340475795747586
1400.4004004004005 0.22819502692214436
1410.4104104104103 0.23295312948094019
1420.4204204204204 0.23767641651242521
1430.4304304304305 0.24236233682081065
1440.4404404404404 0.2470084368691421
1450.4504504504505 0.2516123602724082
1460.4604604604606 0.256171847065144
1470.4704704704704 0.2606847327574115
1480.4804804804805 0.2651489471923667
1490.4904904904906 0.2695625132178938
1500.5005005005005 0.27392354518406975
1510.5105105105106 0.2782302472774939
1520.5205205205207 0.282480911702762
1530.5305305305305 0.2866739167206457
1540.5405405405404 0.2908077245517896
1550.5505505505505 0.2948808791540312
1560.5605605605606 0.2988920038807285
1570.5705705705705 0.302839799026827
1580.5805805805805 0.30672303926872974
1590.5905905905906 0.3105405710034574
1600.6006006006005 0.31429130959202983
1610.6106106106106 0.3179742365115629
1620.6206206206207 0.32158839642018056
1630.6306306306305 0.3251328941386365
1640.6406406406406 0.32860689155242606
1650.6506506506507 0.33200960443831035
1660.6606606606606 0.33534029921952474
1670.6706706706707 0.3385982896546282
1680.6806806806808 0.34178293346601724
1690.6906906906906 0.3448936289156868
1700.7007007007007 0.34792991757071534
1710.7107107107108 0.3508917050803824
1720.7207207207207 0.35377846314394357
1730.7307307307308 0.35658963305663616
1740.7407407407409 0.3593246816248363
1750.7507507507507 0.36198309785877886
1760.7607607607606 0.364564389770663
1770.770770770771 0.3670680813376918
1780.7807807807808 0.36949370970511475
1790.7907907907907 0.3718408227233714
1800.8008008008007 0.37410897693644485
1810.8108108108108 0.3762977361661811
1820.8208208208207 0.3784066708701407
1830.8308308308308 0.38043535848895926
1840.8408408408409 0.3823833850435078
1850.8508508508507 0.3842503482922635
1860.8608608608608 0.38603586281454616
1870.870870870871 0.38773956744422805
1880.8808808808808 0.3893611355383635
1890.890890890891 0.39090028862158877
1900.900900900901 0.3923568139933476
1910.9109109109108 0.3937305869114423
1920.920920920921 0.39502159795901154
1930.930930930931 0.3962299861456383
1940.940940940941 0.3973560781656701
1950.950950950951 0.3984004340130156
1960.960960960961 0.3993638988046517
1970.970970970971 0.4002476601687354
1980.980980980981 0.40105330988759924
1990.9909909909911 0.40178290764462915
2001.001001001001 0.40243904372414346
2011.0110110110109 0.4030248964066942
2021.0210210210212 0.403544278686285
2031.031031031031 0.40400166796126424
2041.0410410410411 0.40440221171947416
2051.051051051051 0.404751702190018
2061.061061061061 0.4050565137123302
2071.071071071071 0.4053234983741681
2081.081081081081 0.40555983837591775
2091.091091091091 0.4057728574906785
2101.101101101101 0.4059697985811807
2111.1111111111113 0.4061575788467132
2121.121121121121 0.4063425385736292
2131.131131131131 0.40653020187121264
2141.141141141141 0.40672506853404095
2151.151151151151 0.4069304544258353
2161.161161161161 0.40714839369711237
2171.1711711711714 0.4073796102514899
2181.1811811811813 0.4076235590468771
2191.191191191191 0.40787853111436057
2201.201201201201 0.4081418105949855
2211.2112112112113 0.4084098683595773
2221.221221221221 0.40867857522125
2231.2312312312315 0.4089434182947569
2241.2412412412414 0.40919970629048275
2251.2512512512512 0.40944275285181053
2261.261261261261 0.4096680308109411
2271.271271271271 0.40987129389167665
2281.2812812812813 0.4100486655271726
2291.2912912912916 0.41019669686435045
2301.3013013013015 0.41031239763384414
2311.3113113113113 0.4103932444339545
2321.321321321321 0.4104371712398897
2331.331331331331 0.41044254676540076
2341.3413413413414 0.4104081428297346
2351.3513513513512 0.4103330972535519
2361.3613613613616 0.41021687412720204
2371.3713713713714 0.4100592236359211
2381.3813813813813 0.40986014303364987
2391.391391391391 0.4096198398526093
2401.4014014014015 0.4093386980259618
2411.4114114114113 0.40901724728199584
2421.4214214214217 0.408656135930379
2431.4314314314315 0.4082561069917105
2441.4414414414414 0.40781797750773996
2451.4514514514512 0.40734262079907385
2461.4614614614616 0.4068309513991621
2471.4714714714714 0.4062839123789614
2481.4814814814818 0.4057024647786354
2491.4914914914916 0.405087578875435
2501.5015015015015 0.404440227036283
2511.5115115115113 0.4037613779264264
2521.521521521521 0.4030519918697518
2531.5315315315315 0.4023130171803844
2541.541541541542 0.4015453873081555
2551.5515515515517 0.40075001866180016
2561.5615615615616 0.399927808993062
2571.5715715715714 0.3990796362421551
2581.5815815815813 0.3982063577602292
2591.5915915915916 0.39730880983776834
2601.6016016016015 0.3963878074793337
2611.611611611612 0.3954441443749146
2621.6216216216217 0.39447859302657295
2631.6316316316315 0.39349190499619113
2641.6416416416414 0.39248481124618884
2651.6516516516517 0.39145802255012235
2661.6616616616616 0.3904122299543495
2671.671671671672 0.3893481052754877
2681.6816816816818 0.3882663016213481
2691.6916916916916 0.38716745392548
2701.7017017017015 0.3860521794874814
2711.711711711712 0.3849210785129143
2721.7217217217217 0.383774734648019
2731.731731731732 0.3826137155055551
2741.741741741742 0.3814385731790108
2751.7517517517517 0.38024984474315854
2761.7617617617616 0.37904805273954445
2771.7717717717715 0.37783370564596985
2781.781781781782 0.3766072983294178
2791.791791791792 0.37536931248217537
2801.801801801802 0.37412021704114123
2811.811811811812 0.37286046859049604
2821.8218218218217 0.37159051174804925
2831.8318318318316 0.37031077953568686
2841.841841841842 0.3690216937344122
2851.851851851852 0.3677236652245361
2861.861861861862 0.3664170943115977
2871.871871871872 0.3651023710386173
2881.881881881882 0.3637798754853029
2891.8918918918916 0.3624499780548103
2901.901901901902 0.3611130397486688
2911.911911911912 0.3597694124304583
2921.921921921922 0.35841943907880786
2931.931931931932 0.35706345403027506
2941.941941941942 0.3557017832126289
2951.9519519519517 0.35433474436904466
2961.961961961962 0.35296264727369814
2971.971971971972 0.3515857939392103
2981.9819819819822 0.35020447881638433
2991.991991991992 0.3488189889866384
3002.002002002002 0.34742960434752873
3012.012012012012 0.346036597791723
3022.0220220220217 0.3446402353797733
3032.032032032032 0.3433450778417161
3042.0420420420423 0.341929695665805
3052.052052052052 0.3405080535510972
3062.062062062062 0.3390813868863675
3072.072072072072 0.3376507904132973
3082.0820820820823 0.336217232078069
3092.092092092092 0.33478156570494894
3102.102102102102 0.3333445425776141
3112.1121121121123 0.3319068220094193
3122.122122122122 0.3304689809791717
3132.132132132132 0.3290315229043876
3142.1421421421423 0.3275948856194905
3152.152152152152 0.326159448622019
3162.162162162162 0.32472553964567513
3172.1721721721724 0.3232934406149765
3182.1821821821823 0.32186339303241535
3192.192192192192 0.32043560284533973
3202.202202202202 0.3190102448363122
3212.2122122122123 0.31758746657743037
3222.222222222222 0.31616739198602156
3232.232232232232 0.3147501245162579
3242.2422422422424 0.31333575001854985
3252.252252252252 0.31192433929607855
3262.262262262262 0.31051595038549606
3272.2722722722724 0.3091106305866593
3282.2822822822823 0.3077084182642619
3292.292292292292 0.30630934444235786
3302.3023023023025 0.30491343421105926
3312.3123123123123 0.30352070796308994
3322.322322322322 0.30213118247640713
3332.3323323323325 0.3007448718577463
3342.3423423423424 0.299361788360688
3352.352352352352 0.29798194309068754
3362.3623623623625 0.29660534660844684
3372.3723723723724 0.2952320094420248
3382.3823823823823 0.29386194251717124
3392.3923923923926 0.2924951575145545
3402.4024024024025 0.2911316671617703
3412.4124124124123 0.28977148546732334
3422.4224224224226 0.28841462790313366
3432.4324324324325 0.2870611115415122
3442.4424424424424 0.2857109551520158
3452.4524524524522 0.2843641792630867
3462.4624624624626 0.2830208061929229
3472.4724724724724 0.28168086005360643
3482.4824824824823 0.2803443667321261
3492.4924924924926 0.2790113538515838
3502.5025025025025 0.2776818507155448
3512.5125125125123 0.27635588823819685
3522.5225225225226 0.2750334988627119
3532.5325325325325 0.27371471646995893
3542.5425425425424 0.2723995762794835
3552.5525525525527 0.27108811474446887
3562.5625625625626 0.26978036944220335
3572.5725725725724 0.26847637896139975
3582.5825825825827 0.26717618278757077
3592.5925925925926 0.26587982118750175
3602.6026026026025 0.2645873350937526
3612.612612612613 0.26329876598998736
3622.6226226226227 0.2620141557978305
3632.6326326326325 0.26073354676585137
3642.642642642643 0.2594569813611902
3652.6526526526527 0.25818450216425975
3662.6626626626626 0.2569161517668823
3672.672672672673 0.25565197267416734
3682.6826826826828 0.2543920072103634
3692.6926926926926 0.25313629742887955
3702.7027027027025 0.2518848850266146
3712.712712712713 0.2506378112626996
3722.7227227227227 0.24939511688171787
3732.7327327327325 0.24815684204143357
3742.742742742743 0.2469230262450356
3752.7527527527527 0.24569370827787423
3762.7627627627626 0.24446892614864757
3772.772772772773 0.24324871703497708
3782.7827827827828 0.2420331172332915
3792.7927927927926 0.24082216211292745
3802.802802802803 0.23961588607434328
3812.812812812813 0.23841432251132885
3822.8228228228227 0.23721750377708908
3832.832832832833 0.23602546115407294
3842.842842842843 0.23483822482741093
3852.8528528528527 0.23365582386182268
3862.862862862863 0.23247828618185212
3872.872872872873 0.2313056385552886
3882.8828828828828 0.23013790657962344
3892.892892892893 0.22897511467140677
3902.902902902903 0.22781728605834803
3912.912912912913 0.2266644427740274
3922.922922922923 0.22551660565506998
3932.932932932933 0.22437379434064803
3942.942942942943 0.22323602727416864
3952.9529529529527 0.2221033217070194
3962.962962962963 0.22097569370423756
3972.972972972973 0.21985315815197562
3982.982982982983 0.2187357287666427
3992.992992992993 0.21762341810559638
4003.003003003003 0.2165162375792782
4013.013013013013 0.21541419746467153
4023.023023023023 0.21431730691998094
4033.033033033033 0.21322557400042766
4043.043043043043 0.21213900567506142
4053.053053053053 0.21105760784449476
4063.063063063063 0.20998138535946884
4073.073073073073 0.20891034204016284
4083.0830830830832 0.20784448069616704
4093.093093093093 0.20678380314703798
4103.103103103103 0.20572831024336274
4113.113113113113 0.2046780018882634
4123.123123123123 0.20363287705926866
4133.133133133133 0.20259293383049737
4143.143143143143 0.20155816939508758
4153.153153153153 0.20052858008781926
4163.163163163163 0.19950416140787428
4173.173173173173 0.1984849080416874
4183.183183183183 0.19747081388583926
4193.193193193193 0.19646187206994892
4203.203203203203 0.19545807497952533
4213.213213213214 0.19445941427874094
4223.223223223224 0.1934658809330902
4233.2332332332335 0.1924774652319023
4243.243243243243 0.1914941568106784
4253.253253253253 0.1905159446732237
4263.263263263263 0.1895428172135518
4273.273273273273 0.1885747622375358
4283.283283283283 0.18761176698428608
4293.293293293293 0.18665381814723553
4303.303303303303 0.1857009018949149
4313.313313313313 0.18475300389140226
4323.323323323323 0.18381010931643288
4333.333333333334 0.18287220288515763
4343.343343343344 0.18193926886753833
4353.353353353354 0.18101129110737116
4363.3633633633635 0.18008825304092896
4373.373373373373 0.1791701377152183
4383.383383383383 0.17825692780584093
4393.393393393393 0.17734860563446025
4403.403403403403 0.1764451531858655
4413.413413413413 0.17554655212463166
4423.423423423424 0.1746527838113757
4433.4334334334335 0.17376382931860532
4443.443443443443 0.172879669446161
4453.453453453454 0.1720002847362536
4463.463463463464 0.17112565548809744
4473.473473473474 0.17025576177213894
4483.483483483484 0.1693905834438882
4493.493493493494 0.16853010015735173
4503.503503503503 0.1676742913780721
4513.513513513513 0.16682313639577911
4523.523523523523 0.1659766143366546
4533.533533533533 0.16513470417521828
4543.543543543543 0.16429738474583733
4553.553553553554 0.1634646347538667
4563.563563563564 0.16263643278642528
4573.573573573573 0.16181275732281344
4583.583583583584 0.16099358674457875
4593.593593593594 0.1601788993452362
4603.603603603604 0.15936867333964702
4613.613613613614 0.15856288687306797
4623.623623623624 0.15776151802987132
4633.6336336336335 0.156964544841947
4643.643643643643 0.1561719452967928
4653.653653653653 0.15538369734529747
4663.663663663663 0.15459977890922647
4673.673673673674 0.1538201678884158
4683.683683683684 0.15304484216768152
4693.693693693694 0.15227377962345104
4703.703703703704 0.15150695813012488
4713.713713713714 0.15074435556617458
4723.723723723724 0.14998594981998353
4733.733733733734 0.1492317187954388
4743.743743743744 0.1484816404172797
4753.753753753754 0.14773569263621084
4763.763763763764 0.14699385343378538
4773.773773773773 0.1462561008270656
4783.783783783783 0.14552241287306805
4793.793793793793 0.1447927676729983
4803.803803803804 0.14406714337628282
4813.813813813814 0.14334551818440397
4823.823823823824 0.14262787035454422
4833.833833833834 0.14191417820304517
4843.843843843844 0.14120442010868933
4853.853853853854 0.140498574515807
4863.863863863864 0.13979661993721773
4873.873873873874 0.13909853495701
4883.883883883884 0.13840429823316416
4893.893893893894 0.1377138885000262
4903.9039039039035 0.13702728457063543
4913.913913913913 0.13634446533891198
4923.923923923924 0.13566540978171013
4933.933933933934 0.1349900969607416
4943.943943943944 0.13431850602437204
4953.953953953955 0.13365061620929938
4963.9639639639645 0.1329864068421145
4973.973973973974 0.13232585734075106
4983.983983983984 0.13166894721582842
4993.993993993994 0.1310156560718912
5004.004004004004 0.1303659636085502
5014.014014014014 0.1297198496215294
5024.024024024024 0.12907729400362017
5034.0340340340335 0.1284382767455506
5044.044044044043 0.12780277793677006
5054.054054054054 0.12717077776615407
5064.064064064064 0.12654225652263315
5074.074074074074 0.12591719459574865
5084.084084084085 0.12529557247613785
5094.0940940940945 0.12467737075595382
5104.104104104104 0.12406257012922073
5114.114114114114 0.12345115139212877
5124.124124124124 0.12284309544327125
5134.134134134134 0.12223838328382672
5144.144144144144 0.12163699601768861
5154.154154154154 0.12103891485154554
5164.1641641641645 0.12044412109491344
5174.174174174174 0.11985259616012388
5184.184184184184 0.11926432156226896
5194.194194194194 0.11867927891910611
5204.204204204204 0.11809744995092528
5214.214214214214 0.1175188164803793
5224.224224224225 0.11694336043228042
5234.2342342342345 0.11637106383336517
5244.244244244244 0.11580190881202795
5254.254254254254 0.11523587759802749
5264.264264264264 0.11467295252216476
5274.274274274274 0.1141131160159379
5284.284284284285 0.11355635061117161
5294.294294294295 0.11300263893962613
5304.304304304304 0.11245196373258431
5314.314314314314 0.11190430782042098
5324.324324324324 0.11135965413215294
5334.334334334334 0.11081798569497422
5344.344344344345 0.11027928563377436
5354.354354354355 0.10974353717064408
5364.3643643643645 0.10921072362436683
5374.374374374374 0.1086808284098996
5384.384384384384 0.1081538350378417
5394.394394394394 0.10762972711389501
5404.404404404404 0.10710848833831423
5414.414414414415 0.10659010250534977
5424.424424424425 0.10607455350268359
5434.4344344344345 0.10556182531085816
5444.444444444444 0.10505190200270025
5454.454454454454 0.10454476774274048
5464.464464464464 0.10404040678662764
5474.474474474475 0.10353880348054056
5484.484484484485 0.10303994226059683
5494.494494494495 0.10254380765225928
5504.504504504504 0.10205038426974121
5514.514514514514 0.10155965681540995
5524.524524524524 0.10107161007919065
5534.534534534535 0.10058622893796945
5544.544544544545 0.10010349835499728
5554.554554554555 0.0996234033792942
5564.5645645645645 0.09914592914505536
5574.574574574574 0.09867106087105845
5584.584584584584 0.09819878386007293
5594.594594594595 0.09772908349827139
5604.604604604605 0.09726194525464453
5614.614614614615 0.09679735468041747
5624.624624624625 0.0963352974084707
5634.6346346346345 0.09587575915276354
5644.644644644644 0.0954187257077615
5654.654654654654 0.09496418294786786
5664.664664664665 0.09451211682685855
5674.674674674675 0.0940625133773224
5684.684684684685 0.09361535871010469
5694.694694694695 0.09317063901375608
5704.704704704704 0.09272834055398584
5714.714714714714 0.09228844967312029
5724.724724724725 0.09185095278956584
5734.734734734735 0.09141583639727753
5744.744744744745 0.09098308706523218
5754.754754754755 0.09055269143690739
5764.764764764765 0.09012463622976545
5774.774774774774 0.08969890823474293
5784.784784784785 0.08927549431574537
5794.794794794795 0.08885438140914771
5804.804804804805 0.08843555652330021
5814.814814814815 0.08801900673803977
5824.824824824825 0.08760471920420691
5834.8348348348345 0.08719268114316818
5844.844844844845 0.08678287984634457
5854.854854854855 0.08637530267474484
5864.864864864865 0.08596993705850482
5874.874874874875 0.08556677049643233
5884.884884884885 0.08516579055555733
5894.894894894895 0.08476698487068772
5904.9049049049045 0.08437034114397077
5914.914914914915 0.08397584714445953
5924.924924924925 0.08358349070768552
5934.934934934935 0.08319325973523532
5944.944944944945 0.08280514219433452
5954.954954954955 0.08241912611743467
5964.964964964965 0.08203519960180736
5974.974974974975 0.08165335080914231
5984.984984984985 0.0812735679651511
5994.994994994995 0.08089583935917571
6005.005005005005 0.08052015334380212
6015.015015015015 0.0801464983344789
6025.025025025025 0.07977486280914056
6035.035035035035 0.07940523530783569
6045.045045045045 0.07903760443236006
6055.055055055055 0.07867195884589397
6065.065065065065 0.07830828727264448
6075.075075075075 0.0779465784974921
6085.085085085085 0.07758682136564193
6095.0950950950955 0.07722900478227893
6105.105105105105 0.07687311771222806
6115.115115115115 0.07651914917961795
6125.125125125125 0.07616708826754903
6135.135135135135 0.07581692411776605
6145.145145145145 0.07546864593033387
6155.155155155155 0.07512224296331796
6165.1651651651655 0.0747777045324679
6175.175175175175 0.07443502001090564
6185.185185185185 0.07409417882881654
6195.195195195195 0.07375517047314452
6205.205205205205 0.0734179844872908
6215.215215215215 0.07308261047081557
6225.225225225226 0.07274903807914403
6235.235235235235 0.07241725702327455
6245.245245245245 0.0720872570694911
6255.255255255255 0.07175902803907845
6265.265265265265 0.07143255980804032
