#lamb flux
1000.0 1.650710086771413e+35
1010.01001001001 1.939638549247462e+35
1020.0200200200201 2.2708263342702403e+35
1030.03003003003 2.6491620847240757e+35
1040.0400400400401 3.0799318533958903e+35
1050.05005005005 3.568833711659232e+35
1060.06006006006 4.1219913899294366e+35
1070.07007007007 4.745966838131433e+35
1080.08008008008 5.4477716005571414e+35
1090.0900900900901 6.2348769065109385e+35
1100.1001001001 7.115222385959675e+35
1110.11011011011 8.097223327909467e+35
1120.1201201201202 9.189776408326947e+35
1130.13013013013 1.0402263823993998e+36
1140.1401401401401 1.1744555778629867e+36
1150.1501501501502 1.3227011277822132e+36
1160.16016016016 1.486047719967884e+36
1170.1701701701702 1.6656285618540675e+36
1180.1801801801803 1.862624936948952e+36
1190.1901901901902 2.078265585165183e+36
1200.2002002002002 2.3138259078357185e+36
1210.2102102102103 2.5706269991975905e+36
1220.2202202202202 2.8500345070675825e+36
1230.2302302302303 3.1534573263323165e+36
1240.2402402402402 3.482346129726923e+36
1250.2502502502502 3.838191505825985e+36
1260.2602602602603 4.2225218121654284e+36
1270.2702702702702 4.636900876206916e+36
1280.2802802802803 5.0829280212488395e+36
1290.2902902902902 5.562234682667979e+36
1300.3003003003003 6.076482092005529e+36
1310.3103103103103 6.627358848794336e+36
1320.3203203203202 7.216578389310286e+36
1330.3303303303303 7.845876361727874e+36
1340.3403403403404 8.517007917391684e+36
1350.3503503503503 9.231744928087025e+36
1360.3603603603603 9.991873139303381e+36
1370.3703703703704 1.079918926953593e+37
1380.3803803803803 1.165549806566959e+37
1390.3903903903904 1.2562609324434123e+37
1400.4004004004005 1.3522334889814426e+37
1410.4104104104103 1.453648563615123e+37
1420.4204204204204 1.5606868446473278e+37
1430.4304304304305 1.6735283195370356e+37
1440.4404404404404 1.792351974544834e+37
1450.4504504504505 1.9173354966107172e+37
1460.4604604604606 2.0486549783052627e+37
1470.4704704704704 2.1864846266598754e+37
1480.4804804804805 2.3309964766439873e+37
1490.4904904904906 2.4823601100176e+37
1500.5005005005005 2.6407423802462096e+37
1510.5105105105106 2.806307144123059e+37
1520.5205205205207 2.979215000699784e+37
1530.5305305305305 3.1596230380828357e+37
1540.5405405405404 3.3476845886082246e+37
1550.5505505505505 3.543548992862522e+37
1560.5605605605606 3.747361372973243e+37
1570.5705705705705 3.959262415547425e+37
1580.5805805805805 4.179388164592985e+37
1590.5905905905906 4.40786982471435e+37
1600.6006006006005 4.644833574830908e+37
1610.6106106106106 4.890400392625666e+37
1620.6206206206207 5.144685889890378e+37
1630.6306306306305 5.407800158894741e+37
1640.6406406406406 5.679847629868788e+37
1650.6506506506507 5.960926939651109e+37
1660.6606606606606 6.251130811520953e+37
1670.6706706706707 6.550545946198337e+37
1680.6806806806808 6.859252923964929e+37
1690.6906906906906 7.1773261178287455e+37
1700.7007007007007 7.504833641394523e+37
1710.7107107107108 7.8418373400498695e+37
1720.7207207207207 8.18839255966499e+37
1730.7307307307308 8.544548185024286e+37
1740.7407407407409 8.910346618914374e+37
1750.7507507507507 9.285823758494418e+37
1760.7607607607606 9.67100898152022e+37
1770.770770770771 1.006592514218877e+38
1780.7807807807808 1.0470588576364325e+38
1790.7907907907907 1.088500911594548e+38
1800.8008008008007 1.130919011213642e+38
1810.8108108108108 1.174312846739474e+38
1820.8208208208207 1.2186814675845417e+38
1830.8308308308308 1.2640232871972567e+38
1840.8408408408409 1.310336088743456e+38
1850.8508508508507 1.3576170315889823e+38
1860.8608608608608 1.4058626585772594e+38
1870.870870870871 1.4550689041023494e+38
1880.8808808808808 1.5052311029853146e+38
1890.890890890891 1.5563440001704565e+38
1900.900900900901 1.6084017612671604e+38
1910.9109109109108 1.66139798397287e+38
1920.920920920921 1.715325710421861e+38
1930.930930930931 1.7701774405120223e+38
1940.940940940941 1.8259451462662938e+38
1950.950950950951 1.8826202872839625e+38
1960.960960960961 1.9401938273275284e+38
1970.970970970971 1.9986562520692087e+38
1980.980980980981 2.0579975879842998e+38
1990.9909909909911 2.118207422322364e+38
2001.001001001001 2.1792749240093597e+38
2011.0110110110109 2.241188865233434e+38
2021.0210210210212 2.303937643346854e+38
2031.031031031031 2.367509302584168e+38
2041.0410410410411 2.4318915549651894e+38
2051.051051051051 2.4970717996415703e+38
2061.061061061061 2.5630371398824854e+38
2071.071071071071 2.629774396907067e+38
2081.081081081081 2.697270119883795e+38
2091.091091091091 2.765510591646497e+38
2101.101101101101 2.834481830020567e+38
2111.1111111111113 2.904169585087633e+38
2121.121121121121 2.9745593331910577e+38
2131.131131131131 3.045636268929841e+38
2141.141141141141 3.1173852967257745e+38
2151.151151151151 3.189791023709479e+38
2161.161161161161 3.2628377556130145e+38
2171.1711711711714 3.3365094970767174e+38
2181.1811811811813 3.410789957315661e+38
2191.191191191191 3.485662561521109e+38
2201.201201201201 3.561110467786373e+38
2211.2112112112113 3.637116588833542e+38
2221.221221221221 3.713663617443735e+38
2231.2312312312315 3.7907340542942714e+38
2241.2412412412414 3.868310236879094e+38
2251.2512512512512 3.9463743683070755e+38
2261.261261261261 4.024908544990941e+38
2271.271271271271 4.103894782507217e+38
2281.2812812812813 4.18331503918223e+38
2291.2912912912916 4.2631512372061466e+38
2301.3013013013015 4.343385281277463e+38
2311.3113113113113 4.4239990749263715e+38
2321.321321321321 4.5049745347580844e+38
2331.331331331331 4.586293602904433e+38
2341.3413413413414 4.667938257983222e+38
2351.3513513513512 4.749890524851481e+38
2361.3613613613616 4.832132483408783e+38
2371.3713713713714 4.914646276670079e+38
2381.3813813813813 4.9974141182872146e+38
2391.391391391391 5.080418299660756e+38
2401.4014014014015 5.163641196748797e+38
2411.4114114114113 5.247065276650591e+38
2421.4214214214217 5.330673104018376e+38
2431.4314314314315 5.414447347331538e+38
2441.4414414414414 5.498370785052705e+38
2451.4514514514512 5.58242631167453e+38
2461.4614614614616 5.666596943658076e+38
2471.4714714714714 5.750865825258473e+38
2481.4814814814818 5.8352162342305406e+38
2491.4914914914916 5.91963158740496e+38
2501.5015015015015 6.004095446124958e+38
2511.5115115115113 6.0885915215336556e+38
2521.521521521521 6.173103679702334e+38
2531.5315315315315 6.257615946591269e+38
2541.541541541542 6.342112512835339e+38
2551.5515515515517 6.4265777383481324e+38
2561.5615615615616 6.510996156739051e+38
2571.5715715715714 6.59535247953929e+38
2581.5815815815813 6.679631600233665e+38
2591.5915915915916 6.7638185980958184e+38
2601.6016016016015 6.847898741825895e+38
2611.611611611612 6.931857492989981e+38
2621.6216216216217 7.015680509261656e+38
2631.6316316316315 7.099353647466498e+38
2641.6416416416414 7.182862966431096e+38
2651.6516516516517 7.266194729638407e+38
2661.6616616616616 7.349335407691876e+38
2671.671671671672 7.432271680591078e+38
2681.6816816816818 7.514990439821717e+38
2691.6916916916916 7.597478790263662e+38
2701.7017017017015 7.679724051920163e+38
2711.711711711712 7.761713761472083e+38
2721.7217217217217 7.843435673661183e+38
2731.731731731732 7.924877762506099e+38
2741.741741741742 8.006028222355423e+38
2751.7517517517517 8.086875468781816e+38
2761.7617617617616 8.167408139321462e+38
2771.7717717717715 8.247615094063153e+38
2781.781781781782 8.327485416091175e+38
2791.791791791792 8.407008411786437e+38
2801.801801801802 8.486173610989954e+38
2811.811811811812 8.564970767033198e+38
2821.8218218218217 8.643389856639321e+38
2831.8318318318316 8.72142107969982e+38
2841.841841841842 8.799054858930404e+38
2851.851851851852 8.876281839410807e+38
2861.861861861862 8.95309288801215e+38
2871.871871871872 9.029479092716224e+38
2881.881881881882 9.105431761830676e+38
2891.8918918918916 9.180942423104023e+38
2901.901901901902 9.25600282274447e+38
2911.911911911912 9.330604924346255e+38
2921.921921921922 9.404740907727518e+38
2931.931931931932 9.478403167683279e+38
2941.941941941942 9.551584312657155e+38
2951.9519519519517 9.624277163335489e+38
2961.961961961962 9.696474751167386e+38
2971.971971971972 9.76817031681402e+38
2981.9819819819822 9.839357308530814e+38
2991.991991991992 9.910029380485425e+38
3002.002002002002 9.980180391015164e+38
3012.012012012012 1.0049804400826669e+39
3022.0220220220217 1.011889567114114e+39
3032.032032032032 1.0187480765552091e+39
3042.0420420420423 1.0255486411008337e+39
3052.052052052052 1.0322942046529912e+39
3062.062062062062 1.0389842994571398e+39
3072.072072072072 1.0456184738034643e+39
3082.0820820820823 1.0521962920465307e+39
3092.092092092092 1.0587173346073011e+39
3102.102102102102 1.0651811979584657e+39
3112.1121121121123 1.0715874945939906e+39
3122.122122122122 1.077935852983777e+39
3132.132132132132 1.0842259175142986e+39
3142.1421421421423 1.090457348416001e+39
3152.152152152152 1.0966298216782691e+39
3162.162162162162 1.1027430289527452e+39
3172.1721721721724 1.1087966774456728e+39
3182.1821821821823 1.1147904898000231e+39
3192.192192192192 1.1207242039680271e+39
3202.202202202202 1.1265975730747851e+39
3212.2122122122123 1.1324103652735772e+39
3222.222222222222 1.1381623635934208e+39
3232.232232232232 1.1438533657795068e+39
3242.2422422422424 1.1494831841270007e+39
3252.252252252252 1.1550516453087512e+39
3262.262262262262 1.1605585901973989e+39
3272.2722722722724 1.1660038736823585e+39
3282.2822822822823 1.171387364482115e+39
3292.292292292292 1.1767089449522786e+39
3302.3023023023025 1.1819685108897991e+39
3312.3123123123123 1.1871659713337344e+39
3322.322322322322 1.1923012483629401e+39
3332.3323323323325 1.1973742768910439e+39
3342.3423423423424 1.2023850044590275e+39
3352.352352352352 1.2073333910257529e+39
3362.3623623623625 1.2122194087567252e+39
3372.3723723723724 1.2170430418113747e+39
3382.3823823823823 1.221804286129152e+39
3392.3923923923926 1.2265031492146711e+39
3402.4024024024025 1.2311396499221676e+39
3412.4124124124123 1.2357138182394863e+39
3422.4224224224226 1.2402256950718279e+39
3432.4324324324325 1.2446753320254562e+39
3442.4424424424424 1.2490627911915686e+39
3452.4524524524522 1.2533881449304985e+39
3462.4624624624626 1.2576514756564487e+39
3472.4724724724724 1.2618528756228903e+39
3482.4824824824823 1.2659924467088001e+39
3492.4924924924926 1.2700703002058675e+39
3502.5025025025025 1.2740865566068209e+39
3512.5125125125123 1.2780413453949886e+39
3522.5225225225226 1.2819348048352046e+39
3532.5325325325325 1.2857670817661914e+39
3542.5425425425424 1.289538331394499e+39
3552.5525525525527 1.2932487170901163e+39
3562.5625625625626 1.2968984101838291e+39
3572.5725725725724 1.3004875897664057e+39
3582.5825825825827 1.3040164424896959e+39
3592.5925925925926 1.3074851623697093e+39
3602.6026026026025 1.3108939505917303e+39
3612.612612612613 1.3142430153175415e+39
3622.6226226226227 1.317532571494791e+39
3632.6326326326325 1.3207628406685748e+39
3642.642642642643 1.323934050795254e+39
3652.6526526526527 1.3270464360585746e+39
3662.6626626626626 1.3301002366880846e+39
3672.672672672673 1.3330956987799379e+39
3682.6826826826828 1.3360330741200493e+39
3692.6926926926926 1.3389126200096754e+39
3702.7027027027025 1.3417345990934115e+39
3712.712712712713 1.3444992791896373e+39
3722.7227227227227 1.3472069331234235e+39
3732.7327327327325 1.3498578385618964e+39
3742.742742742743 1.3524522778521042e+39
3752.7527527527527 1.3549905378613474e+39
3762.7627627627626 1.3574729098200118e+39
3772.772772772773 1.3598996891668897e+39
3782.7827827827828 1.3622711753969925e+39
3792.7927927927926 1.3645876719118493e+39
3802.802802802803 1.366849485872303e+39
3812.812812812813 1.3690569280537672e+39
3822.8228228228227 1.3712103127039603e+39
3832.832832832833 1.3733099574031135e+39
3842.842842842843 1.3753561829266094e+39
3852.8528528528527 1.377349313110075e+39
3862.862862862863 1.379289674716889e+39
3872.872872872873 1.3811775973081086e+39
3882.8828828828828 1.38301341311478e+39
3892.892892892893 1.3847974569126424e+39
3902.902902902903 1.3865300658991724e+39
3912.912912912913 1.3882115795729846e+39
3922.922922922923 1.3898423396155512e+39
3932.932932932933 1.391422689775213e+39
3942.942942942943 1.3929529757534827e+39
3952.9529529529527 1.3944335450936052e+39
3962.962962962963 1.3958647470713405e+39
3972.972972972973 1.3972469325879836e+39
3982.982982982983 1.3985804540655546e+39
3992.992992992993 1.3998656653441598e+39
4003.003003003003 1.4011029215815044e+39
4013.013013013013 1.4022925791545104e+39
4023.023023023023 1.4034349955630372e+39
4033.033033033033 1.4045305293356655e+39
4043.043043043043 1.405579539937521e+39
4053.053053053053 1.4065823876801225e+39
4063.063063063063 1.4075394336332178e+39
4073.073073073073 1.4084510395385755e+39
4083.0830830830832 1.4093175677257368e+39
4093.093093093093 1.4101393810296604e+39
4103.103103103103 1.410916842710263e+39
4113.113113113113 1.4116503163738258e+39
4123.123123123123 1.4123401658962215e+39
4133.133133133133 1.4129867553479656e+39
4143.143143143143 1.4135904489210324e+39
4153.153153153153 1.4141516108574472e+39
4163.163163163163 1.41467060537959e+39
4173.173173173173 1.4151477966222138e+39
4183.183183183183 1.4155835485661375e+39
4193.193193193193 1.4159782249735867e+39
4203.203203203203 1.4163321893251647e+39
4213.213213213214 1.4166458047584306e+39
4223.223223223224 1.416919434008034e+39
4233.2332332332335 1.4171534393474193e+39
4243.243243243243 1.4173481825320487e+39
4253.253253253253 1.4175040247441073e+39
4263.263263263263 1.417621326538712e+39
4273.273273273273 1.4177004477915507e+39
4283.283283283283 1.4177417476479518e+39
4293.293293293293 1.4177455844733598e+39
4303.303303303303 1.4177123158051794e+39
4313.313313313313 1.4176422983059818e+39
4323.323323323323 1.4175358877180352e+39
4333.333333333334 1.4173934388191514e+39
4343.343343343344 1.417215305379799e+39
4353.353353353354 1.4170018401214964e+39
4363.3633633633635 1.4167533946764276e+39
4373.373373373373 1.4164703195482908e+39
4383.383383383383 1.416152964074315e+39
4393.393393393393 1.41580167638848e+39
4403.403403403403 1.4154168033858582e+39
4413.413413413413 1.4149986906881022e+39
4423.423423423424 1.4145476826100362e+39
4433.4334334334335 1.4140641221273307e+39
4443.443443443443 1.4135483508452464e+39
4453.453453453454 1.413000708968419e+39
4463.463463463464 1.4124215352716842e+39
4473.473473473474 1.4118111670718853e+39
4483.483483483484 1.411169940200688e+39
4493.493493493494 1.4104981889783512e+39
4503.503503503503 1.4097962461884448e+39
4513.513513513513 1.409064443053509e+39
4523.523523523523 1.408303109211601e+39
4533.533533533533 1.407512572693762e+39
4543.543543543543 1.4066931599023352e+39
4553.553553553554 1.4058451955901475e+39
4563.563563563564 1.404969002840542e+39
4573.573573573573 1.404064903048208e+39
4583.583583583584 1.4031332159008364e+39
4593.593593593594 1.4021742593615566e+39
4603.603603603604 1.4011883496521363e+39
4613.613613613614 1.400175801236952e+39
4623.623623623624 1.3991369268076835e+39
4633.6336336336335 1.3980720372687352e+39
4643.643643643643 1.396981441723378e+39
4653.653653653653 1.395865447460559e+39
4663.663663663663 1.3947243599424156e+39
4673.673673673674 1.3935584827924247e+39
4683.683683683684 1.3923681177842248e+39
4693.693693693694 1.3911535648310542e+39
4703.703703703704 1.389915121975816e+39
4713.713713713714 1.3886530853817478e+39
4723.723723723724 1.387367749323679e+39
4733.733733733734 1.3860594061798713e+39
4743.743743743744 1.3847283464244223e+39
4753.753753753754 1.3833748586202186e+39
4763.763763763764 1.3819992294124366e+39
4773.773773773773 1.3806017435225555e+39
4783.783783783783 1.3791826837428986e+39
4793.793793793793 1.37774233093167e+39
4803.803803803804 1.3762809640084753e+39
4813.813813813814 1.3747988599503402e+39
4823.823823823824 1.3732962937881714e+39
4833.833833833834 1.3717735386036904e+39
4843.843843843844 1.370230865526806e+39
4853.853853853854 1.3686685437334158e+39
4863.863863863864 1.3670868404436402e+39
4873.873873873874 1.3654860209204582e+39
4883.883883883884 1.36386634846875e+39
4893.893893893894 1.3622280844347316e+39
4903.9039039039035 1.3605714882057701e+39
4913.913913913913 1.3588968172105661e+39
4923.923923923924 1.3572043269197061e+39
4933.933933933934 1.3554942708465603e+39
4943.943943943944 1.3537669005485283e+39
4953.953953953955 1.3520224656286107e+39
4963.9639639639645 1.3502612137373221e+39
4973.973973973974 1.3484833905748996e+39
4983.983983983984 1.346689239893837e+39
4993.993993993994 1.3448790035017054e+39
5004.004004004004 1.3430529212642676e+39
5014.014014014014 1.3412112311088859e+39
5024.024024024024 1.3393541690281858e+39
5034.0340340340335 1.337481969084e+39
5044.044044044043 1.3355948634115686e+39
5054.054054054054 1.3336930822239886e+39
5064.064064064064 1.3317768538169091e+39
5074.074074074074 1.3298464045734653e+39
5084.084084084085 1.3279019589694321e+39
5094.0940940940945 1.3259437395786184e+39
5104.104104104104 1.3239719670784607e+39
5114.114114114114 1.3219868602558357e+39
5124.124124124124 1.3199886360130702e+39
5134.134134134134 1.3179775093741474e+39
5144.144144144144 1.3159536934911111e+39
5154.154154154154 1.3139173996506403e+39
5164.1641641641645 1.3118688372808126e+39
5174.174174174174 1.3098082139580362e+39
5184.184184184184 1.3077357354141449e+39
5194.194194194194 1.3056516055436502e+39
5204.204204204204 1.3035560264111645e+39
5214.214214214214 1.3014491982589522e+39
5224.224224224225 1.2993313195146364e+39
5234.2342342342345 1.2972025867990479e+39
5244.244244244244 1.2950631949341914e+39
5254.254254254254 1.292913336951363e+39
5264.264264264264 1.2907532040993654e+39
5274.274274274274 1.2885829858528683e+39
5284.284284284285 1.2864028699208577e+39
5294.294294294295 1.284213042255218e+39
5304.304304304304 1.282013687059398e+39
5314.314314314314 1.2798049867971947e+39
5324.324324324324 1.2775871222016175e+39
5334.334334334334 1.2753602722838624e+39
5344.344344344345 1.2731246143423549e+39
5354.354354354355 1.2708803239718924e+39
5364.3643643643645 1.2686275750728554e+39
5374.374374374374 1.2663665398605048e+39
5384.384384384384 1.264097388874341e+39
5394.394394394394 1.2618202909875411e+39
5404.404404404404 1.2595354134164522e+39
5414.414414414415 1.2572429217301538e+39
5424.424424424425 1.2549429798600787e+39
5434.4344344344345 1.252635750109677e+39
5444.444444444444 1.2503213931641436e+39
5454.454454454454 1.2480000681001948e+39
5464.464464464464 1.2456719323958776e+39
5474.474474474475 1.2433371419404359e+39
5484.484484484485 1.240995851044201e+39
5494.494494494495 1.2386482124485336e+39
5504.504504504504 1.2362943773357876e+39
5514.514514514514 1.23393449533931e+39
5524.524524524524 1.2315687145534648e+39
5534.534534534535 1.229197181543689e+39
5544.544544544545 1.2268200413565646e+39
5554.554554554555 1.2244374375299115e+39
5564.5645645645645 1.222049512102904e+39
5574.574574574574 1.2196564056261944e+39
5584.584584584584 1.2172582571720591e+39
5594.594594594595 1.2148552043445425e+39
5604.604604604605 1.2124473832896272e+39
5614.614614614615 1.2100349287053934e+39
5624.624624624625 1.2076179738521916e+39
5634.6346346346345 1.2051966505628204e+39
5644.644644644644 1.2027710892526949e+39
5654.654654654654 1.200341418930025e+39
5664.664664664665 1.1979077672059766e+39
5674.674674674675 1.1954702603048456e+39
5684.684684684685 1.1930290230742073e+39
5694.694694694695 1.190584178995066e+39
5704.704704704704 1.1881358501919947e+39
5714.714714714714 1.1856841574432608e+39
5724.724724724725 1.183229220190935e+39
5734.734734734735 1.1807711565509926e+39
5744.744744744745 1.1783100833233917e+39
5754.754754754755 1.1758461160021341e+39
5764.764764764765 1.17337936878531e+39
5774.774774774774 1.1709099545851201e+39
5784.784784784785 1.168437985037874e+39
5794.794794794795 1.1659635705139667e+39
5804.804804804805 1.16348682012783e+39
5814.814814814815 1.161007841747858e+39
5824.824824824825 1.1585267420063064e+39
5834.8348348348345 1.1560436263091576e+39
5844.844844844845 1.1535585988459725e+39
5854.854854854855 1.1510717625996882e+39
5864.864864864865 1.1485832193564023e+39
5874.874874874875 1.1460930697151226e+39
