#lamb flux
1000.0 1.8777292426703578
1010.01001001001 1.8857532022947323
1020.0200200200201 1.8926455222598326
1030.03003003003 1.898446122477493
1040.0400400400401 1.9031947560901545
1050.05005005005 1.906930887055811
1060.06006006006 1.9096935825237997
1070.07007007007 1.9115214187705556
1080.08008008008 1.9124523995376457
1090.0900900900901 1.912523885686726
1100.1001001001 1.9117725351573562
1110.11011011011 1.9102342522828253
1120.1201201201202 1.907944145586005
1130.13013013013 1.9049364932413944
1140.1401401401401 1.9012447154505356
1150.1501501501502 1.8969013530361334
1160.16016016016 1.8919380516148887
1170.1701701701702 1.8863855507607148
1180.1801801801803 1.8802736776184545
1190.1901901901902 1.8736313444733945
1200.2002002002002 1.8664865498242653
1210.2102102102103 1.8588663825466365
1220.2202202202202 1.850797028770243
1230.2302302302303 1.842303781127536
1240.2402402402402 1.8334110500621892
1250.2502502502502 1.8241387572036138
1260.2602602602603 1.8144989555023383
1270.2702702702702 1.804494691669405
1280.2802802802803 1.7941484493050417
1290.2902902902902 1.7834819041125214
1300.3003003003003 1.772515937163683
1310.3103103103103 1.7612706493126509
1320.3203203203202 1.7497653765810428
1330.3303303303303 1.7380187063543293
1340.3403403403404 1.7260484942438743
1350.3503503503503 1.7138718814831488
1360.3603603603603 1.7015053127393938
1370.3703703703704 1.688964554233775
1380.3803803803803 1.6762647120740073
1390.3903903903904 1.6634202507133486
1400.4004004004005 1.6504450114590545
1410.4104104104103 1.6373522309618005
1420.4204204204204 1.6241545596252427
1430.4304304304305 1.610864079881916
1440.4404404404404 1.5974923242881092
1450.4504504504505 1.5840502933961624
1460.4604604604606 1.5705484733679915
1470.4704704704704 1.5569968532984144
1480.4804804804805 1.5434049422213196
1490.4904904904906 1.5297817857756055
1500.5005005005005 1.51613598251144
1510.5105105105106 1.50247569982066
1520.5205205205207 1.4888086894779908
1530.5305305305305 1.4751423027824362
1540.5405405405404 1.461483505290564
1550.5505505505505 1.4478388911355038
1560.5605605605606 1.4342146969274256
1570.5705705705705 1.4206168152329903
1580.5805805805805 1.4070508076328223
1590.5905905905906 1.3935219173574853
1600.6006006006005 1.3800350815037683
1610.6106106106106 1.366594942834301
1620.6206206206207 1.3532058611646998
1630.6306306306305 1.3398719243435944
1640.6406406406406 1.3265969588320028
1650.6506506506507 1.3133845398897677
1660.6606606606606 1.3002380013780015
1670.6706706706707 1.287160445187943
1680.6806806806808 1.274154750308233
1690.6906906906906 1.261223581544522
1700.7007007007007 1.2483695258466252
1710.7107107107108 1.2355953535743882
1720.7207207207207 1.2229030693394438
1730.7307307307308 1.2102944349119826
1740.7407407407409 1.1977710484344337
1750.7507507507507 1.1853343507234524
1760.7607607607606 1.1729856314649574
1770.770770770771 1.1607260353517188
1780.7807807807808 1.1485565682231476
1790.7907907907907 1.1364781032790767
1800.8008008008007 1.1244913874535403
1810.8108108108108 1.1125970480512055
1820.8208208208207 1.100795599768262
1830.8308308308308 1.089087452241352
1840.8408408408409 1.077472918292276
1850.8508508508507 1.0659522230624636
1860.8608608608608 1.054525514258527
1870.870870870871 1.0431928737573217
1880.8808808808808 1.0319543308433499
1890.890890890891 1.020809877369832
1900.900900900901 1.0097594851423932
1910.9109109109108 0.9988031258146071
1920.920920920921 0.9879407935491685
1930.930930930931 0.977172530626593
1940.940940940941 0.9664984560627968
1950.950950950951 0.9559187971138235
1960.960960960961 0.9454339232870705
1970.970970970971 0.935044382132391
1980.980980980981 0.9247509356484729
1990.9909909909911 0.9145545956157175
2001.001001001001 0.904456655578978
2011.0110110110109 0.8944587165973417
2021.0210210210212 0.8845627033270674
2031.031031031031 0.8747708666107393
2041.0410410410411 0.8650857686388455
2051.051051051051 0.8555102470691415
2061.061061061061 0.8460473553608772
2071.071071071071 0.8367002780843953
2081.081081081081 0.8274722220925753
2091.091091091091 0.8183662870562324
2101.101101101101 0.8093853216962522
2111.1111111111113 0.8005317746886407
2121.121121121121 0.7918075511999096
2131.131131131131 0.7832138868745456
2141.141141141141 0.7747512505220135
2151.151151151151 0.7664192846502524
2161.161161161161 0.7582167895681738
2171.1711711711714 0.7501417525060309
2181.1811811811813 0.7421914187359478
2191.191191191191 0.734362397708699
2201.201201201201 0.7266507943342468
2211.2112112112113 0.7190523540652867
2221.221221221221 0.7115626104531791
2231.2312312312315 0.7041770251317886
2241.2412412412414 0.696891112365243
2251.2512512512512 0.6897005429169836
2261.261261261261 0.6826012246339619
2271.271271271271 0.6755893594633559
2281.2812812812813 0.6686614784305156
2291.2912912912916 0.6618144573324654
2301.3013013013015 0.6550455165673917
2311.3113113113113 0.648352208717453
2321.321321321321 0.6417323973498824
2331.331331331331 0.6351842301218997
2341.3413413413414 0.6287061087756202
2351.3513513513512 0.6222966580732816
2361.3613613613616 0.6159546952087905
2371.3713713713714 0.6096792007740914
2381.3813813813813 0.6034692919751747
2391.391391391391 0.5973241984868012
2401.4014014014015 0.5912432411027929
2411.4114114114113 0.5852258131710963
2421.4214214214217 0.5792713646887455
2431.4314314314315 0.5733793888603191
2441.4414414414414 0.5675494108842226
2451.4514514514512 0.5617809787154753
2461.4614614614616 0.5560736555543875
2471.4714714714714 0.5504270138220304
2481.4814814814818 0.5448406304014165
2491.4914914914916 0.5393140829447407
2501.5015015015015 0.5338469470697064
2511.5115115115113 0.5284387942903769
2521.521521521521 0.5230891905492409
2531.5315315315315 0.5177976952367209
2541.541541541542 0.512563860601924
2551.5515515515517 0.5073872314739438
2561.5615615615616 0.5022673452265488
2571.5715715715714 0.4972037319307504
2581.5815815815813 0.4921959146496631
2591.5915915915916 0.487243409838498
2601.6016016016015 0.48234572781959545
2611.611611611612 0.4775023733083011
2621.6216216216217 0.4727128459704055
2631.6316316316315 0.4679766409958952
2641.6416416416414 0.46329324967711716
2651.6516516516517 0.45866215998215454
2661.6616616616616 0.4540828571164401
2671.671671671672 0.4495548240674216
2681.6816816816818 0.44507754212853534
2691.6916916916916 0.4406504913998965
2701.7017017017015 0.4362731512640341
2711.711711711712 0.4319450008357219
2721.7217217217217 0.4276655193855182
2731.731731731732 0.423434186737063
2741.741741741742 0.41925048363852035
2751.7517517517517 0.4151138921087888
2761.7617617617616 0.4110238957592974
2771.7717717717715 0.4069799800923197
2781.781781781782 0.40298163277682764
2791.791791791792 0.3990283439029621
2801.801801801802 0.39511960621620934
2811.811811811812 0.39125491533238954
2821.8218218218217 0.3874337699345431
2831.8318318318316 0.38365567195278344
2841.841841841842 0.3799201267281472
2851.851851851852 0.37622664316144494
2861.861861861862 0.3725747338480606
2871.871871871872 0.36896391519961663
2881.881881881882 0.36539370755336853
2891.8918918918916 0.3618636352701517
2901.901901901902 0.3583732268216501
2911.911911911912 0.354922014867724
2921.921921921922 0.35150953632447673
2931.931931931932 0.3481353324237118
2941.941941941942 0.3447989487643801
2951.9519519519517 0.34149993535658624
2961.961961961962 0.3382378466586854
2971.971971971972 0.3350122416079636
2981.9819819819822 0.3318226836453674
2991.991991991992 0.3286687407347128
3002.002002002002 0.3255499853767809
3012.012012012012 0.3224659946186736
3022.0220220220217 0.31941635005878394
3032.032032032032 0.3164329062881834
3042.0420420420423 0.31344651958172576
3052.052052052052 0.31049217503357374
3062.062062062062 0.3075697921674139
3072.072072072072 0.30467924750753017
3082.0820820820823 0.3018203799727749
3092.092092092092 0.29899299573569255
3102.102102102102 0.2961968725946475
3112.1121121121123 0.2934317639028713
3122.122122122122 0.29069740209468825
3132.132132132132 0.2879935018457964
3142.1421421421423 0.2853197629013606
3152.152152152152 0.2826758726027906
3162.162162162162 0.2800615081414178
3172.1721721721724 0.27747633856484827
3182.1821821821823 0.2749200265595105
3192.192192192192 0.27239223003086016
3202.202202202202 0.26989260350080213
3212.2122122122123 0.26742079934015384
3222.222222222222 0.26497646885237885
3232.232232232232 0.2625592632233572
3242.2422422422424 0.2601688343506282
3252.252252252252 0.25780483556430944
3262.262262262262 0.2554669222507875
3272.2722722722724 0.2531547523892437
3282.2822822822823 0.2508679870101537
3292.292292292292 0.24860629058404
3302.3023023023025 0.24636933134798297
3312.3123123123123 0.24415678157668616
3322.322322322322 0.24196831780424033
3332.3323323323325 0.2398036210021473
3342.3423423423424 0.2376623767186239
3352.352352352352 0.23554427518371326
3362.3623623623625 0.23344901138429874
3372.3723723723724 0.2313762851126933
3382.3823823823823 0.22932580099212102
3392.3923923923926 0.2272972684820711
3402.4024024024025 0.22529040186619642
3412.4124124124123 0.2233049202251542
3422.4224224224226 0.2213405473965401
3432.4324324324325 0.2193970119238345
3442.4424424424424 0.2174740469960752
3452.4524524524522 0.2155713903797864
3462.4624624624626 0.21368878434452307
3472.4724724724724 0.21182597558323832
3482.4824824824823 0.20998271512854025
3492.4924924924926 0.20815875826578603
3502.5025025025025 0.20635386444384302
3512.5125125125123 0.20456779718424709
3522.5225225225226 0.20280032398939885
3532.5325325325325 0.20105121625035363
3542.5425425425424 0.19932024915468874
3552.5525525525527 0.19760720159486547
3562.5625625625626 0.1959118560774433
3572.5725725725724 0.19423399863345017
3582.5825825825827 0.19257341873016703
3592.5925925925926 0.19092990918454075
3602.6026026026025 0.189303266078402
3612.612612612613 0.18769328867563362
3622.6226226226227 0.18609977934140068
3632.6326326326325 0.1845225434635307
3642.642642642643 0.182961389376111
3652.6526526526527 0.18141612828534417
3662.6626626626626 0.1798865741976877
3672.672672672673 0.17837254385029302
3682.6826826826828 0.176873856643736
3692.6926926926926 0.17539033457702816
3702.7027027027025 0.17392180218488204
3712.712712712713 0.17246808647719944
3722.7227227227227 0.1710290168807432
3732.7327327327325 0.16960442518294197
3742.742742742743 0.16819414547778413
3752.7527527527527 0.16679801411373912
3762.7627627627626 0.16541586964365204
3772.772772772773 0.16404755277654928
3782.7827827827828 0.16269290633129338
3792.7927927927926 0.1613517751920226
3802.802802802803 0.1600240062653113
3812.812812812813 0.1587094484389867
3822.8228228228227 0.15740795254253637
3832.832832832833 0.15611937130904333
3842.842842842843 0.15484355933858424
3852.8528528528527 0.15358037306302927
3862.862862862863 0.1523296707121805
3872.872872872873 0.1510913122811913
3882.8828828828828 0.14986515949920376
3892.892892892893 0.14865107579915374
3902.902902902903 0.1474489262886807
3912.912912912913 0.146258577722094
3922.922922922923 0.14507989847334143
3932.932932932933 0.14391275850993135
3942.942942942943 0.14275702936775847
3952.9529529529527 0.14161258412678818
3962.962962962963 0.1404792973875558
3972.972972972973 0.13935704524843626
3982.982982982983 0.13824570528364494
3992.992992992993 0.13714515652192957
4003.003003003003 0.13605527942591844
4013.013013013013 0.13497595587208605
4023.023023023023 0.13390706913130573
4033.033033033033 0.1328485038499555
4043.043043043043 0.13180014603154688
4053.053053053053 0.1307618830188486
4063.063063063063 0.1297336034764777
4073.073073073073 0.12871519737393095
4083.0830830830832 0.12770655596903432
4093.093093093093 0.12670757179178557
4103.103103103103 0.12571813862856915
4113.113113113113 0.12473815150672282
4123.123123123123 0.12376750667943616
4133.133133133133 0.1228061016109632
4143.143143143143 0.12185383496213248
4153.153153153153 0.12091060657613821
4163.163163163163 0.11997631746459622
4173.173173173173 0.11905086979385346
4183.183183183183 0.11813416687153515
4193.193193193193 0.11722611313331861
4203.203203203203 0.11632661412992179
4213.213213213214 0.11543557651429678
4223.223223223224 0.1145529080290166
4233.2332332332335 0.11367851749384726
4243.243243243243 0.11281231479349556
4253.253253253253 0.1119542108655259
4263.263263263263 0.11110411768843663
4273.273273273273 0.11026194826989108
4283.283283283283 0.10942761663509522
4293.293293293293 0.10860103781531691
4303.303303303303 0.10778212783654118
4313.313313313313 0.10697080370825592
4323.323323323323 0.10616698341236395
4333.333333333334 0.10537058589221689
4343.343343343344 0.10458153104176665
4353.353353353354 0.10379973969483161
4363.3633633633635 0.10302513361447309
4373.373373373373 0.1022576354824803
4383.383383383383 0.10149716888895984
4393.393393393393 0.10074365832202774
4403.403403403403 0.09999702915760242
4413.413413413413 0.09925720764929417
4423.423423423424 0.09852412091839254
4433.4334334334335 0.09779769694394659
4443.443443443443 0.09707786455293896
4453.453453453454 0.09636455341055028
4463.463463463464 0.0956576940105153
4473.473473473474 0.09495721766556538
4483.483483483484 0.09426305649796113
4493.493493493494 0.09357514343011046
4503.503503503503 0.09289341217527299
4513.513513513513 0.09221779722834997
4523.523523523523 0.09154823385675777
4533.533533533533 0.09088465809138647
4543.543543543543 0.09022700671764058
4553.553553553554 0.08957521726656299
4563.563563563564 0.08892922800604137
4573.573573573573 0.0882889779320961
4583.583583583584 0.08765440676024987
4593.593593593594 0.0870254549169784
4603.603603603604 0.08640206353124165
4613.613613613614 0.08578417442609633
4623.623623623624 0.08517173011038748
4633.6336336336335 0.08456467377052114
4643.643643643643 0.08396294926231604
4653.653653653653 0.08336650110293496
4663.663663663663 0.08277527446289551
4673.673673673674 0.08218921515815948
4683.683683683684 0.08160826964230175
4693.693693693694 0.08103238499875687
4703.703703703704 0.08046150893314478
4713.713713713714 0.07989558976567439
4723.723723723724 0.07933457642362494
4733.733733733734 0.07877841843390507
4743.743743743744 0.07822706591568965
4753.753753753754 0.0776804695731335
4763.763763763764 0.07713858068816216
4773.773773773773 0.07660135111333916
4783.783783783783 0.07606873326481
4793.793793793793 0.07554068011532229
4803.803803803804 0.075017145187321
4813.813813813814 0.07449808254612025
4823.823823823824 0.07398344679314964
4833.833833833834 0.07347319305927537
4843.843843843844 0.07296727699819665
4853.853853853854 0.07246565477991523
4863.863863863864 0.07196828308427956
4873.873873873874 0.07147511909460207
4883.883883883884 0.07098612049134938
4893.893893893894 0.07050124544590541
4903.9039039039035 0.0700204526144066
4913.913913913913 0.06954370113164887
4923.923923923924 0.06907095060506586
4933.933933933934 0.06860216110877869
4943.943943943944 0.06813729317771515
4953.953953953955 0.06767630780179988
4963.9639639639645 0.06721916642021362
4973.973973973974 0.06676583091572134
4983.983983983984 0.0663162636090694
4993.993993993994 0.0658704272534503
5004.004004004004 0.06542828502903512
5014.014014014014 0.0649898005375732
5024.024024024024 0.06455493779705761
5034.0340340340335 0.06412366123645767
5044.044044044043 0.06369593569051567
5054.054054054054 0.06327172639460928
5064.064064064064 0.062850998979678
5074.074074074074 0.06243371946721325
5084.084084084085 0.06201985426431161
5094.0940940940945 0.061609370158791026
5104.104104104104 0.061202234314368546
5114.114114114114 0.060798414265899846
5124.124124124124 0.060397877914679494
5134.134134134134 0.06000059352380148
5144.144144144144 0.059606529713579444
5154.154154154154 0.05921565545702614
5164.1641641641645 0.0588279400753911
5174.174174174174 0.05844335323375654
5184.184184184184 0.058061864936690334
5194.194194194194 0.05768344552395568
5204.204204204204 0.05730806566627718
5214.214214214214 0.056935696361162115
5224.224224224225 0.056566308928776614
5234.2342342342345 0.056199875007876585
5244.244244244244 0.05583636655179154
5254.254254254254 0.05547575582446244
5264.264264264264 0.05511801539653118
5274.274274274274 0.05476311814148284
5284.284284284285 0.05441103723183838
5294.294294294295 0.05406174613539885
5304.304304304304 0.053715218611539016
5314.314314314314 0.05337142870755108
5324.324324324324 0.05303035075503691
5334.334334334334 0.05269195936634899
5344.344344344345 0.05235622943107872
5354.354354354355 0.05202313611259239
5364.3643643643645 0.05169265484461322
5374.374374374374 0.051364761327849985
5384.384384384384 0.051039431526670544
5394.394394394394 0.05071664166582072
5404.404404404404 0.05039636822718718
5414.414414414415 0.05007858794660426
5424.424424424425 0.049763277810703915
5434.4344344344345 0.049450415053808316
5444.444444444444 0.049139977154864414
5454.454454454454 0.048831941834420425
5464.464464464464 0.04852628705164293
5474.474474474475 0.04822299100137457
5484.484484484485 0.04792203211123183
5494.494494494495 0.047623389038741956
5504.504504504504 0.047327040668519005
5514.514514514514 0.04703296610947802
5524.524524524524 0.04674114469208738
5534.534534534535 0.04645155596565815
5544.544544544545 0.04616417969567053
5554.554554554555 0.045878995861136355
5564.5645645645645 0.04559598465199779
5574.574574574574 0.04531512646656113
5584.584584584584 0.04503640190896551
5594.594594594595 0.04475979178668592
5604.604604604605 0.04448527710807056
5614.614614614615 0.044212839079910964
5624.624624624625 0.043942459105045566
5634.6346346346345 0.04367411877999586
5644.644644644644 0.04340779989263406
5654.654654654654 0.04314348441988319
5664.664664664665 0.04288115452544748
5674.674674674675 0.04262079255757434
5684.684684684685 0.04236238104684591
5694.694694694695 0.042105902704000955
5704.704704704704 0.04185134041778596
5714.714714714714 0.041598677252835496
5724.724724724725 0.04134789644758087
5734.734734734735 0.04109898141218737
5744.744744744745 0.04085191572651898
5754.754754754755 0.040606683138130706
5764.764764764765 0.04036326756028788
5774.774774774774 0.040121653070012094
5784.784784784785 0.03988182390615338
5794.794794794795 0.039643764467488254
5804.804804804805 0.039407459310843274
5814.814814814815 0.0391728931492437
5824.824824824825 0.038940050850087046
5834.8348348348345 0.03870891743334077
5844.844844844845 0.0384794780697645
5854.854854854855 0.038251718079155395
5864.864864864865 0.038025622928617345
5874.874874874875 0.03780117823085292
5884.884884884885 0.03757836974247826
5894.894894894895 0.03735718336236
5904.9049049049045 0.03713760512997458
5914.914914914915 0.03691962122378904
5924.924924924925 0.036703217959663484
5934.934934934935 0.03648838178927418
5944.944944944945 0.036275099298558086
5954.954954954955 0.036063357206177205
5964.964964964965 0.0358531423620037
5974.974974974975 0.035644441745624485
5984.984984984985 0.03543724246486573
5994.994994994995 0.035231531754336465
6005.005005005005 0.03502729697399128
6015.015015015015 0.03482452560771194
6025.025025025025 0.0346232052619073
6035.035035035035 0.03442332366413149
6045.045045045045 0.034224868661720254
6055.055055055055 0.034027828220444575
6065.065065065065 0.03383219042318217
6075.075075075075 0.03363794346860595
6085.085085085085 0.03344507566988935
6095.0950950950955 0.03325357545342861
6105.105105105105 0.033063431357581316
6115.115115115115 0.032874632031421075
6125.125125125125 0.032687166233508425
6135.135135135135 0.03250102283067728
6145.145145145145 0.03231619079683696
6155.155155155155 0.03213265921178952
6165.1651651651655 0.03195041726006215
6175.175175175175 0.03176945422975444
6185.185185185185 0.031589759511400216
6195.195195195195 0.03141132259684396
6205.205205205205 0.031234133078131266
6215.215215215215 0.031058180646413403
6225.225225225226 0.030883455090865788
6235.235235235235 0.03070994629761983
6245.245245245245 0.030537644248708477
6255.255255255255 0.03036653902102484
6265.265265265265 0.0301966207852938
