#lamb flux
1000.0 5.461819804422737
1010.01001001001 5.644799183091433
1020.0200200200201 5.822371688250103
1030.03003003003 5.994427517420209
1040.0400400400401 6.160896745603355
1050.05005005005 6.321745048568154
1060.06006006006 6.4769696275511865
1070.07007007007 6.6265953664417285
1080.08008008008 6.770671241452273
1090.0900900900901 6.909266994209035
1100.1001001001 7.04247007190115
1110.11011011011 7.170382832376672
1120.1201201201202 7.293120007648849
1130.13013013013 7.41080641597451
1140.1401401401401 7.523574910302889
1150.1501501501502 7.6315645493021025
1160.16016016016 7.734918976207002
1170.1701701701702 7.833784990270408
1180.1801801801803 7.928311295532186
1190.1901901901902 8.018647411855659
1200.2002002002002 8.104942733644188
1210.2102102102103 8.187345722277248
1220.2202202202202 8.266003219046155
1230.2302302302303 8.34105986618153
1240.2402402402402 8.41265762441616
1250.2502502502502 8.480696780526532
1260.2602602602603 8.544593526983766
1270.2702702702702 8.603172541416608
1280.2802802802803 8.656579480557602
1290.2902902902902 8.70496239201081
1300.3003003003003 8.748470919984882
1310.3103103103103 8.78725558863182
1320.3203203203202 8.821467157933382
1330.3303303303303 8.851256047153006
1340.3403403403404 8.876771820989358
1350.3503503503503 8.898162733721307
1360.3603603603603 8.915575326812213
1370.3703703703704 8.929154075638348
1380.3803803803803 8.939041081215638
1390.3903903903904 8.945375803015267
1400.4004004004005 8.948294829178684
1410.4104104104103 8.947931680662336
1420.4204204204204 8.944416646059366
1430.4304304304305 8.93787664405767
1440.4404404404404 8.92843511069953
1450.4504504504505 8.916211908805588
1460.4604604604606 8.90132325711572
1470.4704704704704 8.88388167687907
1480.4804804804805 8.863995953796545
1490.4904904904906 8.841771113380071
1500.5005005005005 8.817308407944287
1510.5105105105106 8.79070531358916
1520.5205205205207 8.762055535664997
1530.5305305305305 8.731449021336525
1540.5405405405404 8.698971977980102
1550.5505505505505 8.664706896258194
1560.5605605605606 8.628732576819289
1570.5705705705705 8.591124159670471
1580.5805805805805 8.55195315536449
1590.5905905905906 8.511287477235394
1600.6006006006005 8.469191474007403
1610.6106106106106 8.42572596219351
1620.6206206206207 8.380948257793607
1630.6306306306305 8.334912206901434
1640.6406406406406 8.287668214935767
1650.6506506506507 8.239263274329433
1660.6606606606606 8.189740990642115
1670.6706706706707 8.13914160721557
1680.6806806806808 8.08750202866729
1690.6906906906906 8.0348558437281
1700.7007007007007 7.9812449450267735
1710.7107107107108 7.926742781262908
1720.7207207207207 7.871367618288057
1730.7307307307308 7.815128861433925
1740.7407407407409 7.758033618291698
1750.7507507507507 7.700086700898918
1760.7607607607606 7.641290643239396
1770.770770770771 7.581645738616499
1780.7807807807808 7.521150102474452
1790.7907907907907 7.4597997674313286
1800.8008008008007 7.397588818667677
1810.8108108108108 7.334509579397197
1820.8208208208207 7.270552857932885
1830.8308308308308 7.205708269841262
1840.8408408408409 7.139964650813213
1850.8508508508507 7.073310578106126
1860.8608608608608 7.005735020613729
1870.870870870871 6.937228139622564
1880.8808808808808 6.867782263858789
1890.890890890891 6.7973930631553
1900.900900900901 6.726060944490641
1910.9109109109108 6.653792691637938
1920.920920920921 6.580603364434881
1930.930930930931 6.506518464824246
1940.940940940941 6.431576363305062
1950.950950950951 6.355830960259308
1960.960960960961 6.279354530916839
1970.970970970971 6.202240670024407
1980.980980980981 6.124607212846927
1990.9909909909911 6.046598964323004
2001.001001001001 5.9683900209438665
2011.0110110110109 5.890185425061756
2021.0210210210212 5.812221855785065
2031.031031031031 5.734767043185989
2041.0410410410411 5.658117603146249
2051.051051051051 5.582595038352377
2061.061061061061 5.5085397437636825
2071.071071071071 5.436302994242141
2081.081081081081 5.366237072258461
2091.091091091091 5.298683899722807
2101.101101101101 5.23396274593077
2111.1111111111113 5.17235776260404
2121.121121121121 5.114106214571503
2131.131131131131 5.059388303281639
2141.141141141141 5.008319404400851
2151.151151151151 4.960945361490736
2161.161161161161 4.917241214887429
2171.1711711711714 4.8771134337476845
2181.1811811811813 4.840405403939323
2191.191191191191 4.806905649093443
2201.201201201201 4.776358061963213
2211.2112112112113 4.748473318537427
2221.221221221221 4.722940641165054
2231.2312312312315 4.699439156738265
2241.2412412412414 4.677648238373062
2251.2512512512512 4.6572563958172175
2261.261261261261 4.637968463706033
2271.271271271271 4.61951100561031
2281.2812812812813 4.601635990746409
2291.2912912912916 4.584122902043241
2301.3013013013015 4.566779498307515
2311.3113113113113 4.549441483492187
2321.321321321321 4.531971339222373
2331.331331331331 4.514256560368048
2341.3413413413414 4.496207504832074
2351.3513513513512 4.477755033993625
2361.3613613613616 4.458848084117109
2371.3713713713714 4.439451274753596
2381.3813813813813 4.419542629692118
2391.391391391391 4.399111460313996
2401.4014014014015 4.378156440481907
2411.4114114114113 4.356683886096301
2421.4214214214217 4.33470624063803
2431.4314314314315 4.312240759730246
2441.4414414414414 4.289308382316322
2451.4514514514512 4.265932772830776
2461.4614614614616 4.242139517180997
2471.4714714714714 4.217955454994131
2481.4814814814818 4.193408131042224
2491.4914914914916 4.168525349748276
2501.5015015015015 4.1433348179775775
2511.5115115115113 4.1178638627724915
2521.521521521521 4.092139212182655
2531.5315315315315 4.066186828800511
2541.541541541542 4.040031786986598
2551.5515515515517 4.013698186032064
2561.5615615615616 3.9872090926448505
2571.5715715715714 3.9605865071572244
2581.5815815815813 3.933851348739477
2591.5915915915916 3.907023455675024
2601.6016016016015 3.880121597415436
2611.611611611612 3.8531634957010517
2621.6216216216217 3.826165852514452
2631.6316316316315 3.79914438304089
2641.6416416416414 3.7721138521518065
2651.6516516516517 3.745088113213381
2661.6616616616616 3.718080148260515
2671.671671671672 3.6911021087739635
2681.6816816816818 3.664165356461699
2691.6916916916916 3.637280503579648
2701.7017017017015 3.6104574524369393
2711.711711711712 3.5837054338203482
2721.7217217217217 3.5570330441453284
2731.731731731732 3.530448281199627
2741.741741741742 3.503958578392528
2751.7517517517517 3.477570837460068
2761.7617617617616 3.4512914596062694
2771.7717717717715 3.4251263750832455
2781.781781781782 3.3990810712309742
2791.791791791792 3.3731606190108927
2801.801801801802 3.3473696980774084
2811.811811811812 3.321712620438627
2821.8218218218217 3.296193352762405
2831.8318318318316 3.2708155373869774
2841.841841841842 3.2455825120969863
2851.851851851852 3.220497328726346
2861.861861861862 3.195562770648955
2871.871871871872 3.1707813692173183
2881.881881881882 3.1461554192076404
2891.8918918918916 3.12168699332805
2901.901901901902 3.0973779558444763
2911.911911911912 3.07322997537648
2921.921921921922 3.0492445369128407
2931.931931931932 3.0254229530943295
2941.941941941942 3.001766374808588
2951.9519519519517 2.9782758011396226
2961.961961961962 2.954952088712054
2971.971971971972 2.9317959604679
2981.9819819819822 2.908808013911502
2991.991991991992 2.8859887288559767
3002.002002002002 2.863338474702612
3012.012012012012 2.840857517282613
3022.0220220220217 2.818546025288772
3032.032032032032 2.8004502267343354
3042.0420420420423 2.7779567644700704
3052.052052052052 2.755495714537988
3062.062062062062 2.7331066836218816
3072.072072072072 2.7108234469299455
3082.0820820820823 2.6886745810420045
3092.092092092092 2.6666840408735126
3102.102102102102 2.644871684240408
3112.1121121121123 2.6232537475699615
3122.122122122122 2.601843276284268
3132.132132132132 2.5806505133055917
3142.1421421421423 2.559683249012581
3152.152152152152 2.5389471358263616
3162.162162162162 2.518445970436263
3172.1721721721724 2.4981819464942214
3182.1821821821823 2.47815588042124
3192.192192192192 2.4583674127832262
3202.202202202202 2.4388151875107305
3212.2122122122123 2.419497011060065
3222.222222222222 2.4004099934437515
3232.232232232232 2.3815506728975584
3242.2422422422424 2.362915125800108
3252.252252252252 2.344499063319486
3262.262262262262 2.326297916129741
3272.2722722722724 2.308306908418225
3282.2822822822823 2.2905211222922848
3292.292292292292 2.2729355535903943
3302.3023023023025 2.255545160008014
3312.3123123123123 2.238344902361696
3322.322322322322 2.2213297797357874
3332.3323323323325 2.2044948591838947
3342.3423423423424 2.187835300591667
3352.352352352352 2.1713463772477035
3362.3623623623625 2.1550234926153387
3372.3723723723724 2.1388621937488907
3382.3823823823823 2.1228581817534327
3392.3923923923926 2.107007319646969
3402.4024024024025 2.0913056379473036
3412.4124124124123 2.075749338273006
3422.4224224224226 2.0603347952180213
3432.4324324324325 2.0450585567325312
3442.4424424424424 2.0299173432183015
3452.4524524524522 2.0149080455247814
3462.4624624624626 2.000027722012317
3472.4724724724724 1.9852735948309317
3482.4824824824823 1.9706430455468709
3492.4924924924926 1.9561336102345561
3502.5025025025025 1.9417429741383203
3512.5125125125123 1.9274689659964392
3522.5225225225226 1.9133095521092078
3532.5325325325325 1.8992628302231152
3542.5425425425424 1.88532702329446
3552.5525525525527 1.8715004731878528
3562.5625625625626 1.8577816343579925
3572.5725725725724 1.8441690675566782
3582.5825825825827 1.8306614336013565
3592.5925925925926 1.8172574872362603
3602.6026026026025 1.8039560711126286
3612.612612612613 1.7907561099103368
3622.6226226226227 1.777656604619511
3632.6326326326325 1.764656626997427
3642.642642642643 1.7517553142129993
3652.6526526526527 1.7389518636885242
3662.6626626626626 1.726245528145968
3672.672672672673 1.713635610863078
3682.6826826826828 1.7011214611426575
3692.6926926926926 1.688702469996788
3702.7027027027025 1.6763780660463217
3712.712712712713 1.6641477116347325
3722.7227227227227 1.6520108991543538
3732.7327327327325 1.6399671475820117
3742.742742742743 1.6280159992203815
3752.7527527527527 1.6161570166405952
3762.7627627627626 1.6043897798211186
3772.772772772773 1.5927138834774277
3782.7827827827828 1.5811289345765962
3792.7927927927926 1.5696345500306217
3802.802802802803 1.5582303545620766
3812.812812812813 1.5469159787354496
3822.8228228228227 1.5356910571474824
3832.832832832833 1.52455522676968
3842.842842842843 1.51350812543616
3852.8528528528527 1.5025493904700384
3862.862862862863 1.4916786574415428
3872.872872872873 1.4808955590511697
3882.8828828828828 1.4701997241312479
3892.892892892893 1.4595907767594531
3902.902902902903 1.4490683354778886
3912.912912912913 1.43863201261155
3922.922922922923 1.4282814136801434
3932.932932932933 1.4180161368974218
3942.942942942943 1.40783577275234
3952.9529529529527 1.3977399036666038
3962.962962962963 1.3877281037233202
3972.972972972973 1.3777999384616872
3982.982982982983 1.3679549647328677
3992.992992992993 1.358192730612383
4003.003003003003 1.3485127753645967
4013.013013013013 1.3389146294550132
4023.023023023023 1.3293978146063752
4033.033033033033 1.319961843894698
4043.043043043043 1.3106062218815995
4053.053053053053 1.3013304447794654
4063.063063063063 1.2921340006461812
4073.073073073073 1.2830163696063401
4083.0830830830832 1.2739770240960173
4093.093093093093 1.2650154291283735
4103.103103103103 1.2561310425775027
4113.113113113113 1.2473233154781365
4123.123123123123 1.2385916923389058
4133.133133133133 1.2299356114670887
4143.143143143143 1.2213545053028554
4153.153153153153 1.2128478007611814
4163.163163163163 1.2044149195797227
4173.173173173173 1.196055278671092
4183.183183183183 1.1877682904780589
4193.193193193193 1.1795533633303406
4203.203203203203 1.1714099018017425
4213.213213213214 1.163337307066516
4223.223223223224 1.1553349772538895
4233.2332332332335 1.1474023077998277
4243.243243243243 1.139538691795164
4253.253253253253 1.1317435203293171
4263.263263263263 1.1240161828289028
4273.273273273273 1.116356067390596
4283.283283283283 1.1087625611076957
4293.293293293293 1.1012350503898878
4303.303303303303 1.093772921275768
4313.313313313313 1.0863755597377496
4323.323323323323 1.0790423519790115
4333.333333333334 1.0717726847222273
4343.343343343344 1.064565945489822
4353.353353353354 1.0574215228755686
4363.3633633633635 1.0503388068073736
4373.373373373373 1.0433171888011294
4383.383383383383 1.036356062205552
4393.393393393393 1.029454822437946
4403.403403403403 1.0226128672108767
4413.413413413413 1.0158295967497415
4423.423423423424 1.0091044140012806
4433.4334334334335 1.002436724833054
4443.443443443443 0.9958259382239628
4453.453453453454 0.989271466445898
4463.463463463464 0.982772725236617
4473.473473473474 0.9763291339639483
4483.483483483484 0.9699401157814802
4493.493493493494 0.9636050977758464
4503.503503503503 0.9573235111057712
4513.513513513513 0.9510947911330354
4523.523523523523 0.9449183775455122
4533.533533533533 0.9387937144724798
4543.543543543543 0.9327202505923474
4553.553553553554 0.9266974392330165
4563.563563563564 0.9207247384650447
4573.573573573573 0.9148016111878088
4583.583583583584 0.9089275252088633
4593.593593593594 0.9031019533166877
4603.603603603604 0.8973243733470189
4613.613613613614 0.8915942682429709
4623.623623623624 0.885911126109132
4633.6336336336335 0.880274440259846
4643.643643643643 0.8746837092618654
4653.653653653653 0.8691384369715764
4663.663663663663 0.8636381325669878
4673.673673673674 0.8581823105746772
4683.683683683684 0.8527704908918818
4693.693693693694 0.8474021988039222
4703.703703703704 0.8420769649971412
4713.713713713714 0.8367943255675456
4723.723723723724 0.8315538220253189
4733.733733733734 0.8263550012953855
4743.743743743744 0.8211974157142052
4753.753753753754 0.8160806230229483
4763.763763763764 0.8110041863572349
4773.773773773773 0.8059676742335815
4783.783783783783 0.8009706605327316
4793.793793793793 0.7960127244800014
4803.803803803804 0.7910934506228066
4813.813813813814 0.7862124288055102
4823.823823823824 0.7813692541417284
4833.833833833834 0.7765635269842381
4843.843843843844 0.7717948528926198
4853.853853853854 0.7670628425987567
4863.863863863864 0.7623671119703296
4873.873873873874 0.7577072819724143
4883.883883883884 0.7530829786273153
4893.893893893894 0.7484938329727341
4903.9039039039035 0.7439394810183972
4913.913913913913 0.7394195637012405
4923.923923923924 0.7349337268392544
4933.933933933934 0.7304816210841001
4943.943943943944 0.726062901872573
4953.953953953955 0.7216772293770263
4963.9639639639645 0.7173242684548331
4973.973973973974 0.7130036885969707
4983.983983983984 0.7087151638758193
4993.993993993994 0.7044583728922464
5004.004004004004 0.7002329987220542
5014.014014014014 0.6960387288618696
5024.024024024024 0.691875255174535
5034.0340340340335 0.6877422738340827
5044.044044044043 0.6836394852703421
5054.054054054054 0.6795665941132515
5064.064064064064 0.675523309136932
5074.074074074074 0.671509343203574
5084.084084084085 0.6675244132071955
5094.0940940940945 0.6635682400173276
5104.104104104104 0.6596405484226638
5114.114114114114 0.6557410670747302
5124.124124124124 0.6518695284316187
5134.134134134134 0.6480256687018225
5144.144144144144 0.6442092277882161
5154.154154154154 0.6404199492322181
5164.1641641641645 0.6366575801581713
5174.174174174174 0.632921871217975
5184.184184184184 0.629212576536003
5194.194194194194 0.6255294536543314
5204.204204204204 0.6218722634783175
5214.214214214214 0.6182407702225418
5224.224224224225 0.6146347413571474
5234.2342342342345 0.6110539475546006
5244.244244244244 0.6074981626368899
5254.254254254254 0.6039671635231896
5264.264264264264 0.6004607301780001
5274.274274274274 0.5969786455597956
5284.284284284285 0.5935206955701786
5294.294294294295 0.5900866690035728
5304.304304304304 0.5866763574974567
5314.314314314314 0.5832895554831603
5324.324324324324 0.5799260601372274
5334.334334334334 0.5765856713333638
5344.344344344345 0.5732681915949734
5354.354354354355 0.5699734260482975
5364.3643643643645 0.5667011823761571
5374.374374374374 0.5634512707723169
5384.384384384384 0.560223503896464
5394.394394394394 0.5570176968298179
5404.404404404404 0.5538336670313673
5414.414414414415 0.5506712342947441
5424.424424424425 0.5475302207057366
5434.4344344344345 0.5444104506004376
5444.444444444444 0.541311750524038
5454.454454454454 0.5382339491902646
5464.464464464464 0.5351768774414559
5474.474474474475 0.5321403682092866
5484.484484484485 0.5291242564761314
5494.494494494495 0.5261283792370703
5504.504504504504 0.5231525754625354
5514.514514514514 0.5201966860615925
5524.524524524524 0.5172605538458624
5534.534534534535 0.5143440234940683
5544.544544544545 0.5114469415172185
5554.554554554555 0.5085691562244083
5564.5645645645645 0.5057105176892477
5574.574574574574 0.5028708777169024
5584.584584584584 0.500050089811751
5594.594594594595 0.49724800914564266
5604.604604604605 0.4944644925267663
5614.614614614615 0.491699398369106
5624.624624624625 0.48895258666249447
5634.6346346346345 0.4862239189432491
5644.644644644644 0.483513258265385
5654.654654654654 0.48082046917240484
5664.664664664665 0.4781454176696474
5674.674674674675 0.4754879711972062
5684.684684684685 0.47284799860338894
5694.694694694695 0.47022537011873156
5704.704704704704 0.46761995733054607
5714.714714714714 0.4650316331580025
5724.724724724725 0.462460271827734
5734.734734734735 0.4599057488499595
5744.744744744745 0.457367940995115
5754.754754754755 0.4548467262709883
5764.764764764765 0.4523419839003488
5774.774774774774 0.4498535942990629
5784.784784784785 0.4473814390546902
5794.794794794795 0.44492540090555266
5804.804804804805 0.4424853637202652
5814.814814814815 0.44006121247772617
5824.824824824825 0.4376528332475564
5834.8348348348345 0.4352601131709766
5844.844844844845 0.4328829404421258
5854.854854854855 0.4305212042897972
5864.864864864865 0.4281747949595992
5874.874874874875 0.42584360369652624
5884.884884884885 0.42352752272793087
5894.894894894895 0.4212264452468945
5904.9049049049045 0.41894026539598583
5914.914914914915 0.4166688782514005
5924.924924924925 0.41441217980747547
5934.934934934935 0.41217006696156755
5944.944944944945 0.40994243749929465
5954.954954954955 0.4077291900801262
5964.964964964965 0.40553022422332025
5974.974974974975 0.4033454402941977
5984.984984984985 0.40117473949074783
5994.994994994995 0.39901802383055746
6005.005005005005 0.3968751961380568
6015.015015015015 0.3947461600320769
6025.025025025025 0.39263081991371007
6035.035035035035 0.3905290809544658
6045.045045045045 0.38844084908472065
6055.055055055055 0.3863660309824481
6065.065065065065 0.3843045340622284
6075.075075075075 0.38225626646452965
6085.085085085085 0.3802211370452526
6095.0950950950955 0.37819905536553655
6105.105105105105 0.3761899316818165
6115.115115115115 0.3741936769361273
6125.125125125125 0.37221020274665
6135.135135135135 0.37023942139849364
6145.145145145145 0.3682812458347052
6155.155155155155 0.3663355896475056
6165.1651651651655 0.364402367069743
6175.175175175175 0.3624814929665612
6185.185185185185 0.3605728828272724
6195.195195195195 0.3586764527574379
6205.205205205205 0.35679211947114203
6215.215215215215 0.3549198002834604
6225.225225225226 0.35305941310311634
6235.235235235235 0.35121087642531934
6245.245245245245 0.3493741093247819
6255.255255255255 0.3475490314489104
6265.265265265265 0.34573556301116304
6275.275275275275 0.3439336247845741
6285.285285285286 0.34214313809543756
6295.295295295296 0.340364024817146
6305.305305305305 0.3385962073641802
6315.315315315315 0.3368396086862486
6325.325325325325 0.3350941522625675
6335.335335335335 0.3333597620962814
6345.345345345346 0.3316363627090186
6355.355355355356 0.3299238791355794
6365.3653653653655 0.32822223691875063
6375.375375375375 0.3265313621042451
6385.385385385385 0.3248511812357619
6395.395395395395 0.32318162135016343
6405.405405405405 0.3215226099727683
