#lamb flux
1000.0 3.0392607804943575e+40
1010.01001001001 3.1290347362000627e+40
1020.0200200200201 3.212213624147217e+40
1030.03003003003 3.2889052326189134e+40
1040.0400400400401 3.359268108000245e+40
1050.05005005005 3.423502152623852e+40
1060.06006006006 3.48184003364796e+40
1070.07007007007 3.5345394545173207e+40
1080.08008008008 3.5818763023541442e+40
1090.0900900900901 3.6241386555961747e+40
1100.1001001001 3.6616216150445024e+40
1110.11011011011 3.6946229069094473e+40
1120.1201201201202 3.723439197226217e+40
1130.13013013013 3.748363052047759e+40
1140.1401401401401 3.769680476139747e+40
1150.1501501501502 3.7876689636758235e+40
1160.16016016016 3.8025959969705397e+40
1170.1701701701702 3.81471793303257e+40
1180.1801801801803 3.82427922222498e+40
1190.1901901901902 3.8315119082345633e+40
1200.2002002002002 3.8366353636155607e+40
1210.2102102102103 3.8398562201892107e+40
1220.2202202202202 3.841368458412241e+40
1230.2302302302303 3.841353624381651e+40
1240.2402402402402 3.83998114736215e+40
1250.2502502502502 3.837173841126931e+40
1260.2602602602603 3.8323822142059715e+40
1270.2702702702702 3.8245012683880663e+40
1280.2802802802803 3.8137294435732206e+40
1290.2902902902902 3.800259374567213e+40
1300.3003003003003 3.7842773557299207e+40
1310.3103103103103 3.7659629279964196e+40
1320.3203203203202 3.745488573929534e+40
1330.3303303303303 3.7230195074831836e+40
1340.3403403403404 3.69871354619738e+40
1350.3503503503503 3.672721054584299e+40
1360.3603603603603 3.6451849484806327e+40
1370.3703703703704 3.61624075112086e+40
1380.3803803803803 3.5860166926184555e+40
1390.3903903903904 3.554633845421033e+40
1400.4004004004005 3.522206289126144e+40
1410.4104104104103 3.48884129880544e+40
1420.4204204204204 3.454639551685165e+40
1430.4304304304305 3.419695347671566e+40
1440.4404404404404 3.384096839792682e+40
1450.4504504504505 3.3479262711551466e+40
1460.4604604604606 3.3112602154896714e+40
1470.4704704704704 3.274169818784482e+40
1480.4804804804805 3.2367210398861574e+40
1490.4904904904906 3.1989748882851016e+40
1500.5005005005005 3.16098765760223e+40
1510.5105105105106 3.1228111535576564e+40
1520.5205205205207 3.0844929154345707e+40
1530.5305305305305 3.046076430255428e+40
1540.5405405405404 3.0076013390661526e+40
1550.5505505505505 2.9691036348801854e+40
1560.5605605605606 2.9306158519705836e+40
1570.5705705705705 2.8921672463180714e+40
1580.5805805805805 2.8537839671278805e+40
1590.5905905905906 2.8154892194215013e+40
1600.6006006006005 2.7773034177929257e+40
1610.6106106106106 2.7392443314954017e+40
1620.6206206206207 2.7013272210959525e+40
1630.6306306306305 2.6635649670038113e+40
1640.6406406406406 2.625968190247407e+40
1650.6506506506507 2.58854536594556e+40
1660.6606606606606 2.55130292999429e+40
1670.6706706706707 2.5142453795745425e+40
1680.6806806806808 2.477375368180757e+40
1690.6906906906906 2.4406937959794203e+40
1700.7007007007007 2.4042074972779796e+40
1710.7107107107108 2.367944106060816e+40
1720.7207207207207 2.331895277929828e+40
1730.7307307307308 2.296047774540659e+40
1740.7407407407409 2.26038782918289e+40
1750.7507507507507 2.224901176674354e+40
1760.7607607607606 2.1895730934682786e+40
1770.770770770771 2.1543884504899846e+40
1780.7807807807808 2.1193317816674618e+40
1790.7907907907907 2.0843873716243442e+40
1800.8008008008007 2.0495393665626447e+40
1810.8108108108108 2.014771912969196e+40
1820.8208208208207 1.9800693294202116e+40
1830.8308308308308 1.9454163174087213e+40
1840.8408408408409 1.910798217741941e+40
1850.8508508508507 1.876201319594068e+40
1860.8608608608608 1.8416132296749234e+40
1870.870870870871 1.8070233090776462e+40
1880.8808808808808 1.7724231850556772e+40
1890.890890890891 1.7378073440673513e+40
1900.900900900901 1.7031738106912348e+40
1910.9109109109108 1.668524914193411e+40
1920.920920920921 1.6338681403295075e+40
1930.930930930931 1.599217060094987e+40
1940.940940940941 1.5645923193405086e+40
1950.950950950951 1.5300226632859639e+40
1960.960960960961 1.4955459580221669e+40
1970.970970970971 1.4612101573974504e+40
1980.980980980981 1.4270741489712898e+40
1990.9909909909911 1.3932083982221786e+40
2001.001001001001 1.3596952977578015e+40
2011.0110110110109 1.3266291203054544e+40
2021.0210210210212 1.2941154736001258e+40
2031.031031031031 1.2622701648725082e+40
2041.0410410410411 1.2312174049716442e+40
2051.051051051051 1.201087318615907e+40
2061.061061061061 1.172012777369315e+40
2071.071071071071 1.1441256327453046e+40
2081.081081081081 1.11755249271443e+40
2091.091091091091 1.0924102478666842e+40
2101.101101101101 1.0688016042778264e+40
2111.1111111111113 1.0468109097831141e+40
2121.121121121121 1.0265005620824323e+40
2131.131131131131 1.0079082579356017e+40
2141.141141141141 9.910452844876785e+39
2151.151151151151 9.758959730219658e+39
2161.161161161161 9.624183422649869e+39
2171.1711711711714 9.505458645219556e+39
2181.1811811811813 9.401902046891105e+39
2191.191191191191 9.312447185254909e+39
2201.201201201201 9.23588457903622e+39
2211.2112112112113 9.170904186236677e+39
2221.221221221221 9.116137787440919e+39
2231.2312312312315 9.070199075408432e+39
2241.2412412412414 9.031719708691212e+39
2251.2512512512512 8.999380111285517e+39
2261.261261261261 8.971934329905576e+39
2271.271271271271 8.948228744896117e+39
2281.2812812812813 8.92721483517826e+39
2291.2912912912916 8.907956503324213e+39
2301.3013013013015 8.889632669866733e+39
2311.3113113113113 8.871535953653566e+39
2321.321321321321 8.853068282359604e+39
2331.331331331331 8.833734242815143e+39
2341.3413413413414 8.813132903830233e+39
2351.3513513513512 8.790948742247926e+39
2361.3613613613616 8.76694219059142e+39
2371.3713713713714 8.740940212884868e+39
2381.3813813813813 8.712827211548986e+39
2391.391391391391 8.68253647717844e+39
2401.4014014014015 8.650042316549204e+39
2411.4114114114113 8.615352932654053e+39
2421.4214214214217 8.578504083018035e+39
2431.4314314314315 8.539553507409997e+39
2441.4414414414414 8.498576091435057e+39
2451.4514514514512 8.455659716410719e+39
2461.4614614614616 8.410901736553948e+39
2471.4714714714714 8.364406020209076e+39
2481.4814814814818 8.316280491244183e+39
2491.4914914914916 8.266635108710789e+39
2501.5015015015015 8.215580226508619e+39
2511.5115115115113 8.163225279442868e+39
2521.521521521521 8.109677747201955e+39
2531.5315315315315 8.055042353057004e+39
2541.541541541542 7.999420459243271e+39
2551.5515515515517 7.942909625866173e+39
2561.5615615615616 7.885603304685368e+39
2571.5715715715714 7.827590643220598e+39
2581.5815815815813 7.768956378276957e+39
2591.5915915915916 7.709780801212951e+39
2601.6016016016015 7.650139780093335e+39
2611.611611611612 7.590104826311129e+39
2621.6216216216217 7.529743195363962e+39
2631.6316316316315 7.469118013265006e+39
2641.6416416416414 7.408288421594446e+39
2651.6516516516517 7.347309735486615e+39
2661.6616616616616 7.286233609932883e+39
2671.671671671672 7.225108210688378e+39
2681.6816816816818 7.163978386828233e+39
2691.6916916916916 7.102885842627357e+39
2701.7017017017015 7.041869306957484e+39
2711.711711711712 6.980964698822697e+39
2721.7217217217217 6.920205288004567e+39
2731.731731731732 6.859621850073224e+39
2741.741741741742 6.799242815251765e+39
2751.7517517517517 6.739094410806888e+39
2761.7617617617616 6.679200796787526e+39
2771.7717717717715 6.61958419505019e+39
2781.781781781782 6.560265011602088e+39
2791.791791791792 6.501261952363944e+39
2801.801801801802 6.442592132508214e+39
2811.811811811812 6.384271179568494e+39
2821.8218218218217 6.32631333054447e+39
2831.8318318318316 6.268731523246189e+39
2841.841841841842 6.211537482133761e+39
2851.851851851852 6.154741798914901e+39
2861.861861861862 6.098354008164532e+39
2871.871871871872 6.042382658229007e+39
2881.881881881882 5.986835377673e+39
2891.8918918918916 5.931718937520511e+39
2901.901901901902 5.877039309533456e+39
2911.911911911912 5.822801720762186e+39
2921.921921921922 5.769010704592293e+39
2931.931931931932 5.715670148502034e+39
2941.941941941942 5.662783338733876e+39
2951.9519519519517 5.610353002073429e+39
2961.961961961962 5.558381344918411e+39
2971.971971971972 5.506870089810139e+39
2981.9819819819822 5.455820509590011e+39
2991.991991991992 5.4052334593339886e+39
3002.002002002002 5.3551094062086126e+39
3012.012012012012 5.3054484573835257e+39
3022.0220220220217 5.256250386126849e+39
3032.032032032032 5.223922925354599e+39
3042.0420420420423 5.1735138825135104e+39
3052.052052052052 5.1230174177409e+39
3062.062062062062 5.0725955793319183e+39
3072.072072072072 5.022385907713859e+39
3082.0820820820823 4.9725041379346553e+39
3092.092092092092 4.923046675642331e+39
3102.102102102102 4.87409285445196e+39
3112.1121121121123 4.825706985085871e+39
3122.122122122122 4.777940208279329e+39
3132.132132132132 4.730832164364947e+39
3142.1421421421423 4.684412492845992e+39
3152.152152152152 4.6387021752722153e+39
3162.162162162162 4.593714734448464e+39
3172.1721721721724 4.549457302518748e+39
3182.1821821821823 4.5059315698439305e+39
3192.192192192192 4.463134625880179e+39
3202.202202202202 4.4210597025077845e+39
3212.2122122122123 4.379696829485136e+39
3222.222222222222 4.3390334109325684e+39
3232.232232232232 4.299054731001508e+39
3242.2422422422424 4.25974439616633e+39
3252.252252252252 4.2210847208970226e+39
3262.262262262262 4.183057062834466e+39
3272.2722722722724 4.1456421129988993e+39
3282.2822822822823 4.108820146016371e+39
3292.292292292292 4.0725712348472263e+39
3302.3023023023025 4.036875434043204e+39
3312.3123123123123 4.0017129351434974e+39
3322.322322322322 3.9670641974428883e+39
3332.3323323323325 3.932910057023796e+39
3342.3423423423424 3.899231816636578e+39
3352.352352352352 3.8660113187354024e+39
3362.3623623623625 3.8332310037284193e+39
3372.3723723723724 3.8008739552777895e+39
3382.3823823823823 3.768923934285069e+39
3392.3923923923926 3.7373654030188186e+39
3402.4024024024025 3.706183540680904e+39
3412.4124124124123 3.675364251565128e+39
3422.4224224224226 3.6448941668339044e+39
3432.4324324324325 3.614760640824519e+39
3442.4424424424424 3.5849517426945023e+39
3452.4524524524522 3.555456244124599e+39
3462.4624624624626 3.52626360371641e+39
3472.4724724724724 3.4973639486491476e+39
3482.4824824824823 3.4687480540949125e+39
3492.4924924924926 3.4404073208339795e+39
3502.5025025025025 3.41233375145953e+39
3512.5125125125123 3.384519925514943e+39
3522.5225225225226 3.356958973865221e+39
3532.5325325325325 3.3296445525668606e+39
3542.5425425425424 3.3025708164673224e+39
3552.5525525525527 3.27573239273538e+39
3562.5625625625626 3.24912435449694e+39
3572.5725725725724 3.222742194727047e+39
3582.5825825825827 3.1965818005274105e+39
3592.5925925925926 3.170639427899536e+39
3602.6026026026025 3.1449116771065e+39
3612.612612612613 3.119395468700984e+39
3622.6226226226227 3.0940880202835106e+39
3632.6326326326325 3.0689868240425506e+39
3642.642642642643 3.0440896251173204e+39
3652.6526526526527 3.0193944008142624e+39
3662.6626626626626 2.994899340699631e+39
3672.672672672673 2.970602827582966e+39
3682.6826826826828 2.946503419399413e+39
3692.6926926926926 2.922599831992904e+39
3702.7027027027025 2.89889092279698e+39
3712.712712712713 2.875375675405472e+39
3722.7227227227227 2.852053185021281e+39
3732.7327327327325 2.828922644768006e+39
3742.742742742743 2.805983332846357e+39
3752.7527527527527 2.7832346005146646e+39
3762.7627627627626 2.760675860870796e+39
3772.772772772773 2.738306578411052e+39
3782.7827827827828 2.7161262593401957e+39
3792.7927927927926 2.6941344426056913e+39
3802.802802802803 2.6723306916284372e+39
3812.812812812813 2.6507145867016102e+39
3822.8228228228227 2.6292857180289448e+39
3832.832832832833 2.6080436793735476e+39
3842.842842842843 2.5869880622883428e+39
3852.8528528528527 2.5661184508993826e+39
3862.862862862863 2.5454344172135394e+39
3872.872872872873 2.524935516922468e+39
3882.8828828828828 2.5046212856751932e+39
3892.892892892893 2.4844912357923373e+39
3902.902902902903 2.4645448533955085e+39
3912.912912912913 2.4447815959262124e+39
3922.922922922923 2.4252008900293217e+39
3932.932932932933 2.4058021297770106e+39
3942.942942942943 2.3865846752097997e+39
3952.9529529529527 2.3675478511723136e+39
3962.962962962963 2.348690946422199e+39
3972.972972972973 2.3300132129914826e+39
3982.982982982983 2.3115138657806424e+39
3992.992992992993 2.2931920823664582e+39
4003.003003003003 2.2750470030057173e+39
4013.013013013013 2.2570777308175818e+39
4023.023023023023 2.2392833321284392e+39
4033.033033033033 2.221662836963838e+39
4043.043043043043 2.2042152396729437e+39
4053.053053053053 2.1869394996718222e+39
4063.063063063063 2.169834542292599e+39
4073.073073073073 2.152899259726358e+39
4083.0830830830832 2.136132512048369e+39
4093.093093093093 2.1195331283149792e+39
4103.103103103103 2.10309990772217e+39
4113.113113113113 2.086831620816526e+39
4123.123123123123 2.0707270107498762e+39
4133.133133133133 2.0547847945696488e+39
4143.143143143143 2.039003664537449e+39
4153.153153153153 2.0233822894689792e+39
4163.163163163163 2.007919316088957e+39
4173.173173173173 1.992613370395197e+39
4183.183183183183 1.9774630590265122e+39
4193.193193193193 1.9624669706295116e+39
4203.203203203203 1.9476236772198772e+39
4213.213213213214 1.9329317355340508e+39
4223.223223223224 1.9183896883676605e+39
4233.2332332332335 1.9039960658974082e+39
4243.243243243243 1.8897493869834506e+39
4253.253253253253 1.8756481604496412e+39
4263.263263263263 1.8616908863393043e+39
4273.273273273273 1.8478760571444654e+39
4283.283283283283 1.834202159006775e+39
4293.293293293293 1.8206676728885516e+39
4303.303303303303 1.8072710757126248e+39
4313.313313313313 1.7940108414698834e+39
4323.323323323323 1.7808854422935762e+39
4333.333333333334 1.767893349499662e+39
4343.343343343344 1.7550330345926125e+39
4353.353353353354 1.742302970236254e+39
4363.3633633633635 1.7297016311893694e+39
4373.373373373373 1.717227495205902e+39
4383.383383383383 1.704879043899735e+39
4393.393393393393 1.6926547635741042e+39
4403.403403403403 1.6805531460158218e+39
4413.413413413413 1.6685726892545592e+39
4423.423423423424 1.656711898287523e+39
4433.4334334334335 1.6449692857699332e+39
4443.443443443443 1.6333433726717605e+39
4453.453453453454 1.6218326889012446e+39
4463.463463463464 1.6104357738957942e+39
4473.473473473474 1.5991511771808158e+39
4483.483483483484 1.5879774588972142e+39
4493.493493493494 1.576913190298165e+39
4503.503503503503 1.5659569542159252e+39
4513.513513513513 1.5551073454993984e+39
4523.523523523523 1.5443629714231903e+39
4533.533533533533 1.5337224520689694e+39
4543.543543543543 1.5231844206798534e+39
4553.553553553554 1.5127475239886567e+39
4563.563563563564 1.5024104225207725e+39
4573.573573573573 1.4921717908724772e+39
4583.583583583584 1.4820303179654744e+39
4593.593593593594 1.471984707278457e+39
4603.603603603604 1.462033677056476e+39
4613.613613613614 1.4521759604989152e+39
4623.623623623624 1.4424103059268324e+39
4633.6336336336335 1.4327354769304456e+39
4643.643643643643 1.423150252497521e+39
4653.653653653653 1.4136534271234038e+39
4663.663663663663 1.4042438109034325e+39
4673.673673673674 1.394920229608462e+39
4683.683683683684 1.3856815247441952e+39
4693.693693693694 1.3765265535950197e+39
4703.703703703704 1.3674541892530358e+39
4713.713713713714 1.3584633206329278e+39
4723.723723723724 1.3495528524733416e+39
4733.733733733734 1.3407217053253772e+39
4743.743743743744 1.3319688155288447e+39
4753.753753753754 1.3232931351768515e+39
4763.763763763764 1.3146936320693295e+39
4773.773773773773 1.306169289656042e+39
4783.783783783783 1.2977191069696556e+39
4793.793793793793 1.2893420985493784e+39
4803.803803803804 1.2810372943556974e+39
4813.813813813814 1.2728037396767191e+39
4823.823823823824 1.2646404950265921e+39
4833.833833833834 1.2565466360364797e+39
4843.843843843844 1.2485212533385503e+39
4853.853853853854 1.2405634524434013e+39
4863.863863863864 1.2326723536113658e+39
4873.873873873874 1.2248470917180866e+39
4883.883883883884 1.217086816114775e+39
4893.893893893894 1.2093906904835077e+39
4903.9039039039035 1.2017578926879555e+39
4913.913913913913 1.1941876146198704e+39
4923.923923923924 1.1866790620416866e+39
4933.933933933934 1.1792314544255585e+39
4943.943943943944 1.1718440247891324e+39
4953.953953953955 1.1645160195283771e+39
4963.9639639639645 1.1572466982477459e+39
4973.973973973974 1.15003533358794e+39
4983.983983983984 1.1428812110515598e+39
4993.993993993994 1.1357836288268755e+39
5004.004004004004 1.12874189760997e+39
5014.014014014014 1.121755340425491e+39
5024.024024024024 1.114823292446216e+39
5034.0340340340335 1.1079451008116669e+39
5044.044044044043 1.1011201244459544e+39
5054.054054054054 1.0943477338750567e+39
5064.064064064064 1.0876273110437175e+39
5074.074074074074 1.0809582491321258e+39
5084.084084084085 1.074339952372562e+39
5094.0940940940945 1.0677718358661563e+39
5104.104104104104 1.0612533253999101e+39
5114.114114114114 1.0547838572641318e+39
5124.124124124124 1.0483628780704123e+39
5134.134134134134 1.0419898445702793e+39
5144.144144144144 1.0356642234746366e+39
5154.154154154154 1.0293854912741222e+39
5164.1641641641645 1.0231531340604758e+39
5174.174174174174 1.0169666473490309e+39
5184.184184184184 1.0108255359024188e+39
5194.194194194194 1.0047293135555793e+39
5204.204204204204 9.986775030421641e+38
5214.214214214214 9.926696358224085e+38
5224.224224224225 9.867052519125463e+38
5234.2342342342345 9.807838997158418e+38
5244.244244244244 9.749051358552973e+38
5254.254254254254 9.690685250081024e+38
5264.264264264264 9.632736397418721e+38
5274.274274274274 9.575200603527379e+38
5284.284284284285 9.518073747053262e+38
5294.294294294295 9.461351780746761e+38
5304.304304304304 9.405030729901301e+38
5314.314314314314 9.349106690812437e+38
5324.324324324324 9.293575829257296e+38
5334.334334334334 9.238434378994892e+38
5344.344344344345 9.183678640287307e+38
5354.354354354355 9.129304978442246e+38
5364.3643643643645 9.075309822376912e+38
5374.374374374374 9.021689663203581e+38
5384.384384384384 8.968441052836885e+38
5394.394394394394 8.915560602623021e+38
5404.404404404404 8.863044981990902e+38
5414.414414414415 8.810890917125405e+38
5424.424424424425 8.759095189662716e+38
5434.4344344344345 8.707654635407809e+38
5444.444444444444 8.65656614307408e+38
5454.454454454454 8.605826653045165e+38
5464.464464464464 8.55543315615883e+38
5474.474474474475 8.505382692512995e+38
5484.484484484485 8.455672350293731e+38
5494.494494494495 8.40629926462522e+38
5504.504504504504 8.3572606164416e+38
5514.514514514514 8.3085536313805e+38
5524.524524524524 8.260175578698293e+38
5534.534534534535 8.212123770206787e+38
5544.544544544545 8.16439555923131e+38
5554.554554554555 8.116988339590009e+38
5564.5645645645645 8.069899544594181e+38
5574.574574574574 8.023126646069514e+38
5584.584584584584 7.976667153397986e+38
5594.594594594595 7.930518612580255e+38
5604.604604604605 7.88467860531846e+38
5614.614614614615 7.83914474811894e+38
5624.624624624625 7.793914691414998e+38
5634.6346346346345 7.748986118709263e+38
5644.644644644644 7.704356745735446e+38
5654.654654654654 7.660024319639418e+38
5664.664664664665 7.615986618179088e+38
5674.674674674675 7.572241448943211e+38
5684.684684684685 7.528786648588474e+38
5694.694694694695 7.485620082094955e+38
5704.704704704704 7.442739642039487e+38
5714.714714714714 7.400143247886765e+38
5724.724724724725 7.357828845297916e+38
5734.734734734735 7.315794405456251e+38
5744.744744744745 7.274037924409966e+38
5754.754754754755 7.23255742243148e+38
5764.764764764765 7.191350943393236e+38
5774.774774774774 7.150416554159565e+38
5784.784784784785 7.109752343994458e+38
5794.794794794795 7.069356423984913e+38
5804.804804804805 7.029226926479606e+38
5814.814814814815 6.9893620045426e+38
5824.824824824825 6.949759831421882e+38
5834.8348348348345 6.910418600032326e+38
5844.844844844845 6.871336522452999e+38
5854.854854854855 6.832511829438355e+38
5864.864864864865 6.793942769943161e+38
5874.874874874875 6.7556276106608705e+38
5884.884884884885 6.7175646355751576e+38
5894.894894894895 6.679752145524332e+38
