#lamb flux
1000.0 3.2282817024581814e+39
1010.01001001001 3.3024029044607156e+39
1020.0200200200201 3.3685223210706556e+39
1030.03003003003 3.426934772052518e+39
1040.0400400400401 3.477981329624356e+39
1050.05005005005 3.522037320716155e+39
1060.06006006006 3.559501755313097e+39
1070.07007007007 3.590788165367323e+39
1080.08008008008 3.6163167966410233e+39
1090.0900900900901 3.6365080668792796e+39
1100.1001001001 3.6517771854751706e+39
1110.11011011011 3.662529820046459e+39
1120.1201201201202 3.6691586921143284e+39
1130.13013013013 3.6720409856691566e+39
1140.1401401401401 3.6715364574180913e+39
1150.1501501501502 3.667986144795702e+39
1160.16016016016 3.661711576482062e+39
1170.1701701701702 3.653014399521653e+39
1180.1801801801803 3.642176346655968e+39
1190.1901901901902 3.629459476801312e+39
1200.2002002002002 3.615106630467081e+39
1210.2102102102103 3.599342050154297e+39
1220.2202202202202 3.5823721233067617e+39
1230.2302302302303 3.5643862121664425e+39
1240.2402402402402 3.545557540908113e+39
1250.2502502502502 3.525810531952989e+39
1260.2602602602603 3.5046034872586766e+39
1270.2702702702702 3.480857576060031e+39
1280.2802802802803 3.454791722142422e+39
1290.2902902902902 3.4266146947613416e+39
1300.3003003003003 3.396524919515113e+39
1310.3103103103103 3.3647104058432937e+39
1320.3203203203202 3.331348773444809e+39
1330.3303303303303 3.296607361661116e+39
1340.3403403403404 3.260643407548208e+39
1350.3503503503503 3.223604279949121e+39
1360.3603603603603 3.1856277583636023e+39
1370.3703703703704 3.1468423467867554e+39
1380.3803803803803 3.107367613951338e+39
1390.3903903903904 3.0673145525590434e+39
1400.4004004004005 3.026785951127326e+39
1410.4104104104103 2.985876773014624e+39
1420.4204204204204 2.9446745380235876e+39
1430.4304304304305 2.90325970272561e+39
1440.4404404404404 2.861706036307354e+39
1450.4504504504505 2.820080989317869e+39
1460.4604604604606 2.7784460532005263e+39
1470.4704704704704 2.736857108933733e+39
1480.4804804804805 2.6953647634852208e+39
1490.4904904904906 2.6540146731123682e+39
1500.5005005005005 2.612847852821607e+39
1510.5105105105106 2.5719009715388123e+39
1520.5205205205207 2.5312066327446825e+39
1530.5305305305305 2.490793640498967e+39
1540.5405405405404 2.4506872509195687e+39
1550.5505505505505 2.4109094093004275e+39
1560.5605605605606 2.37147897314955e+39
1570.5705705705705 2.3324119215088194e+39
1580.5805805805805 2.293721550982905e+39
1590.5905905905906 2.255418658958914e+39
1600.6006006006005 2.2175117145435157e+39
1610.6106106106106 2.1800070177827938e+39
1620.6206206206207 2.1429088477640067e+39
1630.6306306306305 2.1062196002303286e+39
1640.6406406406406 2.0699399153712333e+39
1650.6506506506507 2.0340687964851135e+39
1660.6606606606606 1.9986037202486198e+39
1670.6706706706707 1.963540739372065e+39
1680.6806806806808 1.9288745784738436e+39
1690.6906906906906 1.8945987240722604e+39
1700.7007007007007 1.8607118760463565e+39
1710.7107107107108 1.8272302790521124e+39
1720.7207207207207 1.794140183459813e+39
1730.7307307307308 1.761424086932179e+39
1740.7407407407409 1.729064396072993e+39
1750.7507507507507 1.6970434457828794e+39
1760.7607607607606 1.665343527124684e+39
1770.770770770771 1.633946925616719e+39
1780.7807807807808 1.6028359721982454e+39
1790.7907907907907 1.5719931094749094e+39
1800.8008008008007 1.5414009762494438e+39
1810.8108108108108 1.5110425137676606e+39
1820.8208208208207 1.4809010975487748e+39
1830.8308308308308 1.450960699101695e+39
1840.8408408408409 1.4212060822235108e+39
1850.8508508508507 1.3916230388879094e+39
1860.8608608608608 1.3621986698965442e+39
1870.870870870871 1.3329217154011779e+39
1880.8808808808808 1.3037829399992573e+39
1890.890890890891 1.2747755762233549e+39
1900.900900900901 1.2458958287209381e+39
1910.9109109109108 1.2171434390664209e+39
1920.920920920921 1.1885223077609368e+39
1930.930930930931 1.1600411653614938e+39
1940.940940940941 1.1317142786848886e+39
1950.950950950951 1.1035621705844785e+39
1960.960960960961 1.0756123229823767e+39
1970.970970970971 1.0478998229663421e+39
1980.980980980981 1.02046790145006e+39
1990.9909909909911 9.933683041485843e+38
2001.001001001001 9.66661426852426e+38
2011.0110110110109 9.404161429875944e+38
2021.0210210210212 9.147092532551267e+38
2031.031031031031 8.896244967462664e+38
2041.0410410410411 8.652510818792711e+38
2051.051051051051 8.416817244066103e+38
2061.061061061061 8.190102177562034e+38
2071.071071071071 7.973286054517305e+38
2081.081081081081 7.76724071802683e+38
2091.091091091091 7.572757094953751e+38
2101.101101101101 7.390513545763223e+38
2111.1111111111113 7.221046946378426e+38
2121.121121121121 7.06472850754339e+38
2131.131131131131 6.921746068047637e+38
2141.141141141141 6.7920941359781996e+38
2151.151151151151 6.675572351423461e+38
2161.161161161161 6.5717923802333405e+38
2171.1711711711714 6.4801926036838914e+38
2181.1811811811813 6.400059417405841e+38
2191.191191191191 6.330553549572383e+38
2201.201201201201 6.2707395824834776e+38
2211.2112112112113 6.2196168166517496e+38
2221.221221221221 6.176149733374131e+38
2231.2312312312315 6.139296555860873e+38
2241.2412412412414 6.108034737133518e+38
2251.2512512512512 6.081382570393889e+38
2261.261261261261 6.0584164837979256e+38
2271.271271271271 6.038283913971534e+38
2281.2812812812813 6.0202119287578756e+38
2291.2912912912916 6.003511977694827e+38
2301.3013013013015 5.987581286186451e+38
2311.3113113113113 5.971901481338055e+38
2321.321321321321 5.956035054078229e+38
2331.331331331331 5.939620236170779e+38
2341.3413413413414 5.922364815183222e+38
2351.3513513513512 5.9040393375237065e+38
2361.3613613613616 5.884470069389206e+38
2371.3713713713714 5.8635320055884544e+38
2381.3813813813813 5.841142142030228e+38
2391.391391391391 5.817253162401147e+38
2401.4014014014015 5.791847634693052e+38
2411.4114114114113 5.764932769012611e+38
2421.4214214214217 5.736535753903659e+38
2431.4314314314315 5.7066996631220814e+38
2441.4414414414414 5.675479907076672e+38
2451.4514514514512 5.642941191593431e+38
2461.4614614614616 5.6091549399566215e+38
2471.4714714714714 5.574197131155088e+38
2481.4814814814818 5.538146506919222e+38
2491.4914914914916 5.501083101656821e+38
2501.5015015015015 5.4630870521389905e+38
2511.5115115115113 5.42423764725469e+38
2521.521521521521 5.384612581976574e+38
2531.5315315315315 5.3442873835974605e+38
2541.541541541542 5.303334982124692e+38
2551.5515515515517 5.2618254003405946e+38
2561.5615615615616 5.2198255423812895e+38
2571.5715715715714 5.1773990627172735e+38
2581.5815815815813 5.134606300126619e+38
2591.5915915915916 5.091504263640898e+38
2601.6016016016015 5.048146659531092e+38
2611.611611611612 5.0045839502087216e+38
2621.6216216216217 4.960863437471754e+38
2631.6316316316315 4.917029363852498e+38
2641.6416416416414 4.8731230269523244e+38
2651.6516516516517 4.829182902600241e+38
2661.6616616616616 4.785244773473071e+38
2671.671671671672 4.741341860484579e+38
2681.6816816816818 4.697504954808767e+38
2691.6916916916916 4.653762548864848e+38
2701.7017017017015 4.610140964973235e+38
2711.711711711712 4.566664480705244e+38
2721.7217217217217 4.523355450205491e+38
2731.731731731732 4.4802344209741095e+38
2741.741741741742 4.437320245764254e+38
2751.7517517517517 4.394630189385125e+38
2761.7617617617616 4.3521800303082534e+38
2771.7717717717715 4.309984157059181e+38
2781.781781781782 4.268055659442623e+38
2791.791791791792 4.2264064146996045e+38
2801.801801801802 4.185047168732931e+38
2811.811811811812 4.143987612565144e+38
2821.8218218218217 4.103236454212563e+38
2831.8318318318316 4.062801486171831e+38
2841.841841841842 4.022689648723036e+38
2851.851851851852 3.9829070892567954e+38
2861.861861861862 3.9434592178328406e+38
2871.871871871872 3.9043507591752046e+38
2881.881881881882 3.865585801304782e+38
2891.8918918918916 3.8271678410042226e+38
2901.901901901902 3.7890998263032606e+38
2911.911911911912 3.7513841961651124e+38
2921.921921921922 3.714022917546467e+38
2931.931931931932 3.6770175199954e+38
2941.941941941942 3.640369127943114e+38
2951.9519519519517 3.604078490837108e+38
2961.961961961962 3.568146011255159e+38
2971.971971971972 3.532571771131427e+38
2981.9819819819822 3.497355556218295e+38
2991.991991991992 3.462496878900021e+38
3002.002002002002 3.427994999467146e+38
3012.012012012012 3.393848945953736e+38
3022.0220220220217 3.3600575326330578e+38
3032.032032032032 3.337964645206197e+38
3042.0420420420423 3.303395197687198e+38
3052.052052052052 3.26879949917235e+38
3062.062062062062 3.234289204072406e+38
3072.072072072072 3.1999587598969576e+38
3082.0820820820823 3.1658873285729966e+38
3092.092092092092 3.1321405455032847e+38
3102.102102102102 3.0987721217902645e+38
3112.1121121121123 3.0658252969734336e+38
3122.122122122122 3.0333341508743333e+38
3132.132132132132 3.0013247838650385e+38
3142.1421421421423 2.969816375197198e+38
3152.152152152152 2.9388221290496403e+38
3162.162162162162 2.908350117754795e+38
3172.1721721721724 2.878404031311209e+38
3182.1821821821823 2.8489838418323774e+38
3192.192192192192 2.8200863910596515e+38
3202.202202202202 2.7917059085093578e+38
3212.2122122122123 2.7638344672536676e+38
3222.222222222222 2.7364623837680313e+38
3232.232232232232 2.7095785677267878e+38
3242.2422422422424 2.683170827101245e+38
3252.252252252252 2.657226133416158e+38
3262.262262262262 2.6317308515545926e+38
3272.2722722722724 2.606670938068918e+38
3282.2822822822823 2.5820321115574316e+38
3292.292292292292 2.5577999983014836e+38
3302.3023023023025 2.533960256025423e+38
3312.3123123123123 2.5104986783399292e+38
3322.322322322322 2.487401282156239e+38
3332.3323323323325 2.464654380112406e+38
3342.3423423423424 2.4422446398312334e+38
3352.352352352352 2.4201591316303962e+38
3362.3623623623625 2.398385366127094e+38
3372.3723723723724 2.3769113230198968e+38
3382.3823823823823 2.3557254721877674e+38
3392.3923923923926 2.3348167881190583e+38
3402.4024024024025 2.3141747585694533e+38
3412.4124124124123 2.293789388246652e+38
3422.4224224224226 2.273651198229256e+38
3432.4324324324325 2.25375122174687e+38
3442.4424424424424 2.234080996876755e+38
3452.4524524524522 2.2146325566485435e+38
3462.4624624624626 2.1953984169916296e+38
3472.4724724724724 2.1763715629091946e+38
3482.4824824824823 2.157545433217594e+38
3492.4924924924926 2.1389139041496514e+38
3502.5025025025025 2.1204712720843846e+38
3512.5125125125123 2.1022122356337318e+38
3522.5225225225226 2.0841318772882063e+38
3532.5325325325325 2.066225644797863e+38
3542.5425425425424 2.0484893324422013e+38
3552.5525525525527 2.0309190623222315e+38
3562.5625625625626 2.0135112657897277e+38
3572.5725725725724 1.996262665112457e+38
3582.5825825825827 1.9791702554596467e+38
3592.5925925925926 1.9622312872789393e+38
3602.6026026026025 1.9454432491245603e+38
3612.612612612613 1.9288038509860422e+38
3622.6226226226227 1.9123110081576454e+38
3632.6326326326325 1.8959628256804102e+38
3642.642642642643 1.8797575833814894e+38
3652.6526526526527 1.8636937215288988e+38
3662.6626626626626 1.8477698271140813e+38
3672.672672672673 1.831984620769667e+38
3682.6826826826828 1.816336944325247e+38
3692.6926926926926 1.800825749000127e+38
3702.7027027027025 1.78545008422855e+38
3712.712712712713 1.770209087109927e+38
3722.7227227227227 1.755101972474031e+38
3732.7327327327325 1.7401280235488482e+38
3742.742742742743 1.725286583216992e+38
3752.7527527527527 1.710577045844925e+38
3762.7627627627626 1.6959988496679589e+38
3772.772772772773 1.6815514697129512e+38
3782.7827827827828 1.6672344112397454e+38
3792.7927927927926 1.65304720368177e+38
3802.802802802803 1.6389893950657616e+38
3812.812812812813 1.6250605468902341e+38
3822.8228228228227 1.6112602294421736e+38
3832.832832832833 1.5975880175314061e+38
3842.842842842843 1.5840434866221245e+38
3852.8528528528527 1.5706262093412688e+38
3862.862862862863 1.5573357523436821e+38
3872.872872872873 1.5441716735143098e+38
3882.8828828828828 1.53113351948809e+38
3892.892892892893 1.5182208234686753e+38
3902.902902902903 1.5054331033275514e+38
3912.912912912913 1.4927698599657273e+38
3922.922922922923 1.480230575920682e+38
3932.932932932933 1.4678147142019124e+38
3942.942942942943 1.4555217173389366e+38
3952.9529529529527 1.4433510066263419e+38
3962.962962962963 1.4313019815510424e+38
3972.972972972973 1.419374019387545e+38
3982.982982982983 1.4075664749476985e+38
3992.992992992993 1.3958786804720043e+38
4003.003003003003 1.3843099456502467e+38
4013.013013013013 1.3728595577597567e+38
4023.023023023023 1.3615267819103097e+38
4033.033033033033 1.350310861385219e+38
4043.043043043043 1.3392110180687795e+38
4053.053053053053 1.3282264529508153e+38
4063.063063063063 1.317356346699603e+38
4073.073073073073 1.3065998602950179e+38
4083.0830830830832 1.2959561357142536e+38
4093.093093093093 1.2854242966629753e+38
4103.103103103103 1.2750034493452365e+38
4113.113113113113 1.2646926832659903e+38
4123.123123123123 1.2544910720604099e+38
4133.133133133133 1.244397674344727e+38
4143.143143143143 1.234411534583651e+38
4153.153153153153 1.2245316839698412e+38
4163.163163163163 1.2147571413112586e+38
4173.173173173173 1.2050869139225891e+38
4183.183183183183 1.195519998517245e+38
4193.193193193193 1.1860553820967618e+38
4203.203203203203 1.1766920428347093e+38
4213.213213213214 1.167428950952524e+38
4223.223223223224 1.1582650695848904e+38
4233.2332332332335 1.1491993556325905e+38
4243.243243243243 1.1402307606009396e+38
4253.253253253253 1.131358231422148e+38
4263.263263263263 1.12258071126016e+38
4273.273273273273 1.113897140296684e+38
4283.283283283283 1.1053064564973239e+38
4293.293293293293 1.0968075963568767e+38
4303.303303303303 1.0883994956229963e+38
4313.313313313313 1.0800810899975883e+38
4323.323323323323 1.0718513158153979e+38
4333.333333333334 1.0637091106993982e+38
4343.343343343344 1.0556534141926759e+38
4353.353353353354 1.047683168366614e+38
4363.3633633633635 1.0397973184052644e+38
4373.373373373373 1.0319948131658899e+38
4383.383383383383 1.0242746057157111e+38
4393.393393393393 1.0166356538449918e+38
4403.403403403403 1.009076920556626e+38
4413.413413413413 1.0015973745324602e+38
4423.423423423424 9.941959905766468e+37
4433.4334334334335 9.868717500363349e+37
4443.443443443443 9.796236412000733e+37
4453.453453453454 9.724506596743194e+37
4463.463463463464 9.653518087384947e+37
4473.473473473474 9.58326099679006e+37
4483.483483483484 9.513725521027557e+37
4493.493493493494 9.444901942305917e+37
4503.503503503503 9.376780631712337e+37
4513.513513513513 9.309352051761859e+37
4523.523523523523 9.242606758761631e+37
4533.533533533533 9.176535404995881e+37
4543.543543543543 9.11112874073679e+37
4553.553553553554 9.046377616086908e+37
4563.563563563564 8.982272982658572e+37
4573.573573573573 8.918805895095704e+37
4583.583583583584 8.855967512443573e+37
4593.593593593594 8.793749099371857e+37
4603.603603603604 8.732142027256406e+37
4613.613613613614 8.671137775125083e+37
4623.623623623624 8.61072793047279e+37
4633.6336336336335 8.550904189951054e+37
4643.643643643643 8.491658359937135e+37
4653.653653653653 8.432982356987676e+37
4663.663663663663 8.374868208181874e+37
4673.673673673674 8.31730805135894e+37
4683.683683683684 8.260294135254571e+37
4693.693693693694 8.203818819541017e+37
4703.703703703704 8.147874574775274e+37
4713.713713713714 8.092453982259791e+37
4723.723723723724 8.037549733819901e+37
4733.733733733734 7.983154631502168e+37
4743.743743743744 7.929261587197752e+37
4753.753753753754 7.875863622194569e+37
4763.763763763764 7.822953866662219e+37
4773.773773773773 7.770525559073207e+37
4783.783783783783 7.71857204556423e+37
4793.793793793793 7.6670867792407915e+37
4803.803803803804 7.616063319428618e+37
4813.813813813814 7.565495330875126e+37
4823.823823823824 7.515376582903962e+37
4833.833833833834 7.465700948525749e+37
4843.843843843844 7.416462403507893e+37
4853.853853853854 7.367655025406274e+37
4863.863863863864 7.319272992561529e+37
4873.873873873874 7.271310583062506e+37
4883.883883883884 7.223762173679466e+37
4893.893893893894 7.176622238769354e+37
4903.9039039039035 7.129885349155529e+37
4913.913913913913 7.08354617098412e+37
4923.923923923924 7.037599464559185e+37
4933.933933933934 6.992040083158739e+37
4943.943943943944 6.946862971833491e+37
4953.953953953955 6.902063166190369e+37
4963.9639639639645 6.857635791162466e+37
4973.973973973974 6.8135760597671775e+37
4983.983983983984 6.76987927185424e+37
4993.993993993994 6.72654081284515e+37
5004.004004004004 6.683556152465523e+37
5014.014014014014 6.640920843471819e+37
5024.024024024024 6.598630520373767e+37
5034.0340340340335 6.556680898153874e+37
5044.044044044043 6.515067770985121e+37
5054.054054054054 6.473787010948179e+37
5064.064064064064 6.432834566749158e+37
5074.074074074074 6.3922064624389735e+37
5084.084084084085 6.35189879613538e+37
5094.0940940940945 6.3119077387486035e+37
5104.104104104104 6.272229532711442e+37
5114.114114114114 6.232860490714771e+37
5124.124124124124 6.193796994449179e+37
5134.134134134134 6.155035493353584e+37
5144.144144144144 6.116572503371445e+37
5154.154154154154 6.078404605715359e+37
5164.1641641641645 6.040528445640594e+37
5174.174174174174 6.002940731228214e+37
5184.184184184184 5.965638232178309e+37
5194.194194194194 5.928617778613874e+37
5204.204204204204 5.891876259895869e+37
5214.214214214214 5.855410623449826e+37
5224.224224224225 5.819217873604495e+37
5234.2342342342345 5.783295070442913e+37
5244.244244244244 5.747639328666217e+37
5254.254254254254 5.712247816470595e+37
5264.264264264264 5.677117754437615e+37
5274.274274274274 5.642246414438301e+37
5284.284284284285 5.607631118551092e+37
5294.294294294295 5.573269237994037e+37
5304.304304304304 5.539158192071329e+37
5314.314314314314 5.505295447134463e+37
5324.324324324324 5.471678515558064e+37
5334.334334334334 5.438304954730668e+37
5344.344344344345 5.405172366060436e+37
5354.354354354355 5.372278393996044e+37
5364.3643643643645 5.339620725062715e+37
5374.374374374374 5.307197086913559e+37
5384.384384384384 5.27500524739621e+37
5394.394394394394 5.243043013634849e+37
5404.404404404404 5.211308231127593e+37
5414.414414414415 5.179798782859308e+37
5424.424424424425 5.148512588429795e+37
5434.4344344344345 5.117447603197365e+37
5444.444444444444 5.086601817437768e+37
5454.454454454454 5.055973255518447e+37
5464.464464464464 5.025559975088043e+37
5474.474474474475 4.995360066281109e+37
5484.484484484485 4.965371650937962e+37
5494.494494494495 4.935592881839581e+37
5504.504504504504 4.906021941957503e+37
5514.514514514514 4.876657043718539e+37
5524.524524524524 4.84749642828432e+37
5534.534534534535 4.818538364845456e+37
5544.544544544545 4.789781149930257e+37
5554.554554554555 4.76122310672785e+37
5564.5645645645645 4.732862584425603e+37
5574.574574574574 4.7046979575606805e+37
5584.584584584584 4.676727625385619e+37
5594.594594594595 4.648950011247731e+37
5604.604604604605 4.621363561982287e+37
5614.614614614615 4.593966747319165e+37
5624.624624624625 4.5667580593029535e+37
5634.6346346346345 4.539736011726278e+37
5644.644644644644 4.512899139576167e+37
5654.654654654654 4.4862459984933565e+37
5664.664664664665 4.459775164244266e+37
5674.674674674675 4.433485232205591e+37
5684.684684684685 4.407374816861203e+37
5694.694694694695 4.381442551311295e+37
5704.704704704704 4.355687086793515e+37
5714.714714714714 4.330107092215943e+37
5724.724724724725 4.304701253701716e+37
5734.734734734735 4.279468274145125e+37
5744.744744744745 4.254406872778984e+37
5754.754754754755 4.229515784753098e+37
5764.764764764765 4.2047937607236403e+37
5774.774774774774 4.180239566453261e+37
5784.784784784785 4.1558519824217154e+37
5794.794794794795 4.131629803446857e+37
5804.804804804805 4.1075718383157805e+37
5814.814814814815 4.0836769094259465e+37
5824.824824824825 4.0599438524361075e+37
5834.8348348348345 4.0363715159268053e+37
5844.844844844845 4.0129587610703427e+37
5854.854854854855 3.989704461309938e+37
5864.864864864865 3.9666075020479565e+37
5874.874874874875 3.9436667803430274e+37
5884.884884884885 3.9208812046158226e+37
5894.894894894895 3.8982496943633658e+37
