#lamb flux
1000.0 2.8503531251951256e+41
1010.01001001001 2.7882933416984165e+41
1020.0200200200201 2.7275802406209146e+41
1030.03003003003 2.6681985392800566e+41
1040.0400400400401 2.6101315248701628e+41
1050.05005005005 2.553361252010686e+41
1060.06006006006 2.4978687217811867e+41
1070.07007007007 2.443634043788804e+41
1080.08008008008 2.3906365826953793e+41
1090.0900900900901 2.338855090520808e+41
1100.1001001001 2.2882678259358105e+41
1110.11011011011 2.2388526616614644e+41
1120.1201201201202 2.1905871810035026e+41
1130.13013013013 2.1434487644667417e+41
1140.1401401401401 2.0974146673182905e+41
1150.1501501501502 2.052462088897395e+41
1160.16016016016 2.0085682344041227e+41
1170.1701701701702 1.965710369838712e+41
1180.1801801801803 1.9238658707075622e+41
1190.1901901901902 1.8830122650603655e+41
1200.2002002002002 1.8431272713755902e+41
1210.2102102102103 1.8041888317678626e+41
1220.2202202202202 1.766175140950686e+41
1230.2302302302303 1.7290646713510946e+41
1240.2402402402402 1.6928361947389073e+41
1250.2502502502502 1.6574685000088999e+41
1260.2602602602603 1.62294015473742e+41
1270.2702702702702 1.589229467834322e+41
1280.2802802802803 1.5563167998188975e+41
1290.2902902902902 1.5241828622363636e+41
1300.3003003003003 1.4928087251477823e+41
1310.3103103103103 1.4621758229115753e+41
1320.3203203203202 1.4322659584297655e+41
1330.3303303303303 1.403061306017091e+41
1340.3403403403404 1.3745444130371878e+41
1350.3503503503503 1.3466982004373583e+41
1360.3603603603603 1.3195059623017468e+41
1370.3703703703704 1.2929513645320997e+41
1380.3803803803803 1.2670184427554349e+41
1390.3903903903904 1.2416915995490255e+41
1400.4004004004005 1.2169556010648375e+41
1410.4104104104103 1.1927955731280663e+41
1420.4204204204204 1.1691969968775126e+41
1430.4304304304305 1.1461457040092362e+41
1440.4404404404404 1.1236278716791686e+41
1450.4504504504505 1.1016300171150647e+41
1460.4604604604606 1.0801389919834007e+41
1470.4704704704704 1.0591419765523484e+41
1480.4804804804805 1.0386264736880029e+41
1490.4904904904906 1.018580302717306e+41
1500.5005005005005 9.989915931877785e+40
1510.5105105105106 9.798487785510992e+40
1520.5205205205207 9.611405897947843e+40
1530.5305305305305 9.428560490436531e+40
1540.5405405405404 9.249844631504609e+40
1550.5505505505505 9.075154172929558e+40
1560.5605605605606 8.904387685926896e+40
1570.5705705705705 8.737446397691685e+40
1580.5805805805805 8.574234128413346e+40
1590.5905905905906 8.414657228869168e+40
1600.6006006006005 8.258624518688971e+40
1610.6106106106106 8.106047225371411e+40
1620.6206206206207 7.956838924121712e+40
1630.6306306306305 7.810915478571066e+40
1640.6406406406406 7.668194982428995e+40
1650.6506506506507 7.528597702112729e+40
1660.6606606606606 7.392046020390052e+40
1670.6706706706707 7.258464381066574e+40
1680.6806806806808 7.12777923474265e+40
1690.6906906906906 6.999918985660683e+40
1700.7007007007007 6.8748140040741245e+40
1710.7107107107108 6.752396699358575e+40
1720.7207207207207 6.632600988634215e+40
1730.7307307307308 6.515362512797875e+40
1740.7407407407409 6.400618625185469e+40
1750.7507507507507 6.288308344531629e+40
1760.7607607607606 6.17837230915095e+40
1770.770770770771 6.070752732345276e+40
1780.7807807807808 5.965393359043736e+40
1790.7907907907907 5.862239423685808e+40
1800.8008008008007 5.76123760936182e+40
1810.8108108108108 5.66233600823072e+40
1820.8208208208207 5.565484083241054e+40
1830.8308308308308 5.470632631188705e+40
1840.8408408408409 5.37773374715286e+40
1850.8508508508507 5.286740790360669e+40
1860.8608608608608 5.197608351540032e+40
1870.870870870871 5.110292221828654e+40
1880.8808808808808 5.024749363314792e+40
1890.890890890891 4.940937881289464e+40
1900.900900900901 4.858816998289906e+40
1910.9109109109108 4.778347030006194e+40
1920.920920920921 4.699489363105123e+40
1930.930930930931 4.622206434992587e+40
1940.940940940941 4.546461715483899e+40
1950.950950950951 4.472219690275519e+40
1960.960960960961 4.39944584600692e+40
1970.970970970971 4.3281066565644375e+40
1980.980980980981 4.2581695701090663e+40
1990.9909909909911 4.189602996111038e+40
2001.001001001001 4.1223762914560307e+40
2011.0110110110109 4.056459744470161e+40
2021.0210210210212 3.9918245555238315e+40
2031.031031031031 3.928442812757938e+40
2041.0410410410411 3.86628746147994e+40
2051.051051051051 3.8053322659530124e+40
2061.061061061061 3.7455517626935616e+40
2071.071071071071 3.6869212050243254e+40
2081.081081081081 3.6294164994889603e+40
2091.091091091091 3.573014135757868e+40
2101.101101101101 3.517691112727875e+40
2111.1111111111113 3.463424864478694e+40
2121.121121121121 3.4101931904128053e+40
2131.131131131131 3.3579741941042953e+40
2141.141141141141 3.3067462350079373e+40
2151.151151151151 3.256487896220481e+40
2161.161161161161 3.2071779700446154e+40
2171.1711711711714 3.1587954613871065e+40
2181.1811811811813 3.1113196072930406e+40
2191.191191191191 3.064729909446855e+40
2201.201201201201 3.019006175470508e+40
2211.2112112112113 2.974128564431328e+40
2221.221221221221 2.930077632134636e+40
2231.2312312312315 2.886834372417057e+40
2241.2412412412414 2.8443802516103995e+40
2251.2512512512512 2.802697234427953e+40
2261.261261261261 2.7617678005701076e+40
2271.271271271271 2.721574952232969e+40
2281.2812812812813 2.682102213365524e+40
2291.2912912912916 2.6433336219405125e+40
2301.3013013013015 2.605253716702063e+40
2311.3113113113113 2.567847519872262e+40
2321.321321321321 2.531100517190719e+40
2331.331331331331 2.4949986364756043e+40
2341.3413413413414 2.4595282256738436e+40
2351.3513513513512 2.424676031143073e+40
2361.3613613613616 2.390429176699748e+40
2371.3713713713714 2.35677514378794e+40
2381.3813813813813 2.323701752976594e+40
2391.391391391391 2.291197146879343e+40
2401.4014014014015 2.2592497745072424e+40
2411.4114114114113 2.227848377006777e+40
2421.4214214214217 2.196981974698018e+40
2431.4314314314315 2.1666398553064805e+40
2441.4414414414414 2.1368115632725387e+40
2451.4514514514512 2.1074868900210703e+40
2461.4614614614616 2.0786558650782284e+40
2471.4714714714714 2.0503087479300203e+40
2481.4814814814818 2.0224360205269116e+40
2491.4914914914916 1.9950283803490944e+40
2501.5015015015015 1.968076733957348e+40
2511.5115115115113 1.9415721909643727e+40
2521.521521521521 1.9155060583705508e+40
2531.5315315315315 1.889869835216334e+40
2541.541541541542 1.8646552075107385e+40
2551.5515515515517 1.8398540434017438e+40
2561.5615615615616 1.8154583885598654e+40
2571.5715715715714 1.7914604617508682e+40
2581.5815815815813 1.7678526505774625e+40
2591.5915915915916 1.744627507373211e+40
2601.6016016016015 1.7217777452346147e+40
2611.611611611612 1.6992962341796395e+40
2621.6216216216217 1.6771759974229034e+40
2631.6316316316315 1.6554102077592468e+40
2641.6416416416414 1.6339921840487936e+40
2651.6516516516517 1.6129153877975742e+40
2661.6616616616616 1.5921734198287307e+40
2671.671671671672 1.5717600170399787e+40
2681.6816816816818 1.5516690492436192e+40
2691.6916916916916 1.5318945160858124e+40
2701.7017017017015 1.5124305440422574e+40
2711.711711711712 1.4932713834876954e+40
2721.7217217217217 1.4744114058369304e+40
2731.731731731732 1.4558451007552222e+40
2741.741741741742 1.4375670734361453e+40
2751.7517517517517 1.4195720419450515e+40
2761.7617617617616 1.4018548346264816e+40
2771.7717717717715 1.3844103875738726e+40
2781.781781781782 1.3672337421600444e+40
2791.791791791792 1.3503200426270016e+40
2801.801801801802 1.3336645337336055e+40
2811.811811811812 1.3172625584597671e+40
2821.8218218218217 1.301109555765817e+40
2831.8318318318316 1.2852010584057611e+40
2841.841841841842 1.2695326907931492e+40
2851.851851851852 1.2541001669183287e+40
2861.861861861862 1.2388992883158727e+40
2871.871871871872 1.2239259420809862e+40
2881.881881881882 1.2091760989337525e+40
2891.8918918918916 1.1946458113300712e+40
2901.901901901902 1.1803312116181698e+40
2911.911911911912 1.1662285102396096e+40
2921.921921921922 1.1523339939737048e+40
2931.931931931932 1.1386440242243163e+40
2941.941941941942 1.1251550353479882e+40
2951.9519519519517 1.1118635330224146e+40
2961.961961961962 1.0987660926542692e+40
2971.971971971972 1.0858593578254163e+40
2981.9819819819822 1.0731400387765646e+40
2991.991991991992 1.0606049109274449e+40
3002.002002002002 1.0482508134326029e+40
3012.012012012012 1.0360746477719252e+40
3022.0220220220217 1.0240733763750404e+40
3032.032032032032 1.0122534590283255e+40
3042.0420420420423 1.0005918555757063e+40
3052.052052052052 9.89096078016168e+39
3062.062062062062 9.77763414267743e+39
3072.072072072072 9.665911922163395e+39
3082.0820820820823 9.555767802529727e+39
3092.092092092092 9.447175876612558e+39
3102.102102102102 9.340110648713708e+39
3112.1121121121123 9.234547035952813e+39
3122.122122122122 9.130460368564992e+39
3132.132132132132 9.02782638926496e+39
3142.1421421421423 8.926621251786847e+39
3152.152152152152 8.826821518698523e+39
3162.162162162162 8.728404158579571e+39
3172.1721721721724 8.631346542643694e+39
3182.1821821821823 8.535626440878083e+39
3192.192192192192 8.441222017765362e+39
3202.202202202202 8.348111827647063e+39
3212.2122122122123 8.256274809781766e+39
3222.222222222222 8.16569028314559e+39
3232.232232232232 8.076337941017788e+39
3242.2422422422424 7.988197845389918e+39
3252.252252252252 7.901250421232893e+39
3262.262262262262 7.815476450652618e+39
3272.2722722722724 7.730857066961643e+39
3282.2822822822823 7.647373748691206e+39
3292.292292292292 7.565008313565364e+39
3302.3023023023025 7.483742912456465e+39
3312.3123123123123 7.403560023338957e+39
3322.322322322322 7.324442445256546e+39
3332.3323323323325 7.246373292315893e+39
3342.3423423423424 7.169335987718453e+39
3352.352352352352 7.093314257840404e+39
3362.3623623623625 7.018292126369627e+39
3372.3723723723724 6.944253908507134e+39
3382.3823823823823 6.871184205239392e+39
3392.3923923923926 6.799067897687267e+39
3402.4024024024025 6.727890141535984e+39
3412.4124124124123 6.657636361550122e+39
3422.4224224224226 6.58829224617674e+39
3432.4324324324325 6.519843742239262e+39
3442.4424424424424 6.452277049723993e+39
3452.4524524524522 6.385578616660873e+39
3462.4624624624626 6.319735134099457e+39
3472.4724724724724 6.254733531180869e+39
3482.4824824824823 6.190560970305916e+39
3492.4924924924926 6.12720484239956e+39
3502.5025025025025 6.064652762271342e+39
3512.5125125125123 6.002892564071399e+39
3522.5225225225226 5.941912296841299e+39
3532.5325325325325 5.881700220158894e+39
3542.5425425425424 5.822244799876147e+39
3552.5525525525527 5.763534703948784e+39
3562.5625625625626 5.705558798356557e+39
3572.5725725725724 5.64830614311268e+39
3582.5825825825827 5.591765988361099e+39
3592.5925925925926 5.535927770560048e+39
3602.6026026026025 5.480781108750341e+39
3612.612612612613 5.4263158009068577e+39
3622.6226226226227 5.372521820371542e+39
3632.6326326326325 5.319389312366287e+39
3642.642642642643 5.2669085905841067e+39
3652.6526526526527 5.215070133856863e+39
3662.6626626626626 5.163864582897864e+39
3672.672672672673 5.1132827371177706e+39
3682.6826826826828 5.063315551512065e+39
3692.6926926926926 5.01395413361847e+39
3702.7027027027025 4.965189740542684e+39
3712.712712712713 4.917013776050842e+39
3722.7227227227227 4.869417787727128e+39
3732.7327327327325 4.8223934641948976e+39
3742.742742742743 4.775932632399886e+39
3752.7527527527527 4.7300272549539e+39
3762.7627627627626 4.6846694275375595e+39
3772.772772772773 4.639851376360621e+39
3782.7827827827828 4.595565455678468e+39
3792.7927927927926 4.5518041453633434e+39
3802.802802802803 4.508560048529023e+39
3812.812812812813 4.465825889207542e+39
3822.8228228228227 4.4235945100766957e+39
3832.832832832833 4.3818588702370587e+39
3842.842842842843 4.3406120430372695e+39
3852.8528528528527 4.2998472139463793e+39
3862.862862862863 4.259557678472087e+39
3872.872872872873 4.2197368401237386e+39
3882.8828828828828 4.1803782084188944e+39
3892.892892892893 4.141475396932538e+39
3902.902902902903 4.1030221213876737e+39
3912.912912912913 4.0650121977864446e+39
3922.922922922923 4.027439540580662e+39
3932.932932932933 3.990298160880875e+39
3942.942942942943 3.953582164702912e+39
3952.9529529529527 3.917285751251078e+39
3962.962962962963 3.881403211237065e+39
3972.972972972973 3.845928925233707e+39
3982.982982982983 3.810857362062745e+39
3992.992992992993 3.776183077215744e+39
4003.003003003003 3.741900711307451e+39
4013.013013013013 3.7080049885606895e+39
4023.023023023023 3.674490715322137e+39
4033.033033033033 3.6413527786082136e+39
4043.043043043043 3.608586144680352e+39
4053.053053053053 3.576185857648978e+39
4063.063063063063 3.544147038105533e+39
4073.073073073073 3.512464881781832e+39
4083.0830830830832 3.481134658236186e+39
4093.093093093093 3.450151709565626e+39
4103.103103103103 3.419511449143615e+39
4113.113113113113 3.3892093603827237e+39
4123.123123123123 3.359240995521594e+39
4133.133133133133 3.3296019744357445e+39
4143.143143143143 3.300287983471612e+39
4153.153153153153 3.271294774303314e+39
4163.163163163163 3.2426181628116296e+39
4173.173173173173 3.2142540279846907e+39
4183.183183183183 3.186198310839919e+39
4193.193193193193 3.158447013366701e+39
4203.203203203203 3.1309961974893694e+39
4213.213213213214 3.1038419840500553e+39
4223.223223223224 3.07698055181093e+39
4233.2332332332335 3.050408136475448e+39
4243.243243243243 3.024121029728172e+39
4253.253253253253 2.9981155782927715e+39
4263.263263263263 2.972388183007804e+39
4273.273273273273 2.946935297919892e+39
4283.283283283283 2.9217534293939405e+39
4293.293293293293 2.8968391352400095e+39
4303.303303303303 2.8721890238564966e+39
4313.313313313313 2.8477997533892996e+39
4323.323323323323 2.8236680309065844e+39
4333.333333333334 2.7997906115888755e+39
4343.343343343344 2.776164297934116e+39
4353.353353353354 2.752785938977399e+39
4363.3633633633635 2.7296524295250614e+39
4373.373373373373 2.7067607094028458e+39
4383.383383383383 2.6841077627178324e+39
4393.393393393393 2.661690617133874e+39
4403.403403403403 2.639506343160241e+39
4413.413413413413 2.617552053453205e+39
4423.423423423424 2.595824902130319e+39
4433.4334334334335 2.574322084097122e+39
4443.443443443443 2.5530408343860008e+39
4453.453453453454 2.531978427506992e+39
4463.463463463464 2.5111321768102982e+39
4473.473473473474 2.4904994338601917e+39
4483.483483483484 2.4700775878202217e+39
4493.493493493494 2.449864064849369e+39
4503.503503503503 2.4298563275090047e+39
4513.513513513513 2.410051874180426e+39
4523.523523523523 2.3904482384927235e+39
4533.533533533533 2.371042988760849e+39
4543.543543543543 2.3518337274335963e+39
4553.553553553554 2.332818090551375e+39
4563.563563563564 2.3139937472135468e+39
4573.573573573573 2.2953583990551323e+39
4583.583583583584 2.2769097797327416e+39
4593.593593593594 2.2586456544195196e+39
4603.603603603604 2.2405638193089316e+39
4613.613613613614 2.222662101127244e+39
4623.623623623624 2.204938356654494e+39
4633.6336336336335 2.1873904722538305e+39
4643.643643643643 2.170016363409026e+39
4653.653653653653 2.1528139742700232e+39
4663.663663663663 2.1357812772063607e+39
4673.673673673674 2.1189162723683185e+39
4683.683683683684 2.1022169872556616e+39
4693.693693693694 2.0856814762937948e+39
4703.703703703704 2.069307820417233e+39
4713.713713713714 2.0530941266602252e+39
4723.723723723724 2.0370385277543958e+39
4733.733733733734 2.0211391817332747e+39
4743.743743743744 2.0053942715436054e+39
4753.753753753754 1.989802004663265e+39
4763.763763763764 1.9743606127257174e+39
4773.773773773773 1.9590683511508273e+39
4783.783783783783 1.9439234987819803e+39
4793.793793793793 1.928924357529325e+39
4803.803803803804 1.9140692520190642e+39
4813.813813813814 1.899356529248684e+39
4823.823823823824 1.8847845582479815e+39
4833.833833833834 1.870351729745817e+39
4843.843843843844 1.8560564558424662e+39
4853.853853853854 1.8418971696874692e+39
4863.863863863864 1.8278723251628887e+39
4873.873873873874 1.8139803965718594e+39
4883.883883883884 1.8002198783323512e+39
4893.893893893894 1.7865892846760372e+39
4903.9039039039035 1.7730871493521756e+39
4913.913913913913 1.7597120253364187e+39
4923.923923923924 1.7464624845444536e+39
4933.933933933934 1.7333371175504016e+39
4943.943943943944 1.7203345333098516e+39
4953.953953953955 1.7074533588875032e+39
4963.9639639639645 1.694692239189283e+39
4973.973973973974 1.6820498366988752e+39
4983.983983983984 1.6695248312185886e+39
4993.993993993994 1.6571159196144826e+39
5004.004004004004 1.6448218155656624e+39
5014.014014014014 1.63264124931769e+39
5024.024024024024 1.6205729674400064e+39
5034.0340340340335 1.608615732587337e+39
5044.044044044043 1.5967683232649627e+39
5054.054054054054 1.5850295335978203e+39
5064.064064064064 1.5733981731033512e+39
5074.074074074074 1.5618730664680306e+39
5084.084084084085 1.5504530533275136e+39
5094.0940940940945 1.539136988050345e+39
5104.104104104104 1.5279237395251488e+39
5114.114114114114 1.5168121909512476e+39
5124.124124124124 1.505801239632662e+39
5134.134134134134 1.4948897967754028e+39
5144.144144144144 1.4840767872880303e+39
5154.154154154154 1.4733611495853952e+39
5164.1641641641645 1.4627418353955225e+39
5174.174174174174 1.4522178095695803e+39
5184.184184184184 1.441788049894873e+39
5194.194194194194 1.4314515469108093e+39
5204.204204204204 1.4212073037278052e+39
5214.214214214214 1.411054335849046e+39
5224.224224224225 1.4009916709950757e+39
5234.2342342342345 1.3910183489311732e+39
5244.244244244244 1.3811334212974285e+39
5254.254254254254 1.371335951441525e+39
5264.264264264264 1.3616250142541318e+39
5274.274274274274 1.3519996960069009e+39
5284.284284284285 1.3424590941929924e+39
5294.294294294295 1.333002317370108e+39
5304.304304304304 1.3236284850059712e+39
5314.314314314314 1.3143367273262304e+39
5324.324324324324 1.3051261851647233e+39
5334.334334334334 1.2959960098160844e+39
5344.344344344345 1.2869453628906287e+39
5354.354354354355 1.2779734161715058e+39
5364.3643643643645 1.2690793514740478e+39
5374.374374374374 1.2602623605073133e+39
5384.384384384384 1.2515216447377514e+39
5394.394394394394 1.2428564152549852e+39
5404.404404404404 1.234265892639647e+39
5414.414414414415 1.225749306833258e+39
5424.424424424425 1.2173058970101003e+39
5434.4344344344345 1.2089349114510504e+39
5444.444444444444 1.2006356074193436e+39
5454.454454454454 1.1924072510382456e+39
5464.464464464464 1.1842491171705782e+39
5474.474474474475 1.1761604893000869e+39
5484.484484484485 1.1681406594146112e+39
5494.494494494495 1.1601889278910266e+39
5504.504504504504 1.1523046033819364e+39
5514.514514514514 1.1444870027040688e+39
5524.524524524524 1.1367354507283729e+39
5534.534534534535 1.1290492802717628e+39
5544.544544544545 1.1214278319904996e+39
5554.554554554555 1.1138704542751695e+39
5564.5645645645645 1.1063765031472468e+39
5574.574574574574 1.0989453421572043e+39
5584.584584584584 1.0915763422841488e+39
5594.594594594595 1.0842688818369533e+39
5604.604604604605 1.0770223463568791e+39
5614.614614614615 1.0698361285216262e+39
5624.624624624625 1.0627096280508306e+39
5634.6346346346345 1.0556422516129573e+39
5644.644644644644 1.0486334127335717e+39
5654.654654654654 1.0416825317049775e+39
5664.664664664665 1.0347890354971784e+39
5674.674674674675 1.0279523576701697e+39
5684.684684684685 1.0211719382875063e+39
5694.694694694695 1.0144472238311551e+39
5704.704704704704 1.0077776671175901e+39
5714.714714714714 1.001162727215125e+39
5724.724724724725 9.946018693624492e+38
5734.734734734735 9.880945648883637e+38
5744.744744744745 9.816402911326801e+38
5754.754754754755 9.752385313682776e+38
5764.764764764765 9.688887747242956e+38
5774.774774774774 9.625905161104381e+38
5784.784784784785 9.563432561423798e+38
5794.794794794795 9.501465010682518e+38
5804.804804804805 9.439997626961904e+38
5814.814814814815 9.379025583229308e+38
5824.824824824825 9.318544106634351e+38
5834.8348348348345 9.258548477815257e+38
5844.844844844845 9.199034030215253e+38
5854.854854854855 9.139996149408698e+38
5864.864864864865 9.081430272436906e+38
5874.874874874875 9.023331887153468e+38
5884.884884884885 8.965696531578918e+38
