#lamb flux
1000.0 0.10525768522866974
1010.01001001001 0.11339370255193125
1020.0200200200201 0.12192091756667564
1030.03003003003 0.13084236639589625
1040.0400400400401 0.14016032227307607
1050.05005005005 0.14987629435443056
1060.06006006006 0.15999102976755555
1070.07007007007 0.17050451873623454
1080.08008008008 0.18141600261031532
1090.0900900900901 0.19272398462100648
1100.1001001001 0.20442624317560867
1110.11011011011 0.2165198475013863
1120.1201201201202 0.22900117544583498
1130.13013013013 0.24186593323989392
1140.1401401401401 0.25510917703144903
1150.1501501501502 0.268725335998676
1160.16016016016 0.282708236856211
1170.1701701701702 0.297051129571609
1180.1801801801803 0.31174671411500054
1190.1901901901902 0.3267871680710366
1200.2002002002002 0.3421641749491098
1210.2102102102103 0.3578689530352111
1220.2202202202202 0.3738922846366228
1230.2302302302303 0.39022454557877867
1240.2402402402402 0.40685573482198584
1250.2502502502502 0.42377550355554133
1260.2602602602603 0.4409731840629161
1270.2702702702702 0.45843781856328775
1280.2802802802803 0.47615819250168767
1290.2902902902902 0.49412286030725894
1300.3003003003003 0.5123201734281136
1310.3103103103103 0.5307383077964793
1320.3203203203202 0.5493652906580023
1330.3303303303303 0.5681890267065536
1340.3403403403404 0.5871973234729677
1350.3503503503503 0.6063779159229752
1360.3603603603603 0.6257184902260857
1370.3703703703704 0.6452067066632738
1380.3803803803803 0.6648302216471703
1390.3903903903904 0.6845767088338824
1400.4004004004005 0.704433879310649
1410.4104104104103 0.7243895008483432
1420.4204204204204 0.744431416212227
1430.4304304304305 0.7645475605284104
1440.4404404404404 0.7847259777073189
1450.4504504504505 0.804954835928813
1460.4604604604606 0.8252224421968273
1470.4704704704704 0.8455172559741919
1480.4804804804805 0.8658279019109073
1490.4904904904906 0.8861431816813986
1500.5005005005005 0.9064520849483598
1510.5105105105106 0.926743799472581
1520.5205205205207 0.9470077203897131
1530.5305305305305 0.9672334586763373
1540.5405405405404 0.9874108488287828
1550.5505505505505 1.0075299557791833
1560.5605605605606 1.027581081073986
1570.5705705705705 1.0475547683408377
1580.5805805805805 1.0674418080701487
1590.5905905905906 1.087233241738068
1600.6006006006005 1.1069203652977373
1610.6106106106106 1.1264947320658465
1620.6206206206207 1.145948155031424
1630.6306306306305 1.1652727086137669
1640.6406406406406 1.1844607298961272
1650.6506506506507 1.2035048193615414
1660.6606606606606 1.2223978411568472
1670.6706706706707 1.2411329229104495
1680.6806806806808 1.259703455128998
1690.6906906906906 1.278103090197583
1700.7007007007007 1.2963257410894413
1710.7107107107108 1.3143655798208496
1720.7207207207207 1.3322170347911348
1730.7307307307308 1.349874788740753
1740.7407407407409 1.367333776163058
1750.7507507507507 1.3845891804089283
1760.7607607607606 1.401636430549838
1770.770770770771 1.4184711980187628
1780.7807807807808 1.435089393047666
1790.7907907907907 1.4514871609195361
1800.8008008008007 1.4676608780523188
1810.8108108108108 1.4836071479313089
1820.8208208208207 1.4993227969059886
1830.8308308308308 1.5148048698665475
1840.8408408408409 1.530050625814702
1850.8508508508507 1.5450575333428207
1860.8608608608608 1.5598232660346993
1870.870870870871 1.5743456978007744
1880.8808808808808 1.58862289815997
1890.890890890891 1.6026531274798073
1900.900900900901 1.6164348321858737
1910.9109109109108 1.6299666399511743
1920.920920920921 1.6432473548753617
1930.930930930931 1.6562759526632096
1940.940940940941 1.6690515758111406
1950.950950950951 1.6815735288098583
1960.960960960961 1.6938412733703514
1970.970970970971 1.705854423679635
1980.980980980981 1.7176127416915095
1990.9909909909911 1.7291161324563413
2001.001001001001 1.7403646394925045
2011.0110110110109 1.7513584402005307
2021.0210210210212 1.762097841319475
2031.031031031031 1.7725832744235184
2041.0410410410411 1.7828152914555329
2051.051051051051 1.792794560293794
2061.061061061061 1.8025218603480442
2071.071071071071 1.8119980781822442
2081.081081081081 1.8212242031637316
2091.091091091091 1.830201323141843
2101.101101101101 1.838930620163399
2111.1111111111113 1.8474133662371
2121.121121121121 1.8556509191631192
2131.131131131131 1.8636447184472653
2141.141141141141 1.8713962813202294
2151.151151151151 1.8789071988811263
2161.161161161161 1.8861791323808417
2171.1711711711714 1.8932138096549043
2181.1811811811813 1.9000130217086855
2191.191191191191 1.9065786194506227
2201.201201201201 1.9129125105631004
2211.2112112112113 1.919016656496266
2221.221221221221 1.924893069567814
2231.2312312312315 1.9305438101518912
2241.2412412412414 1.9359709839420247
2251.2512512512512 1.9411767392760542
2261.261261261261 1.9461632645146036
2271.271271271271 1.9509327854682932
2281.2812812812813 1.9554875628719373
2291.2912912912916 1.959829889906493
2301.3013013013015 1.9639620897710826
2311.3113113113113 1.9678865133084165
2321.321321321321 1.971605536687161
2331.331331331331 1.9751215591446791
2341.3413413413414 1.9784370007930876
2351.3513513513512 1.9815543004909721
2361.3613613613616 1.984475913782362
2371.3713713713714 1.987204310903977
2381.3813813813813 1.989741974861064
2391.391391391391 1.9920913995716967
2401.4014014014015 1.9942550880789343
2411.4114114114113 1.9962355508299445
2421.4214214214217 1.9980353040208876
2431.4314314314315 1.9996568680062508
2441.4414414414414 2.0011027657711455
2451.4514514514512 2.0023755214650065
2461.4614614614616 2.0034776589951275
2471.4714714714714 2.0044117006783946
2481.4814814814818 2.005180165949641
2491.4914914914916 2.0057855701250187
2501.5015015015015 2.006230423218811
2511.5115115115113 2.0065172288121644
2521.521521521521 2.0066484829722255
2531.5315315315315 2.0066266732202096
2541.541541541542 2.0064542775469594
2551.5515515515517 2.0061337634746166
2561.5615615615616 2.005667587162984
2571.5715715715714 2.005058192559293
2581.5815815815813 2.0043080105900373
2591.5915915915916 2.003419458393605
2601.6016016016015 2.0023949385924493
2611.611611611612 2.0012368386036132
2621.6216216216217 1.9999475299863672
2631.6316316316315 1.9985293678258211
2641.6416416416414 1.996984690151381
2651.6516516516517 1.9953158173889
2661.6616616616616 1.9935250518454788
2671.671671671672 1.9916146772258063
2681.6816816816818 1.9895869581790284
2691.6916916916916 1.9874441398751244
2701.7017017017015 1.9851884476097788
2711.711711711712 1.9828220864367905
2721.7217217217217 1.9803472408270844
2731.731731731732 1.9777660743533658
2741.741741741742 1.9750807293995418
2751.7517517517517 1.9722933268940066
2761.7617617617616 1.9694059660659649
2771.7717717717715 1.9664207242239067
2781.781781781782 1.963339656555451
2791.791791791792 1.9601647959477495
2801.801801801802 1.9568981528276794
2811.811811811812 1.9535417150210546
2821.8218218218217 1.9500974476301445
2831.8318318318316 1.9465672929287539
2841.841841841842 1.9429531702741938
2851.851851851852 1.9392569760354574
2861.861861861862 1.9354805835369289
2871.871871871872 1.9316258430170048
2881.881881881882 1.927694581601
2891.8918918918916 1.9236886032877234
2901.901901901902 1.919609688949152
2911.911911911912 1.9154595963426329
2921.921921921922 1.9112400601350374
2931.931931931932 1.9069527919383802
2941.941941941942 1.902599480356326
2951.9519519519517 1.8981817910411263
2961.961961961962 1.893701366760483
2971.971971971972 1.8891598274738455
2981.9819819819822 1.884558770417731
2991.991991991992 1.8798997701995765
3002.002002002002 1.8751843788997271
3012.012012012012 1.8704141261811231
3022.0220220220217 1.8655905194063094
3032.032032032032 1.860715160798492
3042.0420420420423 1.8557892648963061
3052.052052052052 1.8508144003294895
3062.062062062062 1.8457919876652873
3072.072072072072 1.840723425706842
3082.0820820820823 1.835610091660712
3092.092092092092 1.830453341308055
3102.102102102102 1.8252545091792383
3112.1121121121123 1.8200149087316861
3122.122122122122 1.814735832530739
3132.132132132132 1.8094185524333513
3142.1421421421423 1.8040643197744217
3152.152152152152 1.798674365555556
3162.162162162162 1.7932499006361085
3172.1721721721724 1.7877921159262926
3182.1821821821823 1.7823021825822065
3192.192192192192 1.7767812522025932
3202.202202202202 1.771230457027176
3212.2122122122123 1.7656509101364193
3222.222222222222 1.7600437056525324
3232.232232232232 1.7544099189416018
3242.2422422422424 1.7487506068166876
3252.252252252252 1.7430668077417415
3262.262262262262 1.7373595420362284
3272.2722722722724 1.731629812080297
3282.2822822822823 1.7258786025204074
3292.292292292292 1.7201068804752535
3302.3023023023025 1.714315595741902
3312.3123123123123 1.708505681002015
3322.322322322322 1.7026780520280453
3332.3323323323325 1.6968336078893167
3342.3423423423424 1.690973231157883
3352.352352352352 1.6850977881140567
3362.3623623623625 1.6792081289515433
3372.3723723723724 1.6733050879820766
3382.3823823823823 1.667389483839455
3392.3923923923926 1.6614621196829475
3402.4024024024025 1.6555237833999428
3412.4124124124123 1.6495752478077925
3422.4224224224226 1.643617270854783
3432.4324324324325 1.6376505958201562
3442.4424424424424 1.6316759515131298
3452.4524524524522 1.6256940524708436
3462.4624624624626 1.6197055991551872
3472.4724724724724 1.6137112781484564
3482.4824824824823 1.6077117623477728
3492.4924924924926 1.6017077111582343
3502.5025025025025 1.595699770684749
3512.5125125125123 1.5896885739225026
3522.5225225225226 1.5836747409460221
3532.5325325325325 1.5776588790968076
3542.5425425425424 1.5716415831694832
3552.5525525525527 1.5656234355964438
3562.5625625625626 1.5596050066309661
3572.5725725725724 1.5535868545287503
3582.5825825825827 1.5475695257278712
3592.5925925925926 1.5415535550271147
3602.6026026026025 1.5355394657626735
3612.612612612613 1.529527769983187
3622.6226226226227 1.523518968623102
3632.6326326326325 1.5175135516743326
3642.642642642643 1.5115119983562235
3652.6526526526527 1.5055147772837802
3662.6626626626626 1.499522346634163
3672.672672672673 1.4935351543114432
3682.6826826826828 1.4875536381095928
3692.6926926926926 1.4815782258737216
3702.7027027027025 1.4756093356595363
3712.712712712713 1.469647375891024
3722.7227227227227 1.46369274551637
3732.7327327327325 1.457745834162068
3742.742742742743 1.4518070222852757
3752.7527527527527 1.44587668132436
3762.7627627627626 1.4399551738476706
3772.772772772773 1.4340428537005288
3782.7827827827828 1.42814006615043
3792.7927927927926 1.4222471480304704
3802.802802802803 1.4163644278809988
3812.812812812813 1.4104922260894992
3822.8228228228227 1.4046308550287014
3832.832832832833 1.3987806191929402
3842.842842842843 1.3929418153327557
3852.8528528528527 1.3871147325877584
3862.862862862863 1.3812996526177408
3872.872872872873 1.3754968497320788
3882.8828828828828 1.3697065910173918
3892.892892892893 1.363929136463519
3902.902902902903 1.3581647390877734
3912.912912912913 1.3524136450575146
3922.922922922923 1.3466760938110443
3932.932932932933 1.3409523181768355
3942.942942942943 1.3352425444911
3952.9529529529527 1.3295469927137198
3962.962962962963 1.3238658765425437
3972.972972972973 1.318199403526069
3982.982982982983 1.312547775174515
3992.992992992993 1.3069111870693013
4003.003003003003 1.3012898289709622
4013.013013013013 1.2956838849254813
4023.023023023023 1.2900935333690842
4033.033033033033 1.2845189472314944
4043.043043043043 1.2789602940376654
4053.053053053053 1.273417736008008
4063.063063063063 1.2678914301571234
4073.073073073073 1.2623815283910618
4083.0830830830832 1.2568881776031176
4093.093093093093 1.251411519768174
4103.103103103103 1.2459516920356175
4113.113113113113 1.240508826820842
4123.123123123123 1.235083051895339
4133.133133133133 1.2296744904754089
4143.143143143143 1.2242832613095007
4153.153153153153 1.2189094787641979
4163.163163163163 1.2135532529088586
4173.173173173173 1.2082146895989385
4183.183183183183 1.2028938905579967
4193.193193193193 1.1975909534584164
4203.203203203203 1.192305972000836
4213.213213213214 1.1870390359923326
4223.223223223224 1.1817902314233468
4233.2332332332335 1.1765596405433771
4243.243243243243 1.1713473419354612
4253.253253253253 1.1661534105894504
4263.263263263263 1.160977917974105
4273.273273273273 1.155820932108013
4283.283283283283 1.1506825176293531
4293.293293293293 1.1455627358645184
4303.303303303303 1.140461644895616
4313.313313313313 1.1353792996268508
4323.323323323323 1.1303157518498117
4333.333333333334 1.125271050307685
4343.343343343344 1.12024524075839
4353.353353353354 1.1152383660366687
4363.3633633633635 1.1102504661151322
4373.373373373373 1.105281578164289
4383.383383383383 1.1003317366115535
4393.393393393393 1.0954009731992724
4403.403403403403 1.0904893170417567
4413.413413413413 1.085596794681348
4423.423423423424 1.080723430143539
4433.4334334334335 1.0758692449911411
4443.443443443443 1.0710342583775287
4453.453453453454 1.066218487098974
4463.463463463464 1.0614219456460798
4473.473473473474 1.0566446462543142
4483.483483483484 1.0518865989536832
4493.493493493494 1.0471478116175363
4503.503503503503 1.0424282900105202
4513.513513513513 1.0377280378357017
4523.523523523523 1.033047056780858
4533.533533533533 1.0283853465639636
4543.543543543543 1.0237429049778717
4553.553553553554 1.019119727934209
4563.563563563564 1.0145158095064961
4573.573573573573 1.0099311419725012
4583.583583583584 1.005365715855843
4593.593593593594 1.000819519966854
4603.603603603604 0.996292541442709
4613.613613613614 0.991784765786842
4623.623623623624 0.9872961769076499
4633.6336336336335 0.9828267571565016
4643.643643643643 0.9783764873650672
4653.653653653653 0.9739453468819614
4663.663663663663 0.9695333136087321
4673.673673673674 0.9651403640351907
4683.683683683684 0.9607664732741005
4693.693693693694 0.9564116150952328
4703.703703703704 0.9520757619587938
4713.713713713714 0.9477588850482479
4723.723723723724 0.9434609543025305
4733.733733733734 0.9391819384476642
4743.743743743744 0.934921805027802
4753.753753753754 0.9306805204356842
4763.763763763764 0.926458049942536
4773.773773773773 0.9222543577274023
4783.783783783783 0.9180694069059455
4793.793793793793 0.9139031595586954
4803.803803803804 0.9097555767587695
4813.813813813814 0.9056266185990796
4823.823823823824 0.901516244219019
4833.833833833834 0.8974244118306461
4843.843843843844 0.8933510787443779
4853.853853853854 0.889296201394187
4863.863863863864 0.8852597353623257
4873.873873873874 0.881241635403578
4883.883883883884 0.8772418554690412
4893.893893893894 0.8732603487294602
4903.9039039039035 0.8692970675981097
4913.913913913913 0.8653519637532322
4923.923923923924 0.8614249881600472
4933.933933933934 0.8575160910923324
4943.943943943944 0.8536252221535838
4953.953953953955 0.8497523302977679
4963.9639639639645 0.8458973638496647
4973.973973973974 0.8420602705248156
4983.983983983984 0.838240997449077
4993.993993993994 0.8344394911777936
5004.004004004004 0.8306556977145866
5014.014014014014 0.8268895625297787
5024.024024024024 0.8231410305784433
5034.0340340340335 0.8194100463181067
5044.044044044043 0.8156965537260864
5054.054054054054 0.8120004963164904
5064.064064064064 0.8083218171568711
5074.074074074074 0.8046604588845443
5084.084084084085 0.8010163637225813
5094.0940940940945 0.7973894734954781
5104.104104104104 0.793779729644503
5114.114114114114 0.7901870732427342
5124.124124124124 0.7866114450097896
5134.134134134134 0.7830527853262589
5144.144144144144 0.7795110342478317
5154.154154154154 0.7759861315191438
5164.1641641641645 0.7724780165873284
5174.174174174174 0.7689866286152952
5184.184184184184 0.7655119064947262
5194.194194194194 0.7620537888588035
5204.204204204204 0.7586122140946726
5214.214214214214 0.7551871203556406
5224.224224224225 0.7517784455731207
5234.2342342342345 0.7483861274683206
5244.244244244244 0.7450101035636865
5254.254254254254 0.7416503111941035
5264.264264264264 0.7383066875178518
5274.274274274274 0.7349791695273359
5284.284284284285 0.7316676940595774
5294.294294294295 0.7283721978064847
5304.304304304304 0.725092617324895
5314.314314314314 0.7218288890464062
5324.324324324324 0.7185809492869863
5334.334334334334 0.715348734256378
5344.344344344345 0.7121321800672921
5354.354354354355 0.7089312227444023
5364.3643643643645 0.7057457982331351
5374.374374374374 0.7025758424082706
5384.384384384384 0.6994212910823455
5394.394394394394 0.6962820800138706
5404.404404404404 0.693158144915361
5414.414414414415 0.6900494214611871
5424.424424424425 0.6869558452952457
5434.4344344344345 0.6838773520384546
5444.444444444444 0.680813877296076
5454.454454454454 0.6777653566648745
5464.464464464464 0.6747317257401033
5474.474474474475 0.6717129201223335
5484.484484484485 0.6687088754241192
5494.494494494495 0.665719527276509
5504.504504504504 0.6627448113354039
5514.514514514514 0.6597846632877593
5524.524524524524 0.6568390188576476
5534.534534534535 0.6539078138121677
5544.544544544545 0.6509909839672167
5554.554554554555 0.6480884651931165
5564.5645645645645 0.645200193420111
5574.574574574574 0.6423261046437216
5584.584584584584 0.6394661349299733
5594.594594594595 0.6366202204204893
5604.604604604605 0.6337882973374649
5614.614614614615 0.6309703019885057
5624.624624624625 0.6281661707713521
5634.6346346346345 0.6253758401784821
5644.644644644644 0.6225992468015922
5654.654654654654 0.6198363273359675
5664.664664664665 0.6170870185847348
5674.674674674675 0.6143512574630092
5684.684684684685 0.611628981001924
5694.694694694695 0.608920126352563
5704.704704704704 0.606224630789779
5714.714714714714 0.6035424317159158
5724.724724724725 0.6008734666644276
5734.734734734735 0.598217673303396
5744.744744744745 0.5955749894389553
5754.754754754755 0.5929453530186191
5764.764764764765 0.5903287021345139
5774.774774774774 0.5877249750265243
5784.784784784785 0.5851341100853439
5794.794794794795 0.582556045855441
5804.804804804805 0.5799907210379385
5814.814814814815 0.5774380744934077
5824.824824824825 0.5748980452445801
5834.8348348348345 0.5723705724789775
5844.844844844845 0.5698555955514644
5854.854854854855 0.5673530539867189
5864.864864864865 0.5648628874816297
5874.874874874875 0.5623850359076185
5884.884884884885 0.5599194393128872
5894.894894894895 0.5574660379245934
5904.9049049049045 0.5550247721509565
5914.914914914915 0.5525955825832943
5924.924924924925 0.5501784099979931
5934.934934934935 0.5477731953584042
5944.944944944945 0.5453798798166892
5954.954954954955 0.542998404715588
5964.964964964965 0.5406287115901318
5974.974974974975 0.5382707421692926
5984.984984984985 0.5359244383775749
5994.994994994995 0.533589742336545
6005.005005005005 0.5312665963663077
6015.015015015015 0.5289549429869211
6025.025025025025 0.5266547249197628
6035.035035035035 0.5243658850888352
6045.045045045045 0.5220883666220253
6055.055055055055 0.5198221128523053
6065.065065065065 0.5175670673188888
6075.075075075075 0.5153231737683334
6085.085085085085 0.5130903761555967
6095.0950950950955 0.5108686186450443
6105.105105105105 0.5086578456114116
6115.115115115115 0.506458001640719
6125.125125125125 0.5042690315311429
6135.135135135135 0.5020908802938454
6145.145145145145 0.4999234931537563
6155.155155155155 0.49776681555032
6165.1651651651655 0.49562079313819446
6175.175175175175 0.4934853717879158
6185.185185185185 0.4913604975865209
6195.195195195195 0.48924611683813274
6205.205205205205 0.48714217606450794
6215.215215215215 0.4850486220055468
6225.225225225226 0.4829654016197705
6235.235235235235 0.48089246208475916
6245.245245245245 0.4788297507975595
6255.255255255255 0.4767772153750564
6265.265265265265 0.474734803654312
6275.275275275275 0.4727024636928752
6285.285285285286 0.4706801437690569
6295.295295295296 0.46866779238217593
6305.305305305305 0.46666535825277433
6315.315315315315 0.4646727903228062
6325.325325325325 0.46269003775579415
6335.335335335335 0.4607170499369604
6345.345345345346 0.4587537764733283
6355.355355355356 0.4568001671938021
6365.3653653653655 0.45485617214921475
