#lamb flux
1000.0 3.4810303257544023e+40
1010.01001001001 3.5282111928539094e+40
1020.0200200200201 3.567879574981079e+40
1030.03003003003 3.600471960759466e+40
1040.0400400400401 3.626439645612081e+40
1050.05005005005 3.646240305058956e+40
1060.06006006006 3.660330952591862e+40
1070.07007007007 3.669162165250765e+40
1080.08008008008 3.6731734498039447e+40
1090.0900900900901 3.6727896193273883e+40
1100.1001001001 3.66841805211545e+40
1110.11011011011 3.6604467106824284e+40
1120.1201201201202 3.649242806880185e+40
1130.13013013013 3.6351520088763303e+40
1140.1401401401401 3.618498096156393e+40
1150.1501501501502 3.5995829792731963e+40
1160.16016016016 3.5786870113665157e+40
1170.1701701701702 3.556069528243756e+40
1180.1801801801803 3.5319695628747583e+40
1190.1901901901902 3.506606688414079e+40
1200.2002002002002 3.480181951282801e+40
1210.2102102102103 3.452878862419882e+40
1220.2202202202202 3.424864420580209e+40
1230.2302302302303 3.3962901465611923e+40
1240.2402402402402 3.3672931115417073e+40
1250.2502502502502 3.3378214252119487e+40
1260.2602602602603 3.307474475225299e+40
1270.2702702702702 3.2754550526135314e+40
1280.2802802802803 3.2419410591472824e+40
1290.2902902902902 3.207099895663775e+40
1300.3003003003003 3.171088670874644e+40
1310.3103103103103 3.134054464657195e+40
1320.3203203203202 3.0961346344521424e+40
1330.3303303303303 3.0574571548361716e+40
1340.3403403403404 3.0181409816571045e+40
1350.3503503503503 2.9782964333158167e+40
1360.3603603603603 2.9380255828561656e+40
1370.3703703703704 2.8974226554879247e+40
1380.3803803803803 2.856574427024989e+40
1390.3903903903904 2.8155606194794283e+40
1400.4004004004005 2.7744542907189024e+40
1410.4104104104103 2.7333222156786e+40
1420.4204204204204 2.6922252571267085e+40
1430.4304304304305 2.6512187244219146e+40
1440.4404404404404 2.6103527190797595e+40
1450.4504504504505 2.5696724662881107e+40
1460.4604604604606 2.5292186317872195e+40
1470.4704704704704 2.4890276237618423e+40
1480.4804804804805 2.4491318795875993e+40
1490.4904904904906 2.4095601374352224e+40
1500.5005005005005 2.3703376928693678e+40
1510.5105105105106 2.331486640686833e+40
1520.5205205205207 2.2930261023259084e+40
1530.5305305305305 2.25497243924723e+40
1540.5405405405404 2.2173394527398506e+40
1550.5505505505505 2.180138570646602e+40
1560.5605605605606 2.1433790215325258e+40
1570.5705705705705 2.107067996841278e+40
1580.5805805805805 2.0712108015986246e+40
1590.5905905905906 2.0358109942312456e+40
1600.6006006006005 2.000870516074513e+40
1610.6106106106106 1.9663898111461742e+40
1620.6206206206207 1.9323679367652692e+40
1630.6306306306305 1.8988026655985387e+40
1640.6406406406406 1.8656905797212726e+40
1650.6506506506507 1.8330271572875667e+40
1660.6606606606606 1.8008068524172887e+40
1670.6706706706707 1.7690231689258247e+40
1680.6806806806808 1.7376687285488682e+40
1690.6906906906906 1.7067353343504363e+40
1700.7007007007007 1.6762185823348303e+40
1710.7107107107108 1.6461266783891847e+40
1720.7207207207207 1.616446445843353e+40
1730.7307307307308 1.5871620856605938e+40
1740.7407407407409 1.558257789660987e+40
1750.7507507507507 1.529717749013735e+40
1760.7607607607606 1.5015261684745059e+40
1770.770770770771 1.4736672877273698e+40
1780.7807807807808 1.4461254114345995e+40
1790.7907907907907 1.4188849498729682e+40
1800.8008008008007 1.3919304723415622e+40
1810.8108108108108 1.3652467758602748e+40
1820.8208208208207 1.3388189720329326e+40
1830.8308308308308 1.3126325953123278e+40
1840.8408408408409 1.2866737362561206e+40
1850.8508508508507 1.2609292036733894e+40
1860.8608608608608 1.2353867197888279e+40
1870.870870870871 1.2100351526368172e+40
1880.8808808808808 1.1848647897628662e+40
1890.890890890891 1.159867656854932e+40
1900.900900900901 1.1350378840279354e+40
1910.9109109109108 1.1103721209940724e+40
1920.920920920921 1.085870000104874e+40
1930.930930930931 1.0615346430777099e+40
1940.940940940941 1.0373732029646805e+40
1950.950950950951 1.0133974274789356e+40
1960.960960960961 9.896242231509132e+39
1970.970970970971 9.660761920880704e+39
1980.980980980981 9.427821047236924e+39
1990.9909909909911 9.197772635220874e+39
2001.001001001001 8.971037051591207e+39
2011.0110110110109 8.748101835659334e+39
2021.0210210210212 8.529518750367054e+39
2031.031031031031 8.315897510949015e+39
2041.0410410410411 8.107895765456748e+39
2051.051051051051 7.906205101046678e+39
2061.061061061061 7.71153313163823e+39
2071.071071071071 7.524582072094285e+39
2081.081081081081 7.346024591146977e+39
2091.091091091091 7.176478114649858e+39
2101.101101101101 7.016479067411033e+39
2111.1111111111113 6.86645874016261e+39
2121.121121121121 6.726722503021565e+39
2131.131131131131 6.597433934379185e+39
2141.141141141141 6.478605099549343e+39
2151.151151151151 6.370093731859015e+39
2161.161161161161 6.271607500060279e+39
2171.1711711711714 6.182714963632977e+39
2181.1811811811813 6.102862295436485e+39
2191.191191191191 6.031394450012396e+39
2201.201201201201 5.967579214126045e+39
2211.2112112112113 5.910632506092947e+39
2221.221221221221 5.859743379467188e+39
2231.2312312312315 5.814097402987481e+39
2241.2412412412414 5.772897389285418e+39
2251.2512512512512 5.735380783879211e+39
2261.261261261261 5.700833361726611e+39
2271.271271271271 5.668599178483216e+39
2281.2812812812813 5.638086966392047e+39
2291.2912912912916 5.608773340627175e+39
2301.3013013013015 5.580203290890671e+39
2311.3113113113113 5.551988482210911e+39
2321.321321321321 5.523803889557627e+39
2331.331331331331 5.495383256077465e+39
2341.3413413413414 5.466513807118364e+39
2351.3513513513512 5.4370305827486115e+39
2361.3613613613616 5.406810678869934e+39
2371.3713713713714 5.375767617494055e+39
2381.3813813813813 5.3438460042578703e+39
2391.391391391391 5.311016577880637e+39
2401.4014014014015 5.277271712687384e+39
2411.4114114114113 5.2426214012303975e+39
2421.4214214214217 5.2070897185279855e+39
2431.4314314314315 5.170711751294243e+39
2441.4414414414414 5.133530963446039e+39
2451.4514514514512 5.095596961880314e+39
2461.4614614614616 5.0569636228747926e+39
2471.4714714714714 5.017687538503834e+39
2481.4814814814818 4.977826743374751e+39
2491.4914914914916 4.937439684143046e+39
2501.5015015015015 4.8965843971682206e+39
2511.5115115115113 4.8553178629620865e+39
2521.521521521521 4.813695509498104e+39
2531.5315315315315 4.7717708398139095e+39
2541.541541541542 4.72959516253287e+39
2551.5515515515517 4.6872174068841704e+39
2561.5615615615616 4.6446840064784796e+39
2571.5715715715714 4.6020388384854246e+39
2581.5815815815813 4.559323206963683e+39
2591.5915915915916 4.516575860928999e+39
2601.6016016016015 4.4738330393299916e+39
2611.611611611612 4.4311285364598636e+39
2621.6216216216217 4.388493782488427e+39
2631.6316316316315 4.345957934777225e+39
2641.6416416416414 4.3035479764640154e+39
2651.6516516516517 4.2612888194921206e+39
2661.6616616616616 4.2192034098345885e+39
2671.671671671672 4.177312833139282e+39
2681.6816816816818 4.1356364194143045e+39
2691.6916916916916 4.0941918456958704e+39
2701.7017017017015 4.052995235904892e+39
2711.711711711712 4.012061257313073e+39
2721.7217217217217 3.971403213212814e+39
2731.731731731732 3.9310331315244885e+39
2741.741741741742 3.890961849185815e+39
2751.7517517517517 3.8511990922555984e+39
2761.7617617617616 3.811753551732868e+39
2771.7717717717715 3.772632955145074e+39
2781.781781781782 3.7338441339992974e+39
2791.791791791792 3.695393087220009e+39
2801.801801801802 3.6572850407182394e+39
2811.811811811812 3.619524503251639e+39
2821.8218218218217 3.582115318744113e+39
2831.8318318318316 3.545060715238643e+39
2841.841841841842 3.5083633506585705e+39
2851.851851851852 3.4720253555516475e+39
2861.861861861862 3.4360483729881844e+39
2871.871871871872 3.400433595780257e+39
2881.881881881882 3.3651818011833984e+39
2891.8918918918916 3.33029338323599e+39
2901.901901901902 3.2957683828846793e+39
2911.911911911912 3.2616065160372815e+39
2921.921921921922 3.2278071996772004e+39
2931.931931931932 3.19436957616638e+39
2941.941941941942 3.1612925358565147e+39
2951.9519519519517 3.128574738121337e+39
2961.961961961962 3.096214630916028e+39
2971.971971971972 3.064210468963214e+39
2981.9819819819822 3.0325603306587893e+39
2991.991991991992 3.00126213378487e+39
3002.002002002002 2.9703136501114074e+39
3012.012012012012 2.9397125189627596e+39
3022.0220220220217 2.909456259820327e+39
3032.032032032032 2.887334630137961e+39
3042.0420420420423 2.856739751023936e+39
3052.052052052052 2.8262241236647854e+39
3062.062062062062 2.7958629374946314e+39
3072.072072072072 2.765719524104534e+39
3082.0820820820823 2.735846700139592e+39
3092.092092092092 2.7062879913026538e+39
3102.102102102102 2.6770787433012007e+39
3112.1121121121123 2.648247126369649e+39
3122.122122122122 2.619815040444684e+39
3132.132132132132 2.5917989282488904e+39
3142.1421421421423 2.5642105035150275e+39
3152.152152152152 2.5370574014134392e+39
3162.162162162162 2.5103437579718363e+39
3172.1721721721724 2.4840707249333222e+39
3182.1821821821823 2.4582369261118268e+39
3192.192192192192 2.43283886089403e+39
3202.202202202202 2.407871260118856e+39
3212.2122122122123 2.383327399150755e+39
3222.222222222222 2.359199372559567e+39
3232.232232232232 2.3354783344333787e+39
3242.2422422422424 2.3121547079851522e+39
3252.252252252252 2.2892183677711566e+39
3262.262262262262 2.2666587975206003e+39
3272.2722722722724 2.2444652262815607e+39
3282.2822822822823 2.2226267453178335e+39
3292.292292292292 2.2011324079441282e+39
3302.3023023023025 2.17997131426181e+39
3312.3123123123123 2.159132682552957e+39
3322.322322322322 2.138605908905504e+39
3332.3323323323325 2.1183806164751286e+39
3342.3423423423424 2.0984466956390643e+39
3352.352352352352 2.0787943361615476e+39
3362.3623623623625 2.059414052369125e+39
3372.3723723723724 2.0402967022249316e+39
3382.3823823823823 2.0214335010932894e+39
3392.3923923923926 2.002816030898683e+39
3402.4024024024025 1.984436245304713e+39
3412.4124124124123 1.9662864714688534e+39
3422.4224224224226 1.9483594088662266e+39
3432.4324324324325 1.9306481256198083e+39
3442.4424424424424 1.9131460527245663e+39
3452.4524524524522 1.8958469765085166e+39
3462.4624624624626 1.8787450296338797e+39
3472.4724724724724 1.8618346809060228e+39
3482.4824824824823 1.8451107241261005e+39
3492.4924924924926 1.8285682661950567e+39
3502.5025025025025 1.812202714651266e+39
3512.5125125125123 1.7960097648015515e+39
3522.5225225225226 1.779985386585123e+39
3532.5325325325325 1.7641258112919332e+39
3542.5425425425424 1.7484275182408708e+39
3552.5525525525527 1.732887221508844e+39
3562.5625625625626 1.7175018567889445e+39
3572.5725725725724 1.7022685684444613e+39
3582.5825825825827 1.6871846968152977e+39
3592.5925925925926 1.672247765824222e+39
3602.6026026026025 1.657455470922301e+39
3612.612612612613 1.64280566740565e+39
3622.6226226226227 1.6282963591292e+39
3632.6326326326325 1.6139256876375397e+39
3642.642642642643 1.5996919217278373e+39
3652.6526526526527 1.5855934474553962e+39
3662.6626626626626 1.5716287585884772e+39
3672.672672672673 1.5577964475156243e+39
3682.6826826826828 1.5440951966056542e+39
3692.6926926926926 1.5305237700178988e+39
3702.7027027027025 1.5170810059579796e+39
3712.712712712713 1.5037658093724607e+39
3722.7227227227227 1.490577145074054e+39
3732.7327327327325 1.477514031287571e+39
3742.742742742743 1.4645755336057274e+39
3752.7527527527527 1.4517607593428267e+39
3762.7627627627626 1.4390688522736046e+39
3772.772772772773 1.4264989877438766e+39
3782.7827827827828 1.414050368139134e+39
3792.7927927927926 1.4017222186968933e+39
3802.802802802803 1.3895137836483768e+39
3812.812812812813 1.377424322674963e+39
3822.8228228228227 1.3654531076648205e+39
3832.832832832833 1.3535994197551791e+39
3842.842842842843 1.3418625466458228e+39
3852.8528528528527 1.3302417801695543e+39
3862.862862862863 1.3187364141056201e+39
3872.872872872873 1.307345742222391e+39
3882.8828828828828 1.296069056535848e+39
3892.892892892893 1.2849056457708826e+39
3902.902902902903 1.2738547940126803e+39
3912.912912912913 1.2629157795359505e+39
3922.922922922923 1.252087873800144e+39
3932.932932932933 1.2413703405992528e+39
3942.942942942943 1.2307624353551945e+39
3952.9529529529527 1.2202634045442792e+39
3962.962962962963 1.209872485246685e+39
3972.972972972973 1.199588904809307e+39
3982.982982982983 1.1894118806128223e+39
3992.992992992993 1.1793406199342375e+39
4003.003003003003 1.1693743198966602e+39
4013.013013013013 1.1595121674984002e+39
4023.023023023023 1.1497533397140188e+39
4033.033033033033 1.1400970036602873e+39
4043.043043043043 1.1305423168204534e+39
4053.053053053053 1.1210884273206044e+39
4063.063063063063 1.1117344742522801e+39
4073.073073073073 1.1024795880358722e+39
4083.0830830830832 1.0933228908196893e+39
4093.093093093093 1.0842634969099126e+39
4103.103103103103 1.0753005132269837e+39
4113.113113113113 1.0664330397843036e+39
4123.123123123123 1.0576601701853744e+39
4133.133133133133 1.0489809921358576e+39
4143.143143143143 1.0403945879672517e+39
4153.153153153153 1.031900035169165e+39
4163.163163163163 1.0234964069274017e+39
4173.173173173173 1.015182772665325e+39
4183.183183183183 1.0069581985861594e+39
4193.193193193193 9.988217482141117e+38
4203.203203203203 9.907724829323936e+38
4213.213213213214 9.828094625164083e+38
4223.223223223224 9.749317456605197e+38
4233.2332332332335 9.671383904970171e+38
4243.243243243243 9.594284551060114e+38
4253.253253253253 9.518009980151626e+38
4263.263263263263 9.442550786882588e+38
4273.273273273273 9.36789758001789e+38
4283.283283283283 9.29404098708782e+38
4293.293293293293 9.220971658892754e+38
4303.303303303303 9.148680273868848e+38
4313.313313313313 9.077157542310364e+38
4323.323323323323 9.006394210445011e+38
4333.333333333334 8.936381064359674e+38
4343.343343343344 8.867108933774362e+38
4353.353353353354 8.798568695663037e+38
4363.3633633633635 8.730751277720526e+38
4373.373373373373 8.663647661675308e+38
4383.383383383383 8.597248886448412e+38
4393.393393393393 8.531546051159133e+38
4403.403403403403 8.466530317978698e+38
4413.413413413413 8.402192914833378e+38
4423.423423423424 8.338525137958865e+38
4433.4334334334335 8.27551835430802e+38
4443.443443443443 8.213164003814341e+38
4453.453453453454 8.151453601513782e+38
4463.463463463464 8.090378739527801e+38
4473.473473473474 8.029931088910356e+38
4483.483483483484 7.970102401362327e+38
4493.493493493494 7.910884510816317e+38
4503.503503503503 7.85226933489536e+38
4513.513513513513 7.794248876248903e+38
4523.523523523523 7.736815223769558e+38
4533.533533533533 7.67996055369431e+38
4543.543543543543 7.623677130593571e+38
4553.553553553554 7.567957308251872e+38
4563.563563563564 7.512793530443775e+38
4573.573573573573 7.458178331608566e+38
4583.583583583584 7.404104337427473e+38
4593.593593593594 7.350564265306888e+38
4603.603603603604 7.297550924771221e+38
4613.613613613614 7.245057217768945e+38
4623.623623623624 7.193076138895221e+38
4633.6336336336335 7.1416007755347e+38
4643.643643643643 7.090624307927745e+38
4653.653653653653 7.040140009163466e+38
4663.663663663663 6.990141245102866e+38
4673.673673673674 6.940621474235238e+38
4683.683683683684 6.891574247471017e+38
4693.693693693694 6.842993207874061e+38
4703.703703703704 6.794872090336451e+38
4713.713713713714 6.74720472119868e+38
4723.723723723724 6.699985017818045e+38
4733.733733733734 6.653206988088042e+38
4743.743743743744 6.606864729911498e+38
4753.753753753754 6.560952430629919e+38
4763.763763763764 6.515464366411748e+38
4773.773773773773 6.470394901601814e+38
4783.783783783783 6.425738488034558e+38
4793.793793793793 6.3814896643131325e+38
4803.803803803804 6.3376430550567246e+38
4813.813813813814 6.294193370118242e+38
4823.823823823824 6.251135403774371e+38
4833.833833833834 6.208464033890091e+38
4843.843843843844 6.166174221059546e+38
4853.853853853854 6.124261007725087e+38
4863.863863863864 6.082719517276371e+38
4873.873873873874 6.041544953131134e+38
4883.883883883884 6.000732597799394e+38
4893.893893893894 5.960277811932577e+38
4903.9039039039035 5.920176033359201e+38
4913.913913913913 5.880422776108443e+38
4923.923923923924 5.841013629423137e+38
4933.933933933934 5.80194425676347e+38
4943.943943943944 5.763210394802616e+38
4953.953953953955 5.7248078524156754e+38
4963.9639639639645 5.6867325096629685e+38
4973.973973973974 5.648980316768828e+38
4983.983983983984 5.6115472930970474e+38
4993.993993993994 5.5744295261238885e+38
5004.004004004004 5.537623170409681e+38
5014.014014014014 5.501124446569971e+38
5024.024024024024 5.464929640246977e+38
5034.0340340340335 5.429035101082379e+38
5044.044044044043 5.3934372416920145e+38
5054.054054054054 5.358132536643428e+38
5064.064064064064 5.3231175214368524e+38
5074.074074074074 5.288388791490358e+38
5084.084084084085 5.253943001129788e+38
5094.0940940940945 5.219776862584097e+38
5104.104104104104 5.1858871449866316e+38
5114.114114114114 5.152270673382885e+38
5124.124124124124 5.118924327745281e+38
5134.134134134134 5.085845041995379e+38
5144.144144144144 5.053029803033982e+38
5154.154154154154 5.020475649779573e+38
5164.1641641641645 4.988179672215409e+38
5174.174174174174 4.9561390104457046e+38
5184.184184184184 4.924350853761151e+38
5194.194194194194 4.892812439714139e+38
5204.204204204204 4.861521053203974e+38
5214.214214214214 4.830474025572285e+38
5224.224224224225 4.799668733708913e+38
5234.2342342342345 4.769102599168512e+38
5244.244244244244 4.7387730872979866e+38
5254.254254254254 4.708677706375048e+38
5264.264264264264 4.678814006757939e+38
5274.274274274274 4.649179580046598e+38
5284.284284284285 4.61977205825525e+38
5294.294294294295 4.590589112996657e+38
5304.304304304304 4.561628454678031e+38
5314.314314314314 4.5328878317087706e+38
5324.324324324324 4.5043650297200105e+38
5334.334334334334 4.476057870796112e+38
5344.344344344345 4.447964212718067e+38
5354.354354354355 4.420081948218907e+38
5364.3643643643645 4.3924090042510775e+38
5374.374374374374 4.3649433412658385e+38
5384.384384384384 4.337682952504644e+38
5394.394394394394 4.3106258633025105e+38
5404.404404404404 4.283770130403342e+38
5414.414414414415 4.25711384128719e+38
5424.424424424425 4.230655113509407e+38
5434.4344344344345 4.204392094051615e+38
5444.444444444444 4.17832295868448e+38
5454.454454454454 4.152445911342214e+38
5464.464464464464 4.126759183508714e+38
5474.474474474475 4.101261033615281e+38
5484.484484484485 4.075949746449846e+38
5494.494494494495 4.050823632577586e+38
5504.504504504504 4.025881027772877e+38
5514.514514514514 4.001120292462437e+38
5524.524524524524 3.9765398111796264e+38
5534.534534534535 3.9521379920297166e+38
5544.544544544545 3.9279132661660946e+38
5554.554554554555 3.9038640872772204e+38
5564.5645645645645 3.8799889310842816e+38
5574.574574574574 3.856286294849394e+38
5584.584584584584 3.832754696894206e+38
5594.594594594595 3.809392676128818e+38
5604.604604604605 3.786198791590901e+38
5614.614614614615 3.763171621994788e+38
5624.624624624625 3.7403097652905415e+38
5634.6346346346345 3.717611838232769e+38
5644.644644644644 3.695076475959062e+38
5654.654654654654 3.6727023315779684e+38
5664.664664664665 3.650488075766285e+38
5674.674674674675 3.628432396375637e+38
5684.684684684685 3.606533998048066e+38
5694.694694694695 3.584791601840617e+38
5704.704704704704 3.563203944858697e+38
5714.714714714714 3.541769779898103e+38
5724.724724724725 3.5204878750955635e+38
5734.734734734735 3.499357013587653e+38
5744.744744744745 3.478375993177934e+38
5754.754754754755 3.45754362601219e+38
5764.764764764765 3.436858738261613e+38
5774.774774774774 3.416320169813782e+38
5784.784784784785 3.3959267739713077e+38
5794.794794794795 3.3756774171580133e+38
5804.804804804805 3.3555709786324704e+38
5814.814814814815 3.3356063502088e+38
5824.824824824825 3.3157824359845704e+38
5834.8348348348345 3.2960981520756413e+38
5844.844844844845 3.276552426357875e+38
5854.854854854855 3.2571441982155023e+38
5864.864864864865 3.2378724182960508e+38
5874.874874874875 3.2187360482717156e+38
5884.884884884885 3.199734060607005e+38
5894.894894894895 3.1808654383325362e+38
