#lamb flux
1000.0 7.0491475646172725
1010.01001001001 7.2807031058441725
1020.0200200200201 7.5089991139136485
1030.03003003003 7.733824494465394
1040.0400400400401 7.954990716245627
1050.05005005005 8.172330569990642
1060.06006006006 8.385696929239948
1070.07007007007 8.594961525057201
1080.08008008008 8.800013744366602
1090.0900900900901 9.000759459630125
1100.1001001001 9.197119895875911
1110.11011011011 9.389030539613346
1120.1201201201202 9.576440092912923
1130.13013013013 9.759309474864583
1140.1401401401401 9.937610871734838
1150.1501501501502 10.111326836400892
1160.16016016016 10.280449437028315
1170.1701701701702 10.444979454462915
1180.1801801801803 10.604925627408885
1190.1901901901902 10.76030394415253
1200.2002002002002 10.911136979349862
1210.2102102102103 11.057453274216881
1220.2202202202202 11.19928675833361
1230.2302302302303 11.336676211188129
1240.2402402402402 11.469664761538434
1250.2502502502502 11.598173883742701
1260.2602602602603 11.721873270501451
1270.2702702702702 11.84011974610464
1280.2802802802803 11.95296770618362
1290.2902902902902 12.060477304376816
1300.3003003003003 12.162713895070024
1310.3103103103103 12.259747505986436
1320.3203203203202 12.351652339885579
1330.3303303303303 12.438506304538105
1340.3403403403404 12.52039057006958
1350.3503503503503 12.59738915271005
1360.3603603603603 12.669588523943656
1370.3703703703704 12.737077244023634
1380.3803803803803 12.799945618798597
1390.3903903903904 12.858285378787587
1400.4004004004005 12.912189379438763
1410.4104104104103 12.96175132151255
1420.4204204204204 13.007065490540377
1430.4304304304305 13.04822651432481
1440.4404404404404 13.085329137466692
1450.4504504504505 13.118468011925543
1460.4604604604606 13.14773750264449
1470.4704704704704 13.173231507296185
1480.4804804804805 13.195043289233697
1490.4904904904906 13.213265322758078
1500.5005005005005 13.227989149843133
1510.5105105105106 13.239305247486888
1520.5205205205207 13.247302904888286
1530.5305305305305 13.252070109677025
1540.5405405405404 13.253693442453987
1550.5505505505505 13.252257978928803
1560.5605605605606 13.247847198971243
1570.5705705705705 13.240542901923531
1580.5805805805805 13.230425127551804
1590.5905905905906 13.217572082047452
1600.6006006006005 13.202060068524258
1610.6106106106106 13.183963421494624
1620.6206206206207 13.163354444849565
1630.6306306306305 13.140303352914254
1640.6406406406406 13.114878214204522
1650.6506506506507 13.08714489757216
1660.6606606606606 13.057167020501245
1670.6706706706707 13.025005899405725
1680.6806806806808 12.990720501885445
1690.6906906906906 12.954367401026966
1700.7007007007007 12.916007952354953
1710.7107107107108 12.875722904289537
1720.7207207207207 12.833558343055955
1730.7307307307308 12.78955420181003
1740.7407407407409 12.743748290682603
1750.7507507507507 12.69617625788211
1760.7607607607606 12.646871560847034
1770.770770770771 12.595865450339465
1780.7807807807808 12.543186971106094
1790.7907907907907 12.488862983609721
1800.8008008008007 12.432918212371419
1810.8108108108108 12.375375327677242
1820.8208208208207 12.316255068808196
1830.8308308308308 12.255576418551707
1840.8408408408409 12.193356840540725
1850.8508508508507 12.129612592915631
1860.8608608608608 12.064359133854067
1870.870870870871 11.997611636568493
1880.8808808808808 11.929385633266504
1890.890890890891 11.859697809071363
1900.900900900901 11.788566967671525
1910.9109109109108 11.716015190050063
1920.920920920921 11.642069205443779
1930.930930930931 11.566761988953283
1940.940940940941 11.490134592095417
1950.950950950951 11.412238200092496
1960.960960960961 11.33313639187454
1970.970970970971 11.252907554843029
1980.980980980981 11.171647376037741
1990.9909909909911 11.089471294836352
2001.001001001001 11.006516761220784
2011.0110110110109 10.922945101048
2021.0210210210212 10.83894275064705
2031.031031031031 10.75472159440734
2041.0410410410411 10.670518129487998
2051.051051051051 10.586591200784051
2061.061061061061 10.50321810536813
2071.071071071071 10.420688964151172
2081.081081081081 10.339299399042083
2091.091091091091 10.25934172791678
2101.101101101101 10.1810950795058
2111.1111111111113 10.104815009880188
2121.121121121121 10.030723340799026
2131.131131131131 9.958999008112345
2141.141141141141 9.889770684198702
2151.151151151151 9.82311181511092
2161.161161161161 9.759038501871428
2171.1711711711714 9.69751038467858
2181.1811811811813 9.63843439907949
2191.191191191191 9.581671008172489
2201.201201201201 9.527042312265493
2211.2112112112113 9.47434132118994
2221.221221221221 9.423341651512644
2231.2312312312315 9.373806971696059
2241.2412412412414 9.325499641374146
2251.2512512512512 9.278188149159972
2261.261261261261 9.231653120000683
2271.271271271271 9.185691816239329
2281.2812812812813 9.140121181783414
2291.2912912912916 9.094779569327173
2301.3013013013015 9.049527346095587
2311.3113113113113 9.004246598238115
2321.321321321321 8.95884015439849
2331.331331331331 8.913230132421248
2341.3413413413414 8.86735618640614
2351.3513513513512 8.821173599965228
2361.3613613613616 8.774651339704473
2371.3713713713714 8.727770153371756
2381.3813813813813 8.68052077133504
2391.391391391391 8.632902248727333
2401.4014014014015 8.584920468744842
2411.4114114114113 8.536586814854592
2421.4214214214217 8.487917010499386
2431.4314314314315 8.438930118652605
2441.4414414414414 8.389647689656384
2451.4514514514512 8.340093043618623
2461.4614614614616 8.290290672772654
2471.4714714714714 8.240265749232323
2481.4814814814818 8.190043724201333
2491.4914914914916 8.13965000568841
2501.5015015015015 8.08910970297028
2511.5115115115113 8.038447427311919
2521.521521521521 7.987687139717091
2531.5315315315315 7.936852037687967
2541.541541541542 7.885964474090331
2551.5515515515517 7.835045902233073
2561.5615615615616 7.784116842172394
2571.5715715715714 7.733196864043545
2581.5815815815813 7.682304584911007
2591.5915915915916 7.631457676220677
2601.6016016016015 7.580672879443783
2611.611611611612 7.529966027931557
2621.6216216216217 7.479352073362134
2631.6316316316315 7.428845115464724
2641.6416416416414 7.378458433960211
2651.6516516516517 7.328204521867972
2661.6616616616616 7.278095119503554
2671.671671671672 7.228141248635626
2681.6816816816818 7.178353246389049
2691.6916916916916 7.128740798577261
2701.7017017017015 7.079312972225948
2711.711711711712 7.03007824711372
2721.7217217217217 6.981044546206817
2731.731731731732 6.932219264905773
2741.741741741742 6.883609299055061
2751.7517517517517 6.835221071692174
2761.7617617617616 6.787060558532979
2771.7717717717715 6.739133312205593
2781.781781781782 6.69144448525692
2791.791791791792 6.643998851964796
2801.801801801802 6.596800828994909
2811.811811811812 6.549854494946189
2821.8218218218217 6.503163608831158
2831.8318318318316 6.456731627539317
2841.841841841842 6.410561722332315
2851.851851851852 6.3646567944195676
2861.861861861862 6.319019489662238
2871.871871871872 6.273652212452476
2881.881881881882 6.228557138813372
2891.8918918918916 6.183736228763387
2901.901901901902 6.13919123798727
2911.911911911912 6.094923728853585
2921.921921921922 6.050935080816975
2931.931931931932 6.00722650024151
2941.941941941942 5.963799029679252
2951.9519519519517 5.920653556636552
2961.961961961962 5.877790821858648
2971.971971971972 5.835211427161227
2981.9819819819822 5.792915842836173
2991.991991991992 5.750904414656811
3002.002002002002 5.7091773705065965
3012.012012012012 5.667734826653654
3022.0220220220217 5.626576793692138
3032.032032032032 5.588811231170674
3042.0420420420423 5.547823372761627
3052.052052052052 5.507013592406993
3062.062062062062 5.466411900462208
3072.072072072072 5.426043875852647
3082.0820820820823 5.385931143192159
3092.092092092092 5.346091806404216
3102.102102102102 5.30654084218268
3112.1121121121123 5.267290456458987
3122.122122122122 5.228350406863759
3132.132132132132 5.1897282939887335
3142.1421421421423 5.151429824072926
3152.152152152152 5.11345904555795
3162.162162162162 5.075818561783462
3172.1721721721724 5.038509721926374
3182.1821821821823 5.001532792127836
3192.192192192192 4.964887108600351
3202.202202202202 4.928571214364787
3212.2122122122123 4.89258298113293
3222.222222222222 4.856919717725939
3232.232232232232 4.82157826630248
3242.2422422422424 4.786555087561902
3252.252252252252 4.751846335987496
3262.262262262262 4.717447926102148
3272.2722722722724 4.683355590623162
3282.2822822822823 4.649564931324316
3292.292292292292 4.616071463340823
3302.3023023023025 4.582870653586423
3312.3123123123123 4.5499579538909645
3322.322322322322 4.517328829410979
3332.3323323323325 4.484978782814771
3342.3423423423424 4.452903374696854
3352.352352352352 4.421098240633844
3362.3623623623625 4.389559105255207
3372.3723723723724 4.358281793666522
3382.3823823823823 4.327262240530631
3392.3923923923926 4.296496497082648
3402.4024024024025 4.265980736327702
3412.4124124124123 4.2357112566459945
3422.4224224224226 4.205684484007389
3432.4324324324325 4.175896972977554
3442.4424424424424 4.146345406679163
3452.4524524524522 4.117026595854981
3462.4624624624626 4.087937477164455
3472.4724724724724 4.059075110831583
3482.4824824824823 4.030436677749256
3492.4924924924926 4.002019476134023
3502.5025025025025 3.973820917814731
3512.5125125125123 3.9458385242293224
3522.5225225225226 3.918069922195455
3532.5325325325325 3.890512839513072
3542.5425425425424 3.863165100450028
3552.5525525525527 3.836024621155652
3562.5625625625626 3.8090894050415165
3572.5725725725724 3.78235753816346
3582.5825825825827 3.755827184634513
3592.5925925925926 3.729496582093995
3602.6026026026025 3.7033640372545804
3612.612612612613 3.677427921545632
3622.6226226226227 3.6516866668681582
3632.6326326326325 3.6261387614740905
3642.642642642643 3.60078274598021
3652.6526526526527 3.5756172095248657
3662.6626626626626 3.55064078607376
3672.672672672673 3.525852150879481
3682.6826826826828 3.501250017097817
3692.6926926926926 3.476833132562782
3702.7027027027025 3.452600276720927
3712.712712712713 3.4285502577247207
3722.7227227227227 3.4046819096837826
3732.7327327327325 3.3809940900719875
3742.742742742743 3.3574856772879382
3752.7527527527527 3.334155568365653
3762.7627627627626 3.311002676831853
3772.772772772773 3.2880259307059334
3782.7827827827828 3.2652242706383094
3792.7927927927926 3.2425966481825794
3802.802802802803 3.2201420241968415
3812.812812812813 3.197859367369208
3822.8228228228227 3.175747652862592
3832.832832832833 3.1538058610736974
3842.842842842843 3.1320329765011508
3852.8528528528527 3.1104279867176863
3862.862862862863 3.0889898814413503
3872.872872872873 3.0677176517007196
3882.8828828828828 3.0466102890891866
3892.892892892893 3.0256667851035313
3902.902902902903 3.004886130561941
3912.912912912913 2.9842673150969343
3922.922922922923 2.9638093267186294
3932.932932932933 2.943511151444018
3942.942942942943 2.9233717729879682
3952.9529529529527 2.9033901725118842
3962.962962962963 2.8835653284260867
3972.972972972973 2.863896216242077
3982.982982982983 2.8443818084710752
3992.992992992993 2.8250210745652877
4003.003003003003 2.8058129808986365
4013.013013013013 2.786756490783654
4023.023023023023 2.767850564521583
4033.033033033033 2.7490941594827323
4043.043043043043 2.730486230214347
4053.053053053053 2.712025728573395
4063.063063063063 2.6937116038817583
4073.073073073073 2.675542803101527
4083.0830830830832 2.657518271028161
4093.093093093093 2.639636950499446
4103.103103103103 2.6218977826182814
4113.113113113113 2.6042997069874745
4123.123123123123 2.5868416619547783
4133.133133133133 2.569522584866604
4143.143143143143 2.5523414123288592
4153.153153153153 2.535297080473547
4163.163163163163 2.5183885252297564
4173.173173173173 2.5016146825978876
4183.183183183183 2.484974488925957
4193.193193193193 2.4684668811869264
4203.203203203203 2.4520907972561217
4213.213213213214 2.4358451761878523
4223.223223223224 2.419728958490395
4233.2332332332335 2.403741086398634
4243.243243243243 2.387880504143654
4253.253253253253 2.3721461582186834
4263.263263263263 2.3565369976408457
4273.273273273273 2.3410519742081926
4283.283283283283 2.3256900427515803
4293.293293293293 2.310450161381014
4303.303303303303 2.2953312917260638
4313.313313313313 2.2803323991700912
4323.323323323323 2.265452453077974
4333.333333333334 2.250690427017133
4343.343343343344 2.236045298971644
4353.353353353354 2.2215160515492913
4363.3633633633635 2.2071016721814045
4373.373373373373 2.1928011533154144
4383.383383383383 2.178613492600011
4393.393393393393 2.1645376930628912
4403.403403403403 2.1505727632810365
4413.413413413413 2.136717717543526
4423.423423423424 2.122971576006908
4433.4334334334335 2.109333364843137
4443.443443443443 2.0958021163801392
4453.453453453454 2.0823768692350515
4463.463463463464 2.0690566684402505
4473.473473473474 2.0558405655621717
4483.483483483484 2.0427276188131205
4493.493493493494 2.0297168931561043
4503.503503503503 2.0168074604028328
4513.513513513513 2.0039983993050225
4523.523523523523 1.991288795639091
4533.533533533533 1.978677742284442
4543.543543543543 1.9661643392954236
4553.553553553554 1.953747693967144
4563.563563563564 1.9414269208952823
4573.573573573573 1.929201142030045
4583.583583583584 1.9170694867244364
4593.593593593594 1.9050310917769897
4603.603603603604 1.8930851014691188
4613.613613613614 1.8812306675972672
4623.623623623624 1.869466949499992
4633.6336336336335 1.8577931140801651
4643.643643643643 1.8462083358224426
4653.653653653653 1.834711796806162
4663.663663663663 1.8233026867138358
4673.673673673674 1.811980202835385
4683.683683683684 1.800743550068296
4693.693693693694 1.789591940913822
4703.703703703704 1.7785245954694107
4713.713713713714 1.7675407414175022
4723.723723723724 1.756639614010835
4733.733733733734 1.7458204560544184
4743.743743743744 1.735082517884324
4753.753753753754 1.7244250573434141
4763.763763763764 1.713847339754165
4773.773773773773 1.7033486378887124
4783.783783783783 1.6929282319362644
4793.793793793793 1.6825854094679942
4803.803803803804 1.6723194653995446
4813.813813813814 1.6621297019512875
4823.823823823824 1.6520154286064321
4833.833833833834 1.641975962067109
4843.843843843844 1.6320106262085619
4853.853853853854 1.6221187520315246
4863.863863863864 1.6122996776129273
4873.873873873874 1.6025527480550081
4883.883883883884 1.592877315432953
4893.893893893894 1.5832727387411463
4903.9039039039035 1.5737383838381431
4913.913913913913 1.564273623390442
4923.923923923924 1.5548778368151552
4933.933933933934 1.545550410221666
4943.943943943944 1.5362907363523441
4953.953953953955 1.5270982145224188
4963.9639639639645 1.5179722505590698
4973.973973973974 1.5089122567398152
4983.983983983984 1.4999176517302832
4993.993993993994 1.4909878605214166
5004.004004004004 1.4821223143661824
5014.014014014014 1.473320450715869
5024.024024024024 1.4645817131560004
5034.0340340340335 1.4559055513419574
5044.044044044043 1.4472914209343415
5054.054054054054 1.438738783534147
5064.064064064064 1.430247106617789
5074.074074074074 1.421815863472038
5084.084084084085 1.4134445331289034
5094.0940940940945 1.4051326003005289
5104.104104104104 1.3968795553141171
5114.114114114114 1.388684894046942
5124.124124124124 1.3805481178614911
5134.134134134134 1.372468733540759
5144.144144144144 1.3644462532237398
5154.154154154154 1.3564801943411517
5164.1641641641645 1.3485700795514193
5174.174174174174 1.340715436676949
5184.184184184184 1.3329157986407247
5194.194194194194 1.3251707034032472
5204.204204204204 1.3174796938998536
5214.214214214214 1.3098423179784255
5224.224224224225 1.302258128337515
5234.2342342342345 1.2947266824649222
5244.244244244244 1.2872475425767151
5254.254254254254 1.2798202755567423
5264.264264264264 1.2724444528966317
5274.274274274274 1.2651196506363043
5284.284284284285 1.2578454493050144
5294.294294294295 1.2506214338629256
5304.304304304304 1.2434471936432423
5314.314314314314 1.2363223222949056
5324.324324324324 1.2292464177258577
5334.334334334334 1.2222190820469006
5344.344344344345 1.2152399215161356
5354.354354354355 1.208308546484016
5364.3643643643645 1.2014245713389935
5374.374374374374 1.194587614453792
5384.384384384384 1.187797298132291
5394.394394394394 1.1810532485570393
5404.404404404404 1.1743550957373883
5414.414414414415 1.167702473458268
5424.424424424425 1.1610950192295892
5434.4344344344345 1.1545323742362807
5444.444444444444 1.1480141832889683
5454.454454454454 1.1415400947752914
5464.464464464464 1.1351097606118568
5474.474474474475 1.1287228361968298
5484.484484484485 1.1223789803631685
5494.494494494495 1.1160778553324877
5504.504504504504 1.109819126669567
5514.514514514514 1.10360246323748
5524.524524524524 1.097427537153371
5534.534534534535 1.091294023744846
5544.544544544545 1.085201601506997
5554.554554554555 1.0791499520600434
5564.5645645645645 1.0731387601076006
5574.574574574574 1.0671677133955513
5584.584584584584 1.0612365026715385
5594.594594594595 1.055344821645053
5604.604604604605 1.0494923669481393
5614.614614614615 1.0436788380966775
5624.624624624625 1.0379039374522703
5634.6346346346345 1.0321673701847132
5644.644644644644 1.0264688442350418
5654.654654654654 1.020808070279159
5664.664664664665 1.0151847616920242
5674.674674674675 1.0095986345124155
5684.684684684685 1.0040494074082384
5694.694694694695 0.9985368016423938
5704.704704704704 0.9930605410391845
5714.714714714714 0.987620351951264
5724.724724724725 0.9822159632271161
5734.734734734735 0.9768471061790576
5744.744744744745 0.9715135145517627
5754.754754754755 0.9662149244912953
5764.764764764765 0.9609510745146507
5774.774774774774 0.9557217054797947
5784.784784784785 0.9505265605561917
5794.794794794795 0.9453653851958211
5804.804804804805 0.9402379271046684
5814.814814814815 0.9351439362146912
5824.824824824825 0.9300831646562465
5834.8348348348345 0.9250553667309754
5844.844844844845 0.9200602988851433
5854.854854854855 0.9150977196834168
5864.864864864865 0.910167389783081
5874.874874874875 0.9052690719086885
5884.884884884885 0.9004025308271304
5894.894894894895 0.8955675333231218
5904.9049049049045 0.8907638481751009
5914.914914914915 0.885991246131529
5924.924924924925 0.88124949988759
5934.934934934935 0.8765383840622729
5944.944944944945 0.8718576751758491
5954.954954954955 0.8672071516277156
5964.964964964965 0.862586593674615
5974.974974974975 0.8579957834092203
5984.984984984985 0.8534345047390727
5994.994994994995 0.8489025433658758
6005.005005005005 0.8443996867651316
6015.015015015015 0.8399257241661195
6025.025025025025 0.8354804465322062
6035.035035035035 0.8310636465414803
6045.045045045045 0.826675118567716
6055.055055055055 0.8223146586616428
6065.065065065065 0.8179820645325303
6075.075075075075 0.8136771355300764
6085.085085085085 0.8093996726265921
6095.0950950950955 0.8051494783994803
6105.105105105105 0.8009263570140015
6115.115115115115 0.7967301142063197
6125.125125125125 0.7925605572668263
6135.135135135135 0.788417495023736
6145.145145145145 0.7843007378269433
6155.155155155155 0.7802100975321488
6165.1651651651655 0.7761453874852295
6175.175175175175 0.7721064225068733
6185.185185185185 0.7680930188774445
6195.195195195195 0.764104994322105
6205.205205205205 0.76014216799616
6215.215215215215 0.7562043604706402
6225.225225225226 0.7522913937181145
6235.235235235235 0.7484030910987158
6245.245245245245 0.7445392773463946
6255.255255255255 0.7406997785553814
6265.265265265265 0.7368844221668572
6275.275275275275 0.733093036955833
6285.285285285286 0.7293254530182278
6295.295295295296 0.7255815017581448
6305.305305305305 0.7218610158753389
6315.315315315315 0.7181638293528756
6325.325325325325 0.7144897774449738
6335.335335335335 0.7108386966650299
6345.345345345346 0.7072104247738196
6355.355355355356 0.7036048007678757
6365.3653653653655 0.7000216648680341
6375.375375375375 0.6964608585081478
6385.385385385385 0.6929222243239628
6395.395395395395 0.6894056061421597
6405.405405405405 0.6859108489695469
6415.415415415416 0.682437798982407
