#lamb flux
1000.0 5.485440819426706e+40
1010.01001001001 5.6610175755108465e+40
1020.0200200200201 5.829629279780019e+40
1030.03003003003 5.991233238492646e+40
1040.0400400400401 6.145836201183958e+40
1050.05005005005 6.293487962091255e+40
1060.06006006006 6.434275356231651e+40
1070.07007007007 6.568316688267618e+40
1080.08008008008 6.6957566143468765e+40
1090.0900900900901 6.816761482784662e+40
1100.1001001001 6.931515128308581e+40
1110.11011011011 7.040215106154599e+40
1120.1201201201202 7.143069346159152e+40
1130.13013013013 7.240293202745235e+40
1140.1401401401401 7.332106873996618e+40
1150.1501501501502 7.418733161547965e+40
1160.16016016016 7.500395542521951e+40
1170.1701701701702 7.577316524993403e+40
1180.1801801801803 7.6497162592654645e+40
1190.1901901901902 7.717811378448253e+40
1200.2002002002002 7.781814043310639e+40
1210.2102102102103 7.8419311680281605e+40
1220.2202202202202 7.898363805195369e+40
1230.2302302302303 7.951306670247504e+40
1240.2402402402402 8.000947787196245e+40
1250.2502502502502 8.047186329290188e+40
1260.2602602602603 8.089350242815254e+40
1270.2702702702702 8.126076449195263e+40
1280.2802802802803 8.157563106952698e+40
1290.2902902902902 8.184008174596695e+40
1300.3003003003003 8.205608551261238e+40
1310.3103103103103 8.222559322608157e+40
1320.3203203203202 8.235053103566405e+40
1330.3303303303303 8.243279469789296e+40
1340.3403403403404 8.247424470068939e+40
1350.3503503503503 8.247670212338336e+40
1360.3603603603603 8.244194516303708e+40
1370.3703703703704 8.237170626172346e+40
1380.3803803803803 8.22676697736717e+40
1390.3903903903904 8.213147011540667e+40
1400.4004004004005 8.196469034613816e+40
1410.4104104104103 8.17688611296549e+40
1420.4204204204204 8.154546003282011e+40
1430.4304304304305 8.129591111942619e+40
1440.4404404404404 8.102158480163881e+40
1450.4504504504505 8.072379791452586e+40
1460.4604604604606 8.040381398223712e+40
1470.4704704704704 8.006284364725731e+40
1480.4804804804805 7.970204523682006e+40
1490.4904904904906 7.932252544303771e+40
1500.5005005005005 7.892534009558151e+40
1510.5105105105106 7.851149500785418e+40
1520.5205205205207 7.808194687953542e+40
1530.5305305305305 7.763760424016578e+40
1540.5405405405404 7.717932842007931e+40
1550.5505505505505 7.67079345365132e+40
1560.5605605605606 7.622419248412498e+40
1570.5705705705705 7.572882792045771e+40
1580.5805805805805 7.522252323811791e+40
1590.5905905905906 7.47059185165962e+40
1600.6006006006005 7.417961244778128e+40
1610.6106106106106 7.364416323032023e+40
1620.6206206206207 7.310008942907868e+40
1630.6306306306305 7.254787079709312e+40
1640.6406406406406 7.198794905860037e+40
1650.6506506506507 7.14207286530301e+40
1660.6606606606606 7.084657744127614e+40
1670.6706706706707 7.026582737719195e+40
1680.6806806806808 6.967877514912083e+40
1690.6906906906906 6.908568279845634e+40
1700.7007007007007 6.848690223593907e+40
1710.7107107107108 6.788312229856816e+40
1720.7207207207207 6.727444229596538e+40
1730.7307307307308 6.66608698715467e+40
1740.7407407407409 6.604239146847371e+40
1750.7507507507507 6.541897255464527e+40
1760.7607607607606 6.479055801002081e+40
1770.770770770771 6.415707272339917e+40
1780.7807807807808 6.351842245573033e+40
1790.7907907907907 6.287449503861657e+40
1800.8008008008007 6.222516198997911e+40
1810.8108108108108 6.157028064398309e+40
1820.8208208208207 6.090969690918169e+40
1830.8308308308308 6.024324878725068e+40
1840.8408408408409 5.957077080418784e+40
1850.8508508508507 5.889209952566644e+40
1860.8608608608608 5.820708034709466e+40
1870.870870870871 5.751557576497375e+40
1880.8808808808808 5.68174753466759e+40
1890.890890890891 5.611270761710957e+40
1900.900900900901 5.540125406805761e+40
1910.9109109109108 5.468316546311113e+40
1920.920920920921 5.395858055064451e+40
1930.930930930931 5.322774720061796e+40
1940.940940940941 5.249104583906244e+40
1950.950950950951 5.174901485822387e+40
1960.960960960961 5.100237742398485e+40
1970.970970970971 5.025206878325774e+40
1980.980980980981 4.949926279810537e+40
1990.9909909909911 4.874539601717208e+40
2001.001001001001 4.799218717033726e+40
2011.0110110110109 4.724164958876097e+40
2021.0210210210212 4.649609377736203e+40
2031.031031031031 4.575811728286443e+40
2041.0410410410411 4.503057919670352e+40
2051.051051051051 4.431655718843152e+40
2061.061061061061 4.361928593274068e+40
2071.071071071071 4.2942077170507264e+40
2081.081081081081 4.2288223357369085e+40
2091.091091091091 4.1660888745300215e+40
2101.101101101101 4.106299358013291e+40
2111.1111111111113 4.049709859952868e+40
2121.121121121121 3.9965297900105483e+40
2131.131131131131 3.9469128287749563e+40
2141.141141141141 3.900950232676331e+40
2151.151151151151 3.858667051033246e+40
2161.161161161161 3.820021549359793e+40
2171.1711711711714 3.784907849281468e+40
2181.1811811811813 3.7531615152349463e+40
2191.191191191191 3.7245675792208373e+40
2201.201201201201 3.698870326202557e+40
2211.2112112112113 3.6757840798619706e+40
2221.221221221221 3.655004232111765e+40
2231.2312312312315 3.6362178378606544e+40
2241.2412412412414 3.619113228066698e+40
2251.2512512512512 3.60338825443355e+40
2261.261261261261 3.5887569445834807e+40
2271.271271271271 3.5749544980675055e+40
2281.2812812812813 3.5617406783436723e+40
2291.2912912912916 3.5489017476081046e+40
2301.3013013013015 3.5362511494560335e+40
2311.3113113113113 3.523629172205298e+40
2321.321321321321 3.510901829129262e+40
2331.331331331331 3.4979591774943098e+40
2341.3413413413414 3.4847132726198393e+40
2351.3513513513512 3.47109592169161e+40
2361.3613613613616 3.4570563690386024e+40
2371.3713713713714 3.442559013026088e+40
2381.3813813813813 3.4275812264788807e+40
2391.391391391391 3.4121113285646004e+40
2401.4014014014015 3.396146736598469e+40
2411.4114114114113 3.3796923110887887e+40
2421.4214214214217 3.3627588960710386e+40
2431.4314314314315 3.345362048796983e+40
2441.4414414414414 3.32752094754301e+40
2451.4514514514512 3.309257463100545e+40
2461.4614614614616 3.290595377896903e+40
2471.4714714714714 3.271559736234484e+40
2481.4814814814818 3.2521763094772513e+40
2491.4914914914916 3.2324711608801484e+40
2501.5015015015015 3.212470295939699e+40
2511.5115115115113 3.192199385487961e+40
2521.521521521521 3.1716835501479167e+40
2531.5315315315315 3.1509471961411612e+40
2541.541541541542 3.130013893740735e+40
2551.5515515515517 3.1089062908640905e+40
2561.5615615615616 3.087646055389643e+40
2571.5715715715714 3.066253840750321e+40
2581.5815815815813 3.0447492702109403e+40
2591.5915915915916 3.023150935979681e+40
2601.6016016016015 3.001476409945526e+40
2611.611611611612 2.979742263383418e+40
2621.6216216216217 2.9579640934369666e+40
2631.6316316316315 2.936156554584667e+40
2641.6416416416414 2.9143333936292416e+40
2651.6516516516517 2.8925074870292483e+40
2661.6616616616616 2.8706908796252977e+40
2671.671671671672 2.848894824007064e+40
2681.6816816816818 2.827129819927448e+40
2691.6916916916916 2.805405653302372e+40
2701.7017017017015 2.783731434442911e+40
2711.711711711712 2.762115635254947e+40
2721.7217217217217 2.7405661252132944e+40
2731.731731731732 2.719090205975318e+40
2741.741741741742 2.6976946445456647e+40
2751.7517517517517 2.6763857049408347e+40
2761.7617617617616 2.6551691783317455e+40
2771.7717717717715 2.634050411665314e+40
2781.781781781782 2.613034334783926e+40
2791.791791791792 2.5921254860750373e+40
2801.801801801802 2.5713280366932184e+40
2811.811811811812 2.550645813404126e+40
2821.8218218218217 2.5300823201048876e+40
2831.8318318318316 2.5096407580785083e+40
2841.841841841842 2.489324045041665e+40
2851.851851851852 2.469134833045892e+40
2861.861861861862 2.449075525291864e+40
2871.871871871872 2.429148291915603e+40
2881.881881881882 2.4093550848040045e+40
2891.8918918918916 2.389697651495285e+40
2901.901901901902 2.370177548217857e+40
2911.911911911912 2.350796152119001e+40
2921.921921921922 2.3315546727322426e+40
2931.931931931932 2.312454162730077e+40
2941.941941941942 2.2934955280061553e+40
2951.9519519519517 2.2746795371287557e+40
2961.961961961962 2.256006830204986e+40
2971.971971971972 2.237477927192869e+40
2981.9819819819822 2.219093235696316e+40
2991.991991991992 2.2008530582758327e+40
3002.002002002002 2.1827575993058085e+40
3012.012012012012 2.164806971407326e+40
3022.0220220220217 2.147001201483591e+40
3032.032032032032 2.1331772886325964e+40
3042.0420420420423 2.1151655641052875e+40
3052.052052052052 2.0971688429965965e+40
3062.062062062062 2.0792246997554778e+40
3072.072072072072 2.0613651302824516e+40
3082.0820820820823 2.043617160505708e+40
3092.092092092092 2.0260034017026309e+40
3102.102102102102 2.0085425556025409e+40
3112.1121121121123 1.9912498724681266e+40
3122.122122122122 1.9741375654129781e+40
3132.132132132132 1.9572151841956886e+40
3142.1421421421423 1.9404899516570806e+40
3152.152152152152 1.9239670658522202e+40
3162.162162162162 1.9076499707859697e+40
3172.1721721721724 1.8915405984997689e+40
3182.1821821821823 1.8756395850860883e+40
3192.192192192192 1.8599464630315022e+40
3202.202202202202 1.844459832114127e+40
3212.2122122122123 1.8291775109096012e+40
3222.222222222222 1.8140966707941742e+40
3232.232232232232 1.7992139541755593e+40
3242.2422422422424 1.7845255785330075e+40
3252.252252252252 1.7700274277080494e+40
3262.262262262262 1.7557151317570165e+40
3272.2722722722724 1.7415841365555828e+40
3282.2822822822823 1.7276297642340787e+40
3292.292292292292 1.7138472654198199e+40
3302.3023023023025 1.700231864168842e+40
3312.3123123123123 1.686778796383615e+40
3322.322322322322 1.6734833424351863e+40
3332.3323323323325 1.6603408546370317e+40
3342.3423423423424 1.6473467801534133e+40
3352.352352352352 1.6344966798664206e+40
3362.3623623623625 1.6217862436729788e+40
3372.3723723723724 1.6092113026350978e+40
3382.3823823823823 1.5967678383633145e+40
3392.3923923923926 1.5844519899742626e+40
3402.4024024024025 1.5722600589278638e+40
3412.4124124124123 1.560188512017907e+40
3422.4224224224226 1.548233982761008e+40
3432.4324324324325 1.536393271403102e+40
3442.4424424424424 1.524663343739252e+40
3452.4524524524522 1.5130413289216006e+40
3462.4624624624626 1.5015245164113138e+40
3472.4724724724724 1.4901103522133543e+40
3482.4824824824823 1.4787964345175107e+40
3492.4924924924926 1.4675805088553439e+40
3502.5025025025025 1.4564604628701936e+40
3512.5125125125123 1.4454343207862029e+40
3522.5225225225226 1.4345002376522199e+40
3532.5325325325325 1.4236564934273212e+40
3542.5425425425424 1.4129014869665589e+40
3552.5525525525527 1.402233729958129e+40
3562.5625625625626 1.3916518408565775e+40
3572.5725725725724 1.3811545388506777e+40
3582.5825825825827 1.3707406378993064e+40
3592.5925925925926 1.3604090408637984e+40
3602.6026026026025 1.3501587337609986e+40
3612.612612612613 1.3399887801573653e+40
3622.6226226226227 1.3298983157209918e+40
3632.6326326326325 1.3198865429453847e+40
3642.642642642643 1.3099527260560557e+40
3652.6526526526527 1.3000961861085258e+40
3662.6626626626626 1.2903162962841747e+40
3672.672672672673 1.2806124773884585e+40
3682.6826826826828 1.2709841935542686e+40
3692.6926926926926 1.2614309481517468e+40
3702.7027027027025 1.2519522799045202e+40
3712.712712712713 1.2425477592111863e+40
3722.7227227227227 1.2332169846698956e+40
3732.7327327327325 1.223959579802949e+40
3742.742742742743 1.214775189977683e+40
3752.7527527527527 1.2056634795192036e+40
3762.7627627627626 1.1966241290100474e+40
3772.772772772773 1.1876568327714005e+40
3782.7827827827828 1.1787612965201452e+40
3792.7927927927926 1.1699372351957204e+40
3802.802802802803 1.1611843709505838e+40
3812.812812812813 1.1525024312978693e+40
3822.8228228228227 1.1438911474097651e+40
3832.832832832833 1.135350252560054e+40
3842.842842842843 1.1268794807042376e+40
3852.8528528528527 1.118478565190702e+40
3862.862862862863 1.1101472375964071e+40
3872.872872872873 1.1018852266806814e+40
3882.8828828828828 1.0936922574507674e+40
3892.892892892893 1.0855680503329546e+40
3902.902902902903 1.0775123204431725e+40
3912.912912912913 1.0695247769511707e+40
3922.922922922923 1.0616051225325065e+40
3932.932932932933 1.053753052902785e+40
3942.942942942943 1.0459682564287294e+40
3952.9529529529527 1.0382504138109026e+40
3962.962962962963 1.0305991978330603e+40
3972.972972972973 1.0230142731733166e+40
3982.982982982983 1.0154952962725127e+40
3992.992992992993 1.0080419152553687e+40
4003.003003003003 1.0006537699002108e+40
4013.013013013013 9.933304916532336e+39
4023.023023023023 9.860717036834925e+39
4033.033033033033 9.78877020974979e+39
4043.043043043043 9.717460504523349e+39
4053.053053053053 9.6467839113695e+39
4063.063063063063 9.576736343303542e+39
4073.073073073073 9.507313638220014e+39
4083.0830830830832 9.438511561187059e+39
4093.093093093093 9.370325806931638e+39
4103.103103103103 9.30275200249134e+39
4113.113113113113 9.235785710010392e+39
4123.123123123123 9.169422429658451e+39
4133.133133133133 9.103657602652744e+39
4143.143143143143 9.038486614365042e+39
4153.153153153153 8.973904797496469e+39
4163.163163163163 8.909907435304259e+39
4173.173173173173 8.846489764865942e+39
4183.183183183183 8.783646980367399e+39
4193.193193193193 8.72137423640231e+39
4203.203203203203 8.659666651271664e+39
4213.213213213214 8.598519310272884e+39
4223.223223223224 8.537927268968943e+39
4233.2332332332335 8.4778855564289e+39
4243.243243243243 8.418389178431948e+39
4253.253253253253 8.359433120627896e+39
4263.263263263263 8.301012351647766e+39
4273.273273273273 8.243121826158733e+39
4283.283283283283 8.185756487858429e+39
4293.293293293293 8.128911272404146e+39
4303.303303303303 8.072581110273001e+39
4313.313313313313 8.016760929549771e+39
4323.323323323323 7.961445658639393e+39
4333.333333333334 7.906630228901814e+39
4343.343343343344 7.852309577207079e+39
4353.353353353354 7.798478648409085e+39
4363.3633633633635 7.745132397736673e+39
4373.373373373373 7.692265793101221e+39
4383.383383383383 7.639873817319956e+39
4393.393393393393 7.587951470254808e+39
4403.403403403403 7.536493770866555e+39
4413.413413413413 7.485495759184511e+39
4423.423423423424 7.434952498192094e+39
4433.4334334334335 7.384859075628767e+39
4443.443443443443 7.33521060570918e+39
4453.453453453454 7.286002230760325e+39
4463.463463463464 7.23722912277786e+39
4473.473473473474 7.188886484902534e+39
4483.483483483484 7.140969552818305e+39
4493.493493493494 7.093473596073295e+39
4503.503503503503 7.046393919325126e+39
4513.513513513513 6.999725863512281e+39
4523.523523523523 6.953464806952888e+39
4533.533533533533 6.907606166372904e+39
4543.543543543543 6.862145397865121e+39
4553.553553553554 6.817077997780967e+39
4563.563563563564 6.772399503556809e+39
4573.573573573573 6.728105494476584e+39
4583.583583583584 6.684191592372605e+39
4593.593593593594 6.640653462266422e+39
4603.603603603604 6.597486812951489e+39
4613.613613613614 6.554687397519673e+39
4623.623623623624 6.512251013833233e+39
4633.6336336336335 6.470173504944325e+39
4643.643643643643 6.428450759463733e+39
4653.653653653653 6.387078711880681e+39
4663.663663663663 6.346053342835535e+39
4673.673673673674 6.30537067934716e+39
4683.683683683684 6.265026794996718e+39
4693.693693693694 6.22501781006956e+39
4703.703703703704 6.185339891657005e+39
4713.713713713714 6.14598925371962e+39
4723.723723723724 6.106962157113646e+39
4733.733733733734 6.06825490958217e+39
4743.743743743744 6.029863865712688e+39
4753.753753753754 5.991785426862455e+39
4763.763763763764 5.95401604105329e+39
4773.773773773773 5.916552202837144e+39
4783.783783783783 5.879390453134025e+39
4793.793793793793 5.84252737904352e+39
4803.803803803804 5.805959613631357e+39
4813.813813813814 5.769683835692344e+39
4823.823823823824 5.733696769490871e+39
4833.833833833834 5.697995184480342e+39
4843.843843843844 5.662575895002652e+39
4853.853853853854 5.62743575996891e+39
4863.863863863864 5.592571682522571e+39
4873.873873873874 5.557980609686033e+39
4883.883883883884 5.523659531991789e+39
4893.893893893894 5.489605483099154e+39
4903.9039039039035 5.455815539397564e+39
4913.913913913913 5.4222868195973914e+39
4923.923923923924 5.3890164843092233e+39
4933.933933933934 5.356001735612499e+39
4943.943943943944 5.3232398166143116e+39
4953.953953953955 5.29072801099928e+39
4963.9639639639645 5.2584636425712533e+39
4973.973973973974 5.2264440747875656e+39
4983.983983983984 5.1946667102866835e+39
4993.993993993994 5.163128990409841e+39
5004.004004004004 5.131828394717419e+39
5014.014014014014 5.100762440500692e+39
5024.024024024024 5.0699286822895374e+39
5034.0340340340335 5.0393247113567804e+39
5044.044044044043 5.008948155219656e+39
5054.054054054054 4.978796677138985e+39
5064.064064064064 4.948867975616612e+39
5074.074074074074 4.919159783891508e+39
5084.084084084085 4.889669869435113e+39
5094.0940940940945 4.860396033446342e+39
5104.104104104104 4.831336110346639e+39
5114.114114114114 4.802487967275544e+39
5124.124124124124 4.773849503587145e+39
5134.134134134134 4.745418650347793e+39
5144.144144144144 4.7171933698353934e+39
5154.154154154154 4.6891716550406646e+39
5164.1641641641645 4.6613515291706324e+39
5174.174174174174 4.633731045154684e+39
5184.184184184184 4.606308285153435e+39
5194.194194194194 4.5790813600707e+39
5204.204204204204 4.552048409068825e+39
5214.214214214214 4.5252075990875696e+39
5224.224224224225 4.4985571243667845e+39
5234.2342342342345 4.472095205973125e+39
5244.244244244244 4.445820091330911e+39
5254.254254254254 4.419730053757403e+39
5264.264264264264 4.3938233920025704e+39
5274.274274274274 4.368098429793609e+39
5284.284284284285 4.342553515384241e+39
5294.294294294295 4.317187021109022e+39
5304.304304304304 4.2919973429426985e+39
5314.314314314314 4.266982900064806e+39
5324.324324324324 4.2421421344295344e+39
5334.334334334334 4.217473510340998e+39
5344.344344344345 4.1929755140339683e+39
5354.354354354355 4.168646653260183e+39
5364.3643643643645 4.144485456880216e+39
5374.374374374374 4.1204904744610736e+39
5384.384384384384 4.096660275879458e+39
5394.394394394394 4.0729934509308396e+39
5404.404404404404 4.0494886089442764e+39
5414.414414414415 4.026144378403103e+39
5424.424424424425 4.002959406571446e+39
5434.4344344344345 3.979932359126596e+39
5444.444444444444 3.957061919797264e+39
5454.454454454454 3.934346790007727e+39
5464.464464464464 3.91178568852783e+39
5474.474474474475 3.889377351128883e+39
5484.484484484485 3.867120530245403e+39
5494.494494494495 3.84501399464272e+39
5504.504504504504 3.8230565290904104e+39
5514.514514514514 3.8012469340415256e+39
5524.524524524524 3.7795840253176255e+39
5534.534534534535 3.7580666337995476e+39
5544.544544544545 3.736693605123892e+39
5554.554554554555 3.715463799385202e+39
5564.5645645645645 3.6943760908437634e+39
5574.574574574574 3.673429367639033e+39
5584.584584584584 3.652622531508596e+39
5594.594594594595 3.6319544975126305e+39
5604.604604604605 3.611424193763863e+39
5614.614614614615 3.5910305611628676e+39
5624.624624624625 3.5707725531387666e+39
5634.6346346346345 3.5506491353952143e+39
5644.644644644644 3.5306592856615874e+39
5654.654654654654 3.5108019934493996e+39
5664.664664664665 3.49107625981378e+39
5674.674674674675 3.4714810971200645e+39
5684.684684684685 3.4520155288153156e+39
5694.694694694695 3.432678589204817e+39
5704.704704704704 3.4134693232334017e+39
5714.714714714714 3.394386786271587e+39
5724.724724724725 3.375430043906427e+39
5734.734734734735 3.356598171737035e+39
5744.744744744745 3.337890255174689e+39
5754.754754754755 3.31930538924745e+39
5764.764764764765 3.300842678409258e+39
5774.774774774774 3.282501236353388e+39
5784.784784784785 3.264280185830223e+39
5794.794794794795 3.246178658469278e+39
5804.804804804805 3.228195794605378e+39
5814.814814814815 3.210330743108959e+39
5824.824824824825 3.192582661220382e+39
5834.8348348348345 3.174950714388211e+39
5844.844844844845 3.1574340761113935e+39
5854.854854854855 3.14003192778524e+39
5864.864864864865 3.1227434585511664e+39
5874.874874874875 3.105567865150118e+39
5884.884884884885 3.088504351779594e+39
5894.894894894895 3.071552129954221e+39
5904.9049049049045 3.0547104183697975e+39
