#lamb flux
1000.0 5.061893741761167
1010.01001001001 5.17528872215604
1020.0200200200201 5.2776102800046605
1030.03003003003 5.369248229666457
1040.0400400400401 5.450648582183205
1050.05005005005 5.522299275744624
1060.06006006006 5.584717598857175
1070.07007007007 5.63843926841581
1080.08008008008 5.684009084106616
1090.0900900900901 5.721973052973274
1100.1001001001 5.752871861046597
1110.11011011011 5.777235560396843
1120.1201201201202 5.795579337842371
1130.13013013013 5.808400234159489
1140.1401401401401 5.816174688597381
1150.1501501501502 5.8193567916886
1160.16016016016 5.81837713887489
1170.1701701701702 5.813642187658998
1180.1801801801803 5.805534031336438
1190.1901901901902 5.794410512486942
1200.2002002002002 5.780605609059368
1210.2102102102103 5.764430034898148
1220.2202202202202 5.7461720048380185
1230.2302302302303 5.726098121990604
1240.2402402402402 5.704454351555323
1250.2502502502502 5.68114816814305
1260.2602602602603 5.6554488746524285
1270.2702702702702 5.625885536263274
1280.2802802802803 5.592757487870021
1290.2902902902902 5.556351389834179
1300.3003003003003 5.5169409335229265
1310.3103103103103 5.4747866905311575
1320.3203203203202 5.430136084913672
1330.3303303303303 5.383223469727344
1340.3403403403404 5.334270291073238
1350.3503503503503 5.283485324618109
1360.3603603603603 5.231064971251368
1370.3703703703704 5.177193600090168
1380.3803803803803 5.122043928479785
1390.3903903903904 5.065777429948705
1400.4004004004005 5.008544762270811
1410.4104104104103 4.9504862088655965
1420.4204204204204 4.8917321277365655
1430.4304304304305 4.832403403015131
1440.4404404404404 4.772611894949106
1450.4504504504505 4.712460884858377
1460.4604604604606 4.652045512183497
1470.4704704704704 4.591453201281975
1480.4804804804805 4.530764076089827
1490.4904904904906 4.470051361168304
1500.5005005005005 4.40938176800435
1510.5105105105106 4.348815865734096
1520.5205205205207 4.288408435716673
1530.5305305305305 4.228208809606331
1540.5405405405404 4.168261190758792
1550.5505505505505 4.108604958967232
1560.5605605605606 4.049274958658314
1570.5705705705705 3.9903017707932853
1580.5805805805805 3.931711968816247
1590.5905905905906 3.87352835907513
1600.6006006006005 3.8157702062133287
1610.6106106106106 3.7584534440947506
1620.6206206206207 3.701590872884575
1630.6306306306305 3.645192342965948
1640.6406406406406 3.5892649264312504
1650.6506506506507 3.533813076949418
1660.6606606606606 3.478838778880321
1670.6706706706707 3.4243416865878062
1680.6806806806808 3.370319254997659
1690.6906906906906 3.3167668625599758
1700.7007007007007 3.2636873888844367
1710.7107107107108 3.211109657128785
1720.7207207207207 3.15901777388744
1730.7307307307308 3.1073899300466383
1740.7407407407409 3.05620383562814
1750.7507507507507 3.005436751627537
1760.7607607607606 2.9550655339986798
1770.770770770771 2.9050666928054807
1780.7807807807808 2.8554164701035174
1790.7907907907907 2.8060909407253467
1800.8008008008007 2.7570661408236403
1810.8108108108108 2.708318229768048
1820.8208208208207 2.659823691779281
1830.8308308308308 2.6115595844900636
1840.8408408408409 2.563503842403029
1850.8508508508507 2.5156356439049747
1860.8608608608608 2.467935851000809
1870.870870870871 2.420387531119585
1880.8808808808808 2.3729765700469385
1890.890890890891 2.325692384031674
1900.900900900901 2.2785287371261314
1910.9109109109108 2.2314846665265717
1920.920920920921 2.1845655137212665
1930.930930930931 2.1377840522578535
1940.940940940941 2.0911616935736443
1950.950950950951 2.04472974036683
1960.960960960961 1.998530642410478
1970.970970970971 1.9526191928547523
1980.980980980981 1.9070635847495376
1990.9909909909911 1.86194622921094
2001.001001001001 1.8173642205530451
2011.0110110110109 1.7734293227580518
2021.0210210210212 1.7302673493965484
2031.031031031031 1.6880168192727172
2041.0410410410411 1.646826795965055
2051.051051051051 1.6068538630891003
2061.061061061061 1.5682582483256575
2071.071071071071 1.5311991847968622
2081.081081081081 1.495829681558128
2091.091091091091 1.4622909560076496
2101.101101101101 1.4307068481455403
2111.1111111111113 1.4011785781028767
2121.121121121121 1.3737802148764342
2131.131131131131 1.3485551910687417
2141.141141141141 1.3255141270610382
2151.151151151151 1.304634126109711
2161.161161161161 1.2858595820409826
2171.1711711711714 1.2691044188790435
2181.1811811811813 1.2542555720687232
2191.191191191191 1.2411774363549575
2201.201201201201 1.229716953673526
2211.2112112112113 1.219708998083486
2221.221221221221 1.21098173133664
2231.2312312312315 1.203361645789587
2241.2412412412414 1.196678072397797
2251.2512512512512 1.1907670012206641
2261.261261261261 1.185474131693349
2271.271271271271 1.1806571330978204
2281.2812812812813 1.1761871476344041
2291.2912912912916 1.1719496069838586
2301.3013013013015 1.1678444579835596
2311.3113113113113 1.1637859052510828
2321.321321321321 1.159701780449088
2331.331331331331 1.1555326419902745
2341.3413413413414 1.15123069792262
2351.3513513513512 1.1467586308176319
2361.3613613613616 1.142088388569422
2371.3713713713714 1.1371999904687016
2381.3813813813813 1.1320803846461411
2391.391391391391 1.1267223814908773
2401.4014014014015 1.1211236781426308
2411.4114114114113 1.1152859816126446
2421.4214214214217 1.1092142323532628
2431.4314314314315 1.1029159259361134
2441.4414414414414 1.0964005276526037
2451.4514514514512 1.0896789730578604
2461.4614614614616 1.0827632465011345
2471.4714714714714 1.0756660293144236
2481.4814814814818 1.0684004093930601
2491.4914914914916 1.0609796442581725
2501.5015015015015 1.0534169702326308
2511.5115115115113 1.0457254510076863
2521.521521521521 1.037917859567322
2531.5315315315315 1.030006588129486
2541.541541541542 1.0220035814298316
2551.5515515515517 1.0139202892967232
2561.5615615615616 1.0057676350363332
2571.5715715715714 0.9975559966592319
2581.5815815815813 0.9892951984345072
2591.5915915915916 0.9809945106562172
2601.6016016016015 0.9726626558533382
2611.611611611612 0.9643078199728847
2621.6216216216217 0.9559376673213267
2631.6316316316315 0.9475593582665875
2641.6416416416414 0.9391795688866577
2651.6516516516517 0.9308045119053343
2661.6616616616616 0.9224399583850271
2671.671671671672 0.9140912597543843
2681.6816816816818 0.9057633698379886
2691.6916916916916 0.8974608666292522
2701.7017017017015 0.889187973608428
2711.711711711712 0.8809485804573569
2721.7217217217217 0.8727462630630556
2731.731731731732 0.8645843027349671
2741.741741741742 0.8564657045870814
2751.7517517517517 0.8483932150570943
2761.7617617617616 0.8403693385514435
2771.7717717717715 0.832396353218035
2781.781781781782 0.824476325858538
2791.791791791792 0.8166111259997507
2801.801801801802 0.8088024391491831
2811.811811811812 0.8010517792640806
2821.8218218218217 0.793360500465889
2831.8318318318316 0.7857298080339158
2841.841841841842 0.7781607687128873
2851.851851851852 0.7706543203694062
2861.861861861862 0.7632112810321136
2871.871871871872 0.7558323573497873
2881.881881881882 0.7485181525007472
2891.8918918918916 0.7412691735858625
2901.901901901902 0.7340858385362227
2911.911911911912 0.7269684825652316
2921.921921921922 0.7199173641934861
2931.931931931932 0.7129326708733917
2941.941941941942 0.7060145242390536
2951.9519519519517 0.6991629850055804
2961.961961961962 0.6923780575405561
2971.971971971972 0.6856596941291058
2981.9819819819822 0.6790077989526927
2991.991991991992 0.6724222318005375
3002.002002002002 0.6659028115313804
3012.012012012012 0.6594493193021745
3022.0220220220217 0.6530615015792343
3032.032032032032 0.6486073527054912
3042.0420420420423 0.6421062834310078
3052.052052052052 0.6356078194371508
3062.062062062062 0.6291302386347973
3072.072072072072 0.6226890074638891
3082.0820820820823 0.6162970945121315
3092.092092092092 0.6099652571203278
3102.102102102102 0.603702302123539
3112.1121121121123 0.5975153221099411
3122.122122122122 0.591409908721109
3132.132132132132 0.5853903445893396
3142.1421421421423 0.5794597755264204
3152.152152152152 0.5736203645577249
3162.162162162162 0.567873429346662
3172.1721721721724 0.5622195644859889
3182.1821821821823 0.5566587500511652
3192.192192192192 0.5511904477220275
3202.202202202202 0.5458136856866069
3212.2122122122123 0.5405271334479009
3222.222222222222 0.5353291675630062
3232.232232232232 0.5302179292558291
3242.2422422422424 0.5251913747606172
3252.252252252252 0.5202473191744534
3262.262262262262 0.5153834745230819
3272.2722722722724 0.5105974826760212
3282.2822822822823 0.5058869436839502
3292.292292292292 0.501249440053631
3302.3023023023025 0.49668255742299566
3312.3123123123123 0.4921839020511411
3322.322322322322 0.48775111549463224
3332.3323323323325 0.4833818868022856
3342.3423423423424 0.4790739625252911
3352.352352352352 0.4748251548076896
3362.3623623623625 0.4706333477936667
3372.3723723723724 0.4664965025624638
3382.3823823823823 0.4624126607787044
3392.3923923923926 0.4583799472253895
3402.4024024024025 0.45439657136834355
3412.4124124124123 0.45046082808446003
3422.4224224224226 0.4465710976713469
3432.4324324324325 0.4427258452428201
3442.4424424424424 0.4389236196029261
3452.4524524524522 0.4351630516806782
3462.4624624624626 0.431442852598289
3472.4724724724724 0.4277618114373112
3482.4824824824823 0.4241187927595824
3492.4924924924926 0.4205127339331895
3502.5025025025025 0.41694264230766176
3512.5125125125123 0.4134075922772565
3522.5225225225226 0.40990672226641217
3532.5325325325325 0.4064392316671506
3542.5425425425424 0.4030043777543909
3552.5525525525527 0.3996014726017013
3562.5625625625626 0.3962298800169549
3572.5725725725724 0.3928890125146079
3582.5825825825827 0.3895783283388766
3592.5925925925926 0.38629732854988785
3602.6026026026025 0.3830455541829333
3612.612612612613 0.3798225834892018
3622.6226226226227 0.3766280292648133
3632.6326326326325 0.3734615362735915
3642.642642642643 0.3703227787677814
3652.6526526526527 0.36721145810982214
3662.6626626626626 0.3641273004973173
3672.672672672673 0.36107005479250015
3682.6826826826828 0.3580394904567253
3692.6926926926926 0.3550353955898698
3702.7027027027025 0.3520575750739448
3712.712712712713 0.34910584881972284
3722.7227227227227 0.3461800501147571
3732.7327327327325 0.3432800240707853
3742.742742742743 0.34040562616821957
3752.7527527527527 0.3375567208951415
3762.7627627627626 0.3347331804780117
3772.772772772773 0.33193488370113017
3782.7827827827828 0.32916171481173445
3792.7927927927926 0.32641356250752546
3802.802802802803 0.323690319003328
3812.812812812813 0.32099187917354205
3822.8228228228227 0.318318139767019
3832.832832832833 0.31566899869098314
3842.842842842843 0.31304435436063516
3852.8528528528527 0.31044410511110426
3862.862862862863 0.3078681486684502
3872.872872872873 0.305316381676481
3882.8828828828828 0.30278869927620417
3892.892892892893 0.30028499473482256
3902.902902902903 0.2978051591212419
3912.912912912913 0.2953490810251684
3922.922922922923 0.2929166463169524
3932.932932932933 0.29050773794544094
3942.942942942943 0.2881222357711904
3952.9529529529527 0.28576001643250437
3962.962962962963 0.28342095324186134
3972.972972972973 0.2811049161103947
3982.982982982983 0.2788117714982031
3992.992992992993 0.27654138238836284
4003.003003003003 0.27429360828262883
4013.013013013013 0.27206830521689657
4023.023023023023 0.26986532579461453
4033.033033033033 0.26768451923642417
4043.043043043043 0.2655257314444017
4053.053053053053 0.263388805079375
4063.063063063063 0.26127357964987236
4073.073073073073 0.2591798916113526
4083.0830830830832 0.257107574474451
4093.093093093093 0.2550564589210546
4103.103103103103 0.253026372927101
4113.113113113113 0.25101714189107344
4123.123123123123 0.24902858876722972
4133.133133133133 0.24706053420268248
4143.143143143143 0.24511279667750568
4153.153153153153 0.24318519264710942
4163.163163163163 0.24127753668618476
4173.173173173173 0.23938964163357807
4183.183183183183 0.23752131873750548
4193.193193193193 0.23567237780057346
4203.203203203203 0.23384262732411493
4213.213213213214 0.23203187465140304
4223.223223223224 0.2302399261093369
4233.2332332332335 0.22846658714824605
4243.243243243243 0.22671166247948873
4253.253253253253 0.22497495621055946
4263.263263263263 0.22325627197745387
4273.273273273273 0.22155541307406784
4283.283283283283 0.21987218257843782
4293.293293293293 0.21820638347565954
4303.303303303303 0.21655781877733932
4313.313313313313 0.21492629163746407
4323.323323323323 0.2133116054645902
4333.333333333334 0.2117135640302778
4343.343343343344 0.21013197157370864
4353.353353353354 0.20856663290244712
4363.3633633633635 0.20701735348931788
4373.373373373373 0.20548393956538602
4383.383383383383 0.2039661982090421
4393.393393393393 0.2024639374312008
4403.403403403403 0.2009769662566381
4413.413413413413 0.1995050948014958
4423.423423423424 0.1980481343469968
4433.4334334334335 0.19660589740941575
4443.443443443443 0.1951781978063612
4453.453453453454 0.19376485071942928
4463.463463463464 0.1923656727532972
4473.473473473474 0.1909804819913206
4483.483483483484 0.18960909804771806
4493.493493493494 0.18825134211641273
4503.503503503503 0.18690703701661684
4513.513513513513 0.18557600723524045
4523.523523523523 0.18425807896620827
4533.533533533533 0.18295308014677497
4543.543543543543 0.18166084049092207
4553.553553553554 0.180381191519928
4563.563563563564 0.17911396659020043
4573.573573573573 0.17785900091845738
4583.583583583584 0.17661613160434977
4593.593593593594 0.17538519765061145
4603.603603603604 0.17416603998082633
4613.613613613614 0.1729585014549001
4623.623623623624 0.17176242688232216
4633.6336336336335 0.17057766303330482
4643.643643643643 0.1694040586478836
4653.653653653653 0.16824146444306037
4663.663663663663 0.16708973311807382
4673.673673673674 0.16594871935787425
4683.683683683684 0.164818279834884
4693.693693693694 0.16369827320911837
4703.703703703704 0.16258856012674328
4713.713713713714 0.1614890032171437
4723.723723723724 0.1603994670885725
4733.733733733734 0.15931981832245132
4743.743743743744 0.15824992546639136
4753.753753753754 0.15718965902599896
4763.763763763764 0.15613889145553203
4773.773773773773 0.1550974971474669
4783.783783783783 0.15406535242104102
4793.793793793793 0.1530423355098242
4803.803803803804 0.15202832654837942
4813.813813813814 0.15102320755806767
4823.823823823824 0.1500268624320479
4833.833833833834 0.14903917691952598
4843.843843843844 0.14806003860930134
4853.853853853854 0.14708933691265805
4863.863863863864 0.14612696304564912
4873.873873873874 0.14517281001081597
4883.883883883884 0.14422677257838776
4893.893893893894 0.14328874726700097
4903.9039039039035 0.1423586323239794
4913.913913913913 0.14143632770521186
4923.923923923924 0.14052173505466567
4933.933933933934 0.13961475768357065
4943.943943943944 0.1387153005493053
4953.953953953955 0.1378232702340218
4963.9639639639645 0.13693857492303663
4973.973973973974 0.13606112438301876
4983.983983983984 0.13519082994000373
4993.993993993994 0.13432760445725958
5004.004004004004 0.13347136231303183
5014.014014014014 0.13262201937819196
5024.024024024024 0.13177949299381192
5034.0340340340335 0.1309437019486895
5044.044044044043 0.1301145664568433
5054.054054054054 0.1292920081349997
5064.064064064064 0.1284759499800906
5074.074074074074 0.1276663163467799
5084.084084084085 0.12686303292503684
5094.0940940940945 0.12606602671777287
5104.104104104104 0.12527522601855684
5114.114114114114 0.12449056038942431
5124.124124124124 0.12371196063879512
5134.134134134134 0.12293935879951123
5144.144144144144 0.12217268810700863
5154.154154154154 0.12141188297763474
5164.1641641641645 0.12065687898712169
5174.174174174174 0.11990761284922702
5184.184184184184 0.11916402239455041
5194.194194194194 0.11842604654953573
5204.204204204204 0.11769362531566817
5214.214214214214 0.1169666997488722
5224.224224224225 0.11624521193911949
5234.2342342342345 0.11552910499025268
5244.244244244244 0.1148183230000314
5254.254254254254 0.11411281104040673
5264.264264264264 0.1134125151380283
5274.274274274274 0.11271738225499126
5284.284284284285 0.11202736026982386
5294.294294294295 0.11134239795872357
5304.304304304304 0.11066244497704172
5314.314314314314 0.10998745184102339
5324.324324324324 0.1093173699098015
5334.334334334334 0.10865215136765156
5344.344344344345 0.1079917492065056
5354.354354354355 0.10733611720873024
5364.3643643643645 0.10668520993016731
5374.374374374374 0.10603898268344128
5384.384384384384 0.10539739152153181
5394.394394394394 0.10476039322161404
5404.404404404404 0.1041279452691653
5414.414414414415 0.10350000584234019
5424.424424424425 0.10287653379661246
5434.4344344344345 0.10225748864968384
5444.444444444444 0.10164283056665972
5454.454454454454 0.10103252034549075
5464.464464464464 0.1004265194026791
5474.474474474475 0.09982478975924859
5484.484484484485 0.09922729402697779
5494.494494494495 0.0986339953948938
5504.504504504504 0.09804485761602627
5514.514514514514 0.09745984499441863
5524.524524524524 0.09687892237239651
5534.534534534535 0.09630205511808924
5544.544544544545 0.09572920911320439
5554.554554554555 0.09516035074105116
5564.5645645645645 0.09459544687481257
5574.574574574574 0.09403446486606211
5584.584584584584 0.0934773725335234
5594.594594594595 0.09292413815206968
5604.604604604605 0.092374730441962
5614.614614614615 0.09182911855832045
5624.624624624625 0.0912872720808292
5634.6346346346345 0.09074916100366978
5644.644644644644 0.09021475572568093
5654.654654654654 0.08968402704074208
5664.664664664665 0.08915694612837667
5674.674674674675 0.08863348454457388
5684.684684684685 0.0881136142128234
5694.694694694695 0.0875973074153624
5704.704704704704 0.0870845367846303
5714.714714714714 0.08657527529492808
5724.724724724725 0.08606949625428024
5734.734734734735 0.08556717329649458
5744.744744744745 0.08506828037341745
5754.754754754755 0.08457279174738154
5764.764764764765 0.0840806819838423
5774.774774774774 0.08359192594420044
5784.784784784785 0.08310649877880633
5794.794794794795 0.08262437592014434
5804.804804804805 0.08214553307619277
5814.814814814815 0.08166994622395686
5824.824824824825 0.08119759160317143
5834.8348348348345 0.0807284457101696
5844.844844844845 0.08026248529191574
5854.854854854855 0.07979968734019728
5864.864864864865 0.07934002908597428
5874.874874874875 0.07888348799388274
5884.884884884885 0.07843004175688836
5894.894894894895 0.07797966829108818
5904.9049049049045 0.07753234573065665
5914.914914914915 0.07708805242293316
5924.924924924925 0.07664676692364877
5934.934934934935 0.076208467992287
5944.944944944945 0.07577313458757895
5954.954954954955 0.0753407458631268
5964.964964964965 0.07491128116315482
5974.974974974975 0.07448472001838358
5984.984984984985 0.07406104214202619
5994.994994994995 0.07364022742590194
6005.005005005005 0.07322225593666572
6015.015015015015 0.07280710791215056
6025.025025025025 0.07239476375781993
6035.035035035035 0.07198520404332752
6045.045045045045 0.07157840949918208
6055.055055055055 0.07117436101351406
6065.065065065065 0.07077303962894256
6075.075075075075 0.07037442653953896
6085.085085085085 0.06997850308788542
6095.0950950950955 0.06958525076222603
6105.105105105105 0.06919465119370749
6115.115115115115 0.06880668615370733
6125.125125125125 0.06842133755124766
6135.135135135135 0.06803858743049188
6145.145145145145 0.06765841796832175
6155.155155155155 0.06728081147199368
6165.1651651651655 0.06690575037687066
6175.175175175175 0.06653321724422924
6185.185185185185 0.06616319475913798
6195.195195195195 0.06579566572840682
6205.205205205205 0.06543061307860394
6215.215215215215 0.0650680198541393
6225.225225225226 0.06470786921541231
6235.235235235235 0.06435014443702171
6245.245245245245 0.0639948289060365
6255.255255255255 0.06364190612032532
6265.265265265265 0.06329135968694256
6275.275275275275 0.06294317332057027
6285.285285285286 0.06259733084201329
6295.295295295296 0.062253816176746433
6305.305305305305 0.06191261335351161
6315.315315315315 0.06157370650296424
