#lamb flux
1000.0 1.3486054255591623e+40
1010.01001001001 1.378029650046744e+40
1020.0200200200201 1.4036675608169936e+40
1030.03003003003 1.4256807025752696e+40
1040.0400400400401 1.4442531381917359e+40
1050.05005005005 1.459584979278475e+40
1060.06006006006 1.471886734575328e+40
1070.07007007007 1.481374465085023e+40
1080.08008008008 1.488265709266837e+40
1090.0900900900901 1.492776124286097e+40
1100.1001001001 1.4951167787534615e+40
1110.11011011011 1.4954920271210043e+40
1120.1201201201202 1.4940978946482009e+40
1130.13013013013 1.4911209035171788e+40
1140.1401401401401 1.4867372743600368e+40
1150.1501501501502 1.4811124424385706e+40
1160.16016016016 1.4744008334242913e+40
1170.1701701701702 1.4667458497385318e+40
1180.1801801801803 1.4582800244179084e+40
1190.1901901901902 1.4491253052521253e+40
1200.2002002002002 1.4393934373563625e+40
1210.2102102102103 1.4291864173033997e+40
1220.2202202202202 1.4185969964088375e+40
1230.2302302302303 1.4077092147251946e+40
1240.2402402402402 1.3965989507684553e+40
1250.2502502502502 1.3852281813144524e+40
1260.2602602602603 1.3733478215972173e+40
1270.2702702702702 1.360468286651822e+40
1280.2802802802803 1.3466911674058723e+40
1290.2902902902902 1.3321125881518805e+40
1300.3003003003003 1.316823177470912e+40
1310.3103103103103 1.3009080955899573e+40
1320.3203203203202 1.2844471086177624e+40
1330.3303303303303 1.267514701137797e+40
1340.3403403403404 1.2501802196179426e+40
1350.3503503503503 1.2325080400151104e+40
1360.3603603603603 1.214557753803382e+40
1370.3703703703704 1.196384367433846e+40
1380.3803803803803 1.178038510942668e+40
1390.3903903903904 1.159566652062569e+40
1400.4004004004005 1.1410113127643398e+40
1410.4104104104103 1.1224112856630277e+40
1420.4204204204204 1.1038018481719736e+40
1430.4304304304305 1.0852149726814986e+40
1440.4404404404404 1.06667953138238e+40
1450.4504504504505 1.0482214946517447e+40
1460.4604604604606 1.0298641221753889e+40
1470.4704704704704 1.0116281461998178e+40
1480.4804804804805 9.935319464938e+39
1490.4904904904906 9.755917167565678e+39
1500.5005005005005 9.578216223415581e+39
1510.5105105105106 9.402339492739958e+39
1520.5205205205207 9.228392446305853e+39
1530.5305305305305 9.056464484227417e+39
1540.5405405405404 8.88663017183637e+39
1550.5505505505505 8.718950395059391e+39
1560.5605605605606 8.553473438134386e+39
1570.5705705705705 8.390235986776066e+39
1580.5805805805805 8.229264060109401e+39
1590.5905905905906 8.070573874842494e+39
1600.6006006006005 7.914172645260445e+39
1610.6106106106106 7.76005932270061e+39
1620.6206206206207 7.60822527822776e+39
1630.6306306306305 7.458654932275651e+39
1640.6406406406406 7.311326335067936e+39
1650.6506506506507 7.166211701686793e+39
1660.6606606606606 7.023277905729175e+39
1670.6706706706707 6.882486935589812e+39
1680.6806806806808 6.743796317543917e+39
1690.6906906906906 6.607159509982397e+39
1700.7007007007007 6.47255192345923e+39
1710.7107107107108 6.340020177906703e+39
1720.7207207207207 6.209490613333084e+39
1730.7307307307308 6.080875711001287e+39
1740.7407407407409 5.954088854583272e+39
1750.7507507507507 5.82904438131914e+39
1760.7607607607606 5.705657669017616e+39
1770.770770770771 5.583845265934368e+39
1780.7807807807808 5.4635250717004e+39
1790.7907907907907 5.344616578716019e+39
1800.8008008008007 5.227041184756563e+39
1810.8108108108108 5.1107225889182065e+39
1820.8208208208207 4.995587284406326e+39
1830.8308308308308 4.881565162946122e+39
1840.8408408408409 4.7685902466443727e+39
1850.8508508508507 4.656601563772435e+39
1860.8608608608608 4.545544184929025e+39
1870.870870870871 4.435370435058186e+39
1880.8808808808808 4.3260412944411945e+39
1890.890890890891 4.2175279975597927e+39
1900.900900900901 4.10981383207274e+39
1910.9109109109108 4.002896130429633e+39
1920.920920920921 3.896788433232987e+39
1930.930930930931 3.7915227857946814e+39
1940.940940940941 3.6871521070691347e+39
1950.950950950951 3.5837525433206456e+39
1960.960960960961 3.4814256881487924e+39
1970.970970970971 3.380300517375294e+39
1980.980980980981 3.2805348544302444e+39
1990.9909909909911 3.182316153199893e+39
2001.001001001001 3.0858613660468655e+39
2011.0110110110109 2.9914156611453405e+39
2021.0210210210212 2.899249772008806e+39
2031.031031031031 2.8096558090060126e+39
2041.0410410410411 2.7229414414085113e+39
2051.051051051051 2.639422468835208e+39
2061.061061061061 2.5594139372378735e+39
2071.071071071071 2.4832201050995968e+39
2081.081081081081 2.411123713012154e+39
2091.091091091091 2.3433751334650696e+39
2101.101101101101 2.280182056712699e+39
2111.1111111111113 2.2217003864493888e+39
2121.121121121121 2.168026967431431e+39
2131.131131131131 2.11919464857342e+39
2141.141141141141 2.0751700126639484e+39
2151.151151151151 2.0358538993024086e+39
2161.161161161161 2.0010846366263633e+39
2171.1711711711714 1.9706437047039365e+39
2181.1811811811813 1.9442633989388656e+39
2191.191191191191 1.9216359578377883e+39
2201.201201201201 1.9024235703623066e+39
2211.2112112112113 1.8862686811549885e+39
2221.221221221221 1.8728040593567693e+39
2231.2312312312315 1.8616621776000183e+39
2241.2412412412414 1.852483549895881e+39
2251.2512512512512 1.8449237885775952e+39
2261.261261261261 1.8386592505468586e+39
2271.271271271271 1.8333912431731958e+39
2281.2812812812813 1.8288488441802807e+39
2291.2912912912916 1.8247904542144027e+39
2301.3013013013015 1.8210042445092835e+39
2311.3113113113113 1.817307686204519e+39
2321.321321321321 1.8135463550301674e+39
2331.331331331331 1.8095921987213836e+39
2341.3413413413414 1.8053414384707562e+39
2351.3513513513512 1.800712253597297e+39
2361.3613613613616 1.7956423735639736e+39
2371.3713713713714 1.7900866760107257e+39
2381.3813813813813 1.7840148653909978e+39
2391.391391391391 1.7774092852619686e+39
2401.4014014014015 1.7702628988903815e+39
2411.4114114114113 1.762577457784048e+39
2421.4214214214217 1.7543618659335808e+39
2431.4314314314315 1.7456307386518353e+39
2441.4414414414414 1.736403148532543e+39
2451.4514514514512 1.726701546783371e+39
2461.4614614614616 1.7165508456001996e+39
2471.4714714714714 1.7059776459547306e+39
2481.4814814814818 1.695009594832741e+39
2491.4914914914916 1.6836748563079474e+39
2501.5015015015015 1.6720016816427327e+39
2511.5115115115113 1.6600180646977976e+39
2521.521521521521 1.647751470176508e+39
2531.5315315315315 1.6352286235301276e+39
2541.541541541542 1.6224753526398165e+39
2551.5515515515517 1.6095164726248844e+39
2561.5615615615616 1.59637570627638e+39
2571.5715715715714 1.5830756336649977e+39
2581.5815815815813 1.569637665416088e+39
2591.5915915915916 1.556082034982236e+39
2601.6016016016015 1.5424278059792917e+39
2611.611611611612 1.5286928912917428e+39
2621.6216216216217 1.5148940812058022e+39
2631.6316316316315 1.5010470783023423e+39
2641.6416416416414 1.4871665372456294e+39
2651.6516516516517 1.47326610794597e+39
2661.6616616616616 1.4593584808630257e+39
2671.671671671672 1.44545543345866e+39
2681.6816816816818 1.431567877010521e+39
2691.6916916916916 1.4177059031657105e+39
2701.7017017017015 1.4038788297531237e+39
2711.711711711712 1.3900952454877196e+39
2721.7217217217217 1.376363053293959e+39
2731.731731731732 1.3626895120522575e+39
2741.741741741742 1.3490812766344052e+39
2751.7517517517517 1.3355444361438392e+39
2761.7617617617616 1.3220845503165801e+39
2771.7717717717715 1.3087066840701516e+39
2781.781781781782 1.2954154402125233e+39
2791.791791791792 1.2822149903421215e+39
2801.801801801802 1.2691091039843206e+39
2811.811811811812 1.2561011760205023e+39
2821.8218218218217 1.2431942524732936e+39
2831.8318318318316 1.230391054716707e+39
2841.841841841842 1.2176940021830544e+39
2851.851851851852 1.2051052336400293e+39
2861.861861861862 1.192626627111712e+39
2871.871871871872 1.1802598185165911e+39
2881.881881881882 1.1680062190943489e+39
2891.8918918918916 1.1558670316912172e+39
2901.901901901902 1.1438432659713841e+39
2911.911911911912 1.1319357526193426e+39
2921.921921921922 1.1201451565952387e+39
2931.931931931932 1.1084719895024018e+39
2941.941941941942 1.0969166211232525e+39
2951.9519519519517 1.0854792901768351e+39
2961.961961961962 1.074160114348295e+39
2971.971971971972 1.062959099637732e+39
2981.9819819819822 1.0518761490731153e+39
2991.991991991992 1.0409110708292148e+39
3002.002002002002 1.0300635857919675e+39
3012.012012012012 1.0193333346052111e+39
3022.0220220220217 1.008719884234379e+39
3032.032032032032 1.0021669106337315e+39
3042.0420420420423 9.9126825387383e+38
3052.052052052052 9.803545348382324e+38
3062.062062062062 9.694647118949444e+38
3072.072072072072 9.586316910574522e+38
3082.0820820820823 9.478830050744812e+38
3092.092092092092 9.372414360043548e+38
3102.102102102102 9.267255826793651e+38
3112.1121121121123 9.163503753144833e+38
3122.122122122122 9.061275400824884e+38
3132.132132132132 8.96066016826208e+38
3142.1421421421423 8.861723332591286e+38
3152.152152152152 8.764509390596153e+38
3162.162162162162 8.669045032249773e+38
3172.1721721721724 8.575341779461072e+38
3182.1821821821823 8.483398321124555e+38
3192.192192192192 8.393202573768882e+38
3202.202202202202 8.304733495130014e+38
3212.2122122122123 8.217962675930635e+38
3222.222222222222 8.132855733098992e+38
3232.232232232232 8.049373525656746e+38
3242.2422422422424 7.967473212581736e+38
3252.252252252252 7.88710917012996e+38
3262.262262262262 7.808233784396292e+38
3272.2722722722724 7.730798133311771e+38
3282.2822822822823 7.654752570819068e+38
3292.292292292292 7.580047224635294e+38
3302.3023023023025 7.506632417798649e+38
3312.3123123123123 7.434459023096141e+38
3322.322322322322 7.363478758477831e+38
3332.3323323323325 7.293644430669635e+38
3342.3423423423424 7.224910133396003e+38
3352.352352352352 7.157231405905645e+38
3362.3623623623625 7.090565356852874e+38
3372.3723723723724 7.024870758014736e+38
3382.3823823823823 6.960108111814222e+38
3392.3923923923926 6.896239696166747e+38
3402.4024024024025 6.833229589763114e+38
3412.4124124124123 6.77104368054398e+38
3422.4224224224226 6.709649659802372e+38
3432.4324324324325 6.649017004067957e+38
3442.4424424424424 6.58911694667578e+38
3452.4524524524522 6.529922440699256e+38
3462.4624624624626 6.471408114729219e+38
3472.4724724724724 6.413550222805138e+38
3482.4824824824823 6.3563265896481745e+38
3492.4924924924926 6.2997165522072334e+38
3502.5025025025025 6.2437008984052755e+38
3512.5125125125123 6.188261803863698e+38
3522.5225225225226 6.133382767284506e+38
3532.5325325325325 6.079048545082973e+38
3542.5425425425424 6.025245085785951e+38
3552.5525525525527 5.971959464641671e+38
3562.5625625625626 5.919179818825233e+38
3572.5725725725724 5.8668952835688775e+38
3582.5825825825827 5.815095929497145e+38
3592.5925925925926 5.7637727014030256e+38
3602.6026026026025 5.712917358662303e+38
3612.612612612613 5.6625224174483254e+38
3622.6226226226227 5.612581094878459e+38
3632.6326326326325 5.563087255195806e+38
3642.642642642643 5.5140353580652766e+38
3652.6526526526527 5.465420409041201e+38
3662.6626626626626 5.417237912244364e+38
3672.672672672673 5.3694838252694125e+38
3682.6826826826828 5.322154516328403e+38
3692.6926926926926 5.275246723623095e+38
3702.7027027027025 5.2287575169271095e+38
3712.712712712713 5.182684261349049e+38
3722.7227227227227 5.137024583239034e+38
3732.7327327327325 5.0917763381935216e+38
3742.742742742743 5.046937581107336e+38
3752.7527527527527 5.002506538216176e+38
3762.7627627627626 4.958481581068755e+38
3772.772772772773 4.914861202364126e+38
3782.7827827827828 4.871643993586933e+38
3792.7927927927926 4.828828624371239e+38
3802.802802802803 4.78641382352216e+38
3812.812812812813 4.744398361623385e+38
3822.8228228228227 4.702781035158423e+38
3832.832832832833 4.661560652073174e+38
3842.842842842843 4.620736018707886e+38
3852.8528528528527 4.580305928027159e+38
3862.862862862863 4.540269149077664e+38
3872.872872872873 4.5006244176044955e+38
3882.8828828828828 4.461370427758378e+38
3892.892892892893 4.42250582482786e+38
3902.902902902903 4.384029198932081e+38
3912.912912912913 4.345939079611913e+38
3922.922922922923 4.308233931259104e+38
3932.932932932933 4.270912149325365e+38
3942.942942942943 4.233972057255277e+38
3952.9529529529527 4.197411904089375e+38
3962.962962962963 4.16122986268587e+38
3972.972972972973 4.125424028511757e+38
3982.982982982983 4.089992418956384e+38
3992.992992992993 4.054932973122761e+38
4003.003003003003 4.020243552054235e+38
4013.013013013013 3.985921939356161e+38
4023.023023023023 3.951965842174619e+38
4033.033033033033 3.918372892496193e+38
4043.043043043043 3.8851406487349264e+38
4053.053053053053 3.8522665975746675e+38
4063.063063063063 3.819748156036884e+38
4073.073073073073 3.787582673745971e+38
4083.0830830830832 3.755767435365925e+38
4093.093093093093 3.724299663183961e+38
4103.103103103103 3.6931765198184205e+38
4113.113113113113 3.662395111029878e+38
4123.123123123123 3.63195248861592e+38
4133.133133133133 3.601845653371594e+38
4143.143143143143 3.572071558098917e+38
4153.153153153153 3.542627110650107e+38
4163.163163163163 3.5135091769906175e+38
4173.173173173173 3.4847145842691096e+38
4183.183183183183 3.456240123882779e+38
4193.193193193193 3.428082554527383e+38
4203.203203203203 3.400238605222492e+38
4213.213213213214 3.3727049783033073e+38
4223.223223223224 3.3454783523713452e+38
4233.2332332332335 3.318555385197124e+38
4243.243243243243 3.2919327165687665e+38
4253.253253253253 3.265606971081164e+38
4263.263263263263 3.2395747608610395e+38
4273.273273273273 3.2138326882238515e+38
4283.283283283283 3.1883773482591184e+38
4293.293293293293 3.163205331341256e+38
4303.303303303303 3.138313225563514e+38
4313.313313313313 3.113697619093106e+38
4323.323323323323 3.0893551024460044e+38
4333.333333333334 3.0652822706803028e+38
4343.343343343344 3.0414757255074063e+38
4353.353353353354 3.0179320773205877e+38
4363.3633633633635 2.9946479471408245e+38
4373.373373373373 2.9716199684800383e+38
4383.383383383383 2.9488447891221432e+38
4393.393393393393 2.9263190728224995e+38
4403.403403403403 2.904039500926596e+38
4413.413413413413 2.8820027739089313e+38
4423.423423423424 2.860205612833267e+38
4433.4334334334335 2.8386447607354987e+38
4443.443443443443 2.817316983930576e+38
4453.453453453454 2.796219073244959e+38
4463.463463463464 2.7753478451762686e+38
4473.473473473474 2.754700142981687e+38
4483.483483483484 2.7342728376970178e+38
4493.493493493494 2.7140628290880513e+38
4503.503503503503 2.6940670465361788e+38
4513.513513513513 2.674282449860079e+38
4523.523523523523 2.6547060300753754e+38
4533.533533533533 2.6353348100942283e+38
4543.543543543543 2.616165845366711e+38
4553.553553553554 2.597196224465966e+38
4563.563563563564 2.578423069619031e+38
4573.573573573573 2.559843537185248e+38
4583.583583583584 2.5414548180841782e+38
4593.593593593594 2.523254138174897e+38
4603.603603603604 2.5052387585885164e+38
4613.613613613614 2.4874059760158153e+38
4623.623623623624 2.4697531229517265e+38
4633.6336336336335 2.4522775678985195e+38
4643.643643643643 2.4349767155293973e+38
4653.653653653653 2.4178480068142067e+38
4663.663663663663 2.4008889191089674e+38
4673.673673673674 2.3840969662108354e+38
4683.683683683684 2.3674696983801174e+38
4693.693693693694 2.351004702330867e+38
4703.703703703704 2.334699601191611e+38
4713.713713713714 2.3185520544376827e+38
4723.723723723724 2.302559757796563e+38
4733.733733733734 2.286720443127659e+38
4743.743743743744 2.2710318782778807e+38
4753.753753753754 2.25549186691428e+38
4763.763763763764 2.240098248335084e+38
4773.773773773773 2.224848897260285e+38
4783.783783783783 2.2097417236030636e+38
4793.793793793793 2.194774672223098e+38
4803.803803803804 2.1799457226629375e+38
4813.813813813814 2.165252888868498e+38
4823.823823823824 2.150694218894681e+38
4833.833833833834 2.1362677945971555e+38
4843.843843843844 2.121971731311238e+38
4853.853853853854 2.107804177518779e+38
4863.863863863864 2.093763314503987e+38
4873.873873873874 2.079847355998993e+38
4883.883883883884 2.0660545478200148e+38
4893.893893893894 2.0523831674948824e+38
4903.9039039039035 2.038831523882693e+38
4913.913913913913 2.025397956786311e+38
4923.923923923924 2.01208083655841e+38
4933.933933933934 1.9988785637017322e+38
4943.943943943944 1.9857895684641648e+38
4953.953953953955 1.9728123104292936e+38
4963.9639639639645 1.95994527810298e+38
4973.973973973974 1.9471869884965055e+38
4983.983983983984 1.934535986706864e+38
4993.993993993994 1.9219908454946573e+38
5004.004004004004 1.9095501648600932e+38
5014.014014014014 1.8972125716175637e+38
5024.024024024024 1.8849767189692048e+38
5034.0340340340335 1.8728412860778966e+38
5044.044044044043 1.860804977640055e+38
5054.054054054054 1.848866523458626e+38
5064.064064064064 1.837024678016624e+38
5074.074074074074 1.825278220051547e+38
5084.084084084085 1.8136259521310028e+38
5094.0940940940945 1.802066700229844e+38
5104.104104104104 1.7905993133090873e+38
5114.114114114114 1.779222662896905e+38
5124.124124124124 1.767935642671938e+38
5134.134134134134 1.756737168049163e+38
5144.144144144144 1.74562617576855e+38
5154.154154154154 1.734601623486719e+38
5164.1641641641645 1.7236624893717956e+38
5174.174174174174 1.7128077717016568e+38
5184.184184184184 1.702036488465727e+38
5194.194194194194 1.6913476769705066e+38
5204.204204204204 1.6807403934489808e+38
5214.214214214214 1.67021371267403e+38
5224.224224224225 1.659766727576003e+38
5234.2342342342345 1.6493985488645527e+38
5244.244244244244 1.6391083046548482e+38
5254.254254254254 1.6288951400982778e+38
5264.264264264264 1.6187582170177168e+38
5274.274274274274 1.6086967135474683e+38
5284.284284284285 1.598709823777933e+38
5294.294294294295 1.5887967574050903e+38
5304.304304304304 1.5789567393848446e+38
5314.314314314314 1.5691890095923017e+38
5324.324324324324 1.559492822486011e+38
5334.334334334334 1.5498674467772317e+38
5344.344344344345 1.5403121651042314e+38
5354.354354354355 1.5308262737116883e+38
5364.3643643643645 1.5214090821351721e+38
5374.374374374374 1.5120599128907655e+38
5384.384384384384 1.5027781011698106e+38
5394.394394394394 1.4935629945388075e+38
5404.404404404404 1.4844139526444515e+38
5414.414414414415 1.4753303469238287e+38
5424.424424424425 1.4663115603197513e+38
5434.4344344344345 1.4573569870012216e+38
5444.444444444444 1.4484660320890257e+38
5454.454454454454 1.4396381113864325e+38
5464.464464464464 1.4308726511149761e+38
5474.474474474475 1.4221690876553053e+38
5484.484484484485 1.4135268672930672e+38
5494.494494494495 1.4049454459698032e+38
5504.504504504504 1.3964242890388244e+38
5514.514514514514 1.3879628710260215e+38
5524.524524524524 1.3795606753955952e+38
5534.534534534535 1.3712171943206434e+38
5544.544544544545 1.3629319284585808e+38
5554.554554554555 1.3547043867313395e+38
5564.5645645645645 1.3465340861103109e+38
5574.574574574574 1.3384205514059769e+38
5584.584584584584 1.3303633150621893e+38
5594.594594594595 1.322361916955031e+38
5604.604604604605 1.3144159041962416e+38
5614.614614614615 1.3065248309411036e+38
5624.624624624625 1.2986882582007859e+38
5634.6346346346345 1.2909057536590592e+38
5644.644644644644 1.2831768914933321e+38
5654.654654654654 1.275501252199962e+38
5664.664664664665 1.267878422423762e+38
5674.674674674675 1.2603079947916764e+38
5684.684684684685 1.252789567750526e+38
5694.694694694695 1.2453227454087974e+38
5704.704704704704 1.2379071373823992e+38
5714.714714714714 1.2305423586443227e+38
5724.724724724725 1.2232280293781553e+38
5734.734734734735 1.2159637748353764e+38
5744.744744744745 1.2087492251963781e+38
5754.754754754755 1.2015840154351421e+38
5764.764764764765 1.1944677851875248e+38
5774.774774774774 1.1874001786230714e+38
5784.784784784785 1.1803808443203063e+38
5794.794794794795 1.173409435145433e+38
5804.804804804805 1.1664856081343869e+38
5814.814814814815 1.1596090243781698e+38
5824.824824824825 1.1527793489114156e+38
5834.8348348348345 1.1459962506041069e+38
5844.844844844845 1.139259402056409e+38
5854.854854854855 1.1325684794965286e+38
5864.864864864865 1.125923162681558e+38
5874.874874874875 1.1193231348012364e+38
5884.884884884885 1.1127680823845671e+38
