#lamb flux
1000.0 5.216654183904933
1010.01001001001 5.428698042504016
1020.0200200200201 5.6318534759997725
1030.03003003003 5.82590332239191
1040.0400400400401 6.010737593251968
1050.05005005005 6.186340671987838
1060.06006006006 6.352778850452729
1070.07007007007 6.510188439641099
1080.08008008008 6.658764621032704
1090.0900900900901 6.798751147045384
1100.1001001001 6.930430951473643
1110.11011011011 7.054117692817778
1120.1201201201202 7.170148223958493
1130.13013013013 7.2788759595477135
1140.1401401401401 7.380665096622197
1150.1501501501502 7.475885633223308
1160.16016016016 7.564909123241198
1170.1701701701702 7.648105102425667
1180.1801801801803 7.7258381197687465
1190.1901901901902 7.798465309629376
1200.2002002002002 7.866334442513137
1210.2102102102103 7.929782395908632
1220.2202202202202 7.989133990674189
1230.2302302302303 8.044701142894764
1240.2402402402402 8.096782285682467
1250.2502502502502 8.145163411932817
1260.2602602602603 8.188618287502527
1270.2702702702702 8.224696938292736
1280.2802802802803 8.253711611477334
1290.2902902902902 8.275975402880952
1300.3003003003003 8.29180033447193
1310.3103103103103 8.301495680454101
1320.3203203203202 8.305366522577874
1330.3303303303303 8.303712515522394
1340.3403403403404 8.29682684369217
1350.3503503503503 8.284995351461843
1360.3603603603603 8.268495829737544
1370.3703703703704 8.247597442637547
1380.3803803803803 8.2225602790925
1390.3903903903904 8.193635015196067
1400.4004004004005 8.161062674175607
1410.4104104104103 8.125074471882119
1420.4204204204204 8.085891736702258
1430.4304304304305 8.04372589376375
1440.4404404404404 7.998778504229755
1450.4504504504505 7.951241351352601
1460.4604604604606 7.901296565779581
1470.4704704704704 7.849116783371075
1480.4804804804805 7.79486532950456
1490.4904904904906 7.738696424496503
1500.5005005005005 7.6807554053808555
1510.5105105105106 7.621178959838745
1520.5205205205207 7.560095368582577
1530.5305305305305 7.497624752961479
1540.5405405405404 7.433879324978072
1550.5505505505505 7.368963637291594
1560.5605605605606 7.302974831133678
1570.5705705705705 7.236002880384817
1580.5805805805805 7.16813083035462
1590.5905905905906 7.0994350300831215
1600.6006006006005 7.029985357236518
1610.6106106106106 6.95984543491471
1620.6206206206207 6.8890728399234655
1630.6306306306305 6.8177193022975855
1640.6406406406406 6.74583089609733
1650.6506506506507 6.673448221746299
1660.6606606606606 6.60060658044031
1670.6706706706707 6.527336141442827
1680.6806806806808 6.453662103400384
1690.6906906906906 6.37960485117205
1700.7007007007007 6.305200043817949
1710.7107107107108 6.230537989986087
1720.7207207207207 6.1556146567895
1730.7307307307308 6.080412448025959
1740.7407407407409 6.00491160973998
1750.7507507507507 5.929090304766911
1760.7607607607606 5.852924716320847
1770.770770770771 5.77638918789204
1780.7807807807808 5.6994564080647745
1790.7907907907907 5.622097650390399
1800.8008008008007 5.544283080150302
1810.8108108108108 5.46598214170415
1820.8208208208207 5.387164042104207
1830.8308308308308 5.307798348702305
1840.8408408408409 5.2278557204777005
1850.8508508508507 5.147308794614459
1860.8608608608608 5.066133251229565
1870.870870870871 4.984309079784834
1880.8808808808808 4.901822070189156
1890.890890890891 4.818665549375291
1900.900900900901 4.734842379551879
1910.9109109109108 4.650367226597635
1920.920920920921 4.565269095300135
1930.930930930931 4.4795941114344275
1940.940940940941 4.3934085082033505
1950.950950950951 4.306801745758749
1960.960960960961 4.219889657341443
1970.970970970971 4.13281747479442
1980.980980980981 4.045762541784533
1990.9909909909911 3.958936478513125
2001.001001001001 3.872586522283257
2011.0110110110109 3.786995741075175
2021.0210210210212 3.702481810702214
2031.031031031031 3.6193940690717747
2041.0410410410411 3.5381086213900264
2051.051051051051 3.459021372559381
2061.061061061061 3.382539006943554
2071.071071071071 3.3090681133476774
2081.081081081081 3.2390028486810487
2091.091091091091 3.172711724353208
2101.101101101101 3.1105242576824033
2111.1111111111113 3.0527183294563427
2121.121121121121 2.9995091070990987
2131.131131131131 2.9510403203483375
2141.141141141141 2.907378516545577
2151.151151151151 2.8685106932111903
2161.161161161161 2.834345435107257
2171.1711711711714 2.804717405674041
2181.1811811811813 2.779394792094609
2191.191191191191 2.7580891066050968
2201.201201201201 2.740466621384841
2211.2112112112113 2.7261606664492595
2221.221221221221 2.7147840448903575
2231.2312312312315 2.7059409048190726
2241.2412412412414 2.6992375346734296
2251.2512512512512 2.694291698620749
2261.261261261261 2.6907402831540934
2271.271271271271 2.688245169417646
2281.2812812812813 2.686497367450357
2291.2912912912916 2.6852195422957665
2301.3013013013015 2.684167126004111
2311.3113113113113 2.6831282456165115
2321.321321321321 2.6819227092805678
2331.331331331331 2.6804002859499394
2341.3413413413414 2.6784384942123127
2351.3513513513512 2.6759400878205324
2361.3613613613616 2.672830393804491
2371.3713713713714 2.6690546269490834
2381.3813813813813 2.6645752742625772
2391.391391391391 2.6593696162614466
2401.4014014014015 2.65342742916886
2411.4114114114113 2.646748893632704
2421.4214214214217 2.639342721118329
2431.4314314314315 2.631224498304105
2441.4414414414414 2.6224152420800695
2451.4514514514512 2.6129401525693003
2461.4614614614616 2.6028275484298087
2471.4714714714714 2.5921079670784226
2481.4814814814818 2.5808134120015334
2491.4914914914916 2.5689767296471047
2501.5015015015015 2.55663109926181
2511.5115115115113 2.543809620240941
2521.521521521521 2.5305449829428697
2531.5315315315315 2.5168692103723966
2541.541541541542 2.5028134595803593
2551.5515515515517 2.488407873008325
2561.5615615615616 2.473681471295021
2571.5715715715714 2.458662080237649
2581.5815815815813 2.443376285659028
2591.5915915915916 2.427849410870647
2601.6016016016015 2.4121055122465753
2611.611611611612 2.3961673891414548
2621.6216216216217 2.3800566050063625
2631.6316316316315 2.3637935170890265
2641.6416416416414 2.3473973125595378
2651.6516516516517 2.330886049288608
2661.6616616616616 2.314276699831524
2671.671671671672 2.297585197445203
2681.6816816816818 2.2808264831955327
2691.6916916916916 2.2640145534037415
2701.7017017017015 2.247162506839785
2711.711711711712 2.2302825912024367
2721.7217217217217 2.2133862485342513
2731.731731731732 2.196484159308526
2741.741741741742 2.179586284998007
2751.7517517517517 2.162701908993944
2761.7617617617616 2.145839675791633
2771.7717717717715 2.129007628396548
2781.781781781782 2.1122132439353654
2791.791791791792 2.0954634674798585
2801.801801801802 2.078764744109965
2811.811811811812 2.0621230492563454
2821.8218218218217 2.0455439173731502
2831.8318318318316 2.02903246899921
2841.841841841842 2.0125934362710622
2851.851851851852 1.996231186954501
2861.861861861862 1.979949747063101
2871.871871871872 1.9637528221328044
2881.881881881882 1.9476438172212835
2891.8918918918916 1.9316258556997727
2901.901901901902 1.9157017969034265
2911.911911911912 1.8998742527042967
2921.921921921922 1.8841456030686996
2931.931931931932 1.8685180106582735
2941.941941941942 1.8529934345313905
2951.9519519519517 1.8375736429989118
2961.961961961962 1.8222602256856006
2971.971971971972 1.8070546048457705
2981.9819819819822 1.7919580459791624
2991.991991991992 1.776971667790426
3002.002002002002 1.7620964515331181
3012.012012012012 1.7473332497767293
3022.0220220220217 1.7326827946329149
3032.032032032032 1.7235593814874686
3042.0420420420423 1.7084359762775014
3052.052052052052 1.6932445237422988
3062.062062062062 1.6780389337465191
3072.072072072072 1.6628651834249197
3082.0820820820823 1.6477621749664304
3092.092092092092 1.6327625235803702
3102.102102102102 1.617893277702433
3112.1121121121123 1.6031765743569923
3122.122122122122 1.5886302331629627
3132.132132132132 1.5742682928160092
3142.1421421421423 1.5601014940520477
3152.152152152152 1.5461377131378407
3162.162162162162 1.5323823498785545
3172.1721721721724 1.5188386740062727
3182.1821821821823 1.5055081336396172
3192.192192192192 1.4923906292994034
3202.202202202202 1.479484756741896
3212.2122122122123 1.466788021639399
3222.222222222222 1.4542970289051838
3232.232232232232 1.4420076492314102
3242.2422422422424 1.429915165188563
3252.252252252252 1.4180143990254952
3262.262262262262 1.406299824112219
3272.2722722722724 1.3947656617837925
3282.2822822822823 1.3834059651735122
3292.292292292292 1.3722146914669764
3302.3023023023025 1.3611857638651477
3312.3123123123123 1.3503131244136917
3322.322322322322 1.3395907787370114
3332.3323323323325 1.329012833607635
3342.3423423423424 1.3185735281843485
3352.352352352352 1.3082672596646199
3362.3623623623625 1.298088604017971
3372.3723723723724 1.2880323323959157
3382.3823823823823 1.2780934237503452
3392.3923923923926 1.2682670741352415
3402.4024024024025 1.2585487031152809
3412.4124124124123 1.2489339576591765
3422.4224224224226 1.239418713854542
3432.4324324324325 1.229999076744397
3442.4424424424424 1.2206713785525654
3452.4524524524522 1.2114321755358781
3462.4624624624626 1.2022782436747832
3472.4724724724724 1.1932065733904524
3482.4824824824823 1.1842143634553877
3492.4924924924926 1.1752990142456956
3502.5025025025025 1.1664581204662545
3512.5125125125123 1.1576894634648798
3522.5225225225226 1.148991003237985
3532.5325325325325 1.1403608702180348
3542.5425425425424 1.1317973569221622
3552.5525525525527 1.1232989095314856
3562.5625625625626 1.1148641194618225
3572.5725725725724 1.1064917149785898
3582.5825825825827 1.0981805529015478
3592.5925925925926 1.089929610438638
3602.6026026026025 1.0817379771824305
3612.612612612613 1.0736048472975317
3622.6226226226227 1.0655295119226653
3632.6326326326325 1.057511351806991
3642.642642642643 1.0495498301965265
3652.6526526526527 1.0416444859831702
3662.6626626626626 1.03379492712588
3672.672672672673 1.0260008243509184
3682.6826826826828 1.0182619051356985
3692.6926926926926 1.0105779479786912
3702.7027027027025 1.0029487769559902
3712.712712712713 0.9953742565635367
3722.7227227227227 0.9878542868425557
3732.7327327327325 0.9803887987844989
3742.742742742743 0.97297775001077
3752.7527527527527 0.9656211207215141
3762.7627627627626 0.9583189099070146
3772.772772772773 0.9510711318145642
3782.7827827827828 0.9438778126631163
3792.7927927927926 0.9367389875975891
3802.802802802803 0.9296546978743468
3812.812812812813 0.9226249882690882
3822.8228228228227 0.9156499046982028
3832.832832832833 0.9087294920445146
3842.842842842843 0.9018637921782691
3852.8528528528527 0.895052842164205
3862.862862862863 0.8882966726455892
3872.872872872873 0.881595306396173
3882.8828828828828 0.8749487570311195
3892.892892892893 0.8683570278681506
3902.902902902903 0.8618201109302625
3912.912912912913 0.8553379860816218
3922.922922922923 0.8489106202884357
3932.932932932933 0.8425379669968425
3942.942942942943 0.8362199656200978
3952.9529529529527 0.8299565411276163
3962.962962962963 0.8237476037286842
3972.972972972973 0.8175930486439251
3982.982982982983 0.8114927559578995
3992.992992992993 0.8054465905464776
4003.003003003003 0.7994544020729374
4013.013013013013 0.7935160250469777
4023.023023023023 0.7876312789411607
4033.033033033033 0.7817999683595412
4043.043043043043 0.7760218832535274
4053.053053053053 0.7702967991802797
4063.063063063063 0.7646244775992163
4073.073073073073 0.7590046662024413
4083.0830830830832 0.7534370992751754
4093.093093093093 0.7479214980824851
4103.103103103103 0.7424575712788568
4113.113113113113 0.7370450153373845
4123.123123123123 0.7316835149955316
4133.133133133133 0.7263727437146779
4143.143143143143 0.7211123641508161
4153.153153153153 0.7159020286339849
4163.163163163163 0.7107413796541812
4173.173173173173 0.7056300503516989
4183.183183183183 0.7005676650099684
4193.193193193193 0.6955538395491605
4203.203203203203 0.6905881820189452
4213.213213213214 0.6856702930889534
4223.223223223224 0.6807997665355993
4233.2332332332335 0.6759761897240738
4243.243243243243 0.6711991440844167
4253.253253253253 0.6664682055806956
4263.263263263263 0.6617829451724241
4273.273273273273 0.6571429292674431
4283.283283283283 0.652547720165586
4293.293293293293 0.6479968764925403
4303.303303303303 0.6434899536233755
4313.313313313313 0.639026504095312
4323.323323323323 0.6346060780093452
4333.333333333334 0.6302282234204257
4343.343343343344 0.6258924867159456
4353.353353353354 0.6215984129823274
4363.3633633633635 0.6173455463595826
4373.373373373373 0.6131334303837355
4383.383383383383 0.6089616083170553
4393.393393393393 0.6048296234660859
4403.403403403403 0.6007370194874848
4413.413413413413 0.5966833406817245
4423.423423423424 0.5926681322747381
4433.4334334334335 0.5886909406876124
4443.443443443443 0.5847513137944576
4453.453453453454 0.5808488011686068
4463.463463463464 0.576982954317319
4473.473473473474 0.5731533269051554
4483.483483483484 0.5693594749662562
4493.493493493494 0.565600957105706
4503.503503503503 0.5618773346902324
4513.513513513513 0.5581881720284628
4523.523523523523 0.5545330365409786
4533.533533533533 0.5509114989204326
4543.543543543543 0.5473231332819618
4553.553553553554 0.5437675173041727
4563.563563563564 0.5402442323609535
4573.573573573573 0.5367528636443761
4583.583583583584 0.5332930002789583
4593.593593593594 0.5298642354275478
4603.603603603604 0.5264661663890956
4613.613613613614 0.5230983946885868
4623.623623623624 0.5197605261593833
4633.6336336336335 0.5164521710182494
4643.643643643643 0.5131729439333146
4653.653653653653 0.509922464085226
4663.663663663663 0.5067003552217486
4673.673673673674 0.5035062457060596
4683.683683683684 0.500339768558978
4693.693693693694 0.49720056149537467
4703.703703703704 0.49408826695499525
4713.713713713714 0.49100253212792816
4723.723723723724 0.48794300897494375
4733.733733733734 0.48490935424292303
4743.743743743744 0.48190122947559755
4753.753753753754 0.47891830101980454
4763.763763763764 0.4759602400274692
4773.773773773773 0.4730267224535052
4783.783783783783 0.47011742904984244
4793.793793793793 0.4672320453557551
4803.803803803804 0.4643702616846859
4813.813813813814 0.4615317731077415
4823.823823823824 0.4587162794340316
4833.833833833834 0.4559234851880199
4843.843843843844 0.4531530995840541
4853.853853853854 0.4504048364982257
4863.863863863864 0.4476784144377193
4873.873873873874 0.44497355650779397
4883.883883883884 0.44228999037654393
4893.893893893894 0.439627448237573
4903.9039039039035 0.43698566677071693
4913.913913913913 0.4343643871009446
4923.923923923924 0.43176335475555716
4933.933933933934 0.4291823196198118
4943.943943943944 0.4266210358910757
4953.953953953955 0.42407926203163065
4963.9639639639645 0.4215567607202295
4973.973973973974 0.419053298802506
4983.983983983984 0.4165686472403417
4993.993993993994 0.41410258106027925
5004.004004004004 0.41165487930107575
5014.014014014014 0.4092253249604855
5024.024024024024 0.406813704941347
5034.0340340340335 0.40441980999706806
5044.044044044043 0.4020434346765725
5054.054054054054 0.39968437726878975
5064.064064064064 0.3973424397467564
5074.074074074074 0.3950174277113939
5084.084084084085 0.3927091503350288
5094.0940940940945 0.39041742030471993
5104.104104104104 0.38814205376544275
5114.114114114114 0.3858828702631954
5124.124124124124 0.3836396926880734
5134.134134134134 0.3814123472173674
5144.144144144144 0.3792006632587283
5154.154154154154 0.3770044733934494
5164.1641641641645 0.3748236133199055
5174.174174174174 0.37265792179719254
5184.184184184184 0.37050724058900414
5194.194194194194 0.36837141440778365
5204.204204204204 0.3662502908591879
5214.214214214214 0.36414372038689113
5224.224224224225 0.36205155621776375
5234.2342342342345 0.3599736543074544
5244.244244244244 0.3579098732864007
5254.254254254254 0.35586007440629824
5264.264264264264 0.3538241214870463
5274.274274274274 0.35180188086419967
5284.284284284285 0.3497932213369415
5294.294294294295 0.34779801411660033
5304.304304304304 0.34581613277572676
5314.314314314314 0.34384745319775056
5324.324324324324 0.34189185352722845
5334.334334334334 0.3399492141207028
5344.344344344345 0.3380194174981768
5354.354354354355 0.33610234829522745
5364.3643643643645 0.3341978932157574
5374.374374374374 0.332305940985403
5384.384384384384 0.33042638230560306
5394.394394394394 0.3285591098083379
5404.404404404404 0.3267040180115437
5414.414414414415 0.3248610032752115
5424.424424424425 0.3230299637581716
5434.4344344344345 0.3212107993755712
5444.444444444444 0.31940341175704523
5454.454454454454 0.317607704205589
5464.464464464464 0.3158235816571258
5474.474474474475 0.3140509506407801
5484.484484484485 0.3122897192398499
5494.494494494495 0.31053979705348195
5504.504504504504 0.3088010951590487
5514.514514514514 0.3070735260752238
5524.524524524524 0.3053570037257594
5534.534534534535 0.3036514434039558
5544.544544544545 0.3019567617378282
5554.554554554555 0.30027287665596175
5564.5645645645645 0.2985997073540544
5574.574574574574 0.2969371742621439
5584.584584584584 0.2952851990125114
5594.594594594595 0.29364370440825965
5604.604604604605 0.29201261439256243
5614.614614614615 0.2903918540185726
5624.624624624625 0.28878134941999245
5634.6346346346345 0.2871810277822938
5644.644644644644 0.2855908173145828
5654.654654654654 0.2840106472221054
5664.664664664665 0.2824404476793824
5674.674674674675 0.2808801498039743
5684.684684684685 0.2793296856308572
5694.694694694695 0.27778898808741576
5704.704704704704 0.27625799096903547
5714.714714714714 0.27473662891529127
5724.724724724725 0.2732248373867237
5734.734734734735 0.271722552642194
5744.744744744745 0.2702297117168114
5754.754754754755 0.268746252400422
5764.764764764765 0.26727211321665423
5774.774774774774 0.26580723340250995
5784.784784784785 0.2643515528884925
5794.794794794795 0.26290501227926605
5804.804804804805 0.26146755283483386
5814.814814814815 0.2600391164522302
5824.824824824825 0.2586196456477145
5834.8348348348345 0.25720908353946087
5844.844844844845 0.2558073738307347
5854.854854854855 0.2544144607935446
5864.864864864865 0.253030289252764
5874.874874874875 0.25165480457071326
5884.884884884885 0.2502879526321921
5894.894894894895 0.24892967982995448
5904.9049049049045 0.24757993305061796
5914.914914914915 0.24623865966099803
5924.924924924925 0.2449058074948594
5934.934934934935 0.24358132484007394
5944.944944944945 0.24226516042618043
5954.954954954955 0.24095726341233345
5964.964964964965 0.23965758337563617
5974.974974974975 0.23836607029984716
5984.984984984985 0.2370826745644538
5994.994994994995 0.23580734693410227
6005.005005005005 0.23454003854837904
6015.015015015015 0.23328070091193331
6025.025025025025 0.23202928588493318
6035.035035035035 0.23078574567384816
6045.045045045045 0.2295500328225496
6055.055055055055 0.22832210020372132
6065.065065065065 0.22710190101057381
6075.075075075075 0.22588938874885262
6085.085085085085 0.22468451722913566
6095.0950950950955 0.22348724055941066
6105.105105105105 0.22229751313792598
6115.115115115115 0.22111528964630697
6125.125125125125 0.2199405250429328
6135.135135135135 0.21877317455656475
6145.145145145145 0.21761319368021922
6155.155155155155 0.21646053816528146
6165.1651651651655 0.2153151640158488
6175.175175175175 0.21417702748330217
6185.185185185185 0.21304608506109418
6195.195195195195 0.21192229347975272
6205.205205205205 0.21080560970208914
6215.215215215215 0.20969599091860822
6225.225225225226 0.20859339454311301
6235.235235235235 0.2074977782084973
6245.245245245245 0.20640909976272312
6255.255255255255 0.20532731726497416
6265.265265265265 0.20425238898198145
6275.275275275275 0.20318427338451653
6285.285285285286 0.2021229291440446
6295.295295295296 0.2010683151295349
6305.305305305305 0.20002039040442035
6315.315315315315 0.19897911422370565
6325.325325325325 0.19794444603121414
6335.335335335335 0.19691634545697223
6345.345345345346 0.1958947723147251
6355.355355355356 0.19487968659957935
6365.3653653653655 0.19387104848576886
