#lamb flux
1000.0 2.788174147395337e-08
1010.01001001001 3.6105551536457205e-08
1020.0200200200201 4.648831154376637e-08
1030.03003003003 5.952633964643867e-08
1040.0400400400401 7.581351989559179e-08
1050.05005005005 9.605708826752067e-08
1060.06006006006 1.2109537533877673e-07
1070.07007007007 1.5191766002654104e-07
1080.08008008008 1.8968629027389667e-07
1090.0900900900901 2.3576122681402306e-07
1100.1001001001 2.917271651177931e-07
1110.11011011011 3.5942338825444524e-07
1120.1201201201202 4.409764996275382e-07
1130.13013013013 5.388361793551176e-07
1140.1401401401401 6.558141014259747e-07
1150.1501501501502 7.951261406802699e-07
1160.16016016016 9.6043798914583e-07
1170.1701701701702 1.1559142903389893e-06
1180.1801801801803 1.3862713878548606e-06
1190.1901901901902 1.6568337709837575e-06
1200.2002002002002 1.973594285270968e-06
1210.2102102102103 2.3432781599695937e-06
1220.2202202202202 2.773410887319432e-06
1230.2302302302303 3.2723899706246513e-06
1240.2402402402402 3.849560539317291e-06
1250.2502502502502 4.515270874932187e-06
1260.2602602602603 5.280908247707947e-06
1270.2702702702702 6.158921759982627e-06
1280.2802802802803 7.1631302907905575e-06
1290.2902902902902 8.308697292368364e-06
1300.3003003003003 9.61222192509011e-06
1310.3103103103103 1.109183271968909e-05
1320.3203203203202 1.276728355269929e-05
1330.3303303303303 1.466005170138224e-05
1340.3403403403404 1.6793437725539558e-05
1350.3503503503503 1.9192666905665283e-05
1360.3603603603603 2.1884991949966668e-05
1370.3703703703704 2.489979666695959e-05
1380.3803803803803 2.8268700285714455e-05
1390.3903903903904 3.202566209243682e-05
1400.4004004004005 3.6207086039969394e-05
1410.4104104104103 4.0851924976034296e-05
1420.4204204204204 4.600178412659929e-05
1430.4304304304305 5.170102346266317e-05
1440.4404404404404 5.7996858571988155e-05
1450.4504504504505 6.493945965183628e-05
1460.4604604604606 7.258204823453371e-05
1470.4704704704704 8.09809912546423e-05
1480.4804804804805 9.01958920645585e-05
1490.4904904904906 0.00010028967800441262
1500.5005005005005 0.00011132868413206968
1510.5105105105106 0.00012338273271973496
1520.5205205205207 0.00013652520812494712
1530.5305305305305 0.0001508331266455256
1540.5405405405404 0.00016638720097004767
1550.5505505505505 0.0001832718988375533
1560.5605605605606 0.0002015754955221998
1570.5705705705705 0.00022139011976025889
1580.5805805805805 0.0002428117927380061
1590.5905905905906 0.00026594045975943993
1600.6006006006005 0.00029088001421216045
1610.6106106106106 0.0003177383134479542
1620.6206206206207 0.0003466271861914259
1630.6306306306305 0.00037766243108526136
1640.6406406406406 0.0004109638059742852
1650.6506506506507 0.0004466550075222146
1660.6606606606606 0.00048486364074522894
1670.6706706706707 0.0005257211780349312
1680.6806806806808 0.0005693629072307878
1690.6906906906906 0.0006159278682889937
1700.7007007007007 0.0006655589602932734
1710.7107107107108 0.0007184033296604584
1720.7207207207207 0.0007746109279399814
1730.7307307307308 0.0008343349714377688
1740.7407407407409 0.000897731905886925
1750.7507507507507 0.0009649612618155175
1760.7607607607606 0.0010361854951418208
1770.770770770771 0.0011115698126811992
1780.7807807807808 0.0011912819823696103
1790.7907907907907 0.0012754921281858077
1800.8008008008007 0.0013643725100052043
1810.8108108108108 0.001458097288965829
1820.8208208208207 0.001556842279397826
1830.8308308308308 0.001660784688994786
1840.8408408408409 0.0017701028497273464
1850.8508508508507 0.0018849759430591938
1860.8608608608608 0.002005583724371789
1870.870870870871 0.0021321062531859322
1880.8808808808808 0.002264723637830942
1890.890890890891 0.0024036158056928063
1900.900900900901 0.0025489623130823917
1910.9109109109108 0.0027009422120796733
1920.920920920921 0.002859733995341075
1930.930930930931 0.003025515643629709
1940.940940940941 0.0031984648044386015
1950.950950950951 0.003378759133064174
1960.960960960961 0.0035665768291915393
1970.970970970971 0.003762097401599375
1980.980980980981 0.00396550268989659
1990.9909909909911 0.00417697816402811
2001.001001001001 0.0043967145083763275
2011.0110110110109 0.004624909476583167
2021.0210210210212 0.004861769975208795
2031.031031031031 0.0051075142994687975
2041.0410410410411 0.005362374404410636
2051.051051051051 0.0056265980536657385
2061.061061061061 0.0059004506509519015
2071.071071071071 0.006184216534079778
2081.081081081081 0.00647819950540338
2091.091091091091 0.006782722393805072
2101.101101101101 0.007098125496070543
2111.1111111111113 0.00742476382979801
2121.121121121121 0.007763003239474853
2131.131131131131 0.008113215519291398
2141.141141141141 0.008475772832950286
2151.151151151151 0.008851041802753742
2161.161161161161 0.009239377690726244
2171.1711711711714 0.009641119093241557
2181.1811811811813 0.01005658351675746
2191.191191191191 0.010486064104790976
2201.201201201201 0.010929827661804671
2211.2112112112113 0.011388113988520606
2221.221221221221 0.011861136424745825
2231.2312312312315 0.012349083404808253
2241.2412412412414 0.012852120775026446
2251.2512512512512 0.013370394603070709
2261.261261261261 0.013904034220689702
2271.271271271271 0.014453155275668605
2281.2812812812813 0.015017862616504679
2291.2912912912916 0.015598252885337728
2301.3013013013015 0.01619441674428929
2311.3113113113113 0.01680644070305012
2321.321321321321 0.017434408549065483
2331.331331331331 0.018078402405567438
2341.3413413413414 0.018738503457780373
2351.3513513513512 0.019414792395364165
2361.3613613613616 0.02010734962128034
2371.3713713713714 0.020816255275453072
2381.3813813813813 0.021541589117301658
2391.391391391391 0.022283430305601353
2401.4014014014015 0.023041857108038594
2411.4114114114113 0.023816946566846128
2421.4214214214217 0.02460877414139315
2431.4314314314315 0.02541741334375371
2441.4414414414414 0.02624293537915679
2451.4514514514512 0.027085408799826512
2461.4614614614616 0.027944899177994465
2471.4714714714714 0.028821468801730317
2481.4814814814818 0.029715176395607768
2491.4914914914916 0.030626076867002038
2501.5015015015015 0.031554221077942396
2511.5115115115113 0.032499655641823035
2521.521521521521 0.03346242274387271
2531.5315315315315 0.03444255998403064
2541.541541541542 0.0354401002407406
2551.5515515515517 0.036455071554125085
2561.5615615615616 0.03748749702701052
2571.5715715715714 0.03853739474232177
2581.5815815815813 0.039604777695441684
2591.5915915915916 0.04068965374021972
2601.6016016016015 0.04179202554741258
2611.611611611612 0.04291189057444021
2621.6216216216217 0.04404924104543765
2631.6316316316315 0.045204063940678184
2641.6416416416414 0.04637634099453247
2651.6516516516517 0.047566048701208286
2661.6616616616616 0.04877315832759177
2671.671671671672 0.049997635932580435
2681.6816816816818 0.05123944239235502
2691.6916916916916 0.052498533431098185
2701.7017017017015 0.05377485965671249
2711.711711711712 0.05506836660113421
2721.7217217217217 0.05637899476488185
2731.731731731732 0.0577066796655066
2741.741741741742 0.059051351889646615
2751.7517517517517 0.06041293714841194
2761.7617617617616 0.06179135633585037
2771.7717717717715 0.06318652559026425
2781.781781781782 0.06459835635816868
2791.791791791792 0.06602675546069658
2801.801801801802 0.06747162516226766
2811.811811811812 0.06893286324135771
2821.8218218218217 0.07041036306320549
2831.8318318318316 0.0719040136543166
2841.841841841842 0.07341369977862051
2851.851851851852 0.07493930201515518
2861.861861861862 0.07648069683715204
2871.871871871872 0.07803775669240803
2881.881881881882 0.07961035008483129
2891.8918918918916 0.08119834165705456
2901.901901901902 0.08280159227401827
2911.911911911912 0.08441995910742085
2921.921921921922 0.08605329572095098
2931.931931931932 0.08770145215620567
2941.941941941942 0.08936427501921408
2951.9519519519517 0.09104160756748107
2961.961961961962 0.09273328979747471
2971.971971971972 0.0944391585324769
2981.9819819819822 0.09615904751073037
2991.991991991992 0.09789278747380266
3002.002002002002 0.09964020625510721
3012.012012012012 0.10140112886850854
3022.0220220220217 0.10317537759695104
3032.032032032032 0.10499137047746616
3042.0420420420423 0.10678867489975528
3052.052052052052 0.10859756291222578
3062.062062062062 0.11041806790940577
3072.072072072072 0.11225020326658476
3082.0820820820823 0.11409396327032346
3092.092092092092 0.11594932403546251
3102.102102102102 0.1178162444061588
3112.1121121121123 0.11969466683890806
3122.122122122122 0.12158451826592215
3132.132132132132 0.12348571093754004
3142.1421421421423 0.12539814324264634
3152.152152152152 0.1273217005063097
3162.162162162162 0.12925625576406638
3172.1721721721724 0.13120167051244455
3182.1821821821823 0.13315779543548384
3192.192192192192 0.13512447110712386
3202.202202202202 0.13710152866945458
3212.2122122122123 0.1390887904869094
3222.222222222222 0.1410860707765531
3232.232232232232 0.14309317621470133
3242.2422422422424 0.1451099065201426
3252.252252252252 0.1471360550142971
3262.262262262262 0.14917140915867685
3272.2722722722724 0.15121575107004903
3282.2822822822823 0.1532688580137294
3292.292292292292 0.15533050287545633
3302.3023023023025 0.15740045461231586
3312.3123123123123 0.15947847868319634
3322.322322322322 0.1615643374592757
3332.3323323323325 0.16365779061504232
3342.3423423423424 0.16575859550036176
3352.352352352352 0.1678665074941091
3362.3623623623625 0.1699812803398886
3372.3723723723724 0.17210266646435904
3382.3823823823823 0.1742304172786964
3392.3923923923926 0.17636428346371155
3402.4024024024025 0.17850401523914622
3412.4124124124123 0.1806493626176688
3422.4224224224226 0.1828000756440848
3432.4324324324325 0.1849559046202699
3442.4424424424424 0.1871166003163445
3452.4524524524522 0.18928191416857457
3462.4624624624626 0.19145159846450946
3472.4724724724724 0.19362540651583787
3482.4824824824823 0.19580309281944341
3492.4924924924926 0.1979844132071384
3502.5025025025025 0.2001691249845373
3512.5125125125123 0.20235698705952984
3522.5225225225226 0.20454776006080203
3532.5325325325325 0.2067412064468444
3542.5425425425424 0.2089370906058784
3552.5525525525527 0.211135178947119
3562.5625625625626 0.21333523998379114
3572.5725725725724 0.21553704440828733
3582.5825825825827 0.21774036515987288
3592.5925925925926 0.21994497748530353
3602.6026026026025 0.22215065899273537
3612.612612612613 0.22435718969928162
3622.6226226226227 0.22656435207255815
3632.6326326326325 0.22877193106656785
3642.642642642643 0.23097971415223842
3652.6526526526527 0.2331874913429316
3662.6626626626626 0.23539505521523268
3672.672672672673 0.23760220092531262
3682.6826826826828 0.23980872622113802
3692.6926926926926 0.242014431450816
3702.7027027027025 0.24421911956732206
3712.712712712713 0.24642259612987386
3722.7227227227227 0.24862466930218396
3732.7327327327325 0.25082514984782733
3742.742742742743 0.2530238511229455
3752.7527527527527 0.2552205890664985
3762.7627627627626 0.2574151821882615
3772.772772772773 0.25960745155477233
3782.7827827827828 0.2617972207733962
3792.7927927927926 0.26398431597469607
3802.802802802803 0.2661685657932704
3812.812812812813 0.2683498013472112
3822.8228228228227 0.2705278562163388
3832.832832832833 0.27270256641934754
3842.842842842843 0.2748737703900044
3852.8528528528527 0.277041308952515
3862.862862862863 0.2792050252961844
3872.872872872873 0.28136476494948137
3882.8828828828828 0.28352037575360484
3892.892892892893 0.28567170783566354
3902.902902902903 0.28781861358154237
3912.912912912913 0.28996094760855773
3922.922922922923 0.2920985667379689
3932.932932932933 0.29423132996742485
3942.942942942943 0.29635909844341296
3952.9529529529527 0.2984817354337761
3962.962962962963 0.3005991063003451
3972.972972972973 0.3027110784717563
3982.982982982983 0.3048175214164901
3992.992992992993 0.30691830661617536
4003.003003003003 0.30901330753920875
4013.013013013013 0.3111023996147172
4023.023023023023 0.31318546020689586
4033.033033033033 0.3152623685897576
4043.043043043043 0.3173330059223096
4053.053053053053 0.31939725522418877
4063.063063063063 0.3214550013517698
4073.073073073073 0.3235061309747617
4083.0830830830832 0.325550532553313
4093.093093093093 0.3275880963156296
4103.103103103103 0.32961871423611694
4113.113113113113 0.3316422800140593
4123.123123123123 0.33365868905282703
4133.133133133133 0.3356678384396322
4143.143143143143 0.3376696269258162
4153.153153153153 0.3396639549076847
4163.163163163163 0.3416507244078747
4173.173173173173 0.3436298390572594
4183.183183183183 0.3456012040773796
4193.193193193193 0.3475647262634012
4203.203203203203 0.3495203139675845
4213.213213213214 0.3514678770832679
4223.223223223224 0.3534073270293429
4233.2332332332335 0.3553385767352248
4243.243243243243 0.3572615406262973
4253.253253253253 0.3591761346098239
4263.263263263263 0.3610822760613198
4273.273273273273 0.36297988381135876
4283.283283283283 0.3648688781328159
4293.293293293293 0.3667491807285241
4303.303303303303 0.36862071471933444
4313.313313313313 0.3704834046325665
4323.323323323323 0.372337176390831
4333.333333333334 0.37418195730121906
4343.343343343344 0.3760176760448291
4353.353353353354 0.3778442626666395
4363.3633633633635 0.3796616485656828
4373.373373373373 0.3814697664855409
4383.383383383383 0.3832685505051104
4393.393393393393 0.3850579360296623
4403.403403403403 0.3868378597821475
4413.413413413413 0.3886082597947553
4423.423423423424 0.390369075400705
4433.4334334334335 0.39212024722625416
4443.443443443443 0.3938617171829122
4453.453453453454 0.39559342845985085
4463.463463463464 0.3973153255164866
4473.473473473474 0.3990273540752366
4483.483483483484 0.40072946111442326
4493.493493493494 0.40242159486132184
4503.503503503503 0.4041037047853404
4513.513513513513 0.4057757415913166
4523.523523523523 0.40743765721291725
4533.533533533533 0.40908940480614053
4543.543543543543 0.4107309387428989
4553.553553553554 0.41236221460467914
4563.563563563564 0.41398318917626553
4573.573573573573 0.41559382043952003
4583.583583583584 0.41719406756720856
4593.593593593594 0.4187838909168633
4603.603603603604 0.42036325202467406
4613.613613613614 0.421932113599402
4623.623623623624 0.4234904395163023
4633.6336336336335 0.4250381948110547
4643.643643643643 0.42657534567369165
4653.653653653653 0.4281018594425151
4663.663663663663 0.42961770459800164
4673.673673673674 0.43112285075668205
4683.683683683684 0.43261726866499534
4693.693693693694 0.4341009301931106
4703.703703703704 0.4355738083287093
4713.713713713714 0.43703587717072373
4723.723723723724 0.43848711192303097
4733.733733733734 0.4399274888880904
4743.743743743744 0.44135698546052926
4753.753753753754 0.4427755801206671
4763.763763763764 0.4441832524279772
4773.773773773773 0.4455799830144829
4783.783783783783 0.44696575357808366
4793.793793793793 0.4483405468758116
4803.803803803804 0.44970434671701126
4813.813813813814 0.4510571379564467
4823.823823823824 0.452398906487332
4833.833833833834 0.45372963923427595
4843.843843843844 0.45504932414615573
4853.853853853854 0.4563579501889005
4863.863863863864 0.45765550733819804
4873.873873873874 0.4589419865721163
4883.883883883884 0.4602173798636395
4893.893893893894 0.4614816801731229
4903.9039039039035 0.4627348814406645
4913.913913913913 0.4639769785783868
4923.923923923924 0.4652079674626432
4933.933933933934 0.4664278449261306
4943.943943943944 0.467636608749932
4953.953953953955 0.4688342576554641
4963.9639639639645 0.4700207912963523
4973.973973973974 0.47119621025022207
4983.983983983984 0.4723605160104117
4993.993993993994 0.47351371097760675
5004.004004004004 0.47465579845139866
5014.014014014014 0.47578678262176816
5024.024024024024 0.47690666856049424
5034.0340340340335 0.4780154622124921
5044.044044044043 0.4791131703870816
5054.054054054054 0.48019980074918545
5064.064064064064 0.4812753618104659
5074.074074074074 0.48233986292039016
5084.084084084085 0.4833933142572401
5094.0940940940945 0.4844357268190581
5104.104104104104 0.48546711241453766
5114.114114114114 0.4864874836538589
5124.124124124124 0.48749685393946585
5134.134134134134 0.4884952374568003
5144.144144144144 0.489482649164982
5154.154154154154 0.4904591047874479
5164.1641641641645 0.4914246208025412
5174.174174174174 0.49237921443406707
5184.184184184184 0.49332290364180537
5194.194194194194 0.4942557071119885
5204.204204204204 0.4951776442477496
5214.214214214214 0.49608873515953456
5224.224224224225 0.4969890006554905
5234.2342342342345 0.49787846223182836
5244.244244244244 0.49875714206316074
5254.254254254254 0.49962506299282466
5264.264264264264 0.50048224852318
5274.274274274274 0.5013287228059001
5284.284284284285 0.5021645106322462
5294.294294294295 0.5029896374233329
5304.304304304304 0.5038041292203891
5314.314314314314 0.504608012675013
5324.324324324324 0.5054013150394235
5334.334334334334 0.5061840641567165
5344.344344344345 0.5069562884511243
5354.354354354355 0.5077180169182731
5364.3643643643645 0.5084692791154612
5374.374374374374 0.5092101051519389
5384.384384384384 0.5099405256792059
5394.394394394394 0.5106605718813215
5404.404404404404 0.5113702754652343
5414.414414414415 0.5120696686511331
5424.424424424425 0.5127587841628206
5434.4344344344345 0.513437655218108
5444.444444444444 0.5141063155192406
5454.454454454454 0.5147647992433537
5464.464464464464 0.5154131410329543
5474.474474474475 0.5160513759864434
5484.484484484485 0.5166795396486668
5494.494494494495 0.5172976680015088
5504.504504504504 0.5179057974545254
5514.514514514514 0.5185039648356128
5524.524524524524 0.5190922073817286
5534.534534534535 0.5196705627296484
5544.544544544545 0.5202390689067806
5554.554554554555 0.5207977643220159
5564.5645645645645 0.5213466877566438
5574.574574574574 0.521885878355306
5584.584584584584 0.5224153756170138
5594.594594594595 0.5229352193862158
5604.604604604605 0.5234454498439258
5614.614614614615 0.5239461074989062
5624.624624624625 0.5244372331789113
5634.6346346346345 0.5249188680219968
5644.644644644644 0.5253910534678841
5654.654654654654 0.5258538312493948
5664.664664664665 0.5263072433839469
5674.674674674675 0.5267513321651199
5684.684684684685 0.5271861401542836
5694.694694694695 0.527611710172301
5704.704704704704 0.5280280852912953
5714.714714714714 0.5284353088264918
5724.724724724725 0.5288334243281295
5734.734734734735 0.5292224755734454
5744.744744744745 0.5296025065587333
5754.754754754755 0.5299735614914769
5764.764764764765 0.5303356847825575
5774.774774774774 0.5306889210385383
5784.784784784785 0.5310333150540254
5794.794794794795 0.5313689118041053
5804.804804804805 0.5316957564368628
5814.814814814815 0.5320138942659752
5824.824824824825 0.5323233707633871
5834.8348348348345 0.5326242315520633
5844.844844844845 0.5329165223988289
5854.854854854855 0.5332002892072767
5864.864864864865 0.5334755780107693
5874.874874874875 0.5337424349655173
5884.884884884885 0.5340009063437373
5894.894894894895 0.5342510385268954
5904.9049049049045 0.5344928779990313
5914.914914914915 0.5347264713401695
5924.924924924925 0.5349518652198054
5934.934934934935 0.5351691063904805
5944.944944944945 0.5353782416814451
5954.954954954955 0.5355793179923889
5964.964964964965 0.5357723822872743
5974.974974974975 0.5359574815882395
5984.984984984985 0.5361346629695902
5994.994994994995 0.536303973551877
6005.005005005005 0.53646546049605
6015.015015015015 0.5366191709977052
6025.025025025025 0.5367651522814061
6035.035035035035 0.5369034515950936
6045.045045045045 0.5370341162045793
6055.055055055055 0.5371571933881184
6065.065065065065 0.5372727304310687
6075.075075075075 0.5373807746206284
6085.085085085085 0.5374813732406629
6095.0950950950955 0.537574573566605
6105.105105105105 0.537660422860445
6115.115115115115 0.537738968365796
6125.125125125125 0.537810257303044
6135.135135135135 0.5378743368645811
6145.145145145145 0.5379312542101097
6155.155155155155 0.5379810564620399
6165.1651651651655 0.5380237907009549
6175.175175175175 0.5380595039611643
6185.185185185185 0.5380882432263319
6195.195195195195 0.5381100554251812
