#lamb flux
1000.0 7.248233459238454e+40
1010.01001001001 7.375845761491279e+40
1020.0200200200201 7.491290601449329e+40
1030.03003003003 7.595057984780653e+40
1040.0400400400401 7.687670640361793e+40
1050.05005005005 7.7696736494344365e+40
1060.06006006006 7.841625466115605e+40
1070.07007007007 7.904090237572262e+40
1080.08008008008 7.957631320215126e+40
1090.0900900900901 8.002805882313579e+40
1100.1001001001 8.040160482088416e+40
1110.11011011011 8.07022751242321e+40
1120.1201201201202 8.093522407873587e+40
1130.13013013013 8.110541515858561e+40
1140.1401401401401 8.121760541160975e+40
1150.1501501501502 8.127633480658401e+40
1160.16016016016 8.128591973180795e+40
1170.1701701701702 8.125044997273125e+40
1180.1801801801803 8.117378857235527e+40
1190.1901901901902 8.105957404987322e+40
1200.2002002002002 8.091122451972396e+40
1210.2102102102103 8.073194331445484e+40
1220.2202202202202 8.052472577035756e+40
1230.2302302302303 8.029236688479484e+40
1240.2402402402402 8.003746959866019e+40
1250.2502502502502 7.975950144786111e+40
1260.2602602602603 7.945200843850696e+40
1270.2702702702702 7.910164650980386e+40
1280.2802802802803 7.871144008771859e+40
1290.2902902902902 7.828428782322353e+40
1300.3003003003003 7.782296161535777e+40
1310.3103103103103 7.733010660305561e+40
1320.3203203203202 7.680824198284722e+40
1330.3303303303303 7.6259762523984e+40
1340.3403403403404 7.568694066605733e+40
1350.3503503503503 7.50919290967494e+40
1360.3603603603603 7.447676371895897e+40
1370.3703703703704 7.384336692719773e+40
1380.3803803803803 7.319355112288346e+40
1390.3903903903904 7.252902240699831e+40
1400.4004004004005 7.185138439658006e+40
1410.4104104104103 7.116214211872125e+40
1420.4204204204204 7.046270594221835e+40
1430.4304304304305 6.975439551279196e+40
1440.4404404404404 6.903844366294706e+40
1450.4504504504505 6.8316000272106795e+40
1460.4604604604606 6.758813605669195e+40
1470.4704704704704 6.685584627337029e+40
1480.4804804804805 6.612005432182384e+40
1490.4904904904906 6.538161523610774e+40
1500.5005005005005 6.464131905605427e+40
1510.5105105105106 6.389989407223979e+40
1520.5205205205207 6.315800993982117e+40
1530.5305305305305 6.241628065809018e+40
1540.5405405405404 6.167526741392494e+40
1550.5505505505505 6.093548128846154e+40
1560.5605605605606 6.019738582729287e+40
1570.5705705705705 5.946139947535622e+40
1580.5805805805805 5.872789787841247e+40
1590.5905905905906 5.799721605367656e+40
1600.6006006006005 5.726965043275397e+40
1610.6106106106106 5.654546078059109e+40
1620.6206206206207 5.582487199468303e+40
1630.6306306306305 5.510807578932896e+40
1640.6406406406406 5.43952322702999e+40
1650.6506506506507 5.368647140592631e+40
1660.6606606606606 5.298189440134028e+40
1670.6706706706707 5.22815749834698e+40
1680.6806806806808 5.158556060540406e+40
1690.6906906906906 5.089387357998578e+40
1700.7007007007007 5.020660812453028e+40
1710.7107107107108 4.952411903575163e+40
1720.7207207207207 4.884630480127698e+40
1730.7307307307308 4.81729985451135e+40
1740.7407407407409 4.750402303456653e+40
1750.7507507507507 4.683919100510314e+40
1760.7607607607606 4.617830559555194e+40
1770.770770770771 4.552116092609134e+40
1780.7807807807808 4.486754285784321e+40
1790.7907907907907 4.421722998023508e+40
1800.8008008008007 4.356999488066591e+40
1810.8108108108108 4.2925605760412537e+40
1820.8208208208207 4.2283828471066018e+40
1830.8308308308308 4.1644429056904156e+40
1840.8408408408409 4.100717690012495e+40
1850.8508508508507 4.0371848577204973e+40
1860.8608608608608 3.9738232544900206e+40
1870.870870870871 3.91061347822682e+40
1880.8808808808808 3.8475385518726736e+40
1890.890890890891 3.7845847175121004e+40
1900.900900900901 3.721742363186271e+40
1910.9109109109108 3.6590070911468435e+40
1920.920920920921 3.5963809317558016e+40
1930.930930930931 3.533873700330318e+40
1940.940940940941 3.471504484402241e+40
1950.950950950951 3.40930323562337e+40
1960.960960960961 3.3473124235829986e+40
1970.970970970971 3.285588688119851e+40
1980.980980980981 3.224204402838281e+40
1990.9909909909911 3.1632490367575377e+40
2001.001001001001 3.102830175574869e+40
2011.0110110110109 3.04307404225091e+40
2021.0210210210212 2.984125342954513e+40
2031.031031031031 2.926146264060896e+40
2041.0410410410411 2.8693144642873434e+40
2051.051051051051 2.813819947752216e+40
2061.061061061061 2.759860771190074e+40
2071.071071071071 2.707637630627778e+40
2081.081081081081 2.657347483694482e+40
2091.091091091091 2.609176482432624e+40
2101.101101101101 2.563292602582542e+40
2111.1111111111113 2.519838441008977e+40
2121.121121121121 2.4789246961996426e+40
2131.131131131131 2.4406248351261943e+40
2141.141141141141 2.404971378661573e+40
2151.151151151151 2.3719541124841037e+40
2161.161161161161 2.341520365881547e+40
2171.1711711711714 2.313577319128871e+40
2181.1811811811813 2.2879961260747954e+40
2191.191191191191 2.264617495194698e+40
2201.201201201201 2.243258276428217e+40
2211.2112112112113 2.223718560628084e+40
2221.221221221221 2.2057888121658013e+40
2231.2312312312315 2.189256614151553e+40
2241.2412412412414 2.173912695801301e+40
2251.2512512512512 2.1595560169080904e+40
2261.261261261261 2.1459977904356042e+40
2271.271271271271 2.1330644193732033e+40
2281.2812812812813 2.1205994007083706e+40
2291.2912912912916 2.1084643043490155e+40
2301.3013013013015 2.0965389681897377e+40
2311.3113113113113 2.0847210648290122e+40
2321.321321321321 2.0729251946378581e+40
2331.331331331331 2.061081648319023e+40
2341.3413413413414 2.0491349639012248e+40
2351.3513513513512 2.0370423817567445e+40
2361.3613613613616 2.0247722793606162e+40
2371.3713713713714 2.0123026469448207e+40
2381.3813813813813 1.9996196470339443e+40
2391.391391391391 1.9867162855951635e+40
2401.4014014014015 1.9735912102936714e+40
2411.4114114114113 1.9602476419400408e+40
2421.4214214214217 1.9466924383179085e+40
2431.4314314314315 1.932935284789474e+40
2441.4414414414414 1.918988002984032e+40
2451.4514514514512 1.9048639671002696e+40
2461.4614614614616 1.8905776165624753e+40
2471.4714714714714 1.8761440536853277e+40
2481.4814814814818 1.8615787153970157e+40
2491.4914914914916 1.8468971087719708e+40
2501.5015015015015 1.832114601001222e+40
2511.5115115115113 1.8172462553849832e+40
2521.521521521521 1.8023067059019542e+40
2531.5315315315315 1.7873100638481044e+40
2541.541541541542 1.7722698509168485e+40
2551.5515515515517 1.7571989538965214e+40
2561.5615615615616 1.7421095968832035e+40
2571.5715715715714 1.7270133275460342e+40
2581.5815815815813 1.7119210145410774e+40
2591.5915915915916 1.6968428536538293e+40
2601.6016016016015 1.681788380666102e+40
2611.611611611612 1.6667664892973123e+40
2621.6216216216217 1.6517854528703692e+40
2631.6316316316315 1.6368529486050834e+40
2641.6416416416414 1.621976083653835e+40
2651.6516516516517 1.6071614221707574e+40
2661.6616616616616 1.5924150128522452e+40
2671.671671671672 1.5777424165076001e+40
2681.6816816816818 1.563148733318186e+40
2691.6916916916916 1.54863862952489e+40
2701.7017017017015 1.5342163633500553e+40
2711.711711711712 1.5198858100137984e+40
2721.7217217217217 1.505650485747901e+40
2731.731731731732 1.4915135707450695e+40
2741.741741741742 1.4774779310089135e+40
2751.7517517517517 1.4635461390915167e+40
2761.7617617617616 1.4497204937223831e+40
2771.7717717717715 1.4360030383453414e+40
2781.781781781782 1.4223955785897754e+40
2791.791791791792 1.4088996987096314e+40
2801.801801801802 1.395516777028712e+40
2811.811811811812 1.3822480004341794e+40
2821.8218218218217 1.3690943779622522e+40
2831.8318318318316 1.3560567535211233e+40
2841.841841841842 1.3431358177963467e+40
2851.851851851852 1.3303321193835473e+40
2861.861861861862 1.3176460751924247e+40
2871.871871871872 1.3050779801647916e+40
2881.881881881882 1.292628016347924e+40
2891.8918918918916 1.280296261362811e+40
2901.901901901902 1.2680826963051402e+40
2911.911911911912 1.255987213115012e+40
2921.921921921922 1.244009621449507e+40
2931.931931931932 1.2321496550903847e+40
2941.941941941942 1.2204069779173501e+40
2951.9519519519517 1.2087811894755386e+40
2961.961961961962 1.197271830164158e+40
2971.971971971972 1.1858783860715312e+40
2981.9819819819822 1.1746002934802342e+40
2991.991991991992 1.1634369430644648e+40
3002.002002002002 1.1523876838003787e+40
3012.012012012012 1.1414518266087404e+40
3022.0220220220217 1.1306286477479782e+40
3032.032032032032 1.1220496266528746e+40
3042.0420420420423 1.1111718669713724e+40
3052.052052052052 1.1003333726427328e+40
3062.062062062062 1.0895545186261058e+40
3072.072072072072 1.0788525001785293e+40
3082.0820820820823 1.0682416894793892e+40
3092.092092092092 1.0577339601061389e+40
3102.102102102102 1.0473389812972792e+40
3112.1121121121123 1.0370644840199208e+40
3122.122122122122 1.0269165008802487e+40
3132.132132132132 1.016899581891071e+40
3142.1421421421423 1.0070169880534731e+40
3152.152152152152 9.972708646291155e+39
3162.162162162162 9.876623958836667e+39
3172.1721721721724 9.781919429761965e+39
3182.1821821821823 9.688591665587481e+39
3192.192192192192 9.596631355382556e+39
3202.202202202202 9.506024233421514e+39
3212.2122122122123 9.416751929212372e+39
3222.222222222222 9.32879271620069e+39
3232.232232232232 9.242122169471132e+39
3242.2422422422424 9.156713741847993e+39
3252.252252252252 9.072539266935583e+39
3262.262262262262 8.98956939684159e+39
3272.2722722722724 8.90777398158993e+39
3282.2822822822823 8.827122396552346e+39
3292.292292292292 8.747583823608174e+39
3302.3023023023025 8.669127491175597e+39
3312.3123123123123 8.59172287774231e+39
3322.322322322322 8.515339883055568e+39
3332.3323323323325 8.439948970706994e+39
3342.3423423423424 8.365521285463809e+39
3352.352352352352 8.292028748350662e+39
3362.3623623623625 8.219444132173475e+39
3372.3723723723724 8.147741119894026e+39
3382.3823823823823 8.07689434800939e+39
3392.3923923923926 8.006879436862077e+39
3402.4024024024025 7.937673009599844e+39
3412.4124124124123 7.869252701319558e+39
3422.4224224224226 7.801597159762809e+39
3432.4324324324325 7.734686038781423e+39
3442.4424424424424 7.668499985656727e+39
3452.4524524524522 7.603020623235821e+39
3462.4624624624626 7.5382305277398e+39
3472.4724724724724 7.4741132030017e+39
3482.4824824824823 7.410653051804532e+39
3492.4924924924926 7.347835344911845e+39
3502.5025025025025 7.285646188312453e+39
3512.5125125125123 7.224072489138556e+39
3522.5225225225226 7.163101920659434e+39
3532.5325325325325 7.102722886702547e+39
3542.5425425425424 7.04292448580834e+39
3552.5525525525527 6.983696475384277e+39
3562.5625625625626 6.925029236087401e+39
3572.5725725725724 6.866913736631774e+39
3582.5825825825827 6.809341499188375e+39
3592.5925925925926 6.752304565518635e+39
3602.6026026026025 6.695795463959729e+39
3612.612612612613 6.639807177358996e+39
3622.6226226226227 6.584333112036323e+39
3632.6326326326325 6.529367067836995e+39
3642.642642642643 6.47490320932307e+39
3652.6526526526527 6.420936038138259e+39
3662.6626626626626 6.367460366570109e+39
3672.672672672673 6.314471292323321e+39
3682.6826826826828 6.261964174509163e+39
3692.6926926926926 6.209934610848385e+39
3702.7027027027025 6.15837841607838e+39
3712.712712712713 6.107291601549636e+39
3722.7227227227227 6.056670355991616e+39
3732.7327327327325 6.006511027423891e+39
3742.742742742743 5.956810106185074e+39
3752.7527527527527 5.907564209048942e+39
3762.7627627627626 5.858770064394862e+39
3772.772772772773 5.810424498397717e+39
3782.7827827827828 5.762524422200959e+39
3792.7927927927926 5.715066820035368e+39
3802.802802802803 5.668048738245332e+39
3812.812812812813 5.621467275183885e+39
3822.8228228228227 5.575319571937651e+39
3832.832832832833 5.529602803842764e+39
3842.842842842843 5.484314172753127e+39
3852.8528528528527 5.4394509000227137e+39
3862.862862862863 5.395010220164181e+39
3872.872872872873 5.3509893751468516e+39
3882.8828828828828 5.307385609297657e+39
3892.892892892893 5.2641961647699467e+39
3902.902902902903 5.221418277545547e+39
3912.912912912913 5.1790491739369116e+39
3922.922922922923 5.1370860675570195e+39
3932.932932932933 5.0955261567260084e+39
3942.942942942943 5.0543666222844375e+39
3952.9529529529527 5.0136046257845093e+39
3962.962962962963 4.973237308031635e+39
3972.972972972973 4.933261787949895e+39
3982.982982982983 4.893675161746212e+39
3992.992992992993 4.8544745023491614e+39
4003.003003003003 4.8156568590996563e+39
4013.013013013013 4.7772192576716354e+39
4023.023023023023 4.739158700202286e+39
4033.033033033033 4.701472165612295e+39
4043.043043043043 4.664156610097664e+39
4053.053053053053 4.6272089677758186e+39
4063.063063063063 4.590626151469626e+39
4073.073073073073 4.5544050536139506e+39
4083.0830830830832 4.5185425472704055e+39
4093.093093093093 4.4830354872367606e+39
4103.103103103103 4.447880711238416e+39
4113.113113113113 4.4130750411902393e+39
4123.123123123123 4.378615284517708e+39
4133.133133133133 4.3444982355273104e+39
4143.143143143143 4.310720676816699e+39
4153.153153153153 4.277279380715912e+39
4163.163163163163 4.244171110751574e+39
4173.173173173173 4.211392623126715e+39
4183.183183183183 4.178940668209355e+39
4193.193193193193 4.1468119920236437e+39
4203.203203203203 4.115003337737851e+39
4213.213213213214 4.083511447144077e+39
4223.223223223224 4.0523330621248914e+39
4233.2332332332335 4.0214649261027543e+39
4243.243243243243 3.990903785468355e+39
4253.253253253253 3.960646390984457e+39
4263.263263263263 3.930689499162235e+39
4273.273273273273 3.90102987360739e+39
4283.283283283283 3.871664286333702e+39
4293.293293293293 3.842589519041962e+39
4303.303303303303 3.813802364362516e+39
4313.313313313313 3.7852996270599244e+39
4323.323323323323 3.7570781251984625e+39
4333.333333333334 3.7291346912674614e+39
4343.343343343344 3.701466173265656e+39
4353.353353353354 3.674069435743897e+39
4363.3633633633635 3.646941360805822e+39
4373.373373373373 3.6200788490661665e+39
4383.383383383383 3.593478820566606e+39
4393.393393393393 3.56713821564912e+39
4403.403403403403 3.541053995787012e+39
4413.413413413413 3.515223144373833e+39
4423.423423423424 3.4896426674705524e+39
4433.4334334334335 3.464309594511409e+39
4443.443443443443 3.4392209789689687e+39
4453.453453453454 3.414373898978978e+39
4463.463463463464 3.3897654579257086e+39
4473.473473473474 3.365392784988429e+39
4483.483483483484 3.341253035649887e+39
4493.493493493494 3.3173433921675147e+39
4503.503503503503 3.293661064008285e+39
4513.513513513513 3.270203288248059e+39
4523.523523523523 3.246967329936343e+39
4533.533533533533 3.2239504824274304e+39
4543.543543543543 3.2011500676788184e+39
4553.553553553554 3.178563436517908e+39
4563.563563563564 3.1561879688779694e+39
4573.573573573573 3.1340210740043084e+39
4583.583583583584 3.112060190631674e+39
4593.593593593594 3.090302787133867e+39
4603.603603603604 3.0687463616465213e+39
4613.613613613614 3.0473884421640656e+39
4623.623623623624 3.026226586611807e+39
4633.6336336336335 3.005258382894131e+39
4643.643643643643 2.9844814489197417e+39
4653.653653653653 2.96389343260489e+39
4663.663663663663 2.9434920118555317e+39
4673.673673673674 2.9232748945292937e+39
4683.683683683684 2.9032398183781906e+39
4693.693693693694 2.8833845509729156e+39
4703.703703703704 2.8637068896096054e+39
4713.713713713714 2.8442046611999214e+39
4723.723723723724 2.824875722145233e+39
4733.733733733734 2.805717958195748e+39
4743.743743743744 2.786729284295364e+39
4753.753753753754 2.7679076444129773e+39
4763.763763763764 2.7492510113610474e+39
4773.773773773773 2.730757386602058e+39
4783.783783783783 2.712424800043686e+39
4793.793793793793 2.6942513098232535e+39
4803.803803803804 2.6762350020821846e+39
4813.813813813814 2.6583739907311075e+39
4823.823823823824 2.6406664172061852e+39
4833.833833833834 2.6231104502173197e+39
4843.843843843844 2.60570428548878e+39
4853.853853853854 2.5884461454928118e+39
4863.863863863864 2.571334279176804e+39
4873.873873873874 2.5543669616844887e+39
4883.883883883884 2.537542494071711e+39
4893.893893893894 2.52085920301724e+39
4903.9039039039035 2.5043154405290806e+39
4913.913913913913 2.487909583646746e+39
4923.923923923924 2.4716400341399133e+39
4933.933933933934 2.4555052182038874e+39
4943.943943943944 2.4395035861522344e+39
4953.953953953955 2.4236336121070205e+39
4963.9639639639645 2.4078937936869797e+39
4973.973973973974 2.3922826516939474e+39
4983.983983983984 2.3767987297979492e+39
4993.993993993994 2.361440594221203e+39
5004.004004004004 2.3462068334213682e+39
5014.014014014014 2.3310960577743405e+39
5024.024024024024 2.316106899256829e+39
5034.0340340340335 2.3012380111290365e+39
5044.044044044043 2.2864880676176315e+39
5054.054054054054 2.271855763599304e+39
5064.064064064064 2.2573398142850906e+39
5074.074074074074 2.242938954905706e+39
5084.084084084085 2.228651940398067e+39
5094.0940940940945 2.214477545093237e+39
5104.104104104104 2.2004145624059082e+39
5114.114114114114 2.186461804525658e+39
5124.124124124124 2.1726181021101034e+39
5134.134134134134 2.158882303980117e+39
5144.144144144144 2.1452532768172416e+39
5154.154154154154 2.131729904863443e+39
5164.1641641641645 2.11831108962332e+39
5174.174174174174 2.1049957495689035e+39
5184.184184184184 2.0917828198471236e+39
5194.194194194194 2.078671251990076e+39
5204.204204204204 2.065660013628177e+39
5214.214214214214 2.0527480882062698e+39
5224.224224224225 2.039934474702791e+39
5234.2342342342345 2.027218187352065e+39
5244.244244244244 2.0145982553697667e+39
5254.254254254254 2.0020737226816676e+39
5264.264264264264 1.989643647655652e+39
5274.274274274274 1.9773071028371274e+39
5284.284284284285 1.9650631746878074e+39
5294.294294294295 1.9529109633279548e+39
5304.304304304304 1.940849582282087e+39
5314.314314314314 1.9288781582282048e+39
5324.324324324324 1.9169958307505354e+39
5334.334334334334 1.9052017520958472e+39
5344.344344344345 1.8934950869333227e+39
5354.354354354355 1.8818750121180292e+39
5364.3643643643645 1.8703407164579688e+39
5374.374374374374 1.8588914004847567e+39
5384.384384384384 1.8475262762278728e+39
5394.394394394394 1.8362445669925493e+39
5404.404404404404 1.8250455071412373e+39
5414.414414414415 1.813928341878689e+39
5424.424424424425 1.8028923270406166e+39
5434.4344344344345 1.791936728885932e+39
5444.444444444444 1.7810608238925495e+39
5454.454454454454 1.7702638985567418e+39
5464.464464464464 1.759545249196024e+39
5474.474474474475 1.7489041817555428e+39
5484.484484484485 1.7383400116179607e+39
5494.494494494495 1.7278520634168025e+39
5504.504504504504 1.7174396708532436e+39
5514.514514514514 1.7071021765163048e+39
5524.524524524524 1.696838931706437e+39
5534.534534534535 1.6866492962624606e+39
5544.544544544545 1.676532638391824e+39
5554.554554554555 1.6664883345041492e+39
5564.5645645645645 1.656515769048045e+39
5574.574574574574 1.6466143343511347e+39
5584.584584584584 1.6367834304632743e+39
5594.594594594595 1.6270224650029108e+39
5604.604604604605 1.6173308530065793e+39
5614.614614614615 1.6077080167814426e+39
5624.624624624625 1.5981533857608917e+39
5634.6346346346345 1.588666396363136e+39
5644.644644644644 1.5792464918527476e+39
5654.654654654654 1.569893122205132e+39
5664.664664664665 1.5606057439738624e+39
5674.674674674675 1.5513838201608702e+39
5684.684684684685 1.542226820089406e+39
5694.694694694695 1.5331342192797715e+39
5704.704704704704 1.5241054993277568e+39
5714.714714714714 1.5151401477857454e+39
5724.724724724725 1.506237658046447e+39
5734.734734734735 1.49739752922922e+39
5744.744744744745 1.488619266068927e+39
5754.754754754755 1.4799023788072985e+39
5764.764764764765 1.4712463830867545e+39
5774.774774774774 1.4626507998466375e+39
5784.784784784785 1.4541151552218236e+39
5794.794794794795 1.4456389804436638e+39
5804.804804804805 1.437221811743217e+39
5814.814814814815 1.4288631902567264e+39
5824.824824824825 1.4205626619333146e+39
5834.8348348348345 1.4123197774448276e+39
5844.844844844845 1.4041340920978232e+39
5854.854854854855 1.3960051657476297e+39
5864.864864864865 1.387932562714451e+39
5874.874874874875 1.3799158517014832e+39
5884.884884884885 1.3719546057149876e+39
5894.894894894895 1.3640484019862907e+39
