#lamb flux
1000.0 3.5426059938167245
1010.01001001001 3.588942751638792
1020.0200200200201 3.6262238013622565
1030.03003003003 3.6550252077318994
1040.0400400400401 3.675944446950254
1050.05005005005 3.6895877069056406
1060.06006006006 3.6965593439679854
1070.07007007007 3.6974533220175108
1080.08008008008 3.6928464355963206
1090.0900900900901 3.6832931094010206
1100.1001001001 3.669321567128588
1110.11011011011 3.651431170899175
1120.1201201201202 3.6300907456287423
1130.13013013013 3.6057377188573003
1140.1401401401401 3.578777924157051
1150.1501501501502 3.5495859342420366
1160.16016016016 3.5185058074876445
1170.1701701701702 3.485852148212668
1180.1801801801803 3.4519113964455306
1190.1901901901902 3.416943276808339
1200.2002002002002 3.3811823485387116
1210.2102102102103 3.3448396095394486
1220.2202202202202 3.3081041167646585
1230.2302302302303 3.271144593316585
1240.2402402402402 3.234110999458789
1250.2502502502502 3.1969242553147903
1260.2602602602603 3.159087159800743
1270.2702702702702 3.1196327164512105
1280.2802802802803 3.078772246927256
1290.2902902902902 3.0367029458682504
1300.3003003003003 2.993608251184136
1310.3103103103103 2.9496582863819376
1320.3203203203202 2.9050103579404607
1330.3303303303303 2.859809493056754
1340.3403403403404 2.814189005187098
1350.3503503503503 2.7682710766973324
1360.3603603603603 2.722167349629483
1370.3703703703704 2.6759795170938685
1380.3803803803803 2.629799909120577
1390.3903903903904 2.5837120679645125
1400.4004004004005 2.5377913088680373
1410.4104104104103 2.4921052631582703
1420.4204204204204 2.4467144013060937
1430.4304304304305 2.401672534213541
1440.4404404404404 2.357027291538079
1450.4504504504505 2.3128205763173777
1460.4604604604606 2.2690889955374733
1470.4704704704704 2.2258642665998805
1480.4804804804805 2.1831735998984816
1490.4904904904906 2.1410400579223223
1500.5005005005005 2.0994828914631474
1510.5105105105106 2.0585178536327375
1520.5205205205207 2.0181574924906194
1530.5305305305305 1.9784114231521437
1540.5405405405404 1.9392865802950792
1550.5505505505505 1.900787452013125
1560.5605605605606 1.8629162959807737
1570.5705705705705 1.8256733388986657
1580.5805805805805 1.789056960184457
1590.5905905905906 1.753063860863764
1600.6006006006005 1.7176892186008956
1610.6106106106106 1.6829268297917763
1620.6206206206207 1.6487692396232922
1630.6306306306305 1.615207860986003
1640.6406406406406 1.5822330831120688
1650.6506506506507 1.5498343707990576
1660.6606606606606 1.5180003550741143
1670.6706706706707 1.4867189161537773
1680.6806806806808 1.4559772595635416
1690.6906906906906 1.425761986300233
1700.7007007007007 1.3960639345442285
1710.7107107107108 1.3668873339518623
1720.7207207207207 1.3382141453876086
1730.7307307307308 1.3100238963791089
1740.7407407407409 1.2822964227970906
1750.7507507507507 1.2550118699266755
1760.7607607607606 1.2281507001602574
1770.770770770771 1.2016937085855501
1780.7807807807808 1.175622047959227
1790.7907907907907 1.1499172647964098
1800.8008008008007 1.1245613485665138
1810.8108108108108 1.099536796261156
1820.8208208208207 1.0748266948804446
1830.8308308308308 1.0504148246552245
1840.8408408408409 1.0262857860622434
1850.8508508508507 1.0024251538653954
1860.8608608608608 0.9788196614854628
1870.870870870871 0.9554574189054048
1880.8808808808808 0.9323281669839183
1890.890890890891 0.909423570384307
1900.900900900901 0.8867375502188747
1910.9109109109108 0.8642666558364998
1920.920920920921 0.842010472811894
1930.930930930931 0.8199720610054888
1940.940940940941 0.798158412459656
1950.950950950951 0.7765809138493163
1960.960960960961 0.7552557922882301
1970.970970970971 0.7342045167386044
1980.980980980981 0.7134541205239243
1990.9909909909911 0.6930374042004613
2001.001001001001 0.672992973271506
2011.0110110110109 0.6533650631412288
2021.0210210210212 0.6342031056520877
2031.031031031031 0.6155609988283184
2041.0410410410411 0.5974960550249728
2051.051051051051 0.580067622856571
2061.061061061061 0.56333540435515
2071.071071071071 0.5473575188694126
2081.081081081081 0.5321883961228243
2091.091091091091 0.5178766085221264
2101.101101101101 0.5044627728425284
2111.1111111111113 0.4919776599102521
2121.121121121121 0.4804406453351508
2131.131131131131 0.4698586142476773
2141.141141141141 0.46022540021024694
2151.151151151151 0.451521796900052
2161.161161161161 0.4437161360256834
2171.1711711711714 0.43676538181335983
2181.1811811811813 0.430616656208185
2191.191191191191 0.4252090832199302
2201.201201201201 0.4204758273719869
2211.2112112112113 0.4163461999884571
2221.221221221221 0.4127477166039064
2231.2312312312315 0.40960800661185703
2241.2412412412414 0.40685649937995677
2251.2512512512512 0.40442583640646595
2261.261261261261 0.40225298395746983
2271.271271271271 0.400280042871506
2281.2812812812813 0.39845477042010613
2291.2912912912916 0.3967308425589986
2301.3013013013015 0.3950678935202958
2311.3113113113113 0.3934313738966395
2321.321321321321 0.3917922688897217
2331.331331331331 0.39012671612721356
2341.3413413413414 0.38841555829785385
2351.3513513513512 0.3866438606323424
2361.3613613613616 0.3848004176412656
2371.3713713713714 0.3828772680160694
2381.3813813813813 0.38086923154690366
2391.391391391391 0.3787734775108253
2401.4014014014015 0.3765891303207347
2411.4114114114113 0.37431691530216415
2421.4214214214217 0.3719588452299167
2431.4314314314315 0.36951794662659726
2441.4414414414414 0.36699802370391044
2451.4514514514512 0.3644034571176242
2461.4614614614616 0.36173903431733057
2471.4714714714714 0.35900980812255434
2481.4814814814818 0.3562209801799271
2491.4914914914916 0.3533778060974199
2501.5015015015015 0.35048551926809574
2511.5115115115113 0.34754927065492514
2521.521521521521 0.3445740820859507
2531.5315315315315 0.3415648108885333
2541.541541541542 0.33852612396111975
2551.5515515515517 0.33546247963366876
2561.5615615615616 0.3323781158994481
2571.5715715715714 0.32927704380946804
2581.5815815815813 0.32616304500604
2591.5915915915916 0.32303967253457155
2601.6016016016015 0.31991025421411234
2611.611611611612 0.31677789796910444
2621.6216216216217 0.3136454986291881
2631.6316316316315 0.3105157457927111
2641.6416416416414 0.3073911324247085
2651.6516516516517 0.3042739639232828
2661.6616616616616 0.30116636744121533
2671.671671671672 0.29807030129367684
2681.6816816816818 0.2949875643194379
2691.6916916916916 0.2919198050931027
2701.7017017017015 0.2888685309106393
2711.711711711712 0.2858351164906837
2721.7217217217217 0.28282081235051326
2731.731731731732 0.2798267528288234
2741.741741741742 0.27685396373807475
2751.7517517517517 0.2739033696376
2761.7617617617616 0.27097580072531774
2771.7717717717715 0.26807199935105136
2781.781781781782 0.2651926261584154
2791.791791791792 0.262338265865201
2801.801801801802 0.25950943269435406
2811.811811811812 0.25670657546917325
2821.8218218218217 0.2539300823873546
2831.8318318318316 0.25118028548910726
2841.841841841842 0.24845746483483003
2851.851851851852 0.24576185240785353
2861.861861861862 0.24309363575757034
2871.871871871872 0.240452961397941
2881.881881881882 0.23783993797592565
2891.8918918918916 0.23525463922386464
2901.901901901902 0.23269710670925492
2911.911911911912 0.23016735239476227
2921.921921921922 0.22766536102067186
2931.931931931932 0.22519109232134776
2941.941941941942 0.22274448308663441
2951.9519519519517 0.22032544907851032
2961.961961961962 0.21793388681269824
2971.971971971972 0.21556967521434156
2981.9819819819822 0.21323267715629782
2991.991991991992 0.21092274088805557
3002.002002002002 0.20863970136276583
3012.012012012012 0.2063833814693915
3022.0220220220217 0.20415359317651569
3032.032032032032 0.20263887937668687
3042.0420420420423 0.20037101827918008
3052.052052052052 0.19810642393733957
3062.062062062062 0.19585180464682234
3072.072072072072 0.1936128060709708
3082.0820820820823 0.1913941320844019
3092.092092092092 0.18919965513840367
3102.102102102102 0.18703251654937772
3112.1121121121123 0.18489521722312394
3122.122122122122 0.18278969939790496
3132.132132132132 0.18071742002742203
3142.1421421421423 0.17867941643879934
3152.152152152152 0.17667636489663513
3162.162162162162 0.1747086326871731
3172.1721721721724 0.1727763243105804
3182.1821821821823 0.1708793223373185
3192.192192192192 0.169017323449014
3202.202202202202 0.16718987014690842
3212.2122122122123 0.16539637857321576
3222.222222222222 0.16363616285354915
3232.232232232232 0.16190845633266962
3242.2422422422424 0.1602124300416465
3252.252252252252 0.15854720870237482
3262.262262262262 0.15691188454546118
3272.2722722722724 0.15530552918980964
3282.2822822822823 0.15372720380681676
3292.292292292292 0.15217596776886416
3302.3023023023025 0.15065088596067858
3312.3123123123123 0.149151034912999
3322.322322322322 0.14767550790072623
3332.3323323323325 0.1462234191321733
3342.3423423423424 0.1447939071420831
3352.352352352352 0.14338613748855197
3362.3623623623625 0.14199930484281229
3372.3723723723724 0.14063263455081765
3382.3823823823823 0.13928538373664076
3392.3923923923926 0.13795684200975197
3402.4024024024025 0.13664633183114117
3412.4124124124123 0.13535320858694497
3422.4224224224226 0.1340768604126233
3432.4324324324325 0.13281670780573385
3442.4424424424424 0.13157220306091189
3452.4524524524522 0.13034282955671045
3462.4624624624626 0.12912810092044433
3472.4724724724724 0.1279275600940565
3482.4824824824823 0.12674077832124217
3492.4924924924926 0.12556735407359818
3502.5025025025025 0.12440691193135843
3512.5125125125123 0.12325910143231981
3522.5225225225226 0.12212359590081828
3532.5325325325325 0.12100009126705798
3542.5425425425424 0.11988830488571593
3552.5525525525527 0.11878797436150865
3562.5625625625626 0.1176988563883101
3572.5725725725724 0.11662072560743092
3582.5825825825827 0.11555337348979935
3592.5925925925926 0.1144966072460056
3602.6026026026025 0.1134502487674845
3612.612612612613 0.11241413360149541
3622.6226226226227 0.11138810996201588
3632.6326326326325 0.11037203777817978
3642.642642642643 0.10936578778146726
3652.6526526526527 0.1083692406324723
3662.6626626626626 0.10738228608774197
3672.672672672673 0.1064048222068918
3682.6826826826828 0.10543675459994241
3692.6926926926926 0.10447799571460101
3702.7027027027025 0.10352846416301822
3712.712712712713 0.10258808408738443
3722.7227227227227 0.1016567845635873
3732.7327327327325 0.10073449904202925
3742.742742742743 0.09982116482460794
3752.7527527527527 0.09891672257677359
3762.7627627627626 0.09802111587351349
3772.772772772773 0.09713429077805964
3782.7827827827828 0.09625619545207482
3792.7927927927926 0.09538677979604371
3802.802802802803 0.09452599511857764
3812.812812812813 0.09367379383333051
3822.8228228228227 0.09283012918222326
3832.832832832833 0.09199495498367885
3842.842842842843 0.09116822540458164
3852.8528528528527 0.09034989475469249
3862.862862862863 0.08953991730227233
3872.872872872873 0.08873824710969354
3882.8828828828828 0.0879448378878458
3892.892892892893 0.08715964286817963
3902.902902902903 0.08638261469125978
3912.912912912913 0.08561370531074158
3922.922922922923 0.08485286591171935
3932.932932932933 0.08410004684243702
3942.942942942943 0.08335519755838709
3952.9529529529527 0.0826182665778704
3962.962962962963 0.08188920144812518
3972.972972972973 0.08116794872117696
3982.982982982983 0.0804544539386006
3992.992992992993 0.07974866162442645
4003.003003003003 0.07905051528546335
4013.013013013013 0.07835995741834612
4023.023023023023 0.0776769295226591
4033.033033033033 0.07700137211951992
4043.043043043043 0.07633322477504544
4053.053053053053 0.0756724261281585
4063.063063063063 0.07501891392222479
4073.073073073073 0.07437262504004526
4083.0830830830832 0.07373349554175897
4093.093093093093 0.073101460705243
4103.103103103103 0.07247645506862362
4113.113113113113 0.07185841247454329
4123.123123123123 0.07124726611585085
4133.133133133133 0.070642948582412
4143.143143143143 0.07004539190875833
4153.153153153153 0.06945452762231658
4163.163163163163 0.06887028679198211
4173.173173173173 0.06829260007682102
4183.183183183183 0.06772139777470448
4193.193193193193 0.06715660987069667
4203.203203203203 0.0665981660850361
4213.213213213214 0.06604599592056563
4223.223223223224 0.06550002870948085
4233.2332332332335 0.06496019365928221
4243.243243243243 0.06442641989782856
4253.253253253253 0.06389863651740217
4263.263263263263 0.06337677261770758
4273.273273273273 0.06286075734773594
4283.283283283283 0.06235051994643786
4293.293293293293 0.06184598978215652
4303.303303303303 0.06134709639078042
4313.313313313313 0.060853769512584484
4323.323323323323 0.06036593912773413
4333.333333333334 0.05988353549043421
4343.343343343344 0.05940648916171089
4353.353353353354 0.05893473104081904
4363.3633633633635 0.05846819239527429
4373.373373373373 0.058006804889512084
4383.383383383383 0.057550500612180845
4393.393393393393 0.05709921210208009
4403.403403403403 0.05665287237275722
4413.413413413413 0.05621141493578013
4423.423423423424 0.05577477382270551
4433.4334334334335 0.05534288360576429
4443.443443443443 0.05491567941728852
4453.453453453454 0.05449309696790521
4463.463463463464 0.054075072563525284
4473.473473473474 0.05366154312115422
4483.483483483484 0.053252446183556734
4493.493493493494 0.052847719932803704
4503.503503503503 0.05244730320273398
4513.513513513513 0.052051135490362714
4523.523523523523 0.051659156966267564
4533.533533533533 0.05127130848398699
4543.543543543543 0.050887531588461536
4553.553553553554 0.050507768523551835
4563.563563563564 0.05013196223866596
4573.573573573573 0.04976005639452807
4583.583583583584 0.049391995368121056
4593.593593593594 0.04902772425683519
4603.603603603604 0.0486671888818537
4613.613613613614 0.0483103357908077
4623.623623623624 0.04795711225972924
4633.6336336336335 0.047607466294334794
4643.643643643643 0.04726134663066706
4653.653653653653 0.046918702735124704
4663.663663663663 0.046579484803908666
4673.673673673674 0.046243643761912166
4683.683683683684 0.045911131261082073
4693.693693693694 0.04558189967827721
4703.703703703704 0.04525590211265019
4713.713713713714 0.04493309238257711
4723.723723723724 0.044613425022159564
4733.733733733734 0.04429685527732238
4743.743743743744 0.04398333910153048
4753.753753753754 0.04367283315114606
4763.763763763764 0.04336529478044855
4773.773773773773 0.04306068203633705
4783.783783783783 0.04275895365273635
4793.793793793793 0.04246006904472497
4803.803803803804 0.04216398830240429
4813.813813813814 0.04187067218452686
4823.823823823824 0.04158008211190098
4833.833833833834 0.041292180160588506
4843.843843843844 0.04100692905491175
4853.853853853854 0.04072429216028497
4863.863863863864 0.04044423347588539
4873.873873873874 0.040166717627177925
4883.883883883884 0.03989170985830734
4893.893893893894 0.03961917602437076
4903.9039039039035 0.03934908258358356
4913.913913913913 0.03908139658935001
4923.923923923924 0.038816085682250735
4933.933933933934 0.03855311808195796
4943.943943943944 0.0382924625790884
4953.953953953955 0.03803408852700489
4963.9639639639645 0.037777965833575476
4973.973973973974 0.03752406495289941
4983.983983983984 0.0372723568770089
4993.993993993994 0.037022813127554635
5004.004004004004 0.036775405747483
5014.014014014014 0.03653010729271284
5024.024024024024 0.03628689082381808
5034.0340340340335 0.03604572989772404
5044.044044044043 0.035806598559422774
5054.054054054054 0.03556947133371412
5064.064064064064 0.0353343232169781
5074.074074074074 0.03510112966898378
5084.084084084085 0.03486986660473998
5094.0940940940945 0.0346405103863927
5104.104104104104 0.03441303781517335
5114.114114114114 0.03418742612340253
5124.124124124124 0.03396365296655306
5134.134134134134 0.0337416964153761
5144.144144144144 0.033521534948093755
5154.154154154154 0.03330314744266157
5164.1641641641645 0.033086513169103854
5174.174174174174 0.03287161178192467
5184.184184184184 0.03265842331259712
5194.194194194194 0.03244692816213325
5204.204204204204 0.032237107093737165
5214.214214214214 0.03202894122554275
5224.224224224225 0.031822412023438565
5234.2342342342345 0.031617501293981186
5244.244244244244 0.03141419117739855
5254.254254254254 0.03121246414068505
5264.264264264264 0.031012302970789062
5274.274274274274 0.030813690767894735
5284.284284284285 0.03061661093879817
5294.294294294295 0.030421047190379674
5304.304304304304 0.030226983523172074
5314.314314314314 0.030034404225026328
5324.324324324324 0.029843293864874398
5334.334334334334 0.029653637286590286
5344.344344344345 0.029465419602948833
5354.354354354355 0.029278626189683438
5364.3643643643645 0.029093242679641747
5374.374374374374 0.028909254957040192
5384.384384384384 0.028726649151816695
5394.394394394394 0.028545411634081846
5404.404404404404 0.028365529008667952
5414.414414414415 0.028186988109776018
5424.424424424425 0.028009775995720028
5434.4344344344345 0.027833879943768153
5444.444444444444 0.027659287445080536
5454.454454454454 0.027485986199743063
5464.464464464464 0.027313964111896388
5474.474474474475 0.02714320928495974
5484.484484484485 0.026973710016948767
5494.494494494495 0.026805454795886578
5504.504504504504 0.026638432295307456
5514.514514514514 0.026472631369852107
5524.524524524524 0.0263080410509539
5534.534534534535 0.026144650542614938
5544.544544544545 0.025982449217271306
5554.554554554555 0.02582142661174627
5564.5645645645645 0.025661572423290712
5574.574574574574 0.02550287650570963
5584.584584584584 0.025345328865573773
5594.594594594595 0.025188919658515198
5604.604604604605 0.02503363918560611
5614.614614614615 0.02487947788981924
5624.624624624625 0.024726426352569292
5634.6346346346345 0.024574475290334068
5644.644644644644 0.024423615551353976
5654.654654654654 0.02427383811240928
5664.664664664665 0.02412513407567329
5674.674674674675 0.023977494665641107
5684.684684684685 0.023830911226131908
5694.694694694695 0.02368537521736441
5704.704704704704 0.02354087821310377
5714.714714714714 0.023397411897879025
5724.724724724725 0.023254968064269833
5734.734734734735 0.02311353861026131
5744.744744744745 0.022973115536665797
5754.754754754755 0.022833690944610397
5764.764764764765 0.022695257033089104
5774.774774774774 0.022557806096578387
5784.784784784785 0.022421330522714913
5794.794794794795 0.02228582279003444
5804.804804804805 0.022151275465770587
5814.814814814815 0.022017681203712374
5824.824824824825 0.021885032742119396
5834.8348348348345 0.021753322901693385
5844.844844844845 0.02162254458360528
5854.854854854855 0.02149269076757632
5864.864864864865 0.021363754510012354
5874.874874874875 0.021235728942190113
5884.884884884885 0.021108607268494298
5894.894894894895 0.020982382764704592
5904.9049049049045 0.020857048776331294
5914.914914914915 0.020732598716998625
5924.924924924925 0.02060902606687474
5934.934934934935 0.020486324371147054
5944.944944944945 0.020364487238542357
5954.954954954955 0.020243508339890245
5964.964964964965 0.02012338140672915
5974.974974974975 0.02000410022995378
5984.984984984985 0.019885658658503162
5994.994994994995 0.01976805059808818
6005.005005005005 0.019651270009957655
6015.015015015015 0.019535310909702223
6025.025025025025 0.01942016736609476
6035.035035035035 0.01930583349996673
6045.045045045045 0.01919230348311939
6055.055055055055 0.019079571537269007
6065.065065065065 0.018967631933025225
6075.075075075075 0.018856478988901727
6085.085085085085 0.01874610707035829
6095.0950950950955 0.01863651058887352
6105.105105105105 0.01852768400104736
6115.115115115115 0.018419621807732496
6125.125125125125 0.018312318553194065
6135.135135135135 0.018205768824296795
6145.145145145145 0.018099967249718723
6155.155155155155 0.01799490849919091
6165.1651651651655 0.01789058728276232
6175.175175175175 0.017786998350089178
6185.185185185185 0.017684136489748068
6195.195195195195 0.0175819965285722
6205.205205205205 0.017480573331009944
6215.215215215215 0.017379861798505206
6225.225225225226 0.017279856868898907
6235.235235235235 0.017180553515850815
