#lamb flux
1000.0 1.3693397299763295e+37
1010.01001001001 1.5537514999901375e+37
1020.0200200200201 1.7577742954941962e+37
1030.03003003003 1.9828758912077933e+37
1040.0400400400401 2.230575553410658e+37
1050.05005005005 2.5024415382828445e+37
1060.06006006006 2.8000883248064505e+37
1070.07007007007 3.125173597300997e+37
1080.08008008008 3.479394994156706e+37
1090.0900900900901 3.8644866406222365e+37
1100.1001001001 4.282215484595794e+37
1110.11011011011 4.734377455260084e+37
1120.1201201201202 5.222793465095744e+37
1130.13013013013 5.749305276308812e+37
1140.1401401401401 6.31577125302347e+37
1150.1501501501502 6.924062020727891e+37
1160.16016016016 7.576056054430636e+37
1170.1701701701702 8.273635216796198e+37
1180.1801801801803 9.018680267193934e+37
1190.1901901901902 9.813066362125216e+37
1200.2002002002002 1.0658658566904863e+38
1210.2102102102103 1.1557307397772227e+38
1220.2202202202202 1.251084441281417e+38
1230.2302302302303 1.3521077869203258e+38
1240.2402402402402 1.4589788463305116e+38
1250.2502502502502 1.5718724384943397e+38
1260.2602602602603 1.6909596153982976e+38
1270.2702702702702 1.816407170702323e+38
1280.2802802802803 1.948377943407697e+38
1290.2902902902902 2.0870300490580518e+38
1300.3003003003003 2.232516532271906e+38
1310.3103103103103 2.384985036184606e+38
1320.3203203203202 2.544577489574439e+38
1330.3303303303303 2.7114298123368048e+38
1340.3403403403404 2.8856716398613854e+38
1350.3503503503503 3.0674260667616227e+38
1360.3603603603603 3.256809410303423e+38
1370.3703703703704 3.4539309937813405e+38
1380.3803803803803 3.658892949996328e+38
1390.3903903903904 3.871790044899314e+38
1400.4004004004005 4.092709521379494e+38
1410.4104104104103 4.321730963096455e+38
1420.4204204204204 4.558926178179932e+38
1430.4304304304305 4.8043591025508604e+38
1440.4404404404404 5.058085722552955e+38
1450.4504504504505 5.320154016524185e+38
1460.4604604604606 5.5906039148830406e+38
1470.4704704704704 5.869467278255358e+38
1480.4804804804805 6.156767893122827e+38
1490.4904904904906 6.452521484435033e+38
1500.5005005005005 6.7567357445918776e+38
1510.5105105105106 7.069410378173586e+38
1520.5205205205207 7.390537161768745e+38
1530.5305305305305 7.720100018230677e+38
1540.5405405405404 8.058075104673523e+38
1550.5505505505505 8.404430913506833e+38
1560.5605605605606 8.7591283857965e+38
1570.5705705705705 9.122121036234179e+38
1580.5805805805805 9.493355088992761e+38
1590.5905905905906 9.872769623745994e+38
1600.6006006006005 1.0260296731131811e+39
1610.6106106106106 1.0655861676944363e+39
1620.6206206206207 1.1059383074346655e+39
1630.6306306306305 1.147077306340514e+39
1640.6406406406406 1.1889937497259126e+39
1650.6506506506507 1.2316776134250898e+39
1660.6606606606606 1.2751182835357746e+39
1670.6706706706707 1.3193045766283114e+39
1680.6806806806808 1.3642247603582202e+39
1690.6906906906906 1.409866574421668e+39
1700.7007007007007 1.456217255547787e+39
1710.7107107107108 1.5032635675182667e+39
1720.7207207207207 1.550991794817177e+39
1730.7307307307308 1.5993877778674372e+39
1740.7407407407409 1.6484369369190966e+39
1750.7507507507507 1.6981242939199753e+39
1760.7607607607606 1.7484344943703015e+39
1770.770770770771 1.799351829120951e+39
1780.7807807807808 1.850860256078232e+39
1790.7907907907907 1.9029434217817715e+39
1800.8008008008007 1.9555846828260248e+39
1810.8108108108108 2.0087671271002392e+39
1820.8208208208207 2.0624735948266795e+39
1830.8308308308308 2.1166866993822655e+39
1840.8408408408409 2.1713888478948566e+39
1850.8508508508507 2.226562261612233e+39
1860.8608608608608 2.2821889960493375e+39
1870.870870870871 2.338250960927806e+39
1880.8808808808808 2.3947299399305757e+39
1890.890890890891 2.451607610304237e+39
1900.900900900901 2.508865562351172e+39
1910.9109109109108 2.566485318863057e+39
1920.920920920921 2.6244483545549194e+39
1930.930930930931 2.6827361155644345e+39
1940.940940940941 2.741330039081773e+39
1950.950950950951 2.8002115731693854e+39
1960.960960960961 2.8593621968155983e+39
1970.970970970971 2.9187634402375077e+39
1980.980980980981 2.9783969054045425e+39
1990.9909909909911 3.038244286690848e+39
2001.001001001001 3.0982873914815787e+39
2011.0110110110109 3.158508160455574e+39
2021.0210210210212 3.2188886871497515e+39
2031.031031031031 3.2794112362885064e+39
2041.0410410410411 3.340058260249654e+39
2051.051051051051 3.400812412958717e+39
2061.061061061061 3.461656560480607e+39
2071.071071071071 3.5225737876383764e+39
2081.081081081081 3.583547400153279e+39
2091.091091091091 3.644560922077712e+39
2101.101101101101 3.7055980886718235e+39
2111.1111111111113 3.766642835321891e+39
2121.121121121121 3.827679283556145e+39
2131.131131131131 3.888691725609079e+39
2141.141141141141 3.949664609242331e+39
2151.151151151151 4.0105825245903894e+39
2161.161161161161 4.071430194632982e+39
2171.1711711711714 4.1321924705191715e+39
2181.1811811811813 4.1928543324337303e+39
2191.191191191191 4.2534008960919065e+39
2201.201201201201 4.313817424368024e+39
2211.2112112112113 4.374089343091958e+39
2221.221221221221 4.4342022597418857e+39
2231.2312312312315 4.494141983643114e+39
2241.2412412412414 4.553894546336338e+39
2251.2512512512512 4.613446220966555e+39
2261.261261261261 4.6727835398133575e+39
2271.271271271271 4.731893309382708e+39
2281.2812812812813 4.7907626227669093e+39
2291.2912912912916 4.849378869223125e+39
2301.3013013013015 4.907729741106865e+39
2311.3113113113113 4.9658032384219414e+39
2321.321321321321 5.023587671317883e+39
2331.331331331331 5.0810716608902715e+39
2341.3413413413414 5.138244138630504e+39
2351.3513513513512 5.195094344841048e+39
2361.3613613613616 5.251611826289662e+39
2371.3713713713714 5.30778643332904e+39
2381.3813813813813 5.3636083166623436e+39
2391.391391391391 5.419067923892593e+39
2401.4014014014015 5.474155995957571e+39
2411.4114114114113 5.528863563521619e+39
2421.4214214214217 5.583181943371524e+39
2431.4314314314315 5.637102734845281e+39
2441.4414414414414 5.690617816308742e+39
2451.4514514514512 5.743719341685261e+39
2461.4614614614616 5.796399737037014e+39
2471.4714714714714 5.848651697192143e+39
2481.4814814814818 5.900468182409802e+39
2491.4914914914916 5.951842415073773e+39
2501.5015015015015 6.00276787640534e+39
2511.5115115115113 6.053238303186556e+39
2521.521521521521 6.103247684485621e+39
2531.5315315315315 6.152790258377457e+39
2541.541541541542 6.201860508653411e+39
2551.5515515515517 6.250453161515399e+39
2561.5615615615616 6.29856318225053e+39
2571.5715715715714 6.346185771883795e+39
2581.5815815815813 6.393316363806786e+39
2591.5915915915916 6.439950620381564e+39
2601.6016016016015 6.486084429519427e+39
2611.611611611612 6.53171390123492e+39
2621.6216216216217 6.576835364175856e+39
2631.6316316316315 6.621445362130737e+39
2641.6416416416414 6.66554065051518e+39
2651.6516516516517 6.70911819283919e+39
2661.6616616616616 6.752175157157509e+39
2671.671671671672 6.794708912505314e+39
2681.6816816816818 6.836717025321595e+39
2691.6916916916916 6.87819725586285e+39
2701.7017017017015 6.91914755460957e+39
2711.711711711712 6.959566058668028e+39
2721.7217217217217 6.999451088170112e+39
2731.731731731732 7.038801142673559e+39
2741.741741741742 7.077614897565252e+39
2751.7517517517517 7.115891200469868e+39
2761.7617617617616 7.153629067666539e+39
2771.7717717717715 7.190827680515542e+39
2781.781781781782 7.227486381897515e+39
2791.791791791792 7.263604672667283e+39
2801.801801801802 7.299182208124315e+39
2811.811811811812 7.334218794502028e+39
2821.8218218218217 7.368714385477513e+39
2831.8318318318316 7.402669078703914e+39
2841.841841841842 7.436083112366789e+39
2851.851851851852 7.468956861766464e+39
2861.861861861862 7.501290835927681e+39
2871.871871871872 7.533085674238098e+39
2881.881881881882 7.564342143117077e+39
2891.8918918918916 7.595061132715954e+39
2901.901901901902 7.625243653651151e+39
2911.911911911912 7.654890833771063e+39
2921.921921921922 7.684003914958018e+39
2931.931931931932 7.712584249966122e+39
2941.941941941942 7.740633299295957e+39
2951.9519519519517 7.768152628106966e+39
2961.961961961962 7.79514390316833e+39
2971.971971971972 7.821608889848924e+39
2981.9819819819822 7.847549449147199e+39
2991.991991991992 7.87296753476131e+39
3002.002002002002 7.897865190200238e+39
3012.012012012012 7.922244545936193e+39
3022.0220220220217 7.946107816598817e+39
3032.032032032032 7.969477733206534e+39
3042.0420420420423 7.992313362922664e+39
3052.052052052052 8.014639265512096e+39
3062.062062062062 8.03645814890742e+39
3072.072072072072 8.057772770167315e+39
3082.0820820820823 8.078585934793936e+39
3092.092092092092 8.098900495960915e+39
3102.102102102102 8.118719353660247e+39
3112.1121121121123 8.13804545377552e+39
3122.122122122122 8.156881787089046e+39
3132.132132132132 8.175231388229522e+39
3142.1421421421423 8.193097334566695e+39
3152.152152152152 8.210482745059027e+39
3162.162162162162 8.22739077906009e+39
3172.1721721721724 8.243824635088815e+39
3182.1821821821823 8.259787549568772e+39
3192.192192192192 8.275282795540854e+39
3202.202202202202 8.29031368135391e+39
3212.2122122122123 8.304883549337303e+39
3222.222222222222 8.318995774459013e+39
3232.232232232232 8.332653762973066e+39
3242.2422422422424 8.345860951059272e+39
3252.252252252252 8.358620803458514e+39
3262.262262262262 8.370936812106214e+39
3272.2722722722724 8.38281249476675e+39
3282.2822822822823 8.394251393671097e+39
3292.292292292292 8.405257074159935e+39
3302.3023023023025 8.415833123334359e+39
3312.3123123123123 8.425983148715901e+39
3322.322322322322 8.435710776917748e+39
3332.3323323323325 8.445019652328634e+39
3342.3423423423424 8.453913435810849e+39
3352.352352352352 8.462395803413739e+39
3362.3623623623625 8.47047044510378e+39
3372.3723723723724 8.478141063512376e+39
3382.3823823823823 8.485411372702315e+39
3392.3923923923926 8.492285096953704e+39
3402.4024024024025 8.498765969570242e+39
3412.4124124124123 8.504857731706362e+39
3422.4224224224226 8.510564131216011e+39
3432.4324324324325 8.515888921523406e+39
3442.4424424424424 8.520835860516356e+39
3452.4524524524522 8.525408709462405e+39
3462.4624624624626 8.529611231948165e+39
3472.4724724724724 8.533447192842128e+39
3482.4824824824823 8.536920357281016e+39
3492.4924924924926 8.540034489679946e+39
3502.5025025025025 8.54279335276649e+39
3512.5125125125123 8.545200706638602e+39
3522.5225225225226 8.547260307846457e+39
3532.5325325325325 8.548975908498207e+39
3542.5425425425424 8.550351255389619e+39
3552.5525525525527 8.551390089157346e+39
3562.5625625625626 8.552096143455941e+39
3572.5725725725724 8.552473144158197e+39
3582.5825825825827 8.552524808578867e+39
3592.5925925925926 8.552254844721463e+39
3602.6026026026025 8.551666950547849e+39
3612.612612612613 8.550764813270574e+39
3622.6226226226227 8.549552108667442e+39
3632.6326326326325 8.548032500418313e+39
3642.642642642643 8.546209639463589e+39
3652.6526526526527 8.544087163384312e+39
3662.6626626626626 8.541668695803395e+39
3672.672672672673 8.538957845807822e+39
3682.6826826826828 8.535958207391262e+39
3692.6926926926926 8.532673358917069e+39
3702.7027027027025 8.529106862601053e+39
3712.712712712713 8.525262264013792e+39
3722.7227227227227 8.521143091602183e+39
3732.7327327327325 8.51675285622974e+39
3742.742742742743 8.512095050735441e+39
3752.7527527527527 8.507173149510616e+39
3762.7627627627626 8.501990608093592e+39
3772.772772772773 8.49655086278177e+39
3782.7827827827828 8.490857330260649e+39
3792.7927927927926 8.484913407249572e+39
3802.802802802803 8.478722470163732e+39
3812.812812812813 8.472287874792141e+39
3822.8228228228227 8.465612955991139e+39
3832.832832832833 8.458701027393152e+39
3842.842842842843 8.451555381130347e+39
3852.8528528528527 8.444179287572751e+39
3862.862862862863 8.436575995080539e+39
3872.872872872873 8.428748729770254e+39
3882.8828828828828 8.420700695294302e+39
3892.892892892893 8.412435072633876e+39
3902.902902902903 8.403955019904381e+39
3912.912912912913 8.395263672173648e+39
3922.922922922923 8.386364141292063e+39
3932.932932932933 8.377259515734713e+39
3942.942942942943 8.367952860454923e+39
3952.9529529529527 8.358447216749135e+39
3962.962962962963 8.348745602132589e+39
3972.972972972973 8.33885101022568e+39
3982.982982982983 8.328766410650616e+39
3992.992992992993 8.318494748938057e+39
4003.003003003003 8.308038946443547e+39
4013.013013013013 8.297401900273399e+39
4023.023023023023 8.286586483219689e+39
4033.033033033033 8.275595543704281e+39
4043.043043043043 8.264431905731362e+39
4053.053053053053 8.253098368848465e+39
4063.063063063063 8.241597708115599e+39
4073.073073073073 8.229932674082207e+39
4083.0830830830832 8.218105992771818e+39
4093.093093093093 8.206120365674102e+39
4103.103103103103 8.193978469743988e+39
4113.113113113113 8.18168295740787e+39
4123.123123123123 8.169236456576372e+39
4133.133133133133 8.156641570663688e+39
4143.143143143143 8.143900878613136e+39
4153.153153153153 8.131016934928837e+39
4163.163163163163 8.117992269713215e+39
4173.173173173173 8.104829388710109e+39
4183.183183183183 8.091530773353449e+39
4193.193193193193 8.078098880821077e+39
4203.203203203203 8.06453614409373e+39
4213.213213213214 8.050844972018908e+39
4223.223223223224 8.037027749379443e+39
4233.2332332332335 8.02308683696659e+39
4243.243243243243 8.00902457165758e+39
4253.253253253253 7.994843266497256e+39
4263.263263263263 7.980545210783872e+39
4273.273273273273 7.966132670158712e+39
4283.283283283283 7.951607886699478e+39
4293.293293293293 7.936973079017228e+39
4303.303303303303 7.922230442356831e+39
4313.313313313313 7.907382148700628e+39
4323.323323323323 7.892430346875303e+39
4333.333333333334 7.877377162661783e+39
4343.343343343344 7.862224698908016e+39
4353.353353353354 7.846975035644534e+39
4363.3633633633635 7.83163023020261e+39
4373.373373373373 7.816192317335028e+39
4383.383383383383 7.800663309339139e+39
4393.393393393393 7.785045196182304e+39
4403.403403403403 7.769339945629492e+39
4413.413413413413 7.753549503372854e+39
4423.423423423424 7.737675793163444e+39
4433.4334334334335 7.721720716944608e+39
4443.443443443443 7.705686154987248e+39
4453.453453453454 7.689573966026724e+39
4463.463463463464 7.673385987401345e+39
4473.473473473474 7.657124035192272e+39
4483.483483483484 7.640789904364892e+39
4493.493493493494 7.624385368911449e+39
4503.503503503503 7.607912181994888e+39
4513.513513513513 7.591372076093903e+39
4523.523523523523 7.574766763148939e+39
4533.533533533533 7.558097934709288e+39
4543.543543543543 7.541367262081005e+39
4553.553553553554 7.524576396475725e+39
4563.563563563564 7.507726969160211e+39
4573.573573573573 7.49082059160659e+39
4583.583583583584 7.473858855643285e+39
4593.593593593594 7.45684333360646e+39
4603.603603603604 7.439775578491967e+39
4613.613613613614 7.422657124107806e+39
4623.623623623624 7.405489485226914e+39
4633.6336336336335 7.388274157740305e+39
4643.643643643643 7.371012618810523e+39
4653.653653653653 7.35370632702527e+39
4663.663663663663 7.336356722551269e+39
4673.673673673674 7.318965227288196e+39
4683.683683683684 7.301533245022755e+39
4693.693693693694 7.284062161582737e+39
4703.703703703704 7.266553344991107e+39
4713.713713713714 7.249008145620006e+39
4723.723723723724 7.231427896344707e+39
4733.733733733734 7.213813912697376e+39
4743.743743743744 7.196167493020713e+39
4753.753753753754 7.178489918621369e+39
4763.763763763764 7.160782453923109e+39
4773.773773773773 7.143046346619687e+39
4783.783783783783 7.125282827827463e+39
4793.793793793793 7.107493112237608e+39
4803.803803803804 7.089678398267944e+39
4813.813813813814 7.071839868214439e+39
4823.823823823824 7.053978688402196e+39
4833.833833833834 7.036096009336002e+39
4843.843843843844 7.018192965850435e+39
4853.853853853854 7.000270677259361e+39
4863.863863863864 6.982330247504985e+39
4873.873873873874 6.964372765306312e+39
4883.883883883884 6.946399304306969e+39
4893.893893893894 6.92841092322252e+39
4903.9039039039035 6.910408665987074e+39
4913.913913913913 6.892393561899274e+39
4923.923923923924 6.874366625767621e+39
4933.933933933934 6.856328858055127e+39
4943.943943943944 6.838281245023221e+39
4953.953953953955 6.820224758874999e+39
4963.9639639639645 6.802160357897704e+39
4973.973973973974 6.784088986604448e+39
4983.983983983984 6.766011575875194e+39
4993.993993993994 6.747929043096967e+39
5004.004004004004 6.729842292303229e+39
5014.014014014014 6.71175221431252e+39
5024.024024024024 6.69365968686622e+39
5034.0340340340335 6.675565574765527e+39
5044.044044044043 6.657470730007593e+39
5054.054054054054 6.63937599192079e+39
5064.064064064064 6.621282187299162e+39
5074.074074074074 6.603190130535989e+39
5084.084084084085 6.585100623756446e+39
5094.0940940940945 6.567014456949487e+39
5104.104104104104 6.548932408098697e+39
5114.114114114114 6.530855243312397e+39
5124.124124124124 6.512783716952728e+39
5134.134134134134 6.49471857176392e+39
5144.144144144144 6.476660538999572e+39
5154.154154154154 6.458610338549105e+39
5164.1641641641645 6.440568679063205e+39
5174.174174174174 6.42253625807841e+39
5184.184184184184 6.404513762140731e+39
5194.194194194194 6.386501866928352e+39
5204.204204204204 6.368501237373406e+39
5214.214214214214 6.350512527782802e+39
5224.224224224225 6.332536381958115e+39
5234.2342342342345 6.314573433314543e+39
5244.244244244244 6.296624304998908e+39
5254.254254254254 6.27868961000674e+39
5264.264264264264 6.260769951298365e+39
5274.274274274274 6.242865921914119e+39
5284.284284284285 6.224978105088546e+39
5294.294294294295 6.207107074363715e+39
5304.304304304304 6.189253393701519e+39
5314.314314314314 6.171417617595118e+39
5324.324324324324 6.153600291179343e+39
5334.334334334334 6.135801950340232e+39
5344.344344344345 6.118023121823589e+39
5354.354354354355 6.10026432334259e+39
5364.3643643643645 6.082526063684484e+39
5374.374374374374 6.06480884281634e+39
5384.384384384384 6.047113151989849e+39
5394.394394394394 6.029439473845201e+39
5404.404404404404 6.011788282514034e+39
5414.414414414415 5.994160043721443e+39
5424.424424424425 5.976555214887089e+39
5434.4344344344345 5.958974245225353e+39
5444.444444444444 5.941417575844567e+39
5454.454454454454 5.923885639845394e+39
5464.464464464464 5.90637886241819e+39
5474.474474474475 5.888897660939545e+39
5484.484484484485 5.871442445067876e+39
5494.494494494495 5.854013616838111e+39
5504.504504504504 5.836611570755521e+39
5514.514514514514 5.819236693888575e+39
5524.524524524524 5.801889365960996e+39
5534.534534534535 5.784569959442863e+39
5544.544544544545 5.767278839640877e+39
5554.554554554555 5.750016364787679e+39
5564.5645645645645 5.732782886130403e+39
5574.574574574574 5.715578748018252e+39
5584.584584584584 5.698404287989286e+39
5594.594594594595 5.681259836856283e+39
5604.604604604605 5.664145718791829e+39
5614.614614614615 5.647062251412485e+39
5624.624624624625 5.630009745862124e+39
5634.6346346346345 5.612988506894474e+39
5644.644644644644 5.595998832954755e+39
5654.654654654654 5.579041016260554e+39
5664.664664664665 5.56211534288182e+39
5674.674674674675 5.545222092820073e+39
5684.684684684685 5.528361540086794e+39
5694.694694694695 5.511533952780998e+39
5704.704704704704 5.494739593166001e+39
5714.714714714714 5.477978717745407e+39
5724.724724724725 5.46125157733828e+39
5734.734734734735 5.444558417153547e+39
5744.744744744745 5.427899476863619e+39
5754.754754754755 5.411274990677206e+39
5764.764764764765 5.394685187411416e+39
5774.774774774774 5.3781302905630374e+39
5784.784784784785 5.361610518379086e+39
5794.794794794795 5.345126083926608e+39
5804.804804804805 5.328677195161706e+39
5814.814814814815 5.3122640549978575e+39
5824.824824824825 5.295886861373471e+39
5834.8348348348345 5.279545807318708e+39
5844.844844844845 5.263241081021624e+39
5854.854854854855 5.2469728658935266e+39
5864.864864864865 5.230741340633664e+39
5874.874874874875 5.2145466792931963e+39
5884.884884884885 5.1983890513384615e+39
5894.894894894895 5.182268621713537e+39
5904.9049049049045 5.1661855509021214e+39
5914.914914914915 5.15013999498874e+39
5924.924924924925 5.1341321057192505e+39
5934.934934934935 5.118162030560674e+39
