#lamb flux
1000.0 0.0011475383383010098
1010.01001001001 0.001264014391582834
1020.0200200200201 0.0013889953397059434
1030.03003003003 0.001522810402705587
1040.0400400400401 0.0016657821009347566
1050.05005005005 0.00181822517283674
1060.06006006006 0.0019804455325419727
1070.07007007007 0.0021527392720175507
1080.08008008008 0.0023353917119753424
1090.0900900900901 0.0025286765052185836
1100.1001001001 0.0027328547955848435
1110.11011011011 0.0029481744351284307
1120.1201201201202 0.003174869261683364
1130.13013013013 0.0034131584384619416
1140.1401401401401 0.0036632458568775467
1150.1501501501502 0.003925319603335518
1160.16016016016 0.004199551490316209
1170.1701701701702 0.004486096651679665
1180.1801801801803 0.004785093201754928
1190.1901901901902 0.005096661957437799
1200.2002002002002 0.00542090622221101
1210.2102102102103 0.0057579116307193865
1220.2202202202202 0.006107746052279518
1230.2302302302303 0.006470459551479578
1240.2402402402402 0.006846084403827265
1250.2502502502502 0.007234634720622147
1260.2602602602603 0.007636105990983047
1270.2702702702702 0.008050474803882731
1280.2802802802803 0.008477702842248667
1290.2902902902902 0.00891773480233874
1300.3003003003003 0.009370498690613118
1310.3103103103103 0.00983590615800105
1320.3203203203202 0.010313852868802072
1330.3303303303303 0.01080421890146237
1340.3403403403404 0.011306869178481891
1350.3503503503503 0.011821653922739341
1360.3603603603603 0.0123484091375626
1370.3703703703704 0.012886957107926015
1380.3803803803803 0.013437106920219268
1390.3903903903904 0.0139986549981034
1400.4004004004005 0.014571385652048182
1410.4104104104103 0.015155071640231395
1420.4204204204204 0.015749474738569212
1430.4304304304305 0.01635434631774268
1440.4404404404404 0.01696942792518228
1450.4504504504505 0.01759445187007374
1460.4604604604606 0.018229141809549168
1470.4704704704704 0.018873213334331982
1480.4804804804805 0.019526374552205853
1490.4904904904906 0.020188326667782874
1500.5005005005005 0.020858764557145845
1510.5105105105106 0.02153737733604415
1520.5205205205207 0.02222384892041807
1530.5305305305305 0.022917858578127046
1540.5405405405404 0.02361908147085024
1550.5505505505505 0.02432718918522096
1560.5605605605606 0.025041850252345538
1570.5705705705705 0.025762730654943725
1580.5805805805805 0.026489494321430773
1590.5905905905906 0.02722180360634131
1600.6006006006005 0.02795931975657051
1610.6106106106106 0.028701703362983007
1620.6206206206207 0.02944861479700659
1630.6306306306305 0.030199714631896756
1640.6406406406406 0.030954664048417947
1650.6506506506507 0.03171312522474818
1660.6606606606606 0.03247476171046989
1670.6706706706707 0.03323923878456114
1680.6806806806808 0.03400622379735317
1690.6906906906906 0.034775386496466075
1700.7007007007007 0.03554639944935234
1710.7107107107108 0.03631893858555603
1720.7207207207207 0.03709268263412057
1730.7307307307308 0.0378673138025392
1740.7407407407409 0.03864251808652685
1750.7507507507507 0.03941798550273339
1760.7607607607606 0.040193410306692996
1770.770770770771 0.04096849119635219
1780.7807807807808 0.041742931501563205
1790.7907907907907 0.042516439359977946
1800.8008008008007 0.043288727879831686
1810.8108108108108 0.044059515290164254
1820.8208208208207 0.044828525079099166
1830.8308308308308 0.04559548612087501
1840.8408408408409 0.046360132792414806
1850.8508508508507 0.047122205080322305
1860.8608608608608 0.04788144867930336
1870.870870870871 0.048637615083142745
1880.8808808808808 0.049390461669494276
1890.890890890891 0.05013975177988633
1900.900900900901 0.050885254796473614
1910.9109109109108 0.051626746217182426
1920.920920920921 0.05236400773096717
1930.930930930931 0.053096827294902546
1940.940940940941 0.0538249992147349
1950.950950950951 0.05454832423025897
1960.960960960961 0.055266609606427736
1970.970970970971 0.05597966923036984
1980.980980980981 0.056687323713441255
1990.9909909909911 0.05738940049601845
2001.001001001001 0.05808573395095819
2011.0110110110109 0.058776165479538164
2021.0210210210212 0.05946054359138994
2031.031031031031 0.06013872395766552
2041.0410410410411 0.060810569424784695
2051.051051051051 0.06147594997503889
2061.061061061061 0.062134742620570324
2071.071071071071 0.06278683121929478
2081.081081081081 0.06343210620550613
2091.091091091091 0.06407046423424008
2101.101101101101 0.0647018077466137
2111.1111111111113 0.06532604447244865
2121.121121121121 0.06594308689525932
2131.131131131131 0.06655285171163758
2141.141141141141 0.06715525932074534
2151.151151151151 0.06775023337901051
2161.161161161161 0.0683377004499144
2171.1711711711714 0.06891758976953592
2181.1811811811813 0.06948983313665451
2191.191191191191 0.07005436492358814
2201.201201201201 0.07061112219252254
2211.2112112112113 0.07116004489346782
2221.221221221221 0.0717010761151185
2231.2312312312315 0.07223416235896832
2241.2412412412414 0.07275925380952553
2251.2512512512512 0.07327630457842958
2261.261261261261 0.07378527290653694
2271.271271271271 0.07428612131454501
2281.2812812812813 0.07477881669862851
2291.2912912912916 0.07526333037234852
2301.3013013013015 0.07573963805953461
2311.3113113113113 0.07620771984496351
2321.321321321321 0.07666756009063616
2331.331331331331 0.07711914732554265
2341.3413413413414 0.07756247411628411
2351.3513513513512 0.07799753692502227
2361.3613613613616 0.07842433596016267
2371.3713713713714 0.0788428750240841
2381.3813813813813 0.07925316136120371
2391.391391391391 0.07965520550876605
2401.4014014014015 0.08004902115198859
2411.4114114114113 0.0804346249845928
2421.4214214214217 0.08081203657528074
2431.4314314314315 0.08118127824036861
2441.4414414414414 0.08154237492254345
2451.4514514514512 0.08189535407554208
2461.4614614614616 0.08224024555444497
2471.4714714714714 0.08257708151122164
2481.4814814814818 0.08290589629513982
2491.4914914914916 0.08322672635764725
2501.5015015015015 0.08353961016135453
2511.5115115115113 0.08384458809276624
2521.521521521521 0.08414170237844061
2531.5315315315315 0.08443099700428963
2541.541541541542 0.08471251763776161
2551.5515515515517 0.08498631155268013
2561.5615615615616 0.08525242755654071
2571.5715715715714 0.0855109159200943
2581.5815815815813 0.0857618283090663
2591.5915915915916 0.0860052177178848
2601.6016016016015 0.08624113840530527
2611.611611611612 0.08646964583183661
2621.6216216216217 0.08669079659888743
2631.6316316316315 0.08690464838955882
2641.6416416416414 0.08711125991102424
2651.6516516516517 0.08731069083844209
2661.6616616616616 0.08750300176035249
2671.671671671672 0.08768825412551906
2681.6816816816818 0.08786651019117607
2691.6916916916916 0.08803783297265007
2701.7017017017015 0.08820228619432355
2711.711711711712 0.08835993424191456
2721.7217217217217 0.08851084211604593
2731.731731731732 0.08865507538707919
2741.741741741742 0.08879270015119244
2751.7517517517517 0.08892378298767718
2761.7617617617616 0.08904839091743674
2771.7717717717715 0.08916659136266286
2781.781781781782 0.08927845210767195
2791.791791791792 0.08938404126088134
2801.801801801802 0.08948342721790604
2811.811811811812 0.08957667862575698
2821.8218218218217 0.08966386434812121
2831.8318318318316 0.08974505343170665
2841.841841841842 0.08982031507363089
2851.851851851852 0.08988971858983642
2861.861861861862 0.0899533333845138
2871.871871871872 0.09001122892051229
2881.881881881882 0.09006347469072276
2891.8918918918916 0.0901101401904104
2901.901901901902 0.09015129489048183
2911.911911911912 0.0901870082116663
2921.921921921922 0.09021734949959326
2931.931931931932 0.0902423880007486
2941.941941941942 0.09026219283928982
2951.9519519519517 0.09027683299470285
2961.961961961962 0.09028637728028271
2971.971971971972 0.0902908943224198
2981.9819819819822 0.09029045254067343
2991.991991991992 0.0902851201286156
3002.002002002002 0.09027496503542776
3012.012012012012 0.09026005494823174
3022.0220220220217 0.09024045727513919
3032.032032032032 0.09021652342794159
3042.0420420420423 0.09018771690370864
3052.052052052052 0.09015441285256928
3062.062062062062 0.09011668004086712
3072.072072072072 0.09007458655063463
3082.0820820820823 0.09002819979758402
3092.092092092092 0.08997758654726053
3102.102102102102 0.08992281292951458
3112.1121121121123 0.08986394445143525
3122.122122122122 0.08980104600888121
3132.132132132132 0.0897341818967333
3142.1421421421423 0.08966341581798483
3152.152152152152 0.08958881089177721
3162.162162162162 0.08951042966048148
3172.1721721721724 0.08942833409591781
3182.1821821821823 0.08934258560479968
3192.192192192192 0.08925324503348074
3202.202202202202 0.08916037267207838
3212.2122122122123 0.0890640282580439
3222.222222222222 0.08896427097923731
3232.232232232232 0.08886115947656952
3242.2422422422424 0.0887547518462609
3252.252252252252 0.08864510564176808
3262.262262262262 0.08853227787542119
3272.2722722722724 0.0884163250198153
3282.2822822822823 0.08829730300899173
3292.292292292292 0.08817526723944365
3302.3023023023025 0.0880502725709798
3312.3123123123123 0.08792237332747138
3322.322322322322 0.08779162329751111
3332.3323323323325 0.08765807573500636
3342.3423423423424 0.08752178335972852
3352.352352352352 0.08738279835783729
3362.3623623623625 0.08724117238239813
3372.3723723723724 0.08709695655390733
3382.3823823823823 0.08695020146083889
3392.3923923923926 0.08680095716022683
3402.4024024024025 0.08664927317829176
3412.4124124124123 0.08649519851112263
3422.4224224224226 0.08633878162542284
3432.4324324324325 0.0861800704593255
3442.4424424424424 0.08601911242328734
3452.4524524524522 0.08585595440106351
3462.4624624624626 0.08569064275077032
3472.4724724724724 0.08552322330603852
3482.4824824824823 0.08535374137725923
3492.4924924924926 0.08518224175292675
3502.5025025025025 0.08500876870107867
3512.5125125125123 0.08483336597083423
3522.5225225225226 0.08465607679403303
3532.5325325325325 0.0844769438869724
3542.5425425425424 0.0842960094522452
3552.5525525525527 0.08411331518067547
3562.5625625625626 0.08392890225335305
3572.5725725725724 0.0837428113437643
3582.5825825825827 0.08355508262001822
3592.5925925925926 0.0833657557471669
3602.6026026026025 0.0831748698896165
3612.612612612613 0.0829824637136294
3622.6226226226227 0.082788575389912
3632.6326326326325 0.08259324259628933
3642.642642642643 0.08239650252046082
3652.6526526526527 0.0821983918628371
3662.6626626626626 0.08199894683945268
3672.672672672673 0.0817982031849552
3682.6826826826828 0.08159619615566388
3692.6926926926926 0.08139296053269936
3702.7027027027025 0.08118853062517768
3712.712712712713 0.080982940273468
3722.7227227227227 0.08077622285251122
3732.7327327327325 0.0805684112751946
3742.742742742743 0.08035953799578219
3752.7527527527527 0.08014963501339577
3762.7627627627626 0.07993873387554516
3772.772772772773 0.07972686568170412
3782.7827827827828 0.07951406108692967
3792.7927927927926 0.07930035030552128
3802.802802802803 0.07908576311471842
3812.812812812813 0.07887032885843254
3822.8228228228227 0.07865407645101148
3832.832832832833 0.0784370343810343
3842.842842842843 0.07821923071513247
3852.8528528528527 0.07800069310183703
3862.862862862863 0.07778144877544711
3872.872872872873 0.0775615245599198
3882.8828828828828 0.07734094687277614
3892.892892892893 0.07711974172902525
3902.902902902903 0.07689793474509948
3912.912912912913 0.07667555114280239
3922.922922922923 0.07645261575326585
3932.932932932933 0.07622915302091433
3942.942942942943 0.07600518700743483
3952.9529529529527 0.07578074139575057
3962.962962962963 0.07555583949399616
3972.972972972973 0.07533050423949342
3982.982982982983 0.07510475820272579
3992.992992992993 0.07487862359130851
4003.003003003003 0.07465212225395561
4013.013013013013 0.07442527568443999
4023.023023023023 0.07419810502554597
4033.033033033033 0.07397063107301301
4043.043043043043 0.07374287427946917
4053.053053053053 0.07351485475835313
4063.063063063063 0.07328659228782326
4073.073073073073 0.07305810631465302
4083.0830830830832 0.07282941595811133
4093.093093093093 0.07260054001382682
4103.103103103103 0.07237149695763494
4113.113113113113 0.0721423049494076
4123.123123123123 0.07191298183686283
4133.133133133133 0.07168354515935574
4143.143143143143 0.07145401215164802
4153.153153153153 0.07122439974765664
4163.163163163163 0.07099472458417994
4173.173173173173 0.0707650030046009
4183.183183183183 0.07053525106256726
4193.193193193193 0.07030548452564699
4203.203203203203 0.07007571887895914
4213.213213213214 0.06984596932877962
4223.223223223224 0.06961625080612101
4233.2332332332335 0.06938657797028586
4243.243243243243 0.06915696521239358
4253.253253253253 0.0689274266588796
4263.263263263263 0.06869797617496773
4273.273273273273 0.06846862736811364
4283.283283283283 0.0682393935914208
4293.293293293293 0.06801028794702732
4303.303303303303 0.06778132328946417
4313.313313313313 0.06755251222898434
4323.323323323323 0.06732386713486206
4333.333333333334 0.06709540013866304
4343.343343343344 0.06686712313748461
4353.353353353354 0.06663904779716606
4363.3633633633635 0.06641118555546856
4373.373373373373 0.06618354762522541
4383.383383383383 0.06595614499746129
4393.393393393393 0.06572898844448154
4403.403403403403 0.06550208852293096
4413.413413413413 0.06527545557682156
4423.423423423424 0.06504909974053046
4433.4334334334335 0.06482303094176649
4443.443443443443 0.06459725890450646
4453.453453453454 0.06437179315190093
4463.463463463464 0.06414664300914935
4473.473473473474 0.06392181760634424
4483.483483483484 0.06369732588128535
4493.493493493494 0.0634731765822632
4503.503503503503 0.063249378270812
4513.513513513513 0.06302593932443273
4523.523523523523 0.06280286793928538
4533.533533533533 0.06258017213285172
4543.543543543543 0.062357859746567504
4553.553553553554 0.06213593844842509
4563.563563563564 0.061914415735546284
4573.573573573573 0.06169329893672534
4583.583583583584 0.06147259521494269
4593.593593593594 0.06125231156984923
4603.603603603604 0.061032454840221254
4613.613613613614 0.060813031706386945
4623.623623623624 0.0605940486926231
4633.6336336336335 0.06037551216952406
4643.643643643643 0.06015742835634145
4653.653653653653 0.05993980332329614
4663.663663663663 0.05972264299386163
4673.673673673674 0.05950595314701979
4683.683683683684 0.05928973941948878
4693.693693693694 0.05907400730792322
4703.703703703704 0.05885876217108753
4713.713713713714 0.05864400923200159
4723.723723723724 0.05842975358005988
4733.733733733734 0.058216000173123596
4743.743743743744 0.058002753839586675
4753.753753753754 0.057790019280415134
4763.763763763764 0.057577801071160783
4773.773773773773 0.05736610366394869
4783.783783783783 0.05715493138943948
4793.793793793793 0.056944288458766035
4803.803803803804 0.056734178965444824
4813.813813813814 0.05652460688726304
4823.823823823824 0.05631557608814029
4833.833833833834 0.056107090319966156
4843.843843843844 0.055899153224413835
4853.853853853854 0.05569176833472919
4863.863863863864 0.05548493907749657
4873.873873873874 0.05527866877438093
4883.883883883884 0.055072960643846564
4893.893893893894 0.05486781780285299
4903.9039039039035 0.05466324326852804
4913.913913913913 0.05445923995981808
4923.923923923924 0.054255810699116225
4933.933933933934 0.054052958213868345
4943.943943943944 0.053850685138157044
4953.953953953955 0.053648994014264234
4963.9639639639645 0.053447887294212244
4973.973973973974 0.05324736734128349
4983.983983983984 0.05304743643151969
4993.993993993994 0.052848096755199934
5004.004004004004 0.05264935041829839
5014.014014014014 0.05245119944392207
5024.024024024024 0.052253645773727854
5034.0340340340335 0.05205669126932053
5044.044044044043 0.05186033771363072
5054.054054054054 0.05166458681227362
5064.064064064064 0.05146944019488866
5074.074074074074 0.05127489941646014
5084.084084084085 0.0510809659586192
5094.0940940940945 0.0508876412309275
5104.104104104104 0.0506949265721424
5114.114114114114 0.05050282325146421
5124.124124124124 0.05031133246976571
5134.134134134134 0.050120455360803846
5144.144144144144 0.049930192992414274
5154.154154154154 0.04974054636768859
5164.1641641641645 0.04955151642613453
5174.174174174174 0.04936310404481955
5184.184184184184 0.04917531003949773
5194.194194194194 0.0489881351657203
5204.204204204204 0.048801580119930146
5214.214214214214 0.04861564554054024
5224.224224224225 0.04843033200899624
5234.2342342342345 0.048245640050823844
5244.244244244244 0.04806157013666025
5254.254254254254 0.04787812268327115
5264.264264264264 0.04769529805455187
5274.274274274274 0.047513096562514616
5284.284284284285 0.0473315184682604
5294.294294294295 0.047150563982937044
5304.304304304304 0.04697023326868258
5314.314314314314 0.04679052643955491
5324.324324324324 0.04661144356244733
5334.334334334334 0.04643298465799051
5344.344344344345 0.046255149701441095
5354.354354354355 0.04607793862355662
5364.3643643643645 0.0459013513114575
5374.374374374374 0.04572538760947612
5384.384384384384 0.04555004731999285
5394.394394394394 0.04537533020425961
5404.404404404404 0.0452012359832108
5414.414414414415 0.045027764338262055
5424.424424424425 0.04485491491209689
5434.4344344344345 0.04468268730944102
5444.444444444444 0.04451108109782514
5454.454454454454 0.044340095808336144
5464.464464464464 0.04416973093635644
5474.474474474475 0.04399998594229223
5484.484484484485 0.04383086025229044
5494.494494494495 0.04366235325894452
5504.504504504504 0.0434944643219896
5514.514514514514 0.043327192768986514
5524.524524524524 0.043160537895995596
5534.534534534535 0.04299449896823966
5544.544544544545 0.04282907522075702
5554.554554554555 0.04266426585904384
5564.5645645645645 0.042500070059686944
5574.574574574574 0.04233648697098638
5584.584584584584 0.04217351571356837
5594.594594594595 0.042011155380988506
5604.604604604605 0.04184940504032565
5614.614614614615 0.04168826373276614
5624.624624624625 0.04152773047417905
5634.6346346346345 0.0413678042556823
5644.644644644644 0.04120848404419943
5654.654654654654 0.04104976878300822
5664.664664664665 0.0408916573922796
5674.674674674675 0.04073414876960902
5684.684684684685 0.04057724179053839
5694.694694694695 0.040420935309070295
5704.704704704704 0.04026522815817355
5714.714714714714 0.04011011915028088
5724.724724724725 0.03995560707777839
5734.734734734735 0.03980169071348722
5744.744744744745 0.039648368811137445
5754.754754754755 0.03949564010583407
5764.764764764765 0.03934350331451573
5774.774774774774 0.039191957136405754
5784.784784784785 0.03904100025345586
5794.794794794795 0.03889063133078265
5804.804804804805 0.038740849017096936
5814.814814814815 0.038591651945125885
5824.824824824825 0.038443038732028596
5834.8348348348345 0.038295007979804174
5844.844844844845 0.03814755827569386
5854.854854854855 0.03800068819257571
5864.864864864865 0.03785439628935326
5874.874874874875 0.03770868111133755
5884.884884884885 0.03756354119062276
5894.894894894895 0.03741897504645553
5904.9049049049045 0.037274981185598174
5914.914914914915 0.037131558102685785
5924.924924924925 0.0369887042805774
5934.934934934935 0.036846418190700864
5944.944944944945 0.03670469829339255
5954.954954954955 0.036563543038230596
5964.964964964965 0.036422950864363014
5974.974974974975 0.03628292020082986
5984.984984984985 0.036143449466880306
5994.994994994995 0.03600453707228376
6005.005005005005 0.03586618141763608
6015.015015015015 0.03572838089466041
6025.025025025025 0.03559113388650273
6035.035035035035 0.035454438768022394
6045.045045045045 0.03531829390607767
6055.055055055055 0.03518269765980621
6065.065065065065 0.03504764838090071
6075.075075075075 0.034913144413879785
6085.085085085085 0.03477918409635402
6095.0950950950955 0.034645765759287454
6105.105105105105 0.034512887727254436
6115.115115115115 0.03438054831869182
6125.125125125125 0.034248745846146955
6135.135135135135 0.03411747861652107
6145.145145145145 0.03398674493130837
6155.155155155155 0.03385654308683097
6165.1651651651655 0.033726871374469496
6175.175175175175 0.03359772808088968
6185.185185185185 0.03346911148826468
