#lamb flux
1000.0 1.1805042871009748e+40
1010.01001001001 1.2262981647844768e+40
1020.0200200200201 1.2707707917423151e+40
1030.03003003003 1.3138775355302157e+40
1040.0400400400401 1.3555874366619942e+40
1050.05005005005 1.3958818053700506e+40
1060.06006006006 1.4347528555446829e+40
1070.07007007007 1.472202395340779e+40
1080.08008008008 1.508240588506491e+40
1090.0900900900901 1.5428847959150476e+40
1100.1001001001 1.5761585030040193e+40
1110.11011011011 1.6080903357677935e+40
1120.1201201201202 1.6387131655249498e+40
1130.13013013013 1.6680633008080465e+40
1140.1401401401401 1.6961797633176891e+40
1150.1501501501502 1.7231036438701433e+40
1160.16016016016 1.7488775335794337e+40
1170.1701701701702 1.7735450250899122e+40
1180.1801801801803 1.7971502784606748e+40
1190.1901901901902 1.8197376462530013e+40
1200.2002002002002 1.841351352447976e+40
1210.2102102102103 1.8620352199908607e+40
1220.2202202202202 1.8818324419956015e+40
1230.2302302302303 1.9007853919249636e+40
1240.2402402402402 1.918935468372309e+40
1250.2502502502502 1.9362457301104486e+40
1260.2602602602603 1.9525220081216822e+40
1270.2702702702702 1.9673774789111273e+40
1280.2802802802803 1.9808527396094214e+40
1290.2902902902902 1.9929893273865371e+40
1300.3003003003003 2.003829438308259e+40
1310.3103103103103 2.01341567414905e+40
1320.3203203203202 2.021790815432722e+40
1330.3303303303303 2.0289976189591225e+40
1340.3403403403404 2.0350786380865373e+40
1350.3503503503503 2.0400760640712545e+40
1360.3603603603603 2.0440315868129965e+40
1370.3703703703704 2.0469862734140192e+40
1380.3803803803803 2.0489804630276328e+40
1390.3903903903904 2.0500536765458115e+40
1400.4004004004005 2.0502445397533317e+40
1410.4104104104103 2.0495907186558597e+40
1420.4204204204204 2.0481288657696954e+40
1430.4304304304305 2.0458945762407273e+40
1440.4404404404404 2.042922352738452e+40
1450.4504504504505 2.0392455781467523e+40
1460.4604604604606 2.0348964951463673e+40
1470.4704704704704 2.0299061918539003e+40
1480.4804804804805 2.0243045927486905e+40
1490.4904904904906 2.018120454181838e+40
1500.5005005005005 2.0113813638208789e+40
1510.5105105105106 2.0041137434393453e+40
1520.5205205205207 1.9963428545125873e+40
1530.5305305305305 1.9880928061300378e+40
1540.5405405405404 1.9793865647798402e+40
1550.5505505505505 1.9702459656045324e+40
1560.5605605605606 1.9606917247667203e+40
1570.5705705705705 1.9507434526017356e+40
1580.5805805805805 1.940419667270459e+40
1590.5905905905906 1.9297378086603512e+40
1600.6006006006005 1.9187142523167776e+40
1610.6106106106106 1.9073643232205478e+40
1620.6206206206207 1.8957023092618108e+40
1630.6306306306305 1.8837414742960632e+40
1640.6406406406406 1.8714940707056543e+40
1650.6506506506507 1.8589713514312756e+40
1660.6606606606606 1.8461835814832836e+40
1670.6706706706707 1.8331400489942987e+40
1680.6806806806808 1.8198490759336167e+40
1690.6906906906906 1.806318028672915e+40
1700.7007007007007 1.79255702177889e+40
1710.7107107107108 1.7785863011752e+40
1720.7207207207207 1.764408623570222e+40
1730.7307307307308 1.7500240486972626e+40
1740.7407407407409 1.7354320344442921e+40
1750.7507507507507 1.72063144103364e+40
1760.7607607607606 1.705620540411232e+40
1770.770770770771 1.6903970323018362e+40
1780.7807807807808 1.674958068692798e+40
1790.7907907907907 1.6593002888638558e+40
1800.8008008008007 1.6434198674881438e+40
1810.8108108108108 1.6273125787905236e+40
1820.8208208208207 1.6109738802620568e+40
1830.8308308308308 1.5943990199864184e+40
1840.8408408408409 1.5775831722206933e+40
1850.8508508508507 1.5605216064642112e+40
1860.8608608608608 1.5432098958048043e+40
1870.870870870871 1.525644170793471e+40
1880.8808808808808 1.5078214253822282e+40
1890.890890890891 1.48973988145247e+40
1900.900900900901 1.471399418013787e+40
1910.9109109109108 1.4528020700785633e+40
1920.920920920921 1.433952600291209e+40
1930.930930930931 1.4148591433566917e+40
1940.940940940941 1.395533918903041e+40
1950.950950950951 1.3759940023774138e+40
1960.960960960961 1.3562621357369282e+40
1970.970970970971 1.336367550018464e+40
1980.980980980981 1.316346760558273e+40
1990.9909909909911 1.2962442832290207e+40
2001.001001001001 1.2761132075650188e+40
2011.0110110110109 1.256015551574762e+40
2021.0210210210212 1.2360223154373483e+40
2031.031031031031 1.216213149597711e+40
2041.0410410410411 1.1966755595974265e+40
2051.051051051051 1.1775035875596762e+40
2061.061061061061 1.1587959399110766e+40
2071.071071071071 1.140653572395857e+40
2081.081081081081 1.123176794291941e+40
2091.091091091091 1.1064620091564553e+40
2101.101101101101 1.090598262474689e+40
2111.1111111111113 1.0756638090961037e+40
2121.121121121121 1.0617229373493154e+40
2131.131131131131 1.0488232861781147e+40
2141.141141141141 1.0369938639372548e+40
2151.151151151151 1.026243924435545e+40
2161.161161161161 1.0165627836133914e+40
2171.1711711711714 1.0079205784519024e+40
2181.1811811811813 1.00026988943228e+40
2191.191191191191 9.935480796004666e+39
2201.201201201201 9.876801550381964e+39
2211.2112112112113 9.825819275523963e+39
2221.221221221221 9.78163260852733e+39
2231.2312312312315 9.74331203025527e+39
2241.2412412412414 9.709928449433985e+39
2251.2512512512512 9.680577895404515e+39
2261.261261261261 9.65440164037022e+39
2271.271271271271 9.630601508099699e+39
2281.2812812812813 9.608450489702589e+39
2291.2912912912916 9.587299059208099e+39
2301.3013013013015 9.566577758876143e+39
2311.3113113113113 9.545796714758756e+39
2321.321321321321 9.524542762399564e+39
2331.331331331331 9.502474829058982e+39
2341.3413413413414 9.479318150601364e+39
2351.3513513513512 9.454857814017084e+39
2361.3613613613616 9.428932023016227e+39
2371.3713713713714 9.401425393230629e+39
2381.3813813813813 9.372262501071889e+39
2391.391391391391 9.341401839325154e+39
2401.4014014014015 9.308830274215895e+39
2411.4114114114113 9.274558052699418e+39
2421.4214214214217 9.238614373973287e+39
2431.4314314314315 9.201043514151169e+39
2441.4414414414414 9.161901475970126e+39
2451.4514514514512 9.121253124688072e+39
2461.4614614614616 9.079169765479065e+39
2471.4714714714714 9.035727115377775e+39
2481.4814814814818 8.991003623113159e+39
2491.4914914914916 8.945079092172691e+39
2501.5015015015015 8.898033565510142e+39
2511.5115115115113 8.849946433974686e+39
2521.521521521521 8.800895734450314e+39
2531.5315315315315 8.750957607612492e+39
2541.541541541542 8.700205888974106e+39
2551.5515515515517 8.648711810406961e+39
2561.5615615615616 8.596543792533768e+39
2571.5715715715714 8.543767311267004e+39
2581.5815815815813 8.490444824322437e+39
2591.5915915915916 8.436635745771163e+39
2601.6016016016015 8.382396458634085e+39
2611.611611611612 8.327780357194155e+39
2621.6216216216217 8.272837912131115e+39
2631.6316316316315 8.217616752798925e+39
2641.6416416416414 8.162161761994603e+39
2651.6516516516517 8.106515179432317e+39
2661.6616616616616 8.050716710862181e+39
2671.671671671672 7.994803640378428e+39
2681.6816816816818 7.938810943964588e+39
2691.6916916916916 7.882771402739873e+39
2701.7017017017015 7.826715714714067e+39
2711.711711711712 7.770672604140099e+39
2721.7217217217217 7.714668927783678e+39
2731.731731731732 7.658729777616522e+39
2741.741741741742 7.602878579591286e+39
2751.7517517517517 7.547137188277728e+39
2761.7617617617616 7.491525977236917e+39
2771.7717717717715 7.436063925086919e+39
2781.781781781782 7.380768697273567e+39
2791.791791791792 7.325656723606271e+39
2801.801801801802 7.270743271654134e+39
2811.811811811812 7.216042516123709e+39
2821.8218218218217 7.161567604358651e+39
2831.8318318318316 7.107330718114369e+39
2841.841841841842 7.053343131768889e+39
2851.851851851852 6.999615267135695e+39
2861.861861861862 6.9461567450456e+39
2871.871871871872 6.892976433863837e+39
2881.881881881882 6.840082495106126e+39
2891.8918918918916 6.787482426313183e+39
2901.901901901902 6.735183101338409e+39
2911.911911911912 6.683190808197743e+39
2921.921921921922 6.631511284624489e+39
2931.931931931932 6.58014975146563e+39
2941.941941941942 6.529110944049373e+39
2951.9519519519517 6.478399141647243e+39
2961.961961961962 6.428018195147397e+39
2971.971971971972 6.377971553049411e+39
2981.9819819819822 6.328262285884533e+39
2991.991991991992 6.278893109159365e+39
3002.002002002002 6.2298664049151e+39
3012.012012012012 6.181184241988866e+39
3022.0220220220217 6.13284839505845e+39
3032.032032032032 6.097347802969652e+39
3042.0420420420423 6.048100646306439e+39
3052.052052052052 5.998780526644417e+39
3062.062062062062 5.949511071579732e+39
3072.072072072072 5.900397895291143e+39
3082.0820820820823 5.851530541225701e+39
3092.092092092092 5.802984259133852e+39
3102.102102102102 5.754821624774996e+39
3112.1121121121123 5.707094011458829e+39
3122.122122122122 5.659842923039226e+39
3132.132132132132 5.613101198127647e+39
3142.1421421421423 5.566894095216347e+39
3152.152152152152 5.521240268157656e+39
3162.162162162162 5.476152641083203e+39
3172.1721721721724 5.431639191403342e+39
3182.1821821821823 5.387703649033041e+39
3192.192192192192 5.3443461194684664e+39
3202.202202202202 5.3015636378067806e+39
3212.2122122122123 5.259350660272856e+39
3222.222222222222 5.2176994993007184e+39
3232.232232232232 5.176600707721432e+39
3242.2422422422424 5.136043417137227e+39
3252.252252252252 5.096015635116855e+39
3262.262262262262 5.0565045054313036e+39
3272.2722722722724 5.0174965351622156e+39
3282.2822822822823 4.978977792157799e+39
3292.292292292292 4.94093407598171e+39
3302.3023023023025 4.903351065198447e+39
3312.3123123123123 4.8662144435625297e+39
3322.322322322322 4.8295100074270355e+39
3332.3323323323325 4.7932237564577446e+39
3342.3423423423424 4.757341969531349e+39
3352.352352352352 4.721851267507233e+39
3362.3623623623625 4.6867386643919905e+39
3372.3723723723724 4.651991608261151e+39
3382.3823823823823 4.617598013163182e+39
3392.3923923923926 4.583546283105223e+39
3402.4024024024025 4.549825329106095e+39
3412.4124124124123 4.51642458020002e+39
3422.4224224224226 4.483333989182202e+39
3432.4324324324325 4.4505440338042286e+39
3442.4424424424424 4.418045714052457e+39
3452.4524524524522 4.385830546075075e+39
3462.4624624624626 4.3538905532628254e+39
3472.4724724724724 4.322218254933698e+39
3482.4824824824823 4.2908066530225115e+39
3492.4924924924926 4.259649217132151e+39
3502.5025025025025 4.228739868263033e+39
3512.5125125125123 4.198072961501518e+39
3522.5225225225226 4.16764326791553e+39
3532.5325325325325 4.137445955876347e+39
3542.5425425425424 4.1074765719993855e+39
3552.5525525525527 4.077731021872921e+39
3562.5625625625626 4.048205550722485e+39
3572.5725725725724 4.018896724139413e+39
3582.5825825825827 3.9898014089847677e+39
3592.5925925925926 3.960916754564312e+39
3602.6026026026025 3.9322401741562197e+39
3612.612612612613 3.9037693269607467e+39
3622.6226226226227 3.8755021005297366e+39
3632.6326326326325 3.8474365937238367e+39
3642.642642642643 3.819571100236271e+39
3652.6526526526527 3.7919040927139255e+39
3662.6626626626626 3.7644342074993293e+39
3672.672672672673 3.7371602300108026e+39
3682.6826826826828 3.7100810807722606e+39
3692.6926926926926 3.6831958020992316e+39
3702.7027027027025 3.6565035454431817e+39
3712.712712712713 3.630003559392415e+39
3722.7227227227227 3.60369517832437e+39
3732.7327327327325 3.5775778117011965e+39
3742.742742742743 3.551650933998007e+39
3752.7527527527527 3.5259140752509464e+39
3762.7627627627626 3.5003668122104176e+39
3772.772772772773 3.4750087600832525e+39
3782.7827827827828 3.449839564846325e+39
3792.7927927927926 3.4248588961130453e+39
3802.802802802803 3.4000664405334106e+39
3812.812812812813 3.375461895707619e+39
3822.8228228228227 3.351044964592811e+39
3832.832832832833 3.3268153503822325e+39
3842.842842842843 3.3027727518359524e+39
3852.8528528528527 3.2789168590422375e+39
3862.862862862863 3.255247349588748e+39
3872.872872872873 3.2317638851229744e+39
3882.8828828828828 3.208466108281446e+39
3892.892892892893 3.1853536399678016e+39
3902.902902902903 3.162426076959934e+39
3912.912912912913 3.13968298982712e+39
3922.922922922923 3.117123921138376e+39
3932.932932932933 3.094748383943918e+39
3942.942942942943 3.0725558605120505e+39
3952.9529529529527 3.05054580130453e+39
3962.962962962963 3.028717624173959e+39
3972.972972972973 3.0070707137673896e+39
3982.982982982983 2.9856044211210116e+39
3992.992992992993 2.9643180634313224e+39
4003.003003003003 2.943210923988949e+39
4013.013013013013 2.922282252261752e+39
4023.023023023023 2.901531264114633e+39
4033.033033033033 2.880957142153977e+39
4043.043043043043 2.860559036185289e+39
4053.053053053053 2.840336063773236e+39
4063.063063063063 2.820287310893812e+39
4073.073073073073 2.8004118326689513e+39
4083.0830830830832 2.7807086541745035e+39
4093.093093093093 2.761176771312941e+39
4103.103103103103 2.741815151742753e+39
4113.113113113113 2.722622735856992e+39
4123.123123123123 2.70359843780383e+39
4133.133133133133 2.6847411465425998e+39
4143.143143143143 2.6660497269290857e+39
4153.153153153153 2.6475230208243807e+39
4163.163163163163 2.629159848221968e+39
4173.173173173173 2.61095900838809e+39
4183.183183183183 2.592919281010882e+39
4193.193193193193 2.575039427354034e+39
4203.203203203203 2.5573181914111443e+39
4213.213213213214 2.5397543010572358e+39
4223.223223223224 2.522346469194172e+39
4233.2332332332335 2.505093394887043e+39
4243.243243243243 2.4879937644888612e+39
4253.253253253253 2.4710462527511178e+39
4263.263263263263 2.4542495239180677e+39
4273.273273273273 2.4376022328027588e+39
4283.283283283283 2.421103025843076e+39
4293.293293293293 2.4047505421363115e+39
4303.303303303303 2.388543414450832e+39
4313.313313313313 2.3724802702137674e+39
4323.323323323323 2.3565597324736272e+39
4333.333333333334 2.3407804208370486e+39
4343.343343343344 2.3251409523789403e+39
4353.353353353354 2.3096399425254287e+39
4363.3633633633635 2.294276005909168e+39
4373.373373373373 2.2790477571966508e+39
4383.383383383383 2.2639538118872727e+39
4393.393393393393 2.2489927870840162e+39
4403.403403403403 2.234163302235679e+39
4413.413413413413 2.2194639798506523e+39
4423.423423423424 2.2048934461823882e+39
4433.4334334334335 2.1904503318866564e+39
4443.443443443443 2.1761332726508462e+39
4453.453453453454 2.1619409097955787e+39
4463.463463463464 2.1478718908489654e+39
4473.473473473474 2.1339248700938305e+39
4483.483483483484 2.1200985090883916e+39
4493.493493493494 2.1063914771607497e+39
4503.503503503503 2.0928024518777304e+39
4513.513513513513 2.0793301194885448e+39
4523.523523523523 2.0659731753437853e+39
4533.533533533533 2.0527303242903468e+39
4543.543543543543 2.039600281042776e+39
4553.553553553554 2.0265817705316635e+39
4563.563563563564 2.013673528229663e+39
4573.573573573573 2.0008743004557125e+39
4583.583583583584 1.9881828446580834e+39
4593.593593593594 1.9755979296768593e+39
4603.603603603604 1.963118335986439e+39
4613.613613613614 1.9507428559187138e+39
4623.623623623624 1.938470293867478e+39
4633.6336336336335 1.9262994664747348e+39
4643.643643643643 1.914229202799472e+39
4653.653653653653 1.9022583444695093e+39
4663.663663663663 1.8903857458170367e+39
4673.673673673674 1.878610273998407e+39
4683.683683683684 1.8669308090987846e+39
4693.693693693694 1.855346244222216e+39
4703.703703703704 1.8438554855676854e+39
4713.713713713714 1.8324574524917254e+39
4723.723723723724 1.8211510775581102e+39
4733.733733733734 1.809935306575178e+39
4743.743743743744 1.798809098621314e+39
4753.753753753754 1.7877714260590935e+39
4763.763763763764 1.7768212745385976e+39
4773.773773773773 1.7659576429903852e+39
4783.783783783783 1.7551795436086184e+39
4793.793793793793 1.7444860018247825e+39
4803.803803803804 1.7338760562724726e+39
4813.813813813814 1.723348758743695e+39
4823.823823823824 1.7129031741370966e+39
4833.833833833834 1.7025383803985558e+39
4843.843843843844 1.692253468454542e+39
4853.853853853854 1.6820475421386257e+39
4863.863863863864 1.6719197181115442e+39
4873.873873873874 1.661869125775168e+39
4883.883883883884 1.6518949071807508e+39
4893.893893893894 1.6419962169318025e+39
4903.9039039039035 1.6321722220819183e+39
4913.913913913913 1.622422102027893e+39
4923.923923923924 1.6127450483984338e+39
4933.933933933934 1.6031402649387892e+39
4943.943943943944 1.5936069673915483e+39
4953.953953953955 1.5841443833739482e+39
4963.9639639639645 1.5747517522519187e+39
4973.973973973974 1.5654283250111317e+39
4983.983983983984 1.5561733641253373e+39
4993.993993993994 1.546986143422192e+39
5004.004004004004 1.5378659479468343e+39
5014.014014014014 1.5288120738234286e+39
5024.024024024024 1.5198238281148804e+39
5034.0340340340335 1.5109005286809572e+39
5044.044044044043 1.50204150403497e+39
5054.054054054054 1.4932460931992526e+39
5064.064064064064 1.484513645559583e+39
5074.074074074074 1.4758435207187357e+39
5084.084084084085 1.467235088349335e+39
5094.0940940940945 1.45868772804616e+39
5104.104104104104 1.450200829178051e+39
5114.114114114114 1.44177379073957e+39
5124.124124124124 1.433406021202548e+39
5134.134134134134 1.425096938367649e+39
5144.144144144144 1.4168459692160737e+39
5154.154154154154 1.408652549761531e+39
5164.1641641641645 1.4005161249025776e+39
5174.174174174174 1.3924361482754356e+39
5184.184184184184 1.3844120821073987e+39
5194.194194194194 1.3764433970709002e+39
5204.204204204204 1.368529572138369e+39
5214.214214214214 1.3606700944379152e+39
5224.224224224225 1.3528644591099595e+39
5234.2342342342345 1.3451121691648704e+39
5244.244244244244 1.3374127353416727e+39
5254.254254254254 1.3297656759679122e+39
5264.264264264264 1.3221705168207116e+39
5274.274274274274 1.314626790989112e+39
5284.284284284285 1.3071340387377178e+39
5294.294294294295 1.2996918073717236e+39
5304.304304304304 1.2922996511033477e+39
5314.314314314314 1.2849571309197418e+39
5324.324324324324 1.2776638144523832e+39
5334.334334334334 1.2704192758480239e+39
5344.344344344345 1.2632230956411928e+39
5354.354354354355 1.2560748606283163e+39
5364.3643643643645 1.2489741637434558e+39
5374.374374374374 1.2419206039357104e+39
5384.384384384384 1.234913786048289e+39
5394.394394394394 1.2279533206992845e+39
5404.404404404404 1.2210388241641595e+39
5414.414414414415 1.2141699182599645e+39
5424.424424424425 1.2073462302312971e+39
5434.4344344344345 1.2005673926380136e+39
5444.444444444444 1.1938330432447032e+39
5454.454454454454 1.1871428249119349e+39
5464.464464464464 1.1804963854892707e+39
5474.474474474475 1.1738933777100617e+39
5484.484484484485 1.1673334590880227e+39
5494.494494494495 1.1608162918155791e+39
5504.504504504504 1.154341542663999e+39
5514.514514514514 1.147908882885288e+39
5524.524524524524 1.1415179881158693e+39
5534.534534534535 1.1351685382820078e+39
5544.544544544545 1.128860217507009e+39
5554.554554554555 1.1225927140201515e+39
5564.5645645645645 1.1163657200673675e+39
5574.574574574574 1.11017893182365e+39
5584.584584584584 1.104032049307176e+39
5594.594594594595 1.0979247762951335e+39
5604.604604604605 1.0918568202412499e+39
5614.614614614615 1.0858278921949844e+39
5624.624624624625 1.079837706722395e+39
5634.6346346346345 1.0738859818286517e+39
5644.644644644644 1.0679724388821789e+39
5654.654654654654 1.0620968025404163e+39
5664.664664664665 1.0562588006771737e+39
5674.674674674675 1.0504581643115776e+39
5684.684684684685 1.0446946275385637e+39
5694.694694694695 1.0389679274609266e+39
5704.704704704704 1.0332778041228877e+39
5714.714714714714 1.0276240004451707e+39
5724.724724724725 1.0220062621615588e+39
5734.734734734735 1.0164243377569202e+39
5744.744744744745 1.0108779784066776e+39
5754.754754754755 1.0053669379176981e+39
5764.764764764765 9.998909726705906e+38
5774.774774774774 9.94449841563382e+38
5784.784784784785 9.890433059565553e+38
5794.794794794795 9.836711296194257e+38
5804.804804804805 9.783330786778335e+38
5814.814814814815 9.730289215631351e+38
5824.824824824825 9.67758428962468e+38
5834.8348348348345 9.625213737702615e+38
5844.844844844845 9.573175310409941e+38
5854.854854854855 9.521466779431403e+38
5864.864864864865 9.470085937143174e+38
5874.874874874875 9.419030596175954e+38
5884.884884884885 9.368298588989483e+38
