#lamb flux
1000.0 2.2387465730377294e+41
1010.01001001001 2.1862944711898453e+41
1020.0200200200201 2.1351484102562826e+41
1030.03003003003 2.085282529268556e+41
1040.0400400400401 2.0366705557577077e+41
1050.05005005005 1.9892859300031285e+41
1060.06006006006 1.9431019152915477e+41
1070.07007007007 1.8980916955216505e+41
1080.08008008008 1.8542284613707526e+41
1090.0900900900901 1.8114854861308437e+41
1100.1001001001 1.7698361922213466e+41
1110.11011011011 1.7292542092946486e+41
1120.1201201201202 1.689713424766844e+41
1130.13013013013 1.6511880275299233e+41
1140.1401401401401 1.6136525455319418e+41
1150.1501501501502 1.5770818778483041e+41
1160.16016016016 1.541451321809298e+41
1170.1701701701702 1.5067365956963552e+41
1180.1801801801803 1.4729138574714503e+41
1190.1901901901902 1.4399597199602958e+41
1200.2002002002002 1.4078512628702563e+41
1210.2102102102103 1.37656604198767e+41
1220.2202202202202 1.3460820958663732e+41
1230.2302302302303 1.3163779502893012e+41
1240.2402402402402 1.2874326207578765e+41
1250.2502502502502 1.2592253847940566e+41
1260.2602602602603 1.2317355894922175e+41
1270.2702702702702 1.2049426132368485e+41
1280.2802802802803 1.1788276063096775e+41
1290.2902902902902 1.1533721867551563e+41
1300.3003003003003 1.1285584357980487e+41
1310.3103103103103 1.1043688924707296e+41
1320.3203203203202 1.0807865475599153e+41
1330.3303303303303 1.057794836971615e+41
1340.3403403403404 1.0353776346030205e+41
1350.3503503503503 1.0135192448009709e+41
1360.3603603603603 9.922043944783802e+40
1370.3703703703704 9.71418224952542e+40
1380.3803803803803 9.511462835624305e+40
1390.3903903903904 9.31374515115978e+40
1400.4004004004005 9.120892532127504e+40
1410.4104104104103 8.93277211482387e+40
1420.4204204204204 8.749254747746239e+40
1430.4304304304305 8.57021490332586e+40
1440.4404404404404 8.395530589773182e+40
1450.4504504504505 8.225083263281341e+40
1460.4604604604606 8.058757740803556e+40
1470.4704704704704 7.896442113592288e+40
1480.4804804804805 7.738027661663758e+40
1490.4904904904906 7.583408769328772e+40
1500.5005005005005 7.432482841910939e+40
1510.5105105105106 7.285150223755354e+40
1520.5205205205207 7.141314117614555e+40
1530.5305305305305 7.000880505484111e+40
1540.5405405405404 6.863758070947166e+40
1550.5505505505505 6.729858123075721e+40
1560.5605605605606 6.599094521925887e+40
1570.5705705705705 6.471383605655305e+40
1580.5805805805805 6.346644119282595e+40
1590.5905905905906 6.22479714510139e+40
1600.6006006006005 6.105766034755154e+40
1610.6106106106106 5.989476342973323e+40
1620.6206206206207 5.875855762964237e+40
1630.6306306306305 5.764834063456207e+40
1640.6406406406406 5.656343027374066e+40
1650.6506506506507 5.550316392135796e+40
1660.6606606606606 5.4466897915506e+40
1670.6706706706707 5.345400699298128e+40
1680.6806806806808 5.246388373966399e+40
1690.6906906906906 5.149593805624891e+40
1700.7007007007007 5.054959711271321e+40
1710.7107107107108 4.962430575436493e+40
1720.7207207207207 4.87195224712459e+40
1730.7307307307308 4.783472087149307e+40
1740.7407407407409 4.696938948598361e+40
1750.7507507507507 4.612303131572753e+40
1760.7607607607606 4.52951633933745e+40
1770.770770770771 4.448531635860767e+40
1780.7807807807808 4.369303404722776e+40
1790.7907907907907 4.2917873093768074e+40
1800.8008008008007 4.2159402547522866e+40
1810.8108108108108 4.1417203501922113e+40
1820.8208208208207 4.06908687372398e+40
1830.8308308308308 3.998000237668813e+40
1840.8408408408409 3.928421955601601e+40
1850.8508508508507 3.8603146106804094e+40
1860.8608608608608 3.793641825372114e+40
1870.870870870871 3.7283682326076675e+40
1880.8808808808808 3.664459448406427e+40
1890.890890890891 3.6018820460126794e+40
1900.900900900901 3.5406035315880676e+40
1910.9109109109108 3.4805923214983386e+40
1920.920920920921 3.421817721220412e+40
1930.930930930931 3.364249905872254e+40
1940.940940940941 3.3078599023310633e+40
1950.950950950951 3.252619572850467e+40
1960.960960960961 3.198501600012207e+40
1970.970970970971 3.145479472749182e+40
1980.980980980981 3.093527473054504e+40
1990.9909909909911 3.042620662848121e+40
2001.001001001001 2.992734870316081e+40
2011.0110110110109 2.943846674881761e+40
2021.0210210210212 2.895933389835102e+40
2031.031031031031 2.8489730415641346e+40
2041.0410410410411 2.802944344338813e+40
2051.051051051051 2.7578266697271734e+40
2061.061061061061 2.713600010010122e+40
2071.071071071071 2.670244935420166e+40
2081.081081081081 2.627742545651195e+40
2091.091091091091 2.5860744168259404e+40
2101.101101101101 2.545222545880722e+40
2111.1111111111113 2.5051692950165027e+40
2121.121121121121 2.465897339338747e+40
2131.131131131131 2.427389620944739e+40
2141.141141141141 2.3896293124392496e+40
2151.151151151151 2.352599792159901e+40
2161.161161161161 2.3162846323480354e+40
2171.1711711711714 2.2806676002580487e+40
2181.1811811811813 2.2457326709509164e+40
2191.191191191191 2.211464049460052e+40
2201.201201201201 2.1778461993023545e+40
2211.2112112112113 2.1448638740135378e+40
2221.221221221221 2.1125021485120423e+40
2231.2312312312315 2.0807464475650148e+40
2241.2412412412414 2.0495825693231948e+40
2251.2512512512512 2.0189967026751818e+40
2261.261261261261 1.9889754379264916e+40
2271.271271271271 1.9595057709478924e+40
2281.2812812812813 1.930575101413139e+40
2291.2912912912916 1.9021712260464488e+40
2301.3013013013015 1.874282327940149e+40
2311.3113113113113 1.846896963014183e+40
2321.321321321321 1.820004044609054e+40
2331.331331331331 1.7935928270682107e+40
2341.3413413413414 1.7676528890054498e+40
2351.3513513513512 1.7421741167897919e+40
2361.3613613613616 1.717146688629713e+40
2371.3713713713714 1.6925610595087948e+40
2381.3813813813813 1.6684079471190665e+40
2391.391391391391 1.644678318856547e+40
2401.4014014014015 1.6213633798834052e+40
2411.4114114114113 1.5984545622195966e+40
2421.4214214214217 1.5759435148001765e+40
2431.4314314314315 1.5538220944193622e+40
2441.4414414414414 1.532082357475727e+40
2451.4514514514512 1.5107165524322958e+40
2461.4614614614616 1.4897171129085501e+40
2471.4714714714714 1.4690766513271657e+40
2481.4814814814818 1.4487879530453107e+40
2491.4914914914916 1.4288439709079796e+40
2501.5015015015015 1.4092378201683744e+40
2511.5115115115113 1.3899627737275722e+40
2521.521521521521 1.3710122576523726e+40
2531.5315315315315 1.352379846936187e+40
2541.541541541542 1.3340592614731527e+40
2551.5515515515517 1.3160443622202316e+40
2561.5615615615616 1.2983291475260584e+40
2571.5715715715714 1.2809077496086907e+40
2581.5815815815813 1.2637744311672534e+40
2591.5915915915916 1.2469235821149306e+40
2601.6016016016015 1.2303497164227446e+40
2611.611611611612 1.2140474690652459e+40
2621.6216216216217 1.1980115930606597e+40
2631.6316316316315 1.1822369565991368e+40
2641.6416416416414 1.1667185402537633e+40
2651.6516516516517 1.1514514342697076e+40
2661.6616616616616 1.1364308359275617e+40
2671.671671671672 1.1216520469774308e+40
2681.6816816816818 1.107110471140785e+40
2691.6916916916916 1.0928016116773843e+40
2701.7017017017015 1.0787210690149352e+40
2711.711711711712 1.0648645384393235e+40
2721.7217217217217 1.0512278078434891e+40
2731.731731731732 1.037806755533133e+40
2741.741741741742 1.0245973480876276e+40
2751.7517517517517 1.0115956382745442e+40
2761.7617617617616 9.98797763016365e+39
2771.7717717717715 9.861999414079659e+39
2781.781781781782 9.737984727835584e+39
2791.791791791792 9.61589734831818e+39
2801.801801801802 9.4957018175797e+39
2811.811811811812 9.377363424916465e+39
2821.8218218218217 9.260848189393788e+39
2831.8318318318316 9.146122842805978e+39
2841.841841841842 9.033154813060624e+39
2851.851851851852 8.92191220797663e+39
2861.861861861862 8.812363799485594e+39
2871.871871871872 8.704479008226504e+39
2881.881881881882 8.598227888523942e+39
2891.8918918918916 8.493581113740174e+39
2901.901901901902 8.390509961991646e+39
2911.911911911912 8.288986302220855e+39
2921.921921921922 8.188982580614446e+39
2931.931931931932 8.090471807358939e+39
2941.941941941942 7.993427543725331e+39
2951.9519519519517 7.897823889474344e+39
2961.961961961962 7.80363547057407e+39
2971.971971971972 7.710837427222013e+39
2981.9819819819822 7.619405402163719e+39
2991.991991991992 7.529315529300421e+39
3002.002002002002 7.440544422578205e+39
3012.012012012012 7.353069165151458e+39
3022.0220220220217 7.26686729881354e+39
3032.032032032032 7.181983774945105e+39
3042.0420420420423 7.098254258060306e+39
3052.052052052052 7.015731224840223e+39
3062.062062062062 6.934394624230847e+39
3072.072072072072 6.854224710952524e+39
3082.0820820820823 6.775202048713876e+39
3092.092092092092 6.697307512373882e+39
3102.102102102102 6.620522289167888e+39
3112.1121121121123 6.544827879102709e+39
3122.122122122122 6.470206094615758e+39
3132.132132132132 6.396639059584216e+39
3142.1421421421423 6.324109207761988e+39
3152.152152152152 6.252599280714693e+39
3162.162162162162 6.182092325315974e+39
3172.1721721721724 6.112571690862426e+39
3182.1821821821823 6.044021025858628e+39
3192.192192192192 5.976424274518648e+39
3202.202202202202 5.909765673025805e+39
3212.2122122122123 5.844029745588191e+39
3222.222222222222 5.779201300323595e+39
3232.232232232232 5.715265425003993e+39
3242.2422422422424 5.652207482686653e+39
3252.252252252252 5.590013107255965e+39
3262.262262262262 5.528668198897547e+39
3272.2722722722724 5.468158919523792e+39
3282.2822822822823 5.408471688167968e+39
3292.292292292292 5.34959317636191e+39
3302.3023023023025 5.291510303510752e+39
3312.3123123123123 5.234210232276478e+39
3322.322322322322 5.177680363980663e+39
3332.3323323323325 5.121908334035487e+39
3342.3423423423424 5.0668820074110284e+39
3352.352352352352 5.012589474145574e+39
3362.3623623623625 4.959019044905102e+39
3372.3723723723724 4.9061592465968674e+39
3382.3823823823823 4.8539988180414966e+39
3392.3923923923926 4.802526705707302e+39
3402.4024024024025 4.751732059509807e+39
3412.4124124124123 4.701604228678993e+39
3422.4224224224226 4.6521327576963226e+39
3432.4324324324325 4.603307382303129e+39
3442.4424424424424 4.5551180255814835e+39
3452.4524524524522 4.507554794108502e+39
3462.4624624624626 4.4606079741845495e+39
3472.4724724724724 4.4142680281357007e+39
3482.4824824824823 4.368525590690372e+39
3492.4924924924926 4.3233714654300945e+39
3502.5025025025025 4.27879662131396e+39
3512.5125125125123 4.23479218927627e+39
3522.5225225225226 4.191349458896739e+39
3532.5325325325325 4.1484598751424373e+39
3542.5425425425424 4.1061150351806345e+39
3552.5525525525527 4.064306685261548e+39
3562.5625625625626 4.023026717669965e+39
3572.5725725725724 3.982267167744625e+39
3582.5825825825827 3.942020210964223e+39
3592.5925925925926 3.9022781600988173e+39
3602.6026026026025 3.8630334624254214e+39
3612.612612612613 3.8242786970065366e+39
3622.6226226226227 3.786006572030332e+39
3632.6326326326325 3.748209922211186e+39
3642.642642642643 3.7108817062493435e+39
3652.6526526526527 3.674015004348347e+39
3662.6626626626626 3.637603015788945e+39
3672.672672672673 3.601639056558262e+39
3682.6826826826828 3.5661165570328936e+39
3692.6926926926926 3.53102905971468e+39
3702.7027027027025 3.496370217017916e+39
3712.712712712713 3.46213378910676e+39
3722.7227227227227 3.4283136417816786e+39
3732.7327327327325 3.394903744413612e+39
3742.742742742743 3.361898167924834e+39
3752.7527527527527 3.3292910828152563e+39
3762.7627627627626 3.297076757233086e+39
3772.772772772773 3.265249555088722e+39
3782.7827827827828 3.2338039342108364e+39
3792.7927927927926 3.202734444543526e+39
3802.802802802803 3.1720357263835645e+39
3812.812812812813 3.1417025086567075e+39
3822.8228228228227 3.1117296072320804e+39
3832.832832832833 3.0821119232736814e+39
3842.842842842843 3.052844441628069e+39
3852.8528528528527 3.023922229247335e+39
3862.862862862863 2.9953404336464324e+39
3872.872872872873 2.967094281394056e+39
3882.8828828828828 2.939179076636144e+39
3892.892892892893 2.9115901996513145e+39
3902.902902902903 2.884323105437274e+39
3912.912912912913 2.857373322327565e+39
3922.922922922923 2.8307364506378027e+39
3932.932932932933 2.8044081613407365e+39
3942.942942942943 2.778384194769356e+39
3952.9529529529527 2.7526603593473914e+39
3962.962962962963 2.727232530346535e+39
3972.972972972973 2.7020966486696935e+39
3982.982982982983 2.6772487196596644e+39
3992.992992992993 2.6526848119325926e+39
4003.003003003003 2.6284010562356498e+39
4013.013013013013 2.6043936443282776e+39
4023.023023023023 2.580658827886493e+39
4033.033033033033 2.5571929174296726e+39
4043.043043043043 2.533992281269266e+39
4053.053053053053 2.511053344478951e+39
4063.063063063063 2.488372587885686e+39
4073.073073073073 2.465946547081185e+39
4083.0830830830832 2.4437718114533317e+39
4093.093093093093 2.421845023237068e+39
4103.103103103103 2.4001628765842822e+39
4113.113113113113 2.3787221166523035e+39
4123.123123123123 2.3575195387104968e+39
4133.133133133133 2.3365519872646215e+39
4143.143143143143 2.3158163551984944e+39
4153.153153153153 2.2953095829325815e+39
4163.163163163163 2.2750286575991202e+39
4173.173173173173 2.254970612233418e+39
4183.183183183183 2.2351325249809486e+39
4193.193193193193 2.2155115183198852e+39
4203.203203203203 2.1961047582987406e+39
4213.213213213214 2.1769094537887798e+39
4223.223223223224 2.157922855750856e+39
4233.2332332332335 2.1391422565163672e+39
4243.243243243243 2.1205649890820288e+39
4253.253253253253 2.1021884264181347e+39
4263.263263263263 2.0840099807900524e+39
4273.273273273273 2.0660271030926207e+39
4283.283283283283 2.048237282197198e+39
4293.293293293293 2.0306380443110872e+39
4303.303303303303 2.013226952349058e+39
4313.313313313313 1.9960016053167248e+39
4323.323323323323 1.9789596377055046e+39
4333.333333333334 1.962098718898936e+39
4343.343343343344 1.9454165525901002e+39
4353.353353353354 1.9289108762099158e+39
4363.3633633633635 1.9125794603660756e+39
4373.373373373373 1.8964201082924118e+39
4383.383383383383 1.880430655308461e+39
4393.393393393393 1.864608968289022e+39
4403.403403403403 1.8489529451435046e+39
4413.413413413413 1.833460514304848e+39
4423.423423423424 1.8181296342278405e+39
4433.4334334334335 1.8029582928966264e+39
4443.443443443443 1.7879445073412114e+39
4453.453453453454 1.7730863231627937e+39
4463.463463463464 1.7583818140677552e+39
4473.473473473474 1.7438290814100803e+39
4483.483483483484 1.729426253742107e+39
4493.493493493494 1.7151714863733882e+39
4503.503503503503 1.7010629609375215e+39
4513.513513513513 1.6870988849667896e+39
4523.523523523523 1.673277491474435e+39
4533.533533533533 1.6595970385444547e+39
4543.543543543543 1.6460558089287214e+39
4553.553553553554 1.632652109651317e+39
4563.563563563564 1.619384271619928e+39
4573.573573573573 1.6062506492441513e+39
4583.583583583584 1.5932496200605943e+39
4593.593593593594 1.580379584364625e+39
4603.603603603604 1.5676389648486318e+39
4613.613613613614 1.555026206246693e+39
4623.623623623624 1.5425397749855035e+39
4633.6336336336335 1.53017815884145e+39
4643.643643643643 1.5179398666037224e+39
4653.653653653653 1.5058234277433245e+39
4663.663663663663 1.4938273920878883e+39
4673.673673673674 1.4819503295021713e+39
4683.683683683684 1.4701908295741336e+39
4693.693693693694 1.458547501306476e+39
4703.703703703704 1.4470189728135477e+39
4713.713713713714 1.4356038910235203e+39
4723.723723723724 1.4243009213857093e+39
4733.733733733734 1.413108747582971e+39
4743.743743743744 1.4020260712490636e+39
4753.753753753754 1.3910516116908758e+39
4763.763763763764 1.3801841056154445e+39
4773.773773773773 1.3694223068616507e+39
4783.783783783783 1.3587649861365327e+39
4793.793793793793 1.348210930756102e+39
4803.803803803804 1.3377589443905931e+39
4813.813813813814 1.3274078468140669e+39
4823.823823823824 1.3171564736582701e+39
4833.833833833834 1.3070036761706876e+39
4843.843843843844 1.2969483209767055e+39
4853.853853853854 1.2869892898457972e+39
4863.863863863864 1.2771254794616746e+39
4873.873873873874 1.267355801196321e+39
4883.883883883884 1.257679180887833e+39
4893.893893893894 1.2480945586220078e+39
4903.9039039039035 1.2386008885176002e+39
4913.913913913913 1.2291971385151853e+39
4923.923923923924 1.2198822901695567e+39
4933.933933933934 1.2106553384456072e+39
4943.943943943944 1.2015152915176038e+39
4953.953953953955 1.1924611705718247e+39
4963.9639639639645 1.1834920096124796e+39
4973.973973973974 1.1746068552708449e+39
4983.983983983984 1.1658047666175825e+39
4993.993993993994 1.157084814978158e+39
5004.004004004004 1.1484460837513152e+39
5014.014014014014 1.1398876682305526e+39
5024.024024024024 1.1314086754285323e+39
5034.0340340340335 1.123008223904397e+39
5044.044044044043 1.1146854435939087e+39
5054.054054054054 1.1064394756423854e+39
5064.064064064064 1.0982694722403716e+39
5074.074074074074 1.090174596461996e+39
5084.084084084085 1.0821540221059678e+39
5094.0940940940945 1.074206933539174e+39
5104.104104104104 1.0663325255428115e+39
5114.114114114114 1.0585300031610264e+39
5124.124124124124 1.050798581552009e+39
5134.134134134134 1.0431374858415022e+39
5144.144144144144 1.0355459509786749e+39
5154.154154154154 1.0280232215943302e+39
5164.1641641641645 1.020568551861392e+39
5174.174174174174 1.013181205357645e+39
5184.184184184184 1.0058604549306747e+39
5194.194194194194 9.986055825649778e+38
5204.204204204204 9.914158792512035e+38
5214.214214214214 9.842906448574824e+38
5224.224224224225 9.772291880028112e+38
5234.2342342342345 9.702308259324623e+38
5244.244244244244 9.632948843953644e+38
5254.254254254254 9.564206975234473e+38
5264.264264264264 9.49607607712886e+38
5274.274274274274 9.428549655072414e+38
5284.284284284285 9.361621294824372e+38
5294.294294294295 9.295284661335621e+38
5304.304304304304 9.229533497634486e+38
5314.314314314314 9.164361623730156e+38
5324.324324324324 9.099762935533261e+38
5334.334334334334 9.03573140379345e+38
5344.344344344345 8.97226107305355e+38
5354.354354354355 8.909346060620185e+38
5364.3643643643645 8.846980555550344e+38
5374.374374374374 8.78515881765388e+38
5384.384384384384 8.723875176511424e+38
5394.394394394394 8.66312403050767e+38
5404.404404404404 8.602899845879568e+38
5414.414414414415 8.543197155779329e+38
5424.424424424425 8.48401055935192e+38
5434.4344344344345 8.42533472082675e+38
5444.444444444444 8.367164368623432e+38
5454.454454454454 8.309494294471279e+38
5464.464464464464 8.25231935254234e+38
5474.474474474475 8.195634458597745e+38
5484.484484484485 8.139434589147119e+38
5494.494494494495 8.083714780620862e+38
5504.504504504504 8.028470128555092e+38
5514.514514514514 7.97369578678896e+38
5524.524524524524 7.919386966674262e+38
5534.534534534535 7.865538936297008e+38
5544.544544544545 7.812147019710834e+38
5554.554554554555 7.75920659618201e+38
5564.5645645645645 7.706713099445881e+38
5574.574574574574 7.654662016974557e+38
5584.584584584584 7.603048889255609e+38
5594.594594594595 7.551869309081634e+38
5604.604604604605 7.50111892085057e+38
5614.614614614615 7.450793419876366e+38
5624.624624624625 7.40088855171014e+38
5634.6346346346345 7.351400111471397e+38
5644.644644644644 7.302323943189237e+38
5654.654654654654 7.253655939153472e+38
5664.664664664665 7.205392039275272e+38
5674.674674674675 7.157528230457466e+38
5684.684684684685 7.110060545974051e+38
5694.694694694695 7.062985064858991e+38
5704.704704704704 7.016297911304021e+38
5714.714714714714 6.969995254065352e+38
5724.724724724725 6.924073305879126e+38
5734.734734734735 6.878528322885486e+38
5744.744744744745 6.8333566040611e+38
5754.754754754755 6.788554490660027e+38
5764.764764764765 6.74411836566277e+38
5774.774774774774 6.700044653233408e+38
5784.784784784785 6.6563298181846285e+38
5794.794794794795 6.612970365450597e+38
5804.804804804805 6.569962839567473e+38
5814.814814814815 6.527303824161502e+38
5824.824824824825 6.484989941444534e+38
5834.8348348348345 6.443017851716835e+38
5844.844844844845 6.401384252877135e+38
5854.854854854855 6.360085879939725e+38
5864.864864864865 6.319119504558505e+38
5874.874874874875 6.278481934557942e+38
5884.884884884885 6.23817001347072e+38
5894.894894894895 6.198180620082053e+38
