#lamb flux
1000.0 2.4344547817646065
1010.01001001001 2.4654198314617157
1020.0200200200201 2.4911329306886447
1030.03003003003 2.5119112826157353
1040.0400400400401 2.5280808977012588
1050.05005005005 2.539970768575908
1060.06006006006 2.547908031964002
1070.07007007007 2.5522140296611804
1080.08008008008 2.5532011745202015
1090.0900900900901 2.5511705262173643
1100.1001001001 2.54640998395304
1110.11011011011 2.539193008088559
1120.1201201201202 2.529777789161719
1130.13013013013 2.518406790072163
1140.1401401401401 2.5053065949668984
1150.1501501501502 2.4906880061051244
1160.16016016016 2.474746337471412
1170.1701701701702 2.4576618609575536
1180.1801801801803 2.4396003674356925
1190.1901901901902 2.4207138109405277
1200.2002002002002 2.401141009447512
1210.2102102102103 2.3810083803849675
1220.2202202202202 2.3604306930784578
1230.2302302302303 2.3395118238346946
1240.2402402402402 2.3183455023760913
1250.2502502502502 2.2968952573886026
1260.2602602602603 2.2748848630379785
1270.2702702702702 2.251766005792096
1280.2802802802803 2.2276614627227436
1290.2902902902902 2.202686547873334
1300.3003003003003 2.176949283556768
1310.3103103103103 2.1505506071710063
1320.3203203203202 2.1235846057244547
1330.3303303303303 2.096138771282248
1340.3403403403404 2.0682942714712067
1350.3503503503503 2.040126230018346
1360.3603603603603 2.011704013048903
1370.3703703703704 1.9830915175394315
1380.3803803803803 1.9543474589152163
1390.3903903903904 1.9255256553044946
1400.4004004004005 1.8966753064206494
1410.4104104104103 1.867841265443448
1420.4204204204204 1.8390643026170854
1430.4304304304305 1.8103813595816183
1440.4404404404404 1.781825793710584
1450.4504504504505 1.75342761194558
1460.4604604604606 1.725213693803192
1470.4704704704704 1.697208003384389
1480.4804804804805 1.669431790345579
1490.4904904904906 1.6419037798967668
1500.5005005005005 1.614640351979046
1510.5105105105106 1.5876557098435269
1520.5205205205207 1.5609620383092
1530.5305305305305 1.5345696520202965
1540.5405405405404 1.5084871340564763
1550.5505505505505 1.4827214652732463
1560.5605605605606 1.4572781447669447
1570.5705705705705 1.432161301869955
1580.5805805805805 1.4073738000885168
1590.5905905905906 1.3829173333989682
1600.6006006006005 1.3587925153193472
1610.6106106106106 1.3349989611730657
1620.6206206206207 1.3115353639607228
1630.6306306306305 1.2883995642559511
1640.6406406406406 1.265588614542362
1650.6506506506507 1.2430988384121926
1660.6606606606606 1.2209258850538292
1670.6706706706707 1.199064779466389
1680.6806806806808 1.177509968855686
1690.6906906906906 1.1562553656886552
1700.7007007007007 1.1352974711620436
1710.7107107107108 1.114641341600613
1720.7207207207207 1.0942775658375987
1730.7307307307308 1.074194979299843
1740.7407407407409 1.054382433635925
1750.7507507507507 1.0348288017469405
1760.7607607607606 1.0155229867217224
1770.770770770771 0.9964539355887949
1780.7807807807808 0.9776106589608107
1790.7907907907907 0.9589822578318351
1800.8008008008007 0.94055795899309
1810.8108108108108 0.9223271607565181
1820.8208208208207 0.9042794909128691
1830.8308308308308 0.8864048790937881
1840.8408408408409 0.868693645942014
1850.8508508508507 0.8511366117005349
1860.8608608608608 0.8337252269816432
1870.870870870871 0.8164517285310717
1880.8808808808808 0.7993093227082532
1890.890890890891 0.7822923990940212
1900.900900900901 0.7653967760284249
1910.9109109109108 0.7486199788750971
1920.920920920921 0.7319615502945882
1930.930930930931 0.7154233896730836
1940.940940940941 0.6990101159916627
1950.950950950951 0.6827294447639027
1960.960960960961 0.6665925652097562
1970.970970970971 0.6506144986687591
1980.980980980981 0.6348144136340054
1990.9909909909911 0.6192158671538671
2001.001001001001 0.6038469373739637
2011.0110110110109 0.5887402085826382
2021.0210210210212 0.573932569370897
2031.031031031031 0.5594647875860066
2041.0410410410411 0.545380833689186
2051.051051051051 0.5317269375800859
2061.061061061061 0.5185503829013227
2071.071071071071 0.5058980663204006
2081.081081081081 0.49381487526023204
2091.091091091091 0.4823419629704309
2101.101101101101 0.4715150210081815
2111.1111111111113 0.4613626623961816
2121.121121121121 0.45190503092757695
2131.131131131131 0.4431527417180522
2141.141141141141 0.4351062355196008
2151.151151151151 0.42775559688614745
2161.161161161161 0.4210808480513243
2171.1711711711714 0.41505269129357936
2181.1811811811813 0.40963363756927773
2191.191191191191 0.4047794323596455
2201.201201201201 0.400440673571454
2211.2112112112113 0.39656451175843677
2221.221221221221 0.3930963290288036
2231.2312312312315 0.38998130762740785
2241.2412412412414 0.38716581943464345
2251.2512512512512 0.38459859042500055
2261.261261261261 0.3822316166799846
2271.271271271271 0.3800208286684002
2281.2812812812813 0.3779265167743076
2291.2912912912916 0.37591354281916034
2301.3013013013015 0.3739513695938097
2311.3113113113113 0.3720139436696923
2321.321321321321 0.37007946676206355
2331.331331331331 0.3681300885467304
2341.3413413413414 0.3661515499358271
2351.3513513513512 0.3641328011358933
2361.3613613613616 0.36206561392499564
2371.3713713713714 0.35994420291133206
2381.3813813813813 0.3577648663381992
2391.391391391391 0.35552565341827125
2401.4014014014015 0.35322606225774716
2411.4114114114113 0.35086677014666445
2421.4214214214217 0.34844939628400223
2431.4314314314315 0.34597629579318145
2441.4414414414414 0.34345038307704584
2451.4514514514512 0.3408749820762974
2461.4614614614616 0.33825370075498734
2471.4714714714714 0.3355903270755348
2481.4814814814818 0.33288874378995376
2491.4914914914916 0.3301528595208643
2501.5015015015015 0.3273865538026632
2511.5115115115113 0.3245936339756113
2521.521521521521 0.3217778020561288
2531.5315315315315 0.31894262993327027
2541.541541541542 0.3160915414564203
2551.5515515515517 0.313227800177995
2561.5615615615616 0.31035450169502155
2571.5715715715714 0.3074745696940694
2581.5815815815813 0.3045907549454204
2591.5915915915916 0.3017056366155855
2601.6016016016015 0.2988216253736648
2611.611611611612 0.2959409678582123
2621.6216216216217 0.29306575214885267
2631.6316316316315 0.2901979139525164
2641.6416416416414 0.2873392432693794
2651.6516516516517 0.28449139134979007
2661.6616616616616 0.28165587779195617
2671.671671671672 0.27883409766206324
2681.6816816816818 0.27602732854482076
2691.6916916916916 0.27323673745403776
2701.7017017017015 0.27046338755049704
2711.711711711712 0.2677082446287406
2721.7217217217217 0.26497218334597533
2731.731731731732 0.2622559931756083
2741.741741741742 0.25956038407533916
2751.7517517517517 0.25688599186557387
2761.7617617617616 0.25423338331850587
2771.7717717717715 0.2516030609617102
2781.781781781782 0.24899546760277264
2791.791791791792 0.24641099058343807
2801.801801801802 0.24384996577316626
2811.811811811812 0.24131268131295125
2821.8218218218217 0.23879938112085353
2831.8318318318316 0.23631026817101236
2841.841841841842 0.233845507558005
2851.851851851852 0.23140522935833652
2861.861861861862 0.22898953130063834
2871.871871871872 0.226598481255848
2881.881881881882 0.2242321195582625
2891.8918918918916 0.22189046116793343
2901.901901901902 0.2195734976844046
2911.911911911912 0.21728119922132094
2921.921921921922 0.21501351615094155
2931.931931931932 0.21277038072710583
2941.941941941942 0.2105517085947149
2951.9519519519517 0.2083574001933191
2961.961961961962 0.20618734206194733
2971.971971971972 0.20404140805186705
2981.9819819819822 0.20191946045354706
2991.991991991992 0.19982135104368917
3002.002002002002 0.19774692205781227
3012.012012012012 0.19569600709351362
3022.0220220220217 0.1936684319491861
3032.032032032032 0.192182678508656
3042.0420420420423 0.19013327712578923
3052.052052052052 0.18808952129543027
3062.062062062062 0.18605640957966907
3072.072072072072 0.18403815022316397
3082.0820820820823 0.1820382507916414
3092.092092092092 0.18005959985854184
3102.102102102102 0.17810454113276736
3112.1121121121123 0.1761749404730906
3122.122122122122 0.1742722462640538
3132.132132132132 0.17239754363965576
3142.1421421421423 0.1705516030392451
3152.152152152152 0.16873492356840905
3162.162162162162 0.16694777161914864
3172.1721721721724 0.16519021518049823
3182.1821821821823 0.16346215424474986
3192.192192192192 0.16176334768691664
3202.202202202202 0.16009343696703746
3212.2122122122123 0.15845196697712674
3222.222222222222 0.1568384043275552
3232.232232232232 0.1552521533417831
3242.2422422422424 0.15369257000390296
3252.252252252252 0.15215897408051937
3262.262262262262 0.15065065961718982
3272.2722722722724 0.149166903989971
3282.2822822822823 0.14770697567453972
3292.292292292292 0.1462701408788366
3302.3023023023025 0.14485566917013398
3312.3123123123123 0.14346283821377265
3322.322322322322 0.14209093772845574
3332.3323323323325 0.14073927275182943
3342.3423423423424 0.139407166300032
3352.352352352352 0.13809396149584935
3362.3623623623625 0.1367990232320061
3372.3723723723724 0.13552173942883783
3382.3823823823823 0.1342615219390689
3392.3923923923926 0.133017807146592
3402.4024024024025 0.13179005630091714
3412.4124124124123 0.13057775562429633
3422.4224224224226 0.12938041622436094
3432.4324324324325 0.1281975738413846
3442.4424424424424 0.12702878845595514
3452.4524524524522 0.12587364377987562
3462.4624624624626 0.12473174665045669
3472.4724724724724 0.12360272634600103
3482.4824824824823 0.12248623383815957
3492.4924924924926 0.12138194099496054
3502.5025025025025 0.12028953974661905
3512.5125125125123 0.11920874122473539
3522.5225225225226 0.11813927488414401
3532.5325325325325 0.11708088761547533
3542.5425425425424 0.11603334285542166
3552.5525525525527 0.11499641970074197
3562.5625625625626 0.11396991203118623
3572.5725725725724 0.11295362764575839
3582.5825825825827 0.1119473874160589
3592.5925925925926 0.11095102445984167
3602.6026026026025 0.10996438333738233
3612.612612612613 0.10898731927277526
3622.6226226226227 0.1080196974018514
3632.6326326326325 0.10706139204803079
3642.642642642643 0.1061122860270933
3652.6526526526527 0.1051722699815504
3662.6626626626626 0.10424124174504559
3672.672672672673 0.1033191057369826
3682.6826826826828 0.10240577238737882
3692.6926926926926 0.10150115759176986
3702.7027027027025 0.1006051821958397
3712.712712712713 0.09971777150932151
3722.7227227227227 0.09883885484860527
3732.7327327327325 0.09796836510738989
3742.742742742743 0.09710623835464587
3752.7527527527527 0.09625241345908382
3762.7627627627626 0.09540683173927535
3772.772772772773 0.09456943663853033
3782.7827827827828 0.09374017342360293
3792.7927927927926 0.09291898890627624
3802.802802802803 0.0921058311868613
3812.812812812813 0.09130064941863658
3822.8228228228227 0.0905033935922542
3832.832832832833 0.0897140143391418
3842.842842842843 0.08893246275293665
3852.8528528528527 0.08815869022800321
3862.862862862863 0.0873926483140982
3872.872872872873 0.08663428858627041
3882.8828828828828 0.0858835625290984
3892.892892892893 0.0851404214344008
3902.902902902903 0.08440481631157119
3912.912912912913 0.0836766978097227
3922.922922922923 0.08295601615085299
3932.932932932933 0.08224272107327021
3942.942942942943 0.08153676178454888
3952.9529529529527 0.08083808692331616
3962.962962962963 0.08014664452919926
3972.972972972973 0.07946238202029293
3982.982982982983 0.07878524617753861
3992.992992992993 0.07811518313543417
4003.003003003003 0.07745213837852609
4013.013013013013 0.07679605674315954
4023.023023023023 0.07614688242399538
4033.033033033033 0.07550455898482775
4043.043043043043 0.07486902937326284
4053.053053053053 0.07424023593884747
4063.063063063063 0.07361812045425858
4073.073073073073 0.0730026241391919
4083.0830830830832 0.07239368768660957
4093.093093093093 0.0717912512910301
4103.103103103103 0.07119525467856522
4113.113113113113 0.07060563713843017
4123.123123123123 0.07002233755567105
4133.133133133133 0.06944529444487593
4143.143143143143 0.06887444598465045
4153.153153153153 0.06830973005265874
4163.163163163163 0.06775108426104427
4173.173173173173 0.06719844599206379
4183.183183183183 0.06665175243377881
4193.193193193193 0.06611094061566489
4203.203203203203 0.06557594744401166
4213.213213213214 0.06504670973699865
4223.223223223224 0.06452316425934278
4233.2332332332335 0.0640052477564255
4243.243243243243 0.06349289698781625
4253.253253253253 0.06298604876011957
4263.263263263263 0.06248463995908155
4273.273273273273 0.0619886075808986
4283.283283283283 0.061497888762681
4293.293293293293 0.061012420812029206
4303.303303303303 0.060532141235688196
4313.313313313313 0.06005698776725115
4323.323323323323 0.059586898393888796
4333.333333333334 0.05912181138208712
4343.343343343344 0.05866166530237979
4353.353353353354 0.0582063990530661
4363.3633633633635 0.05775595188290986
4373.373373373373 0.05731026341281792
4383.383383383383 0.05686927365649999
4393.393393393393 0.05643292304011496
4403.403403403403 0.05600115242091139
4413.413413413413 0.05557390310487172
4423.423423423424 0.05515111686337339
4433.4334334334335 0.054732735948880215
4443.443443443443 0.05431870310968026
4453.453453453454 0.05390896160368731
4463.463463463464 0.053503455211325754
4473.473473473474 0.0531021282475164
4483.483483483484 0.052704925572787074
4493.493493493494 0.05231179260352693
4503.503503503503 0.05192267532140866
4513.513513513513 0.05153752028200065
4523.523523523523 0.051156274622592285
4533.533533533533 0.050778886069257075
4543.543543543543 0.05040530294317616
4553.553553553554 0.05003547416624719
4563.563563563564 0.04966934926600258
4573.573573573573 0.049306878379860704
4583.583583583584 0.04894801225873466
4593.593593593594 0.048592702270022325
4603.603603603604 0.04824090040000085
4613.613613613614 0.047892559255650106
4623.623623623624 0.047547632065927006
4633.6336336336335 0.04720607268251453
4643.643643643643 0.04686783558006733
4653.653653653653 0.046532875855976125
4663.663663663663 0.046201149229672694
4673.673673673674 0.045872612041496424
4683.683683683684 0.045547221251143605
4693.693693693694 0.045224934435719
4703.703703703704 0.04490570978741033
4713.713713713714 0.044589506110804665
4723.723723723724 0.04427628281986511
4733.733733733734 0.043965999934586726
4743.743743743744 0.04365861807734918
4753.753753753754 0.04335409846898316
4763.763763763764 0.043052402924567884
4773.773773773773 0.04275349384897505
4783.783783783783 0.042457334232176146
4793.793793793793 0.042163887644327054
4803.803803803804 0.04187311823064559
4813.813813813814 0.041584990706095705
4823.823823823824 0.041299470349892266
4833.833833833834 0.0410165229998395
4843.843843843844 0.040736115046516044
4853.853853853854 0.04045821342731856
4863.863863863864 0.0401827856203761
4873.873873873874 0.03990979963834624
4883.883883883884 0.03963922402210422
4893.893893893894 0.03937102783433522
4903.9039039039035 0.03910518065304026
4913.913913913913 0.03884165256496484
4923.923923923924 0.038580414158960054
4933.933933933934 0.03832143651928494
4943.943943943944 0.03806469121885791
4953.953953953955 0.037810150312466484
4963.9639639639645 0.03755778632994209
4973.973973973974 0.037307572269307636
4983.983983983984 0.03705948158990509
4993.993993993994 0.03681348820550946
5004.004004004004 0.03656956647743575
5014.014014014014 0.03632769120764498
5024.024024024024 0.0360878376318548
5034.0340340340335 0.03584998141266064
5044.044044044043 0.035614098632672016
5054.054054054054 0.035380165787669504
5064.064064064064 0.03514815977978663
5074.074074074074 0.03491805791072117
5084.084084084085 0.03468983787498018
5094.0940940940945 0.03446347775316272
5104.104104104104 0.03423895600528349
5114.114114114114 0.03401625146414147
5124.124124124124 0.033795343328736606
5134.134134134134 0.0335762111577374
5144.144144144144 0.03335883486300249
5154.154154154154 0.03314319470315901
5164.1641641641645 0.032929271277239804
5174.174174174174 0.03271704551838228
5184.184184184184 0.032506498687590875
5194.194194194194 0.03229761236756478
5204.204204204204 0.03209036845659361
5214.214214214214 0.03188474916252172
5224.224224224225 0.031680736996783386
5234.2342342342345 0.03147831476851006
5244.244244244244 0.03127746557871088
5254.254254254254 0.031078172814527707
5264.264264264264 0.030880420143565623
5274.274274274274 0.030684191508300127
5284.284284284285 0.03048947112056113
5294.294294294295 0.030296243456095412
5304.304304304304 0.03010449324920709
5314.314314314314 0.02991420548747769
5324.324324324324 0.029725365406565167
5334.334334334334 0.029537958485083213
5344.344344344345 0.02935197043956014
5354.354354354355 0.029167387219478376
5364.3643643643645 0.028984195002393916
5374.374374374374 0.02880238018913638
5384.384384384384 0.028621929399089058
5394.394394394394 0.028442829465549366
5404.404404404404 0.028265067431169005
5414.414414414415 0.028088630543474085
5424.424424424425 0.027913506250464622
5434.4344344344345 0.027739682196292983
5444.444444444444 0.027567146217021287
5454.454454454454 0.027395886336456995
5464.464464464464 0.02722589076206618
5474.474474474475 0.027057147880964243
5484.484484484485 0.02688964625598324
5494.494494494495 0.026723374621815347
5504.504504504504 0.026558321881231844
5514.514514514514 0.026394477101376785
5524.524524524524 0.026231829510135047
5534.534534534535 0.02607036849257354
5544.544544544545 0.025910083587455248
5554.554554554555 0.02575096448382503
5564.5645645645645 0.025593001017666577
5574.574574574574 0.025436183168629785
5584.584584584584 0.025280501056827328
5594.594594594595 0.025125944939699947
5604.604604604605 0.024972505208949735
5614.614614614615 0.024820172387539793
5624.624624624625 0.024668937126760253
5634.6346346346345 0.02451879020335928
5644.644644644644 0.0243697225167381
5654.654654654654 0.024221725086209484
5664.664664664665 0.024074789048318303
5674.674674674675 0.023928905654223738
5684.684684684685 0.023784066267141628
5694.694694694695 0.023640262359846533
5704.704704704704 0.023497485512232248
5714.714714714714 0.023355727408929914
5724.724724724725 0.023214979836982813
5734.734734734735 0.023075234683576765
5744.744744744745 0.02293648393382534
5754.754754754755 0.022798719668608816
5764.764764764765 0.022661934062465985
5774.774774774774 0.022526119381537858
5784.784784784785 0.02239126798156224
5794.794794794795 0.022257372305918448
5804.804804804805 0.022124424883720913
5814.814814814815 0.021992418327961002
5824.824824824825 0.02186134533369618
5834.8348348348345 0.021731198676285098
5844.844844844845 0.021601971209668502
5854.854854854855 0.021473655864694276
5864.864864864865 0.021346245647486092
5874.874874874875 0.021219733637854895
5884.884884884885 0.02109411298775202
5894.894894894895 0.020969376919763246
5904.9049049049045 0.020845518725642928
5914.914914914915 0.02072253176488727
5924.924924924925 0.02060040946334604
5934.934934934935 0.020479145311871512
5944.944944944945 0.020358732865004434
5954.954954954955 0.020239165739695513
5964.964964964965 0.020120437614062153
5974.974974974975 0.02000254222617929
5984.984984984985 0.01988547337290376
5994.994994994995 0.019769224908731266
6005.005005005005 0.019653790744685245
6015.015015015015 0.019539164847236935
6025.025025025025 0.01942534123725579
6035.035035035035 0.01931231398898951
6045.045045045045 0.019200077229073142
6055.055055055055 0.019088625135566226
6065.065065065065 0.01897795193701758
6075.075075075075 0.018868051911556924
6085.085085085085 0.01875891938601254
6095.0950950950955 0.01865054873505459
6105.105105105105 0.01854293438036312
6115.115115115115 0.018436070789820305
6125.125125125125 0.018329952476726252
6135.135135135135 0.01822457399903776
6145.145145145145 0.018119929958629304
6155.155155155155 0.018016015000575886
6165.1651651651655 0.017912823812456895
6175.175175175175 0.01781035112368062
6185.185185185185 0.01770859170482865
6195.195195195195 0.017607540367019902
6205.205205205205 0.01750719196129331
6215.215215215215 0.017407541378009043
6225.225225225226 0.017308583546267582
6235.235235235235 0.017210313433345937
