#lamb flux
1000.0 0.3902653049207616
1010.01001001001 0.3946048446171775
1020.0200200200201 0.39871540326432947
1030.03003003003 0.40259901906011464
1040.0400400400401 0.4062580812492035
1050.05005005005 0.4096952995047367
1060.06006006006 0.41291367458748374
1070.07007007007 0.41591647030988177
1080.08008008008 0.4187071868203319
1090.0900900900901 0.42128953521255086
1100.1001001001 0.4236674134555667
1110.11011011011 0.42584488363204587
1120.1201201201202 0.42782615046583145
1130.13013013013 0.4296155411138566
1140.1401401401401 0.43121748619278333
1150.1501501501502 0.4326365020067738
1160.16016016016 0.4338771739396043
1170.1701701701702 0.4349441409718178
1180.1801801801803 0.4358420812817013
1190.1901901901902 0.43657569888746456
1200.2002002002002 0.4371497112871114
1210.2102102102103 0.4375688380519477
1220.2202202202202 0.4378377903295419
1230.2302302302303 0.4379612612120754
1240.2402402402402 0.437943916926452
1250.2502502502502 0.4377903877349906
1260.2602602602603 0.43750525960963305
1270.2702702702702 0.43709306724205405
1280.2802802802803 0.43655829655064105
1290.2902902902902 0.4359053734012584
1300.3003003003003 0.43513865885643216
1310.3103103103103 0.4342624449671074
1320.3203203203202 0.4332809510720626
1330.3303303303303 0.4321983205715159
1340.3403403403404 0.4310186181428658
1350.3503503503503 0.42974582736795414
1360.3603603603603 0.4283838487426524
1370.3703703703704 0.42693649804100764
1380.3803803803803 0.4254075050075475
1390.3903903903904 0.42380051235273636
1400.4004004004005 0.42211907502788254
1410.4104104104103 0.42036665975710913
1420.4204204204204 0.4185466448052539
1430.4304304304305 0.41666231996177233
1440.4404404404404 0.41471688672190504
1450.4504504504505 0.41271345864748454
1460.4604604604606 0.4106550618908498
1470.4704704704704 0.40854463586636613
1480.4804804804805 0.40638503405505205
1490.4904904904906 0.40417902492874763
1500.5005005005005 0.4019292929811646
1510.5105105105106 0.39963843985402764
1520.5205205205207 0.39730898554731064
1530.5305305305305 0.39494336970336374
1540.5405405405404 0.3925439529554404
1550.5505505505505 0.3901130183318445
1560.5605605605606 0.3876527727075482
1570.5705705705705 0.38516534829577076
1580.5805805805805 0.3826528041725717
1590.5905905905906 0.380117127828064
1600.6006006006005 0.3775602367383697
1610.6106106106106 0.3749839799529175
1620.6206206206207 0.3723901396921371
1630.6306306306305 0.3697804329510285
1640.6406406406406 0.36715651310447805
1650.6506506506507 0.36451997151057336
1660.6606606606606 0.3618723391085025
1670.6706706706707 0.3592150880079583
1680.6806806806808 0.3565496330672615
1690.6906906906906 0.35387733345770567
1700.7007007007007 0.3511994942561364
1710.7107107107108 0.34851736806364925
1720.7207207207207 0.345832156185066
1730.7307307307308 0.34314501029516875
1740.7407407407409 0.3404570339300336
1750.7507507507507 0.33776928392937
1760.7607607607606 0.3350827718539556
1770.770770770771 0.3323984653772978
1780.7807807807808 0.32971728965080693
1790.7907907907907 0.3270401286418924
1800.8008008008007 0.3243678264445201
1810.8108108108108 0.3217011885618855
1820.8208208208207 0.3190409831609566
1830.8308308308308 0.3163879422987516
1840.8408408408409 0.31374276312029514
1850.8508508508507 0.311106109028295
1860.8608608608608 0.308478610824649
1870.870870870871 0.30586086782397665
1880.8808808808808 0.30325344893942546
1890.890890890891 0.300656893741065
1900.900900900901 0.29807171348723727
1910.9109109109108 0.2954983921292592
1920.920920920921 0.29293738728990804
1930.930930930931 0.29038913121611876
1940.940940940941 0.2878540317063216
1950.950950950951 0.2853324730127853
1960.960960960961 0.28282481671927817
1970.970970970971 0.2803314025942289
1980.980980980981 0.27785254941943316
1990.9909909909911 0.27538855579414767
2001.001001001001 0.27293970091420844
2011.0110110110109 0.2705062453255615
2021.0210210210212 0.2680884316513887
2031.031031031031 0.2656864852918345
2041.0410410410411 0.263300615095278
2051.051051051051 0.2609310140001945
2061.061061061061 0.2585778596469509
2071.071071071071 0.25624131495943314
2081.081081081081 0.25392152869720885
2091.091091091091 0.25161863597992773
2101.101101101101 0.24933275878677444
2111.1111111111113 0.247064006434843
2121.121121121121 0.24481247604112547
2131.131131131131 0.24257825297319757
2141.141141141141 0.24036141129354302
2151.151151151151 0.2381620142016891
2161.161161161161 0.23598011447703945
2171.1711711711714 0.2338157549236415
2181.1811811811813 0.23166896881636992
2191.191191191191 0.22953978034642025
2201.201201201201 0.2274282050628245
2211.2112112112113 0.22533425030606224
2221.221221221221 0.2232579156297718
2231.2312312312315 0.22119919320702094
2241.2412412412414 0.21915806821839606
2251.2512512512512 0.2171345192201671
2261.261261261261 0.21512851849180006
2271.271271271271 0.21314003236298504
2281.2812812812813 0.2111690215210627
2291.2912912912916 0.20921544130021272
2301.3013013013015 0.20727924195403208
2311.3113113113113 0.2053603689132168
2321.321321321321 0.20345876303000496
2331.331331331331 0.20157436081088526
2341.3413413413414 0.1997070946388914
2351.3513513513512 0.1978568929865778
2361.3613613613616 0.19602368062057585
2371.3713713713714 0.19420737879844246
2381.3813813813813 0.19240790545835157
2391.391391391391 0.19062517540206242
2401.4014014014015 0.18885910047148788
2411.4114114114113 0.18710958971912192
2421.4214214214217 0.18537654957252703
2431.4314314314315 0.1836598839930499
2441.4414414414414 0.18195949462890598
2451.4514514514512 0.1802752809627659
2461.4614614614616 0.1786071404539621
2471.4714714714714 0.17695496867543814
2481.4814814814818 0.175318659445558
2491.4914914914916 0.17369810495489638
2501.5015015015015 0.172093195888134
2511.5115115115113 0.17050382154118196
2521.521521521521 0.16892986993366393
2531.5315315315315 0.1673712279168844
2541.541541541542 0.16582778127741432
2551.5515515515517 0.16429941483642446
2561.5615615615616 0.162786012544896
2571.5715715715714 0.1612874575748422
2581.5815815815813 0.15980363240666573
2591.5915915915916 0.1583344189127819
2601.6016016016015 0.1568796984376326
2611.611611611612 0.15543935187421304
2621.6216216216217 0.1540132597372345
2631.6316316316315 0.15260130223303728
2641.6416416416414 0.1512033593263729
2651.6516516516517 0.14981931080416522
2661.6616616616616 0.14844903633635984
2671.671671671672 0.14709241553396826
2681.6816816816818 0.14574932800441026
2691.6916916916916 0.14441965340425247
2701.7017017017015 0.14310327148944194
2711.711711711712 0.14180006216312666
2721.7217217217217 0.14050990552115497
2731.731731731732 0.1392326818953404
2741.741741741742 0.1379682718945778
2751.7517517517517 0.1367165564438914
2761.7617617617616 0.13547741682149603
2771.7717717717715 0.1342507346939455
2781.781781781782 0.1330363921494434
2791.791791791792 0.13183427172938875
2801.801801801802 0.13064425645822178
2811.811811811812 0.12946622987164075
2821.8218218218217 0.12830007604324986
2831.8318318318316 0.1271456796097028
2841.841841841842 0.12600292579440064
2851.851851851852 0.12487170042980103
2861.861861861862 0.12375188997839541
2871.871871871872 0.12264338155240595
2881.881881881882 0.12154606293225581
2891.8918918918916 0.12045982258386156
2901.901901901902 0.11938454967479412
2911.911911911912 0.11832013408935753
2921.921921921922 0.11726646644262725
2931.931931931932 0.11622343809349227
2941.941941941942 0.11519094115674232
2951.9519519519517 0.11416886851423873
2961.961961961962 0.11315711382520964
2971.971971971972 0.11215557153570374
2981.9819819819822 0.11116413688724058
2991.991991991992 0.11018270592468989
3002.002002002002 0.10921117550341401
3012.012012012012 0.10824944329570461
3022.0220220220217 0.10729740779654477
3032.032032032032 0.10635498166495211
3042.0420420420423 0.10542203665649202
3052.052052052052 0.10449848837810717
3062.062062062062 0.10358423879221355
3072.072072072072 0.10267919068426613
3082.0820820820823 0.10178324766722786
3092.092092092092 0.10089631418533698
3102.102102102102 0.10001829551721204
3112.1121121121123 0.09914909777833665
3122.122122122122 0.09828862792295777
3132.132132132132 0.09743679374543424
3142.1421421421423 0.09659350388106663
3152.152152152152 0.09575866780644095
3162.162162162162 0.0949321958393127
3172.1721721721724 0.09411399913806089
3182.1821821821823 0.09330398970073639
3192.192192192192 0.09250208036372935
3202.202202202202 0.0917081848000782
3212.2122122122123 0.09092221751744307
3222.222222222222 0.09014409385576254
3232.232232232232 0.08937372998461388
3242.2422422422424 0.0886110429002956
3252.252252252252 0.08785595042264838
3262.262262262262 0.08710837119163171
3272.2722722722724 0.08636822466367149
3282.2822822822823 0.08563543110779306
3292.292292292292 0.0849099116015539
3302.3023023023025 0.0841915880267889
3312.3123123123123 0.08348038306518091
3322.322322322322 0.08277622019366805
3332.3323323323325 0.08207902367969952
3342.3423423423424 0.08138871857635041
3352.352352352352 0.08070523071730464
3362.3623623623625 0.08002848671171757
3372.3723723723724 0.07935841393896567
3382.3823823823823 0.07869494054329207
3392.3923923923926 0.07803799542835753
3402.4024024024025 0.07738750825170297
3412.4124124124123 0.0767434094191315
3422.4224224224226 0.0761056300790176
3432.4324324324325 0.0754741021165493
3442.4424424424424 0.07484875814791002
3452.4524524524522 0.07422953151440585
3462.4624624624626 0.07361635627654443
3472.4724724724724 0.07300916720807069
3482.4824824824823 0.0724078997899638
3492.4924924924926 0.07181249020440168
3502.5025025025025 0.07122287532869649
3512.5125125125123 0.0706389927292061
3522.5225225225226 0.07006078065522538
3532.5325325325325 0.06948817803286182
3542.5425425425424 0.06892112445889852
3552.5525525525527 0.0683595601946487
3562.5625625625626 0.06780342615980509
3572.5725725725724 0.06725266392628684
3582.5825825825827 0.06670721571208789
3592.5925925925926 0.06616702437512886
3602.6026026026025 0.06563203340711583
3612.612612612613 0.06510218692740828
3622.6226226226227 0.06457742967689871
3632.6326326326325 0.06405770701190609
3642.642642642643 0.06354296489808603
3652.6526526526527 0.06303314990435892
3662.6626626626626 0.06252820919685813
3672.672672672673 0.06202809053290096
3682.6826826826828 0.06153274225498291
3692.6926926926926 0.06104211328479805
3702.7027027027025 0.0605561531172859
3712.712712712713 0.06007481181470723
3722.7227227227227 0.05959804000075013
3732.7327327327325 0.05912578885466657
3742.742742742743 0.0586580101054423
3752.7527527527527 0.058194656025999665
3762.7627627627626 0.05773567942743558
3772.772772772773 0.057281033653294997
3782.7827827827828 0.05683067257388118
3792.7927927927926 0.05638455058060318
3802.802802802803 0.055942622580361985
3812.812812812813 0.05550484398997559
3822.8228228228227 0.05507117073064369
3832.832832832833 0.054641559222453034
3842.842842842843 0.05421596637892366
3852.8528528528527 0.05379434960159669
3862.862862862863 0.053376666774664155
3872.872872872873 0.0529628762596416
3882.8828828828828 0.05255293689008279
3892.892892892893 0.052146807966339026
3902.902902902903 0.05174444925036085
3912.912912912913 0.05134582096054445
3922.922922922923 0.05095088376662165
3932.932932932933 0.05055959878459513
3942.942942942943 0.050171927571717394
3952.9529529529527 0.049787832121515004
3962.962962962963 0.049407274858857736
3972.972972972973 0.04903021863507259
3982.982982982983 0.04865662672310308
3992.992992992993 0.04828646281271326
4003.003003003003 0.047919691005737806
4013.013013013013 0.04755627581137645
4023.023023023023 0.047196182141534024
4033.033033033033 0.04683937530620576
4043.043043043043 0.04648582100890742
4053.053053053053 0.046135485342150825
4063.063063063063 0.04578833478296402
4073.073073073073 0.045444336188456544
4083.0830830830832 0.04510345679142932
4093.093093093093 0.0447656641960293
4103.103103103103 0.04443092637344827
4113.113113113113 0.04409921165766653
4123.123123123123 0.043770488741239885
4133.133133133133 0.04344472667113132
4143.143143143143 0.04312189484458595
4153.153153153153 0.04280196300504988
4163.163163163163 0.04248490123813187
4173.173173173173 0.04217067996760856
4183.183183183183 0.041859269951472315
4193.193193193193 0.04155064227802157
4203.203203203203 0.04124476836199368
4213.213213213214 0.040941619940739866
4223.223223223224 0.04064116907044183
4233.2332332332335 0.04034338812236992
4243.243243243243 0.040048249779182594
4253.253253253253 0.03975572703126682
4263.263263263263 0.03946579317311916
4273.273273273273 0.03917842179976714
4283.283283283283 0.03889358680323076
4293.293293293293 0.038611262369023784
4303.303303303303 0.038331422972694304
4313.313313313313 0.038054043376404695
4323.323323323323 0.03777909862555007
4333.333333333334 0.03750656404541551
4343.343343343344 0.03723641523787133
4353.353353353354 0.03696862807810609
4363.3633633633635 0.0367031787113973
4373.373373373373 0.03644004354991928
4383.383383383383 0.03617919926958769
4393.393393393393 0.03592062280694084
4403.403403403403 0.035664291356057046
4413.413413413413 0.035410182365507734
4423.423423423424 0.035158273535346334
4433.4334334334335 0.034908542814132186
4443.443443443443 0.0346609683959892
4453.453453453454 0.03441552871769915
4463.463463463464 0.03417220245582944
4473.473473473474 0.03393096852389388
4483.483483483484 0.03369180606954795
4493.493493493494 0.03345469447181647
4503.503503503503 0.03321961333835457
4513.513513513513 0.032986542502741016
4523.523523523523 0.03275546202180342
4533.533533533533 0.03252635217297592
4543.543543543543 0.03229919345168772
4553.553553553554 0.032073966568783155
4563.563563563564 0.03185065244797256
4573.573573573573 0.0316292322233136
4583.583583583584 0.031409687236722744
4593.593593593594 0.031191999035516883
4603.603603603604 0.03097614936998396
4613.613613613614 0.030762120190983573
4623.623623623624 0.030549893647575672
4633.6336336336335 0.030339452084678534
4643.643643643643 0.030130778040754584
4653.653653653653 0.02992385424552439
4663.663663663663 0.029718663617708203
4673.673673673674 0.02951518926279482
4683.683683683684 0.029313414470837715
4693.693693693694 0.0291133227142775
4703.703703703704 0.028914897645791155
4713.713713713714 0.028718123096167284
4723.723723723724 0.028522983072207096
4733.733733733734 0.028329461754651033
4743.743743743744 0.02813754349613063
4753.753753753754 0.027947212819145233
4763.763763763764 0.027758454414063525
4773.773773773773 0.027571253137149185
4783.783783783783 0.027385594008610948
4793.793793793793 0.02720146221067622
4803.803803803804 0.027018843085688256
4813.813813813814 0.02683772213422677
4823.823823823824 0.026658085013251225
4833.833833833834 0.02647991753426712
4843.843843843844 0.02630320566151451
4853.853853853854 0.026127935510178762
4863.863863863864 0.025954093344623237
4873.873873873874 0.025781665576643548
4883.883883883884 0.025610638763743296
4893.893893893894 0.02544099960743083
4903.9039039039035 0.02527273495153696
4913.913913913913 0.025105831780553225
4923.923923923924 0.02494027721799057
4933.933933933934 0.024776058524758175
4943.943943943944 0.024613163097562063
4953.953953953955 0.024451578467323442
4963.9639639639645 0.024291292297616448
4973.973973973974 0.024132292383124955
4983.983983983984 0.02397456664811843
4993.993993993994 0.02381810314494642
5004.004004004004 0.023662890052551497
5014.014014014014 0.02350891567500051
5024.024024024024 0.02335616844003374
5034.0340340340335 0.023204636897632035
5044.044044044043 0.023054309718601312
5054.054054054054 0.022905175693174552
5064.064064064064 0.02275722372963094
5074.074074074074 0.022610442852931848
5084.084084084085 0.022464822203373598
5094.0940940940945 0.022320351035256803
5104.104104104104 0.0221770187155719
5114.114114114114 0.022034814722700857
5124.124124124124 0.021893728645134787
5134.134134134134 0.02175375018020727
5144.144144144144 0.021614869132843165
5154.154154154154 0.021477075414322803
5164.1641641641645 0.021340359041061185
5174.174174174174 0.02120471013340231
5184.184184184184 0.0210701189144281
5194.194194194194 0.020936575708781855
5204.204204204204 0.02080407094150637
5214.214214214214 0.020672595136895927
5224.224224224225 0.020542138917362496
5234.2342342342345 0.020412693002315813
5244.244244244244 0.020284248207056967
5254.254254254254 0.020156795441685714
5264.264264264264 0.020030325710020905
5274.274274274274 0.019904830108534312
5284.284284284285 0.019780299825297245
5294.294294294295 0.01965672613894016
5304.304304304304 0.019534100417624854
5314.314314314314 0.019412414118029252
5324.324324324324 0.01929165878434443
5334.334334334334 0.019171826047284058
5344.344344344345 0.019052907623105634
5354.354354354355 0.018934895312643852
5364.3643643643645 0.018817781000355506
5374.374374374374 0.018701556653376198
5384.384384384384 0.01858621432058834
5394.394394394394 0.01847174613170055
5404.404404404404 0.018358144296338197
5414.414414414415 0.018245401103144914
5424.424424424425 0.018133508918895137
5434.4344344344345 0.018022460187617228
5444.444444444444 0.017912247429727284
5454.454454454454 0.017802863241173486
5464.464464464464 0.017694300292590656
5474.474474474475 0.017586551328465178
5484.484484484485 0.017479609166309865
5494.494494494495 0.017373466695848896
5504.504504504504 0.017268116878212517
5514.514514514514 0.01716355274514147
5524.524524524524 0.017059767398201017
5534.534534534535 0.016956754008004418
5544.544544544545 0.01685450581344578
5554.554554554555 0.016753016120942037
5564.5645645645645 0.016652278303684185
5574.574574574574 0.016552285800897387
5584.584584584584 0.016453032117110036
5594.594594594595 0.016354510821431505
5604.604604604605 0.016256715546838704
5614.614614614615 0.01615963998947097
5624.624624624625 0.016063277907933594
5634.6346346346345 0.015967623122609576
5644.644644644644 0.01587266951497963
5654.654654654654 0.015778411026950323
5664.664664664665 0.015684841660190196
5674.674674674675 0.015591955475473922
5684.684684684685 0.015499746592034108
5694.694694694695 0.015408209186920954
5704.704704704704 0.015317337494369497
5714.714714714714 0.015227125805174376
5724.724724724725 0.015137568466072017
5734.734734734735 0.015048659879130203
5744.744744744745 0.014960394501144864
5754.754754754755 0.014872766843043958
5764.764764764765 0.014785771469298574
5774.774774774774 0.014699402997340873
5784.784784784785 0.014613656096988956
5794.794794794795 0.014528525489878584
5804.804804804805 0.014444005948901523
5814.814814814815 0.014360092297650607
5824.824824824825 0.01427677940987132
5834.8348348348345 0.0141940622089198
5844.844844844845 0.014111935667227335
5854.854854854855 0.014030394805771052
5864.864864864865 0.013949434693550885
5874.874874874875 0.013869050447072703
5884.884884884885 0.013789237229837492
5894.894894894895 0.013709990251836519
5904.9049049049045 0.01363130476905244
5914.914914914915 0.013553176082966242
5924.924924924925 0.013475599540069995
5934.934934934935 0.013398570531385195
5944.944944944945 0.013322084491986902
5954.954954954955 0.013246136900533282
5964.964964964965 0.01317072327880074
5974.974974974975 0.01309583919122443
5984.984984984985 0.013021480244444132
5994.994994994995 0.012947642086855423
6005.005005005005 0.01287432040816602
6015.015015015015 0.012801510938957365
6025.025025025025 0.012729209450251236
6035.035035035035 0.012657411753081408
6045.045045045045 0.01258611369807028
6055.055055055055 0.012515311175010405
6065.065065065065 0.012445000112450866
6075.075075075075 0.012375176477288417
6085.085085085085 0.01230583627436339
6095.0950950950955 0.012236975546060225
6105.105105105105 0.012168590371912646
6115.115115115115 0.01210067686821333
6125.125125125125 0.012033231187628135
6135.135135135135 0.01196624951881476
6145.145145145145 0.011899728086045691
6155.155155155155 0.01183366314883565
6165.1651651651655 0.011768051001573144
6175.175175175175 0.01170288797315639
6185.185185185185 0.011638170426633256
6195.195195195195 0.011573894758845498
