#lamb flux
1000.0 0.010086243926051591
1010.01001001001 0.010707151669576264
1020.0200200200201 0.011332829343665394
1030.03003003003 0.011962051382544463
1040.0400400400401 0.012593689479385503
1050.05005005005 0.013226712420075032
1060.06006006006 0.013860184585535836
1070.07007007007 0.014493263377855158
1080.08008008008 0.015125195799983691
1090.0900900900901 0.015755314392475395
1100.1001001001 0.016383032704721544
1110.11011011011 0.017007840453164703
1120.1201201201202 0.017629298495589515
1130.13013013013 0.01824703372910969
1140.1401401401401 0.01886073400007385
1150.1501501501502 0.019470143096858947
1160.16016016016 0.020075055881375568
1170.1701701701702 0.02067531360198348
1180.1801801801803 0.02127079941927928
1190.1901901901902 0.021861434166711415
1200.2002002002002 0.022447172360037553
1210.2102102102103 0.023027998463090373
1220.2202202202202 0.023603923411995718
1230.2302302302303 0.024174981395732282
1240.2402402402402 0.024741226887584174
1250.2502502502502 0.02530165574371112
1260.2602602602603 0.025853018900862314
1270.2702702702702 0.026389171373939858
1280.2802802802803 0.026909879433668207
1290.2902902902902 0.02741495852089534
1300.3003003003003 0.027904269783658286
1310.3103103103103 0.028377716698918188
1320.3203203203202 0.028835241793865776
1330.3303303303303 0.02927682347841945
1340.3403403403404 0.02970247299764656
1350.3503503503503 0.030112231510315456
1360.3603603603603 0.03050616729759371
1370.3703703703704 0.030884373104017915
1380.3803803803803 0.031246963611248207
1390.3903903903904 0.03159407304375151
1400.4004004004005 0.03192585290440836
1410.4104104104103 0.032242469837087694
1420.4204204204204 0.03254410361245092
1430.4304304304305 0.032830945232617384
1440.4404404404404 0.03310319514982704
1450.4504504504505 0.03336106159385057
1460.4604604604606 0.03360475900261513
1470.4704704704704 0.03383450655031245
1480.4804804804805 0.034050526767131335
1490.4904904904906 0.034253044244690854
1500.5005005005005 0.03444228442123908
1510.5105105105106 0.03461847244071739
1520.5205205205207 0.0347818320798609
1530.5305305305305 0.034932584737615506
1540.5405405405404 0.035070948481287556
1550.5505505505505 0.03519713714401035
1560.5605605605606 0.035311359468305936
1570.5705705705705 0.035413818290745476
1580.5805805805805 0.035504709762967046
1590.5905905905906 0.03558422260460313
1600.6006006006005 0.035652537384006235
1610.6106106106106 0.03570982582305065
1620.6206206206207 0.0357562501227406
1630.6306306306305 0.0357919623068911
1640.6406406406406 0.03581710358177845
1650.6506506506507 0.035831803710415305
1660.6606606606606 0.03583618040101207
1670.6706706706707 0.03583033871028219
1680.6806806806808 0.03581437046357422
1690.6906906906906 0.03578835369541997
1700.7007007007007 0.035752430653079925
1710.7107107107108 0.03570696768005702
1720.7207207207207 0.03565196706959115
1730.7307307307308 0.03558737553645346
1740.7407407407409 0.03551312805499451
1750.7507507507507 0.03542914753938795
1760.7607607607606 0.035335344652726135
1770.770770770771 0.03523161778237555
1780.7807807807808 0.03511785322725188
1790.7907907907907 0.03499392565233002
1800.8008008008007 0.03485969887688579
1810.8108108108108 0.0347150270757445
1820.8208208208207 0.03455975648718255
1830.8308308308308 0.03439372773695914
1840.8408408408409 0.03421677890492677
1850.8508508508507 0.03402874947818973
1860.8608608608608 0.03382948535187649
1870.870870870871 0.03361884505379404
1880.8808808808808 0.03339670738040134
1890.890890890891 0.03316298063573146
1900.900900900901 0.032917613658188336
1910.9109109109108 0.03266060879754016
1920.920920920921 0.03239203695983478
1930.930930930931 0.03211205476431047
1940.940940940941 0.03182092374609565
1950.950950950951 0.03151903138426372
1960.960960960961 0.031206913530920588
1970.970970970971 0.030885277561223976
1980.980980980981 0.030555025260345023
1990.9909909909911 0.030217274124101235
2001.001001001001 0.029873375399923685
2011.0110110110109 0.029524926872702806
2021.0210210210212 0.029173778159193527
2031.031031031031 0.02882202618032472
2041.0410410410411 0.028471998603340248
2051.051051051051 0.02812622344903978
2061.061061061061 0.027787383784847037
2071.071071071071 0.027458257473144815
2081.081081081081 0.027141643261708058
2091.091091091091 0.026840275971251982
2101.101101101101 0.026556734978320902
2111.1111111111113 0.026293351397769463
2121.121121121121 0.026052120125341076
2131.131131131131 0.025834623038393793
2141.141141141141 0.025641969087594623
2151.151151151151 0.025474755771688166
2161.161161161161 0.02533305471274798
2171.1711711711714 0.025216421973127394
2181.1811811811813 0.025123931657118275
2191.191191191191 0.02505422949311925
2201.201201201201 0.025005601713203235
2211.2112112112113 0.02497605376424298
2221.221221221221 0.024963393224737004
2231.2312312312315 0.024965311698823364
2241.2412412412414 0.024979461281801566
2251.2512512512512 0.025003522274387662
2261.261261261261 0.025035259999174768
2271.271271271271 0.025072569699569957
2281.2812812812813 0.025113509475047698
2291.2912912912916 0.02515632196688659
2301.3013013013015 0.025199446035834627
2311.3113113113113 0.02524151997904659
2321.321321321321 0.025281377950474505
2331.331331331331 0.025318041219278047
2341.3413413413414 0.025350705769239857
2351.3513513513512 0.025378727549198378
2361.3613613613616 0.025401606463561256
2371.3713713713714 0.02541896996812324
2381.3813813813813 0.025430556926727087
2391.391391391391 0.025436202198905362
2401.4014014014015 0.02543582227224566
2411.4114114114113 0.025429402126659853
2421.4214214214217 0.02541698341929679
2431.4314314314315 0.0253986540053478
2441.4414414414414 0.025374538757634988
2451.4514514514512 0.025344791612722566
2461.4614614614616 0.02530958874967141
2471.4714714714714 0.025269122796219304
2481.4814814814818 0.02522359795336729
2491.4914914914916 0.025173225930853065
2501.5015015015015 0.02511822259103436
2511.5115115115113 0.025058805205936528
2521.521521521521 0.024995190240640154
2531.5315315315315 0.024927591585070196
2541.541541541542 0.0248562191651011
2551.5515515515517 0.024781277872377074
2561.5615615615616 0.0247029667601627
2571.5715715715714 0.02462147845977283
2581.5815815815813 0.02453699877863614
2591.5915915915916 0.024449706446824395
2601.6016016016015 0.024359772983955984
2611.611611611612 0.02426736266280458
2621.6216216216217 0.024172632549769108
2631.6316316316315 0.024075732605645907
2641.6416416416414 0.02397680583295366
2651.6516516516517 0.02387598845844817
2661.6616616616616 0.023773410141486147
2671.671671671672 0.023669194200601325
2681.6816816816818 0.023563457852087643
2691.6916916916916 0.023456312455582384
2701.7017017017015 0.023347863762640968
2711.711711711712 0.023238212165125602
2721.7217217217217 0.023127452940917538
2731.731731731732 0.023015676495029256
2741.741741741742 0.02290296859465983
2751.7517517517517 0.022789410597116977
2761.7617617617616 0.022675079669840732
2771.7717717717715 0.022560049002014127
2781.781781781782 0.022444388007449148
2791.791791791792 0.02232816251859778
2801.801801801802 0.022211434971665306
2811.811811811812 0.022094264582903683
2821.8218218218217 0.02197670751624009
2831.8318318318316 0.02185881704245387
2841.841841841842 0.021740643690159017
2851.851851851852 0.021622235388879956
2861.861861861862 0.021503637604529533
2871.871871871872 0.021384893467610556
2881.881881881882 0.021266043894469792
2891.8918918918916 0.021147127701933284
2901.901901901902 0.021028181715650688
2911.911911911912 0.020909240872469682
2921.921921921922 0.020790338317154215
2931.931931931932 0.020671505493750547
2941.941941941942 0.02055277223189395
2951.9519519519517 0.020434166828337583
2961.961961961962 0.02031571612397256
2971.971971971972 0.020197445576596057
2981.9819819819822 0.02007937932967143
2991.991991991992 0.01996154027731204
3002.002002002002 0.019843950125708488
3012.012012012012 0.019726629451206554
3022.0220220220217 0.019609597755232095
3032.032032032032 0.019535529353266294
3042.0420420420423 0.019413705977841346
3052.052052052052 0.01929075289756147
3062.062062062062 0.019167100093879317
3072.072072072072 0.019043118612573053
3082.0820820820823 0.018919126648479025
3092.092092092092 0.01879539514562429
3102.102102102102 0.018672152930995813
3112.1121121121123 0.01854959140418953
3122.122122122122 0.018427868807751196
3132.132132132132 0.018307114104465817
3142.1421421421423 0.01818743048842912
3152.152152152152 0.018068898556653987
3162.162162162162 0.01795157916739837
3172.1721721721724 0.017835516010482673
3182.1821821821823 0.01772073791370724
3192.192192192192 0.017607260908164904
3202.202202202202 0.017495090073840768
3212.2122122122123 0.01738422118544853
3222.222222222222 0.017274642177010607
3232.232232232232 0.01716633444227564
3242.2422422422424 0.01705927398670154
3252.252252252252 0.0169534324454291
3262.262262262262 0.016848777980440034
3272.2722722722724 0.01674527606893816
3282.2822822822823 0.016642890193915967
3292.292292292292 0.016541582446871417
3302.3023023023025 0.016441314051719128
3312.3123123123123 0.016342045818093853
3322.322322322322 0.01624373853146925
3332.3323323323325 0.01614635328680568
3342.3423423423424 0.016049851771795964
3352.352352352352 0.015954196505189183
3362.3623623623625 0.015859351035139694
3372.3723723723724 0.015765280102043762
3382.3823823823823 0.01567194976988696
3392.3923923923926 0.015579327529729077
3402.4024024024025 0.015487382378592538
3412.4124124124123 0.015396084876696046
3422.4224224224226 0.015305407185680745
3432.4324324324325 0.015215323090210654
3442.4424424424424 0.015125808005089067
3452.4524524524522 0.015036838969815428
3462.4624624624626 0.014948394632311408
3472.4724724724724 0.014860455223367415
3482.4824824824823 0.014773002523200419
3492.4924924924926 0.014686019821369507
3502.5025025025025 0.014599491871163913
3512.5125125125123 0.014513404839460018
3522.5225225225226 0.014427746252936536
3532.5325325325325 0.014342504941439523
3542.5425425425424 0.014257670979201359
3552.5525525525527 0.014173235624537707
3562.5625625625626 0.014089191258574779
3572.5725725725724 0.014005531323493197
3582.5825825825827 0.01392225026071647
3592.5925925925926 0.013839343449417422
3602.6026026026025 0.013756807145668414
3612.612612612613 0.013674638422516493
3622.6226226226227 0.013592835111225398
3632.6326326326325 0.013511395743890152
3642.642642642643 0.013430319497597898
3652.6526526526527 0.013349606140279082
3662.6626626626626 0.01326925597836684
3672.672672672673 0.013189269806359165
3682.6826826826828 0.013109648858356547
3692.6926926926926 0.013030394761629283
3702.7027027027025 0.012951509492251385
3712.712712712713 0.012872995332822906
3722.7227227227227 0.01279485483228923
3732.7327327327325 0.012717090767853576
3742.742742742743 0.01263970610896893
3752.7527527527527 0.012562703983386183
3762.7627627627626 0.01248608764522715
3772.772772772773 0.0124098604450446
3782.7827827827828 0.012334025801825096
3792.7927927927926 0.012258587176885518
3802.802802802803 0.01218354804961015
3812.812812812813 0.012108911894971387
3822.8228228228227 0.01203468216277447
3832.832832832833 0.011960862258564537
3842.842842842843 0.01188745552613245
3852.8528528528527 0.01181446523155487
3862.862862862863 0.011741894548703058
3872.872872872873 0.011669746546155092
3882.8828828828828 0.011598024175445396
3892.892892892893 0.011526730260586874
3902.902902902903 0.011455867488800444
3912.912912912913 0.011385438402388579
3922.922922922923 0.011315445391689891
3932.932932932933 0.011245890689053482
3942.942942942943 0.01117677636377281
3952.9529529529527 0.011108104317920765
3962.962962962963 0.0110398762830289
3972.972972972973 0.010972093817555904
3982.982982982983 0.010904758305091865
3992.992992992993 0.010837870953246953
4003.003003003003 0.010771432793175082
4013.013013013013 0.010705444679684834
4023.023023023023 0.010639907291892133
4033.033033033033 0.010574821134371007
4043.043043043043 0.010510186538760622
4053.053053053053 0.010446003665788945
4063.063063063063 0.010382272507675093
4073.073073073073 0.010318992890874417
4083.0830830830832 0.010256164479132229
4093.093093093093 0.010193786776813867
4103.103103103103 0.010131859132480495
4113.113113113113 0.010070380742682045
4123.123123123123 0.01000935065593986
4133.133133133133 0.009948767776893876
4143.143143143143 0.009888630870590175
4153.153153153153 0.00982893856688665
4163.163163163163 0.009769689364955755
4173.173173173173 0.009710881637864816
4183.183183183183 0.009652513637215776
4193.193193193193 0.009594583497827363
4203.203203203203 0.009537089242444109
4213.213213213214 0.00948002878645777
4223.223223223224 0.00942339994262764
4233.2332332332335 0.009367200425787597
4243.243243243243 0.009311427857528622
4253.253253253253 0.009256079770846363
4263.263263263263 0.009201153614744518
4273.273273273273 0.009146646758785373
4283.283283283283 0.009092556497579866
4293.293293293293 0.009038880055210216
4303.303303303303 0.008985614589578922
4313.313313313313 0.008932757196678593
4323.323323323323 0.008880304914777684
4333.333333333334 0.008828254728517969
4343.343343343344 0.008776603572919884
4353.353353353354 0.008725348337292651
4363.3633633633635 0.008674485869046424
4373.373373373373 0.008624012977404229
4383.383383383383 0.008573926437011872
4393.393393393393 0.00852422299144437
4403.403403403403 0.008474899356607895
4413.413413413413 0.008425952224036366
4423.423423423424 0.008377378264082486
4433.4334334334335 0.008329174129002912
4443.443443443443 0.008281336455937765
4453.453453453454 0.008233861869784864
4463.463463463464 0.00818674698596931
4473.473473473474 0.008139988413109063
4483.483483483484 0.008093582755577717
4493.493493493494 0.00804752661596546
4503.503503503503 0.008001816597439504
4513.513513513513 0.007956449306005572
4523.523523523523 0.007911421352671715
4533.533533533533 0.007866729355516397
4543.543543543543 0.007822369941662377
4553.553553553554 0.007778339749158285
4563.563563563564 0.007734635428769811
4573.573573573573 0.007691253645682369
4583.583583583584 0.00764819108111734
4593.593593593594 0.007605444433863859
4603.603603603604 0.007563010421728228
4613.613613613614 0.007520885782903104
4623.623623623624 0.007479067277258516
4633.6336336336335 0.007437551687556886
4643.643643643643 0.007396335820594195
4653.653653653653 0.007355416508269358
4663.663663663663 0.007314790608584089
4673.673673673674 0.007274455006575195
4683.683683683684 0.007234406615181617
4693.693693693694 0.007194642376048125
4703.703703703704 0.0071551592602679
4713.713713713714 0.007115954269065985
4723.723723723724 0.0070770244344256295
4733.733733733734 0.007038366819659586
4743.743743743744 0.006999978519928298
4753.753753753754 0.006961856662706935
4763.763763763764 0.006923998408203197
4773.773773773773 0.006886400949727708
4783.783783783783 0.0068490615140189975
4793.793793793793 0.006811977361524658
4803.803803803804 0.0067751457866406075
4813.813813813814 0.006738564117910165
4823.823823823824 0.006702229718184565
4833.833833833834 0.006666139984746609
4843.843843843844 0.006630292349399104
4853.853853853854 0.006594684278519557
4863.863863863864 0.006559313273082772
4873.873873873874 0.006524176868652763
4883.883883883884 0.006489272635345481
4893.893893893894 0.006454598177763739
4903.9039039039035 0.0064201511349057435
4913.913913913913 0.006385929180048509
4923.923923923924 0.00635193002060753
4933.933933933934 0.006318151397973904
4943.943943943944 0.006284591087330135
4953.953953953955 0.006251246897445846
4963.9639639639645 0.006218116670454476
4973.973973973974 0.006185198281612111
4983.983983983984 0.006152489639039524
4993.993993993994 0.006119988683448447
5004.004004004004 0.006087693387853056
5014.014014014014 0.006055601757267695
5024.024024024024 0.006023711828391699
5034.0340340340335 0.005992021669282296
5044.044044044043 0.005960529379016381
5054.054054054054 0.00592923308734206
5064.064064064064 0.005898130954320737
5074.074074074074 0.0058672211699605315
5084.084084084085 0.005836501953841762
5094.0940940940945 0.0058059715547352665
5104.104104104104 0.005775628250214151
5114.114114114114 0.005745470346259742
5124.124124124124 0.005715496176862294
5134.134134134134 0.005685704103617114
5144.144144144144 0.005656092515316667
5154.154154154154 0.005626659827539228
5164.1641641641645 0.005597404482234615
5174.174174174174 0.005568324947307541
5184.184184184184 0.005539419716199031
5194.194194194194 0.005510687307466405
5204.204204204204 0.005482126264362307
5214.214214214214 0.005453735154413118
5224.224224224225 0.0054255125689972525
5234.2342342342345 0.00539745712292369
5244.244244244244 0.0053695674540110705
5254.254254254254 0.005341842222667811
5264.264264264264 0.005314280111473443
5274.274274274274 0.0052868798247616144
5284.284284284285 0.005259640088204952
5294.294294294295 0.005232559648402152
5304.304304304304 0.005205637272467477
5314.314314314314 0.005178871747623035
5324.324324324324 0.005152261880793929
5334.334334334334 0.0051258064982066505
5344.344344344345 0.005099504444990795
5354.354354354355 0.005073354584784423
5364.3643643643645 0.005047355799343122
5374.374374374374 0.0050215069881530735
5384.384384384384 0.004995807068048171
5394.394394394394 0.004970254972831419
5404.404404404404 0.004944849652900706
5414.414414414415 0.004919590074879108
5424.424424424425 0.004894475221249834
5434.4344344344345 0.0048695040899958755
5444.444444444444 0.004844675694244559
5454.454454454454 0.004819989061916997
5464.464464464464 0.004795443235382559
5474.474474474475 0.004771037271118438
5484.484484484485 0.004746770239374363
5494.494494494495 0.004722641223842526
5504.504504504504 0.004698649321332773
5514.514514514514 0.004674793641453089
5524.524524524524 0.004651073306295438
5534.534534534535 0.004627487450126953
5544.544544544545 0.004604035219086539
5554.554554554555 0.00458071577088687
5564.5645645645645 0.004557528274521809
5574.574574574574 0.004534471909979278
5584.584584584584 0.004511545867959539
5594.594594594595 0.004488749349598884
5604.604604604605 0.00446608156619881
5614.614614614615 0.004443541738960515
5624.624624624625 0.004421129098724834
5634.6346346346345 0.00439884288571756
5644.644644644644 0.004376682349300044
5654.654654654654 0.004354646747725183
5664.664664664665 0.004332735347898628
5674.674674674675 0.004310947425145311
5684.684684684685 0.004289282262981108
5694.694694694695 0.004267739152889731
5704.704704704704 0.004246317394104725
5714.714714714714 0.004225016293396541
5724.724724724725 0.004203835164864663
5734.734734734735 0.004182773329734694
5744.744744744745 0.004161830116160393
5754.754754754755 0.00414100485903057
5764.764764764765 0.0041202968997808165
5774.774774774774 0.004099705586210001
5784.784784784785 0.004079230272301439
5794.794794794795 0.004058870318048747
5804.804804804805 0.004038625089286236
5814.814814814815 0.004018493957523846
5824.824824824825 0.003998476299786541
5834.8348348348345 0.003978571498458048
5844.844844844845 0.003958778941128981
5854.854854854855 0.003939098020449165
5864.864864864865 0.003919528133984163
5874.874874874875 0.00390006868407595
5884.884884884885 0.0038807190777075877
5894.894894894895 0.003861478726371923
5904.9049049049045 0.0038423470459441745
5914.914914914915 0.0038233234565583723
5924.924924924925 0.0038044073824875764
5934.934934934935 0.0037855982520277674
5944.944944944945 0.0037668954973854207
5954.954954954955 0.0037482985545685948
5964.964964964965 0.0037298068632815465
5974.974974974975 0.0037114198668227513
5984.984984984985 0.0036931370119862982
5994.994994994995 0.0036749577489665454
6005.005005005005 0.0036568815312660093
6015.015015015015 0.003638907815606397
6025.025025025025 0.0036210360618427273
6035.035035035035 0.0036032657328804413
6045.045045045045 0.0035855962945954877
6055.055055055055 0.0035680272157572624
6065.065065065065 0.0035505579679543714
6075.075075075075 0.0035331880255231353
6085.085085085085 0.0035159168654787815
6095.0950950950955 0.0034987439674492474
