#lamb flux
1000.0 0.02160382118703509
1010.01001001001 0.023453098845232622
1020.0200200200201 0.02540726735278044
1030.03003003003 0.027468341433145794
1040.0400400400401 0.029638158584850877
1050.05005005005 0.031918373520421935
1060.06006006006 0.03431045348518067
1070.07007007007 0.03681567444707263
1080.08008008008 0.03943511814322338
1090.0900900900901 0.04216966996393652
1100.1001001001 0.04502001765041821
1110.11011011011 0.047986650778613846
1120.1201201201202 0.051069860998165656
1130.13013013013 0.05426974299262356
1140.1401401401401 0.05758619612465535
1150.1501501501502 0.061018926728066775
1160.16016016016 0.06456745100695004
1170.1701701701702 0.06823109850118388
1180.1801801801803 0.0720090160768007
1190.1901901901902 0.07590017239936235
1200.2002002002002 0.07990336284844798
1210.2102102102103 0.0840172148315887
1220.2202202202202 0.08824019345648852
1230.2302302302303 0.0925706075210995
1240.2402402402402 0.09700661578204951
1250.2502502502502 0.10154622839655462
1260.2602602602603 0.10618730734051073
1270.2702702702702 0.11092756881370232
1280.2802802802803 0.1157646329709009
1290.2902902902902 0.12069600410106254
1300.3003003003003 0.12571907782415404
1310.3103103103103 0.1308311483273937
1320.3203203203202 0.13602941561321397
1330.3303303303303 0.14131099273301784
1340.3403403403404 0.1466729129825335
1350.3503503503503 0.15211213703633
1360.3603603603603 0.15762556000077207
1370.3703703703704 0.16321001836639043
1380.3803803803803 0.1688622968423048
1390.3903903903904 0.1745791350569537
1400.4004004004005 0.18035723411094773
1410.4104104104103 0.18619326296938687
1420.4204204204204 0.19208386468242708
1430.4304304304305 0.198025662424281
1440.4404404404404 0.2040152653421725
1450.4504504504505 0.2100492742080213
1460.4604604604606 0.21612428686683793
1470.4704704704704 0.2222369034769446
1480.4804804804805 0.2283837315381939
1490.4904904904906 0.23456139070536408
1500.5005005005005 0.2407665173848291
1510.5105105105106 0.24699576911348978
1520.5205205205207 0.2532458287197268
1530.5305305305305 0.25951340826690794
1540.5405405405404 0.2657952527806375
1550.5505505505505 0.27208814376157514
1560.5605605605606 0.2783889024862158
1570.5705705705705 0.28469439309852634
1580.5805805805805 0.29100152549581404
1590.5905905905906 0.2973072580125964
1600.6006006006005 0.30360859990662864
1610.6106106106106 0.3099026136515496
1620.6206206206207 0.31618641704090805
1630.6306306306305 0.3224571851085576
1640.6406406406406 0.32871215187063807
1650.6506506506507 0.3349486118945115
1660.6606606606606 0.341163921700193
1670.6706706706707 0.34735550099991536
1680.6806806806808 0.35352083378157034
1690.6906906906906 0.3596574692418426
1700.7007007007007 0.3657630235174157
1710.7107107107108 0.37183518237870306
1720.7207207207207 0.3778716947026167
1730.7307307307308 0.38387037639666527
1740.7407407407409 0.3898291111929496
1750.7507507507507 0.39574585080577135
1760.7607607607606 0.40161861498062373
1770.770770770771 0.4074454914406998
1780.7807807807808 0.41322463573712026
1790.7907907907907 0.41895427100920835
1800.8008008008007 0.424632687661289
1810.8108108108108 0.4302582429626993
1820.8208208208207 0.4358293605779825
1830.8308308308308 0.4413445300345598
1840.8408408408409 0.4468023061356137
1850.8508508508507 0.4522013083264196
1860.8608608608608 0.457540220022937
1870.870870870871 0.46281778791217637
1880.8808808808808 0.46803282123451795
1890.890890890891 0.47318419105893966
1900.900900900901 0.47827082956274275
1910.9109109109108 0.4832917293278853
1920.920920920921 0.4882459426662139
1930.930930930931 0.49313258098555934
1940.940940940941 0.49795081420758036
1950.950950950951 0.5026998702459994
1960.960960960961 0.5073790345502353
1970.970970970971 0.5119876497138861
1980.980980980981 0.5165251151397992
1990.9909909909911 0.5209908867432878
2001.001001001001 0.525384476662499
2011.0110110110109 0.5297054529303902
2021.0210210210212 0.5339534390472551
2031.031031031031 0.5381281133779103
2041.0410410410411 0.5422292082859739
2051.051051051051 0.5462565089122465
2061.061061061061 0.5502098515083542
2071.071071071071 0.5540891212537206
2081.081081081081 0.5578942495154633
2091.091091091091 0.5616252105568054
2101.101101101101 0.5652820177569704
2111.1111111111113 0.5688647194680189
2121.121121121121 0.5723733946925114
2131.131131131131 0.5758081488099126
2141.141141141141 0.5791691095995977
2151.151151151151 0.5824564237978127
2161.161161161161 0.5856702543838891
2171.1711711711714 0.5888107787223701
2181.1811811811813 0.591878187602792
2191.191191191191 0.5948726851310843
2201.201201201201 0.5977944893494457
2211.2112112112113 0.6006438334057684
2221.221221221221 0.6034209670649557
2231.2312312312315 0.6061261583533349
2241.2412412412414 0.6087596951493366
2251.2512512512512 0.6113218865715943
2261.261261261261 0.6138130640614
2271.271271271271 0.6162335821025331
2281.2812812812813 0.6185838185623455
2291.2912912912916 0.6208641746702772
2301.3013013013015 0.6230750746724549
2311.3113113113113 0.6252169652141748
2321.321321321321 0.6272903145073024
2331.331331331331 0.6292956113388658
2341.3413413413414 0.6312333639723501
2351.3513513513512 0.6331040989861372
2361.3613613613616 0.6349083600855309
2371.3713713713714 0.6366467069168444
2381.3813813813813 0.6383197139047253
2391.391391391391 0.6399279691275948
2401.4014014014015 0.6414720732408253
2411.4114114114113 0.6429526384532285
2421.4214214214217 0.6443702875592425
2431.4314314314315 0.6457256530269836
2441.4414414414414 0.6470193761407164
2451.4514514514512 0.6482521061953037
2461.4614614614616 0.6494244997395756
2471.4714714714714 0.6505372198652704
2481.4814814814818 0.6515909355381352
2491.4914914914916 0.6525863209678409
2501.5015015015015 0.6535240550135404
2511.5115115115113 0.6544048206221353
2521.521521521521 0.6552293042965591
2531.5315315315315 0.655998195591653
2541.541541541542 0.6567121866354638
2551.5515515515517 0.6573719716740417
2561.5615615615616 0.6579782466380115
2571.5715715715714 0.6585317087294356
2581.5815815815813 0.6590330560276133
2591.5915915915916 0.6594829871126612
2601.6016016016015 0.6598822007058354
2611.611611611612 0.6602313953256692
2621.6216216216217 0.6605312689591263
2631.6316316316315 0.6607825187470299
2641.6416416416414 0.6609858406831266
2651.6516516516517 0.6611419293261914
2661.6616616616616 0.6612514775246396
2671.671671671672 0.6613151761531655
2681.6816816816818 0.6613337138609542
2691.6916916916916 0.6613077768310602
2701.7017017017015 0.6612380485505566
2711.711711711712 0.6611252095911057
2721.7217217217217 0.6609699373996069
2731.731731731732 0.6607729060985968
2741.741741741742 0.6605347862961007
2751.7517517517517 0.6602562449046362
2761.7617617617616 0.6599379449690974
2771.7717717717715 0.6595805455032405
2781.781781781782 0.6591847013345093
2791.791791791792 0.6587510629569605
2801.801801801802 0.6582802763920207
2811.811811811812 0.657772983056864
2821.8218218218217 0.6572298196401485
2831.8318318318316 0.6566514179849131
2841.841841841842 0.6560384049783942
2851.851851851852 0.6553914024485568
2861.861861861862 0.6547110270671239
2871.871871871872 0.6539978902589048
2881.881881881882 0.6532525981172164
2891.8918918918916 0.6524757513252029
2901.901901901902 0.6516679450828615
2911.911911911912 0.6508297690395863
2921.921921921922 0.6499618072320488
2931.931931931932 0.6490646380272367
2941.941941941942 0.6481388340704679
2951.9519519519517 0.6471849622382189
2961.961961961962 0.6462035835955945
2971.971971971972 0.6451952533582771
2981.9819819819822 0.6441605208588002
2991.991991991992 0.6430999295169778
3002.002002002002 0.6420140168143574
3012.012012012012 0.6409033142725319
3022.0220220220217 0.6397683474351737
3032.032032032032 0.6386112733534545
3042.0420420420423 0.6374291284678303
3052.052052052052 0.6362242012226628
3062.062062062062 0.6349970084800931
3072.072072072072 0.6337480590972412
3082.0820820820823 0.6324778541209631
3092.092092092092 0.6311868869695231
3102.102102102102 0.6298756436022263
3112.1121121121123 0.6285446026780052
3122.122122122122 0.6271942357038538
3132.132132132132 0.6258250071739635
3142.1421421421423 0.6244373747003346
3152.152152152152 0.6230317891355809
3162.162162162162 0.6216086946886009
3172.1721721721724 0.6201685290337191
3182.1821821821823 0.6187117234138854
3192.192192192192 0.6172387027384306
3202.202202202202 0.61574988567588
3212.2122122122123 0.6142456847422681
3222.222222222222 0.6127265063853536
3232.232232232232 0.6111927510651192
3242.2422422422424 0.609644813330903
3252.252252252252 0.6080830818954716
3262.262262262262 0.6065079397063327
3272.2722722722724 0.6049197640145527
3282.2822822822823 0.603318926441317
3292.292292292292 0.6017057930424626
3302.3023023023025 0.600080724371184
3312.3123123123123 0.5984440755390944
3322.322322322322 0.5967961962758166
3332.3323323323325 0.5951374309872491
3342.3423423423424 0.5934681188126535
3352.352352352352 0.5917885936806807
3362.3623623623625 0.5900991843644597
3372.3723723723724 0.5884002145358409
3382.3823823823823 0.5866920028188864
3392.3923923923926 0.5849748628427037
3402.4024024024025 0.5832491032936754
3412.4124124124123 0.5815150279671645
3422.4224224224226 0.5797729358187509
3432.4324324324325 0.5780231210150483
3442.4424424424424 0.5762658729841477
3452.4524524524522 0.5745014764657265
3462.4624624624626 0.572730211560861
3472.4724724724724 0.5709523537815673
3482.4824824824823 0.5691681741000972
3492.4924924924926 0.567377938998016
3502.5025025025025 0.5655819105150709
3512.5125125125123 0.563780346297874
3522.5225225225226 0.5619734996484048
3532.5325325325325 0.5601616195723468
3542.5425425425424 0.5583449508272614
3552.5525525525527 0.556523733970605
3562.5625625625626 0.5546982054075975
3572.5725725725724 0.5528685974389301
3582.5825825825827 0.551035138308331
3592.5925925925926 0.5491980522499699
3602.6026026026025 0.5473575595357101
3612.612612612613 0.5455138765222018
3622.6226226226227 0.5436672156978084
3632.6326326326325 0.5418177857293645
3642.642642642643 0.5399657915087601
3652.6526526526527 0.538111434199343
3662.6626626626626 0.5362549112821293
3672.672672672673 0.5343964166018241
3682.6826826826828 0.5325361404126341
3692.6926926926926 0.5306742694238726
3702.7027027027025 0.5288109868453454
3712.712712712713 0.5269464724325083
3722.7227227227227 0.5250809025313938
3732.7327327327325 0.5232144501232912
3742.742742742743 0.5213472848691811
3752.7527527527527 0.5194795731539082
3762.7627627627626 0.5176114781300901
3772.772772772773 0.5157431597617523
3782.7827827827828 0.5138747748676835
3792.7927927927926 0.5120064771645005
3802.802802802803 0.5101384173094226
3812.812812812813 0.5082707429427401
3822.8228228228227 0.5064035987299765
3832.832832832833 0.5045371264037372
3842.842842842843 0.5026714648052358
3852.8528528528527 0.5008067499254961
3862.862862862863 0.49894311494622057
3872.872872872873 0.4970806902803258
3882.8828828828828 0.49521960361212847
3892.892892892893 0.4933599799371968
3902.902902902903 0.4915019416018383
3912.912912912913 0.4896456083422425
3922.922922922923 0.4877910973232607
3932.932932932933 0.48593852317682457
3942.942942942943 0.4840879980399989
3952.9529529529527 0.48223963159266797
3962.962962962963 0.4803935310948479
3972.972972972973 0.47854980142362885
3982.982982982983 0.4767085451097397
3992.992992992993 0.47486986237373513
4003.003003003003 0.4730338511618042
4013.013013013013 0.4712006071812001
4023.023023023023 0.469370223935284
4033.033033033033 0.4675427927581901
4043.043043043043 0.465718402849105
4053.053053053053 0.46389714130616394
4063.063063063063 0.4620790931599625
4073.073073073073 0.46026434140668376
4083.0830830830832 0.4584529670408415
4093.093093093093 0.4566450490876388
4103.103103103103 0.4548406646349417
4113.113113113113 0.4530398888648753
4123.123123123123 0.45124279508502857
4133.133133133133 0.44944945475928616
4143.143143143143 0.4476599375382745
4153.153153153153 0.4458743112894333
4163.163163163163 0.444092642126705
4173.173173173173 0.4423149944398518
4183.183183183183 0.4405414309233958
4193.193193193193 0.4387720126051879
4203.203203203203 0.43700679887460464
4213.213213213214 0.4352458475103784
4223.223223223224 0.43348921470805873
4233.2332332332335 0.43173695510710897
4243.243243243243 0.42998912181764465
4253.253253253253 0.4282457664468054
4263.263263263263 0.4265069391247758
4273.273273273273 0.4247726885304482
4283.283283283283 0.42304306191673335
4293.293293293293 0.4213181051355231
4303.303303303303 0.4195978626623041
4313.313313313313 0.4178823776204312
4323.323323323323 0.41617169180505403
4333.333333333334 0.4144658457067121
4343.343343343344 0.4127648785345888
4353.353353353354 0.4110688282394376
4363.3633633633635 0.40937773153617585
4373.373373373373 0.407691623926156
4383.383383383383 0.4060105397191084
4393.393393393393 0.4043345120547714
4403.403403403403 0.40266357292419985
4413.413413413413 0.40099775319076014
4423.423423423424 0.3993370826108182
4433.4334334334335 0.3976815898541184
4443.443443443443 0.39603130252385826
4453.453453453454 0.39438624717646387
4463.463463463464 0.3927464493410694
4473.473473473474 0.39111193353869866
4483.483483483484 0.38948272330115996
4493.493493493494 0.3878588411896525
4503.503503503503 0.3862403088130878
4513.513513513513 0.3846271468461323
4523.523523523523 0.38301937504696965
4533.533533533533 0.381417012274793
4543.543543543543 0.3798200765070224
4553.553553553554 0.37822858485625643
4563.563563563564 0.37664255358696114
4573.573573573573 0.375061998131894
4583.583583583584 0.3734869331082745
4593.593593593594 0.37191737233369715
4603.603603603604 0.37035332884179284
4613.613613613614 0.3687948148976465
4623.623623623624 0.3672418420129633
4633.6336336336335 0.3656944209609977
4643.643643643643 0.3641525617912439
4653.653653653653 0.3626162738438875
4663.663663663663 0.3610855657640276
4673.673673673674 0.3595604455156687
4683.683683683684 0.35804092039548713
4693.693693693694 0.3565269970463721
4703.703703703704 0.3550186814707499
4713.713713713714 0.353515979043688
4723.723723723724 0.3520188945257873
4733.733733733734 0.35052743207586046
4743.743743743744 0.34904159526340484
4753.753753753754 0.3475613870808688
4763.763763763764 0.34608680995571495
4773.773773773773 0.3446178657622833
4783.783783783783 0.3431545558334605
4793.793793793793 0.3416968809721521
4803.803803803804 0.34024484146256334
4813.813813813814 0.3387984370812946
4823.823823823824 0.33735766710824666
4833.833833833834 0.33592253033734665
4843.843843843844 0.3344930250870921
4853.853853853854 0.33306914921091507
4863.863863863864 0.3316509001073746
4873.873873873874 0.3302382747301743
4883.883883883884 0.3288312695980095
4893.893893893894 0.32742988080424884
4903.9039039039035 0.326034104026448
4913.913913913913 0.3246439345357028
4923.923923923924 0.3232593672058411
4933.933933933934 0.32188039652245704
4943.943943943944 0.3205070165917898
4953.953953953955 0.3191392211494487
4963.9639639639645 0.31777700356898886
4973.973973973974 0.31642035687033626
4983.983983983984 0.3150692737280683
4993.993993993994 0.31372374647954976
5004.004004004004 0.3123837671329252
5014.014014014014 0.3110493273749755
5024.024024024024 0.30972041857883215
5034.0340340340335 0.3083970318115599
5044.044044044043 0.30707915784160467
5054.054054054054 0.3057667871461088
5064.064064064064 0.30445990991810024
5074.074074074074 0.3031585160735511
5084.084084084085 0.30186259525831277
5094.0940940940945 0.3005721368549289
5104.104104104104 0.29928712998932333
5114.114114114114 0.2980075635373724
5124.124124124124 0.2967334261313579
5134.134134134134 0.29546470616630405
5144.144144144144 0.29420139180620103
5154.154154154154 0.29294347099011736
5164.1641641641645 0.29169093143819946
5174.174174174174 0.2904437606575659
5184.184184184184 0.28920194594809173
5194.194194194194 0.28796547440808945
5204.204204204204 0.286734332939887
5214.214214214214 0.2855085082553018
5224.224224224225 0.28428798688101675
5234.2342342342345 0.28307275516385677
5244.244244244244 0.28186279927596825
5254.254254254254 0.28065810521990336
5264.264264264264 0.27945865883361015
5274.274274274274 0.2782644457953313
5284.284284284285 0.2770754516284107
5294.294294294295 0.27589166170601204
5304.304304304304 0.2747130612557472
5314.314314314314 0.2735396353642216
5324.324324324324 0.2723713689814911
5334.334334334334 0.2712082469254374
5344.344344344345 0.27005025388605974
5354.354354354355 0.26889737442968764
5364.3643643643645 0.2677495930031107
5374.374374374374 0.2666068939376337
5384.384384384384 0.265469261453052
5394.394394394394 0.26433667966155294
5404.404404404404 0.263209132571541
5414.414414414415 0.2620866040913913
5424.424424424425 0.2609690780331307
5434.4344344344345 0.2598565381160464
5444.444444444444 0.25874896797022756
5454.454454454454 0.2576463511400357
5464.464464464464 0.2565486710875101
5474.474474474475 0.25545591119570515
5484.484484484485 0.2543680547719631
5494.494494494495 0.2532850850511231
5504.504504504504 0.2522069851986674
5514.514514514514 0.25113373831380353
5524.524524524524 0.2500653274324893
5534.534534534535 0.24900173553039448
5544.544544544545 0.24794294552580592
5554.554554554555 0.2468889402824726
5564.5645645645645 0.2458397026123961
5574.574574574574 0.244795215278564
5584.584584584584 0.2437554609976278
5594.594594594595 0.24272042244252773
5604.604604604605 0.24169008224506425
5614.614614614615 0.24066442299841687
5624.624624624625 0.23964342725961138
5634.6346346346345 0.23862707755193832
5644.644644644644 0.23761535636731967
5654.654654654654 0.2366082461686282
5664.664664664665 0.23560572939195787
5674.674674674675 0.23460778844884891
5684.684684684685 0.233614405728464
5694.694694694695 0.23262556359972159
5704.704704704704 0.23164124441338227
5714.714714714714 0.23066143050409288
5724.724724724725 0.2296861041923868
5734.734734734735 0.22871524778664137
5744.744744744745 0.2277488435849944
5754.754754754755 0.22678687387721896
5764.764764764765 0.22582932094655853
5774.774774774774 0.22487616707152253
5784.784784784785 0.2239273945276422
5794.794794794795 0.22298298558918916
5804.804804804805 0.22204292253085642
5814.814814814815 0.2211071876294015
5824.824824824825 0.2201757631652549
5834.8348348348345 0.21924863142409068
5844.844844844845 0.2183257746983657
5854.854854854855 0.2174071752888202
5864.864864864865 0.2164928155059478
5874.874874874875 0.215582677671431
5884.884884884885 0.21467674411954443
5894.894894894895 0.21377499719852583
5904.9049049049045 0.212877419271916
5914.914914914915 0.21198399271986765
5924.924924924925 0.2110946999404244
5934.934934934935 0.21020952335076842
5944.944944944945 0.20932844538844125
5954.954954954955 0.20845144851253355
5964.964964964965 0.20757851520484852
5974.974974974975 0.2067096279710362
5984.984984984985 0.2058447693417011
5994.994994994995 0.20498392187348366
6005.005005005005 0.20412706815011408
6015.015015015015 0.20327419078344203
6025.025025025025 0.20242527241443983
6035.035035035035 0.20158029571418062
6045.045045045045 0.2007392433847939
6055.055055055055 0.1999020981603951
6065.065065065065 0.19906884280799225
6075.075075075075 0.1982394601283702
6085.085085085085 0.1974139329569513
6095.0950950950955 0.19659224416463433
6105.105105105105 0.19577437665861155
6115.115115115115 0.19496031338316414
6125.125125125125 0.19415003732043595
6135.135135135135 0.19334353149118855
6145.145145145145 0.1925407789555332
6155.155155155155 0.19174176281364547
6165.1651651651655 0.19094646620645855
6175.175175175175 0.1901548723163384
6185.185185185185 0.18936696436773925
6195.195195195195 0.18858272562784156
6205.205205205205 0.1878021394071712
6215.215215215215 0.18702518906020024
6225.225225225226 0.18625185798593208
6235.235235235235 0.18548212962846752
6245.245245245245 0.18471598747755508
6255.255255255255 0.18395341506912496
6265.265265265265 0.18319439598580547
6275.275275275275 0.1824389138574254
6285.285285285286 0.18168695236149943
6295.295295295296 0.18093849522369906
6305.305305305305 0.18019352621830742
