#lamb flux
1000.0 0.9080567746512327
1010.01001001001 0.9204655779144052
1020.0200200200201 0.932347931715386
1030.03003003003 0.9437044488665731
1040.0400400400401 0.9545367579291563
1050.05005005005 0.9648474326551418
1060.06006006006 0.9746399233652244
1070.07007007007 0.9839184904381567
1080.08008008008 0.9926881400526087
1090.0900900900901 1.000954562291127
1100.1001001001 1.0087240716877786
1110.11011011011 1.0160035502760663
1120.1201201201202 1.0228003931714915
1130.13013013013 1.0291224567036137
1140.1401401401401 1.0349780090953125
1150.1501501501502 1.0403756836720424
1160.16016016016 1.0453244345710084
1170.1701701701702 1.0498334949091652
1180.1801801801803 1.0539123373596506
1190.1901901901902 1.0575706370783924
1200.2002002002002 1.0608182369162855
1210.2102102102103 1.0636651148470806
1220.2202202202202 1.0661213535370804
1230.2302302302303 1.0681971119796212
1240.2402402402402 1.0699025991150863
1250.2502502502502 1.0712480293384625
1260.2602602602603 1.0722435803339123
1270.2702702702702 1.0728993645191476
1280.2802802802803 1.0732255685617784
1290.2902902902902 1.073232324355626
1300.3003003003003 1.0729296928148035
1310.3103103103103 1.0723276490921463
1320.3203203203202 1.0714360691455893
1330.3303303303303 1.0702647175781153
1340.3403403403404 1.0688232366789145
1350.3503503503503 1.0671211365957265
1360.3603603603603 1.0651677865706375
1370.3703703703704 1.0629724071740922
1380.3803803803803 1.0605440634743546
1390.3903903903904 1.0578916590821856
1400.4004004004005 1.0550239310130523
1410.4104104104103 1.0519494453117206
1420.4204204204204 1.0486765933866047
1430.4304304304305 1.0452135890037355
1440.4404404404404 1.0415684658926538
1450.4504504504505 1.0377490759189514
1460.4604604604606 1.0337630877804938
1470.4704704704704 1.0296179861866697
1480.4804804804805 1.0253210714821892
1490.4904904904906 1.0208794596791333
1500.5005005005005 1.016300082862962
1510.5105105105106 1.0115896899402543
1520.5205205205207 1.0067548476977795
1530.5305305305305 1.001801942144413
1540.5405405405404 0.9967371801091055
1550.5505505505505 0.9915665910698234
1560.5605605605606 0.9862960291899754
1570.5705705705705 0.9809311755403659
1580.5805805805805 0.9754775404861685
1590.5905905905906 0.969940466219798
1600.6006006006005 0.964325129421864
1610.6106106106106 0.9586365440336564
1620.6206206206207 0.9528795641257485
1630.6306306306305 0.9470588868484767
1640.6406406406406 0.9411790554510459
1650.6506506506507 0.9352444623570793
1660.6606606606606 0.9292593522852969
1670.6706706706707 0.9232278254049627
1680.6806806806808 0.9171538405165286
1690.6906906906906 0.9110412182487273
1700.7007007007007 0.9048936451373838
1710.7107107107108 0.8987146785812556
1720.7207207207207 0.8925077435106504
1730.7307307307308 0.8862761390635185
1740.7407407407409 0.880023042248963
1750.7507507507507 0.8737515110942087
1760.7607607607606 0.8674644877656681
1770.770770770771 0.8611648016603292
1780.7807807807808 0.8548551724641883
1790.7907907907907 0.8485382131749462
1800.8008008008007 0.8422164330866649
1810.8108108108108 0.8358922407345564
1820.8208208208207 0.8295679467985382
1830.8308308308308 0.8232457669646771
1840.8408408408409 0.8169278247440878
1850.8508508508507 0.810616154249339
1860.8608608608608 0.8043127029288657
1870.870870870871 0.7980193342603495
1880.8808808808808 0.7917378304044226
1890.890890890891 0.7854698948204211
1900.900900900901 0.779217154846202
1910.9109109109108 0.7729811642441277
1920.920920920921 0.7667634057152967
1930.930930930931 0.7605652933837087
1940.940940940941 0.7543881752513367
1950.950950950951 0.7482333356238268
1960.960960960961 0.7421019975047186
1970.970970970971 0.7359953249535242
1980.980980980981 0.7299144253997024
1990.9909909909911 0.7238603519005095
2001.001001001001 0.7178341053260814
2011.0110110110109 0.7118366364501914
2021.0210210210212 0.7058688479205254
2031.031031031031 0.6999315960787935
2041.0410410410411 0.6940256925995407
2051.051051051051 0.6881519059183526
2061.061061061061 0.682310962426215
2071.071071071071 0.6765035474179353
2081.081081081081 0.6707303057987776
2091.091091091091 0.6649918425739134
2101.101101101101 0.6592887231679413
2111.1111111111113 0.6536214736434419
2121.121121121121 0.647990580904556
2131.131131131131 0.6423964929801254
2141.141141141141 0.6368396194783003
2151.151151151151 0.6313203322895924
2161.161161161161 0.6258389665895424
2171.1711711711714 0.6203958221589465
2181.1811811811813 0.614991165004102
2191.191191191191 0.6096252292273007
2201.201201201201 0.604298219073646
2211.2112112112113 0.5990103110670912
2221.221221221221 0.5937616561471526
2231.2312312312315 0.5885523817266773
2241.2412412412414 0.5833825936073715
2251.2512512512512 0.5782523777100275
2261.261261261261 0.5731618015971036
2271.271271271271 0.5681109157838281
2281.2812812812813 0.5630997548486336
2291.2912912912916 0.5581283383638462
2301.3013013013015 0.5531966716732453
2311.3113113113113 0.5483047465450548
2321.321321321321 0.5434525417280736
2331.331331331331 0.5386400234358791
2341.3413413413414 0.533867145780305
2351.3513513513512 0.529133851171257
2361.3613613613616 0.5244400706959345
2371.3713713713714 0.519785724486939
2381.3813813813813 0.5151707220857001
2391.391391391391 0.5105949628052253
2401.4014014014015 0.5060583360942824
2411.4114114114113 0.5015607219037794
2421.4214214214217 0.49710199105513775
2431.4314314314315 0.4926820056098568
2441.4414414414414 0.48830061923910445
2451.4514514514512 0.48395767759200875
2461.4614614614616 0.4796530186612903
2471.4714714714714 0.4753864731449344
2481.4814814814818 0.4711578648027115
2491.4914914914916 0.4669670108064978
2501.5015015015015 0.4628137220835002
2511.5115115115113 0.45869780365164925
2521.521521521521 0.4546190549465646
2531.5315315315315 0.4505772701396402
2541.541541541542 0.4465722384469132
2551.5515515515517 0.44260374442849515
2561.5615615615616 0.43867156827842163
2571.5715715715714 0.43477548610487726
2581.5815815815813 0.43091527020079834
2591.5915915915916 0.42709068930491945
2601.6016016016015 0.4233015088533771
2611.611611611612 0.4195474912220114
2621.6216216216217 0.415828395959543
2631.6316316316315 0.4121439800118174
2641.6416416416414 0.40849399793733177
2651.6516516516517 0.40487820211426795
2661.6616616616616 0.40129634293926286
2671.671671671672 0.3977481690181519
2681.6816816816818 0.3942334273489359
2691.6916916916916 0.39075186349720015
2701.7017017017015 0.3873032217642341
2711.711711711712 0.3838872453480897
2721.7217217217217 0.38050367649781186
2731.731731731732 0.37715225666107044
2741.741741741742 0.3738327266254263
2751.7517517517517 0.37054482665344474
2761.7617617617616 0.367288296611881
2771.7717717717715 0.3640628760951418
2781.781781781782 0.36086830454322805
2791.791791791792 0.35770432135436303
2801.801801801802 0.35457066599249043
2811.811811811812 0.35146707808983557
2821.8218218218217 0.3483932975447063
2831.8318318318316 0.3453490646147133
2841.841841841842 0.3423341200055728
2851.851851851852 0.3393482049556624
2861.861861861862 0.3363910613164839
2871.871871871872 0.3334624316291847
2881.881881881882 0.3305620591972927
2891.8918918918916 0.3276896881557998
2901.901901901902 0.3248450635367346
2911.911911911912 0.32202793133135976
2921.921921921922 0.3192380385491177
2931.931931931932 0.3164751332734543
2941.941941941942 0.31373896471463375
2951.9519519519517 0.3110292832596671
2961.961961961962 0.30834584051945874
2971.971971971972 0.3056883893732851
2981.9819819819822 0.30305668401070385
2991.991991991992 0.3004504799709971
3002.002002002002 0.2978695341802424
3012.012012012012 0.2953136049861083
3022.0220220220217 0.2927824521904604
3032.032032032032 0.29027611583899227
3042.0420420420423 0.287793765167055
3052.052052052052 0.2853354699413333
3062.062062062062 0.2829009988110552
3072.072072072072 0.2804901216108138
3082.0820820820823 0.2781026094267946
3092.092092092092 0.27573823465699043
3102.102102102102 0.2733967710658606
3112.1121121121123 0.2710779938338554
3122.122122122122 0.2687816796021954
3132.132132132132 0.26650760651326116
3142.1421421421423 0.26425555424692854
3152.152152152152 0.26202530405315233
3162.162162162162 0.25981663878108036
3172.1721721721724 0.2576293429049583
3182.1821821821823 0.2554632025470689
3192.192192192192 0.2533180054979212
3202.202202202202 0.25119354123390053
3212.2122122122123 0.24908960093256693
3222.222222222222 0.24700597748577643
3232.232232232232 0.2449424655107875
3242.2422422422424 0.24289886135950287
3252.252252252252 0.24087496312598491
3262.262262262262 0.23887057065237158
3272.2722722722724 0.23688548553331382
3282.2822822822823 0.23491951111904105
3292.292292292292 0.23297245251715873
3302.3023023023025 0.23104411659327026
3312.3123123123123 0.22913431197051226
3322.322322322322 0.2272428490280811
3332.3323323323325 0.22536953989882816
3342.3423423423424 0.22351419846599285
3352.352352352352 0.22167664035913393
3362.3623623623625 0.21985668294932575
3372.3723723723724 0.21805414534366893
3382.3823823823823 0.21626884837916724
3392.3923923923926 0.21450061461602382
3402.4024024024025 0.21274926833039537
3412.4124124124123 0.21101463550664645
3422.4224224224226 0.20929654382914625
3432.4324324324325 0.20759482267363966
3442.4424424424424 0.2059093030982262
3452.4524524524522 0.20423981783398018
3462.4624624624626 0.2025862012752383
3472.4724724724724 0.20094828946958435
3482.4824824824823 0.19932592010755212
3492.4924924924926 0.19771893251207487
3502.5025025025025 0.196127167627699
3512.5125125125123 0.19455046800958495
3522.5225225225226 0.19298867781231285
3532.5325325325325 0.19144164277851228
3542.5425425425424 0.18990921022733076
3552.5525525525527 0.1883912290427586
3562.5625625625626 0.18688754966182428
3572.5725725725724 0.18539802406267225
3582.5825825825827 0.1839225057525386
3592.5925925925926 0.18246084975563495
3602.6026026026025 0.18101291260095198
3612.612612612613 0.1795785523099943
3622.6226226226227 0.17815762838445498
3632.6326326326325 0.1767500017938396
3642.642642642643 0.17535553496304995
3652.6526526526527 0.17397409175993409
3662.6626626626626 0.17260553748280913
3672.672672672673 0.17124973884796876
3682.6826826826828 0.169906563977177
3692.6926926926926 0.1685758823851582
3702.7027027027025 0.16725756496708732
3712.712712712713 0.16595148398608703
3722.7227227227227 0.1646575130607385
3732.7327327327325 0.16337552715260653
3742.742742742743 0.16210540255378922
3752.7527527527527 0.16084701687449265
3762.7627627627626 0.15960024903063655
3772.772772772773 0.15836497923149445
3782.7827827827828 0.15714108896737256
3792.7927927927926 0.15592846099732965
3802.802802802803 0.15472697933694318
3812.812812812813 0.1535365292461229
3822.8228228228227 0.1523569972169757
3832.832832832833 0.15118827096172477
3842.842842842843 0.150030239400685
3852.8528528528527 0.14888279265029783
3862.862862862863 0.14774582201122646
3872.872872872873 0.1466192199565159
3882.8828828828828 0.1455028801198159
3892.892892892893 0.14439669728367485
3902.902902902903 0.14330056736789942
3912.912912912913 0.14221438741798648
3922.922922922923 0.141138055593627
3932.932932932933 0.14007147115728394
3942.942942942943 0.13901453446284437
3952.9529529529527 0.13796714694434833
3962.962962962963 0.13692921110479545
3972.972972972973 0.13590063050502932
3982.982982982983 0.13488130975270204
3992.992992992993 0.1338711544913178
4003.003003003003 0.1328700713893598
4013.013013013013 0.13187796812949704
4023.023023023023 0.13089475339787482
4033.033033033033 0.1299203368734886
4043.043043043043 0.12895462921764086
4053.053053053053 0.12799754206348316
4063.063063063063 0.12704898800564257
4073.073073073073 0.12610888058993328
4083.0830830830832 0.12517713430315375
4093.093093093093 0.12425366456297007
4103.103103103103 0.12333838770788424
4113.113113113113 0.12243122098729081
4123.123123123123 0.12153208255161707
4133.133133133133 0.12064089144255248
4143.143143143143 0.11975756758336319
4153.153153153153 0.11888203176929352
4163.163163163163 0.1180142056580544
4173.173173173173 0.11715401176039791
4183.183183183183 0.11630137343077897
4193.193193193193 0.11545621485810303
4203.203203203203 0.11461846105656005
4213.213213213214 0.11378803785654541
4223.223223223224 0.11296487189566587
4233.2332332332335 0.11214889060983184
4243.243243243243 0.11134002222443523
4253.253253253253 0.11053819574561222
4263.263263263263 0.10974334095159159
4273.273273273273 0.10895538838412737
4283.283283283283 0.10817426934001581
4293.293293293293 0.10739991586269712
4303.303303303303 0.10663226073393989
4313.313313313313 0.10587123746560974
4323.323323323323 0.1051167802915201
4333.333333333334 0.10436882415936638
4343.343343343344 0.10362730472274129
4353.353353353354 0.10289215833323266
4363.3633633633635 0.10216332203260178
4373.373373373373 0.10144073354504313
4383.383383383383 0.10072433126952361
4393.393393393393 0.10001405427220234
4403.403403403403 0.09930984227892921
4413.413413413413 0.09861163566782209
4423.423423423424 0.09791937546192293
4433.4334334334335 0.09723300332193092
4443.443443443443 0.09655246153901323
4453.453453453454 0.09587769302769156
4463.463463463464 0.09520864131880696
4473.473473473474 0.09454525055255696
4483.483483483484 0.09388746547161061
4493.493493493494 0.09323523141429597
4503.503503503503 0.09258849430786252
4513.513513513513 0.09194720066181662
4523.523523523523 0.09131129756132872
4533.533533533533 0.09068073266071433
4543.543543543543 0.09005545417698486
4553.553553553554 0.0894354108834704
4563.563563563564 0.0888205521035124
4573.573573573573 0.0882108277042259
4583.583583583584 0.08760618809033129
4593.593593593594 0.08700658419805433
4603.603603603604 0.08641196748909388
4613.613613613614 0.08582228994465754
4623.623623623624 0.08523750405956312
4633.6336336336335 0.08465756283640694
4643.643643643643 0.08408241977979733
4653.653653653653 0.08351202889065279
4663.663663663663 0.08294634466056498
4673.673673673674 0.08238532206622458
4683.683683683684 0.0818289165639111
4693.693693693694 0.08127708408404438
4703.703703703704 0.08072978102579834
4713.713713713714 0.08018696425177615
4723.723723723724 0.07964859108274559
4733.733733733734 0.07911461929243457
4743.743743743744 0.07858500710238664
4753.753753753754 0.07805971317687453
4763.763763763764 0.07753869661787297
4773.773773773773 0.0770219169600878
4783.783783783783 0.07650933416604397
4793.793793793793 0.07600090862122845
4803.803803803804 0.07549660112928985
4813.813813813814 0.07499637290729345
4823.823823823824 0.0745001855810308
4833.833833833834 0.07400800118038327
4843.843843843844 0.07351978213474007
4853.853853853854 0.07303549126846824
4863.863863863864 0.07255509179643613
4873.873873873874 0.07207854731958824
4883.883883883884 0.0716058218205716
4893.893893893894 0.07113687965941319
4903.9039039039035 0.07067168556924737
4913.913913913913 0.0702102046520932
4923.923923923924 0.06975240237468082
4933.933933933934 0.06929824456432704
4943.943943943944 0.06884769740485809
4953.953953953955 0.06840072743258094
4963.9639639639645 0.06795730153230123
4973.973973973974 0.06751738693338771
4983.983983983984 0.06708095120588299
4993.993993993994 0.0666479622566596
5004.004004004004 0.06621838832562113
5014.014014014014 0.06579219798194816
5024.024024024024 0.06536936012038735
5034.0340340340335 0.06494984395758543
5044.044044044043 0.06453361902846488
5054.054054054054 0.06412065518264282
5064.064064064064 0.06371092258089212
5074.074074074074 0.06330439169164344
5084.084084084085 0.06290103328752888
5094.0940940940945 0.0625008184419663
5104.104104104104 0.06210371852578332
5114.114114114114 0.061709705203881526
5124.124124124124 0.06131875043193968
5134.134134134134 0.06093082645315581
5144.144144144144 0.06054590579502741
5154.154154154154 0.06016396126616998
5164.1641641641645 0.05978496595317257
5174.174174174174 0.05940889321749062
5184.184184184184 0.05903571669237542
5194.194194194194 0.05866541027983921
5204.204204204204 0.058297948147656875
5214.214214214214 0.057933304726402415
5224.224224224225 0.0575714547065201
5234.2342342342345 0.057212373035430954
5244.244244244244 0.05685603491467219
5254.254254254254 0.05650241579707156
5264.264264264264 0.056151491383953804
5274.274274274274 0.05580323762238096
5284.284284284285 0.05545763070242463
5294.294294294295 0.05511464705447058
5304.304304304304 0.05477426334655477
5314.314314314314 0.054436456481731364
5324.324324324324 0.054101203595471006
5334.334334334334 0.053768482053090275
5344.344344344345 0.05343826944721091
5354.354354354355 0.053110543595249575
5364.3643643643645 0.052785282536936304
5374.374374374374 0.052462464531862985
5384.384384384384 0.05214206805705998
5394.394394394394 0.051824071804601725
5404.404404404404 0.05150845467924013
5414.414414414415 0.05119519579606598
5424.424424424425 0.05088427447819786
5434.4344344344345 0.05057567025449795
5444.444444444444 0.05026936285731475
5454.454454454454 0.04996533222025266
5464.464464464464 0.04966355847596704
5474.474474474475 0.04936402195398583
5484.484484484485 0.04906670317855616
5494.494494494495 0.04877158286651648
5504.504504504504 0.04847864192519366
5514.514514514514 0.048187861450324505
5524.524524524524 0.047899222724001815
5534.534534534535 0.04761270721264438
5544.544544544545 0.04732829656499069
5554.554554554555 0.047045972610116206
5564.5645645645645 0.046765717355473725
5574.574574574574 0.04648751298495669
5584.584584584584 0.0462113418569851
5594.594594594595 0.04593718650261364
5604.604604604605 0.04566502962366234
5614.614614614615 0.045394854090868256
5624.624624624625 0.04512664294205944
5634.6346346346345 0.044860379380349896
5644.644644644644 0.044596046772355326
5654.654654654654 0.04433362864643015
5664.664664664665 0.04407310869092446
5674.674674674675 0.043814470752461844
5684.684684684685 0.04355769883423665
5694.694694694695 0.04330277709433146
5704.704704704704 0.04304968984405384
5714.714714714714 0.04279842154629254
5724.724724724725 0.04254895681389269
5734.734734734735 0.04230128040804979
5744.744744744745 0.0420553772367224
5754.754754754755 0.04181123235306309
5764.764764764765 0.04156883095386768
5774.774774774774 0.04132815837804231
5784.784784784785 0.04108920010508819
5794.794794794795 0.040851941753604036
5804.804804804805 0.040616369079805564
5814.814814814815 0.040382467976062236
5824.824824824825 0.04015022446945076
5834.8348348348345 0.039919624720325265
5844.844844844845 0.039690655020904096
5854.854854854855 0.0394633017938727
5864.864864864865 0.0392375515910025
5874.874874874875 0.03901339109178591
5884.884884884885 0.03879080710208688
5894.894894894895 0.0385697865528068
5904.9049049049045 0.03835031649856597
5914.914914914915 0.03813238411639991
5924.924924924925 0.03791597670447096
5934.934934934935 0.037701081680794064
5944.944944944945 0.03748768658197777
5954.954954954955 0.03727577906197917
5964.964964964965 0.037065346890873166
5974.974974974975 0.036856377953635965
5984.984984984985 0.03664886024894217
5994.994994994995 0.03644278188797581
6005.005005005005 0.03623813109325475
6015.015015015015 0.03603489619746856
6025.025025025025 0.03583306564232964
6035.035035035035 0.03563262797743729
6045.045045045045 0.03543357185915483
6055.055055055055 0.03523588604949924
6065.065065065065 0.03503955941504366
6075.075075075075 0.03484458092583207
6085.085085085085 0.03465093965430649
6095.0950950950955 0.034458624774246126
6105.105105105105 0.03426762555971866
6115.115115115115 0.034077931384043296
6125.125125125125 0.03388953171876543
6135.135135135135 0.033702416132643215
6145.145145145145 0.0335165742906451
6155.155155155155 0.03333199595295902
6165.1651651651655 0.03314867097401254
6175.175175175175 0.03296658930150414
6185.185185185185 0.0327857409754452
6195.195195195195 0.03260611612721303
6205.205205205205 0.03242770497861426
6215.215215215215 0.032250497840958764
6225.225225225226 0.03207448511414425
6235.235235235235 0.03189965728575051
6245.245245245245 0.031726004930144526
6255.255255255255 0.03155351870759499
