#lamb flux
1000.0 0.127414851761348
1010.01001001001 0.12820616430066456
1020.0200200200201 0.12872923032631062
1030.03003003003 0.12900524863361085
1040.0400400400401 0.12905520087120073
1050.05005005005 0.12889958793527898
1060.06006006006 0.12855822393514
1070.07007007007 0.12805008060244136
1080.08008008008 0.12739317519519622
1090.0900900900901 0.126604495327869
1100.1001001001 0.12569995466768863
1110.11011011011 0.12469437401737167
1120.1201201201202 0.12360148291296301
1130.13013013013 0.12243393747136999
1140.1401401401401 0.12120335080376542
1150.1501501501502 0.11992033285431007
1160.16016016016 0.11859453702028341
1170.1701701701702 0.11723471135574172
1180.1801801801803 0.11584875255541009
1190.1901901901902 0.11444376125999606
1200.2002002002002 0.11302609752129303
1210.2102102102103 0.1116014355189878
1220.2202202202202 0.11017481683513422
1230.2302302302303 0.10875070177110324
1240.2402402402402 0.10733301833970015
1250.2502502502502 0.1059196388438132
1260.2602602602603 0.10449746691544835
1270.2702702702702 0.10304116553859122
1280.2802802802803 0.10155637736496972
1290.2902902902902 0.10004832088099153
1300.3003003003003 0.09852180878753074
1310.3103103103103 0.0969812671598308
1320.3203203203202 0.09543075505506159
1330.3303303303303 0.09387398428906393
1340.3403403403404 0.092314339151525
1350.3503503503503 0.09075489587072905
1360.3603603603603 0.08919844167558337
1370.3703703703704 0.08764749333431142
1380.3803803803803 0.0861043150765056
1390.3903903903904 0.08457093582859887
1400.4004004004005 0.0830491657126684
1410.4104104104103 0.08154061177523997
1420.4204204204204 0.08004669292678039
1430.4304304304305 0.07856865408419185
1440.4404404404404 0.0771075795181684
1450.4504504504505 0.07566440541501059
1460.4604604604606 0.0742399316686849
1470.4704704704704 0.07283483292376257
1480.4804804804805 0.07144966889359876
1490.4904904904906 0.07008489398086973
1500.5005005005005 0.0687408662295436
1510.5105105105106 0.06741785563864325
1520.5205205205207 0.06611605186889213
1530.5305305305305 0.06483557137360943
1540.5405405405404 0.0635764639851397
1550.5505505505505 0.06233871898773188
1560.5605605605606 0.0611222707071936
1570.5705705705705 0.05992700364690157
1580.5805805805805 0.05875275719889093
1590.5905905905906 0.05759932995782819
1600.6006006006005 0.056466483664730574
1610.6106106106106 0.055353946806365774
1620.6206206206207 0.05426141789538637
1630.6306306306305 0.053188568455452674
1640.6406406406406 0.052135045734907993
1650.6506506506507 0.05110047517202869
1660.6606606606606 0.050084462634498006
1670.6706706706707 0.0490865964556009
1680.6806806806808 0.04810644928972699
1690.6906906906906 0.04714357981015553
1700.7007007007007 0.046197659736721325
1710.7107107107108 0.04526871483926954
1720.7207207207207 0.04435618814164261
1730.7307307307308 0.04345945974210487
1740.7407407407409 0.04257791865067795
1750.7507507507507 0.041710962690188196
1760.7607607607606 0.04085799856487324
1770.770770770771 0.040018442130703345
1780.7807807807808 0.03919171890774254
1790.7907907907907 0.03837726488181357
1800.8008008008007 0.03757452765040633
1810.8108108108108 0.03678296797608934
1820.8208208208207 0.03600206181944708
1830.8308308308308 0.035231302932445974
1840.8408408408409 0.03447020610159156
1850.8508508508507 0.03371831113751077
1860.8608608608608 0.032975187712561776
1870.870870870871 0.03224044114922885
1880.8808808808808 0.03151371925739721
1890.890890890891 0.030794720305560096
1900.900900900901 0.030083202186441515
1910.9109109109108 0.029378992797710578
1920.920920920921 0.028682001599313944
1930.930930930931 0.027992232226251287
1940.940940940941 0.027309795925638005
1950.950950950951 0.026634925447222284
1960.960960960961 0.02596798884725519
1970.970970970971 0.02530950247089157
1980.980980980981 0.02466014216802433
1990.9909909909911 0.02402075158896039
2001.001001001001 0.023392346225559274
2011.0110110110109 0.022776111744916307
2021.0210210210212 0.02217339514763978
2031.031031031031 0.02158568741472147
2041.0410410410411 0.02101459662418568
2051.051051051051 0.020461811044134415
2061.061061061061 0.019929052439128802
2071.071071071071 0.0194180207227167
2081.081081081081 0.01893033207029732
2091.091091091091 0.01846745355630385
2101.101101101101 0.018030638157599303
2111.1111111111113 0.017620864430962176
2121.121121121121 0.01723878521555118
2131.131131131131 0.01688468927645943
2141.141141141141 0.01655847891205948
2151.151151151151 0.016259665291254874
2161.161161161161 0.01598738182384661
2171.1711711711714 0.015740414387464402
2181.1811811811813 0.015517245924750287
2191.191191191191 0.015316111936099278
2201.201201201201 0.015135062819222524
2211.2112112112113 0.01497202887250122
2221.221221221221 0.014824884047052437
2231.2312312312315 0.01469150511742707
2241.2412412412414 0.014569823730761945
2251.2512512512512 0.014457869671248118
2261.261261261261 0.014353804535399141
2271.271271271271 0.014255945772443927
2281.2812812812813 0.014162781651500008
2291.2912912912916 0.01407297815051811
2301.3013013013015 0.013985379023473339
2311.3113113113113 0.01389900041177509
2321.321321321321 0.013813021353537975
2331.331331331331 0.01372677144404867
2341.3413413413414 0.013639716744992357
2351.3513513513512 0.013551444856715304
2361.3613613613616 0.013461649878832969
2371.3713713713714 0.013370117805287608
2381.3813813813813 0.013276712740165937
2391.391391391391 0.013181364185101671
2401.4014014014015 0.013084055539254761
2411.4114114114113 0.01298481386760055
2421.4214214214217 0.012883700930043075
2431.4314314314315 0.012780805419433211
2441.4414414414414 0.01267623632748346
2451.4514514514512 0.01257011734054064
2461.4614614614616 0.012462582159267044
2471.4714714714714 0.012353770634996352
2481.4814814814818 0.012243825618831307
2491.4914914914916 0.012132890425831636
2501.5015015015015 0.012021106824675287
2511.5115115115113 0.011908613472060734
2521.521521521521 0.011795544720209689
2531.5315315315315 0.011682029734691103
2541.541541541542 0.011568191868138813
2551.5515515515517 0.01145414824311313
2561.5615615615616 0.011340009504283191
2571.5715715715714 0.011225879706260608
2581.5815815815813 0.011111856308815395
2591.5915915915916 0.010998030255896074
2601.6016016016015 0.0108844861189145
2611.611611611612 0.010771302288206839
2621.6216216216217 0.010658551199511226
2631.6316316316315 0.010546299584773414
2641.6416416416414 0.010434608738665158
2651.6516516516517 0.010323534793930014
2661.6616616616616 0.010213129000108729
2671.671671671672 0.010103438001383802
2681.6816816816818 0.009994504110260033
2691.6916916916916 0.009886365574596967
2701.7017017017015 0.00977905683616021
2711.711711711712 0.009672608779385168
2721.7217217217217 0.00956704896947039
2731.731731731732 0.009462401879255677
2741.741741741742 0.009358689104608235
2751.7517517517517 0.009255929568249372
2761.7617617617616 0.00915413971211723
2771.7717717717715 0.009053333678484059
2781.781781781782 0.008953523480139329
2791.791791791792 0.008854719160016684
2801.801801801802 0.008756928940689112
2811.811811811812 0.008660159364187259
2821.8218218218217 0.008564415422612917
2831.8318318318316 0.00846970068002698
2841.841841841842 0.008376017386090671
2851.851851851852 0.008283366581931932
2861.861861861862 0.008191748198697807
2871.871871871872 0.008101161149239113
2881.881881881882 0.008011603413356681
2891.8918918918916 0.007923072117020194
2901.901901901902 0.007835563605950809
2911.911911911912 0.007749073513939214
2921.921921921922 0.007663596826250408
2931.931931931932 0.007579127938446741
2941.941941941942 0.007495660710941185
2951.9519519519517 0.007413188519573885
2961.961961961962 0.007331704302486862
2971.971971971972 0.0072512006035540255
2981.9819819819822 0.0071716696126071485
2991.991991991992 0.007093103202682503
3002.002002002002 0.00701549296449779
3012.012012012012 0.006938830238354951
3022.0220220220217 0.0068631061436509435
3032.032032032032 0.006806681495656292
3042.0420420420423 0.006730391644238217
3052.052052052052 0.006654409299181892
3062.062062062062 0.006578909659284518
3072.072072072072 0.006504039635436553
3082.0820820820823 0.006429921098242152
3092.092092092092 0.0063566538329937056
3102.102102102102 0.006284318217213551
3112.1121121121123 0.006212977637733022
3122.122122122122 0.006142680665208002
3132.132132132132 0.0060734630042706215
3142.1421421421423 0.006005349237348992
3152.152152152152 0.005938354379679328
3162.162162162162 0.005872485262290981
3172.1721721721724 0.005807741758844051
3182.1821821821823 0.005744117871204153
3192.192192192192 0.005681602687596989
3202.202202202202 0.005620181226132347
3212.2122122122123 0.0055598351754488524
3222.222222222222 0.005500543543226196
3232.232232232232 0.005442283222353381
3242.2422422422424 0.005385029483637839
3252.252252252252 0.00532875640309564
3262.262262262262 0.005273437231079917
3272.2722722722724 0.005219044709782758
3282.2822822822823 0.005165551344983971
3292.292292292292 0.005112929637316192
3302.3023023023025 0.005061152277766582
3312.3123123123123 0.005010192311637624
3322.322322322322 0.004960023274739745
3332.3323323323325 0.004910619305182812
3342.3423423423424 0.004861955233768762
3352.352352352352 0.004814006655659586
3362.3623623623625 0.004766749985701188
3372.3723723723724 0.004720162499520059
3382.3823823823823 0.004674222362273972
3392.3923923923926 0.0046289086467275736
3402.4024024024025 0.004584201342134995
3412.4124124124123 0.004540081355243897
3422.4224224224226 0.004496530504585151
3432.4324324324325 0.004453531509078539
3442.4424424424424 0.00441106797186545
3452.4524524524522 0.004369124360173027
3462.4624624624626 0.004327685981919307
3472.4724724724724 0.004286738959684193
3482.4824824824823 0.004246270202595514
3492.4924924924926 0.004206267376612255
3502.5025025025025 0.004166718873626826
3512.5125125125123 0.0041276137797548835
3522.5225225225226 0.004088941843133352
3532.5325325325325 0.004050693441504839
3542.5425425425424 0.00401285954982868
3552.5525525525527 0.00397543170812509
3562.5625625625626 0.003938401989728758
3572.5725725725724 0.003901762970101452
3582.5825825825827 0.003865507696329373
3592.5925925925926 0.0038296296574097765
3602.6026026026025 0.003794122755412556
3612.612612612613 0.003758981277585813
3622.6226226226227 0.003724199869459617
3632.6326326326325 0.003689773508989072
3642.642642642643 0.003655697481766376
3652.6526526526527 0.00362196735732123
3662.6626626626626 0.0035885789665201805
3672.672672672673 0.003555528380067693
3682.6826826826828 0.003522811888104878
3692.6926926926926 0.0034904259808960043
3702.7027027027025 0.0034583673305878314
3712.712712712713 0.003426632774022485
3722.7227227227227 0.003395219296580964
3732.7327327327325 0.003364124017031154
3742.742742742743 0.003333344173351908
3752.7527527527527 0.003302877109502446
3762.7627627627626 0.003272720263104845
3772.772772772773 0.0032428711540060506
3782.7827827827828 0.0032133273736849443
3792.7927927927926 0.00318408657546933
3802.802802802803 0.003155146465527439
3812.812812812813 0.0031265047945982856
3822.8228228228227 0.0030981593504254452
3832.832832832833 0.003070107950858959
3842.842842842843 0.0030423484375905804
3852.8528528528527 0.0030148786704880803
3862.862862862863 0.002987696522495029
3872.872872872873 0.002960799875063269
3882.8828828828828 0.0029341866140860325
3892.892892892893 0.0029078546263008264
3902.902902902903 0.002881801796131869
3912.912912912913 0.0028560260029431633
3922.922922922923 0.0028305251186741855
3932.932932932933 0.002805297005831369
3942.942942942943 0.0027803395158095007
3952.9529529529527 0.0027556504875184402
3962.962962962963 0.0027312277462915625
3972.972972972973 0.0027070691030534316
3982.982982982983 0.002683172353725366
3992.992992992993 0.0026595352788485677
4003.003003003003 0.002636155643405634
4013.013013013013 0.0026130311968221797
4023.023023023023 0.0025901596731314545
4033.033033033033 0.0025675387912857425
4043.043043043043 0.0025451662555992945
4053.053053053053 0.002523039756308521
4063.063063063063 0.002501156970236013
4073.073073073073 0.0024795155615458743
4083.0830830830832 0.002458113182578629
4093.093093093093 0.0024369474747548353
4103.103103103103 0.002416016069537205
4113.113113113113 0.002395316589441891
4123.123123123123 0.0023748466490901296
4133.133133133133 0.002354603856292283
4143.143143143143 0.002334585813156797
4153.153153153153 0.0023147901172172825
4163.163163163163 0.0022952143625714436
4173.173173173173 0.002275856141026164
4183.183183183183 0.002256713043243531
4193.193193193193 0.002237782659883045
4203.203203203203 0.0022190625827357676
4213.213213213214 0.002200550405846532
4223.223223223224 0.00218224372662075
4233.2332332332335 0.002164140146912726
4243.243243243243 0.002146237274092744
4253.253253253253 0.002128532722090495
4263.263263263263 0.002111024112412741
4273.273273273273 0.0020937090751333622
4283.283283283283 0.0020765852498542156
4293.293293293293 0.002059650286635489
4303.303303303303 0.0020429018468944046
4313.313313313313 0.002026337604271402
4323.323323323323 0.0020099552454630513
4333.333333333334 0.001993752471021184
4343.343343343344 0.0019777269961178453
4353.353353353354 0.0019618765512758366
4363.3633633633635 0.001946198883064736
4373.373373373373 0.0019306917547624427
4383.383383383383 0.0019153529469823388
4393.393393393393 0.0019001802582663317
4403.403403403403 0.0018851715056440632
4413.413413413413 0.0018703245251587026
4423.423423423424 0.0018556371723597905
4433.4334334334335 0.0018411073227636537
4443.443443443443 0.0018267328722819912
4453.453453453454 0.0018125117376192495
4463.463463463464 0.001798441856639502
4473.473473473474 0.001784521188703481
4483.483483483484 0.001770747714976588
4493.493493493494 0.0017571194387085783
4503.503503503503 0.0017436343854857611
4513.513513513513 0.0017302906034565046
4523.523523523523 0.0017170861635308447
4533.533533533533 0.0017040191595550833
4543.543543543543 0.0016910877084621403
4553.553553553554 0.0016782899503985473
4563.563563563564 0.0016656240488289085
4573.573573573573 0.001653088190618642
4583.583583583584 0.001640680586095867
4593.593593593594 0.001628399469093228
4603.603603603604 0.0016162430969704888
4613.613613613614 0.0016042097506187034
4623.623623623624 0.0015922977344467375
4633.6336336336335 0.0015805053763509446
4643.643643643643 0.0015688310276687548
4653.653653653653 0.0015572730631169163
4663.663663663663 0.0015458298807151487
4673.673673673674 0.0015344999016959114
4683.683683683684 0.001523281570401003
4693.693693693694 0.0015121733541656618
4703.703703703704 0.0015011737431908586
4713.713713713714 0.0014902812504044172
4723.723723723724 0.0014794944113116007
4733.733733733734 0.0014688117838357725
4743.743743743744 0.0014582319481497485
4753.753753753754 0.0014477535064983894
4763.763763763764 0.001437375083013022
4773.773773773773 0.0014270953235182044
4783.783783783783 0.001416912895331389
4793.793793793793 0.0014068264870559601
4803.803803803804 0.0013968348083681556
4813.813813813814 0.001386936589798334
4823.823823823824 0.00137713058250704
4833.833833833834 0.0013674155580563122
4843.843843843844 0.0013577903081766502
4853.853853853854 0.0013482536445300378
4863.863863863864 0.0013388043984694233
4873.873873873874 0.001329441420795017
4883.883883883884 0.0013201635815077788
4893.893893893894 0.0013109697695604155
4903.9039039039035 0.0013018588926062382
4913.913913913913 0.0012928298767461777
4923.923923923924 0.0012838816662742657
4933.933933933934 0.0012750132234218697
4943.943943943944 0.0012662235281009416
4953.953953953955 0.0012575115776465567
4963.9639639639645 0.0012488763865589898
4973.973973973974 0.0012403169862455449
4983.983983983984 0.0012318324247623921
4993.993993993994 0.0012234217665566065
5004.004004004004 0.0012150840922086144
5014.014014014014 0.0012068184981752473
5024.024024024024 0.0011986240965335695
5034.0340340340335 0.001190500014725678
5044.044044044043 0.0011824453953046066
5054.054054054054 0.0011744593956815109
5064.064064064064 0.0011665411878742735
5074.074074074074 0.0011586899582576536
5084.084084084085 0.00115090490731513
5094.0940940940945 0.0011431852493925438
5104.104104104104 0.0011355302124536537
5114.114114114114 0.001127939037837714
5124.124124124124 0.0011204109800191779
5134.134134134134 0.0011129453063696032
5144.144144144144 0.0011055412969218626
5154.154154154154 0.0010981982441367233
5164.1641641641645 0.001090915452671878
5174.174174174174 0.0010836922391534952
5184.184184184184 0.0010765279319503384
5194.194194194194 0.0010694218709505225
5204.204204204204 0.0010623734073409636
5214.214214214214 0.0010553819033895463
5224.224224224225 0.001048446732230073
5234.2342342342345 0.001041567277650026
5244.244244244244 0.0010347429338811646
5254.254254254254 0.0010279731053930044
5264.264264264264 0.0010212572066891877
5274.274274274274 0.0010145946621067823
5284.284284284285 0.0010079849056185077
5294.294294294295 0.0010014273806379238
5304.304304304304 0.0009949215398275739
5314.314314314314 0.00098846684491011
5324.324324324324 0.0009820627664823868
5334.334334334334 0.0009757087838325417
5344.344344344345 0.0009694043847600516
5354.354354354355 0.0009631490653987741
5364.3643643643645 0.0009569423300429521
5374.374374374374 0.0009507836909761933
5384.384384384384 0.0009446726683034032
5394.394394394394 0.000938608789785663
5404.404404404404 0.0009325915906780416
5414.414414414415 0.000926620613570327
5424.424424424425 0.0009206954082306575
5434.4344344344345 0.0009148155314520338
5444.444444444444 0.0009089805469016972
5454.454454454454 0.0009031900249733549
5464.464464464464 0.0008974435426422155
5474.474474474475 0.0008917406833228296
5484.484484484485 0.0008860810367296975
5494.494494494495 0.0008804641987406254
5504.504504504504 0.0008748897712628
5514.514514514514 0.0008693573621015522
5524.524524524524 0.000863866584831789
5534.534534534535 0.0008584170586720545
5544.544544544545 0.0008530084083611955
5554.554554554555 0.0008476402640375978
5564.5645645645645 0.0008423122611209659
5574.574574574574 0.0008370240401966135
5584.584584584584 0.0008317752469022246
5594.594594594595 0.0008265655318170617
5604.604604604605 0.0008213945503535894
5614.614614614615 0.0008162619626514631
5624.624624624625 0.0008111674334738706
5634.6346346346345 0.0008061106321061796
5644.644644644644 0.000801091232256854
5654.654654654654 0.0007961089119606186
5664.664664664665 0.0007911633534838167
5674.674674674675 0.0007862542432319529
5684.684684684685 0.0007813812716593525
5694.694694694695 0.000776544133180935
5704.704704704704 0.0007717425260860446
5714.714714714714 0.0007669761524543114
5724.724724724725 0.0007622447180735101
5734.734734734735 0.0007575479323593736
5744.744744744745 0.0007528855082773351
5754.754754754755 0.000748257162266156
5764.764764764765 0.0007436626141634157
5774.774774774774 0.0007391015871328163
5784.784784784785 0.0007345738075932764
5794.794794794795 0.0007300790051497791
5804.804804804805 0.0007256169125259361
5814.814814814815 0.0007211872654982399
5824.824824824825 0.0007167898028319669
5834.8348348348345 0.0007124242662186975
5844.844844844845 0.0007080904002154288
5854.854854854855 0.0007037879521852343
5864.864864864865 0.0006995166722394478
5874.874874874875 0.0006952763131813401
5884.884884884885 0.0006910666304512496
5894.894894894895 0.0006868873820731422
5904.9049049049045 0.0006827383286025692
5914.914914914915 0.0006786192330759872
5924.924924924925 0.0006745298609614213
5934.934934934935 0.0006704699801104227
5944.944944944945 0.0006664393607113167
5954.954954954955 0.0006624377752436886
5964.964964964965 0.0006584649984340934
5974.974974974975 0.000654520807212957
5984.984984984985 0.0006506049806726394
5994.994994994995 0.0006467173000266346
6005.005005005005 0.0006428575485698795
6015.015015015015 0.0006390255116401467
6025.025025025025 0.000635220976580493
6035.035035035035 0.0006314437327027381
6045.045045045045 0.0006276935712519514
6055.055055055055 0.0006239702853719153
