#lamb flux
1000.0 5.561870416304703e+39
1010.01001001001 5.633465184994563e+39
1020.0200200200201 5.695122137562019e+39
1030.03003003003 5.747385098154342e+39
1040.0400400400401 5.790810718919571e+39
1050.05005005005 5.825960028215523e+39
1060.06006006006 5.853391364325784e+39
1070.07007007007 5.873654566360991e+39
1080.08008008008 5.887286290307434e+39
1090.0900900900901 5.894806319507496e+39
1100.1001001001 5.896714743796189e+39
1110.11011011011 5.893489888920252e+39
1120.1201201201202 5.885586886812744e+39
1130.13013013013 5.873436787076009e+39
1140.1401401401401 5.85744612009953e+39
1150.1501501501502 5.837996832213468e+39
1160.16016016016 5.815446522873316e+39
1170.1701701701702 5.790128922900995e+39
1180.1801801801803 5.762354561157788e+39
1190.1901901901902 5.73241157463472e+39
1200.2002002002002 5.700566623798051e+39
1210.2102102102103 5.667065881130393e+39
1220.2202202202202 5.632136066193101e+39
1230.2302302302303 5.595985505246007e+39
1240.2402402402402 5.558805197548402e+39
1250.2502502502502 5.520549649442365e+39
1260.2602602602603 5.480733804274081e+39
1270.2702702702702 5.4383685615015106e+39
1280.2802802802803 5.393686747927557e+39
1290.2902902902902 5.346908728397495e+39
1300.3003003003003 5.2982426236451184e+39
1310.3103103103103 5.247884586351056e+39
1320.3203203203202 5.1960191239910766e+39
1330.3303303303303 5.1428194584479133e+39
1340.3403403403404 5.0884479136338993e+39
1350.3503503503503 5.033056323528086e+39
1360.3603603603603 4.976786454074947e+39
1370.3703703703704 4.919770433328722e+39
1380.3803803803803 4.862131185064309e+39
1390.3903903903904 4.803982861820129e+39
1400.4004004004005 4.74543127399698e+39
1410.4104104104103 4.6865743122176293e+39
1420.4204204204204 4.627502360661178e+39
1430.4304304304305 4.5682986995309205e+39
1440.4404404404404 4.509039895201331e+39
1450.4504504504505 4.4497961769240284e+39
1460.4604604604606 4.3906317992608736e+39
1470.4704704704704 4.331605389658542e+39
1480.4804804804805 4.272770280789183e+39
1490.4904904904906 4.214174827459052e+39
1500.5005005005005 4.155862708036392e+39
1510.5105105105106 4.0978732104742515e+39
1520.5205205205207 4.040241503106914e+39
1530.5305305305305 3.9829988904829806e+39
1540.5405405405404 3.926173054566801e+39
1550.5505505505505 3.869788281695066e+39
1560.5605605605606 3.8138656757192615e+39
1570.5705705705705 3.7584233577996293e+39
1580.5805805805805 3.703476653343679e+39
1590.5905905905906 3.6490382666043626e+39
1600.6006006006005 3.5951184434712706e+39
1610.6106106106106 3.541725123004204e+39
1620.6206206206207 3.488864078273977e+39
1630.6306306306305 3.4365390470918494e+39
1640.6406406406406 3.384751853228311e+39
1650.6506506506507 3.333502518746034e+39
1660.6606606606606 3.2827893681020894e+39
1670.6706706706707 3.232609124714026e+39
1680.6806806806808 3.182957000734638e+39
1690.6906906906906 3.133826780844621e+39
1700.7007007007007 3.08521725725454e+39
1710.7107107107108 3.0371446433837015e+39
1720.7207207207207 2.989595103447453e+39
1730.7307307307308 2.942550784633543e+39
1740.7407407407409 2.895993463440361e+39
1750.7507507507507 2.849904563037748e+39
1760.7607607607606 2.80426517795981e+39
1770.770770770771 2.7590561081658435e+39
1780.7807807807808 2.7142579048922677e+39
1790.7907907907907 2.669850931162396e+39
1800.8008008008007 2.625815440324034e+39
1810.8108108108108 2.5821316765456257e+39
1820.8208208208207 2.538780001813846e+39
1830.8308308308308 2.4957410546253605e+39
1840.8408408408409 2.4529959462284095e+39
1850.8508508508507 2.4105265009073815e+39
1860.8608608608608 2.3683155473569737e+39
1870.870870870871 2.3263472685785796e+39
1880.8808808808808 2.2846076178349956e+39
1890.890890890891 2.2430848078676384e+39
1900.900900900901 2.201769879617818e+39
1910.9109109109108 2.1606573548593112e+39
1920.920920920921 2.1197459741626458e+39
1930.930930930931 2.079039517161816e+39
1940.940940940941 2.0385476958715003e+39
1950.950950950951 1.9982871035418555e+39
1960.960960960961 1.9582821910890233e+39
1970.970970970971 1.918566230564535e+39
1980.980980980981 1.8791822108187283e+39
1990.9909909909911 1.8401835953265096e+39
2001.001001001001 1.801634857512892e+39
2011.0110110110109 1.763611696922158e+39
2021.0210210210212 1.7262008329112798e+39
2031.031031031031 1.689499274322186e+39
2041.0410410410411 1.653612976916098e+39
2051.051051051051 1.6186548277415282e+39
2061.061061061061 1.5847419381612656e+39
2071.071071071071 1.5519922838773113e+39
2081.081081081081 1.5205207970314827e+39
2091.091091091091 1.4904350854057383e+39
2101.101101101101 1.461831017533623e+39
2111.1111111111113 1.434788459660413e+39
2121.121121121121 1.4093674712647258e+39
2131.131131131131 1.385605253588794e+39
2141.141141141141 1.3635140984854176e+39
2151.151151151151 1.3430805068464878e+39
2161.161161161161 1.324265546368853e+39
2171.1711711711714 1.3070064107150429e+39
2181.1811811811813 1.2912190408152813e+39
2191.191191191191 1.2768015872140201e+39
2201.201201201201 1.263638439235758e+39
2211.2112112112113 1.2516045263982634e+39
2221.221221221221 1.2405696086876635e+39
2231.2312312312315 1.2304023094053713e+39
2241.2412412412414 1.2209736989405148e+39
2251.2512512512512 1.2121603007655678e+39
2261.261261261261 1.2038464536929915e+39
2271.271271271271 1.1959260203353244e+39
2281.2812812812813 1.1883034765496058e+39
2291.2912912912916 1.1808944485779838e+39
2301.3013013013015 1.173625783771547e+39
2311.3113113113113 1.1664352487567602e+39
2321.321321321321 1.1592709480057888e+39
2331.331331331331 1.1520905485790847e+39
2341.3413413413414 1.1448603857490218e+39
2351.3513513513512 1.1375545113310107e+39
2361.3613613613616 1.1301537334024804e+39
2371.3713713713714 1.1226446837518693e+39
2381.3813813813813 1.1150189385123722e+39
2391.391391391391 1.1072722083011849e+39
2401.4014014014015 1.0994036068599925e+39
2411.4114114114113 1.091415001570326e+39
2421.4214214214217 1.0833104450993444e+39
2431.4314314314315 1.0750956845779167e+39
2441.4414414414414 1.06677774287837e+39
2451.4514514514512 1.0583645655153738e+39
2461.4614614614616 1.0498647262394909e+39
2471.4714714714714 1.041287184361535e+39
2481.4814814814818 1.0326410871019244e+39
2491.4914914914916 1.0239356106980535e+39
2501.5015015015015 1.0151798345453551e+39
2511.5115115115113 1.00638264323687e+39
2521.521521521521 9.975526519617343e+38
2531.5315315315315 9.886981512981503e+38
2541.541541541542 9.798270679745632e+38
2551.5515515515517 9.709469386644618e+38
2561.5615615615616 9.62064894321474e+38
2571.5715715715714 9.531876529516881e+38
2581.5815815815813 9.443215190611624e+38
2591.5915915915916 9.354723883118132e+38
2601.6016016016015 9.266457561721604e+38
2611.611611611612 9.178467295652155e+38
2621.6216216216217 9.090800406985196e+38
2631.6316316316315 9.003500624150257e+38
2641.6416416416414 8.916608245322915e+38
2651.6516516516517 8.8301603074462e+38
2661.6616616616616 8.744190757517007e+38
2671.671671671672 8.658730623506497e+38
2681.6816816816818 8.573808182885918e+38
2691.6916916916916 8.489449127221782e+38
2701.7017017017015 8.405676721704704e+38
2711.711711711712 8.322511958800138e+38
2721.7217217217217 8.239973705469514e+38
2731.731731731732 8.158078843617802e+38
2741.741741741742 8.076842403588313e+38
2751.7517517517517 7.996277690653914e+38
2761.7617617617616 7.916396404554082e+38
2771.7717717717715 7.837208752202885e+38
2781.781781781782 7.7587235537501e+38
2791.791791791792 7.680948342218982e+38
2801.801801801802 7.603889456972908e+38
2811.811811811812 7.527552131282239e+38
2821.8218218218217 7.451940574273718e+38
2831.8318318318316 7.377058047549545e+38
2841.841841841842 7.302906936763298e+38
2851.851851851852 7.229488818436381e+38
2861.861861861862 7.156804522291948e+38
2871.871871871872 7.084854189375084e+38
2881.881881881882 7.013637326217889e+38
2891.8918918918916 6.943152855297285e+38
2901.901901901902 6.873399162021763e+38
2911.911911911912 6.804374138471463e+38
2921.921921921922 6.7360752241040855e+38
2931.931931931932 6.668499443627167e+38
2941.941941941942 6.6016434422257194e+38
2951.9519519519517 6.535503518322843e+38
2961.961961961962 6.470075654040058e+38
2971.971971971972 6.405355543513583e+38
2981.9819819819822 6.341338619212787e+38
2991.991991991992 6.2780200763975556e+38
3002.002002002002 6.215394895842267e+38
3012.012012012012 6.1534578649456026e+38
3022.0220220220217 6.092203597337363e+38
3032.032032032032 6.044004744293849e+38
3042.0420420420423 5.982482274783774e+38
3052.052052052052 5.921214943192853e+38
3062.062062062062 5.860320373319571e+38
3072.072072072072 5.799897547513039e+38
3082.0820820820823 5.74002891662299e+38
3092.092092092092 5.6807823187067225e+38
3102.102102102102 5.622212717867437e+38
3112.1121121121123 5.564363775171413e+38
3122.122122122122 5.507269263777446e+38
3132.132132132132 5.450954340308101e+38
3142.1421421421423 5.395436684175979e+38
3152.152152152152 5.340727516111126e+38
3162.162162162162 5.2868325065678496e+38
3172.1721721721724 5.233752584057964e+38
3182.1821821821823 5.181484652793171e+38
3192.192192192192 5.130022228343958e+38
3202.202202202202 5.0793559993530885e+38
3212.2122122122123 5.029474322690167e+38
3222.222222222222 4.980363658808892e+38
3232.232232232232 4.932008953475766e+38
3242.2422422422424 4.8843939714819236e+38
3252.252252252252 4.837501587429797e+38
3262.262262262262 4.791314038204632e+38
3272.2722722722724 4.745813141296315e+38
3282.2822822822823 4.7009804827290566e+38
3292.292292292292 4.656797577983155e+38
3302.3023023023025 4.613246008952948e+38
3312.3123123123123 4.570307539675537e+38
3322.322322322322 4.5279642132844636e+38
3332.3323323323325 4.4861984323883216e+38
3342.3423423423424 4.4449930248450174e+38
3352.352352352352 4.404331296695066e+38
3362.3623623623625 4.3641970738310574e+38
3372.3723723723724 4.324574733812204e+38
3382.3823823823823 4.2854492290819695e+38
3392.3923923923926 4.246806102711225e+38
3402.4024024024025 4.208631497667226e+38
3412.4124124124123 4.170912160499592e+38
3422.4224224224226 4.133635440236228e+38
3432.4324324324325 4.096789283194136e+38
3442.4424424424424 4.060362224331187e+38
3452.4524524524522 4.02434337569418e+38
3462.4624624624626 3.988722412455155e+38
3472.4724724724724 3.9534895569711204e+38
3482.4824824824823 3.918635561251403e+38
3492.4924924924926 3.8841516881713884e+38
3502.5025025025025 3.8500296917304064e+38
3512.5125125125123 3.8162617966150795e+38
3522.5225225225226 3.782840677296688e+38
3532.5325325325325 3.7497594368617e+38
3542.5425425425424 3.717011585748558e+38
3552.5525525525527 3.68459102054022e+38
3562.5625625625626 3.652492002941029e+38
3572.5725725725724 3.620709139047778e+38
3582.5825825825827 3.5892373590080945e+38
3592.5925925925926 3.558071897144329e+38
3602.6026026026025 3.527208272607893e+38
3612.612612612613 3.4966422706171425e+38
3622.6226226226227 3.466369924321393e+38
3632.6326326326325 3.436387497324346e+38
3642.642642642643 3.406691466892006e+38
3652.6526526526527 3.377278507862815e+38
3662.6626626626626 3.3481454772713548e+38
3672.672672672673 3.319289399691411e+38
3682.6826826826828 3.2907074532991867e+38
3692.6926926926926 3.2623969566532192e+38
3702.7027027027025 3.2343553561838614e+38
3712.712712712713 3.2065802143819913e+38
3722.7227227227227 3.1790691986739305e+38
3732.7327327327325 3.1518200709671535e+38
3742.742742742743 3.1248306778495995e+38
3752.7527527527527 3.098098941423672e+38
3762.7627627627626 3.0716228507547988e+38
3772.772772772773 3.0454004539134098e+38
3782.7827827827828 3.019429850588381e+38
3792.7927927927926 2.9937091852494578e+38
3802.802802802803 2.9682366408358112e+38
3812.812812812813 2.9430104329476456e+38
3822.8228228228227 2.918028804517746e+38
3832.832832832833 2.8932900209399385e+38
3842.842842842843 2.868792365631595e+38
3852.8528528528527 2.844534136007643e+38
3862.862862862863 2.8205136398438694e+38
3872.872872872873 2.7967291920078156e+38
3882.8828828828828 2.773179111535966e+38
3892.892892892893 2.749861719036664e+38
3902.902902902903 2.7267753343985642e+38
3912.912912912913 2.703918274785282e+38
3922.922922922923 2.681288852897409e+38
3932.932932932933 2.658885375483863e+38
3942.942942942943 2.6367061420851053e+38
3952.9529529529527 2.6147494439916156e+38
3962.962962962963 2.5930135634016104e+38
3972.972972972973 2.5714967727627443e+38
3982.982982982983 2.5501973342832423e+38
3992.992992992993 2.529113499598602e+38
4003.003003003003 2.5082435095807208e+38
4013.013013013013 2.4875855942769237e+38
4023.023023023023 2.4671379729671005e+38
4033.033033033033 2.4468988543277792e+38
4043.043043043043 2.4268664366925683e+38
4053.053053053053 2.4070389083990862e+38
4063.063063063063 2.3874144482130127e+38
4073.073073073073 2.367991225820514e+38
4083.0830830830832 2.3487674023808585e+38
4093.093093093093 2.3297411311315386e+38
4103.103103103103 2.3109105580387375e+38
4113.113113113113 2.292273822486516e+38
4123.123123123123 2.2738290579984615e+38
4133.133133133133 2.2555743929861153e+38
4143.143143143143 2.2375079515188326e+38
4153.153153153153 2.219627854110162e+38
4163.163163163163 2.201932218516224e+38
4173.173173173173 2.1844191605419446e+38
4183.183183183183 2.1670867948513206e+38
4193.193193193193 2.1499332357782363e+38
4203.203203203203 2.132956598134673e+38
4213.213213213214 2.1161549980134306e+38
4223.223223223224 2.099526553582753e+38
4233.2332332332335 2.083069385870513e+38
4243.243243243243 2.066781619535875e+38
4253.253253253253 2.0506613836265453e+38
4263.263263263263 2.034706812319959e+38
4273.273273273273 2.018916045646939e+38
4283.283283283283 2.003287230196555e+38
4293.293293293293 1.987818519801093e+38
4303.303303303303 1.9725080762001615e+38
4313.313313313313 1.957354069683181e+38
4323.323323323323 1.942354679709568e+38
4333.333333333334 1.9275080955061103e+38
4343.343343343344 1.9128125166411157e+38
4353.353353353354 1.898266153575017e+38
4363.3633633633635 1.8838672281872563e+38
4373.373373373373 1.8696139742793196e+38
4383.383383383383 1.8555046380538938e+38
4393.393393393393 1.8415374785701922e+38
4403.403403403403 1.8277107681755784e+38
4413.413413413413 1.8140227929136286e+38
4423.423423423424 1.80047185290891e+38
4433.4334334334335 1.7870562627287297e+38
4443.443443443443 1.7737743517221767e+38
4453.453453453454 1.7606244643368474e+38
4463.463463463464 1.7476049604136554e+38
4473.473473473474 1.7347142154601143e+38
4483.483483483484 1.721950620902628e+38
4493.493493493494 1.709312584318202e+38
4503.503503503503 1.6967985296461264e+38
4513.513513513513 1.6844068973801283e+38
4523.523523523523 1.6721361447415163e+38
4533.533533533533 1.6599847458339058e+38
4543.543543543543 1.6479511917800143e+38
4553.553553553554 1.6360339908411352e+38
4563.563563563564 1.6242316685198352e+38
4573.573573573573 1.6125427676464267e+38
4583.583583583584 1.6009658484498063e+38
4593.593593593594 1.5894994886132005e+38
4603.603603603604 1.5781422833153806e+38
4613.613613613614 1.5668928452579298e+38
4623.623623623624 1.55574980467907e+38
4633.6336336336335 1.5447118093546357e+38
4643.643643643643 1.5337775245867089e+38
4653.653653653653 1.522945633180449e+38
4663.663663663663 1.512214835409647e+38
4673.673673673674 1.5015838489715031e+38
4683.683683683684 1.4910514089311541e+38
4693.693693693694 1.4806162676564065e+38
4703.703703703704 1.4702771947431925e+38
4713.713713713714 1.4600329769322009e+38
4723.723723723724 1.4498824180171408e+38
4733.733733733734 1.439824338745091e+38
4743.743743743744 1.4298575767093764e+38
4753.753753753754 1.41998098623538e+38
4763.763763763764 1.4101934382597199e+38
4773.773773773773 1.400493820203168e+38
4783.783783783783 1.390881035837736e+38
4793.793793793793 1.381354005148262e+38
4803.803803803804 1.3719116641888886e+38
4813.813813813814 1.3625529649347818e+38
4823.823823823824 1.3532768751294243e+38
4833.833833833834 1.3440823781278126e+38
4843.843843843844 1.334968472735886e+38
4853.853853853854 1.3259341730464787e+38
4863.863863863864 1.3169785082721022e+38
4873.873873873874 1.3081005225748371e+38
4883.883883883884 1.2992992748936063e+38
4893.893893893894 1.2905738387690951e+38
4903.9039039039035 1.2819233021665748e+38
4913.913913913913 1.273346767296858e+38
4923.923923923924 1.2648433504356355e+38
4933.933933933934 1.2564121817414108e+38
4943.943943943944 1.2480524050722333e+38
4953.953953953955 1.2397631778014608e+38
4963.9639639639645 1.2315436706327219e+38
4973.973973973974 1.223393067414275e+38
4983.983983983984 1.2153105649529463e+38
4993.993993993994 1.207295372827807e+38
5004.004004004004 1.1993467132037583e+38
5014.014014014014 1.1914638206451769e+38
5024.024024024024 1.1836459419297607e+38
5034.0340340340335 1.1758923358627312e+38
5044.044044044043 1.168202273091501e+38
5054.054054054054 1.1605750359209527e+38
5064.064064064064 1.1530099181294343e+38
5074.074074074074 1.1455062247855874e+38
5084.084084084085 1.138063272066117e+38
5094.0940940940945 1.130680387074601e+38
5104.104104104104 1.1233569076614273e+38
5114.114114114114 1.1160921822449575e+38
5124.124124124124 1.108885569633994e+38
5134.134134134134 1.1017364388516297e+38
5144.144144144144 1.09464416896055e+38
5154.154154154154 1.0876081488898638e+38
5164.1641641641645 1.0806277772635167e+38
5174.174174174174 1.0737024622303534e+38
5184.184184184184 1.0668316212958773e+38
5194.194194194194 1.0600146811557615e+38
5204.204204204204 1.0532510775311621e+38
5214.214214214214 1.0465402550058647e+38
5224.224224224225 1.0398816668653144e+38
5234.2342342342345 1.0332747749375615e+38
5244.244244244244 1.0267190494361476e+38
5254.254254254254 1.0202139688049778e+38
5264.264264264264 1.0137590195651826e+38
5274.274274274274 1.0073536961640176e+38
5284.284284284285 1.0009975008257963e+38
5294.294294294295 9.946899434048926e+37
5304.304304304304 9.88430541240815e+37
5314.314314314314 9.822188190153762e+37
5324.324324324324 9.760543086119545e+37
5334.334334334334 9.699365489768668e+37
5344.344344344345 9.63865085982854e+37
5354.354354354355 9.578394722946825e+37
5364.3643643643645 9.518592672368573e+37
5374.374374374374 9.45924036663465e+37
5384.384384384384 9.400333528301186e+37
5394.394394394394 9.341867942680237e+37
5404.404404404404 9.28383945660147e+37
5414.414414414415 9.226243977194852e+37
5424.424424424425 9.16907747069429e+37
5434.4344344344345 9.112335961262033e+37
5444.444444444444 9.056015529833827e+37
5454.454454454454 9.000112312984702e+37
5464.464464464464 8.944622501815153e+37
5474.474474474475 8.889542340857714e+37
5484.484484484485 8.834868127003666e+37
5494.494494494495 8.780596208449786e+37
5504.504504504504 8.726722983664934e+37
5514.514514514514 8.673244900376316e+37
5524.524524524524 8.62015845457524e+37
5534.534534534535 8.56746018954218e+37
5544.544544544545 8.515146694890906e+37
5554.554554554555 8.463214605631553e+37
5564.5645645645645 8.4116606012523315e+37
5574.574574574574 8.360481404819787e+37
5584.584584584584 8.309673782097228e+37
5594.594594594595 8.259234540681231e+37
5604.604604604605 8.209160529155993e+37
5614.614614614615 8.159448636265159e+37
5624.624624624625 8.110095790101076e+37
5634.6346346346345 8.061098957311145e+37
5644.644644644644 8.012455142320988e+37
5654.654654654654 7.964161386574315e+37
5664.664664664665 7.916214767789103e+37
5674.674674674675 7.868612399230001e+37
5684.684684684685 7.821351428996536e+37
5694.694694694695 7.77442903932705e+37
5704.704704704704 7.727842445917993e+37
5714.714714714714 7.681588897258407e+37
5724.724724724725 7.635665673979274e+37
5734.734734734735 7.590070088217577e+37
5744.744744744745 7.544799482994735e+37
5754.754754754755 7.499851231609213e+37
5764.764764764765 7.455222737043069e+37
5774.774774774774 7.410911431382185e+37
5784.784784784785 7.366914775249867e+37
5794.794794794795 7.323230257253718e+37
5804.804804804805 7.279855393445373e+37
5814.814814814815 7.236787726793007e+37
5824.824824824825 7.194024826666261e+37
5834.8348348348345 7.151564288333389e+37
5844.844844844845 7.109403732470457e+37
5854.854854854855 7.067540804682217e+37
5864.864864864865 7.025973175034542e+37
5874.874874874875 6.984698537598174e+37
5884.884884884885 6.943714610003476e+37
5894.894894894895 6.903019133006087e+37
