#lamb flux
1000.0 0.7142401405442373
1010.01001001001 0.7312993318585486
1020.0200200200201 0.7463779633971828
1030.03003003003 0.7595494152029563
1040.0400400400401 0.770900238410289
1050.05005005005 0.780526751379999
1060.06006006006 0.7885320329688557
1070.07007007007 0.795023315197007
1080.08008008008 0.8001097630954827
1090.0900900900901 0.8039006193619752
1100.1001001001 0.806503684867944
1110.11011011011 0.8080241023255996
1120.1201201201202 0.8085634088920617
1130.13013013013 0.8082188235990209
1140.1401401401401 0.807082736778635
1150.1501501501502 0.8052423707268282
1160.16016016016 0.8027795833996269
1170.1701701701702 0.7997707897427883
1180.1801801801803 0.7962869781351919
1190.1901901901902 0.7923938022565855
1200.2002002002002 0.7881517313843592
1210.2102102102103 0.7836162446268004
1220.2202202202202 0.7788380568804558
1230.2302302302303 0.7738633663431231
1240.2402402402402 0.7687341152206943
1250.2502502502502 0.7634296760590408
1260.2602602602603 0.7578128446465404
1270.2702702702702 0.751612877194363
1280.2802802802803 0.7448847472187423
1290.2902902902902 0.7376807029894814
1300.3003003003003 0.7300502220397185
1310.3103103103103 0.7220399982701492
1320.3203203203202 0.713693956513528
1330.3303303303303 0.705053289943017
1340.3403403403404 0.6961565162056966
1350.3503503503503 0.6870395486341055
1360.3603603603603 0.6777357793297256
1370.3703703703704 0.6682761713204571
1380.3803803803803 0.6586893573682435
1390.3903903903904 0.6490017433430718
1400.4004004004005 0.6392376143863443
1410.4104104104103 0.629419242361407
1420.4204204204204 0.6195669933335678
1430.4304304304305 0.6096994340381877
1440.4404404404404 0.5998334364855521
1450.4504504504505 0.5899842800173182
1460.4604604604606 0.5801657502736869
1470.4704704704704 0.570390234655035
1480.4804804804805 0.5606688139687376
1490.4904904904906 0.5510113500431272
1500.5005005005005 0.541426569167834
1510.5105105105106 0.5319221412847766
1520.5205205205207 0.522504754908355
1530.5305305305305 0.5131801877983384
1540.5405405405404 0.5039533734458286
1550.5505505505505 0.49482846346267
1560.5605605605606 0.48580888598877187
1570.5705705705705 0.47689740025105454
1580.5805805805805 0.4680961474228587
1590.5905905905906 0.45940669794455524
1600.6006006006005 0.45083009547539044
1610.6106106106106 0.44236689765401827
1620.6206206206207 0.4340172138512425
1630.6306306306305 0.42578074010386097
1640.6406406406406 0.4176567914236563
1650.6506506506507 0.40964433168110775
1660.6606606606606 0.40174200126975335
1670.6706706706707 0.39394814276495593
1680.6806806806808 0.3862608248005556
1690.6906906906906 0.37867786439918655
1700.7007007007007 0.37119831902902456
1710.7107107107108 0.36382531775006655
1720.7207207207207 0.35655507877930925
1730.7307307307308 0.34938300307381914
1740.7407407407409 0.34230452117970783
1750.7507507507507 0.33531509698473094
1760.7607607607606 0.32841023351604437
1770.770770770771 0.32158548119744973
1780.7807807807808 0.31483644904734764
1790.7907907907907 0.3081588193719605
1800.8008008008007 0.3015483665870484
1810.8108108108108 0.29500098088325305
1820.8208208208207 0.2885126975319462
1830.8308308308308 0.28207973270485187
1840.8408408408409 0.275698526744155
1850.8508508508507 0.26936579585979203
1860.8608608608608 0.26307859323285243
1870.870870870871 0.25683438044984713
1880.8808808808808 0.25063111005844857
1890.890890890891 0.24446731979233977
1900.900900900901 0.23834223862749354
1910.9109109109108 0.23225590426745604
1920.920920920921 0.22620929087353514
1930.930930930931 0.22020444482396323
1940.940940940941 0.21424462498293442
1950.950950950951 0.20833444238708496
1960.960960960961 0.2024799924504471
1970.970970970971 0.19668897083700018
1980.980980980981 0.1909707622061384
1990.9909909909911 0.18533648933028182
2001.001001001001 0.17979900892185932
2011.0110110110109 0.17437284025650726
2021.0210210210212 0.1690740137307345
2031.031031031031 0.16391982919408665
2041.0410410410411 0.1589285184675376
2051.051051051051 0.15411881289377194
2061.061061061061 0.1495094247397739
2071.071071071071 0.14511846010861518
2081.081081081081 0.14096278970701906
2091.091091091091 0.13705741113982173
2101.101101101101 0.13341484113747706
2111.1111111111113 0.1300445772888914
2121.121121121121 0.12695266594933843
2131.131131131131 0.1241414061489409
2141.141141141141 0.12160920930323929
2151.151151151151 0.1193506225800228
2161.161161161161 0.11735651140610812
2171.1711711711714 0.11561438526126983
2181.1811811811813 0.11410884177387288
2191.191191191191 0.1128220979395581
2201.201201201201 0.11173457429764488
2211.2112112112113 0.1108254979747529
2221.221221221221 0.11007349319232335
2231.2312312312315 0.10945713250094682
2241.2412412412414 0.10895542794008506
2251.2512512512512 0.10854824782676743
2261.261261261261 0.10821665132423593
2271.271271271271 0.1079431388222339
2281.2812812812813 0.10771182111034053
2291.2912912912916 0.10750851413403466
2301.3013013013015 0.10732076872547827
2311.3113113113113 0.10713784615576233
2321.321321321321 0.10695065081116385
2331.331331331331 0.10675163095501528
2341.3413413413414 0.10653465762058002
2351.3513513513512 0.10629489040174789
2361.3613613613616 0.10602863745271233
2371.3713713713714 0.10573321552242851
2381.3813813813813 0.1054068144413096
2391.391391391391 0.10504836921501857
2401.4014014014015 0.10465744179996904
2411.4114114114113 0.10423411374903709
2421.4214214214217 0.1037788902182076
2431.4314314314315 0.10329261529846746
2441.4414414414414 0.10277639825929073
2451.4514514514512 0.10223155003547454
2461.4614614614616 0.10165952913329451
2471.4714714714714 0.1010618960525025
2481.4814814814818 0.10044027529803355
2491.4914914914916 0.0997963240731383
2501.5015015015015 0.09913170679085251
2511.5115115115113 0.09844807460299813
2521.521521521521 0.09774704921751047
2531.5315315315315 0.09703021035010789
2541.541541541542 0.09629908623116244
2551.5515515515517 0.09555514666038625
2561.5615615615616 0.09479979816894109
2571.5715715715714 0.09403438090985554
2581.5815815815813 0.09326016695279138
2591.5915915915916 0.09247835970821115
2601.6016016016015 0.09169009424907469
2611.611611611612 0.09089643833571172
2621.6216216216217 0.09009839398194051
2631.6316316316315 0.08929689942832822
2641.6416416416414 0.0884928314122268
2651.6516516516517 0.087687007644352
2661.6616616616616 0.08688018941866893
2671.671671671672 0.08607308429662124
2681.6816816816818 0.08526634881867597
2691.6916916916916 0.08446059120608831
2701.7017017017015 0.08365637402402147
2711.711711711712 0.08285421678394322
2721.7217217217217 0.08205459846879168
2731.731731731732 0.08125795996894603
2741.741741741742 0.08046470642073233
2751.7517517517517 0.07967520944216429
2761.7617617617616 0.0788898092630027
2771.7717717717715 0.07810881674810043
2781.781781781782 0.07733251531448307
2791.791791791792 0.07656116274375825
2801.801801801802 0.07579499289231763
2811.811811811812 0.0750342173024423
2821.8218218218217 0.07427902671788736
2831.8318318318316 0.07352959250783823
2841.841841841842 0.07278606800333258
2851.851851851852 0.07204858975034725
2861.861861861862 0.07131727868378152
2871.871871871872 0.07059224122654323
2881.881881881882 0.06987357031787374
2891.8918918918916 0.06916134637494392
2901.901901901902 0.06845563819162494
2911.911911911912 0.06775650377819237
2921.921921921922 0.06706399114556272
2931.931931931932 0.0663781390374982
2941.941941941942 0.06569897761404497
2951.9519519519517 0.065026529089302
2961.961961961962 0.06436080832644923
2971.971971971972 0.06370182339279831
2981.9819819819822 0.06304957607746994
2991.991991991992 0.06240406237414572
3002.002002002002 0.06176527293119445
3012.012012012012 0.061133193471330255
3022.0220220220217 0.06050780518282338
3032.032032032032 0.06012571877038436
3042.0420420420423 0.05948264493936439
3052.052052052052 0.058838357551245904
3062.062062062062 0.058195197841475005
3072.072072072072 0.05755514529754151
3082.0820820820823 0.056919858089830654
3092.092092092092 0.056290710158035696
3102.102102102102 0.05566882503225637
3112.1121121121123 0.05505510651917035
3122.122122122122 0.05445026641809985
3132.132132132132 0.0538548494531052
3142.1421421421423 0.05326925561846581
3152.152152152152 0.05269376013853173
3162.162162162162 0.0521285312409569
3172.1721721721724 0.05157364593633505
3182.1821821821823 0.051029103988519134
3192.192192192192 0.05049484024937855
3202.202202202202 0.04997073552019142
3212.2122122122123 0.04945662608983656
3222.222222222222 0.04895231208786652
3232.232232232232 0.048457564778704824
3242.2422422422424 0.04797213291182997
3252.252252252252 0.047495748232020324
3262.262262262262 0.047028130243629444
3272.2722722722724 0.046568990313478345
3282.2822822822823 0.046118035188307226
3292.292292292292 0.04567496999481555
3302.3023023023025 0.0452395007831121
3312.3123123123123 0.04481133666786231
3322.322322322322 0.04439019161551961
3332.3323323323325 0.043975785920711954
3342.3423423423424 0.04356784741008791
3352.352352352352 0.043166112407649865
3362.3623623623625 0.04277032649178583
3372.3723723723724 0.042380245070800175
3382.3823823823823 0.04199563380070385
3392.3923923923926 0.041616268866323455
3402.4024024024025 0.041241937144377405
3412.4124124124123 0.04087243626503153
3422.4224224224226 0.04050757458654386
3432.4324324324325 0.04014717109592153
3442.4424424424424 0.03979105524701105
3452.4524524524522 0.03943906674611329
3462.4624624624626 0.03909105529403006
3472.4724724724724 0.03874688029239874
3482.4824824824823 0.038406410521235744
3492.4924924924926 0.038069523793780584
3502.5025025025025 0.03773610659399083
3512.5125125125123 0.03740605370138195
3522.5225225225226 0.03707926780731932
3532.5325325325325 0.03675565912634685
3542.5425425425424 0.03643514500567224
3552.5525525525527 0.03611764953551251
3562.5625625625626 0.035803103162633326
3572.5725725725724 0.03549144230908448
3582.5825825825827 0.03518260899783915
3592.5925925925926 0.03487655048677994
3602.6026026026025 0.03457321891224022
3612.612612612613 0.0342725709430987
3622.6226226226227 0.03397456744623817
3632.6326326326325 0.03367917316401197
3642.642642642643 0.03338635640421435
3652.6526526526527 0.033096088742917695
3662.6626626626626 0.032808344740422865
3672.672672672673 0.03252310167046649
3682.6826826826828 0.03224033926273604
3692.6926926926926 0.031960039458664644
3702.7027027027025 0.03168218618040636
3712.712712712713 0.031406765112832115
3722.7227227227227 0.03113376349833374
3732.7327327327325 0.03086316994417653
3742.742742742743 0.030594974242104486
3752.7527527527527 0.03032916719986753
3762.7627627627626 0.030065740484314145
3772.772772772773 0.029804686475670944
3782.7827827827828 0.029545998132612265
3792.7927927927926 0.029289668867710467
3802.802802802803 0.029035692432847513
3812.812812812813 0.02878406281416158
3822.8228228228227 0.028534774136099724
3832.832832832833 0.02828782057414622
3842.842842842843 0.028043196275797728
3852.8528528528527 0.0278008952893603
3862.862862862863 0.02756091150014805
3872.872872872873 0.02732323857367096
3882.8828828828828 0.027087869905406365
3892.892892892893 0.02685479857675994
3902.902902902903 0.026624017316830246
3912.912912912913 0.026395518469604116
3922.922922922923 0.026169293966220506
3932.932932932933 0.025945335301954517
3942.942942942943 0.025723633517584152
3952.9529529529527 0.02550417918481753
3962.962962962963 0.025286962395470503
3972.972972972973 0.025071972754098268
3982.982982982983 0.024859199373798237
3992.992992992993 0.0246486308749149
4003.003003003003 0.0244402553863909
4013.013013013013 0.02423406054952108
4023.023023023023 0.024030033523880105
4033.033033033033 0.02382816099520658
4043.043043043043 0.023628429185038678
4053.053053053053 0.02343082386190915
4063.063063063063 0.023235330353918737
4073.073073073073 0.023041933562518425
4083.0830830830832 0.022850617977342533
4093.093093093093 0.022661367691944368
4103.103103103103 0.02247416642029715
4113.113113113113 0.02228899751393222
4123.123123123123 0.022105843979595908
4133.133133133133 0.021924688497315662
4143.143143143143 0.021745513438774393
4153.153153153153 0.021568300885899838
4163.163163163163 0.021393032649583796
4173.173173173173 0.02121969028845338
4183.183183183183 0.02104825512762299
4193.193193193193 0.02087870827736247
4203.203203203203 0.02071103065162304
4213.213213213214 0.020545202986368503
4223.223223223224 0.0203812058576641
4233.2332332332335 0.02021901969948116
4243.243243243243 0.02005862482118003
4253.253253253253 0.019900001424638384
4263.263263263263 0.019743129620996034
4273.273273273273 0.01958798944699126
4283.283283283283 0.01943456088086736
4293.293293293293 0.01928282385783139
4303.303303303303 0.01913275828504986
4313.313313313313 0.01898434405616959
4323.323323323323 0.018837561065353822
4333.333333333334 0.018692389220826607
4343.343343343344 0.01854880845792064
4353.353353353354 0.018406798751625146
4363.3633633633635 0.01826634012863322
4373.373373373373 0.01812741267888869
4383.383383383383 0.017989996566634914
4393.393393393393 0.01785407204096855
4403.403403403403 0.017719619445903192
4413.413413413413 0.01758661922994835
4423.423423423424 0.017455051955210566
4433.4334334334335 0.017324898306024173
4443.443443443443 0.017196139097119822
4453.453453453454 0.017068755281339897
4463.463463463464 0.016942727956910358
4473.473473473474 0.016818038374278477
4483.483483483484 0.01669466794252772
4493.493493493494 0.016572598235379682
4503.503503503503 0.016451810996794592
4513.513513513513 0.01633228814618141
4523.523523523523 0.016214011783228843
4533.533533533533 0.01609696419236905
4543.543543543543 0.015981127846885216
4553.553553553554 0.01586648541267489
4563.563563563564 0.01575301975168057
4573.573573573573 0.015640713924998967
4583.583583583584 0.015529551195680648
4593.593593593594 0.015419515031231209
4603.603603603604 0.015310589105825317
4613.613613613614 0.015202757302244766
4623.623623623624 0.015096003713551362
4633.6336336336335 0.014990312644505562
4643.643643643643 0.014885668612741345
4653.653653653653 0.0147820563497076
4663.663663663663 0.014679460801386419
4673.673673673674 0.01457786712879795
4683.683683683684 0.014477260708301774
4693.693693693694 0.014377627131703976
4703.703703703704 0.01427895220617943
4713.713713713714 0.014181221954018114
4723.723723723724 0.01408442261220414
4733.733733733734 0.01398854063183608
4743.743743743744 0.013893562677396887
4753.753753753754 0.013799475625881167
4763.763763763764 0.013706266565787856
4773.773773773773 0.01361392279598539
4783.783783783783 0.013522431824457172
4793.793793793793 0.013431781366933763
4803.803803803804 0.013341959345418998
4813.813813813814 0.013252953886616396
4823.823823823824 0.013164753320262176
4833.833833833834 0.013077346177370986
4843.843843843844 0.012990721188400271
4853.853853853854 0.012904867281338793
4863.863863863864 0.01281977357972486
4873.873873873874 0.01273542940059942
4883.883883883884 0.012651824252399106
4893.893893893894 0.01256894783279397
4903.9039039039035 0.012486790026474636
4913.913913913913 0.012405340902893218
4923.923923923924 0.012324590713962351
4933.933933933934 0.012244529891716439
4943.943943943944 0.01216514904593881
4953.953953953955 0.012086438961758879
4963.9639639639645 0.012008390597222654
4973.973973973974 0.01193099508083996
4983.983983983984 0.011854243709111926
4993.993993993994 0.011778127944041606
5004.004004004004 0.011702639410630771
5014.014014014014 0.011627769894365838
5024.024024024024 0.011553511338695442
5034.0340340340335 0.011479855842502457
5044.044044044043 0.011406795657572674
5054.054054054054 0.011334323186062681
5064.064064064064 0.011262430977969072
5074.074074074074 0.011191111728601003
5084.084084084085 0.011120358276058265
5094.0940940940945 0.011050163598716668
5104.104104104104 0.010980520812722456
5114.114114114114 0.010911423169497593
5124.124124124124 0.010842864053257429
5134.134134134134 0.010774836978542231
5144.144144144144 0.010707335587764068
5154.154154154154 0.010640353648770346
5164.1641641641645 0.010573885052425253
5174.174174174174 0.010507923810210316
5184.184184184184 0.010442464051845108
5194.194194194194 0.010377500022929212
5204.204204204204 0.010313026082606421
5214.214214214214 0.010249036701251945
5224.224224224225 0.010185526458183597
5234.2342342342345 0.010122490039397664
5244.244244244244 0.010059922235330183
5254.254254254254 0.009997817938644304
5264.264264264264 0.009936172142044276
5274.274274274274 0.009874979936116766
5284.284284284285 0.009814236507199784
5294.294294294295 0.00975393713527989
5304.304304304304 0.009694077191917939
5314.314314314314 0.009634652138203822
5324.324324324324 0.009575657522740469
5334.334334334334 0.009517088979657471
5344.344344344345 0.009458942226654431
5354.354354354355 0.009401213063074492
5364.3643643643645 0.009343897368007881
5374.374374374374 0.009286991098425996
5384.384384384384 0.009230490287345782
5394.394394394394 0.00917439104202477
5404.404404404404 0.009118689542186621
5414.414414414415 0.009063382038277324
5424.424424424425 0.009008464849752007
5434.4344344344345 0.008953934363392277
5444.444444444444 0.008899787031654137
5454.454454454454 0.00884601937104636
5464.464464464464 0.008792627960539185
5474.474474474475 0.008739609440003267
5484.484484484485 0.008686960508678745
5494.494494494495 0.008634677923674236
5504.504504504504 0.008582758498495643
5514.514514514514 0.008531199101604492
5524.524524524524 0.008479996655005739
5534.534534534535 0.00842914813286467
5544.544544544545 0.008378650560152785
5554.554554554555 0.008328501011322334
5564.5645645645645 0.008278696609009333
5574.574574574574 0.008229234522764708
5584.584584584584 0.00818011196781336
5594.594594594595 0.008131326203840744
5604.604604604605 0.008082874533806923
5614.614614614615 0.008034754302787384
5624.624624624625 0.007986962896840725
5634.6346346346345 0.00793949774190261
5644.644644644644 0.00789235630270573
5654.654654654654 0.007845536081725541
5664.664664664665 0.007799034618151235
5674.674674674675 0.007752849486881867
5684.684684684685 0.007706978297546979
5694.694694694695 0.007661418693551617
5704.704704704704 0.007616168351145301
5714.714714714714 0.0075712249785144965
5724.724724724725 0.007526586314898396
5734.734734734735 0.007482250129727473
5744.744744744745 0.007438214221784577
5754.754754754755 0.0073944764183880825
5764.764764764765 0.007351034574596836
5774.774774774774 0.007307886572436443
5784.784784784785 0.007265030320146541
5794.794794794795 0.007222463751448713
5804.804804804805 0.007180184824834657
5814.814814814815 0.007138191522874201
5824.824824824825 0.007096481851542878
5834.8348348348345 0.007055053839568565
5844.844844844845 0.007013905537796972
5854.854854854855 0.006973035018575467
5864.864864864865 0.00693244037515495
5874.874874874875 0.006892119721109405
5884.884884884885 0.006852071189772755
5894.894894894895 0.006812292933692647
5904.9049049049045 0.006772783124100858
5914.914914914915 0.006733539950399885
5924.924924924925 0.006694561619665491
5934.934934934935 0.006655846356164679
5944.944944944945 0.006617392400888964
5954.954954954955 0.00657919801110241
5964.964964964965 0.006541261459904199
5974.974974974975 0.006503581035805383
5984.984984984985 0.006466155042319455
5994.994994994995 0.006428981797566431
6005.005005005005 0.006392059633890116
6015.015015015015 0.006355386897488242
6025.025025025025 0.006318961948055167
6035.035035035035 0.006282783158436771
6045.045045045045 0.006246848914297319
6055.055055055055 0.006211157613797926
6065.065065065065 0.006175707667286355
6075.075075075075 0.006140497496997844
6085.085085085085 0.006105525536766664
6095.0950950950955 0.006070790231748148
6105.105105105105 0.006036290038150882
6115.115115115115 0.0060020234229787705
6125.125125125125 0.005967988863782745
6135.135135135135 0.005934184848421837
6145.145145145145 0.005900609874833299
6155.155155155155 0.005867262450811598
6165.1651651651655 0.005834141093795945
6175.175175175175 0.005801244330666203
