#lamb flux
1000.0 2.048866892020606e+37
1010.01001001001 2.24201774621181e+37
1020.0200200200201 2.4478479010971646e+37
1030.03003003003 2.66673941330683e+37
1040.0400400400401 2.8990583601227753e+37
1050.05005005005 3.145153600829198e+37
1060.06006006006 3.405355626287527e+37
1070.07007007007 3.67997550025245e+37
1080.08008008008 3.9693038951308465e+37
1090.0900900900901 4.273610224102965e+37
1100.1001001001 4.593141870782489e+37
1110.11011011011 4.928123516891225e+37
1120.1201201201202 5.278756567769195e+37
1130.13013013013 5.645218674934095e+37
1140.1401401401401 6.027663354346277e+37
1150.1501501501502 6.426219698527973e+37
1160.16016016016 6.840992180228746e+37
1170.1701701701702 7.272060544921566e+37
1180.1801801801803 7.719479789056539e+37
1190.1901901901902 8.183280220688325e+37
1200.2002002002002 8.663467598830046e+37
1210.2102102102103 9.160023347665771e+37
1220.2202202202202 9.672904841576504e+37
1230.2302302302303 1.0202045756796441e+38
1240.2402402402402 1.0747356485414962e+38
1250.2502502502502 1.1308723913947702e+38
1260.2602602602603 1.1886011065512432e+38
1270.2702702702702 1.2479057017308392e+38
1280.2802802802803 1.3087683402905321e+38
1290.2902902902902 1.3711691405612606e+38
1300.3003003003003 1.4350862457462397e+38
1310.3103103103103 1.5004958970318053e+38
1320.3203203203202 1.5673725095034593e+38
1330.3303303303303 1.6356887504719378e+38
1340.3403403403404 1.7054156198272363e+38
1350.3503503503503 1.776522532053154e+38
1360.3603603603603 1.8489773995500547e+38
1370.3703703703704 1.9227467169294768e+38
1380.3803803803803 1.9977956459608832e+38
1390.3903903903904 2.0740881008676593e+38
1400.4004004004005 2.151586833686531e+38
1410.4104104104103 2.2302535194221056e+38
1420.4204204204204 2.3100488407452407e+38
1430.4304304304305 2.3909325720013377e+38
1440.4404404404404 2.4728636623116126e+38
1450.4504504504505 2.5558003175671206e+38
1460.4604604604606 2.639700081131705e+38
1470.4704704704704 2.724519913086195e+38
1480.4804804804805 2.810216267861491e+38
1490.4904904904906 2.8967451701235225e+38
1500.5005005005005 2.9840622887873032e+38
1510.5105105105106 3.0721230090515986e+38
1520.5205205205207 3.1608825023587705e+38
1530.5305305305305 3.250295794197371e+38
1540.5405405405404 3.3403178296772023e+38
1550.5505505505505 3.430903536817886e+38
1560.5605605605606 3.5220078875031946e+38
1570.5705705705705 3.61358595606345e+38
1580.5805805805805 3.705592975458074e+38
1590.5905905905906 3.797984391039382e+38
1600.6006006006005 3.8907159118871885e+38
1610.6106106106106 3.983743559711712e+38
1620.6206206206207 4.077023715329388e+38
1630.6306306306305 4.170513162723338e+38
1640.6406406406406 4.264169130705997e+38
1650.6506506506507 4.3579493322075526e+38
1660.6606606606606 4.451812001219007e+38
1670.6706706706707 4.545715927423437e+38
1680.6806806806808 4.639620488553466e+38
1690.6906906906906 4.733485680517373e+38
1700.7007007007007 4.8272721606270054e+38
1710.7107107107108 4.920941306850594e+38
1720.7207207207207 5.014455127298888e+38
1730.7307307307308 5.107776338788744e+38
1740.7407407407409 5.200868395041301e+38
1750.7507507507507 5.293695504534778e+38
1760.7607607607606 5.3862226465161016e+38
1770.770770770771 5.4784155852404965e+38
1780.7807807807808 5.570240882511989e+38
1790.7907907907907 5.6616659086025295e+38
1800.8008008008007 5.752658851632213e+38
1810.8108108108108 5.843188725499261e+38
1820.8208208208207 5.93322537645556e+38
1830.8308308308308 6.0227394884318674e+38
1840.8408408408409 6.111702587226211e+38
1850.8508508508507 6.200087043680784e+38
1860.8608608608608 6.287866075984709e+38
1870.870870870871 6.375013751254809e+38
1880.8808808808808 6.461504986561214e+38
1890.890890890891 6.5473155495803356e+38
1900.900900900901 6.632422059072429e+38
1910.9109109109108 6.716801985392708e+38
1920.920920920921 6.800433651251847e+38
1930.930930930931 6.883296232939346e+38
1940.940940940941 6.965369762207634e+38
1950.950950950951 7.046635128979259e+38
1960.960960960961 7.127074084978497e+38
1970.970970970971 7.206669248293535e+38
1980.980980980981 7.285404108741145e+38
1990.9909909909911 7.363263033726001e+38
2001.001001001001 7.440231274062881e+38
2011.0110110110109 7.516294968967573e+38
2021.0210210210212 7.59144114913855e+38
2031.031031031031 7.665657736576053e+38
2041.0410410410411 7.738933539560574e+38
2051.051051051051 7.811258241095494e+38
2061.061061061061 7.88262237916927e+38
2071.071071071071 7.953017317470158e+38
2081.081081081081 8.022435205727753e+38
2091.091091091091 8.090868929663703e+38
2101.101101101101 8.158312051556414e+38
2111.1111111111113 8.224758743554828e+38
2121.121121121121 8.290203716950853e+38
2131.131131131131 8.354642151453612e+38
2141.141141141141 8.418069628922153e+38
2151.151151151151 8.480482075885735e+38
2161.161161161161 8.541875718482803e+38
2171.1711711711714 8.60224705226109e+38
2181.1811811811813 8.661592827779542e+38
2191.191191191191 8.719910051376e+38
2201.201201201201 8.777195999056786e+38
2211.2112112112113 8.833448240421265e+38
2221.221221221221 8.888664668968977e+38
2231.2312312312315 8.942843535064223e+38
2241.2412412412414 8.995983478182318e+38
2251.2512512512512 9.048083555709426e+38
2261.261261261261 9.099143266368598e+38
2271.271271271271 9.149162567163869e+38
2281.2812812812813 9.19814188347052e+38
2291.2912912912916 9.246082112489038e+38
2301.3013013013015 9.292984620698591e+38
2311.3113113113113 9.338851236197914e+38
2321.321321321321 9.383684236930728e+38
2331.331331331331 9.42748633579282e+38
2341.3413413413414 9.470260663543652e+38
2351.3513513513512 9.512010750326193e+38
2361.3613613613616 9.552740506461088e+38
2371.3713713713714 9.592454203041699e+38
2381.3813813813813 9.631156452727218e+38
2391.391391391391 9.668852191018004e+38
2401.4014014014015 9.705546658203516e+38
2411.4114114114113 9.74124538209824e+38
2421.4214214214217 9.775954161623702e+38
2431.4314314314315 9.80967905125233e+38
2441.4414414414414 9.842426346299447e+38
2451.4514514514512 9.874202569029615e+38
2461.4614614614616 9.905014455531956e+38
2471.4714714714714 9.934868943312283e+38
2481.4814814814818 9.963773159548025e+38
2491.4914914914916 9.991734409952144e+38
2501.5015015015015 1.0018760168194984e+39
2511.5115115115113 1.0044858065836294e+39
2521.521521521521 1.0070035882723803e+39
2531.5315315315315 1.0094301537819032e+39
2541.541541541542 1.0117663080415382e+39
2551.5515515515517 1.0140128681717447e+39
2561.5615615615616 1.0161706626754175e+39
2571.5715715715714 1.0182405306602238e+39
2581.5815815815813 1.0202233210898547e+39
2591.5915915915916 1.0221198920623943e+39
2601.6016016016015 1.0239311101142102e+39
2611.611611611612 1.0256578495479914e+39
2621.6216216216217 1.02730099178372e+39
2631.6316316316315 1.0288614247315212e+39
2641.6416416416414 1.0303400421854559e+39
2651.6516516516517 1.0317377432374302e+39
2661.6616616616616 1.0330554317104744e+39
2671.671671671672 1.03429401561075e+39
2681.6816816816818 1.0354544065976509e+39
2691.6916916916916 1.0365375194714934e+39
2701.7017017017015 1.0375442716782593e+39
2711.711711711712 1.0384755828309359e+39
2721.7217217217217 1.0393323742470354e+39
2731.731731731732 1.0401155685018498e+39
2741.741741741742 1.0408260889970868e+39
2751.7517517517517 1.0414648595444934e+39
2761.7617617617616 1.04203280396412e+39
2771.7717717717715 1.0425308456968887e+39
2781.781781781782 1.042959907431112e+39
2791.791791791792 1.0433209107426652e+39
2801.801801801802 1.0436147757484807e+39
2811.811811811812 1.0438424207730509e+39
2821.8218218218217 1.0440047620276542e+39
2831.8318318318316 1.0441027133019931e+39
2841.841841841842 1.044137185667952e+39
2851.851851851852 1.0441090871951962e+39
2861.861861861862 1.0440193226783215e+39
2871.871871871872 1.0438687933752669e+39
2881.881881881882 1.0436583967567294e+39
2891.8918918918916 1.0433890262663059e+39
2901.901901901902 1.0430615710910778e+39
2911.911911911912 1.0426769159423933e+39
2921.921921921922 1.0422359408465703e+39
2931.931931931932 1.0417395209452822e+39
2941.941941941942 1.0411885263053454e+39
2951.9519519519517 1.0405838217376807e+39
2961.961961961962 1.0399262666251905e+39
2971.971971971972 1.0392167147593126e+39
2981.9819819819822 1.0384560141850174e+39
2991.991991991992 1.0376450070539933e+39
3002.002002002002 1.0367845294858219e+39
3012.012012012012 1.0358754114368757e+39
3022.0220220220217 1.0349184765767501e+39
3032.032032032032 1.0339178003526792e+39
3042.0420420420423 1.0328672774068188e+39
3052.052052052052 1.0317712521313428e+39
3062.062062062062 1.0306305522716274e+39
3072.072072072072 1.0294459949081197e+39
3082.0820820820823 1.0282183867417274e+39
3092.092092092092 1.026948524355682e+39
3102.102102102102 1.0256371944557923e+39
3112.1121121121123 1.0242851740908964e+39
3122.122122122122 1.0228932308551723e+39
3132.132132132132 1.0214621230738613e+39
3142.1421421421423 1.0199925999738407e+39
3152.152152152152 1.018485401840371e+39
3162.162162162162 1.016941260161264e+39
3172.1721721721724 1.0153608977596046e+39
3182.1821821821823 1.0137450289160923e+39
3192.192192192192 1.0120943594819703e+39
3202.202202202202 1.0104095869834521e+39
3212.2122122122123 1.0086914007184806e+39
3222.222222222222 1.0069404818465785e+39
3232.232232232232 1.0051575034725073e+39
3242.2422422422424 1.0033431307243816e+39
3252.252252252252 1.0014980208268391e+39
3262.262262262262 9.996228231698125e+38
3272.2722722722724 9.977181793734172e+38
3282.2822822822823 9.95784723349399e+38
3292.292292292292 9.938230813595853e+38
3302.3023023023025 9.918338720717087e+38
3312.3123123123123 9.898177066129628e+38
3322.322322322322 9.877751886216136e+38
3332.3323323323325 9.85706914296943e+38
3342.3423423423424 9.836134724478091e+38
3352.352352352352 9.814954445400415e+38
3362.3623623623625 9.793534047429098e+38
3372.3723723723724 9.771879199748294e+38
3382.3823823823823 9.749995499485128e+38
3392.3923923923926 9.727888472156935e+38
3402.4024024024025 9.705563572115833e+38
3412.4124124124123 9.683026182991638e+38
3422.4224224224226 9.660281618134519e+38
3432.4324324324325 9.637335121058e+38
3442.4424424424424 9.614191865883434e+38
3452.4524524524522 9.59085695778651e+38
3462.4624624624626 9.567335433446503e+38
3472.4724724724724 9.54363226149874e+38
3482.4824824824823 9.519752342990751e+38
3492.4924924924926 9.49570051184247e+38
3502.5025025025025 9.471481535310846e+38
3512.5125125125123 9.447100114458947e+38
3522.5225225225226 9.422560884629915e+38
3532.5325325325325 9.397868415925687e+38
3542.5425425425424 9.373027213690804e+38
3552.5525525525527 9.348041719001076e+38
3562.5625625625626 9.322916309157333e+38
3572.5725725725724 9.297655298184027e+38
3582.5825825825827 9.2722629373327e+38
3592.5925925925926 9.24674341559027e+38
3602.6026026026025 9.22110086019185e+38
3612.612612612613 9.195339337138174e+38
3622.6226226226227 9.169462851717189e+38
3632.6326326326325 9.143475349029927e+38
3642.642642642643 9.117380714520204e+38
3652.6526526526527 9.091182774508165e+38
3662.6626626626626 9.064885296727177e+38
3672.672672672673 9.038491990864214e+38
3682.6826826826828 9.012006509103138e+38
3692.6926926926926 8.985432446670882e+38
3702.7027027027025 8.958773342386188e+38
3712.712712712713 8.93203267921065e+38
3722.7227227227227 8.905213884801957e+38
3732.7327327327325 8.878320332068809e+38
3742.742742742743 8.851355339727617e+38
3752.7527527527527 8.824322172860436e+38
3762.7627627627626 8.797224043474026e+38
3772.772772772773 8.770064111059869e+38
3782.7827827827828 8.742845483154753e+38
3792.7927927927926 8.71557121590176e+38
3802.802802802803 8.68824431461151e+38
3812.812812812813 8.66086773432328e+38
3822.8228228228227 8.633444380365894e+38
3832.832832832833 8.605977108918146e+38
3842.842842842843 8.578468727568526e+38
3852.8528528528527 8.550921995874078e+38
3862.862862862863 8.52333962591813e+38
3872.872872872873 8.495724282866832e+38
3882.8828828828828 8.46807858552409e+38
3892.892892892893 8.440405106885067e+38
3902.902902902903 8.412706374687668e+38
3912.912912912913 8.38498487196217e+38
3922.922922922923 8.357243037578667e+38
3932.932932932933 8.329483266792264e+38
3942.942942942943 8.301707911785745e+38
3952.9529529529527 8.27391928220975e+38
3962.962962962963 8.246119645720158e+38
3972.972972972973 8.218311228512674e+38
3982.982982982983 8.190496215854413e+38
3992.992992992993 8.162676752612367e+38
4003.003003003003 8.134854943778716e+38
4013.013013013013 8.107032854992807e+38
4023.023023023023 8.079212513059691e+38
4033.033033033033 8.051395906465179e+38
4043.043043043043 8.023584985887283e+38
4053.053053053053 7.99578166470397e+38
4063.063063063063 7.967987819497163e+38
4073.073073073073 7.940205290552853e+38
4083.0830830830832 7.912435882357348e+38
4093.093093093093 7.88468136408953e+38
4103.103103103103 7.85694347010899e+38
4113.113113113113 7.829223900440242e+38
4123.123123123123 7.801524321252562e+38
4133.133133133133 7.773846365335791e+38
4143.143143143143 7.746191632571809e+38
4153.153153153153 7.718561690401767e+38
4163.163163163163 7.690958074288956e+38
4173.173173173173 7.663382288177331e+38
4183.183183183183 7.63583580494567e+38
4193.193193193193 7.608320066857268e+38
4203.203203203203 7.580836486005234e+38
4213.213213213214 7.553386444753334e+38
4223.223223223224 7.52597129617231e+38
4233.2332332332335 7.498592364471767e+38
4243.243243243243 7.471250945427534e+38
4253.253253253253 7.443948306804485e+38
4263.263263263263 7.416685688774917e+38
4273.273273273273 7.389464304332343e+38
4283.283283283283 7.362285339700775e+38
4293.293293293293 7.335149954739527e+38
4303.303303303303 7.308059283343478e+38
4313.313313313313 7.281014433838804e+38
4323.323323323323 7.25401648937424e+38
4333.333333333334 7.227066508307823e+38
4343.343343343344 7.20016552458918e+38
4353.353353353354 7.173314548137331e+38
4363.3633633633635 7.146514565214005e+38
4373.373373373373 7.119766538792608e+38
4383.383383383383 7.093071408922646e+38
4393.393393393393 7.066430093089857e+38
4403.403403403403 7.039843486571909e+38
4413.413413413413 7.013312462789706e+38
4423.423423423424 6.986837873654447e+38
4433.4334334334335 6.960420549910276e+38
4443.443443443443 6.934061301472706e+38
4453.453453453454 6.907760917762752e+38
4463.463463463464 6.881520168036846e+38
4473.473473473474 6.85533980171252e+38
4483.483483483484 6.829220548689944e+38
4493.493493493494 6.8031631196692666e+38
4503.503503503503 6.7771682064638975e+38
4513.513513513513 6.751236482309664e+38
4523.523523523523 6.725368602169882e+38
4533.533533533533 6.699565203036494e+38
4543.543543543543 6.673826904227114e+38
4553.553553553554 6.648154307678175e+38
4563.563563563564 6.622547998234148e+38
4573.573573573573 6.597008543932829e+38
4583.583583583584 6.57153649628683e+38
4593.593593593594 6.5461323905612105e+38
4603.603603603604 6.520796746047295e+38
4613.613613613614 6.495530066332849e+38
4623.623623623624 6.470332839568389e+38
4633.6336336336335 6.445205538729932e+38
4643.643643643643 6.420148621878069e+38
4653.653653653653 6.395162532413398e+38
4663.663663663663 6.3702476993284356e+38
4673.673673673674 6.345404537455946e+38
4683.683683683684 6.320633447713841e+38
4693.693693693694 6.295934817346532e+38
4703.703703703704 6.271309020162942e+38
4713.713713713714 6.246756416771073e+38
4723.723723723724 6.222277354809259e+38
4733.733733733734 6.197872169174075e+38
4743.743743743744 6.173541182244993e+38
4753.753753753754 6.149284704105795e+38
4763.763763763764 6.125103032762782e+38
4773.773773773773 6.100996454359783e+38
4783.783783783783 6.0769652433901046e+38
4793.793793793793 6.053009662905325e+38
4803.803803803804 6.029129964721029e+38
4813.813813813814 6.005326389619576e+38
4823.823823823824 5.9815991675498315e+38
4833.833833833834 5.9579485178239506e+38
4843.843843843844 5.934374649311292e+38
4853.853853853854 5.91087776062938e+38
4863.863863863864 5.887458040332092e+38
4873.873873873874 5.8641156670949926e+38
4883.883883883884 5.8408508098979e+38
4893.893893893894 5.817663628204725e+38
4903.9039039039035 5.794554272140601e+38
4913.913913913913 5.771522882666322e+38
4923.923923923924 5.748569591750169e+38
4933.933933933934 5.725694522537112e+38
4943.943943943944 5.702897789515445e+38
4953.953953953955 5.68017949868089e+38
4963.9639639639645 5.6575397476981895e+38
4973.973973973974 5.634978626060219e+38
4983.983983983984 5.612496215244666e+38
4993.993993993994 5.59009258886831e+38
5004.004004004004 5.567767812838883e+38
5014.014014014014 5.545521945504653e+38
5024.024024024024 5.523355037801612e+38
5034.0340340340335 5.501267133398456e+38
5044.044044044043 5.479258268839249e+38
5054.054054054054 5.457328473683898e+38
5064.064064064064 5.435477770646437e+38
5074.074074074074 5.413706175731117e+38
5084.084084084085 5.3920136983663804e+38
5094.0940940940945 5.3704003415367525e+38
5104.104104104104 5.3488661019125995e+38
5114.114114114114 5.327410969977897e+38
5124.124124124124 5.306034930155939e+38
5134.134134134134 5.284737960933071e+38
5144.144144144144 5.263520034980444e+38
5154.154154154154 5.242381119273861e+38
5164.1641641641645 5.221321175211681e+38
5174.174174174174 5.200340158730845e+38
5184.184184184184 5.179438020421064e+38
5194.194194194194 5.15861470563715e+38
5204.204204204204 5.1378701546095564e+38
5214.214214214214 5.117204302553137e+38
5224.224224224225 5.096617079774141e+38
5234.2342342342345 5.076108411775496e+38
5244.244244244244 5.0556782193603475e+38
5254.254254254254 5.0353264187339825e+38
5264.264264264264 5.015052921604004e+38
5274.274274274274 4.994857635278972e+38
5284.284284284285 4.974740462765361e+38
5294.294294294295 4.954701302862962e+38
5304.304304304304 4.934740050258704e+38
5314.314314314314 4.914856595618961e+38
5324.324324324324 4.895050825680311e+38
5334.334334334334 4.8753226233388145e+38
5344.344344344345 4.8556718677378085e+38
5354.354354354355 4.836098434354257e+38
5364.3643643643645 4.816602195083654e+38
5374.374374374374 4.797183018323536e+38
5384.384384384384 4.777840769055584e+38
5394.394394394394 4.758575308926367e+38
5404.404404404404 4.739386496326718e+38
5414.414414414415 4.720274186469812e+38
5424.424424424425 4.701238231467909e+38
5434.4344344344345 4.682278480407799e+38
5444.444444444444 4.663394779424986e+38
5454.454454454454 4.644586971776642e+38
5464.464464464464 4.62585489791328e+38
5474.474474474475 4.6071983955492456e+38
5484.484484484485 4.588617299732e+38
5494.494494494495 4.570111442910213e+38
5504.504504504504 4.5516806550007186e+38
5514.514514514514 4.5333247634542876e+38
5524.524524524524 4.515043593320323e+38
5534.534534534535 4.496836967310394e+38
5544.544544544545 4.478704705860714e+38
5554.554554554555 4.46064662719351e+38
5564.5645645645645 4.442662547377357e+38
5574.574574574574 4.424752280386462e+38
5584.584584584584 4.406915638158907e+38
5594.594594594595 4.389152430653874e+38
5604.604604604605 4.371462465907907e+38
5614.614614614615 4.353845550090151e+38
5624.624624624625 4.3363014875566396e+38
5634.6346346346345 4.318830080903636e+38
5644.644644644644 4.301431131020023e+38
5654.654654654654 4.284104437138781e+38
5664.664664664665 4.266849796887537e+38
5674.674674674675 4.249667006338247e+38
5684.684684684685 4.232555860055964e+38
5694.694694694695 4.215516151146764e+38
5704.704704704704 4.198547671304797e+38
5714.714714714714 4.181650210858516e+38
5724.724724724725 4.1648235588160466e+38
5734.734734734735 4.148067502909789e+38
5744.744744744745 4.131381829640161e+38
5754.754754754755 4.114766324318588e+38
5764.764764764765 4.0982207711097e+38
5774.774774774774 4.081744953072773e+38
5784.784784784785 4.0653386522024e+38
5794.794794794795 4.049001649468431e+38
5804.804804804805 4.03273372485518e+38
5814.814814814815 4.016534657399903e+38
5824.824824824825 4.0004042252305936e+38
5834.8348348348345 3.984342205603034e+38
5844.844844844845 3.968348374937227e+38
5854.854854854855 3.952422508853088e+38
5864.864864864865 3.936564382205504e+38
5874.874874874875 3.920773769118743e+38
5884.884884884885 3.9050504430201994e+38
5894.894894894895 3.889394176673523e+38
5904.9049049049045 3.873804742211121e+38
5914.914914914915 3.858281911166029e+38
5924.924924924925 3.842825454503219e+38
