#lamb flux
1000.0 1.279932551668233e+40
1010.01001001001 1.3091580480116441e+40
1020.0200200200201 1.3353992959953489e+40
1030.03003003003 1.3587627838565955e+40
1040.0400400400401 1.3793713439106528e+40
1050.05005005005 1.3973599875897435e+40
1060.06006006006 1.4128722324621489e+40
1070.07007007007 1.4260569136641936e+40
1080.08008008008 1.4370654588308248e+40
1090.0900900900901 1.4460495964709228e+40
1100.1001001001 1.4531594620156419e+40
1110.11011011011 1.4585420627551298e+40
1120.1201201201202 1.4623400619401194e+40
1130.13013013013 1.4646908429226008e+40
1140.1401401401401 1.4657258158972902e+40
1150.1501501501502 1.4655699322216426e+40
1160.16016016016 1.464341374150767e+40
1170.1701701701702 1.462151390905026e+40
1180.1801801801803 1.4591042551275998e+40
1190.1901901901902 1.4552973168677214e+40
1200.2002002002002 1.4508211351605298e+40
1210.2102102102103 1.445759670012796e+40
1220.2202202202202 1.440190520114204e+40
1230.2302302302303 1.4341851938620149e+40
1240.2402402402402 1.4278094033107305e+40
1250.2502502502502 1.4210363833865378e+40
1260.2602602602603 1.413665504626135e+40
1270.2702702702702 1.4052950555171556e+40
1280.2802802802803 1.396006423629208e+40
1290.2902902902902 1.3858774072399698e+40
1300.3003003003003 1.3749821370732553e+40
1310.3103103103103 1.363391039474433e+40
1320.3203203203202 1.3511708349247684e+40
1330.3303303303303 1.3383845663860172e+40
1340.3403403403404 1.325091652532172e+40
1350.3503503503503 1.311347961461033e+40
1360.3603603603603 1.2972059009801362e+40
1370.3703703703704 1.2827145220272527e+40
1380.3803803803803 1.2679196322142917e+40
1390.3903903903904 1.2528639168750352e+40
1400.4004004004005 1.2375870653524482e+40
1410.4104104104103 1.222125900581863e+40
1420.4204204204204 1.2065145103137612e+40
1430.4304304304305 1.190784378576269e+40
1440.4404404404404 1.1749645162050606e+40
1450.4504504504505 1.1590815894692118e+40
1460.4604604604606 1.1431600459981655e+40
1470.4704704704704 1.1272222373692783e+40
1480.4804804804805 1.1112885378498285e+40
1490.4904904904906 1.0953774589036627e+40
1500.5005005005005 1.0795057591729392e+40
1510.5105105105106 1.0636885497313832e+40
1520.5205205205207 1.0479393944788034e+40
1530.5305305305305 1.032270405608838e+40
1540.5405405405404 1.0166923341344946e+40
1550.5505505505505 1.0012146555002347e+40
1560.5605605605606 9.858456503463734e+39
1570.5705705705705 9.705924805225979e+39
1580.5805805805805 9.554612604732774e+39
1590.5905905905906 9.404571241391686e+39
1600.6006006006005 9.255842875387468e+39
1610.6106106106106 9.10846107208763e+39
1620.6206206206207 8.962451346984139e+39
1630.6306306306305 8.817831673256615e+39
1640.6406406406406 8.674612954183783e+39
1650.6506506506507 8.532799462781811e+39
1660.6606606606606 8.392389251216134e+39
1670.6706706706707 8.253374532729485e+39
1680.6806806806808 8.115742039060121e+39
1690.6906906906906 7.979473356603105e+39
1700.7007007007007 7.844570045322903e+39
1710.7107107107108 7.711101835959031e+39
1720.7207207207207 7.579021422156642e+39
1730.7307307307308 7.448266418061117e+39
1740.7407407407409 7.318773614326544e+39
1750.7507507507507 7.190479058797545e+39
1760.7607607607606 7.063318169697176e+39
1770.770770770771 6.937225889033515e+39
1780.7807807807808 6.812136885283187e+39
1790.7907907907907 6.68798581592038e+39
1800.8008008008007 6.564707662026898e+39
1810.8108108108108 6.442238149018744e+39
1820.8208208208207 6.320514269412218e+39
1830.8308308308308 6.199474925450448e+39
1840.8408408408409 6.079061711200363e+39
1850.8508508508507 5.959219855235747e+39
1860.8608608608608 5.839899345996919e+39
1870.870870870871 5.721056262027428e+39
1880.8808808808808 5.602654328092401e+39
1890.890890890891 5.484666715123852e+39
1900.900900900901 5.3670780963357665e+39
1910.9109109109108 5.249886962913021e+39
1920.920920920921 5.133108189539082e+39
1930.930930930931 5.016775821820288e+39
1940.940940940941 4.900946033651402e+39
1950.950950950951 4.7857001723228093e+39
1960.960960960961 4.6711477728470466e+39
1970.970970970971 4.557429381629625e+39
1980.980980980981 4.4447189855294056e+39
1990.9909909909911 4.333225799430047e+39
2001.001001001001 4.223195129337498e+39
2011.0110110110109 4.1149080061008067e+39
2021.0210210210212 4.0086792857169746e+39
2031.031031031031 3.904853944598197e+39
2041.0410410410411 3.803801369475196e+39
2051.051051051051 3.7059075555591716e+39
2061.061061061061 3.61156528119955e+39
2071.071071071071 3.5211625130510284e+39
2081.081081081081 3.4350694950830654e+39
2091.091091091091 3.353625163092949e+39
2101.101101101101 3.277123675514901e+39
2111.1111111111113 3.20580193434988e+39
2121.121121121121 3.139828967066372e+39
2131.131131131131 3.079297943370424e+39
2141.141141141141 3.0242214164909306e+39
2151.151151151151 2.9745301279309953e+39
2161.161161161161 2.930075428884201e+39
2171.1711711711714 2.8906350867352314e+39
2181.1811811811813 2.8559219953886136e+39
2191.191191191191 2.825595120244899e+39
2201.201201201201 2.799271898143641e+39
2211.2112112112113 2.7765412832205324e+39
2221.221221221221 2.7569766743435666e+39
2231.2312312312315 2.7401480635696074e+39
2241.2412412412414 2.7256328883306625e+39
2251.2512512512512 2.7130252321465828e+39
2261.261261261261 2.701943180669965e+39
2271.271271271271 2.692034286694058e+39
2281.2812812812813 2.6829792191317082e+39
2291.2912912912916 2.6744937616289324e+39
2301.3013013013015 2.666329385561556e+39
2311.3113113113113 2.658272652235894e+39
2321.321321321321 2.6501437049403014e+39
2331.331331331331 2.6417940988921882e+39
2341.3413413413414 2.6331041920163435e+39
2351.3513513513512 2.6239802872253872e+39
2361.3613613613616 2.6143516818450913e+39
2371.3713713713714 2.604167745325253e+39
2381.3813813813813 2.5933951146205748e+39
2391.391391391391 2.5820150689079765e+39
2401.4014014014015 2.570021122187115e+39
2411.4114114114113 2.5574168538190825e+39
2421.4214214214217 2.5442139828760593e+39
2431.4314314314315 2.5304306817856214e+39
2441.4414414414414 2.516090117555231e+39
2451.4514514514512 2.5012192042455793e+39
2461.4614614614616 2.485847547757339e+39
2471.4714714714714 2.4700065629050282e+39
2481.4814814814818 2.4537287427527754e+39
2491.4914914914916 2.4370470609389042e+39
2501.5015015015015 2.4199944889511564e+39
2511.5115115115113 2.402603611828401e+39
2521.521521521521 2.3849063274077473e+39
2531.5315315315315 2.3669336159015067e+39
2541.541541541542 2.3487153682041947e+39
2551.5515515515517 2.3302802628493093e+39
2561.5615615615616 2.311655682932409e+39
2571.5715715715714 2.2928676655781346e+39
2581.5815815815813 2.2739408776513007e+39
2591.5915915915916 2.2548986123998397e+39
2601.6016016016015 2.235762802577738e+39
2611.611611611612 2.2165540463395333e+39
2621.6216216216217 2.197291642835622e+39
2631.6316316316315 2.177993634981086e+39
2641.6416416416414 2.158676857331458e+39
2651.6516516516517 2.1393569873870646e+39
2661.6616616616616 2.1200485989734757e+39
2671.671671671672 2.1007652166176036e+39
2681.6816816816818 2.0815193700652073e+39
2691.6916916916916 2.06232264827273e+39
2701.7017017017015 2.0431857523606156e+39
2711.711711711712 2.0241185471417168e+39
2721.7217217217217 2.0051301109414918e+39
2731.731731731732 1.986228783510398e+39
2741.741741741742 1.9674222118963105e+39
2751.7517517517517 1.948717394198722e+39
2761.7617617617616 1.9301207211693818e+39
2771.7717717717715 1.9116380156575542e+39
2781.781781781782 1.8932745699242495e+39
2791.791791791792 1.875035180869645e+39
2801.801801801802 1.8569241832327787e+39
2811.811811811812 1.8389454808334005e+39
2821.8218218218217 1.821102575933368e+39
2831.8318318318316 1.803398596799806e+39
2841.841841841842 1.785836323555012e+39
2851.851851851852 1.7684182123992034e+39
2861.861861861862 1.7511464182919508e+39
2871.871871871872 1.7340228161769895e+39
2881.881881881882 1.7170490208331256e+39
2891.8918918918916 1.700226405431435e+39
2901.901901901902 1.6835561188760295e+39
2911.911911911912 1.6670391020025068e+39
2921.921921921922 1.6506761027047938e+39
2931.931931931932 1.6344676900576898e+39
2941.941941941942 1.6184142674988977e+39
2951.9519519519517 1.6025160851308994e+39
2961.961961961962 1.586773251199637e+39
2971.971971971972 1.571185742803629e+39
2981.9819819819822 1.5557534158839866e+39
2991.991991991992 1.540476014542687e+39
3002.002002002002 1.5253531797335438e+39
3012.012012012012 1.5103844573675013e+39
3022.0220220220217 1.4955693058712083e+39
3032.032032032032 1.485573268180465e+39
3042.0420420420423 1.4704540547606225e+39
3052.052052052052 1.455331359947038e+39
3062.062062062062 1.4402509842517018e+39
3072.072072072072 1.4252516805884413e+39
3082.0820820820823 1.4103659405818367e+39
3092.092092092092 1.3956207138432892e+39
3102.102102102102 1.3810380627566144e+39
3112.1121121121123 1.3666357560021044e+39
3122.122122122122 1.3524278044821607e+39
3132.132132132132 1.338424943550475e+39
3142.1421421421423 1.3246350655369728e+39
3152.152152152152 1.3110636065400331e+39
3162.162162162162 1.2977138913564686e+39
3172.1721721721724 1.2845874402621331e+39
3182.1821821821823 1.2716842411610115e+39
3192.192192192192 1.2590029904026116e+39
3202.202202202202 1.246541305337799e+39
3212.2122122122123 1.2342959114500448e+39
3222.222222222222 1.2222628066687074e+39
3232.232232232232 1.2104374052477499e+39
3242.2422422422424 1.1988146633802115e+39
3252.252252252252 1.187389188517715e+39
3262.262262262262 1.1761553341764838e+39
3272.2722722722724 1.1651072818371833e+39
3282.2822822822823 1.1542391113855006e+39
3292.292292292292 1.143544861393385e+39
3302.3023023023025 1.1330185804068702e+39
3312.3123123123123 1.122654370284603e+39
3322.322322322322 1.1124464225209977e+39
3332.3323323323325 1.1023890483883276e+39
3342.3423423423424 1.0924767036424637e+39
3352.352352352352 1.0827040084562967e+39
3362.3623623623625 1.073065763172608e+39
3372.3723723723724 1.0635569604033013e+39
3382.3823823823823 1.0541727939438659e+39
3392.3923923923926 1.044908664920137e+39
3402.4024024024025 1.0357601855379922e+39
3412.4124124124123 1.0267231807652686e+39
3422.4224224224226 1.0177936882382327e+39
3432.4324324324325 1.008967956651969e+39
3442.4424424424424 1.000242442864622e+39
3452.4524524524522 9.916138079192061e+38
3462.4624624624626 9.83078912163265e+38
3472.4724724724724 9.746348096257893e+38
3482.4824824824823 9.662787417921231e+38
3492.4924924924926 9.580081309009921e+38
3502.5025025025025 9.498205728728695e+38
3512.5125125125123 9.417138299656653e+38
3522.5225225225226 9.336858232418432e+38
3532.5325325325325 9.257346249204675e+38
3542.5425425425424 9.178584506782261e+38
3552.5525525525527 9.100556519549914e+38
3562.5625625625626 9.023247083119218e+38
3572.5725725725724 8.946642198833301e+38
3582.5825825825827 8.87072899957508e+38
3592.5925925925926 8.795495677162787e+38
3602.6026026026025 8.720931411582361e+38
3612.612612612613 8.647026302263151e+38
3622.6226226226227 8.573771301564975e+38
3632.6326326326325 8.501158150610404e+38
3642.642642642643 8.429179317565821e+38
3652.6526526526527 8.357827938447618e+38
3662.6626626626626 8.287097760506126e+38
3672.672672672673 8.216983088218791e+38
3682.6826826826828 8.147478731905413e+38
3692.6926926926926 8.078579958961966e+38
3702.7027027027025 8.010282447695253e+38
3712.712712712713 7.942582243728359e+38
3722.7227227227227 7.87547571893607e+38
3732.7327327327325 7.808959532860124e+38
3742.742742742743 7.743030596546746e+38
3752.7527527527527 7.67768603874191e+38
3762.7627627627626 7.612923174374711e+38
3772.772772772773 7.54873947525465e+38
3782.7827827827828 7.485132542905162e+38
3792.7927927927926 7.422100083453065e+38
3802.802802802803 7.359639884491744e+38
3812.812812812813 7.297749793834443e+38
3822.8228228228227 7.236427700073488e+38
3832.832832832833 7.175671514861056e+38
3842.842842842843 7.115479156827357e+38
3852.8528528528527 7.055848537052805e+38
3862.862862862863 6.99677754601184e+38
3872.872872872873 6.938264041907406e+38
3882.8828828828828 6.880305840316501e+38
3892.892892892893 6.822900705069608e+38
3902.902902902903 6.7660463402880776e+38
3912.912912912913 6.7097403835064285e+38
3922.922922922923 6.6539803998083934e+38
3932.932932932933 6.5987638769082706e+38
3942.942942942943 6.544088221111331e+38
3952.9529529529527 6.489950754089899e+38
3962.962962962963 6.4363487104141665e+38
3972.972972972973 6.383279235779336e+38
3982.982982982983 6.3307393858735446e+38
3992.992992992993 6.278726125833344e+38
4003.003003003003 6.227236330236449e+38
4013.013013013013 6.176266783583607e+38
4023.023023023023 6.1258141812243346e+38
4033.033033033033 6.075875130683527e+38
4043.043043043043 6.0264461533483615e+38
4053.053053053053 5.977523686477412e+38
4063.063063063063 5.929104085495932e+38
4073.073073073073 5.881183626543727e+38
4083.0830830830832 5.833758509243975e+38
4093.093093093093 5.786824859663535e+38
4103.103103103103 5.7403787334371705e+38
4113.113113113113 5.694416119030165e+38
4123.123123123123 5.648932941115358e+38
4133.133133133133 5.603925064042728e+38
4143.143143143143 5.5593882953810116e+38
4153.153153153153 5.515318389512576e+38
4163.163163163163 5.471711051264215e+38
4173.173173173173 5.4285619395580306e+38
4183.183183183183 5.38586667106785e+38
4193.193193193193 5.343620823867895e+38
4203.203203203203 5.301819941061722e+38
4213.213213213214 5.260459534380537e+38
4223.223223223224 5.2195350877409726e+38
4233.2332332332335 5.179042060753619e+38
4243.243243243243 5.1389758921743325e+38
4253.253253253253 5.099332003291418e+38
4263.263263263263 5.060105801242465e+38
4273.273273273273 5.021292682255437e+38
4283.283283283283 4.982888034809371e+38
4293.293293293293 4.944887242710685e+38
4303.303303303303 4.907285688081633e+38
4313.313313313313 4.8700787542581856e+38
4323.323323323323 4.8332618285949554e+38
4333.333333333334 4.796830305175452e+38
4343.343343343344 4.760779587426253e+38
4353.353353353354 4.72510509063418e+38
4363.3633633633635 4.689802244365913e+38
4373.373373373373 4.6548664947898374e+38
4383.383383383383 4.620293306900197e+38
4393.393393393393 4.586078166643954e+38
4403.403403403403 4.552216582950996e+38
4413.413413413413 4.5187040896685266e+38
4423.423423423424 4.48553624740077e+38
4433.4334334334335 4.4527086452552194e+38
4443.443443443443 4.420216902496847e+38
4453.453453453454 4.388056670111872e+38
4463.463463463464 4.356223632282816e+38
4473.473473473474 4.324713507776551e+38
4483.483483483484 4.293522051247389e+38
4493.493493493494 4.2626450544570775e+38
4503.503503503503 4.232078347413843e+38
4513.513513513513 4.20181779943255e+38
4523.523523523523 4.1718593201181075e+38
4533.533533533533 4.1421988602744196e+38
4543.543543543543 4.1128324127409415e+38
4553.553553553554 4.0837560131591966e+38
4563.563563563564 4.054965740671453e+38
4573.573573573573 4.026457718553769e+38
4583.583583583584 3.9982281147856994e+38
4593.593593593594 3.970273142558847e+38
4603.603603603604 3.9425890607264776e+38
4613.613613613614 3.9151721741964206e+38
4623.623623623624 3.888018834269346e+38
4633.6336336336335 3.8611254389246404e+38
4643.643643643643 3.8344884330559236e+38
4653.653653653653 3.808104308658297e+38
4663.663663663663 3.781969604969352e+38
4673.673673673674 3.756080908565939e+38
4683.683683683684 3.730434853418645e+38
4693.693693693694 3.7050281209058745e+38
4703.703703703704 3.679857439789423e+38
4713.713713713714 3.6549195861533505e+38
4723.723723723724 3.630211383307927e+38
4733.733733733734 3.605729701660377e+38
4743.743743743744 3.581471458554124e+38
4753.753753753754 3.557433618078143e+38
4763.763763763764 3.533613190848032e+38
4773.773773773773 3.5100072337602985e+38
4783.783783783783 3.486612849721444e+38
4793.793793793793 3.463427187353187e+38
4803.803803803804 3.4404474406752844e+38
4813.813813813814 3.41767084876732e+38
4823.823823823824 3.3950946954107144e+38
4833.833833833834 3.372716308712269e+38
4843.843843843844 3.3505330607104514e+38
4853.853853853854 3.3285423669655842e+38
4863.863863863864 3.306741686135092e+38
4873.873873873874 3.285128519534895e+38
4883.883883883884 3.2637004106879985e+38
4893.893893893894 3.2424549448612925e+38
4903.9039039039035 3.2213897485915308e+38
4913.913913913913 3.2005024892014433e+38
4923.923923923924 3.1797908743068472e+38
4933.933933933934 3.1592526513156645e+38
4943.943943943944 3.138885606919614e+38
4953.953953953955 3.1186875665794317e+38
4963.9639639639645 3.0986563940043424e+38
4973.973973973974 3.0787899906264975e+38
4983.983983983984 3.0590862950711226e+38
4993.993993993994 3.039543282622985e+38
5004.004004004004 3.0201589646898437e+38
5014.014014014014 3.0009313882635016e+38
5024.024024024024 2.9818586353789737e+38
5034.0340340340335 2.9629388225724245e+38
5044.044044044043 2.944170100338287e+38
5054.054054054054 2.9255506525861453e+38
5064.064064064064 2.90707869609782e+38
5074.074074074074 2.888752479985093e+38
5084.084084084085 2.870570285148537e+38
5094.0940940940945 2.8525304237378275e+38
5104.104104104104 2.8346312386139205e+38
5114.114114114114 2.816871102813473e+38
5124.124124124124 2.7992484190158393e+38
5134.134134134134 2.781761619012975e+38
5144.144144144144 2.7644091631825323e+38
5154.154154154154 2.7471895399644708e+38
5164.1641641641645 2.730101265341416e+38
5174.174174174174 2.7131428823230465e+38
5184.184184184184 2.6963129604347267e+38
5194.194194194194 2.67961009521062e+38
5204.204204204204 2.6630329076914988e+38
5214.214214214214 2.6465800439274136e+38
5224.224224224225 2.6302501744854274e+38
5234.2342342342345 2.61404199396258e+38
5244.244244244244 2.597954220504214e+38
5254.254254254254 2.5819855953278374e+38
5264.264264264264 2.5661348822526166e+38
5274.274274274274 2.5504008672346547e+38
5284.284284284285 2.53478235790813e+38
5294.294294294295 2.519278183132423e+38
5304.304304304304 2.5038871925452832e+38
5314.314314314314 2.488608256122163e+38
5324.324324324324 2.473440263741735e+38
5334.334334334334 2.458382124757703e+38
5344.344344344345 2.4434327675769138e+38
5354.354354354355 2.428591139243863e+38
5364.3643643643645 2.4138562050315784e+38
5374.374374374374 2.399226948038963e+38
5384.384384384384 2.3847023687945843e+38
5394.394394394394 2.3702814848669414e+38
5404.404404404404 2.3559633304812213e+38
5414.414414414415 2.3417469561425447e+38
5424.424424424425 2.327631428265704e+38
5434.4344344344345 2.313615828811378e+38
5444.444444444444 2.2996992549288247e+38
5454.454454454454 2.2858808186050333e+38
5464.464464464464 2.2721596463203012e+38
5474.474474474475 2.258534878710227e+38
5484.484484484485 2.2450056702340824e+38
5494.494494494495 2.2315711888495305e+38
5504.504504504504 2.2182306156936504e+38
5514.514514514514 2.2049831447702317e+38
5524.524524524524 2.191827982643302e+38
5534.534534534535 2.1787643481368215e+38
5544.544544544545 2.1657914720405118e+38
5554.554554554555 2.1529085968217556e+38
5564.5645645645645 2.1401149763435246e+38
5574.574574574574 2.1274098755882633e+38
5584.584584584584 2.1147925703876816e+38
5594.594594594595 2.1022623471583757e+38
5604.604604604605 2.0898185026432588e+38
5614.614614614615 2.077460343658657e+38
5624.624624624625 2.0651871868470927e+38
5634.6346346346345 2.0529983584356232e+38
5644.644644644644 2.0408931939996855e+38
5654.654654654654 2.0288710382323904e+38
5664.664664664665 2.0169312447191536e+38
5674.674674674675 2.0050731757176535e+38
5684.684684684685 1.9932962019429627e+38
5694.694694694695 1.98159970235785e+38
5704.704704704704 1.96998306396813e+38
5714.714714714714 1.9584456816230087e+38
5724.724724724725 1.9469869578203298e+38
5734.734734734735 1.9356063025166654e+38
5744.744744744745 1.9243031329421507e+38
5754.754754754755 1.913076873419996e+38
5764.764764764765 1.9019269551906094e+38
5774.774774774774 1.890852816240222e+38
5784.784784784785 1.879853901133968e+38
5794.794794794795 1.8689296608533163e+38
5804.804804804805 1.8580795526377972e+38
5814.814814814815 1.847303039830923e+38
5824.824824824825 1.8365995917302493e+38
5834.8348348348345 1.8259686834414715e+38
5844.844844844845 1.8154097957365126e+38
5854.854854854855 1.8049224149154832e+38
5864.864864864865 1.794506032672476e+38
5874.874874874875 1.7841601459651003e+38
5884.884884884885 1.7738842568876747e+38
