#lamb flux
1000.0 2.311019478210556
1010.01001001001 2.3706346769728914
1020.0200200200201 2.426850193706156
1030.03003003003 2.4797188925469142
1040.0400400400401 2.5293107869637046
1050.05005005005 2.5757100480921253
1060.06006006006 2.619012288467341
1070.07007007007 2.6593221206668507
1080.08008008008 2.696750984022004
1090.0900900900901 2.731415227905067
1100.1001001001 2.763434436862188
1110.11011011011 2.7929299807796757
1120.1201201201202 2.8200237721100914
1130.13013013013 2.844837211745787
1140.1401401401401 2.867490305239531
1150.1501501501502 2.888100931592898
1160.16016016016 2.9067842476454424
1170.1701701701702 2.923652212106653
1180.1801801801803 2.938813214402779
1190.1901901901902 2.952371794702636
1200.2002002002002 2.964428442695692
1210.2102102102103 2.9750794638877376
1220.2202202202202 2.9844169033305583
1230.2302302302303 2.9925285177947663
1240.2402402402402 2.9994977884187866
1250.2502502502502 3.0052986848285403
1260.2602602602603 3.0096927161029017
1270.2702702702702 3.01218844467655
1280.2802802802803 3.012877813020104
1290.2902902902902 3.0118508686243084
1300.3003003003003 3.0091955399286605
1310.3103103103103 3.004997452147537
1320.3203203203202 2.999339778879898
1330.3303303303303 2.9923031256658588
1340.3403403403404 2.9839654419301924
1350.3503503503503 2.974401958025669
1360.3603603603603 2.963685144354181
1370.3703703703704 2.951884689798677
1380.3803803803803 2.9390674969419615
1390.3903903903904 2.925297691778625
1400.4004004004005 2.910636645842473
1410.4104104104103 2.895143008874014
1420.4204204204204 2.8788727503404017
1430.4304304304305 2.861879208294017
1440.4404404404404 2.844213144216144
1450.4504504504505 2.825922802639087
1460.4604604604606 2.8070539744746488
1470.4704704704704 2.7876500630993313
1480.4804804804805 2.7677521523581214
1490.4904904904906 2.747399075749674
1500.5005005005005 2.726627486146994
1510.5105105105106 2.7054719254902078
1520.5205205205207 2.683964893962308
1530.5305305305305 2.6621369182256007
1540.5405405405404 2.640016618356938
1550.5505505505505 2.6176307731741613
1560.5605605605606 2.5950043836952905
1570.5705705705705 2.5721607345168565
1580.5805805805805 2.549121452938662
1590.5905905905906 2.525906565700376
1600.6006006006005 2.5025345532312153
1610.6106106106106 2.4790224013485327
1620.6206206206207 2.455385650375058
1630.6306306306305 2.431638441679262
1640.6406406406406 2.4077935616792914
1650.6506506506507 2.3838624833899225
1660.6606606606606 2.3598554056349714
1670.6706706706707 2.3357812900963797
1680.6806806806808 2.3116478964274148
1690.6906906906906 2.2874618157232818
1700.7007007007007 2.2632325975140226
1710.7107107107108 2.238980870633948
1720.7207207207207 2.2147077403029525
1730.7307307307308 2.1904113330695685
1740.7407407407409 2.166089134753707
1750.7507507507507 2.1417380023733688
1760.7607607607606 2.1173541810889698
1770.770770770771 2.092933327650865
1780.7807807807808 2.0684705421413083
1790.7907907907907 2.0439604101567186
1800.8008008008007 2.019397057982772
1810.8108108108108 1.994774223774944
1820.8208208208207 1.9700853482682594
1830.8308308308308 1.9453236890951655
1840.8408408408409 1.9204824633745514
1850.8508508508507 1.8955550238228058
1860.8608608608608 1.870535074189094
1870.870870870871 1.8454169302726093
1880.8808808808808 1.8201958330550412
1890.890890890891 1.7948683204624232
1900.900900900901 1.7694326638066107
1910.9109109109108 1.743889373858212
1920.920920920921 1.71824177954195
1930.930930930931 1.6924966791616434
1940.940940940941 1.6666650595811805
1950.950950950951 1.6407628726531294
1960.960960960961 1.6148118502112137
1970.970970970971 1.5888403290831228
1980.980980980981 1.5628840460320683
1990.9909909909911 1.5369868498459747
2001.001001001001 1.5112012649701705
2011.0110110110109 1.485588829672499
2021.0210210210212 1.4602201238392707
2031.031031031031 1.4351743996666138
2041.0410410410411 1.4105387354361296
2051.051051051051 1.3864066506424935
2061.061061061061 1.3628761514303231
2071.071071071071 1.3400472184113228
2081.081081081081 1.3180188020292467
2091.091091091091 1.2968854487345083
2101.101101101101 1.2767337370355807
2111.1111111111113 1.25763874732552
2121.121121121121 1.2396608146653265
2131.131131131131 1.2228428128249993
2141.141141141141 1.207208187904603
2151.151151151151 1.1927599026208808
2161.161161161161 1.1794803745231595
2171.1711711711714 1.167332403416783
2181.1811811811813 1.1562609972942384
2191.191191191191 1.146195933629268
2201.201201201201 1.13705484269587
2211.2112112112113 1.128746576141996
2221.221221221221 1.1211746273124814
2231.2312312312315 1.1142403957623337
2241.2412412412414 1.107846130382242
2251.2512512512512 1.1018974358806624
2261.261261261261 1.0963052787510421
2271.271271271271 1.090987475478377
2281.2812812812813 1.0858696837730246
2291.2912912912916 1.080885945258833
2301.3013013013015 1.0759788452081391
2311.3113113113113 1.0710993627606415
2321.321321321321 1.066206485442064
2331.331331331331 1.0612666568098925
2341.3413413413414 1.0562531176991674
2351.3513513513512 1.0511451915200674
2361.3613613613616 1.0459275536760737
2371.3713713713714 1.04058951533156
2381.3813813813813 1.03512434301189
2391.391391391391 1.0295286281360927
2401.4014014014015 1.023801714625252
2411.4114114114113 1.0179451881263384
2421.4214214214217 1.0119624269905412
2431.4314314314315 1.0058582127604092
2441.4414414414414 0.9996383963581313
2451.4514514514512 0.9933096152465763
2461.4614614614616 0.9868790563955004
2471.4714714714714 0.9803542597934756
2481.4814814814818 0.9737429573931972
2491.4914914914916 0.9670529426794935
2501.5015015015015 0.9602919664416342
2511.5115115115113 0.9534676547678015
2521.521521521521 0.9465874457268805
2531.5315315315315 0.9396585416389572
2541.541541541542 0.9326878742468527
2551.5515515515517 0.9256820804786721
2561.5615615615616 0.918647486831778
2571.5715715715714 0.9115901007108784
2581.5815815815813 0.9045156073180639
2591.5915915915916 0.8974293709228877
2601.6016016016015 0.8903364395387697
2611.611611611612 0.8832415522014389
2621.6216216216217 0.8761491481889455
2631.6316316316315 0.8690633776442356
2641.6416416416414 0.8619881131632828
2651.6516516516517 0.8549269619970419
2661.6616616616616 0.8478832785864319
2671.671671671672 0.8408601772083517
2681.6816816816818 0.8338605445592145
2691.6916916916916 0.8268870521423027
2701.7017017017015 0.8199421683578089
2711.711711711712 0.813028170220907
2721.7217217217217 0.8061471546546267
2731.731731731732 0.7993010493215291
2741.741741741742 0.7924916229719767
2751.7517517517517 0.785720495297658
2761.7617617617616 0.7789891462876372
2771.7717717717715 0.7722989250907877
2781.781781781782 0.7656510583935836
2791.791791791792 0.7590466583259916
2801.801801801802 0.7524867299109854
2811.811811811812 0.7459721780751404
2821.8218218218217 0.7395038142390487
2831.8318318318316 0.7330823625070381
2841.841841841842 0.7267084654760158
2851.851851851852 0.720382689683278
2861.861861861862 0.7141055307128803
2871.871871871872 0.7078774179797436
2881.881881881882 0.701698719210117
2891.8918918918916 0.6955697446363402
2901.901901901902 0.6894907509231274
2911.911911911912 0.6834619448418153
2921.921921921922 0.6774834867082243
2931.931931931932 0.6715554935989737
2941.941941941942 0.6656780423602836
2951.9519519519517 0.6598511724225221
2961.961961961962 0.6540748884329752
2971.971971971972 0.6483491627185775
2981.9819819819822 0.6426739375896304
2991.991991991992 0.6370491274948483
3002.002002002002 0.631474621037422
3012.012012012012 0.6259502828611712
3022.0220220220217 0.6204759554152761
3032.032032032032 0.616159777890847
3042.0420420420423 0.6106413148138395
3052.052052052052 0.6051350639186626
3062.062062062062 0.5996517619318681
3072.072072072072 0.5942005171439292
3082.0820820820823 0.5887889891859879
3092.092092092092 0.5834235528423705
3102.102102102102 0.5781094468428984
3112.1121121121123 0.5728509086199308
3122.122122122122 0.5676512960267045
3132.132132132132 0.5625131970032042
3142.1421421421423 0.5574385281492944
3152.152152152152 0.5524286231268538
3162.162162162162 0.5474843117669347
3172.1721721721724 0.5426059907073696
3182.1821821821823 0.5377936863330863
3192.192192192192 0.533047110737333
3202.202202202202 0.5283657113684048
3212.2122122122123 0.5237487149741816
3222.222222222222 0.5191951664065452
3232.232232232232 0.5147039627999771
3242.2422422422424 0.5102738835936321
3252.252252252252 0.5059036168240542
3262.262262262262 0.5015917820765685
3272.2722722722724 0.49733695044715226
3282.2822822822823 0.4931376618332367
3292.292292292292 0.48899243984127355
3302.3023023023025 0.4848998045708998
3312.3123123123123 0.4808582835099887
3322.322322322322 0.47686642075161756
3332.3323323323325 0.47292278472286325
3342.3423423423424 0.46902597459617956
3352.352352352352 0.4651746255367589
3362.3623623623625 0.4613674129236079
3372.3723723723724 0.45760305566787746
3382.3823823823823 0.45388031873919304
3392.3923923923926 0.45019801499921264
3402.4024024024025 0.44655500643120594
3412.4124124124123 0.4429502048450966
3422.4224224224226 0.4393825721289598
3432.4324324324325 0.4358511201103693
3442.4424424424424 0.43235491008413757
3452.4524524524522 0.42889305205684963
3462.4624624624626 0.4254647037530394
3472.4724724724724 0.4220690694228812
3482.4824824824823 0.41870539848677546
3492.4924924924926 0.4153729840481907
3502.5025025025025 0.41207116130247995
3512.5125125125123 0.4087993058661417
3522.5225225225226 0.4055568320480592
3532.5325325325325 0.40234319108161387
3542.5425425425424 0.39915786933420877
3552.5525525525527 0.3960003865086054
3562.5625625625626 0.39287029384857136
3572.5725725725724 0.3897671723596185
3582.5825825825827 0.38669063105408696
3592.5925925925926 0.3836403052284398
3602.6026026026025 0.3806158547794121
3612.612612612613 0.377616962564556
3622.6226226226227 0.3746433328117319
3632.6326326326325 0.3716946895812315
3642.642642642643 0.36877077528343183
3652.6526526526527 0.3658713492541886
3662.6626626626626 0.3629961863895573
3672.672672672673 0.3601450758409051
3682.6826826826828 0.3573178197709787
3692.6926926926926 0.35451423217109035
3702.7027027027025 0.3517341377392083
3712.712712712713 0.3489773708184265
3722.7227227227227 0.3462437743950118
3732.7327327327325 0.3435331991549836
3742.742742742743 0.34084550259799573
3752.7527527527527 0.33818054820710447
3762.7627627627626 0.3355382046728768
3772.772772772773 0.3329183451701771
3782.7827827827828 0.33032084668587064
3792.7927927927926 0.3277455893956219
3802.802802802803 0.32519245608790526
3812.812812812813 0.3226613316333103
3822.8228228228227 0.3201521024972025
3832.832832832833 0.3176646562937919
3842.842842842843 0.31519888137966084
3852.8528528528527 0.31275466648481776
3862.862862862863 0.31033190037935965
3872.872872872873 0.30793047157386094
3882.8828828828828 0.3055502680516289
3892.892892892893 0.30319117703102505
3902.902902902903 0.3008530847560722
3912.912912912913 0.29853587631363626
3922.922922922923 0.2962394354755115
3932.932932932933 0.2939636445637991
3942.942942942943 0.2917083843380146
3952.9529529529527 0.2894735339024329
3962.962962962963 0.28725897063222267
3972.972972972973 0.2850645701169917
3982.982982982983 0.2828902061204169
3992.992992992993 0.2807357505546962
4003.003003003003 0.2786010734686207
4013.013013013013 0.27648604304811286
4023.023023023023 0.27439052562814664
4033.033033033033 0.27231438571501504
4043.043043043043 0.27025748601796457
4053.053053053053 0.26821968748927466
4063.063063063063 0.266200849371908
4073.073073073073 0.2642008292539108
4083.0830830830832 0.2622194831287915
4093.093093093093 0.2602566654611517
4103.103103103103 0.25831222925689107
4113.113113113113 0.25638602613735423
4123.123123123123 0.2544779064168199
4133.133133133133 0.2525877191827897
4143.143143143143 0.2507153123785578
4153.153153153153 0.24886053288758758
4163.163163163163 0.2470232266192545
4173.173173173173 0.2452032385955497
4183.183183183183 0.2434004130383695
4193.193193193193 0.24161459345704586
4203.203203203203 0.23984562273580415
4213.213213213214 0.2380933432208609
4223.223223223224 0.2363575968068972
4233.2332332332335 0.23463822502267273
4243.243243243243 0.2329350691155642
4253.253253253253 0.23124797013483653
4263.263263263263 0.22957676901347268
4273.273273273273 0.22792130664841073
4283.283283283283 0.22628142397904769
4293.293293293293 0.22465696206389835
4303.303303303303 0.22304776215529684
4313.313313313313 0.22145366577205938
4323.323323323323 0.21987451477002726
4333.333333333334 0.21831015141042925
4343.343343343344 0.2167604184260129
4353.353353353354 0.21522515908490078
4363.3633633633635 0.21370421725214334
4373.373373373373 0.21219743744894673
4383.383383383383 0.21070466490955986
4393.393393393393 0.2092257456358183
4403.403403403403 0.20776052644934398
4413.413413413413 0.20630885504140853
4423.423423423424 0.20487058002047726
4433.4334334334335 0.20344555095744737
4443.443443443443 0.20203361842860962
4453.453453453454 0.20063463405635637
4463.463463463464 0.1992484505476746
4473.473473473474 0.19787492173045032
4483.483483483484 0.19651390258763182
4493.493493493494 0.19516524928928644
4503.503503503503 0.19382881922259754
4513.513513513513 0.19250447101984633
4523.523523523523 0.19119206458442353
4533.533533533533 0.18989146111492508
4543.543543543543 0.18860252312737413
4553.553553553554 0.18732511447562647
4563.563563563564 0.1860591003700076
4573.573573573573 0.18480434739423385
4583.583583583584 0.18356072352067085
4593.593593593594 0.18232809812398146
4603.603603603604 0.18110634199321496
4613.613613613614 0.1798953273423929
4623.623623623624 0.17869492781963903
4633.6336336336335 0.17750501851491063
4643.643643643643 0.1763254759663799
4653.653653653653 0.17515617816551615
4663.663663663663 0.1739970045609212
4673.673673673674 0.17284783606096574
4683.683683683684 0.1717085550352775
4693.693693693694 0.17057904531512788
4703.703703703704 0.16945919219276528
4713.713713713714 0.16834888241974127
4723.723723723724 0.1672480042042757
4733.733733733734 0.16615644720770353
4743.743743743744 0.16507410254005
4753.753753753754 0.16400086275477319
4763.763763763764 0.16293662184271832
4773.773773773773 0.16188127522532145
4783.783783783783 0.1608347197471061
4793.793793793793 0.15979685366750554
4803.803803803804 0.15876757665205268
4813.813813813814 0.1577467897629719
4823.823823823824 0.1567343954492069
4833.833833833834 0.1557302975359206
4843.843843843844 0.1547344012134991
4853.853853853854 0.15374661302609038
4863.863863863864 0.15276684085971148
4873.873873873874 0.15179499392995066
4883.883883883884 0.15083098276929632
4893.893893893894 0.14987471921411832
4903.9039039039035 0.14892611639133022
4913.913913913913 0.14798508870475616
4923.923923923924 0.14705155182122986
4933.933933933934 0.1461254226564486
4943.943943943944 0.14520661936060336
4953.953953953955 0.1442950613038111
4963.9639639639645 0.14339066906136777
4973.973973973974 0.14249336439884216
4983.983983983984 0.14160307025703278
4993.993993993994 0.14071971073680406
5004.004004004004 0.13984321108382053
5014.014014014014 0.13897349767319778
5024.024024024024 0.13811049799408326
5034.0340340340335 0.1372541406341871
5044.044044044043 0.1364043552642737
5054.054054054054 0.13556107262263123
5064.064064064064 0.13472422449953214
5074.074074074074 0.13389374372169616
5084.084084084085 0.1330695641367703
5094.0940940940945 0.13225162059783674
5104.104104104104 0.13143984894795877
5114.114114114114 0.1306341860047772
5124.124124124124 0.12983456954516576
5134.134134134134 0.12904093828995591
5144.144144144144 0.12825323188873944
5154.154154154154 0.12747139090475745
5164.1641641641645 0.12669535679988425
5174.174174174174 0.12592507191971258
5184.184184184184 0.12516047947874848
5194.194194194194 0.12440152354572068
5204.204204204204 0.12364814902901367
5214.214214214214 0.12290030166222612
5224.224224224225 0.12215792798986397
5234.2342342342345 0.1214209753531705
5244.244244244244 0.12068939187609963
5254.254254254254 0.1199631264514359
5264.264264264264 0.11924212872706476
5274.274274274274 0.11852634909239868
5284.284284284285 0.11781573866496005
5294.294294294295 0.11711024927712528
5304.304304304304 0.11640983346303255
5314.314314314314 0.11571444444565587
5324.324324324324 0.11502403612404703
5334.334334334334 0.11433856306074829
5344.344344344345 0.11365798046937674
5354.354354354355 0.11298224420238265
5364.3643643643645 0.11231131073898178
5374.374374374374 0.11164513717326452
5384.384384384384 0.11098368120248103
5394.394394394394 0.11032690111550407
5404.404404404404 0.10967475578146954
5414.414414414415 0.10902720463859525
5424.424424424425 0.10838420768317844
5434.4344344344345 0.10774572545877097
5444.444444444444 0.10711171904553277
5454.454454454454 0.10648215004976393
5464.464464464464 0.10585698059361344
5474.474474474475 0.10523617330496503
5484.484484484485 0.10461969130749947
5494.494494494495 0.1040074982109319
5504.504504504504 0.10339955810142405
5514.514514514514 0.10279583553216952
5524.524524524524 0.1021962955141521
5534.534534534535 0.10160090350707478
5544.544544544545 0.10100962541045895
5554.554554554555 0.10042242755491193
5564.5645645645645 0.099839276693562
5574.574574574574 0.09926013999365911
5584.584584584584 0.0986849850283393
5594.594594594595 0.09811377976855164
5604.604604604605 0.09754649257514697
5614.614614614615 0.09698309219112392
5624.624624624625 0.09642354773403368
5634.6346346346345 0.09586782868853999
5644.644644644644 0.09531590489913189
5654.654654654654 0.09476774656298949
5664.664664664665 0.09422332422299799
5674.674674674675 0.09368260876091138
5684.684684684685 0.09314557139065988
5694.694694694695 0.09261218365180282
5704.704704704704 0.09208241740312266
5714.714714714714 0.09155624481635855
5724.724724724725 0.09103363837007789
5734.734734734735 0.0905145708436835
5744.744744744745 0.08999901531155391
5754.754754754755 0.0894869451373151
5764.764764764765 0.08897833396824206
5774.774774774774 0.08847315572978687
5784.784784784785 0.08797138462023207
5794.794794794795 0.08747299510546708
5804.804804804805 0.0869779619138853
5814.814814814815 0.08648626003139993
5824.824824824825 0.0859978646965767
5834.8348348348345 0.08551275139588048
5844.844844844845 0.08503089585903532
5854.854854854855 0.08455227405449385
5864.864864864865 0.08407686218501538
5874.874874874875 0.08360463668335062
5884.884884884885 0.08313557420802986
5894.894894894895 0.08266965163925377
5904.9049049049045 0.08220684607488433
5914.914914914915 0.08174713482653373
5924.924924924925 0.08129049541574969
5934.934934934935 0.08083690557029441
5944.944944944945 0.08038634322051666
5954.954954954955 0.07993878649581343
5964.964964964965 0.07949421372118035
5974.974974974975 0.07905260341384855
5984.984984984985 0.07861393428000636
5994.994994994995 0.07817818521160351
6005.005005005005 0.07774533528323656
6015.015015015015 0.07731536374911355
6025.025025025025 0.07688825004009618
6035.035035035035 0.07646397376081714
6045.045045045045 0.07604251468687216
6055.055055055055 0.07562385276208375
6065.065065065065 0.07520796809583559
6075.075075075075 0.07479484096047614
6085.085085085085 0.0743844517887891
6095.0950950950955 0.07397678117152988
6105.105105105105 0.07357180985502618
6115.115115115115 0.0731695187388406
6125.125125125125 0.07276988887349498
6135.135135135135 0.07237290145825381
6145.145145145145 0.07197853783896563
6155.155155155155 0.07158677950596128
6165.1651651651655 0.07119760809200697
6175.175175175175 0.07081100537031154
6185.185185185185 0.07042695325258531
6195.195195195195 0.07004543378715089
6205.205205205205 0.06966642915710292
6215.215215215215 0.06928992167851643
6225.225225225226 0.06891589379870248
6235.235235235235 0.06854432809450922
6245.245245245245 0.06817520727066793
6255.255255255255 0.06780851415818248
6265.265265265265 0.0674442317127604
6275.275275275275 0.06708234301328604
6285.285285285286 0.06672283126033257
6295.295295295296 0.06636567977471379
6305.305305305305 0.06601087199607265
