#lamb flux
1000.0 4.34147633726591e+38
1010.01001001001 4.672275376178094e+38
1020.0200200200201 5.0185894297140384e+38
1030.03003003003 5.380512905249892e+38
1040.0400400400401 5.7581096125791794e+38
1050.05005005005 6.151412832535353e+38
1060.06006006006 6.560425511558749e+38
1070.07007007007 6.985120575211596e+38
1080.08008008008 7.425441353285462e+38
1090.0900900900901 7.8813021088757e+38
1100.1001001001 8.352588663615228e+38
1110.11011011011 8.83915911115468e+38
1120.1201201201202 9.340844610943786e+38
1130.13013013013 9.857450254400196e+38
1140.1401401401401 1.0388755995642387e+39
1150.1501501501502 1.0934517639103858e+39
1160.16016016016 1.1494467876532238e+39
1170.1701701701702 1.2068317366101244e+39
1180.1801801801803 1.2655755846621208e+39
1190.1901901901902 1.325645328011819e+39
1200.2002002002002 1.3870061016358958e+39
1210.2102102102103 1.4496212973223507e+39
1220.2202202202202 1.513452682716372e+39
1230.2302302302303 1.5784605208334243e+39
1240.2402402402402 1.644603689533189e+39
1250.2502502502502 1.7118397150741953e+39
1260.2602602602603 1.780124787008629e+39
1270.2702702702702 1.8494138053879834e+39
1280.2802802802803 1.919661210921248e+39
1290.2902902902902 1.9908206412450726e+39
1300.3003003003003 2.062845041715569e+39
1310.3103103103103 2.135686773576203e+39
1320.3203203203202 2.2092977192637156e+39
1330.3303303303303 2.2836293846437596e+39
1340.3403403403404 2.358632997995744e+39
1350.3503503503503 2.4342596055933203e+39
1360.3603603603603 2.510460163752027e+39
1370.3703703703704 2.587185627239533e+39
1380.3803803803803 2.6643870339662343e+39
1390.3903903903904 2.7420155858950034e+39
1400.4004004004005 2.820022726128056e+39
1410.4104104104103 2.898360212147313e+39
1420.4204204204204 2.9769801852011e+39
1430.4304304304305 3.055835235845274e+39
1440.4404404404404 3.1348784656610453e+39
1450.4504504504505 3.214063545184409e+39
1460.4604604604606 3.293344768093491e+39
1470.4704704704704 3.372677101710789e+39
1480.4804804804805 3.452016233886117e+39
1490.4904904904906 3.531318616334613e+39
1500.5005005005005 3.6105415045111425e+39
1510.5105105105106 3.6896429941087634e+39
1520.5205205205207 3.7685820542742464e+39
1530.5305305305305 3.847318557638235e+39
1540.5405405405404 3.9258133072613205e+39
1550.5505505505505 4.004028060600356e+39
1560.5605605605606 4.0819255506017266e+39
1570.5705705705705 4.1594695040300905e+39
1580.5805805805805 4.236624657142147e+39
1590.5905905905906 4.313356768815826e+39
1600.6006006006005 4.3896326312452917e+39
1610.6106106106106 4.465420078312168e+39
1620.6206206206207 4.540687991742459e+39
1630.6306306306305 4.6154063051580095e+39
1640.6406406406406 4.6895460061297874e+39
1650.6506506506507 4.763079136338909e+39
1660.6606606606606 4.8359787899496336e+39
1670.6706706706707 4.9082191102964034e+39
1680.6806806806808 4.9797752849851345e+39
1690.6906906906906 5.0506235395067406e+39
1700.7007007007007 5.120741142653935e+39
1710.7107107107108 5.190106425769943e+39
1720.7207207207207 5.258698673810907e+39
1730.7307307307308 5.3264981638207105e+39
1740.7407407407409 5.39348615984652e+39
1750.7507507507507 5.459644899580755e+39
1760.7607607607606 5.524957580139675e+39
1770.770770770771 5.589408343061427e+39
1780.7807807807808 5.652982258605558e+39
1790.7907907907907 5.715665309435808e+39
1800.8008008008007 5.777444373768648e+39
1810.8108108108108 5.838307208070886e+39
1820.8208208208207 5.898242429392287e+39
1830.8308308308308 5.957239497421765e+39
1840.8408408408409 6.015288696360116e+39
1850.8508508508507 6.072381116707407e+39
1860.8608608608608 6.128508637069419e+39
1870.870870870871 6.183663906094832e+39
1880.8808808808808 6.237840324662515e+39
1890.890890890891 6.291032028446252e+39
1900.900900900901 6.343233870991081e+39
1910.9109109109108 6.394441407440201e+39
1920.920920920921 6.444650879051826e+39
1930.930930930931 6.493859198639255e+39
1940.940940940941 6.542063937051365e+39
1950.950950950951 6.589263310780188e+39
1960.960960960961 6.635456170733817e+39
1970.970970970971 6.680641992140574e+39
1980.980980980981 6.724820865451502e+39
1990.9909909909911 6.767993487978963e+39
2001.001001001001 6.810161155851981e+39
2011.0110110110109 6.851325755688274e+39
2021.0210210210212 6.891489755193489e+39
2031.031031031031 6.930656191720537e+39
2041.0410410410411 6.968828657687578e+39
2051.051051051051 7.006011281701385e+39
2061.061061061061 7.042208704303408e+39
2071.071071071071 7.077426047487975e+39
2081.081081081081 7.111668877555211e+39
2091.091091091091 7.14494316145121e+39
2101.101101101101 7.177255217471374e+39
2111.1111111111113 7.208611661978498e+39
2121.121121121121 7.239019354498813e+39
2131.131131131131 7.268485344077197e+39
2141.141141141141 7.29701681998035e+39
2151.151151151151 7.324621069658905e+39
2161.161161161161 7.351305446310424e+39
2171.1711711711714 7.37707734749405e+39
2181.1811811811813 7.40194420516844e+39
2191.191191191191 7.425913486428015e+39
2201.201201201201 7.448992703266793e+39
2211.2112112112113 7.471189429032958e+39
2221.221221221221 7.492511318917038e+39
2231.2312312312315 7.512966131841737e+39
2241.2412412412414 7.532561751431169e+39
2251.2512512512512 7.551306204238526e+39
2261.261261261261 7.569207673999975e+39
2271.271271271271 7.586274511265315e+39
2281.2812812812813 7.602515238265449e+39
2291.2912912912916 7.617938549272739e+39
2301.3013013013015 7.632553306981005e+39
2311.3113113113113 7.646368535584112e+39
2321.321321321321 7.659393411285912e+39
2331.331331331331 7.671637250954727e+39
2341.3413413413414 7.683109499567736e+39
2351.3513513513512 7.693819716996131e+39
2361.3613613613616 7.703777564577547e+39
2371.3713713713714 7.712992791820327e+39
2381.3813813813813 7.721475223491677e+39
2391.391391391391 7.729234747262364e+39
2401.4014014014015 7.736281302016116e+39
2411.4114114114113 7.742624866881216e+39
2421.4214214214217 7.748275451003724e+39
2431.4314314314315 7.753243084054741e+39
2441.4414414414414 7.757537807445295e+39
2451.4514514514512 7.761169666211156e+39
2461.4614614614616 7.764148701522866e+39
2471.4714714714714 7.766484943774016e+39
2481.4814814814818 7.768188406200243e+39
2491.4914914914916 7.769269078983286e+39
2501.5015015015015 7.769736923797201e+39
2511.5115115115113 7.769601868756813e+39
2521.521521521521 7.76887380373257e+39
2531.5315315315315 7.76756257599905e+39
2541.541541541542 7.76567798618831e+39
2551.5515515515517 7.76322978452213e+39
2561.5615615615616 7.760227667300306e+39
2571.5715715715714 7.756681273625009e+39
2581.5815815815813 7.752600182343214e+39
2591.5915915915916 7.74799390919162e+39
2601.6016016016015 7.742871904130111e+39
2611.611611611612 7.737243548851498e+39
2621.6216216216217 7.731118154456586e+39
2631.6316316316315 7.724504959284753e+39
2641.6416416416414 7.71741312689137e+39
2651.6516516516517 7.709851744164107e+39
2661.6616616616616 7.701829819570958e+39
2671.671671671672 7.693356281533523e+39
2681.6816816816818 7.684439976919529e+39
2691.6916916916916 7.675089669649112e+39
2701.7017017017015 7.66531403940972e+39
2711.711711711712 7.655121680474889e+39
2721.7217217217217 7.644521100622532e+39
2731.731731731732 7.633520720148357e+39
2741.741741741742 7.622128870970666e+39
2751.7517517517517 7.610353795822608e+39
2761.7617617617616 7.598203647528462e+39
2771.7717717717715 7.58568648836041e+39
2781.781781781782 7.572810289472567e+39
2791.791791791792 7.559582930409248e+39
2801.801801801802 7.546012198684272e+39
2811.811811811812 7.532105789428533e+39
2821.8218218218217 7.517871305102984e+39
2831.8318318318316 7.503316255274399e+39
2841.841841841842 7.488448056451162e+39
2851.851851851852 7.473274031976739e+39
2861.861861861862 7.457801411978282e+39
2871.871871871872 7.442037333367936e+39
2881.881881881882 7.425988839894758e+39
2891.8918918918916 7.409662882244814e+39
2901.901901901902 7.39306631818746e+39
2911.911911911912 7.376205912765643e+39
2921.921921921922 7.359088338528161e+39
2931.931931931932 7.34172017580214e+39
2941.941941941942 7.324107913003507e+39
2951.9519519519517 7.306257946983921e+39
2961.961961961962 7.288176583412196e+39
2971.971971971972 7.269870037188596e+39
2981.9819819819822 7.251344432890295e+39
2991.991991991992 7.232605805246372e+39
3002.002002002002 7.213660099640866e+39
3012.012012012012 7.194513172642242e+39
3022.0220220220217 7.175170792557947e+39
3032.032032032032 7.155656988243202e+39
3042.0420420420423 7.135938377577166e+39
3052.052052052052 7.116040442721598e+39
3062.062062062062 7.095968778071519e+39
3072.072072072072 7.075728870026876e+39
3082.0820820820823 7.05532609993506e+39
3092.092092092092 7.034765746858384e+39
3102.102102102102 7.014052990180081e+39
3112.1121121121123 6.993192912061066e+39
3122.122122122122 6.972190499759125e+39
3132.132132132132 6.951050647821168e+39
3142.1421421421423 6.929778160158345e+39
3152.152152152152 6.908377752013228e+39
3162.162162162162 6.886854051827455e+39
3172.1721721721724 6.865211603017625e+39
3182.1821821821823 6.843454865666685e+39
3192.192192192192 6.821588218137373e+39
3202.202202202202 6.799615958613868e+39
3212.2122122122123 6.777542306577427e+39
3222.222222222222 6.755371404220929e+39
3232.232232232232 6.733107317807435e+39
3242.2422422422424 6.710754038976938e+39
3252.252252252252 6.688315486005514e+39
3262.262262262262 6.665795505020477e+39
3272.2722722722724 6.643197871175082e+39
3282.2822822822823 6.62052628978583e+39
3292.292292292292 6.597784397435298e+39
3302.3023023023025 6.574975763043142e+39
3312.3123123123123 6.552103888907672e+39
3322.322322322322 6.52917221172023e+39
3332.3323323323325 6.506184103554372e+39
3342.3423423423424 6.483142872831754e+39
3352.352352352352 6.460051765266317e+39
3362.3623623623625 6.436913964788456e+39
3372.3723723723724 6.413732594450394e+39
3382.3823823823823 6.390510717314163e+39
3392.3923923923926 6.367251337323348e+39
3402.4024024024025 6.343957400159551e+39
3412.4124124124123 6.320631794084616e+39
3422.4224224224226 6.297277350769445e+39
3432.4324324324325 6.273896846110192e+39
3442.4424424424424 6.250493001032522e+39
3452.4524524524522 6.227068482284582e+39
3462.4624624624626 6.203625903219259e+39
3472.4724724724724 6.180167824566239e+39
3482.4824824824823 6.156696755194286e+39
3492.4924924924926 6.133215152864218e+39
3502.5025025025025 6.10972542497291e+39
3512.5125125125123 6.086229929288649e+39
3522.5225225225226 6.062730974678109e+39
3532.5325325325325 6.039230821825301e+39
3542.5425425425424 6.015731683942585e+39
3552.5525525525527 5.992235727474073e+39
3562.5625625625626 5.968745072791526e+39
3572.5725725725724 5.945261794882905e+39
3582.5825825825827 5.921787924033763e+39
3592.5925925925926 5.898325446501513e+39
3602.6026026026025 5.874876305182772e+39
3612.612612612613 5.851442400273806e+39
3622.6226226226227 5.82802558992412e+39
3632.6326326326325 5.804627690883387e+39
3642.642642642643 5.781250479141616e+39
3652.6526526526527 5.75789569056275e+39
3662.6626626626626 5.734565021511574e+39
3672.672672672673 5.711260129474178e+39
3682.6826826826828 5.687982633671773e+39
3692.6926926926926 5.66473411566809e+39
3702.7027027027025 5.641516119970206e+39
3712.712712712713 5.61833015462296e+39
3722.7227227227227 5.59517769179691e+39
3732.7327327327325 5.572060168369779e+39
3742.742742742743 5.548978986501577e+39
3752.7527527527527 5.525935514203192e+39
3762.7627627627626 5.502931085898654e+39
3772.772772772773 5.479967002980959e+39
3782.7827827827828 5.457044534361492e+39
3792.7927927927926 5.434164917013099e+39
3802.802802802803 5.411329356506763e+39
3812.812812812813 5.3885390275419364e+39
3822.8228228228227 5.365795074470501e+39
3832.832832832833 5.343098611814423e+39
3842.842842842843 5.3204507247770545e+39
3852.8528528528527 5.29785246974817e+39
3862.862862862863 5.275304874802653e+39
3872.872872872873 5.2528089401929966e+39
3882.8828828828828 5.230365638835441e+39
3892.892892892893 5.207975916790004e+39
3902.902902902903 5.1856406937342073e+39
3912.912912912913 5.1633608634306676e+39
3922.922922922923 5.1411372941885064e+39
3932.932932932933 5.118970829318661e+39
3942.942942942943 5.0968622875830564e+39
3952.9529529529527 5.0748124636377336e+39
3962.962962962963 5.052822128469923e+39
3972.972972972973 5.0308920298291324e+39
3982.982982982983 5.00902289265225e+39
3992.992992992993 4.987215419482693e+39
4003.003003003003 4.965470290883714e+39
4013.013013013013 4.943788165845801e+39
4023.023023023023 4.9221696821882854e+39
4033.033033033033 4.900615456955165e+39
4043.043043043043 4.879126086805196e+39
4053.053053053053 4.857702148396302e+39
4063.063063063063 4.836344198764335e+39
4073.073073073073 4.8150527756962334e+39
4083.0830830830832 4.7938283980976367e+39
4093.093093093093 4.772671566354999e+39
4103.103103103103 4.7515827626922314e+39
4113.113113113113 4.7305624515219755e+39
4123.123123123123 4.709611079791472e+39
4133.133133133133 4.688729077323166e+39
4143.143143143143 4.667916857150041e+39
4153.153153153153 4.647174815845767e+39
4163.163163163163 4.626503333849677e+39
4173.173173173173 4.605902775786681e+39
4183.183183183183 4.585373490782116e+39
4193.193193193193 4.5649158127716063e+39
4203.203203203203 4.5445300608060094e+39
4213.213213213214 4.524216539351489e+39
4223.223223223224 4.503975538584729e+39
4233.2332332332335 4.483807334683426e+39
4243.243243243243 4.4637121901120376e+39
4253.253253253253 4.443690353902877e+39
4263.263263263263 4.423742061932627e+39
4273.273273273273 4.403867537194297e+39
4283.283283283283 4.384066990064669e+39
4293.293293293293 4.364340618567353e+39
4303.303303303303 4.344688608631429e+39
4313.313313313313 4.32511113434578e+39
4323.323323323323 4.305608358209149e+39
4333.333333333334 4.286180431375998e+39
4343.343343343344 4.266827493898205e+39
4353.353353353354 4.2475496749626447e+39
4363.3633633633635 4.228347093124739e+39
4373.373373373373 4.2092198565380234e+39
4383.383383383383 4.190168063179731e+39
4393.393393393393 4.171191801072559e+39
4403.403403403403 4.152291148502547e+39
4413.413413413413 4.1334661742331986e+39
4423.423423423424 4.114716937715892e+39
4433.4334334334335 4.096043489296614e+39
4443.443443443443 4.0774458704190453e+39
4453.453453453454 4.058924113824118e+39
4463.463463463464 4.040478243746064e+39
4473.473473473474 4.022108276104939e+39
4483.483483483484 4.003814218695805e+39
4493.493493493494 3.985596071374507e+39
4503.503503503503 3.9674538262401534e+39
4513.513513513513 3.949387467814333e+39
4523.523523523523 3.931396973217098e+39
4533.533533533533 3.9134823123398255e+39
4543.543543543543 3.895643448014907e+39
4553.553553553554 3.877880336182413e+39
4563.563563563564 3.860192926053716e+39
4573.573573573573 3.842581160272129e+39
4583.583583583584 3.825044975070633e+39
4593.593593593594 3.807584300426717e+39
4603.603603603604 3.7901990602143574e+39
4613.613613613614 3.7728891723532434e+39
4623.623623623624 3.755654548955206e+39
4633.6336336336335 3.738495096467972e+39
4643.643643643643 3.7214107158162647e+39
4653.653653653653 3.704401302540233e+39
4663.663663663663 3.6874667469313604e+39
4673.673673673674 3.670606934165793e+39
4683.683683683684 3.653821744435209e+39
4693.693693693694 3.637111053075192e+39
4703.703703703704 3.620474730691226e+39
4713.713713713714 3.6039126432822915e+39
4723.723723723724 3.5874246523621414e+39
4733.733733733734 3.5710106150782476e+39
4743.743743743744 3.554670384328532e+39
4753.753753753754 3.538403808875841e+39
4763.763763763764 3.5222107334602446e+39
4773.773773773773 3.506090998909178e+39
4783.783783783783 3.490044442245491e+39
4793.793793793793 3.4740708967934e+39
4803.803803803804 3.458170192282393e+39
4813.813813813814 3.442342154949147e+39
4823.823823823824 3.4265866076374506e+39
4833.833833833834 3.41090336989619e+39
4843.843843843844 3.395292258075446e+39
4853.853853853854 3.379753085420676e+39
4863.863863863864 3.3642856621650876e+39
4873.873873873874 3.348889795620193e+39
4883.883883883884 3.3335652902645555e+39
4893.893893893894 3.31831194783083e+39
4903.9039039039035 3.303129567391046e+39
4913.913913913913 3.2880179454402173e+39
4923.923923923924 3.2729768759782854e+39
4933.933933933934 3.258006150590439e+39
4943.943943943944 3.2431055585258076e+39
4953.953953953955 3.228274886774607e+39
4963.9639639639645 3.2135139201437266e+39
4973.973973973974 3.1988224413307697e+39
4983.983983983984 3.1842002309966474e+39
4993.993993993994 3.1696470678366624e+39
5004.004004004004 3.155162728650164e+39
5014.014014014014 3.140746988408806e+39
5024.024024024024 3.126399620323361e+39
5034.0340340340335 3.112120395909236e+39
5044.044044044043 3.097909085050583e+39
5054.054054054054 3.0837654560631286e+39
5064.064064064064 3.0696892757556924e+39
5074.074074074074 3.0556803094904335e+39
5084.084084084085 3.041738321241846e+39
5094.0940940940945 3.0278630736545405e+39
5104.104104104104 3.0140543280998014e+39
5114.114114114114 3.000311844730965e+39
5124.124124124124 2.9866353825376404e+39
5134.134134134134 2.973024699398795e+39
5144.144144144144 2.9594795521346914e+39
5154.154154154154 2.9459996965577635e+39
5164.1641641641645 2.932584887522365e+39
5174.174174174174 2.9192348789735087e+39
5184.184184184184 2.905949423994513e+39
5194.194194194194 2.892728274853658e+39
5204.204204204204 2.8795711830498337e+39
5214.214214214214 2.866477899357182e+39
5224.224224224225 2.8534481738687943e+39
5234.2342342342345 2.840481756039451e+39
5244.244244244244 2.8275783947274116e+39
5254.254254254254 2.814737838235321e+39
5264.264264264264 2.80195983435018e+39
5274.274274274274 2.789244130382465e+39
5284.284284284285 2.7765904732043637e+39
5294.294294294295 2.763998609287169e+39
5304.304304304304 2.751468284737821e+39
5314.314314314314 2.738999245334661e+39
5324.324324324324 2.726591236562347e+39
5334.334334334334 2.7142440036460123e+39
5344.344344344345 2.701957291584619e+39
5354.354354354355 2.6897308451835802e+39
5364.3643643643645 2.67756440908661e+39
5374.374374374374 2.6654577278068675e+39
5384.384384384384 2.653410545757361e+39
5394.394394394394 2.64142260728066e+39
5404.404404404404 2.6294936566779118e+39
5414.414414414415 2.6176234382371773e+39
5424.424424424425 2.6058116962611108e+39
5434.4344344344345 2.594058175093971e+39
5444.444444444444 2.5823626191479996e+39
5454.454454454454 2.5707247729291835e+39
5464.464464464464 2.559144381062375e+39
5474.474474474475 2.547621188315826e+39
5484.484484484485 2.5361549396251192e+39
5494.494494494495 2.5247453801165252e+39
5504.504504504504 2.5133922551297797e+39
5514.514514514514 2.5020953102403022e+39
5524.524524524524 2.4908542912808698e+39
5534.534534534535 2.4796689443627502e+39
5544.544544544545 2.4685390158963063e+39
5554.554554554555 2.45746425261107e+39
5564.5645645645645 2.4464444015753267e+39
5574.574574574574 2.4354792102151955e+39
5584.584584584584 2.4245684263332076e+39
5594.594594594595 2.413711798126414e+39
5604.604604604605 2.4029090742040337e+39
5614.614614614615 2.3921600036046185e+39
5624.624624624625 2.3814643358127784e+39
5634.6346346346345 2.3708218207754647e+39
5644.644644644644 2.360232208917811e+39
5654.654654654654 2.3496952511585553e+39
5664.664664664665 2.3392106989250336e+39
5674.674674674675 2.3287783041677764e+39
5684.684684684685 2.3183978193746916e+39
5694.694694694695 2.3080689975848615e+39
5704.704704704704 2.2977915924019492e+39
5714.714714714714 2.2875653580072248e+39
5724.724724724725 2.2773900491722285e+39
5734.734734734735 2.2672654212710606e+39
5744.744744744745 2.257191230292322e+39
5754.754754754755 2.2471672328506913e+39
5764.764764764765 2.2371931861981873e+39
5774.774774774774 2.2272688482350617e+39
5784.784784784785 2.21739397752039e+39
5794.794794794795 2.2075683332823236e+39
5804.804804804805 2.197791675428034e+39
5814.814814814815 2.1880637645533436e+39
5824.824824824825 2.178384361952057e+39
5834.8348348348345 2.168753229624983e+39
5844.844844844845 2.1591701302886907e+39
5854.854854854855 2.149634827383952e+39
5864.864864864865 2.1401470850839175e+39
5874.874874874875 2.1307066683020237e+39
5884.884884884885 2.1213133426996226e+39
5894.894894894895 2.1119668746933492e+39
5904.9049049049045 2.10266703146224e+39
5914.914914914915 2.0934135809545886e+39
