#lamb flux
1000.0 7.53495886234663e+36
1010.01001001001 8.621255253142515e+36
1020.0200200200201 9.833322489046369e+36
1030.03003003003 1.1181806455630646e+37
1040.0400400400401 1.2677851733651872e+37
1050.05005005005 1.4333092522392808e+37
1060.06006006006 1.6159641180278363e+37
1070.07007007007 1.817007442448159e+37
1080.08008008008 2.0377417247377184e+37
1090.0900900900901 2.279512462284315e+37
1100.1001001001 2.5437061089472175e+37
1110.11011011011 2.831747831062663e+37
1120.1201201201202 3.1450990722898587e+37
1130.13013013013 3.4852549394863306e+37
1140.1401401401401 3.8537414227017116e+37
1150.1501501501502 4.2521124631444235e+37
1160.16016016016 4.681946883608396e+37
1170.1701701701702 5.144845196345848e+37
1180.1801801801803 5.642426303743577e+37
1190.1901901901902 6.176324107404682e+37
1200.2002002002002 6.748184041363768e+37
1210.2102102102103 7.3596595451741625e+37
1220.2202202202202 8.012408492509787e+37
1230.2302302302303 8.708089590727675e+37
1240.2402402402402 9.448358766547122e+37
1250.2502502502502 1.0234865041976632e+38
1260.2602602602603 1.1069246192650556e+38
1270.2702702702702 1.1953124494023525e+38
1280.2802802802803 1.288810765762314e+38
1290.2902902902902 1.3875782732023097e+38
1300.3003003003003 1.4917712695726579e+38
1310.3103103103103 1.601543312838174e+38
1320.3203203203202 1.7170448970794835e+38
1330.3303303303303 1.838423138343753e+38
1340.3403403403404 1.9658214712359198e+38
1350.3503503503503 2.0993793570622074e+38
1360.3603603603603 2.2392320042577513e+38
1370.3703703703704 2.3855101017505322e+38
1380.3803803803803 2.5383395658349546e+38
1390.3903903903904 2.6978413010504433e+38
1400.4004004004005 2.864130975484023e+38
1410.4104104104103 3.037318810841632e+38
1420.4204204204204 3.2175093875605675e+38
1430.4304304304305 3.4048014651655914e+38
1440.4404404404404 3.599287818004596e+38
1450.4504504504505 3.801055086435273e+38
1460.4604604604606 4.01018364347355e+38
1470.4704704704704 4.22674747685668e+38
1480.4804804804805 4.450814086419629e+38
1490.4904904904906 4.682444396632167e+38
1500.5005005005005 4.921692684096713e+38
1510.5105105105106 5.1686065197629785e+38
1520.5205205205207 5.423226725574342e+38
1530.5305305305305 5.685587345224353e+38
1540.5405405405404 5.955715628667237e+38
1550.5505505505505 6.233632029996238e+38
1560.5605605605606 6.519350218276045e+38
1570.5705705705705 6.812877100891586e+38
1580.5805805805805 7.114212858954168e+38
1590.5905905905906 7.423350994288113e+38
1600.6006006006005 7.740278387505188e+38
1610.6106106106106 8.064975366662194e+38
1620.6206206206207 8.397415785986237e+38
1630.6306306306305 8.73756711414545e+38
1640.6406406406406 9.085390531537014e+38
1650.6506506506507 9.440841036061717e+38
1660.6606606606606 9.803867556853324e+38
1670.6706706706707 1.0174413075432182e+39
1680.6806806806808 1.0552414753755249e+39
1690.6906906906906 1.0937804068640129e+39
1700.7007007007007 1.1330506981243949e+39
1710.7107107107108 1.1730444149849312e+39
1720.7207207207207 1.213753086265914e+39
1730.7307307307308 1.2551677296606456e+39
1740.7407407407409 1.2972788691995263e+39
1750.7507507507507 1.340076551471989e+39
1760.7607607607606 1.3835503621489854e+39
1770.770770770771 1.4276894427642735e+39
1780.7807807807808 1.4724825077149773e+39
1790.7907907907907 1.5179178614445226e+39
1800.8008008008007 1.5639834157739575e+39
1810.8108108108108 1.610666707351065e+39
1820.8208208208207 1.6579549151905316e+39
1830.8308308308308 1.705834878282804e+39
1840.8408408408409 1.7542931132542482e+39
1850.8508508508507 1.80331583206705e+39
1860.8608608608608 1.8528889597535292e+39
1870.870870870871 1.9029981521869493e+39
1880.8808808808808 1.9536288138986352e+39
1890.890890890891 2.0047661159596976e+39
1900.900900900901 2.0563950139544314e+39
1910.9109109109108 2.108500266080861e+39
1920.920920920921 2.1610664514214408e+39
1930.930930930931 2.214077988432309e+39
1940.940940940941 2.2675191537012677e+39
1950.950950950951 2.321374101020799e+39
1960.960960960961 2.3756268808104192e+39
1970.970970970971 2.4302614598998845e+39
1980.980980980981 2.4852617416480707e+39
1990.9909909909911 2.5406115863192073e+39
2001.001001001001 2.5962948315672558e+39
2011.0110110110109 2.6522953127906618e+39
2021.0210210210212 2.7085968830174636e+39
2031.031031031031 2.765183431872604e+39
2041.0410410410411 2.8220389030782196e+39
2051.051051051051 2.879147309862096e+39
2061.061061061061 2.936492747621602e+39
2071.071071071071 2.994059403232935e+39
2081.081081081081 3.051831560528273e+39
2091.091091091091 3.109793601694556e+39
2101.101101101101 3.1679300046706396e+39
2111.1111111111113 3.2262253370061605e+39
2121.121121121121 3.284664247047291e+39
2131.131131131131 3.3432314536691305e+39
2141.141141141141 3.401911736015461e+39
2151.151151151151 3.4606899247797193e+39
2161.161161161161 3.519550896439755e+39
2171.1711711711714 3.5784795715510415e+39
2181.1811811811813 3.637460917753454e+39
2191.191191191191 3.696479957628133e+39
2201.201201201201 3.755521781034501e+39
2211.2112112112113 3.8145715611388554e+39
2221.221221221221 3.8736145730657314e+39
2231.2312312312315 3.932636213983053e+39
2241.2412412412414 3.9916220234620955e+39
2251.2512512512512 4.0505577031020596e+39
2261.261261261261 4.109429134632702e+39
2271.271271271271 4.168222395962813e+39
2281.2812812812813 4.22692377488871e+39
2291.2912912912916 4.285519780390086e+39
2301.3013013013015 4.34399715160529e+39
2311.3113113113113 4.402342864691327e+39
2321.321321321321 4.460544137839486e+39
2331.331331331331 4.5185884347431847e+39
2341.3413413413414 4.576463466811475e+39
2351.3513513513512 4.634157194398356e+39
2361.3613613613616 4.6916578272840175e+39
2371.3713713713714 4.748953824605088e+39
2381.3813813813813 4.806033894392252e+39
2391.391391391391 4.8628869928377177e+39
2401.4014014014015 4.9195023233835594e+39
2411.4114114114113 4.9758693356959974e+39
2421.4214214214217 5.031977724569599e+39
2431.4314314314315 5.0878174287890226e+39
2441.4414414414414 5.143378629963929e+39
2451.4514514514512 5.1986517513438035e+39
2461.4614614614616 5.253627456613397e+39
2471.4714714714714 5.3082966486655995e+39
2481.4814814814818 5.362650468346375e+39
2491.4914914914916 5.416680293165011e+39
2501.5015015015015 5.47037773596289e+39
2511.5115115115113 5.523734643534164e+39
2521.521521521521 5.576743095192184e+39
2531.5315315315315 5.629395401276671e+39
2541.541541541542 5.681684101597273e+39
2551.5515515515517 5.733601963810295e+39
2561.5615615615616 5.785141981726093e+39
2571.5715715715714 5.836297373545844e+39
2581.5815815815813 5.887061580026807e+39
2591.5915915915916 5.937428262576196e+39
2601.6016016016015 5.987391301274299e+39
2611.611611611612 6.036944792827951e+39
2621.6216216216217 6.086083048456089e+39
2631.6316316316315 6.134800591709344e+39
2641.6416416416414 6.183092156226009e+39
2651.6516516516517 6.23095268342701e+39
2661.6616616616616 6.278377320152608e+39
2671.671671671672 6.325361416243858e+39
2681.6816816816818 6.37190052207174e+39
2691.6916916916916 6.417990386017295e+39
2701.7017017017015 6.463626951905771e+39
2711.711711711712 6.508806356398041e+39
2721.7217217217217 6.55352492634256e+39
2731.731731731732 6.59777917609094e+39
2741.741741741742 6.641565804780391e+39
2751.7517517517517 6.684881693586071e+39
2761.7617617617616 6.727723902946444e+39
2771.7717717717715 6.770089669764627e+39
2781.781781781782 6.811976404588551e+39
2791.791791791792 6.853381688773e+39
2801.801801801802 6.894303271626016e+39
2811.811811811812 6.934739067542554e+39
2821.8218218218217 6.974687153127873e+39
2831.8318318318316 7.014145764313223e+39
2841.841841841842 7.053113293466148e+39
2851.851851851852 7.091588286497898e+39
2861.861861861862 7.129569439969977e+39
2871.871871871872 7.16705559820218e+39
2881.881881881882 7.20404575038401e+39
2891.8918918918916 7.240539027691535e+39
2901.901901901902 7.276534700411624e+39
2911.911911911912 7.31203217507517e+39
2921.921921921922 7.347030991601236e+39
2931.931931931932 7.381530820453702e+39
2941.941941941942 7.415531459811849e+39
2951.9519519519517 7.449032832756531e+39
2961.961961961962 7.482034984473239e+39
2971.971971971972 7.514538079473425e+39
2981.9819819819822 7.546542398835366e+39
2991.991991991992 7.578048337465662e+39
3002.002002002002 7.60905640138268e+39
3012.012012012012 7.639567205022767e+39
3022.0220220220217 7.669581468570401e+39
3032.032032032032 7.699119757067828e+39
3042.0420420420423 7.72814117160019e+39
3052.052052052052 7.756668071547761e+39
3062.062062062062 7.784701750089011e+39
3072.072072072072 7.81224357286219e+39
3082.0820820820823 7.839294977166467e+39
3092.092092092092 7.865857471074722e+39
3102.102102102102 7.891932632465463e+39
3112.1121121121123 7.91752210798088e+39
3122.122122122122 7.942627611917799e+39
3132.132132132132 7.967250925057797e+39
3142.1421421421423 7.991393893442544e+39
3152.152152152152 8.015058427099824e+39
3162.162162162162 8.038246498725842e+39
3172.1721721721724 8.060960142328497e+39
3182.1821821821823 8.083201451836659e+39
3192.192192192192 8.104972579679612e+39
3202.202202202202 8.126275735341032e+39
3212.2122122122123 8.147113183891341e+39
3222.222222222222 8.167487244502088e+39
3232.232232232232 8.187400288945866e+39
3242.2422422422424 8.20685474008494e+39
3252.252252252252 8.22585307035167e+39
3262.262262262262 8.244397800223424e+39
3272.2722722722724 8.262491496694761e+39
3282.2822822822823 8.280136771749201e+39
3292.292292292292 8.297336280832979e+39
3302.3023023023025 8.314092721332836e+39
3312.3123123123123 8.330408831059753e+39
3322.322322322322 8.346287386740605e+39
3332.3323323323325 8.361731202519294e+39
3342.3423423423424 8.376743128468931e+39
3352.352352352352 8.391326049116537e+39
3362.3623623623625 8.405482881981523e+39
3372.3723723723724 8.419216576129244e+39
3382.3823823823823 8.432530110740522e+39
3392.3923923923926 8.44542649369847e+39
3402.4024024024025 8.457908760193131e+39
3412.4124124124123 8.469979971345091e+39
3422.4224224224226 8.481643212848575e+39
3432.4324324324325 8.492901593634794e+39
3442.4424424424424 8.50375824455615e+39
3452.4524524524522 8.514216317091679e+39
3462.4624624624626 8.524278982074356e+39
3472.4724724724724 8.533949428440555e+39
3482.4824824824823 8.543230862001947e+39
3492.4924924924926 8.552126504240327e+39
3502.5025025025025 8.560639591125327e+39
3512.5125125125123 8.568773371955457e+39
3522.5225225225226 8.576531108222368e+39
3532.5325325325325 8.583916072498691e+39
3542.5425425425424 8.590931547349327e+39
3552.5525525525527 8.597580824266252e+39
3562.5625625625626 8.603867202626957e+39
3572.5725725725724 8.609793988676274e+39
3582.5825825825827 8.615364494531718e+39
3592.5925925925926 8.620582037212148e+39
3602.6026026026025 8.625449937689634e+39
3612.612612612613 8.629971519964519e+39
3622.6226226226227 8.634150110163237e+39
3632.6326326326325 8.637989035659074e+39
3642.642642642643 8.641491624215387e+39
3652.6526526526527 8.644661203151205e+39
3662.6626626626626 8.647501098528908e+39
3672.672672672673 8.650014634363963e+39
3682.6826826826828 8.652205131856028e+39
3692.6926926926926 8.654075908641702e+39
3702.7027027027025 8.655630278068215e+39
3712.712712712713 8.656871548487975e+39
3722.7227227227227 8.657803022573742e+39
3732.7327327327325 8.658427996653877e+39
3742.742742742743 8.658749760067747e+39
3752.7527527527527 8.658771594540593e+39
3762.7627627627626 8.658496773577784e+39
3772.772772772773 8.657928561878168e+39
3782.7827827827828 8.657070214765974e+39
3792.7927927927926 8.655924977641205e+39
3802.802802802803 8.654496085448053e+39
3812.812812812813 8.652786762161104e+39
3822.8228228228227 8.650800220288795e+39
3832.832832832833 8.648539660394165e+39
3842.842842842843 8.646008270632243e+39
3852.8528528528527 8.643209226303962e+39
3862.862862862863 8.640145689426048e+39
3872.872872872873 8.636820808316951e+39
3882.8828828828828 8.633237717197959e+39
3892.892892892893 8.629399535809782e+39
3902.902902902903 8.625309369043703e+39
3912.912912912913 8.620970306587499e+39
3922.922922922923 8.616385422585406e+39
3932.932932932933 8.61155777531209e+39
3942.942942942943 8.606490406860225e+39
3952.9529529529527 8.601186342841356e+39
3962.962962962963 8.59564859209974e+39
3972.972972972973 8.589880146438973e+39
3982.982982982983 8.583883980361026e+39
3992.992992992993 8.577663050817295e+39
4003.003003003003 8.571220296971655e+39
4013.013013013013 8.564558639975031e+39
4023.023023023023 8.55768098275119e+39
4033.033033033033 8.550590209793639e+39
4043.043043043043 8.543289186973226e+39
4053.053053053053 8.535780761356227e+39
4063.063063063063 8.528067761032654e+39
4073.073073073073 8.520152994954554e+39
4083.0830830830832 8.512039252783979e+39
4093.093093093093 8.503729304750462e+39
4103.103103103103 8.495225901517648e+39
4113.113113113113 8.486531774059025e+39
4123.123123123123 8.477649633542233e+39
4133.133133133133 8.468582171222058e+39
4143.143143143143 8.459332058341545e+39
4153.153153153153 8.449901946041346e+39
4163.163163163163 8.440294465276732e+39
4173.173173173173 8.430512226742382e+39
4183.183183183183 8.420557820804507e+39
4193.193193193193 8.41043381744021e+39
4203.203203203203 8.400142766183806e+39
4213.213213213214 8.389687196080061e+39
4223.223223223224 8.379069615643909e+39
4233.2332332332335 8.368292512826688e+39
4243.243243243243 8.357358354988597e+39
4253.253253253253 8.346269588877119e+39
4263.263263263263 8.335028640611461e+39
4273.273273273273 8.323637915672574e+39
4283.283283283283 8.312099798898726e+39
4293.293293293293 8.300416654486491e+39
4303.303303303303 8.288590825996826e+39
4313.313313313313 8.276624636366294e+39
4323.323323323323 8.264520387923045e+39
4333.333333333334 8.252280362407622e+39
4343.343343343344 8.239906820998234e+39
4353.353353353354 8.227402004340571e+39
4363.3633633633635 8.214768132581755e+39
4373.373373373373 8.20200740540857e+39
4383.383383383383 8.18912200208955e+39
4393.393393393393 8.176114081521063e+39
4403.403403403403 8.162985782277032e+39
4413.413413413413 8.149739222662306e+39
4423.423423423424 8.136376500769505e+39
4433.4334334334335 8.122899694539187e+39
4443.443443443443 8.109310861823336e+39
4453.453453453454 8.095612040451838e+39
4463.463463463464 8.081805248302145e+39
4473.473473473474 8.067892483371626e+39
4483.483483483484 8.053875723852892e+39
4493.493493493494 8.03975692821165e+39
4503.503503503503 8.025538035267281e+39
4513.513513513513 8.011220964275774e+39
4523.523523523523 7.996807615015069e+39
4533.533533533533 7.982299867872757e+39
4543.543543543543 7.967699583935867e+39
4553.553553553554 7.95300860508281e+39
4563.563563563564 7.938228754077339e+39
4573.573573573573 7.923361834664373e+39
4583.583583583584 7.908409631667733e+39
4593.593593593594 7.893373911089628e+39
4603.603603603604 7.878256420211711e+39
4613.613613613614 7.863058887697924e+39
4623.623623623624 7.84778302369866e+39
4633.6336336336335 7.832430519956532e+39
4643.643643643643 7.817003049913473e+39
4653.653653653653 7.801502268819059e+39
4663.663663663663 7.785929813840223e+39
4673.673673673674 7.77028730417201e+39
4683.683683683684 7.754576341149502e+39
4693.693693693694 7.738798508360787e+39
4703.703703703704 7.722955371760903e+39
4713.713713713714 7.707048479786684e+39
4723.723723723724 7.691079363472512e+39
4733.733733733734 7.675049536566855e+39
4743.743743743744 7.658960495649557e+39
4753.753753753754 7.642813720249847e+39
4763.763763763764 7.626610672965008e+39
4773.773773773773 7.610352799579571e+39
4783.783783783783 7.594041529185187e+39
4793.793793793793 7.577678274300901e+39
4803.803803803804 7.561264430993904e+39
4813.813813813814 7.544801379000734e+39
4823.823823823824 7.52829048184882e+39
4833.833833833834 7.511733086978338e+39
4843.843843843844 7.49513052586442e+39
4853.853853853854 7.478484114139508e+39
4863.863863863864 7.461795151716015e+39
4873.873873873874 7.445064922909099e+39
4883.883883883884 7.428294696559582e+39
4893.893893893894 7.411485726157e+39
4903.9039039039035 7.394639249962677e+39
4913.913913913913 7.377756491132855e+39
4923.923923923924 7.360838657841823e+39
4933.933933933934 7.343886943405018e+39
4943.943943943944 7.326902526402066e+39
4953.953953953955 7.309886570799714e+39
4963.9639639639645 7.292840226074701e+39
4973.973973973974 7.275764627336414e+39
4983.983983983984 7.258660895449431e+39
4993.993993993994 7.241530137155845e+39
5004.004004004004 7.224373445197355e+39
5014.014014014014 7.207191898437168e+39
5024.024024024024 7.189986561981551e+39
5034.0340340340335 7.172758487301182e+39
5044.044044044043 7.155508712352131e+39
5054.054054054054 7.138238261696543e+39
5064.064064064064 7.120948146622953e+39
5074.074074074074 7.103639365266246e+39
5084.084084084085 7.086312902727218e+39
5094.0940940940945 7.068969731191756e+39
5104.104104104104 7.051610810049552e+39
5114.114114114114 7.034237086012439e+39
5124.124124124124 7.016849493232208e+39
5134.134134134134 6.99944895341802e+39
5144.144144144144 6.982036375953264e+39
5154.154154154154 6.964612658012004e+39
5164.1641641641645 6.947178684674824e+39
5174.174174174174 6.929735329044223e+39
5184.184184184184 6.91228345235943e+39
5194.194194194194 6.894823904110676e+39
5204.204204204204 6.877357522152935e+39
5214.214214214214 6.859885132819065e+39
5224.224224224225 6.842407551032374e+39
5234.2342342342345 6.824925580418614e+39
5244.244244244244 6.807440013417342e+39
5254.254254254254 6.789951631392722e+39
5264.264264264264 6.772461204743643e+39
5274.274274274274 6.754969493013279e+39
5284.284284284285 6.73747724499799e+39
5294.294294294295 6.719985198855547e+39
5304.304304304304 6.702494082212772e+39
5314.314314314314 6.685004612272493e+39
5324.324324324324 6.667517495919826e+39
5334.334334334334 6.650033429827831e+39
5344.344344344345 6.632553100562451e+39
5354.354354354355 6.615077184686813e+39
5364.3643643643645 6.597606348864827e+39
5374.374374374374 6.580141249964125e+39
5384.384384384384 6.562682535158254e+39
5394.394394394394 6.545230842028271e+39
5404.404404404404 6.527786798663528e+39
5414.414414414415 6.510351023761856e+39
5424.424424424425 6.492924126728995e+39
5434.4344344344345 6.475506707777323e+39
5444.444444444444 6.458099358023884e+39
5454.454454454454 6.440702659587716e+39
5464.464464464464 6.42331718568645e+39
5474.474474474475 6.405943500732205e+39
5484.484484484485 6.388582160426763e+39
5494.494494494495 6.371233711856029e+39
5504.504504504504 6.353898693583798e+39
5514.514514514514 6.336577635744728e+39
5524.524524524524 6.319271060136716e+39
5534.534534534535 6.301979480312431e+39
5544.544544544545 6.284703401670222e+39
5554.554554554555 6.267443321544232e+39
5564.5645645645645 6.250199729293866e+39
5574.574574574574 6.232973106392475e+39
5584.584584584584 6.215763926515371e+39
5594.594594594595 6.198572655627072e+39
5604.604604604605 6.18139975206791e+39
5614.614614614615 6.164245666639829e+39
5624.624624624625 6.147110842691525e+39
5634.6346346346345 6.129995716202893e+39
5644.644644644644 6.112900715868676e+39
5654.654654654654 6.09582626318151e+39
5664.664664664665 6.078772772514162e+39
5674.674674674675 6.061740651201143e+39
5684.684684684685 6.044730299619559e+39
5694.694694694695 6.02774211126928e+39
5704.704704704704 6.010776472852409e+39
5714.714714714714 5.99383376435206e+39
5724.724724724725 5.976914359110413e+39
5734.734734734735 5.96001862390609e+39
5744.744744744745 5.943146919030867e+39
5754.754754754755 5.926299598365626e+39
5764.764764764765 5.90947700945571e+39
5774.774774774774 5.892679493585512e+39
5784.784784784785 5.875907385852455e+39
5794.794794794795 5.85916101524023e+39
5804.804804804805 5.842440704691406e+39
5814.814814814815 5.82574677117934e+39
5824.824824824825 5.809079525779458e+39
5834.8348348348345 5.79243927373979e+39
5844.844844844845 5.77582631455096e+39
5854.854854854855 5.759240942015405e+39
5864.864864864865 5.74268344431601e+39
5874.874874874875 5.726154104084062e+39
5884.884884884885 5.709653198466566e+39
5894.894894894895 5.693180999192911e+39
5904.9049049049045 5.676737772640884e+39
5914.914914914915 5.660323779902096e+39
5924.924924924925 5.643939276846702e+39
5934.934934934935 5.627584514187533e+39
