#lamb flux
1000.0 4.889892843014116e+40
1010.01001001001 4.999520470586498e+40
1020.0200200200201 5.095464749679203e+40
1030.03003003003 5.178287245527478e+40
1040.0400400400401 5.2486337048821975e+40
1050.05005005005 5.307210632369524e+40
1060.06006006006 5.354764761250896e+40
1070.07007007007 5.392065394842211e+40
1080.08008008008 5.419889500022753e+40
1090.0900900900901 5.439009369462716e+40
1100.1001001001 5.45018262887251e+40
1110.11011011011 5.454144344561324e+40
1120.1201201201202 5.451600980294826e+40
1130.13013013013 5.443225956932908e+40
1140.1401401401401 5.429656580346648e+40
1150.1501501501502 5.411492120033979e+40
1160.16016016016 5.389292840619333e+40
1170.1701701701702 5.363579809471428e+40
1180.1801801801803 5.334835324858337e+40
1190.1901901901902 5.3035038295695e+40
1200.2002002002002 5.269993194232204e+40
1210.2102102102103 5.234676272303596e+40
1220.2202202202202 5.197892644757244e+40
1230.2302302302303 5.159950486749472e+40
1240.2402402402402 5.121128501072059e+40
1250.2502502502502 5.081287968024781e+40
1260.2602602602603 5.039515450232689e+40
1270.2702702702702 4.994013373755778e+40
1280.2802802802803 4.94515253227697e+40
1290.2902902902902 4.893284223408476e+40
1300.3003003003003 4.838740083946422e+40
1310.3103103103103 4.781832135201307e+40
1320.3203203203202 4.72285300359159e+40
1330.3303303303303 4.6620762853800345e+40
1340.3403403403404 4.599757027948462e+40
1350.3503503503503 4.536132303309908e+40
1360.3603603603603 4.4714218526242e+40
1370.3703703703704 4.405828783302116e+40
1380.3803803803803 4.3395403028512817e+40
1390.3903903903904 4.272728475937768e+40
1400.4004004004005 4.205550993218855e+40
1410.4104104104103 4.138151942356852e+40
1420.4204204204204 4.0706625732651917e+40
1430.4304304304305 4.003202051081387e+40
1440.4404404404404 3.935878191623579e+40
1450.4504504504505 3.868788175183507e+40
1460.4604604604606 3.8020192354558834e+40
1470.4704704704704 3.735649321216333e+40
1480.4804804804805 3.6697477290529836e+40
1490.4904904904906 3.6043757060431084e+40
1500.5005005005005 3.539587021759088e+40
1510.5105105105106 3.475428509398862e+40
1520.5205205205207 3.411940576175446e+40
1530.5305305305305 3.3491576833777617e+40
1540.5405405405404 3.2871087967397373e+40
1550.5505505505505 3.225817807934163e+40
1560.5605605605606 3.1653039281490806e+40
1570.5705705705705 3.1055820548143437e+40
1580.5805805805805 3.0466631126295603e+40
1590.5905905905906 2.9885543701075464e+40
1600.6006006006005 2.931259732894142e+40
1610.6106106106106 2.8747800151601772e+40
1620.6206206206207 2.819113190388297e+40
1630.6306306306305 2.76425462290026e+40
1640.6406406406406 2.71019728149244e+40
1650.6506506506507 2.6569319365723527e+40
1660.6606606606606 2.604447342219999e+40
1670.6706706706707 2.552730404638719e+40
1680.6806806806808 2.501766338513911e+40
1690.6906906906906 2.451538812868522e+40
1700.7007007007007 2.4020396071363535e+40
1710.7107107107108 2.3532869030340155e+40
1720.7207207207207 2.305254219570753e+40
1730.7307307307308 2.2579098890075037e+40
1740.7407407407409 2.2112225355392294e+40
1750.7507507507507 2.1651610959000412e+40
1760.7607607607606 2.1196948532456219e+40
1770.770770770771 2.0747934869448964e+40
1780.7807807807808 2.0304271413376853e+40
1790.7907907907907 1.9865665169802865e+40
1800.8008008008007 1.943182988399168e+40
1810.8108108108108 1.9002487528908328e+40
1820.8208208208207 1.85773701542138e+40
1830.8308308308308 1.815622215159175e+40
1840.8408408408409 1.773880299569534e+40
1850.8508508508507 1.7324890522442963e+40
1860.8608608608608 1.6914284806402576e+40
1870.870870870871 1.6506812695397237e+40
1880.8808808808808 1.6102333051736409e+40
1890.890890890891 1.570074273379479e+40
1900.900900900901 1.5301983326891873e+40
1910.9109109109108 1.4906048596220327e+40
1920.920920920921 1.4512992584558444e+40
1930.930930930931 1.412293821159162e+40
1940.940940940941 1.3736086148546954e+40
1950.950950950951 1.3352723641636323e+40
1960.960960960961 1.2973232842918892e+40
1970.970970970971 1.2598098083292348e+40
1980.980980980981 1.2227911399244825e+40
1990.9909909909911 1.1863375517423766e+40
2001.001001001001 1.1505303428546177e+40
2011.0110110110109 1.1154613668075738e+40
2021.0210210210212 1.0812320490192533e+40
2031.031031031031 1.0479518295914582e+40
2041.0410410410411 1.0157359969526003e+40
2051.051051051051 9.847029188907211e+39
2061.061061061061 9.549707284111881e+39
2071.071071071071 9.266535781002866e+39
2081.081081081081 8.998576318474995e+39
2091.091091091091 8.746770091104048e+39
2101.101101101101 8.511899266167182e+39
2111.1111111111113 8.2945528929285e+39
2121.121121121121 8.095099631664373e+39
2131.131131131131 7.913669188916266e+39
2141.141141141141 7.750143703114995e+39
2151.151151151151 7.604159561540697e+39
2161.161161161161 7.475119341366015e+39
2171.1711711711714 7.362212847038298e+39
2181.1811811811813 7.26444563769752e+39
2191.191191191191 7.180673048074318e+39
2201.201201201201 7.109637520820017e+39
2211.2112112112113 7.050007077711548e+39
2221.221221221221 7.000412932581275e+39
2231.2312312312315 6.959484549477628e+39
2241.2412412412414 6.925880830079669e+39
2251.2512512512512 6.898316530117303e+39
2261.261261261261 6.875583415617015e+39
2271.271271271271 6.856566043922473e+39
2281.2812812812813 6.840252368622485e+39
2291.2912912912916 6.825739608575498e+39
2301.3013013013015 6.812235985252261e+39
2311.3113113113113 6.799059023532841e+39
2321.321321321321 6.78563113849962e+39
2331.331331331331 6.771473207638973e+39
2341.3413413413414 6.756196768360732e+39
2351.3513513513512 6.739495398440055e+39
2361.3613613613616 6.721135743669623e+39
2371.3713713713714 6.700948562034631e+39
2381.3813813813813 6.678820063845957e+39
2391.391391391391 6.654683746820339e+39
2401.4014014014015 6.628512856371422e+39
2411.4114114114113 6.600313545085404e+39
2421.4214214214217 6.570118761100254e+39
2431.4314314314315 6.537982861785497e+39
2441.4414414414414 6.50397692525231e+39
2451.4514514514512 6.468184716204921e+39
2461.4614614614616 6.43069925290038e+39
2471.4714714714714 6.391619917081626e+39
2481.4814814814818 6.351050047441664e+39
2491.4914914914916 6.309094958427829e+39
2501.5015015015015 6.265860329167918e+39
2511.5115115115113 6.221450911343266e+39
2521.521521521521 6.175969509454652e+39
2531.5315315315315 6.1295161917653e+39
2541.541541541542 6.082187695008053e+39
2551.5515515515517 6.034076990541052e+39
2561.5615615615616 5.985272983922571e+39
2571.5715715715714 5.935860323792142e+39
2581.5815815815813 5.885919299467107e+39
2591.5915915915916 5.835525809790806e+39
2601.6016016016015 5.784751388514695e+39
2611.611611611612 5.733663273887323e+39
2621.6216216216217 5.68232451218726e+39
2631.6316316316315 5.630794086707633e+39
2641.6416416416414 5.579127065209417e+39
2651.6516516516517 5.527374760140125e+39
2661.6616616616616 5.475584896993981e+39
2671.671671671672 5.4238017870955026e+39
2681.6816816816818 5.372066501845561e+39
2691.6916916916916 5.3204170460984053e+39
2701.7017017017015 5.2688885288595253e+39
2711.711711711712 5.217513329923672e+39
2721.7217217217217 5.166321261424629e+39
2731.731731731732 5.115339723555337e+39
2741.741741741742 5.0645938539500306e+39
2751.7517517517517 5.0141066704073115e+39
2761.7617617617616 4.9638992067830125e+39
2771.7717717717715 4.9139906420001043e+39
2781.781781781782 4.8643984222158244e+39
2791.791791791792 4.815138376257733e+39
2801.801801801802 4.7662248244946725e+39
2811.811811811812 4.717670681348749e+39
2821.8218218218217 4.669487551683126e+39
2831.8318318318316 4.621685821319746e+39
2841.841841841842 4.574274741953217e+39
2851.851851851852 4.527262510733081e+39
2861.861861861862 4.480656344788203e+39
2871.871871871872 4.434462550964873e+39
2881.881881881882 4.3886865910452467e+39
2891.8918918918916 4.3433331427058025e+39
2901.901901901902 4.2984061564668406e+39
2911.911911911912 4.2539089088745877e+39
2921.921921921922 4.209844052146957e+39
2931.931931931932 4.166213660503402e+39
2941.941941941942 4.123019273388217e+39
2951.9519519519517 4.080261935785727e+39
2961.961961961962 4.0379422358148914e+39
2971.971971971972 3.996060339780227e+39
2981.9819819819822 3.954616024845586e+39
2991.991991991992 3.913608709487361e+39
3002.002002002002 3.873037481874092e+39
3012.012012012012 3.8329011263103065e+39
3022.0220220220217 3.793198147873676e+39
3032.032032032032 3.7687593067357475e+39
3042.0420420420423 3.727973129020101e+39
3052.052052052052 3.687124565803256e+39
3062.062062062062 3.646360197406793e+39
3072.072072072072 3.605803868823523e+39
3082.0820820820823 3.5655592377502437e+39
3092.092092092092 3.5257121109436226e+39
3102.102102102102 3.486332574088224e+39
3112.1121121121123 3.447476923564258e+39
3122.122122122122 3.409189410644629e+39
3132.132132132132 3.371503809969217e+39
3142.1421421421423 3.3344448248306807e+39
3152.152152152152 3.298029342016154e+39
3162.162162162162 3.2622675488094083e+39
3172.1721721721724 3.2271639243675576e+39
3182.1821821821823 3.1927181171244794e+39
3192.192192192192 3.1589257192008e+39
3202.202202202202 3.12577894806426e+39
3212.2122122122123 3.093267244919962e+39
3222.222222222222 3.0613777985433777e+39
3232.232232232232 3.030096002518963e+39
3242.2422422422424 2.999405853126739e+39
3252.252252252252 2.969290294436787e+39
3262.262262262262 2.9397315165327655e+39
3272.2722722722724 2.9107112121927286e+39
3282.2822822822823 2.8822107968096055e+39
3292.292292292292 2.85421159583411e+39
3302.3023023023025 2.826695003568056e+39
3312.3123123123123 2.7996426167238246e+39
3322.322322322322 2.773036345793638e+39
3332.3323323323325 2.7468585069371715e+39
3342.3423423423424 2.721091896795563e+39
3352.352352352352 2.6957198523704543e+39
3362.3623623623625 2.6707262978662433e+39
3372.3723723723724 2.6460957801789228e+39
3382.3823823823823 2.6218134945234848e+39
3392.3923923923926 2.5978653015218067e+39
3402.4024024024025 2.574237736921208e+39
3412.4124124124123 2.550918014979455e+39
3422.4224224224226 2.5278940264323418e+39
3432.4324324324325 2.505154331853813e+39
3442.4424424424424 2.4826881511242647e+39
3452.4524524524522 2.46048534963899e+39
3462.4624624624626 2.438536421814318e+39
3472.4724724724724 2.4168324723830117e+39
3482.4824824824823 2.3953651959116968e+39
3492.4924924924926 2.3741268549210473e+39
3502.5025025025025 2.353110256942908e+39
3512.5125125125123 2.3323087308073493e+39
3522.5225225225226 2.3117161024158247e+39
3532.5325325325325 2.2913266702238443e+39
3542.5425425425424 2.2711351806274485e+39
3552.5525525525527 2.251136803421663e+39
3562.5625625625626 2.2313271074759476e+39
3572.5725725725724 2.2117020367509388e+39
3582.5825825825827 2.1922578867622797e+39
3592.5925925925926 2.1729912815808586e+39
3602.6026026026025 2.1538991514440596e+39
3612.612612612613 2.1349787110395047e+39
3622.6226226226227 2.1162274385110654e+39
3632.6326326326325 2.0976430552265242e+39
3642.642642642643 2.0792235063370122e+39
3652.6526526526527 2.0609669421501017e+39
3662.6626626626626 2.0428717003311547e+39
3672.672672672673 2.024936288941131e+39
3682.6826826826828 2.007159370313335e+39
3692.6926926926926 1.989539745766609e+39
3702.7027027027025 1.9720763411481436e+39
3712.712712712713 1.9547681931952826e+39
3722.7227227227227 1.9376144367024246e+39
3732.7327327327325 1.9206142924762813e+39
3742.742742742743 1.903767056060454e+39
3752.7527527527527 1.8870720872081854e+39
3762.7627627627626 1.8705288000805634e+39
3772.772772772773 1.8541366541460843e+39
3782.7827827827828 1.837895145756404e+39
3792.7927927927926 1.821803800372329e+39
3802.802802802803 1.805862165413517e+39
3812.812812812813 1.7900698037049542e+39
3822.8228228228227 1.7744262874931218e+39
3832.832832832833 1.758931193004723e+39
3842.842842842843 1.743584095520946e+39
3852.8528528528527 1.728384564940507e+39
3862.862862862863 1.713332161805047e+39
3872.872872872873 1.698426433760943e+39
3882.8828828828828 1.683666912432062e+39
3892.892892892893 1.669053110678716e+39
3902.902902902903 1.6545845202185904e+39
3912.912912912913 1.6402606095862722e+39
3922.922922922923 1.6260808224086707e+39
3932.932932932933 1.6120445759744904e+39
3942.942942942943 1.598151260076652e+39
3952.9529529529527 1.5844002361074558e+39
3962.962962962963 1.570790836387119e+39
3972.972972972973 1.5573223637071227e+39
3982.982982982983 1.5439940910707202e+39
3992.992992992993 1.5308052616137515e+39
4003.003003003003 1.5177550886898183e+39
4013.013013013013 1.504842756104606e+39
4023.023023023023 1.492067418485055e+39
4033.033033033033 1.479428201769827e+39
4043.043043043043 1.4669242038082894e+39
4053.053053053053 1.4545544950560427e+39
4063.063063063063 1.442318119355705e+39
4073.073073073073 1.4302140947924116e+39
4083.0830830830832 1.418241414614162e+39
4093.093093093093 1.4063990482078316e+39
4103.103103103103 1.394685942122256e+39
4113.113113113113 1.383101021130482e+39
4123.123123123123 1.371643189323769e+39
4133.133133133133 1.3603113312305767e+39
4143.143143143143 1.3491043129542525e+39
4153.153153153153 1.3380209833236307e+39
4163.163163163163 1.3270601750512827e+39
4173.173173173173 1.3162207058945645e+39
4183.183183183183 1.3055013798150716e+39
4193.193193193193 1.29490098813249e+39
4203.203203203203 1.2844183106692395e+39
4213.213213213214 1.2740521168826565e+39
4223.223223223224 1.263801166981781e+39
4233.2332332332335 1.253664213026168e+39
4243.243243243243 1.2436400000044023e+39
4253.253253253253 1.233727266890301e+39
4263.263263263263 1.2239247476750218e+39
4273.273273273273 1.214231172373555e+39
4283.283283283283 1.2046452680042795e+39
4293.293293293293 1.1951657595404953e+39
4303.303303303303 1.1857913708329993e+39
4313.313313313313 1.176520825502993e+39
4323.323323323323 1.1673528478047176e+39
4333.333333333334 1.158286163457414e+39
4343.343343343344 1.1493195004463079e+39
4353.353353353354 1.1404515897924471e+39
4363.3633633633635 1.1316811662913454e+39
4373.373373373373 1.1230069692204771e+39
4383.383383383383 1.114427743015768e+39
4393.393393393393 1.1059422379173006e+39
4403.403403403403 1.0975492105845415e+39
4413.413413413413 1.0892474246814466e+39
4423.423423423424 1.0810356514318872e+39
4433.4334334334335 1.072912670145859e+39
4443.443443443443 1.0648772687170106e+39
4453.453453453454 1.0569282440920477e+39
4463.463463463464 1.0490644027126338e+39
4473.473473473474 1.0412845609303751e+39
4483.483483483484 1.0335875453955985e+39
4493.493493493494 1.0259721934205508e+39
4503.503503503503 1.0184373533177386e+39
4513.513513513513 1.0109818847141015e+39
4523.523523523523 1.0036046588417346e+39
4533.533533533533 9.963045588058857e+38
4543.543543543543 9.890804798309403e+38
4553.553553553554 9.819313294851343e+38
4563.563563563564 9.748560278847054e+38
4573.573573573573 9.678535078782122e+38
4583.583583583584 9.609227152117378e+38
4593.593593593594 9.540626086756835e+38
4603.603603603604 9.472721602338546e+38
4613.613613613614 9.405503551355402e+38
4623.623623623624 9.338961920112512e+38
4633.6336336336335 9.273086829528081e+38
4643.643643643643 9.207868535784247e+38
4653.653653653653 9.143297430834295e+38
4663.663663663663 9.079364042772728e+38
4673.673673673674 9.01605903607419e+38
4683.683683683684 8.953373211707434e+38
4693.693693693694 8.89129750713008e+38
4703.703703703704 8.829822996169978e+38
4713.713713713714 8.768940888798776e+38
4723.723723723724 8.708642530803015e+38
4733.733733733734 8.648919403358076e+38
4743.743743743744 8.589763122510176e+38
4753.753753753754 8.531165438571151e+38
4763.763763763764 8.473118235431115e+38
4773.773773773773 8.415613529793302e+38
4783.783783783783 8.358643470335977e+38
4793.793793793793 8.302200336805382e+38
4803.803803803804 8.24627653904418e+38
4813.813813813814 8.190864615959324e+38
4823.823823823824 8.135957234433295e+38
4833.833833833834 8.081547188182432e+38
4843.843843843844 8.02762739656608e+38
4853.853853853854 7.974190903349885e+38
4863.863863863864 7.921230875426775e+38
4873.873873873874 7.86874060149869e+38
4883.883883883884 7.816713490722323e+38
4893.893893893894 7.76514307132166e+38
4903.9039039039035 7.714022989170392e+38
4913.913913913913 7.663347006346748e+38
4923.923923923924 7.613108999663484e+38
4933.933933933934 7.563302959175558e+38
4943.943943943944 7.513922986667766e+38
4953.953953953955 7.464963294124836e+38
4963.9639639639645 7.416418202186044e+38
4973.973973973974 7.368282138586456e+38
4983.983983983984 7.320549636586929e+38
4993.993993993994 7.273215333394653e+38
5004.004004004004 7.226273968576124e+38
5014.014014014014 7.179720382464318e+38
5024.024024024024 7.133549514561641e+38
5034.0340340340335 7.087756401940356e+38
5044.044044044043 7.04233617764187e+38
5054.054054054054 6.997284069076373e+38
5064.064064064064 6.952595396424191e+38
5074.074074074074 6.908265571040097e+38
5084.084084084085 6.86429009386181e+38
5094.0940940940945 6.820664553823902e+38
5104.104104104104 6.777384626278068e+38
5114.114114114114 6.73444607142092e+38
5124.124124124124 6.6918447327302176e+38
5134.134134134134 6.649576535410445e+38
5144.144144144144 6.607637484848616e+38
5154.154154154154 6.566023665081123e+38
5164.1641641641645 6.524731237272369e+38
5174.174174174174 6.48375643820593e+38
5184.184184184184 6.443095578788849e+38
5194.194194194194 6.402745042569777e+38
5204.204204204204 6.362701284271486e+38
5214.214214214214 6.322960828338272e+38
5224.224224224225 6.283520267498819e+38
5234.2342342342345 6.2443762613449206e+38
5244.244244244244 6.205525534926525e+38
5254.254254254254 6.166964877363493e+38
5264.264264264264 6.1286911404743866e+38
5274.274274274274 6.09070123742271e+38
5284.284284284285 6.052992141380775e+38
5294.294294294295 6.015560884211581e+38
5304.304304304304 5.978404555168842e+38
5314.314314314314 5.9415202996154694e+38
5324.324324324324 5.904905317760621e+38
5334.334334334334 5.868556863415544e+38
5344.344344344345 5.832472242768272e+38
5354.354354354355 5.79664881317742e+38
5364.3643643643645 5.761083981985001e+38
5374.374374374374 5.7257752053485166e+38
5384.384384384384 5.690719987092246e+38
5394.394394394394 5.655915877577848e+38
5404.404404404404 5.621360472594246e+38
5414.414414414415 5.587051412266842e+38
5424.424424424425 5.552986379986028e+38
5434.4344344344345 5.519163101354948e+38
5444.444444444444 5.485579343156479e+38
5454.454454454454 5.452232912339432e+38
5464.464464464464 5.419121655023797e+38
5474.474474474475 5.3862434555250245e+38
5484.484484484485 5.3535962353972475e+38
5494.494494494495 5.321177952495281e+38
5504.504504504504 5.2889866000553815e+38
5514.514514514514 5.257020205794526e+38
5524.524524524524 5.225276831028187e+38
5534.534534534535 5.193754569806367e+38
5544.544544544545 5.162451548067805e+38
5554.554554554555 5.131365922812158e+38
5564.5645645645645 5.100495881290012e+38
5574.574574574574 5.069839640210537e+38
5584.584584584584 5.039395444966617e+38
5594.594594594595 5.009161568877232e+38
5604.604604604605 4.9791363124469905e+38
5614.614614614615 4.949318002642482e+38
5624.624624624625 4.9197049921853684e+38
5634.6346346346345 4.8902956588619585e+38
5644.644644644644 4.86108840484903e+38
5654.654654654654 4.832081656055753e+38
5664.664664664665 4.803273861481406e+38
5674.674674674675 4.7746634925888005e+38
5684.684684684685 4.746249042693009e+38
5694.694694694695 4.718029026365343e+38
5704.704704704704 4.690001978852269e+38
5714.714714714714 4.662166455509023e+38
5724.724724724725 4.634521031247743e+38
5734.734734734735 4.607064299999858e+38
5744.744744744745 4.5797948741924935e+38
5754.754754754755 4.552711384238684e+38
5764.764764764765 4.525812478041136e+38
5774.774774774774 4.499096820509343e+38
5784.784784784785 4.4725630930897555e+38
5794.794794794795 4.446209993308837e+38
5804.804804804805 4.4200362343287325e+38
5814.814814814815 4.3940405445153225e+38
5824.824824824825 4.368221667018449e+38
5834.8348348348345 4.342578359364029e+38
5844.844844844845 4.317109393057917e+38
5854.854854854855 4.2918135532011715e+38
5864.864864864865 4.26668963811657e+38
5874.874874874875 4.24173645898615e+38
5884.884884884885 4.216952839499492e+38
5894.894894894895 4.1923376155125645e+38
5904.9049049049045 4.167889634716906e+38
