#lamb flux
1000.0 3.0463734660868425e+39
1010.01001001001 3.098511584666307e+39
1020.0200200200201 3.143341470078278e+39
1030.03003003003 3.181237626338479e+39
1040.0400400400401 3.212600625597216e+39
1050.05005005005 3.2378472670754466e+39
1060.06006006006 3.2574021789545684e+39
1070.07007007007 3.271690778543099e+39
1080.08008008008 3.281133483086156e+39
1090.0900900900901 3.286141050652257e+39
1100.1001001001 3.287110925342705e+39
1110.11011011011 3.284424461651719e+39
1120.1201201201202 3.2784449075099934e+39
1130.13013013013 3.269516033028671e+39
1140.1401401401401 3.2579613011601495e+39
1150.1501501501502 3.244083486586688e+39
1160.16016016016 3.2281646595233516e+39
1170.1701701701702 3.210466461335043e+39
1180.1801801801803 3.1912306086126474e+39
1190.1901901901902 3.1706795714323626e+39
1200.2002002002002 3.1490173798211977e+39
1210.2102102102103 3.126430519917646e+39
1220.2202202202202 3.10308888794262e+39
1230.2302302302303 3.079146775906792e+39
1240.2402402402402 3.054743868021666e+39
1250.2502502502502 3.0298207599610546e+39
1260.2602602602603 3.003949441592502e+39
1270.2702702702702 2.97628172115177e+39
1280.2802802802803 2.9470001685625477e+39
1290.2902902902902 2.916277136720798e+39
1300.3003003003003 2.8842748533048054e+39
1310.3103103103103 2.851145586848846e+39
1320.3203203203202 2.8170318733567784e+39
1330.3303303303303 2.782066791346697e+39
1340.3403403403404 2.7463742747155485e+39
1350.3503503503503 2.710069454189206e+39
1360.3603603603603 2.6732590193781667e+39
1370.3703703703704 2.6360415945940236e+39
1380.3803803803803 2.5985081226016167e+39
1390.3903903903904 2.5607422513921856e+39
1400.4004004004005 2.5228207198706724e+39
1410.4104104104103 2.4848137390630708e+39
1420.4204204204204 2.446785366074966e+39
1430.4304304304305 2.408793868577832e+39
1440.4404404404404 2.3708920780728995e+39
1450.4504504504505 2.3331277305903974e+39
1460.4604604604606 2.295543793831988e+39
1470.4704704704704 2.2581787800621905e+39
1480.4804804804805 2.221067044306974e+39
1490.4904904904906 2.1842390676295358e+39
1500.5005005005005 2.1477217254299203e+39
1510.5105105105106 2.111538540861005e+39
1520.5205205205207 2.0757099235726054e+39
1530.5305305305305 2.0402533940918044e+39
1540.5405405405404 2.00518379422446e+39
1550.5505505505505 1.9705134839232058e+39
1560.5605605605606 1.9362525251137333e+39
1570.5705705705705 1.902408853006458e+39
1580.5805805805805 1.8689884354466167e+39
1590.5905905905906 1.8359954208748373e+39
1600.6006006006005 1.8034322754838242e+39
1610.6106106106106 1.7712999101668495e+39
1620.6206206206207 1.7395977978617798e+39
1630.6306306306305 1.708324081902008e+39
1640.6406406406406 1.6774756759943088e+39
1650.6506506506507 1.6470483564550156e+39
1660.6606606606606 1.6170368473512017e+39
1670.6706706706707 1.5874348992148907e+39
1680.6806806806808 1.5582353620268792e+39
1690.6906906906906 1.529430253204837e+39
1700.7007007007007 1.5010155668041517e+39
1710.7107107107108 1.4730004426643848e+39
1720.7207207207207 1.4453717337468267e+39
1730.7307307307308 1.4181135997833315e+39
1740.7407407407409 1.3912102340155734e+39
1750.7507507507507 1.364645873025155e+39
1760.7607607607606 1.3384048128035721e+39
1770.770770770771 1.3124714324509642e+39
1780.7807807807808 1.286830227132826e+39
1790.7907907907907 1.2614658521926262e+39
1800.8008008008007 1.23636318061372e+39
1810.8108108108108 1.2115073763414117e+39
1820.8208208208207 1.1868839863067788e+39
1830.8308308308308 1.162479054323516e+39
1840.8408408408409 1.138279260335352e+39
1850.8508508508507 1.1142720887424187e+39
1860.8608608608608 1.0904460296850861e+39
1870.870870870871 1.0667908171522389e+39
1880.8808808808808 1.0432977075280406e+39
1890.890890890891 1.0199598015962315e+39
1900.900900900901 9.967724119620133e+38
1910.9109109109108 9.737334761871411e+38
1920.920920920921 9.508440135110037e+38
1930.930930930931 9.28108619697412e+38
1940.940940940941 9.055359901771663e+38
1950.950950950951 8.831394561829628e+38
1960.960960960961 8.609375120351231e+38
1970.970970970971 8.38954304337162e+38
1980.980980980981 8.172200460099075e+38
1990.9909909909911 7.9577131054632e+38
2001.001001001001 7.746511556378988e+38
2011.0110110110109 7.539090217395292e+38
2021.0210210210212 7.33600351742412e+38
2031.031031031031 7.137858842693147e+38
2041.0410410410411 6.945305864666395e+38
2051.051051051051 6.759022131581225e+38
2061.061061061061 6.579695074065146e+38
2071.071071071071 6.4080009110481855e+38
2081.081081081081 6.244581299400409e+38
2091.091091091091 6.090018904768641e+38
2101.101101101101 5.944813331195946e+38
2111.1111111111113 5.809358985438602e+38
2121.121121121121 5.683926433765092e+38
2131.131131131131 5.5686486216516756e+38
2141.141141141141 5.4635129839227125e+38
2151.151151151151 5.368360013617231e+38
2161.161161161161 5.282888339774755e+38
2171.1711711711714 5.206665852693052e+38
2181.1811811811813 5.139145971155737e+38
2191.191191191191 5.0796878167102385e+38
2201.201201201201 5.027578872188944e+38
2211.2112112112113 4.982058660507339e+38
2221.221221221221 4.942342071303858e+38
2231.2312312312315 4.907641159068347e+38
2241.2412412412414 4.877184501125041e+38
2251.2512512512512 4.8502334997055105e+38
2261.261261261261 4.8260953054452674e+38
2271.271271271271 4.804132303148953e+38
2281.2812812812813 4.783768316663716e+38
2291.2912912912916 4.7644918492911026e+38
2301.3013013013015 4.745856778403238e+38
2311.3113113113113 4.727480972899183e+38
2321.321321321321 4.7090433087813936e+38
2331.331331331331 4.690279532153525e+38
2341.3413413413414 4.670977371110508e+38
2351.3513513513512 4.6509712379581186e+38
2361.3613613613616 4.6301367988214034e+38
2371.3713713713714 4.6083856248113406e+38
2381.3813813813813 4.585660081406393e+38
2391.391391391391 4.561928562789046e+38
2401.4014014014015 4.53718113646683e+38
2411.4114114114113 4.511425630572312e+38
2421.4214214214217 4.484684171138163e+38
2431.4314314314315 4.4569901584018235e+38
2441.4414414414414 4.428385658690765e+38
2451.4514514514512 4.3989191805536476e+38
2461.4614614614616 4.3686437994982395e+38
2471.4714714714714 4.33761559406833e+38
2481.4814814814818 4.305892356279646e+38
2491.4914914914916 4.2735325410271585e+38
2501.5015015015015 4.240594421494329e+38
2511.5115115115113 4.20713542047709e+38
2521.521521521521 4.173211590616747e+38
2531.5315315315315 4.13887721963003e+38
2541.541541541542 4.104184539605619e+38
2551.5515515515517 4.069183522225725e+38
2561.5615615615616 4.033921744324327e+38
2571.5715715715714 3.998444310490655e+38
2581.5815815815813 3.9627938214645086e+38
2591.5915915915916 3.927010378858298e+38
2601.6016016016015 3.891131618294343e+38
2611.611611611612 3.8551927643853385e+38
2621.6216216216217 3.819226702131927e+38
2631.6316316316315 3.783264060285852e+38
2641.6416416416414 3.747333303051433e+38
2651.6516516516517 3.711460827191065e+38
2661.6616616616616 3.675671062180805e+38
2671.671671671672 3.6399865715453475e+38
2681.6816816816818 3.604428153902599e+38
2691.6916916916916 3.56901494257875e+38
2701.7017017017015 3.5337645029266306e+38
2711.711711711712 3.498692926702198e+38
2721.7217217217217 3.463814923034542e+38
2731.731731731732 3.429143905670707e+38
2741.741741741742 3.3946920762937386e+38
2751.7517517517517 3.3604705038054777e+38
2761.7617617617616 3.3264891995392964e+38
2771.7717717717715 3.292757188425113e+38
2781.781781781782 3.2592825761732164e+38
2791.791791791792 3.226072612576623e+38
2801.801801801802 3.193133751056076e+38
2811.811811811812 3.1604717045892117e+38
2821.8218218218217 3.128091498177028e+38
2831.8318318318316 3.0959975180078536e+38
2841.841841841842 3.064193557482539e+38
2851.851851851852 3.0326828602652265e+38
2861.861861861862 3.001468160522545e+38
2871.871871871872 2.970551720510877e+38
2881.881881881882 2.9399353656669395e+38
2891.8918918918916 2.909620517351561e+38
2901.901901901902 2.879608223390576e+38
2911.911911911912 2.8498991865504187e+38
2921.921921921922 2.8204937910793426e+38
2931.931931931932 2.791392127438556e+38
2941.941941941942 2.762594015340791e+38
2951.9519519519517 2.734099025207297e+38
2961.961961961962 2.705906498147764e+38
2971.971971971972 2.678015564561418e+38
2981.9819819819822 2.650425161451552e+38
2991.991991991992 2.6231340485399607e+38
3002.002002002002 2.5961408232622593e+38
3012.012012012012 2.569443934719857e+38
3022.0220220220217 2.5430416966593934e+38
3032.032032032032 2.5248628586198476e+38
3042.0420420420423 2.4980056809048788e+38
3052.052052052052 2.4711752392429194e+38
3062.062062062062 2.44444890439608e+38
3072.072072072072 2.4178919552169703e+38
3082.0820820820823 2.391558941543257e+38
3092.092092092092 2.365494929223518e+38
3102.102102102102 2.3397366320469837e+38
3112.1121121121123 2.314313436483348e+38
3122.122122122122 2.289248325841476e+38
3132.132132132132 2.2645587108263256e+38
3142.1421421421423 2.2402571735920408e+38
3152.152152152152 2.2163521323207627e+38
3162.162162162162 2.192848433153834e+38
3172.1721721721724 2.1697478760053184e+38
3182.1821821821823 2.147049680429853e+38
3192.192192192192 2.1247508973223087e+38
3202.202202202202 2.1028467718147185e+38
3212.2122122122123 2.0813310623203364e+38
3222.222222222222 2.0601963202659833e+38
3232.232232232232 2.0394341346591924e+38
3242.2422422422424 2.0190353452611395e+38
3252.252252252252 1.9989902277828223e+38
3262.262262262262 1.9792886541924793e+38
3272.2722722722724 1.9599202309172087e+38
3282.2822822822823 1.940874417441301e+38
3292.292292292292 1.9221406275471983e+38
3302.3023023023025 1.9037083152113165e+38
3312.3123123123123 1.885567046954923e+38
3322.322322322322 1.8677065622585296e+38
3332.3323323323325 1.850116823475229e+38
3342.3423423423424 1.8327880565228657e+38
3352.352352352352 1.815710783495045e+38
3362.3623623623625 1.7988758482057933e+38
3372.3723723723724 1.782274435570427e+38
3382.3823823823823 1.765898085624834e+38
3392.3923923923926 1.749738702895864e+38
3402.4024024024025 1.7337885617553933e+38
3412.4124124124123 1.7180403083192964e+38
3422.4224224224226 1.7024869593889174e+38
3432.4324324324325 1.6871218988758438e+38
3442.4424424424424 1.6719388721002137e+38
3452.4524524524522 1.6569319783076964e+38
3462.4624624624626 1.64209566171009e+38
3472.4724724724724 1.6274247013186831e+38
3482.4824824824823 1.6129141998075256e+38
3492.4924924924926 1.5985595716153674e+38
3502.5025025025025 1.5843565304695226e+38
3512.5125125125123 1.5703010764923361e+38
3522.5225225225226 1.5563894830306796e+38
3532.5325325325325 1.5426182833308457e+38
3542.5425425425424 1.5289842571651446e+38
3552.5525525525527 1.5154844175020974e+38
3562.5625625625626 1.5021159972993142e+38
3572.5725725725724 1.4888764364866679e+38
3582.5825825825827 1.4757633691972051e+38
3592.5925925925926 1.4627746112940692e+38
3602.6026026026025 1.4499081482336335e+38
3612.612612612613 1.4371621232977973e+38
3622.6226226226227 1.4245348262219555e+38
3632.6326326326325 1.4120246822394441e+38
3642.642642642643 1.3996302415582218e+38
3652.6526526526527 1.3873501692810047e+38
3662.6626626626626 1.3751832357761517e+38
3672.672672672673 1.363128307503108e+38
3682.6826826826828 1.3511843382931294e+38
3692.6926926926926 1.3393503610833534e+38
3702.7027027027025 1.3276254800999284e+38
3712.712712712713 1.3160088634839505e+38
3722.7227227227227 1.30449973635217e+38
3732.7327327327325 1.2930973742829845e+38
3742.742742742743 1.2818010972170025e+38
3752.7527527527527 1.2706102637604124e+38
3762.7627627627626 1.2595242658785454e+38
3772.772772772773 1.2485425239663649e+38
3782.7827827827828 1.2376644822820688e+38
3792.7927927927926 1.2268896047296043e+38
3802.802802802803 1.2162173709756536e+38
3812.812812812813 1.205647272886446e+38
3822.8228228228227 1.195178811269727e+38
3832.832832832833 1.184811492907214e+38
3842.842842842843 1.1745448278629746e+38
3852.8528528528527 1.1643783270533176e+38
3862.862862862863 1.1543115000640075e+38
3872.872872872873 1.1443438532008895e+38
3882.8828828828828 1.1344748877602867e+38
3892.892892892893 1.1247040985059506e+38
3902.902902902903 1.1150309723396103e+38
3912.912912912913 1.1054549871526714e+38
3922.922922922923 1.0959756108469619e+38
3932.932932932933 1.0865923005128986e+38
3942.942942942943 1.0773045017538494e+38
3952.9529529529527 1.0681116481459612e+38
3962.962962962963 1.0590131608231568e+38
3972.972972972973 1.0500084481774552e+38
3982.982982982983 1.0410969056652435e+38
3992.992992992993 1.0322779157105654e+38
4003.003003003003 1.0235508476969688e+38
4013.013013013013 1.0149150580398399e+38
4023.023023023023 1.0063698903316492e+38
4033.033033033033 9.979146755529188e+37
4043.043043043043 9.895487323421304e+37
4053.053053053053 9.812713673182284e+37
4063.063063063063 9.730818754497176e+37
4073.073073073073 9.649795404647665e+37
4083.0830830830832 9.569636352970707e+37
4093.093093093093 9.490334225625862e+37
4103.103103103103 9.411881550625743e+37
4113.113113113113 9.334270763087342e+37
4123.123123123123 9.257494210664753e+37
4133.133133133133 9.181544159127168e+37
4143.143143143143 9.106412798048519e+37
4153.153153153153 9.032092246577859e+37
4163.163163163163 8.958574559262106e+37
4173.173173173173 8.88585173189529e+37
4183.183183183183 8.813915707370485e+37
4193.193193193193 8.742758381512887e+37
4203.203203203203 8.672371608874495e+37
4213.213213213214 8.602747208472798e+37
4223.223223223224 8.53387696945745e+37
4233.2332332332335 8.46575265669084e+37
4243.243243243243 8.398366016229887e+37
4253.253253253253 8.331708780697861e+37
4263.263263263263 8.265772674536482e+37
4273.273273273273 8.200549419129644e+37
4283.283283283283 8.1360307377915e+37
4293.293293293293 8.072208360612657e+37
4303.303303303303 8.009074029159099e+37
4313.313313313313 7.94661950101973e+37
4323.323323323323 7.884836554198894e+37
4333.333333333334 7.8237169913513805e+37
4343.343343343344 7.763252643857933e+37
4353.353353353354 7.703435375740005e+37
4363.3633633633635 7.644257087413174e+37
4373.373373373373 7.585709719279089e+37
4383.383383383383 7.527785255156464e+37
4393.393393393393 7.470475725551871e+37
4403.403403403403 7.413773210771795e+37
4413.413413413413 7.357669843877453e+37
4423.423423423424 7.302157813484546e+37
4433.4334334334335 7.247229366410097e+37
4443.443443443443 7.192876810169018e+37
4453.453453453454 7.139092515323124e+37
4463.463463463464 7.085868917685715e+37
4473.473473473474 7.033198520384606e+37
4483.483483483484 6.981073895787244e+37
4493.493493493494 6.929487687291053e+37
4503.503503503503 6.8784326109827e+37
4513.513513513513 6.827901457169807e+37
4523.523523523523 6.777887091788763e+37
4533.533533533533 6.728382457692486e+37
4543.543543543543 6.679380575821673e+37
4553.553553553554 6.63087454626346e+37
4563.563563563564 6.58285754920124e+37
4573.573573573573 6.535322845759317e+37
4583.583583583584 6.488263778746258e+37
4593.593593593594 6.441673773300595e+37
4603.603603603604 6.395546337442562e+37
4613.613613613614 6.349875062535589e+37
4623.623623623624 6.304653623661038e+37
4633.6336336336335 6.259875779909855e+37
4643.643643643643 6.215535374594529e+37
4653.653653653653 6.171626335384839e+37
4663.663663663663 6.128142674370721e+37
4673.673673673674 6.085078488055564e+37
4683.683683683684 6.042427957283163e+37
4693.693693693694 6.000185347101417e+37
4703.703703703704 5.958345006565919e+37
4713.713713713714 5.916901368486367e+37
4723.723723723724 5.875848949118738e+37
4733.733733733734 5.835182347806012e+37
4743.743743743744 5.794896246570277e+37
4753.753753753754 5.75498540965878e+37
4763.763763763764 5.715444683046631e+37
4773.773773773773 5.676268993898521e+37
4783.783783783783 5.637453349992069e+37
4793.793793793793 5.598992839104962e+37
4803.803803803804 5.560882628368282e+37
4813.813813813814 5.523117963588187e+37
4823.823823823824 5.48569416853804e+37
4833.833833833834 5.448606644223044e+37
4843.843843843844 5.411850868119375e+37
4853.853853853854 5.375422393389664e+37
4863.863863863864 5.3393168480766965e+37
4873.873873873874 5.303529934277066e+37
4883.883883883884 5.268057427296484e+37
4893.893893893894 5.232895174788338e+37
4903.9039039039035 5.198039095877099e+37
4913.913913913913 5.163485180268033e+37
4923.923923923924 5.129229487344672e+37
4933.933933933934 5.09526814525542e+37
4943.943943943944 5.061597349990563e+37
4953.953953953955 5.028213364451014e+37
4963.9639639639645 4.9951125175099405e+37
4973.973973973974 4.96229120306841e+37
4983.983983983984 4.929745879106222e+37
4993.993993993994 4.897473066728884e+37
5004.004004004004 4.865469349211781e+37
5014.014014014014 4.8337313710425005e+37
5024.024024024024 4.802255836962128e+37
5034.0340340340335 4.771039511006519e+37
5044.044044044043 4.740079215548192e+37
5054.054054054054 4.709371830339766e+37
5064.064064064064 4.678914291559588e+37
5074.074074074074 4.64870359086027e+37
5084.084084084085 4.618736774420792e+37
5094.0940940940945 4.589010942002822e+37
5104.104104104104 4.559523246011777e+37
5114.114114114114 4.530270890563245e+37
5124.124124124124 4.501251130555253e+37
5134.134134134134 4.472461270746872e+37
5144.144144144144 4.443898664843632e+37
5154.154154154154 4.415560714590183e+37
5164.1641641641645 4.387444868870575e+37
5174.174174174174 4.359548622816584e+37
5184.184184184184 4.331869516924381e+37
5194.194194194194 4.304405136179902e+37
5204.204204204204 4.277153109193249e+37
5214.214214214214 4.250111107342327e+37
5224.224224224225 4.2232768439260496e+37
5234.2342342342345 4.19664807332732e+37
5244.244244244244 4.1702225901859836e+37
5254.254254254254 4.1439982285820184e+37
5264.264264264264 4.1179728612290427e+37
5274.274274274274 4.0921443986784244e+37
5284.284284284285 4.0665107885340155e+37
5294.294294294295 4.041070014677736e+37
5304.304304304304 4.015820096506065e+37
5314.314314314314 3.9907590881775656e+37
5324.324324324324 3.9658850778715125e+37
5334.334334334334 3.941196187057717e+37
5344.344344344345 3.916690569777567e+37
5354.354354354355 3.892366411936392e+37
5364.3643643643645 3.8682219306070944e+37
5374.374374374374 3.8442553733451945e+37
5384.384384384384 3.820465017515173e+37
5394.394394394394 3.796849169628211e+37
5404.404404404404 3.773406164691266e+37
5414.414414414415 3.7501343655674947e+37
5424.424424424425 3.7270321623479934e+37
5434.4344344344345 3.704097971734802e+37
5444.444444444444 3.681330236435155e+37
5454.454454454454 3.658727424566942e+37
5464.464464464464 3.636288029075272e+37
5474.474474474475 3.6140105671601427e+37
5484.484484484485 3.5918935797151e+37
5494.494494494495 3.5699356307768257e+37
5504.504504504504 3.548135306985597e+37
5514.514514514514 3.526491217056499e+37
5524.524524524524 3.5050019912613246e+37
5534.534534534535 3.4836662809210585e+37
5544.544544544545 3.4624827579088527e+37
5554.554554554555 3.4414501141633723e+37
5564.5645645645645 3.4205670612124364e+37
5574.574574574574 3.39983232970683e+37
5584.584584584584 3.3792446689641584e+37
5594.594594594595 3.3588028465226452e+37
5604.604604604605 3.3385056477047862e+37
5614.614614614615 3.3183518751906485e+37
5624.624624624625 3.298340348600801e+37
5634.6346346346345 3.2784699040886762e+37
5644.644644644644 3.25873939394226e+37
5654.654654654654 3.239147686194989e+37
5664.664664664665 3.219693664245702e+37
5674.674674674675 3.2003762264875626e+37
5684.684684684685 3.1811942859457343e+37
5694.694694694695 3.1621467699237813e+37
5704.704704704704 3.143232619658572e+37
5714.714714714714 3.1244507899836e+37
5724.724724724725 3.105800249000565e+37
5734.734734734735 3.087279977759095e+37
5744.744744744745 3.0688889699444507e+37
5754.754754754755 3.050626231573091e+37
5764.764764764765 3.0324907806959738e+37
5774.774774774774 3.0144816471094293e+37
5784.784784784785 2.9965978720734835e+37
5794.794794794795 2.9788385080375047e+37
5804.804804804805 2.961202618373021e+37
5814.814814814815 2.9436892771135813e+37
5824.824824824825 2.9262975687015357e+37
5834.8348348348345 2.909026587741572e+37
5844.844844844845 2.8918754387609235e+37
5854.854854854855 2.8748432359760594e+37
5864.864864864865 2.8579291030657697e+37
5874.874874874875 2.841132172950497e+37
5884.884884884885 2.8244515875777864e+37
5894.894894894895 2.8078864977137267e+37
