#lamb flux
1000.0 2.5953496746354148
1010.01001001001 2.6291167146949457
1020.0200200200201 2.657283591736534
1030.03003003003 2.680184046037856
1040.0400400400401 2.698161786500773
1050.05005005005 2.7115642543089296
1060.06006006006 2.7207374319943103
1070.07007007007 2.7260216064413028
1080.08008008008 2.7277479874813486
1090.0900900900901 2.7262360821019422
1100.1001001001 2.7217917265003004
1110.11011011011 2.7147056830925655
1120.1201201201202 2.7052527162092685
1130.13013013013 2.6936910678372596
1140.1401401401401 2.680262262850755
1150.1501501501502 2.665191181300442
1160.16016016016 2.648686343208434
1170.1701701701702 2.6309403587530706
1180.1801801801803 2.6121305035991145
1190.1901901901902 2.5924193853704938
1200.2002002002002 2.5719556728506876
1210.2102102102103 2.55087486443614
1220.2202202202202 2.5293000766873317
1230.2302302302303 2.507342837560256
1240.2402402402402 2.485103872105644
1250.2502502502502 2.4625443768993986
1260.2602602602603 2.4393684218362535
1270.2702702702702 2.4149880565261554
1280.2802802802803 2.389534790629246
1290.2902902902902 2.3631322208265053
1300.3003003003003 2.335896204096086
1310.3103103103103 2.3079350698189978
1320.3203203203202 2.2793498623338104
1330.3303303303303 2.2502346066434598
1340.3403403403404 2.2206765909639152
1350.3503503503503 2.190756660696877
1360.3603603603603 2.16054951921032
1370.3703703703704 2.1301240315263255
1380.3803803803803 2.099543527650822
1390.3903903903904 2.0688661028404147
1400.4004004004005 2.0381449125934212
1410.4104104104103 2.007428460581687
1420.4204204204204 1.976760878112591
1430.4304304304305 1.9461821940324262
1440.4404404404404 1.915728594258619
1450.4504504504505 1.88543267036374
1460.4604604604606 1.8553236568340095
1470.4704704704704 1.8254276567927754
1480.4804804804805 1.795767856119685
1490.4904904904906 1.7663647260120452
1500.5005005005005 1.737236214129728
1510.5105105105106 1.7083979245415892
1520.5205205205207 1.6798632867524568
1530.5305305305305 1.651643714137461
1540.5405405405404 1.6237487521471308
1550.5505505505505 1.5961862166738523
1560.5605605605606 1.5689623229897882
1570.5705705705705 1.5420818056796983
1580.5805805805805 1.5155480300004447
1590.5905905905906 1.48936309510374
1600.6006006006005 1.4635279295608659
1610.6106106106106 1.4380423796287793
1620.6206206206207 1.4129052906971855
1630.6306306306305 1.3881145823568153
1640.6406406406406 1.3636673175311411
1650.6506506506507 1.3395597661183183
1660.6606606606606 1.3157874635978917
1670.6706706706707 1.2923452650693292
1680.6806806806808 1.2692273952074384
1690.6906906906906 1.2464274946448626
1700.7007007007007 1.223941987314875
1710.7107107107108 1.2017765147057
1720.7207207207207 1.1799211154983602
1730.7307307307308 1.1583639294175283
1740.7407407407409 1.1370931051520585
1750.7507507507507 1.1160968060558785
1760.7607607607606 1.0953632200527996
1770.770770770771 1.0748805747320231
1780.7807807807808 1.054637158797896
1790.7907907907907 1.0346213512372282
1800.8008008008007 1.0148216597896278
1810.8108108108108 0.9952267705484402
1820.8208208208207 0.9758256107769109
1830.8308308308308 0.9566074272871302
1840.8408408408409 0.937561882983612
1850.8508508508507 0.9186791743976597
1860.8608608608608 0.8999501732019053
1870.870870870871 0.8813665947541889
1880.8808808808808 0.8629211966195354
1890.890890890891 0.8446080096856552
1900.900900900901 0.8264226038310893
1910.9109109109108 0.8083623890190118
1920.920920920921 0.7904269510546094
1930.930930930931 0.7726184189361844
1940.940940940941 0.7549418576377754
1950.950950950951 0.7374056762072391
1960.960960960961 0.7200220362409251
1970.970970970971 0.7028072402093405
1980.980980980981 0.6857820730252624
1990.9909909909911 0.668972064146155
2001.001001001001 0.6524076321134922
2011.0110110110109 0.6361240697313867
2021.0210210210212 0.6201613272565322
2031.031031031031 0.6045635542700508
2041.0410410410411 0.5893783694582719
2051.051051051051 0.574655842057816
2061.061061061061 0.5604471891991285
2071.071071071071 0.5468032187719274
2081.081081081081 0.5337725755289381
2091.091091091091 0.5213998756525536
2101.101101101101 0.5097238379410591
2111.1111111111113 0.49877553408738967
2121.121121121121 0.4885768829556553
2131.131131131131 0.47913950259856786
2141.141141141141 0.4704640093806408
2151.151151151151 0.4625398185417131
2161.161161161161 0.4553454592096145
2171.1711711711714 0.44884937460072055
2181.1811811811813 0.44301114028214755
2191.191191191191 0.43778300431338607
2201.201201201201 0.4331116356221867
2211.2112112112113 0.428939961975467
2221.221221221221 0.4252089854550245
2231.2312312312315 0.42185947912345645
2241.2412412412414 0.4188334904407332
2251.2512512512512 0.4160756016334662
2261.261261261261 0.41353392160234415
2271.271271271271 0.4111608057144387
2281.2812812812813 0.4089133174306434
2291.2912912912916 0.40675345845867117
2301.3013013013015 0.4046482020007126
2311.3113113113113 0.40256936720072084
2321.321321321321 0.40049337291571324
2331.331331331331 0.3984009063839798
2341.3413413413414 0.39627653816005715
2351.3513513513512 0.3941083096300189
2361.3613613613616 0.39188731414087385
2371.3713713713714 0.3896072877254683
2381.3813813813813 0.38726422086576756
2391.391391391391 0.38485599886342403
2401.4014014014015 0.3823820752249956
2411.4114114114113 0.379843179997253
2421.4214214214217 0.37724106313938877
2431.4314314314315 0.3745782717052221
2441.4414414414414 0.3718579587344334
2451.4514514514512 0.3690837212255561
2461.4614614614616 0.36625946430200335
2471.4714714714714 0.36338928861501313
2481.4814814814818 0.3604773980957419
2491.4914914914916 0.35752802532671063
2501.5015015015015 0.3545453720149063
2511.5115115115113 0.3515335622887698
2521.521521521521 0.34849660679015854
2531.5315315315315 0.3454383757771887
2541.541541541542 0.34236257968617656
2551.5515515515517 0.3392727558156672
2561.5615615615616 0.336172259990147
2571.5715715715714 0.33306426223464675
2581.5815815815813 0.32995174564431307
2591.5915915915916 0.32683750776625975
2601.6016016016015 0.3237241639260526
2611.611611611612 0.32061415202978033
2621.6216216216217 0.31750973845657543
2631.6316316316315 0.31441302472744137
2641.6416416416414 0.3113259546959757
2651.6516516516517 0.30825032205656794
2661.6616616616616 0.3051877780073037
2671.671671671672 0.3021398389393221
2681.6816816816818 0.2991078940528803
2691.6916916916916 0.2960932128237577
2701.7017017017015 0.29309695226276694
2711.711711711712 0.2901201639266711
2721.7217217217217 0.2871638006513687
2731.731731731732 0.28422872298827995
2741.741741741742 0.28131570533291045
2751.7517517517517 0.2784254417408934
2761.7617617617616 0.2755585514317811
2771.7717717717715 0.27271558398465184
2781.781781781782 0.26989702423250456
2791.791791791792 0.26710329686454326
2801.801801801802 0.2643347707469856
2811.811811811812 0.26159176297407594
2821.8218218218217 0.2588745426616386
2831.8318318318316 0.25618333449585506
2841.841841841842 0.2535183220500597
2851.851851851852 0.2508796508822652
2861.861861861862 0.24826743142591146
2871.871871871872 0.24568174168600318
2881.881881881882 0.24312262975239488
2891.8918918918916 0.24059011614152534
2901.901901901902 0.23808419597740035
2911.911911911912 0.23560484102211615
2921.921921921922 0.2331520015656797
2931.931931931932 0.23072560818436005
2941.941941941942 0.22832557337628337
2951.9519519519517 0.22595179308247135
2961.961961961962 0.22360414810103516
2971.971971971972 0.22128250540175307
2981.9819819819822 0.21898671934781053
2991.991991991992 0.21671663283104395
3002.002002002002 0.21447207832661486
3012.012012012012 0.2122528788726547
3022.0220220220217 0.21005884898004726
3032.032032032032 0.20845236726093627
3042.0420420420423 0.2062343928640284
3052.052052052052 0.2040224013108938
3062.062062062062 0.20182181664783952
3072.072072072072 0.19963720609617064
3082.0820820820823 0.19747237718275187
3092.092092092092 0.19533046626004072
3102.102102102102 0.19321401884011435
3112.1121121121123 0.1911250622244111
3122.122122122122 0.1890651709427939
3132.132132132132 0.18703552552811717
3142.1421421421423 0.1850369651505773
3152.152152152152 0.18307003462363386
3162.162162162162 0.18113502627334283
3172.1721721721724 0.17923201713795725
3182.1821821821823 0.17736090193655055
3192.192192192192 0.17552142221564918
3202.202202202202 0.17371319205253427
3212.2122122122123 0.17193572066379256
3222.222222222222 0.17018843223845184
3232.232232232232 0.168470683287041
3242.2422422422424 0.16678177777142456
3252.252252252252 0.16512098025543637
3262.262262262262 0.16348752729326768
3272.2722722722724 0.16188063725124988
3282.2822822822823 0.16029951873909776
3292.292292292292 0.15874337780878348
3302.3023023023025 0.1572114240629119
3312.3123123123123 0.15570287579967362
3322.322322322322 0.15421696430806847
3332.3323323323325 0.15275293741499746
3342.3423423423424 0.15131006237493946
3352.352352352352 0.1498876281831272
3362.3623623623625 0.14848494738435136
3372.3723723723724 0.14710135744162853
3382.3823823823823 0.14573622172190184
3392.3923923923926 0.14438893014962764
3402.4024024024025 0.1430588995734331
3412.4124124124123 0.14174557388597966
3422.4224224224226 0.14044842393264717
3432.4324324324325 0.13916694724061487
3442.4424424424424 0.13790066759631142
3452.4524524524522 0.13664913449598695
3462.4624624624626 0.13541192249128514
3472.4724724724724 0.13418863044912727
3482.4824824824823 0.13297888074292613
3492.4924924924926 0.13178231839010562
3502.5025025025025 0.13059861014906887
3512.5125125125123 0.12942744358712996
3522.5225225225226 0.1282685261294659
3532.5325325325325 0.12712158409784166
3542.5425425425424 0.12598636174670255
3552.5525525525527 0.12486262030318826
3562.5625625625626 0.12375013701669757
3572.5725725725724 0.12264870422280559
3582.5825825825827 0.1215581284256012
3592.5925925925926 0.12047822940185203
3602.6026026026025 0.1194088393298233
3612.612612612613 0.1183498019450543
3622.6226226226227 0.1173009717249359
3632.6326326326325 0.11626221310352122
3642.642642642643 0.11523339971764276
3652.6526526526527 0.11421441368508367
3662.6626626626626 0.1132051449152726
3672.672672672673 0.11220549045272356
3682.6826826826828 0.11121535385322415
3692.6926926926926 0.1102346445925875
3702.7027027027025 0.10926327750761945
3712.712712712713 0.1083011722688124
3722.7227227227227 0.10734825288415757
3732.7327327327325 0.10640444723336066
3742.742742742743 0.10546968663166907
3752.7527527527527 0.10454390542243985
3762.7627627627626 0.10362704059752585
3772.772772772773 0.10271903144451057
3782.7827827827828 0.1018198192197878
3792.7927927927926 0.10092934684645735
3802.802802802803 0.1000475586359926
3812.812812812813 0.0991744000326255
3822.8228228228227 0.09830981737939366
3832.832832832833 0.09745375770479763
3842.842842842843 0.09660616852902447
3852.8528528528527 0.09576699768870907
3862.862862862863 0.0949361931792191
3872.872872872873 0.09411370301347341
3882.8828828828828 0.09329947509632253
3892.892892892893 0.09249345711355227
3902.902902902903 0.09169559643459069
3912.912912912913 0.09090584002803594
3922.922922922923 0.09012413438914704
3932.932932932933 0.08935042547847567
3942.942942942943 0.08858465867084438
3952.9529529529527 0.08782677871391358
3962.962962962963 0.08707672969561045
3972.972972972973 0.08633445501972427
3982.982982982983 0.08559989738900813
3992.992992992993 0.08487299879515663
4003.003003003003 0.08415370051506404
4013.013013013013 0.08344194311279425
4023.023023023023 0.08273766644672928
4033.033033033033 0.08204080968138988
4043.043043043043 0.08135131130345201
4053.053053053053 0.08066910914151139
4063.063063063063 0.0799941403891753
4073.073073073073 0.07932634163108751
4083.0830830830832 0.07866564887151747
4093.093093093093 0.07801199756517041
4103.103103103103 0.07736532264989633
4113.113113113113 0.07672555858100194
4123.123123123123 0.07609263936688651
4133.133133133133 0.07546649860574828
4143.143143143143 0.07484706952312316
4153.153153153153 0.07423428501003944
4163.163163163163 0.07362807766158735
4173.173173173173 0.07302837981572105
4183.183183183183 0.07243512359212557
4193.193193193193 0.0718482409309955
4203.203203203203 0.07126766363158799
4213.213213213214 0.07069332339042494
4223.223223223224 0.07012515183903117
4233.2332332332335 0.06956308058110808
4243.243243243243 0.06900704122905309
4253.253253253253 0.06845696543974485
4263.263263263263 0.06791278494952481
4273.273273273273 0.06737443160831279
4283.283283283283 0.06684183741280507
4293.293293293293 0.06631493453870906
4303.303303303303 0.06579365537197653
4313.313313313313 0.06527793253900464
4323.323323323323 0.06476769893577837
4333.333333333334 0.06426288775593592
4343.343343343344 0.06376343251774164
4353.353353353354 0.06326926708995705
4363.3633633633635 0.0627803257166043
4373.373373373373 0.06229654304062094
4383.383383383383 0.061817854126407314
4393.393393393393 0.06134419448127272
4403.403403403403 0.060875500075787944
4413.413413413413 0.060411707363055074
4423.423423423424 0.05995275329690853
4433.4334334334335 0.059498575349061444
4443.443443443443 0.059049111525215685
4453.453453453454 0.058604300380153594
4463.463463463464 0.05816408103183268
4473.473473473474 0.05772839317450303
4483.483483483484 0.05729717709087233
4493.493493493494 0.0568703736633398
4503.503503503503 0.056447924384324874
4513.513513513513 0.05602977136571464
4523.523523523523 0.05561585734745523
4533.533533533533 0.05520612570531391
4543.543543543543 0.054800520457836295
4553.553553553554 0.05439898627252605
4563.563563563564 0.05400146847127268
4573.573573573573 0.053607913035053495
4583.583583583584 0.05321826660793628
4593.593593593594 0.0528324765004081
4603.603603603604 0.05245049069205612
4613.613613613614 0.05207225783362629
4623.623623623624 0.0516977272484841
4633.6336336336335 0.05132684893350345
4643.643643643643 0.05095957355940689
4653.653653653653 0.050595852470581834
4663.663663663663 0.05023563768439612
4673.673673673674 0.04987888189003599
4683.683683683684 0.04952553844688912
4693.693693693694 0.04917556138249438
4703.703703703704 0.04882890539008039
4713.713713713714 0.04848552582571362
4723.723723723724 0.04814537870507616
4733.733733733734 0.047808420699893515
4743.743743743744 0.04747460913403167
4753.753753753754 0.04714390197928173
4763.763763763764 0.046816257850851216
4773.773773773773 0.04649163600257834
4783.783783783783 0.04616999632188822
4793.793793793793 0.04585129932450557
4803.803803803804 0.04553550614894119
4813.813813813814 0.045222578550767445
4823.823823823824 0.04491247889669715
4833.833833833834 0.04460517015848086
4843.843843843844 0.04430061590663614
4853.853853853854 0.04399878030402211
4863.863863863864 0.043699628099272254
4873.873873873874 0.04340312462009781
4883.883883883884 0.04310923576647372
4893.893893893894 0.04281792800371823
4903.9039039039035 0.042529168355477535
4913.913913913913 0.04224292439662561
4923.923923923924 0.04195916424608932
4933.933933933934 0.04167785655960901
4943.943943943944 0.04139897052244257
4953.953953953955 0.04112247584202321
4963.9639639639645 0.040848342740578504
4973.973973973974 0.040576541947718626
4983.983983983984 0.04030704469300229
4993.993993993994 0.04003982269848671
5004.004004004004 0.03977484817126927
5014.014014014014 0.03951209379602719
5024.024024024024 0.039251532727561364
5034.0340340340335 0.03899313858335089
5044.044044044043 0.03873688543612323
5054.054054054054 0.038482747806446026
5064.064064064064 0.03823070065534519
5074.074074074074 0.03798071937695433
5084.084084084085 0.03773277979120001
5094.0940940940945 0.03748685813652714
5104.104104104104 0.037242931062668454
5114.114114114114 0.03700097562346184
5124.124124124124 0.03676096926971947
5134.134134134134 0.036522889842151456
5144.144144144144 0.036286715564347684
5154.154154154154 0.03605242503582053
5164.1641641641645 0.03581999722511116
5174.174174174174 0.0355894114629621
5184.184184184184 0.0353606474355583
5194.194194194194 0.03513368517783875
5204.204204204204 0.0349085050668812
5214.214214214214 0.03468508781536109
5224.224224224225 0.03446341446508687
5234.2342342342345 0.03424346638061327
5244.244244244244 0.034025225242933506
5254.254254254254 0.03380867304325222
5264.264264264264 0.03359379207683981
5274.274274274274 0.03338056493696968
5284.284284284285 0.03316897450893865
5294.294294294295 0.03295900396417197
5304.304304304304 0.032750636754413
5314.314314314314 0.03254385660599864
5324.324324324324 0.032338647514220616
5334.334334334334 0.03213499373777309
5344.344344344345 0.031932879793286996
5354.354354354355 0.0317322904499511
5364.3643643643645 0.03153321072421993
5374.374374374374 0.03133562587460877
5384.384384384384 0.031139521396575498
5394.394394394394 0.03094488301748918
5404.404404404404 0.030751696691685287
5414.414414414415 0.03055994859560731
5424.424424424425 0.030369625123034417
5434.4344344344345 0.030180712880394676
5444.444444444444 0.029993198682163682
5454.454454454454 0.029807069546348056
5464.464464464464 0.029622312690053058
5474.474474474475 0.02943891552513399
5484.484484484485 0.029256865653930895
5494.494494494495 0.02907615086508542
5504.504504504504 0.02889675912943989
5514.514514514514 0.02871867859601704
5524.524524524524 0.028541897588080557
5534.534534534535 0.028366404599274864
5544.544544544545 0.02819218828984381
5554.554554554555 0.02801923748292726
5564.5645645645645 0.02784754116093479
5574.574574574574 0.02767708846199568
5584.584584584584 0.02750786867648404
5594.594594594595 0.027339871243618377
5604.604604604605 0.02717308574813493
5614.614614614615 0.02700750191703293
5624.624624624625 0.026843109616391973
5634.6346346346345 0.026679898848259696
5644.644644644644 0.026517859747609025
5654.654654654654 0.02635698257936419
5664.664664664665 0.026197257735494042
5674.674674674675 0.026038675732172396
5684.684684684685 0.02588122720700339
5694.694694694695 0.025724902916311836
5704.704704704704 0.025569693732496842
5714.714714714714 0.02541559064144796
5724.724724724725 0.02526258474002285
5734.734734734735 0.02511066723358528
5744.744744744745 0.024959829433602587
5754.754754754755 0.024810062755301402
5764.764764764765 0.024661358715380794
5774.774774774774 0.024513708929781722
5784.784784784785 0.024367105111511637
5794.794794794795 0.024221539068523503
5804.804804804805 0.024077002701647972
5814.814814814815 0.023933488002577743
5824.824824824825 0.023790987051903325
5834.8348348348345 0.023649492017198775
5844.844844844845 0.02350899515115699
5854.854854854855 0.02336948878977296
5864.864864864865 0.02323096535057444
5874.874874874875 0.02309341733089895
5884.884884884885 0.0229568373062161
5894.894894894895 0.022821217928494245
5904.9049049049045 0.022686551924610745
5914.914914914915 0.022552832094804617
5924.924924924925 0.022420051311170915
5934.934934934935 0.02228820251619563
5944.944944944945 0.022157278721330654
5954.954954954955 0.022027273005607348
5964.964964964965 0.021898178514288366
5974.974974974975 0.021769988457556535
5984.984984984985 0.02164269610924008
5994.994994994995 0.02151629480557323
6005.005005005005 0.02139077794399155
6015.015015015015 0.021266138981960985
6025.025025025025 0.021142371435840007
6035.035035035035 0.02101946887977381
6045.045045045045 0.020897424944620088
6055.055055055055 0.02077623331690527
6065.065065065065 0.02065588773781078
6075.075075075075 0.020536382002188346
6085.085085085085 0.020417709957603707
6095.0950950950955 0.020299865503408038
6105.105105105105 0.020182842589836276
6115.115115115115 0.02006663521713172
6125.125125125125 0.0199512374346962
6135.135135135135 0.019836643340265154
6145.145145145145 0.019722847079106917
6155.155155155155 0.019609842843245635
6165.1651651651655 0.019497624870707036
6175.175175175175 0.01938618744478666
6185.185185185185 0.01927552489333963
6195.195195195195 0.01916563158809171
6205.205205205205 0.01905650194397068
6215.215215215215 0.018948130418457814
6225.225225225226 0.01884051151095868
6235.235235235235 0.018733639762192656
6245.245245245245 0.018627509753600915
