#lamb flux
1000.0 1.7037980578426768e+39
1010.01001001001 1.824774880335882e+39
1020.0200200200201 1.9500143262992788e+39
1030.03003003003 2.0794416639716085e+39
1040.0400400400401 2.21297602420311e+39
1050.05005005005 2.350530945093409e+39
1060.06006006006 2.4920148968307837e+39
1070.07007007007 2.6373317853933486e+39
1080.08008008008 2.786381434184453e+39
1090.0900900900901 2.9390600430263644e+39
1100.1001001001 3.09526062423457e+39
1110.11011011011 3.254873415744882e+39
1120.1201201201202 3.417786271472639e+39
1130.13013013013 3.583885029252835e+39
1140.1401401401401 3.7530538568461284e+39
1150.1501501501502 3.9251755766033933e+39
1160.16016016016 4.100131969464468e+39
1170.1701701701702 4.277804059028083e+39
1180.1801801801803 4.4580723764739636e+39
1190.1901901901902 4.6408172071459336e+39
1200.2002002002002 4.825918819620999e+39
1210.2102102102103 5.0132576780939666e+39
1220.2202202202202 5.202714638903893e+39
1230.2302302302303 5.3941711320177964e+39
1240.2402402402402 5.587509328270954e+39
1250.2502502502502 5.782539104562058e+39
1260.2602602602603 5.978912393293629e+39
1270.2702702702702 6.17606893319563e+39
1280.2802802802803 6.373844897288241e+39
1290.2902902902902 6.572079367462121e+39
1300.3003003003003 6.77061453522302e+39
1310.3103103103103 6.96929587944226e+39
1320.3203203203202 7.167972322134367e+39
1330.3303303303303 7.366496363285735e+39
1340.3403403403404 7.564724195753158e+39
1350.3503503503503 7.762515801239239e+39
1360.3603603603603 7.95973502833362e+39
1370.3703703703704 8.156249653585603e+39
1380.3803803803803 8.35193142654673e+39
1390.3903903903904 8.546656099690461e+39
1400.4004004004005 8.740303444081157e+39
1410.4104104104103 8.932757251628526e+39
1420.4204204204204 9.123905324723849e+39
1430.4304304304305 9.313639454013337e+39
1440.4404404404404 9.501855385022326e+39
1450.4504504504505 9.688452774299802e+39
1460.4604604604606 9.873335135709331e+39
1470.4704704704704 1.0056409777447184e+40
1480.4804804804805 1.023758773032392e+40
1490.4904904904906 1.0416783667800233e+40
1500.5005005005005 1.0593915818222929e+40
1510.5105105105106 1.0768905869662614e+40
1520.5205205205207 1.0941678867709823e+40
1530.5305305305305 1.1112163106543668e+40
1540.5405405405404 1.1280290013544492e+40
1550.5505505505505 1.1445994027681235e+40
1560.5605605605606 1.16092124718654e+40
1570.5705705705705 1.176988541942715e+40
1580.5805805805805 1.1927955554835398e+40
1590.5905905905906 1.2083368028755018e+40
1600.6006006006005 1.223607030750944e+40
1610.6106106106106 1.2386012017000116e+40
1620.6206206206207 1.2533144781124297e+40
1630.6306306306305 1.2677422054734456e+40
1640.6406406406406 1.2818798951196962e+40
1650.6506506506507 1.29572320646394e+40
1660.6606606606606 1.3092679287028524e+40
1670.6706706706707 1.3225099620300334e+40
1680.6806806806808 1.3354452983876334e+40
1690.6906906906906 1.348070001805446e+40
1700.7007007007007 1.360381077652979e+40
1710.7107107107108 1.372378331668948e+40
1720.7207207207207 1.384057698579065e+40
1730.7307307307308 1.3954146261381287e+40
1740.7407407407409 1.4064445522025877e+40
1750.7507507507507 1.4171428862203612e+40
1760.7607607607606 1.427504991604481e+40
1770.770770770771 1.437526169496662e+40
1780.7807807807808 1.4472016445597166e+40
1790.7907907907907 1.4565265535990528e+40
1800.8008008008007 1.4654959380079517e+40
1810.8108108108108 1.4741047412633152e+40
1820.8208208208207 1.4823478129722465e+40
1830.8308308308308 1.490219921288406e+40
1840.8408408408409 1.497715775881842e+40
1850.8508508508507 1.5048300640552278e+40
1860.8608608608608 1.5115575030462758e+40
1870.870870870871 1.5178929120265614e+40
1880.8808808808808 1.5238313077764215e+40
1890.890890890891 1.529368028445331e+40
1900.900900900901 1.534498890139295e+40
1910.9109109109108 1.5392203812302691e+40
1920.920920920921 1.543529899147731e+40
1930.930930930931 1.5474260338482832e+40
1940.940940940941 1.5509089009930224e+40
1950.950950950951 1.553980525895674e+40
1960.960960960961 1.5566452763270214e+40
1970.970970970971 1.558910338078108e+40
1980.980980980981 1.560786221660065e+40
1990.9909909909911 1.5622872816362846e+40
2001.001001001001 1.5634322220254866e+40
2011.0110110110109 1.564244552449585e+40
2021.0210210210212 1.564752951060513e+40
2031.031031031031 1.564991483006092e+40
2041.0410410410411 1.5649996189093543e+40
2051.051051051051 1.564821998405876e+40
2061.061061061061 1.564507891044857e+40
2071.071071071071 1.5641103222002547e+40
2081.081081081081 1.56368485549233e+40
2091.091091091091 1.563288054578631e+40
2101.101101101101 1.562975683272399e+40
2111.1111111111113 1.562800739305498e+40
2121.121121121121 1.5628114479919022e+40
2131.131131131131 1.5630493616804772e+40
2141.141141141141 1.563547714422878e+40
2151.151151151151 1.5643301663145194e+40
2161.161161161161 1.5654100393266603e+40
2171.1711711711714 1.5667901003263852e+40
2181.1811811811813 1.5684628941819565e+40
2191.191191191191 1.5704115783539587e+40
2201.201201201201 1.5726111676157072e+40
2211.2112112112113 1.5750300689163565e+40
2221.221221221221 1.5776317743396568e+40
2231.2312312312315 1.580376584013264e+40
2241.2412412412414 1.5832232476270891e+40
2251.2512512512512 1.58613043843376e+40
2261.261261261261 1.5890580024157785e+40
2271.271271271271 1.5919679534856096e+40
2281.2812812812813 1.5948252100530922e+40
2291.2912912912916 1.597598087288869e+40
2301.3013013013015 1.60025857238126e+40
2311.3113113113113 1.6027824173907748e+40
2321.321321321321 1.605149086883244e+40
2331.331331331331 1.6073415965490386e+40
2341.3413413413414 1.6093462756780554e+40
2351.3513513513512 1.6111524816964084e+40
2361.3613613613616 1.6127522897987594e+40
2371.3713713713714 1.6141401756121025e+40
2381.3813813813813 1.6153127041722486e+40
2391.391391391391 1.6162682344806205e+40
2401.4014014014015 1.6170066456071197e+40
2411.4114114114113 1.6175290877006223e+40
2421.4214214214217 1.6178377592973308e+40
2431.4314314314315 1.6179357108887247e+40
2441.4414414414414 1.6178266737283147e+40
2451.4514514514512 1.6175149122260995e+40
2461.4614614614616 1.6170050979182196e+40
2471.4714714714714 1.6163022028359344e+40
2481.4814814814818 1.6154114100748836e+40
2491.4914914914916 1.6143380394372065e+40
2501.5015015015015 1.6130874861507025e+40
2511.5115115115113 1.6116651708349789e+40
2521.521521521521 1.6100764990660196e+40
2531.5315315315315 1.6083268290749152e+40
2541.541541541542 1.6064214462950861e+40
2551.5515515515517 1.6043655436399571e+40
2561.5615615615616 1.6021642065467173e+40
2571.5715715715714 1.5998224019601803e+40
2581.5815815815813 1.5973449705536479e+40
2591.5915915915916 1.5947366215915737e+40
2601.6016016016015 1.5920019299327319e+40
2611.611611611612 1.5891453347536002e+40
2621.6216216216217 1.5861711396412014e+40
2631.6316316316315 1.5830835137639222e+40
2641.6416416416414 1.5798864938791293e+40
2651.6516516516517 1.576583986978922e+40
2661.6616616616616 1.573179773411123e+40
2671.671671671672 1.5696775103426299e+40
2681.6816816816818 1.56608073545731e+40
2691.6916916916916 1.5623928708015237e+40
2701.7017017017015 1.5586172267077127e+40
2711.711711711712 1.5547570057408204e+40
2721.7217217217217 1.55081530662422e+40
2731.731731731732 1.5467951281115093e+40
2741.741741741742 1.5426993727785667e+40
2751.7517517517517 1.538530850716739e+40
2761.7617617617616 1.5342922831133717e+40
2771.7717717717715 1.5299863057101302e+40
2781.781781781782 1.525615472133021e+40
2791.791791791792 1.5211822570907756e+40
2801.801801801802 1.51668905944042e+40
2811.811811811812 1.5121382051205544e+40
2821.8218218218217 1.507531949954196e+40
2831.8318318318316 1.5028724823240402e+40
2841.841841841842 1.4981619257237144e+40
2851.851851851852 1.493402341189192e+40
2861.861861861862 1.4885957296148353e+40
2871.871871871872 1.4837440339588236e+40
2881.881881881882 1.4788491413428361e+40
2891.8918918918916 1.4739128850508936e+40
2901.901901901902 1.468937046432248e+40
2911.911911911912 1.463923356713138e+40
2921.921921921922 1.4588734987221105e+40
2931.931931931932 1.4537891085334785e+40
2941.941941941942 1.4486717770332985e+40
2951.9519519519517 1.4435230514121124e+40
2961.961961961962 1.4383444365884779e+40
2971.971971971972 1.4331373965671516e+40
2981.9819819819822 1.4279033557355753e+40
2991.991991991992 1.4226437001021437e+40
3002.002002002002 1.4173597784795338e+40
3012.012012012012 1.412052903616204e+40
3022.0220220220217 1.406724353278987e+40
3032.032032032032 1.4022872153145211e+40
3042.0420420420423 1.396804851475029e+40
3052.052052052052 1.3912723481256864e+40
3062.062062062062 1.3856995413559618e+40
3072.072072072072 1.3800950670136715e+40
3082.0820820820823 1.3744664795883589e+40
3092.092092092092 1.3688203612653376e+40
3102.102102102102 1.3631624217839432e+40
3112.1121121121123 1.357497589720374e+40
3122.122122122122 1.3518300957963436e+40
3132.132132132132 1.346163548791307e+40
3142.1421421421423 1.3405010046095665e+40
3152.152152152152 1.3348450290253113e+40
3162.162162162162 1.3291977545993267e+40
3172.1721721721724 1.3235609322314745e+40
3182.1821821821823 1.3179359777836458e+40
3192.192192192192 1.312324014178984e+40
3202.202202202202 1.3067259093552493e+40
3212.2122122122123 1.3011423104232853e+40
3222.222222222222 1.2955736743558623e+40
3232.232232232232 1.2900202955078897e+40
3242.2422422422424 1.2844823302459337e+40
3252.252252252252 1.2789598189434423e+40
3262.262262262262 1.2734527055778077e+40
3272.2722722722724 1.2679608551465304e+40
3282.2822822822823 1.2624840691021655e+40
3292.292292292292 1.2570220989893716e+40
3302.3023023023025 1.2515746584522621e+40
3312.3123123123123 1.2461414337662236e+40
3322.322322322322 1.2407220930354056e+40
3332.3323323323325 1.2353162941851341e+40
3342.3423423423424 1.2299236918674788e+40
3352.352352352352 1.2245439433880132e+40
3362.3623623623625 1.2191767137525275e+40
3372.3723723723724 1.213821679923777e+40
3382.3823823823823 1.2084785343705052e+40
3392.3923923923926 1.2031469879837145e+40
3402.4024024024025 1.1978267724284757e+40
3412.4124124124123 1.1925176419934624e+40
3422.4224224224226 1.187219374994805e+40
3432.4324324324325 1.1819317747856888e+40
3442.4424424424424 1.1766546704184242e+40
3452.4524524524522 1.1713879170013737e+40
3462.4624624624626 1.1661313957891968e+40
3472.4724724724724 1.1608850140412078e+40
3482.4824824824823 1.1556487046793341e+40
3492.4924924924926 1.150422425774137e+40
3502.5025025025025 1.145206159884551e+40
3512.5125125125123 1.1399999132744633e+40
3522.5225225225226 1.1348037150269181e+40
3532.5325325325325 1.129617616074617e+40
3542.5425425425424 1.1244416881634216e+40
3552.5525525525527 1.119276022763801e+40
3562.5625625625626 1.1141207299435408e+40
3572.5725725725724 1.1089759372135427e+40
3582.5825825825827 1.103841788357206e+40
3592.5925925925926 1.0987184422526495e+40
3602.6026026026025 1.093606071695903e+40
3612.612612612613 1.0885048622321954e+40
3622.6226226226227 1.0834150110015221e+40
3632.6326326326325 1.0783367256038594e+40
3642.642642642643 1.0732702229886054e+40
3652.6526526526527 1.0682157283721637e+40
3662.6626626626626 1.0631734741869288e+40
3672.672672672673 1.0581436990644268e+40
3682.6826826826828 1.0531266468547834e+40
3692.6926926926926 1.048122565684307e+40
3702.7027027027025 1.0431317070525142e+40
3712.712712712713 1.0381543249695933e+40
3722.7227227227227 1.0331906751349614e+40
3732.7327327327325 1.0282410141572666e+40
3742.742742742743 1.0233055988159691e+40
3752.7527527527527 1.018384685364362e+40
3762.7627627627626 1.0134785288737282e+40
3772.772772772773 1.0085873826181386e+40
3782.7827827827828 1.003711497499245e+40
3792.7927927927926 9.988511215103009e+39
3802.802802802803 9.94006499238526e+39
3812.812812812813 9.891778714048295e+39
3822.8228228228227 9.843654744398345e+39
3832.832832832833 9.795695400950903e+39
3842.842842842843 9.747902950882909e+39
3852.8528528528527 9.700279607812809e+39
3862.862862862863 9.652827528896125e+39
3872.872872872873 9.60554881222385e+39
3882.8828828828828 9.558445494510759e+39
3892.892892892893 9.511519549061051e+39
3902.902902902903 9.464772883998177e+39
3912.912912912913 9.41820734074635e+39
3922.922922922923 9.371824692750938e+39
3932.932932932933 9.32562664442536e+39
3942.942942942943 9.27961483031211e+39
3952.9529529529527 9.233790814445968e+39
3962.962962962963 9.188156089907601e+39
3972.972972972973 9.142712078555992e+39
3982.982982982983 9.097460130928655e+39
3992.992992992993 9.052401526298626e+39
4003.003003003003 9.00753747287794e+39
4013.013013013013 8.962869108157175e+39
4023.023023023023 8.918397499371455e+39
4033.033033033033 8.87412364408339e+39
4043.043043043043 8.830048470873877e+39
4053.053053053053 8.78617284013207e+39
4063.063063063063 8.742497544936155e+39
4073.073073073073 8.699023312016938e+39
4083.0830830830832 8.655750802796674e+39
4093.093093093093 8.61268061449584e+39
4103.103103103103 8.56981328130083e+39
4113.113113113113 8.527149275586272e+39
4123.123123123123 8.48468900918536e+39
4133.133133133133 8.44243283470262e+39
4143.143143143143 8.400381046863343e+39
4153.153153153153 8.35853388389443e+39
4163.163163163163 8.316891528931698e+39
4173.173173173173 8.275454111448972e+39
4183.183183183183 8.234221708704531e+39
4193.193193193193 8.193194347200773e+39
4203.203203203203 8.152372004153275e+39
4213.213213213214 8.111754608965643e+39
4223.223223223224 8.071342044706713e+39
4233.2332332332335 8.031134149587019e+39
4243.243243243243 7.991130718431644e+39
4253.253253253253 7.951331504146691e+39
4263.263263263263 7.91173621917696e+39
4273.273273273273 7.872344536952467e+39
4283.283283283283 7.833156093321728e+39
4293.293293293293 7.7941704879699e+39
4303.303303303303 7.755387285819966e+39
4313.313313313313 7.716806018415426e+39
4323.323323323323 7.678426185282945e+39
4333.333333333334 7.640247255273788e+39
4343.343343343344 7.602268667882753e+39
4353.353353353354 7.564489834543639e+39
4363.3633633633635 7.526910139900256e+39
4373.373373373373 7.489528943052278e+39
4383.383383383383 7.452345578775121e+39
4393.393393393393 7.415359358713368e+39
4403.403403403403 7.378569572547155e+39
4413.413413413413 7.341975489131101e+39
4423.423423423424 7.305576357605569e+39
4433.4334334334335 7.269371408479866e+39
4443.443443443443 7.233359854687298e+39
4453.453453453454 7.197540892611907e+39
4463.463463463464 7.161913703086957e+39
4473.473473473474 7.126477452364987e+39
4483.483483483484 7.091231293059716e+39
4493.493493493494 7.056174365059739e+39
4503.503503503503 7.021305796414292e+39
4513.513513513513 6.986624704191261e+39
4523.523523523523 6.952130195307567e+39
4533.533533533533 6.917821367332443e+39
4543.543543543543 6.883697309263672e+39
4553.553553553554 6.849757102277252e+39
4563.563563563564 6.815999820450844e+39
4573.573573573573 6.782424531461379e+39
4583.583583583584 6.749030297257199e+39
4593.593593593594 6.715816174705257e+39
4603.603603603604 6.682781216213708e+39
4613.613613613614 6.64992447033045e+39
4623.623623623624 6.617244982318011e+39
4633.6336336336335 6.584741794705332e+39
4643.643643643643 6.552413947816921e+39
4653.653653653653 6.520260480279827e+39
4663.663663663663 6.48828042950902e+39
4673.673673673674 6.456472832171642e+39
4683.683683683684 6.424836724630664e+39
4693.693693693694 6.393371143368447e+39
4703.703703703704 6.362075125390737e+39
4713.713713713714 6.330947708611629e+39
4723.723723723724 6.299987932219992e+39
4733.733733733734 6.269194837027843e+39
4743.743743743744 6.238567465801293e+39
4753.753753753754 6.208104863574416e+39
4763.763763763764 6.177806077946706e+39
4773.773773773773 6.147670159364463e+39
4783.783783783783 6.117696161386773e+39
4793.793793793793 6.087883140936405e+39
4803.803803803804 6.058230158536223e+39
4813.813813813814 6.028736278531554e+39
4823.823823823824 5.999400569298951e+39
4833.833833833834 5.970222103441847e+39
4843.843843843844 5.94119995797358e+39
4853.853853853854 5.912333214488118e+39
4863.863863863864 5.883620959319083e+39
4873.873873873874 5.855062283687365e+39
4883.883883883884 5.826656283837819e+39
4893.893893893894 5.798402061165445e+39
4903.9039039039035 5.770298722331429e+39
4913.913913913913 5.742345379369476e+39
4923.923923923924 5.714541149782753e+39
4933.933933933934 5.686885156631932e+39
4943.943943943944 5.65937652861455e+39
4953.953953953955 5.63201440013619e+39
4963.9639639639645 5.604797911373727e+39
4973.973973973974 5.577726208330996e+39
4983.983983983984 5.550798442887284e+39
4993.993993993994 5.524013772838858e+39
5004.004004004004 5.49737136193392e+39
5014.014014014014 5.47087037990127e+39
5024.024024024024 5.4445100024729494e+39
5034.0340340340335 5.4182894114011947e+39
5044.044044044043 5.392207794469928e+39
5054.054054054054 5.366264345501096e+39
5064.064064064064 5.3404582643561e+39
5074.074074074074 5.314788756932561e+39
5084.084084084085 5.289255035156667e+39
5094.0940940940945 5.2638563169713814e+39
5104.104104104104 5.2385918263206636e+39
5114.114114114114 5.213460793129976e+39
5124.124124124124 5.1884624532833e+39
5134.134134134134 5.1635960485968275e+39
5144.144144144144 5.1388608267895316e+39
5154.154154154154 5.114256041450876e+39
5164.1641641641645 5.089780952005729e+39
5174.174174174174 5.065434823676778e+39
5184.184184184184 5.041216927444538e+39
5194.194194194194 5.0171265400051497e+39
5204.204204204204 4.993162943726139e+39
5214.214214214214 4.9693254266002647e+39
5224.224224224225 4.945613282197591e+39
5234.2342342342345 4.9220258096160014e+39
5244.244244244244 4.8985623134301605e+39
5254.254254254254 4.875222103639201e+39
5264.264264264264 4.852004495613133e+39
5274.274274274274 4.828908810038182e+39
5284.284284284285 4.805934372861118e+39
5294.294294294295 4.783080515232719e+39
5304.304304304304 4.760346573450444e+39
5314.314314314314 4.737731888900446e+39
5324.324324324324 4.715235807998986e+39
5334.334334334334 4.6928576821333777e+39
5344.344344344345 4.670596867602507e+39
5354.354354354355 4.648452725557053e+39
5364.3643643643645 4.6264246219394455e+39
5374.374374374374 4.6045119274236803e+39
5384.384384384384 4.582714017355004e+39
5394.394394394394 4.561030271689606e+39
5404.404404404404 4.539460074934324e+39
5414.414414414415 4.518002816086434e+39
5424.424424424425 4.4966578885736405e+39
5434.4344344344345 4.475424690194203e+39
5444.444444444444 4.45430262305737e+39
5454.454454454454 4.4332910935241103e+39
5464.464464464464 4.412389512148178e+39
5474.474474474475 4.391597293617584e+39
5484.484484484485 4.370913856696492e+39
5494.494494494495 4.3503386241675867e+39
5504.504504504504 4.3298710227749505e+39
5514.514514514514 4.309510483167455e+39
5524.524524524524 4.289256439842752e+39
5534.534534534535 4.269108331091839e+39
5544.544544544545 4.2490655989442444e+39
5554.554554554555 4.2291276891138514e+39
5564.5645645645645 4.2092940509454076e+39
5574.574574574574 4.189564137361704e+39
5584.584584584584 4.1699374048114654e+39
5594.594594594595 4.1504133132179373e+39
5604.604604604605 4.130991325928265e+39
5614.614614614615 4.11167090966355e+39
5624.624624624625 4.09245153446972e+39
5634.6346346346345 4.0733326736691506e+39
5644.644644644644 4.054313803813055e+39
5654.654654654654 4.0353944046346945e+39
5664.664664664665 4.0165739590033337e+39
5674.674674674675 3.997851952879057e+39
5684.684684684685 3.9792278752683324e+39
5694.694694694695 3.960701218180408e+39
5704.704704704704 3.942271476584524e+39
5714.714714714714 3.92393814836792e+39
5724.724724724725 3.9057007342946554e+39
5734.734734734735 3.887558737965247e+39
5744.744744744745 3.869511665777105e+39
5754.754754754755 3.8515590268857804e+39
5764.764764764765 3.8337003331670153e+39
5774.774774774774 3.8159350991795946e+39
5784.784784784785 3.7982628421289806e+39
5794.794794794795 3.780683081831753e+39
5804.804804804805 3.763195340680824e+39
5814.814814814815 3.7457991436114286e+39
5824.824824824825 3.728494018067905e+39
5834.8348348348345 3.7112794939712e+39
5844.844844844845 3.694155103687192e+39
5854.854854854855 3.677120381995699e+39
5864.864864864865 3.660174866060264e+39
5874.874874874875 3.6433180953986767e+39
5884.884884884885 3.6265496118541886e+39
5894.894894894895 3.6098689595674694e+39
