#lamb flux
1000.0 4.2061555834881235
1010.01001001001 4.274207434686904
1020.0200200200201 4.335149227137018
1030.03003003003 4.3892951177336075
1040.0400400400401 4.4369752788828585
1050.05005005005 4.478529953039355
1060.06006006006 4.514304352085171
1070.07007007007 4.544644338539702
1080.08008008008 4.569892820103038
1090.0900900900901 4.590386786939728
1100.1001001001 4.606454921568602
1110.11011011011 4.618415713541854
1120.1201201201202 4.626576014703121
1130.13013013013 4.631229975255844
1140.1401401401401 4.632658305791791
1150.1501501501502 4.631127815553581
1160.16016016016 4.6268911823296515
1170.1701701701702 4.62018691435914
1180.1801801801803 4.611239469356069
1190.1901901901902 4.6002595001812026
1200.2002002002002 4.587444200758559
1210.2102102102103 4.572977729534715
1220.2202202202202 4.557031691111099
1230.2302302302303 4.539765659652616
1240.2402402402402 4.521327730306996
1250.2502502502502 4.501688471235921
1260.2602602602603 4.4804845931399955
1270.2702702702702 4.456965781834679
1280.2802802802803 4.43130566445592
1290.2902902902902 4.403670108598215
1300.3003003003003 4.374217226414594
1310.3103103103103 4.343097430317267
1320.3203203203202 4.310453532125261
1330.3303303303303 4.276420878374994
1340.3403403403404 4.241127515317123
1350.3503503503503 4.2046943778683445
1360.3603603603603 4.1672354974703385
1370.3703703703704 4.1288582244315934
1380.3803803803803 4.089663460893846
1390.3903903903904 4.049745901076173
1400.4004004004005 4.009194275909658
1410.4104104104103 3.9680915995875767
1420.4204204204204 3.9265154159235305
1430.4304304304305 3.884538042736508
1440.4404404404404 3.842226812771086
1450.4504504504505 3.799644309915762
1460.4604604604606 3.756848599706603
1470.4704704704704 3.7138934532991836
1480.4804804804805 3.670828564262804
1490.4904904904906 3.6276997576992156
1500.5005005005005 3.5845491913163974
1510.5105105105106 3.5414155481983536
1520.5205205205207 3.498334221106757
1530.5305305305305 3.455337488231129
1540.5405405405404 3.412454680373383
1550.5505505505505 3.3697123396111763
1560.5605605605606 3.327134369534442
1570.5705705705705 3.284742177192055
1580.5805805805805 3.2425548069221564
1590.5905905905906 3.2005890662716134
1600.6006006006005 3.1588596442386407
1610.6106106106106 3.117379222099112
1620.6206206206207 3.0761585771026394
1630.6306306306305 3.0352066793508063
1640.6406406406406 2.994530782197869
1650.6506506506507 2.9541365065460314
1660.6606606606606 2.914027919443926
1670.6706706706707 2.8742076074408778
1680.6806806806808 2.834676745202337
1690.6906906906906 2.7954351599563685
1700.7007007007007 2.7564866614779153
1710.7107107107108 2.717849386873255
1720.7207207207207 2.6795164437960217
1730.7307307307308 2.6414773995407197
1740.7407407407409 2.6037213020029744
1750.7507507507507 2.5662366970976063
1760.7607607607606 2.529011652186691
1770.770770770771 2.492033787279097
1780.7807807807808 2.4552903161065407
1790.7907907907907 2.418768099577477
1800.8008008008007 2.3824537145614757
1810.8108108108108 2.3463335414631983
1820.8208208208207 2.3103938746021697
1830.8308308308308 2.2746210600120618
1840.8408408408409 2.239001665891179
1850.8508508508507 2.2035226915426733
1860.8608608608608 2.1681718211893015
1870.870870870871 2.132937729462369
1880.8808808808808 2.097810445548404
1890.890890890891 2.0627817827971713
1900.900900900901 2.0278458398784567
1910.9109109109108 1.992999578108506
1920.920920920921 1.9582434770964523
1930.930930930931 1.923582267102231
1940.940940940941 1.8890257311593277
1950.950950950951 1.8545895628379083
1960.960960960961 1.8202962563386427
1970.970970970971 1.7861759944239624
1980.980980980981 1.7522674868049455
1990.9909909909911 1.718618697707453
2001.001001001001 1.6852873876591763
2011.0110110110109 1.652341382882701
2021.0210210210212 1.6198584784430674
2031.031031031031 1.587925881304063
2041.0410410410411 1.5566391096070302
2051.051051051051 1.526100287253582
2061.061061061061 1.4964158095358924
2071.071071071071 1.4676934054726871
2081.081081081081 1.4400386824858098
2091.091091091091 1.4135513031274434
2101.101101101101 1.3883210033894844
2111.1111111111113 1.3644237080632644
2121.121121121121 1.3419180214974273
2131.131131131131 1.320842365241021
2141.141141141141 1.3012129950713702
2151.151151151151 1.2830230617323743
2161.161161161161 1.2662427904812241
2171.1711711711714 1.2508207562145357
2181.1811811811813 1.2366861370013678
2191.191191191191 1.223751751675937
2201.201201201201 1.211917635750246
2211.2112112112113 1.2010748885530051
2221.221221221221 1.1911095324429215
2231.2312312312315 1.1819061572434815
2241.2412412412414 1.1733511720764345
2251.2512512512512 1.1653355439641857
2261.261261261261 1.1577569599777828
2271.271271271271 1.150521401088784
2281.2812812812813 1.143544157234121
2291.2912912912916 1.136750342651936
2301.3013013013015 1.1300749883904655
2311.3113113113113 1.1234627964419819
2321.321321321321 1.1168676393502521
2331.331331331331 1.1102518827512644
2341.3413413413414 1.103585598364905
2351.3513513513512 1.0968457233354305
2361.3613613613616 1.0900152099486553
2371.3713713713714 1.083082198612208
2381.3813813813813 1.0760392371571952
2391.391391391391 1.068882561278904
2401.4014014014015 1.0616114443295843
2411.4114114114113 1.0542276196100548
2421.4214214214217 1.0467347745975386
2431.4314314314315 1.0391381139770066
2441.4414414414414 1.031443986690395
2451.4514514514512 1.0236595712757375
2461.4614614614616 1.015792613355709
2471.4714714714714 1.0078512091014817
2481.4814814814818 0.9998436287219098
2491.4914914914916 0.9917781744158441
2501.5015015015015 0.9836630677061982
2511.5115115115113 0.9755063615968927
2521.521521521521 0.9673158735222408
2531.5315315315315 0.9590991355686952
2541.541541541542 0.9508633589264313
2551.5515515515517 0.9426154099645092
2561.5615615615616 0.9343617957148668
2571.5715715715714 0.9261086568966145
2581.5815815815813 0.9178617669146671
2591.5915915915916 0.909626535528625
2601.6016016016015 0.9014080161125194
2611.611611611612 0.8932109156175189
2621.6216216216217 0.885039606511768
2631.6316316316315 0.8768981401079622
2641.6416416416414 0.8687902608035084
2651.6516516516517 0.8607194208533101
2661.6616616616616 0.8526887953741485
2671.671671671672 0.8447012973448176
2681.6816816816818 0.836759592419725
2691.6916916916916 0.8288661134174597
2701.7017017017015 0.8210230743814929
2711.711711711712 0.8132324841390163
2721.7217217217217 0.8054961593071464
2731.731731731732 0.7978157367142563
2741.741741741742 0.7901926852189256
2751.7517517517517 0.7826283169205204
2761.7617617617616 0.7751237977644091
2771.7717717717715 0.767680157551639
2781.781781781782 0.7602982993680802
2791.791791791792 0.7529790084517956
2801.801801801802 0.7457229605200302
2811.811811811812 0.7385307295790109
2821.8218218218217 0.7314027952407807
2831.8318318318316 0.7243395495718066
2841.841841841842 0.7173413034981727
2851.851851851852 0.7104082927919099
2861.861861861862 0.7035406836624948
2871.871871871872 0.6967385779768597
2881.881881881882 0.6900020181304224
2891.8918918918916 0.6833309915907212
2901.901901901902 0.6767254351342489
2911.911911911912 0.6701852387960795
2921.921921921922 0.6637102495508505
2931.931931931932 0.6573002747426396
2941.941941941942 0.6509550852802747
2951.9519519519517 0.6446744186136373
2961.961961961962 0.638457981505577
2971.971971971972 0.6323054526131378
2981.9819819819822 0.6262164848909393
2991.991991991992 0.6201907078287218
3002.002002002002 0.6142277295342834
3012.012012012012 0.6083271386722975
3022.0220220220217 0.6024885062688006
3032.032032032032 0.5978474789649936
3042.0420420420423 0.5919833672618822
3052.052052052052 0.5861420167183321
3062.062062062062 0.5803342520070626
3072.072072072072 0.5745691998840725
3082.0820820820823 0.5688544801279289
3092.092092092092 0.5631963792117622
3102.102102102102 0.5576000077557619
3112.1121121121123 0.5520694428498509
3122.122122122122 0.5466078563459965
3132.132132132132 0.5412176302054145
3142.1421421421423 0.535900459954201
3152.152152152152 0.5306574472568567
3162.162162162162 0.5254891825649218
3172.1721721721724 0.5203958187406275
3182.1821821821823 0.5153771364956566
3192.192192192192 0.5104326024245757
3202.202202202202 0.5055614203527247
3212.2122122122123 0.5007625766602858
3222.222222222222 0.49603488018861025
3232.232232232232 0.4913769972821566
3242.2422422422424 0.4867874824698568
3252.252252252252 0.48226480524347093
3262.262262262262 0.4778073733476456
3272.2722722722724 0.473413552956819
3282.2822822822823 0.4690816860777754
3292.292292292292 0.4648101054833725
3302.3023023023025 0.4605971474526091
3312.3123123123123 0.4564411625645513
3322.322322322322 0.45234052476855147
3332.3323323323325 0.44829363893043284
3342.3423423423424 0.44429894703375067
3352.352352352352 0.4403549331966292
3362.3623623623625 0.4364601276479184
3372.3723723723724 0.43261310979127665
3382.3823823823823 0.42881251047216673
3392.3923923923926 0.4250570135505175
3402.4024024024025 0.42134535687075136
3412.4124124124123 0.4176763327109947
3422.4224224224226 0.41404878778437676
3432.4324324324325 0.41046162285732735
3442.4424424424424 0.4069137920426032
3452.4524524524522 0.403404301818332
3462.4624624624626 0.39993220981857247
3472.4724724724724 0.3964966234357045
3482.4824824824823 0.3930966982702918
3492.4924924924926 0.38973163645990067
3502.5025025025025 0.3864006849145868
3512.5125125125123 0.3831031334834207
3522.5225225225226 0.37983831307339616
3532.5325325325325 0.37660559373936625
3542.5425425425424 0.37340438276123766
3552.5525525525527 0.3702341227224768
3562.5625625625626 0.3670942896020482
3572.5725725725724 0.3639843908901666
3582.5825825825827 0.36090396373669115
3592.5925925925926 0.3578525731396104
3602.6026026026025 0.35482981017982324
3612.612612612613 0.35183529030732713
3622.6226226226227 0.3488686516829389
3632.6326326326325 0.3459295535788073
3642.642642642643 0.3430176748402095
3652.6526526526527 0.34013271241043247
3662.6626626626626 0.3372743799199455
3672.672672672673 0.3344424063405448
3682.6826826826828 0.3316365347046828
3692.6926926926926 0.32885652088979245
3702.7027027027025 0.32610213246706904
3712.712712712713 0.3233731476138691
3722.7227227227227 0.3206693540886316
3732.7327327327325 0.31799054826699125
3742.742742742743 0.31533653423759633
3752.7527527527527 0.31270712295596215
3762.7627627627626 0.31010213145458587
3772.772772772773 0.3075213821074399
3782.7827827827828 0.3049647019468866
3792.7927927927926 0.30243192203099745
3802.802802802803 0.2999228768592263
3812.812812812813 0.2974374038343548
3822.8228228228227 0.294975342768625
3832.832832832833 0.29253653543197605
3842.842842842843 0.2901208251403108
3852.8528528528527 0.28772805638174787
3862.862862862863 0.2853580744788391
3872.872872872873 0.2830107252847761
3882.8828828828828 0.2806858549116455
3892.892892892893 0.2783833094888546
3902.902902902903 0.27610293494988347
3912.912912912913 0.2738445768455927
3922.922922922923 0.27160808018236354
3932.932932932933 0.26939328928341755
3942.942942942943 0.2672000476717107
3952.9529529529527 0.26502819797287797
3962.962962962963 0.2628775818367557
3972.972972972973 0.2607480398760751
3982.982982982983 0.2586394116209889
3992.992992992993 0.2565515354881491
4003.003003003003 0.2544842487631267
4013.013013013013 0.252437387595012
4023.023023023023 0.25041078700210684
4033.033033033033 0.24840428088767352
4043.043043043043 0.2464177020647617
4053.053053053053 0.244450882289194
4063.063063063063 0.24250365229984383
4073.073073073073 0.24057584186538936
4083.0830830830832 0.23866727983678257
4093.093093093093 0.23677779420471748
4103.103103103103 0.23490721216142912
4113.113113113113 0.2330553601662042
4123.123123123123 0.23122206401401865
4133.133133133133 0.2294071489067689
4143.143143143143 0.22761043952659593
4153.153153153153 0.2258317601108407
4163.163163163163 0.2240709345282059
4173.173173173173 0.2223277863557325
4183.183183183183 0.22060213895623182
4193.193193193193 0.21889381555584306
4203.203203203203 0.2172026393214163
4213.213213213214 0.2155284334374506
4223.223223223224 0.2138710211823347
4233.2332332332335 0.21223022600367064
4243.243243243243 0.2106058715924787
4253.253253253253 0.20899778195610286
4263.263263263263 0.2074057814896593
4273.273273273273 0.20582969504588436
4283.283283283283 0.20426934800325994
4293.293293293293 0.2027245663323086
4303.303303303303 0.20119517665996545
4313.313313313313 0.1996810063319486
4323.323323323323 0.1981818834730623
4333.333333333334 0.19669763704537988
4343.343343343344 0.1952280969042647
4353.353353353354 0.1937730938521949
4363.3633633633635 0.19233245969037102
4373.373373373373 0.19090602726809222
4383.383383383383 0.18949363052989435
4393.393393393393 0.18809510456045098
4403.403403403403 0.1867102856272455
4413.413413413413 0.1853390112210267
4423.423423423424 0.18398112009406864
4433.4334334334335 0.1826364522962569
4443.443443443443 0.18130484920902984
4453.453453453454 0.1799861535772067
4463.463463463464 0.17868020953874098
4473.473473473474 0.17738686265243028
4483.483483483484 0.1761059599236333
4493.493493493494 0.1748373498280294
4503.503503503503 0.1735808823334712
4513.513513513513 0.17233640891997573
4523.523523523523 0.17110378259790088
4533.533533533533 0.16988285792436156
4543.543543543543 0.16867349101793058
4553.553553553554 0.1674755395716798
4563.563563563564 0.1662888628646119
4573.573573573573 0.1651133217715336
4583.583583583584 0.16394877877142514
4593.593593593594 0.1627950979543564
4603.603603603604 0.16165214502700173
4613.613613613614 0.16051978731680694
4623.623623623624 0.1593978937748576
4633.6336336336335 0.1582863349775012
4643.643643643643 0.15718498312677373
4653.653653653653 0.15609371204967795
4663.663663663663 0.1550123971963656
4673.673673673674 0.15394091563726847
4683.683683683684 0.15287914605922917
4693.693693693694 0.15182696876067336
4703.703703703704 0.15078426564587338
4713.713713713714 0.14975092021834535
4723.723723723724 0.14872681757342232
4733.733733733734 0.14771184439004822
4743.743743743744 0.14670588892183262
4753.753753753754 0.14570884098740583
4763.763763763764 0.144720591960115
4773.773773773773 0.14374103475709774
4783.783783783783 0.14277006382777213
4793.793793793793 0.141807575141777
4803.803803803804 0.14085346617639757
4813.813813813814 0.13990763590351238
4823.823823823824 0.13896998477609046
4833.833833833834 0.13804041471427322
4843.843843843844 0.13711882909107048
4853.853853853854 0.13620513271769913
4863.863863863864 0.1352992318285948
4873.873873873874 0.13440103406612178
4883.883883883884 0.13351044846500912
4893.893893893894 0.13262738543653738
4903.9039039039035 0.131751756752501
4913.913913913913 0.13088347552896878
4923.923923923924 0.1300224562098663
4933.933933933934 0.1291686145504013
4943.943943943944 0.12832186760035144
4953.953953953955 0.12748213368723713
4963.9639639639645 0.126649332399396
4973.973973973974 0.12582338456897776
4983.983983983984 0.12500421225487754
4993.993993993994 0.12419173872562364
5004.004004004004 0.12338588844223582
5014.014014014014 0.12258658704106896
5024.024024024024 0.12179376131665672
5034.0340340340335 0.12100733920456873
5044.044044044043 0.12022724976429458
5054.054054054054 0.1194534231621666
5064.064064064064 0.11868579065433338
5074.074074074074 0.1179242845697948
5084.084084084085 0.11716883829350978
5094.0940940940945 0.11641938624958605
5104.104104104104 0.11567586388456143
5114.114114114114 0.11493820765078559
5124.124124124124 0.11420635498991082
5134.134134134134 0.11348024431649892
5144.144144144144 0.11275981500175246
5154.154154154154 0.11204500735737664
5164.1641641641645 0.11133576261957831
5174.174174174174 0.11063202293320852
5184.184184184184 0.10993373133605334
5194.194194194194 0.1092408317432791
5204.204204204204 0.10855326893203653
5214.214214214214 0.10787098852622745
5224.224224224225 0.10719393698143942
5234.2342342342345 0.10652206157005104
5244.244244244244 0.10585531036651154
5254.254254254254 0.10519363223279826
5264.264264264264 0.10453697680405379
5274.274274274274 0.10388529447440673
5284.284284284285 0.10323853638297648
5294.294294294295 0.10259665440006577
5304.304304304304 0.10195960111354126
5314.314314314314 0.10132732981540465
5324.324324324324 0.1006997944885548
5334.334334334334 0.10007694979374261
5344.344344344345 0.09945875105671842
5354.354354354355 0.09884515425557408
5364.3643643643645 0.09823611600827799
5374.374374374374 0.09763159356040584
5384.384384384384 0.09703154477306461
5394.394394394394 0.09643592811101176
5404.404404404404 0.09584470263096784
5414.414414414415 0.09525782797012344
5424.424424424425 0.09467526433483861
5434.4344344344345 0.09409697248953493
5444.444444444444 0.09352291374577915
5454.454454454454 0.09295304995155783
5464.464464464464 0.09238734348074097
5474.474474474475 0.09182575722273473
5484.484484484485 0.09126825457232098
5494.494494494495 0.0907147994196828
5504.504504504504 0.0901653561406148
5514.514514514514 0.08961988958691564
5524.524524524524 0.0890783650769629
5534.534534534535 0.0885407483864668
5544.544544544545 0.08800700573940255
5554.554554554555 0.08747710379911813
5564.5645645645645 0.08695100965961729
5574.574574574574 0.08642869083701452
5584.584584584584 0.08591011526116056
5594.594594594595 0.08539525126743623
5604.604604604605 0.0848840675887138
5614.614614614615 0.08437653334748099
5624.624624624625 0.08387261804812902
5634.6346346346345 0.08337229156939999
5644.644644644644 0.08287552415699215
5654.654654654654 0.08238228641632184
5664.664664664665 0.08189254930543796
5674.674674674675 0.08140628412808919
5684.684684684685 0.08092346252693913
5694.694694694695 0.08044405647692932
5704.704704704704 0.07996803827878644
5714.714714714714 0.07949538055267234
5724.724724724725 0.07902605623197388
5734.734734734735 0.07856003855723095
5744.744744744745 0.07809730107019992
5754.754754754755 0.07763781760805047
5764.764764764765 0.0771815622976936
5774.774774774774 0.0767285095502386
5784.784784784785 0.07627863405557611
5794.794794794795 0.07583191077708583
5804.804804804805 0.07538831494646644
5814.814814814815 0.07494782205868489
5824.824824824825 0.07451040786704381
5834.8348348348345 0.07407604837836382
5844.844844844845 0.07364471984827967
5854.854854854855 0.07321639877664692
5864.864864864865 0.07279106190305752
5874.874874874875 0.07236868620246267
5884.884884884885 0.07194924888089961
5894.894894894895 0.07153272737132134
5904.9049049049045 0.0711190993295267
5914.914914914915 0.07070834263018873
5924.924924924925 0.07030043536297961
5934.934934934935 0.06989535582878946
5944.944944944945 0.06949308253603793
5954.954954954955 0.06909359419707584
5964.964964964965 0.06869686972467537
5974.974974974975 0.06830288822860651
5984.984984984985 0.06791162901229843
5994.994994994995 0.06752307156958323
6005.005005005005 0.06713719558152059
6015.015015015015 0.06675398091330154
6025.025025025025 0.06637340761122953
6035.035035035035 0.0659954558997767
6045.045045045045 0.06562010617871414
6055.055055055055 0.06524733902031381
6065.065065065065 0.06487713516662116
6075.075075075075 0.06450947552679602
6085.085085085085 0.06414434117452072
6095.0950950950955 0.06378171334547358
6105.105105105105 0.0634215734348661
6115.115115115115 0.06306390299504236
6125.125125125125 0.06270868373313931
6135.135135135135 0.062355897508806206
6145.145145145145 0.06200552633198163
6155.155155155155 0.06165755236072706
6165.1651651651655 0.06131195789911496
6175.175175175175 0.06096872539517081
6185.185185185185 0.06062783743886664
6195.195195195195 0.06028927676016586
6205.205205205205 0.05995302622711714
6215.215215215215 0.05961906884399659
6225.225225225226 0.05928738774949691
6235.235235235235 0.05895796621496174
6245.245245245245 0.05863078764266507
6255.255255255255 0.058305835564133324
6265.265265265265 0.057983093638509765
6275.275275275275 0.05766254565095964
6285.285285285286 0.057344175511115376
6295.295295295296 0.05702796725156026
6305.305305305305 0.05671390502634963
