#lamb flux
1000.0 1.1230931105374934e+40
1010.01001001001 1.156291967664949e+40
1020.0200200200201 1.187794233121646e+40
1030.03003003003 1.217610743499902e+40
1040.0400400400401 1.2457633675560872e+40
1050.05005005005 1.2722833070852458e+40
1060.06006006006 1.2972095289298882e+40
1070.07007007007 1.320587334543976e+40
1080.08008008008 1.3424670687527915e+40
1090.0900900900901 1.3629029656632638e+40
1100.1001001001 1.3819521269298024e+40
1110.11011011011 1.399673625616821e+40
1120.1201201201202 1.4161277275817763e+40
1130.13013013013 1.4313752215071918e+40
1140.1401401401401 1.4454768483274312e+40
1150.1501501501502 1.4584928207323654e+40
1160.16016016016 1.4704824236065058e+40
1170.1701701701702 1.4815036866129975e+40
1180.1801801801803 1.4916131206039358e+40
1190.1901901901902 1.500865510088476e+40
1200.2002002002002 1.509313754584881e+40
1210.2102102102103 1.5170087522953577e+40
1220.2202202202202 1.5239993201539322e+40
1230.2302302302303 1.530332144892943e+40
1240.2402402402402 1.5360517603429454e+40
1250.2502502502502 1.5411390679386205e+40
1260.2602602602603 1.5454507002709645e+40
1270.2702702702702 1.5486945246518632e+40
1280.2802802802803 1.550919049579776e+40
1290.2902902902902 1.552172098920961e+40
1300.3003003003003 1.5525006500050866e+40
1310.3103103103103 1.5519506966796394e+40
1320.3203203203202 1.5505671349578228e+40
1330.3303303303303 1.548393669024655e+40
1340.3403403403404 1.5454727355026314e+40
1350.3503503503503 1.5418454440181453e+40
1360.3603603603603 1.537551532250068e+40
1370.3703703703704 1.5326293337800506e+40
1380.3803803803803 1.5271157571987095e+40
1390.3903903903904 1.5210462750514468e+40
1400.4004004004005 1.5144549213313072e+40
1410.4104104104103 1.5073742963434645e+40
1420.4204204204204 1.4998355778761307e+40
1430.4304304304305 1.4918685377156973e+40
1440.4404404404404 1.4835015626399021e+40
1450.4504504504505 1.4747616791114838e+40
1460.4604604604606 1.4656745809767937e+40
1470.4704704704704 1.4562646595489005e+40
1480.4804804804805 1.4465550355236852e+40
1490.4904904904906 1.4365675922401742e+40
1500.5005005005005 1.4263230098535908e+40
1510.5105105105106 1.415840800041546e+40
1520.5205205205207 1.4051393409108871e+40
1530.5305305305305 1.39423591181539e+40
1540.5405405405404 1.3831467278331427e+40
1550.5505505505505 1.3718869736875404e+40
1560.5605605605606 1.360470836927631e+40
1570.5705705705705 1.3489115402127725e+40
1580.5805805805805 1.3372213725732834e+40
1590.5905905905906 1.3254117195437881e+40
1600.6006006006005 1.3134930920894867e+40
1610.6106106106106 1.3014751542682606e+40
1620.6206206206207 1.2893667495938286e+40
1630.6306306306305 1.2771759260877393e+40
1640.6406406406406 1.264909960031372e+40
1650.6506506506507 1.2525753784542307e+40
1660.6606606606606 1.2401779804222245e+40
1670.6706706706707 1.227722857220547e+40
1680.6806806806808 1.215214411561068e+40
1690.6906906906906 1.2026563759851967e+40
1700.7007007007007 1.1900542824837996e+40
1710.7107107107108 1.1774203253713497e+40
1720.7207207207207 1.1647550356539136e+40
1730.7307307307308 1.1520571837045855e+40
1740.7407407407409 1.1393251786336712e+40
1750.7507507507507 1.126557075234677e+40
1760.7607607607606 1.1137505840872362e+40
1770.770770770771 1.1009030857155326e+40
1780.7807807807808 1.088011649882879e+40
1790.7907907907907 1.0750730613136283e+40
1800.8008008008007 1.0620838533740011e+40
1810.8108108108108 1.0490403515139876e+40
1820.8208208208207 1.035938728571387e+40
1830.8308308308308 1.022775074361223e+40
1840.8408408408409 1.0095454823094943e+40
1850.8508508508507 9.962461562233828e+39
1860.8608608608608 9.828735405955824e+39
1870.870870870871 9.694244780818347e+39
1880.8808808808808 9.558963979167966e+39
1890.890890890891 9.422875389749744e+39
1900.900900900901 9.285972108509979e+39
1910.9109109109108 9.14826095614951e+39
1920.920920920921 9.009765916606967e+39
1930.930930930931 8.870531991582968e+39
1940.940940940941 8.73062943891061e+39
1950.950950950951 8.590158325636201e+39
1960.960960960961 8.449253279163324e+39
1970.970970970971 8.308088261702293e+39
1980.980980980981 8.166881125986718e+39
1990.9909909909911 8.025897637293943e+39
2001.001001001001 7.885454574452005e+39
2011.0110110110109 7.745921460035226e+39
2021.0210210210212 7.607720429679225e+39
2031.031031031031 7.471323746975849e+39
2041.0410410410411 7.337248518850406e+39
2051.051051051051 7.206048279512901e+39
2061.061061061061 7.078301295930036e+39
2071.071071071071 6.95459570138448e+39
2081.081081081081 6.835511870190499e+39
2091.091091091091 6.721602775986605e+39
2101.101101101101 6.613373385982377e+39
2111.1111111111113 6.511260385239485e+39
2121.121121121121 6.41561365178851e+39
2131.131131131131 6.326680880724224e+39
2141.141141141141 6.244596570373762e+39
2151.151151151151 6.169376249758365e+39
2161.161161161161 6.100916383415816e+39
2171.1711711711714 6.038999896063601e+39
2181.1811811811813 5.983306782489411e+39
2191.191191191191 5.933428869585784e+39
2201.201201201201 5.888887523703774e+39
2211.2112112112113 5.849152970589877e+39
2221.221221221221 5.813663915693649e+39
2231.2312312312315 5.781846297276114e+39
2241.2412412412414 5.753130237338672e+39
2251.2512512512512 5.726964534269029e+39
2261.261261261261 5.702828326762516e+39
2271.271271271271 5.680239819215445e+39
2281.2812812812813 5.658762173133736e+39
2291.2912912912916 5.638006826765877e+39
2301.3013013013015 5.617634605121938e+39
2311.3113113113113 5.597355030561887e+39
2321.321321321321 5.576924250030576e+39
2331.331331331331 5.556141970124708e+39
2341.3413413413414 5.534847746504958e+39
2351.3513513513512 5.512916919202722e+39
2361.3613613613616 5.490256427528982e+39
2371.3713713713714 5.466800682815749e+39
2381.3813813813813 5.442507627397009e+39
2391.391391391391 5.4173550657624435e+39
2401.4014014014015 5.391337319209519e+39
2411.4114114114113 5.36446222829542e+39
2421.4214214214217 5.336748507189211e+39
2431.4314314314315 5.3082234396509345e+39
2441.4414414414414 5.278920896758974e+39
2451.4514514514512 5.2488796506580195e+39
2461.4614614614616 5.218141955601655e+39
2471.4714714714714 5.186752366648995e+39
2481.4814814814818 5.1547567669154525e+39
2491.4914914914916 5.1222015757802424e+39
2501.5015015015015 5.089133112539243e+39
2511.5115115115113 5.055597092382566e+39
2521.521521521521 5.0216382340718935e+39
2531.5315315315315 4.9872999611565915e+39
2541.541541541542 4.952624180911024e+39
2551.5515515515517 4.917651127344638e+39
2561.5615615615616 4.882419256604405e+39
2571.5715715715714 4.846965184845963e+39
2581.5815815815813 4.811323660198213e+39
2591.5915915915916 4.775527561796507e+39
2601.6016016016015 4.7396079200267893e+39
2611.611611611612 4.703593953124328e+39
2621.6216216216217 4.667513116123953e+39
2631.6316316316315 4.631391158881502e+39
2641.6416416416414 4.5952521904954784e+39
2651.6516516516517 4.559118747968718e+39
2661.6616616616616 4.5230118673763866e+39
2671.671671671672 4.486951156161227e+39
2681.6816816816818 4.4509548654703585e+39
2691.6916916916916 4.415039961689761e+39
2701.7017017017015 4.379222196531018e+39
2711.711711711712 4.3435161751869546e+39
2721.7217217217217 4.307935422204476e+39
2731.731731731732 4.272492444829264e+39
2741.741741741742 4.237198793662552e+39
2751.7517517517517 4.2020651205381373e+39
2761.7617617617616 4.1671012335818023e+39
2771.7717717717715 4.1323161494571875e+39
2781.781781781782 4.0977181428348045e+39
2791.791791791792 4.06331479314549e+39
2801.801801801802 4.0291130286977785e+39
2811.811811811812 3.9951191682519616e+39
2821.8218218218217 3.9613389601525464e+39
2831.8318318318316 3.927777619126537e+39
2841.841841841842 3.894439860858075e+39
2851.851851851852 3.861329934451031e+39
2861.861861861862 3.828451652890538e+39
2871.871871871872 3.795808421612716e+39
2881.881881881882 3.7634032652891335e+39
2891.8918918918916 3.7312388529291383e+39
2901.901901901902 3.6993175213993616e+39
2911.911911911912 3.667641297455516e+39
2921.921921921922 3.636211918377221e+39
2931.931931931932 3.6050308512921494e+39
2941.941941941942 3.5740993112712676e+39
2951.9519519519517 3.543418278272513e+39
2961.961961961962 3.512988513005919e+39
2971.971971971972 3.4828105717889165e+39
2981.9819819819822 3.4528848204565047e+39
2991.991991991992 3.423211447386986e+39
3002.002002002002 3.3937904757003044e+39
3012.012012012012 3.364621774682379e+39
3022.0220220220217 3.3357050704854586e+39
3032.032032032032 3.3138267124560756e+39
3042.0420420420423 3.284534088012752e+39
3052.052052052052 3.255263704025172e+39
3062.062062062062 3.2260819333680664e+39
3072.072072072072 3.1970451973504567e+39
3082.0820820820823 3.1682010578792315e+39
3092.092092092092 3.1395892143455984e+39
3102.102102102102 3.111242410353553e+39
3112.1121121121123 3.083187255819616e+39
3122.122122122122 3.055444970169587e+39
3132.132132132132 3.028032052392375e+39
3142.1421421421423 3.0009608836238785e+39
3152.152152152152 2.974240267758726e+39
3162.162162162162 2.947875915351022e+39
3172.1721721721724 2.9218708757877e+39
3182.1821821821823 2.8962259224162255e+39
3192.192192192192 2.870939894994413e+39
3202.202202202202 2.846010003513839e+39
3212.2122122122123 2.8214320971364334e+39
3222.222222222222 2.797200901681517e+39
3232.232232232232 2.773310228811429e+39
3242.2422422422424 2.749753159790103e+39
3252.252252252252 2.7265222064318727e+39
3262.262262262262 2.7036094516182406e+39
3272.2722722722724 2.6810066715382657e+39
3282.2822822822823 2.6587054416034153e+39
3292.292292292292 2.6366972277995975e+39
3302.3023023023025 2.6149734650670017e+39
3312.3123123123123 2.5935256241412064e+39
3322.322322322322 2.5723452681461303e+39
3332.3323323323325 2.551424100099491e+39
3342.3423423423424 2.530754002373857e+39
3352.352352352352 2.510327069049774e+39
3362.3623623623625 2.4901356320013284e+39
3372.3723723723724 2.4701722814675495e+39
3382.3823823823823 2.450429881784703e+39
3392.3923923923926 2.4309015828840285e+39
3402.4024024024025 2.4115808280957512e+39
3412.4124124124123 2.392461358743061e+39
3422.4224224224226 2.3735372159582564e+39
3432.4324324324325 2.35480274010688e+39
3442.4424424424424 2.3362525681640755e+39
3452.4524524524522 2.3178816293499107e+39
3462.4624624624626 2.2996851392967573e+39
3472.4724724724724 2.2816585929915756e+39
3482.4824824824823 2.263797756708628e+39
3492.4924924924926 2.2460986591238692e+39
3502.5025025025025 2.2285575817800883e+39
3512.5125125125123 2.2111710490522168e+39
3522.5225225225226 2.19393581774444e+39
3532.5325325325325 2.1768488664347256e+39
3542.5425425425424 2.1599073846681113e+39
3552.5525525525527 2.1431087620871463e+39
3562.5625625625626 2.1264505775763238e+39
3572.5725725725724 2.1099305884869422e+39
3582.5825825825827 2.0935467199995398e+39
3592.5925925925926 2.0772970546726224e+39
3602.6026026026025 2.0611798222189784e+39
3612.612612612613 2.04519338954413e+39
3622.6226226226227 2.02933625107549e+39
3632.6326326326325 2.013607019405423e+39
3642.642642642643 1.9980044162666932e+39
3652.6526526526527 1.9825272638544598e+39
3662.6626626626626 1.967174476505268e+39
3672.672672672673 1.951945052740147e+39
3682.6826826826828 1.936838067675952e+39
3692.6926926926926 1.921852665806527e+39
3702.7027027027025 1.906988054152963e+39
3712.712712712713 1.8922434957802952e+39
3722.7227227227227 1.877618303676226e+39
3732.7327327327325 1.863111834985968e+39
3742.742742742743 1.848723485596108e+39
3752.7527527527527 1.8344526850592445e+39
3762.7627627627626 1.820298891850285e+39
3772.772772772773 1.8062615889445803e+39
3782.7827827827828 1.792340279707416e+39
3792.7927927927926 1.778534484083965e+39
3802.802802802803 1.7648437350784236e+39
3812.812812812813 1.7512675755107904e+39
3822.8228228228227 1.7378055550396072e+39
3832.832832832833 1.7244572274388875e+39
3842.842842842843 1.7112221481174178e+39
3852.8528528528527 1.6980998718687268e+39
3862.862862862863 1.6850899508400472e+39
3872.872872872873 1.6721919327088155e+39
3882.8828828828828 1.6594053590553854e+39
3892.892892892893 1.6467297639209324e+39
3902.902902902903 1.634164672539695e+39
3912.912912912913 1.621709600235069e+39
3922.922922922923 1.6093640514693064e+39
3932.932932932933 1.5971275190369613e+39
3942.942942942943 1.5849994833924652e+39
3952.9529529529527 1.5729794121026665e+39
3962.962962962963 1.561066759415442e+39
3972.972972972973 1.5492609659358736e+39
3982.982982982983 1.5375614584018417e+39
3992.992992992993 1.5259676495512405e+39
4003.003003003003 1.5144789380734008e+39
4013.013013013013 1.5030947086376008e+39
4023.023023023023 1.4918143319919772e+39
4033.033033033033 1.480637165126422e+39
4043.043043043043 1.4695625514934276e+39
4053.053053053053 1.458589821281161e+39
4063.063063063063 1.4477182917333666e+39
4073.073073073073 1.4369472675110135e+39
4083.0830830830832 1.4262760410908986e+39
4093.093093093093 1.41570389319673e+39
4103.103103103103 1.4052300932584628e+39
4113.113113113113 1.3948538998959754e+39
4123.123123123123 1.3845745614233838e+39
4133.133133133133 1.374391316370604e+39
4143.143143143143 1.3643033940189536e+39
4153.153153153153 1.3543100149478598e+39
4163.163163163163 1.3444103915899246e+39
4173.173173173173 1.3346037287918353e+39
4183.183183183183 1.3248892243787952e+39
4193.193193193193 1.3152660697203254e+39
4203.203203203203 1.3057334502955004e+39
4213.213213213214 1.2962905462558151e+39
4223.223223223224 1.2869365329840605e+39
4233.2332332332335 1.2776705816477317e+39
4243.243243243243 1.2684918597456385e+39
4253.253253253253 1.2593995316465101e+39
4263.263263263263 1.2503927591185321e+39
4273.273273273273 1.2414707018488505e+39
4283.283283283283 1.2326325179522024e+39
4293.293293293293 1.2238773644679354e+39
4303.303303303303 1.2152043978447612e+39
4313.313313313313 1.2066127744127059e+39
4323.323323323323 1.1981016508417635e+39
4333.333333333334 1.1896701845868809e+39
4343.343343343344 1.1813175343189455e+39
4353.353353353354 1.1730428603415149e+39
4363.3633633633635 1.1648453249931092e+39
4373.373373373373 1.1567240930349185e+39
4383.383383383383 1.1486783320238515e+39
4393.393393393393 1.1407072126708835e+39
4403.403403403403 1.1328099091847167e+39
4413.413413413413 1.1249855996007914e+39
4423.423423423424 1.1172334660957507e+39
4433.4334334334335 1.1095526952874554e+39
4443.443443443443 1.1019424785207113e+39
4453.453453453454 1.0944020121388695e+39
4463.463463463464 1.0869304977415239e+39
4473.473473473474 1.0795271424284783e+39
4483.483483483484 1.0721911590302702e+39
4493.493493493494 1.0649217663254771e+39
4503.503503503503 1.0577181892450768e+39
4513.513513513513 1.0505796590641558e+39
4523.523523523523 1.0435054135812372e+39
4533.533533533533 1.0364946972855573e+39
4543.543543543543 1.0295467615125647e+39
4553.553553553554 1.0226608645879864e+39
4563.563563563564 1.0158362719607644e+39
4573.573573573573 1.009072256325185e+39
4583.583583583584 1.002368097732531e+39
4593.593593593594 9.957230836925829e+38
4603.603603603604 9.891365092652817e+38
4613.613613613614 9.826076771429052e+38
4623.623623623624 9.761358977230483e+38
4633.6336336336335 9.697204891727607e+38
4643.643643643643 9.633607774841431e+38
4653.653653653653 9.570560965217181e+38
4663.663663663663 9.508057880619013e+38
4673.673673673674 9.44609201824864e+38
4683.683683683684 9.384656954991087e+38
4693.693693693694 9.323746347590365e+38
4703.703703703704 9.263353932758172e+38
4713.713713713714 9.203473527218419e+38
4723.723723723724 9.144099027690376e+38
4733.733733733734 9.08522441081324e+38
4743.743743743744 9.026843733014865e+38
4753.753753753754 8.96895113032714e+38
4763.763763763764 8.911540818150799e+38
4773.773773773773 8.85460709097193e+38
4783.783783783783 8.798144322032889e+38
4793.793793793793 8.742146962959721e+38
4803.803803803804 8.686609543348612e+38
4813.813813813814 8.631526670313538e+38
4823.823823823824 8.576893027997223e+38
4833.833833833834 8.522703377047642e+38
4843.843843843844 8.468952554062043e+38
4853.853853853854 8.415635471000429e+38
4863.863863863864 8.362747114570585e+38
4873.873873873874 8.310282545586252e+38
4883.883883883884 8.258236898300504e+38
4893.893893893894 8.206605379715859e+38
4903.9039039039035 8.155383268872933e+38
4913.913913913913 8.104565916119138e+38
4923.923923923924 8.054148742359047e+38
4933.933933933934 8.004127238287959e+38
4943.943943943944 7.954496963609937e+38
4953.953953953955 7.905253546241939e+38
4963.9639639639645 7.856392681505191e+38
4973.973973973974 7.80791013130511e+38
4983.983983983984 7.759801723301136e+38
4993.993993993994 7.712063350067477e+38
5004.004004004004 7.664690968245958e+38
5014.014014014014 7.617680597692165e+38
5024.024024024024 7.571028320615692e+38
5034.0340340340335 7.524730280715749e+38
5044.044044044043 7.478782682312817e+38
5054.054054054054 7.433181789477473e+38
5064.064064064064 7.38792392515711e+38
5074.074074074074 7.343005470301404e+38
5084.084084084085 7.29842286298735e+38
5094.0940940940945 7.2541725975446e+38
5104.104104104104 7.210251223681744e+38
5114.114114114114 7.166655345614319e+38
5124.124124124124 7.123381621195103e+38
5134.134134134134 7.080426761047337e+38
5144.144144144144 7.037787527701403e+38
5154.154154154154 6.9954607347356e+38
5164.1641641641645 6.953443245921392e+38
5174.174174174174 6.911731974373766e+38
5184.184184184184 6.870323881706997e+38
5194.194194194194 6.829215977196359e+38
5204.204204204204 6.788405316946197e+38
5214.214214214214 6.747889003064618e+38
5224.224224224225 6.707664182845276e+38
5234.2342342342345 6.6677280479565394e+38
5244.244244244244 6.628077833638291e+38
5254.254254254254 6.588710817906783e+38
5264.264264264264 6.549624320767624e+38
5274.274274274274 6.510815703437359e+38
5284.284284284285 6.4722823675736566e+38
5294.294294294295 6.434021754514481e+38
5304.304304304304 6.396031344526309e+38
5314.314314314314 6.3583086560616756e+38
5324.324324324324 6.320851245026104e+38
5334.334334334334 6.283656704054646e+38
5344.344344344345 6.24672266179808e+38
5354.354354354355 6.210046782218959e+38
5364.3643643643645 6.173626763897522e+38
5374.374374374374 6.137460339347623e+38
5384.384384384384 6.1015452743427125e+38
5394.394394394394 6.065879367251925e+38
5404.404404404404 6.030460448386353e+38
5414.414414414415 5.995286379355508e+38
5424.424424424425 5.960355052434039e+38
5434.4344344344345 5.925664389938655e+38
5444.444444444444 5.891212343615328e+38
5454.454454454454 5.8569968940367666e+38
5464.464464464464 5.823016050010094e+38
5474.474474474475 5.789267847994761e+38
5484.484484484485 5.7557503515306644e+38
5494.494494494495 5.722461650676418e+38
5504.504504504504 5.689399861457755e+38
5514.514514514514 5.656563125325982e+38
5524.524524524524 5.623949608626479e+38
5534.534534534535 5.5915575020771554e+38
5544.544544544545 5.559385020256791e+38
5554.554554554555 5.527430401103204e+38
5564.5645645645645 5.495691905421181e+38
5574.574574574574 5.464167816400075e+38
5584.584584584584 5.432856439140992e+38
5594.594594594595 5.401756100193446e+38
5604.604604604605 5.370865147101511e+38
5614.614614614615 5.3401819479591565e+38
5624.624624624625 5.3097048909749146e+38
5634.6346346346345 5.2794323840456045e+38
5644.644644644644 5.249362854339062e+38
5654.654654654654 5.2194947478858114e+38
5664.664664664665 5.1898265291794745e+38
5674.674674674675 5.1603566807859384e+38
5684.684684684685 5.131083702961013e+38
5694.694694694695 5.1020061132766024e+38
5704.704704704704 5.0731224462551956e+38
5714.714714714714 5.0444312530125796e+38
5724.724724724725 5.01593110090866e+38
5734.734734734735 4.987620573206257e+38
5744.744744744745 4.959498268737783e+38
5754.754754754755 4.9315628015796324e+38
5764.764764764765 4.9038128007342294e+38
5774.774774774774 4.87624690981954e+38
5784.784784784785 4.848863786765978e+38
5794.794794794795 4.8216621035205496e+38
5804.804804804805 4.794640545758141e+38
5814.814814814815 4.7677978125997956e+38
5824.824824824825 4.7411326163378875e+38
5834.8348348348345 4.714643682168032e+38
5844.844844844845 4.688329747927671e+38
5854.854854854855 4.6621895638411344e+38
5864.864864864865 4.636221892271101e+38
5874.874874874875 4.610425507476359e+38
5884.884884884885 4.584799195375678e+38
5894.894894894895 4.5593417533177405e+38
