#lamb flux
1000.0 0.5064661745707375
1010.01001001001 0.546309778209405
1020.0200200200201 0.5868441156646882
1030.03003003003 0.6279576329605417
1040.0400400400401 0.669546500723745
1050.05005005005 0.7115151602384046
1060.06006006006 0.7537766399560925
1070.07007007007 0.7962526753376725
1080.08008008008 0.8388736640322529
1090.0900900900901 0.8815784865809456
1100.1001001001 0.9243142203878429
1110.11011011011 0.9670357718880619
1120.1201201201202 1.0097054488677502
1130.13013013013 1.0522924919091148
1140.1401401401401 1.094772581056974
1150.1501501501502 1.137127331109139
1160.16016016016 1.179343786469072
1170.1701701701702 1.2214139242912903
1180.1801801801803 1.2633341727065643
1190.1901901901902 1.3051049492310398
1200.2002002002002 1.3467302230288354
1210.2102102102103 1.388217103493081
1220.2202202202202 1.4295754566148156
1230.2302302302303 1.47081754979972
1240.2402402402402 1.5119577251467067
1250.2502502502502 1.552900240358423
1260.2602602602603 1.5933130723363111
1270.2702702702702 1.6325551361071031
1280.2802802802803 1.6705975093963596
1290.2902902902902 1.7074167825213202
1300.3003003003003 1.742994675533452
1310.3103103103103 1.777317657785006
1320.3203203203202 1.8103765733198494
1330.3303303303303 1.8421662748773233
1340.3403403403404 1.8726852687489224
1350.3503503503503 1.9019353722396268
1360.3603603603603 1.929921385055582
1370.3703703703704 1.9566507755638827
1380.3803803803803 1.9821333825449152
1390.3903903903904 2.0063811327784786
1400.4004004004005 2.0294077745677845
1410.4104104104103 2.0512286271063833
1420.4204204204204 2.071860345427775
1430.4304304304305 2.0913207005423136
1440.4404404404404 2.1096283742576776
1450.4504504504505 2.1268027680936004
1460.4604604604606 2.1428638256367805
1470.4704704704704 2.157831867634104
1480.4804804804805 2.1717274390899215
1490.4904904904906 2.1845711676133686
1500.5005005005005 2.1963836322530415
1510.5105105105106 2.2071852420570077
1520.5205205205207 2.2169961236046256
1530.5305305305305 2.22583601677216
1540.5405405405404 2.2337241780154087
1550.5505505505505 2.2406792904792088
1560.5605605605606 2.246719380275057
1570.5705705705705 2.2518617383042043
1580.5805805805805 2.2561228470442627
1590.5905905905906 2.2595183117631366
1600.6006006006005 2.2620627956753103
1610.6106106106106 2.2637699586133033
1620.6206206206207 2.264652398852246
1630.6306306306305 2.264721597800055
1640.6406406406406 2.2639878673511125
1650.6506506506507 2.262460299800382
1660.6606606606606 2.2601467203302814
1670.6706706706707 2.257053642218079
1680.6806806806808 2.253186225071072
1690.6906906906906 2.2485482365855676
1700.7007007007007 2.243150363406836
1710.7107107107108 2.2370271376082016
1720.7207207207207 2.23017445716161
1730.7307307307308 2.2225825121208245
1740.7407407407409 2.214240479593377
1750.7507507507507 2.205136522478148
1760.7607607607606 2.195257804327968
1770.770770770771 2.184590524402068
1780.7807807807808 2.1731199777662358
1790.7907907907907 2.1608306462030202
1800.8008008008007 2.1477063267111416
1810.8108108108108 2.1337303054963113
1820.8208208208207 2.118885586567299
1830.8308308308308 2.103155185317882
1840.8408408408409 2.086522498741236
1850.8508508508507 2.068971765102501
1860.8608608608608 2.050488626861967
1870.870870870871 2.031060811220617
1880.8808808808808 2.0106789426159253
1890.890890890891 1.9893375005240514
1900.900900900901 1.9670359336451144
1910.9109109109108 1.9437799375089138
1920.920920920921 1.9195828962314032
1930.930930930931 1.8944674800487273
1940.940940940941 1.8684673778719048
1950.950950950951 1.8416291281013448
1960.960960960961 1.814013991261176
1970.970970970971 1.7856997850658787
1980.980980980981 1.75678257738687
1990.9909909909911 1.7273781071709022
2001.001001001001 1.6976227805869228
2011.0110110110109 1.6676740734314344
2021.0210210210212 1.6377101657376587
2031.031031031031 1.6079286454626276
2041.0410410410411 1.5785441492894903
2051.051051051051 1.5497848624636563
2061.061061061061 1.521887875744607
2071.071071071071 1.4950934916957097
2081.081081081081 1.4696386761279527
2091.091091091091 1.445749951396036
2101.101101101101 1.4236361122446193
2111.1111111111113 1.4034811983388475
2121.121121121121 1.385438170131727
2131.131131131131 1.369623701702538
2141.141141141141 1.3561144280236879
2151.151151151151 1.344944873848333
2161.161161161161 1.3361071610236068
2171.1711711711714 1.329552456635858
2181.1811811811813 1.3251940013310803
2191.191191191191 1.3229114576571086
2201.201201201201 1.3225562501030461
2211.2112112112113 1.323957534636044
2221.221221221221 1.3269284346390178
2231.2312312312315 1.3312722076117993
2241.2412412412414 1.336788056043125
2251.2512512512512 1.343276358718561
2261.261261261261 1.350543167631821
2271.271271271271 1.3584038836700083
2281.2812812812813 1.366686085809675
2291.2912912912916 1.375231539881117
2301.3013013013015 1.383897452010549
2311.3113113113113 1.3925570582278906
2321.321321321321 1.4010996563092395
2331.331331331331 1.4094301904546604
2341.3413413413414 1.4174684960849393
2351.3513513513512 1.4251483031733652
2361.3613613613616 1.4324160842413298
2371.3713713713714 1.4392298192387136
2381.3813813813813 1.4455577353968883
2391.391391391391 1.4513770667702146
2401.4014014014015 1.456672866192652
2411.4114114114113 1.4614368920908545
2421.4214214214217 1.4656665841099228
2431.4314314314315 1.469364134761837
2441.4414414414414 1.4725356591415417
2451.4514514514512 1.4751904609626303
2461.4614614614616 1.4773403905171472
2471.4714714714714 1.4789992884412753
2481.4814814814818 1.480182508168614
2491.4914914914916 1.480906509499353
2501.5015015015015 1.4811885156594569
2511.5115115115113 1.4810462264489923
2521.521521521521 1.4804975804884113
2531.5315315315315 1.4795605600933044
2541.541541541542 1.478253032887585
2551.5515515515517 1.4765926248630896
2561.5615615615616 1.4745966201827805
2571.5715715715714 1.4722818835869655
2581.5815815815813 1.4696648017859204
2591.5915915915916 1.4667612407019857
2601.6016016016015 1.463586515857004
2611.611611611612 1.460155373587118
2621.6216216216217 1.4564819811081038
2631.6316316316315 1.4525799237534143
2641.6416416416414 1.4484622079674851
2651.6516516516517 1.4441412688620572
2661.6616616616616 1.4396289813372514
2671.671671671672 1.434936673935277
2681.6816816816818 1.4300751447364868
2691.6916916916916 1.4250546787280018
2701.7017017017015 1.4198850661772437
2711.711711711712 1.4145756216288938
2721.7217217217217 1.4091352032163025
2731.731731731732 1.4035722320391713
2741.741741741742 1.3978947114101703
2751.7517517517517 1.3921102458154613
2761.7617617617616 1.3862260594692781
2771.7717717717715 1.3802490143717194
2781.781781781782 1.3741856278028661
2791.791791791792 1.3680420892059402
2801.801801801802 1.3618242764281738
2811.811811811812 1.3555377713010313
2821.8218218218217 1.3491878745518275
2831.8318318318316 1.3427796200470747
2841.841841841842 1.3363177883744606
2851.851851851852 1.3298069197754268
2861.861861861862 1.3232513264442265
2871.871871871872 1.3166551042122383
2881.881881881882 1.3100221436384272
2891.8918918918916 1.3033561405282554
2901.901901901902 1.2966606059042933
2911.911911911912 1.2899388754522048
2921.921921921922 1.283194118465962
2931.931931931932 1.2764293463159821
2941.941941941942 1.2696474204635166
2951.9519519519517 1.262851060044132
2961.961961961962 1.2560428490424655
2971.971971971972 1.2492252430797062
2981.9819819819822 1.2424005758344816
2991.991991991992 1.2355710651169638
3002.002002002002 1.2287388186151713
3012.012012012012 1.2219058393315791
3022.0220220220217 1.2150740307272587
3032.032032032032 1.2127262427533692
3042.0420420420423 1.2053332155105847
3052.052052052052 1.1977915110113029
3062.062062062062 1.1901462322479528
3072.072072072072 1.1824363247326448
3082.0820820820823 1.1746951985551886
3092.092092092092 1.1669513066939865
3102.102102102102 1.15922867924335
3112.1121121121123 1.1515474142138604
3122.122122122122 1.1439241262820954
3132.132132132132 1.1363723553673022
3142.1421421421423 1.1289029372412536
3152.152152152152 1.121524338571798
3162.162162162162 1.1142429588919982
3172.1721721721724 1.1070634020003962
3182.1821821821823 1.099988719254772
3192.192192192192 1.0930206271378085
3202.202202202202 1.0861597013613968
3212.2122122122123 1.0794055496468786
3222.222222222222 1.07275696517901
3232.232232232232 1.0662120625878384
3242.2422422422424 1.0597683981690975
3252.252252252252 1.0534230759134995
3262.262262262262 1.047172840780504
3272.2722722722724 1.041014160524299
3282.2822822822823 1.034943297259654
3292.292292292292 1.0289563698436026
3302.3023023023025 1.0230494080455588
3312.3123123123123 1.0172183993835395
3322.322322322322 1.0114593294173078
3332.3323323323325 1.0057682162100807
3342.3423423423424 1.0001411395986621
3352.352352352352 0.9945742658467494
3362.3623623623625 0.9890638681974991
3372.3723723723724 0.9836063437884379
3382.3823823823823 0.9781982273441752
3392.3923923923926 0.9728362020195972
3402.4024024024025 0.9675171077277219
3412.4124124124123 0.9622379472519613
3422.4224224224226 0.9569958904115712
3432.4324324324325 0.951788276521369
3442.4424424424424 0.9466126153619252
3452.4524524524522 0.9414665868541413
3462.4624624624626 0.9363480396121389
3472.4724724724724 0.9312549885304398
3482.4824824824823 0.9261856115452753
3492.4924924924926 0.9211382456954063
3502.5025025025025 0.9161113825947703
3512.5125125125123 0.9111036634175521
3522.5225225225226 0.9061138734856875
3532.5325325325325 0.9011409365392515
3542.5425425425424 0.8961839087615647
3552.5525525525527 0.8912419726230396
3562.5625625625626 0.8863144306007302
3572.5725725725724 0.8814006988241324
3582.5825825825827 0.8765003006919941
3592.5925925925926 0.8716128604996043
3602.6026026026025 0.8667380971112504
3612.612612612613 0.8618758177081851
3622.6226226226227 0.8570259116384731
3632.6326326326325 0.8521883443915099
3642.642642642643 0.8473631517167316
3652.6526526526527 0.8425504339030543
3662.6626626626626 0.83775035023289
3672.672672672673 0.8329631136221544
3682.6826826826828 0.828188985455437
3692.6926926926926 0.8234282706235175
3702.7027027027025 0.8186813127685865
3712.712712712713 0.8139484897409064
3722.7227227227227 0.8092302092691799
3732.7327327327325 0.8045269048455479
3742.742742742743 0.7998390318250146
3752.7527527527527 0.7951670637380032
3762.7627627627626 0.7905114888138424
3772.772772772773 0.7858728067121753
3782.7827827827828 0.7812515254585486
3792.7927927927926 0.7766481585798405
3802.802802802803 0.7720632224346501
3812.812812812813 0.7674972337333087
3822.8228228228227 0.7629507072418158
3832.832832832833 0.7584241536636742
3842.842842842843 0.753918077693362
3852.8528528528527 0.7494329762349811
3862.862862862863 0.7449693367794773
3872.872872872873 0.7405276359337531
3882.8828828828828 0.7361083380948983
3892.892892892893 0.7317118942628106
3902.902902902903 0.7273387409844307
3912.912912912913 0.72298929942292
3922.922922922923 0.7186639745451475
3932.932932932933 0.7143631544209837
3942.942942942943 0.7100872096279822
3952.9529529529527 0.7058364927552054
3962.962962962963 0.7016113380000805
3972.972972972973 0.6974120608523433
3982.982982982983 0.6932389578593118
3992.992992992993 0.6890923064668987
4003.003003003003 0.6849723649310026
4013.013013013013 0.6808793722940613
4023.023023023023 0.6768135484218057
4033.033033033033 0.6727750940954266
4043.043043043043 0.6687641911545723
4053.053053053053 0.6647810026868267
4063.063063063063 0.660825673259484
4073.073073073073 0.656898329189675
4083.0830830830832 0.6529990788490746
4093.093093093093 0.6491280129996361
4103.103103103103 0.6452852051569717
4113.113113113113 0.6414707119782146
4123.123123123123 0.6376845736713445
4133.133133133133 0.6339268144231811
4143.143143143143 0.6301974428433851
4153.153153153153 0.6264964524220027
4163.163163163163 0.6228238219982255
4173.173173173173 0.6191795162382219
4183.183183183183 0.6155634861200228
4193.193193193193 0.6119756694235966
4203.203203203203 0.60841599122439
4213.213213213214 0.6048843643887382
4223.223223223224 0.6013806900696687
4233.2332332332335 0.5979048582017525
4243.243243243243 0.5944567479937617
4253.253253253253 0.5910362284180021
4263.263263263263 0.5876431586952928
4273.273273273273 0.5842773887746604
4283.283283283283 0.5809387598068995
4293.293293293293 0.5776271046112532
4303.303303303303 0.5743422481345258
4313.313313313313 0.5710840079020342
4323.323323323323 0.5678521944598641
4333.333333333334 0.5646466118079688
4343.343343343344 0.561467057823709
4353.353353353354 0.5583133246754841
4363.3633633633635 0.5551851992261743
4373.373373373373 0.5520824634261405
4383.383383383383 0.5490048946956001
4393.393393393393 0.545952266296216
4403.403403403403 0.542924347691796
4413.413413413413 0.5399209048980179
4423.423423423424 0.5369417008211488
4433.4334334334335 0.5339864955857394
4443.443443443443 0.5310550468513111
4453.453453453454 0.5281471101180826
4463.463463463464 0.5252624390218017
4473.473473473474 0.5224007856177597
4483.483483483484 0.5195619006541096
4493.493493493494 0.5167455338345992
4503.503503503503 0.5139514340708645
4513.513513513513 0.5111793497244336
4523.523523523523 0.5084290288386012
4533.533533533533 0.5057002193603617
4543.543543543543 0.5029926693525684
4553.553553553554 0.5003061271965238
4563.563563563564 0.49764034178519584
4573.573573573573 0.49499506270726457
4583.583583583584 0.49237004042221033
4593.593593593594 0.48976502642665815
4603.603603603604 0.48717977341219065
4613.613613613614 0.4846140354148558
4623.623623623624 0.48206756795658307
4633.6336336336335 0.479540128178731
4643.643643643643 0.4770314749679938
4653.653653653653 0.4745413690748773
4663.663663663663 0.4720695732249752
4673.673673673674 0.46961585222325836
4683.683683683684 0.4671799730515983
4693.693693693694 0.4647617049597384
4703.703703703704 0.462360819549928
4713.713713713714 0.45997709085542926
4723.723723723724 0.45761029541310505
4733.733733733734 0.4552602123302907
4743.743743743744 0.4529266233461572
4753.753753753754 0.45060931288775585
4763.763763763764 0.4483080681209465
4773.773773773773 0.4460226789963922
4783.783783783783 0.4437529382908187
4793.793793793793 0.4414986416437083
4803.803803803804 0.4392595875896188
4813.813813813814 0.4370355775862958
4823.823823823824 0.43482641603875233
4833.833833833834 0.4326319103194824
4843.843843843844 0.43045187078497077
4853.853853853854 0.4282861107886572
4863.863863863864 0.426134446690513
4873.873873873874 0.4239966978633755
4883.883883883884 0.42187268669619227
4893.893893893894 0.41976223859431266
4903.9039039039035 0.4176651819769698
4913.913913913913 0.41558134827208393
4923.923923923924 0.4135105719085188
4933.933933933934 0.41145269030592174
4943.943943943944 0.4094075438622608
4953.953953953955 0.40737497593919136
4963.9639639639645 0.40535483284535617
4973.973973973974 0.4033469638177375
4983.983983983984 0.40135122100116705
4993.993993993994 0.39936745942610075
5004.004004004004 0.39739553698475694
5014.014014014014 0.39543531440571905
5024.024024024024 0.39348665522709514
5034.0340340340335 0.3915494257683296
5044.044044044043 0.3896234951007509
5054.054054054054 0.3877087350169444
5064.064064064064 0.385805019999032
5074.074074074074 0.38391222718593726
5084.084084084085 0.38203023633971256
5094.0940940940945 0.380158929811006
5104.104104104104 0.3782981925037326
5114.114114114114 0.37644791183902393
5124.124124124124 0.37460797771852183
5134.134134134134 0.37277828248707523
5144.144144144144 0.3709587208949068
5154.154154154154 0.3691491900593039
5164.1641641641645 0.3673495894258929
5174.174174174174 0.3655598207295499
5184.184184184184 0.36377978795499855
5194.194194194194 0.36200939729714676
5204.204204204204 0.36024855712121145
5214.214214214214 0.3584971779226702
5224.224224224225 0.3567551722870924
5234.2342342342345 0.35502245484988637
5244.244244244244 0.3532989422560014
5254.254254254254 0.3515845531196297
5264.264264264264 0.34987920798393485
5274.274274274274 0.3481828292808517
5284.284284284285 0.3464953412909826
5294.294294294295 0.3448166701036266
5304.304304304304 0.3431467435769692
5314.314314314314 0.3414854912984626
5324.324324324324 0.33983284454542095
5334.334334334334 0.3381887362458612
5344.344344344345 0.33655310093960666
5354.354354354355 0.33492587473968427
5364.3643643643645 0.33330699529402985
5374.374374374374 0.3316964017475276
5384.384384384384 0.3300940347043983
5394.394394394394 0.3284998361909595
5404.404404404404 0.32691374961876857
5414.414414414415 0.3253357197481695
5424.424424424425 0.32376569265225763
5434.4344344344345 0.3222036156812707
5444.444444444444 0.32064943742742763
5454.454454454454 0.31910310769022104
5464.464464464464 0.3175645774421742
5474.474474474475 0.31603379879507737
5484.484484484485 0.31451072496670684
5494.494494494495 0.31299531024803917
5504.504504504504 0.3114875099709669
5514.514514514514 0.30998728047652163
5524.524524524524 0.30849457908361355
5534.534534534535 0.3070093640582881
5544.544544544545 0.3055315945835098
5554.554554554555 0.30406123072947217
5564.5645645645645 0.3025982334244417
5574.574574574574 0.3011425644261361
5584.584584584584 0.2996941862936389
5594.594594594595 0.2982530623598531
5604.604604604605 0.29681915670449727
5614.614614614615 0.2953924341276367
5624.624624624625 0.2939728601237612
5634.6346346346345 0.2925604008563999
5644.644644644644 0.29115502313327585
5654.654654654654 0.2897566943820014
5664.664664664665 0.28836538262630595
5674.674674674675 0.28698105646280475
5684.684684684685 0.2856036850382934
5694.694694694695 0.2842332380275774
5704.704704704704 0.28286968561182546
5714.714714714714 0.2815129984574467
5724.724724724725 0.28016314769548833
5734.734734734735 0.27882010490154696
5744.744744744745 0.27748384207619436
5754.754754754755 0.27615433162590575
5764.764764764765 0.2748315463444945
5774.774774774774 0.27351545939504174
5784.784784784785 0.2722060442923173
5794.794794794795 0.2709032748856891
5804.804804804805 0.2696071253425124
5814.814814814815 0.2683175701319935
5824.824824824825 0.2670345840095253
5834.8348348348345 0.2657581420014825
5844.844844844845 0.26448821939047823
5854.854854854855 0.26322479170106705
5864.864864864865 0.26196783468589474
5874.874874874875 0.26071732431228606
5884.884884884885 0.2594732367492623
5894.894894894895 0.2582355483549835
5904.9049049049045 0.25700423566460906
5914.914914914915 0.25577927537856804
5924.924924924925 0.2545606443512342
5934.934934934935 0.25334831957999654
5944.944944944945 0.2521422781947209
5954.954954954955 0.25094249744759284
5964.964964964965 0.24974895470333736
5974.974974974975 0.2485616274298065
5984.984984984985 0.2473804931889283
5994.994994994995 0.2462055296280095
6005.005005005005 0.2450367144713864
6015.015015015015 0.24387402551241422
6025.025025025025 0.24271744060579098
6035.035035035035 0.24156693766020507
6045.045045045045 0.24042249463130377
6055.055055055055 0.2392840895149707
6065.065065065065 0.23815170034091032
6075.075075075075 0.23702530516652817
6085.085085085085 0.2359048820711029
6095.0950950950955 0.23479040915024135
6105.105105105105 0.23368186451061113
6115.115115115115 0.23257922626494207
6125.125125125125 0.2314824725272926
6135.135135135135 0.23039158140857247
6145.145145145145 0.2293065310123134
6155.155155155155 0.22822729943068698
6165.1651651651655 0.22715386474075613
6175.175175175175 0.2260862050009593
6185.185185185185 0.22502429824781772
6195.195195195195 0.2239681224928619
6205.205205205205 0.22291765571976876
6215.215215215215 0.22187287588170476
6225.225225225226 0.22083376089886972
6235.235235235235 0.21980028865623252
6245.245245245245 0.21877243700145704
6255.255255255255 0.2177501837430083
6265.265265265265 0.21673350664843596
6275.275275275275 0.21572238344282815
6285.285285285286 0.214716791807432
6295.295295295296 0.21371670937843248
6305.305305305305 0.21272211374588612
6315.315315315315 0.2117329824528059
6325.325325325325 0.21074929299438816
6335.335335335335 0.20977102281737972
6345.345345345346 0.2087981493195795
