#lamb flux
1000.0 3.7161714414046663e+36
1010.01001001001 4.2919820016312666e+36
1020.0200200200201 4.940613683754038e+36
1030.03003003003 5.669030173294292e+36
1040.0400400400401 6.484608863595451e+36
1050.05005005005 7.395142999802829e+36
1060.06006006006 8.408842107885015e+36
1070.07007007007 9.534330674391999e+36
1080.08008008008 1.0780645055154217e+37
1090.0900900900901 1.2157228603552434e+37
1100.1001001001 1.3673925021212527e+37
1110.11011011011 1.5340969945880075e+37
1120.1201201201202 1.716898080270647e+37
1130.13013013013 1.9168944956134247e+37
1140.1401401401401 2.1352206209923056e+37
1150.1501501501502 2.3730449712539565e+37
1160.16016016016 2.631568533408991e+37
1170.1701701701702 2.9120229589144423e+37
1180.1801801801803 3.2156686187175016e+37
1190.1901901901902 3.5437925298849793e+37
1200.2002002002002 3.8977061632112386e+37
1210.2102102102103 4.278743141679738e+37
1220.2202202202202 4.688256840051107e+37
1230.2302302302303 5.127617896164427e+37
1240.2402402402402 5.598211644770433e+37
1250.2502502502502 6.101435469981835e+37
1260.2602602602603 6.638696094908555e+37
1270.2702702702702 7.2114068278698925e+37
1280.2802802802803 7.820984927289824e+37
1290.2902902902902 8.468848737057742e+37
1300.3003003003003 9.156414886084296e+37
1310.3103103103103 9.885095486432276e+37
1320.3203203203202 1.0656295340163695e+38
1330.3303303303303 1.1471409164708447e+38
1340.3403403403404 1.2331818846181529e+38
1350.3503503503503 1.3238890729666446e+38
1360.3603603603603 1.4193972955038504e+38
1370.3703703703704 1.5198392846435146e+38
1380.3803803803803 1.625345436299262e+38
1390.3903903903904 1.7360435617962275e+38
1400.4004004004005 1.8520586472802365e+38
1410.4104104104103 1.973512621231649e+38
1420.4204204204204 2.1005241306377168e+38
1430.4304304304305 2.233208326324194e+38
1440.4404404404404 2.3716766578939103e+38
1450.4504504504505 2.516036678667404e+38
1460.4604604604606 2.6663918609688755e+38
1470.4704704704704 2.8228414220500665e+38
1480.4804804804805 2.9854801608948686e+38
1490.4904904904906 3.154398306099381e+38
1500.5005005005005 3.329681374975467e+38
1510.5105105105106 3.511410043981069e+38
1520.5205205205207 3.6996600305372486e+38
1530.5305305305305 3.894501986251118e+38
1540.5405405405404 4.096001401524624e+38
1550.5505505505505 4.304218521492039e+38
1560.5605605605606 4.519208273194612e+38
1570.5705705705705 4.741020203867714e+38
1580.5805805805805 4.969698430185891e+38
1590.5905905905906 5.20528159828254e+38
1600.6006006006005 5.447802854335294e+38
1610.6106106106106 5.6972898254841265e+38
1620.6206206206207 5.953764610827472e+38
1630.6306306306305 6.217243782222221e+38
1640.6406406406406 6.4877383945957204e+38
1650.6506506506507 6.765254005462223e+38
1660.6606606606606 7.049790703323193e+38
1670.6706706706707 7.341343144618225e+38
1680.6806806806808 7.639900598884106e+38
1690.6906906906906 7.945447001771063e+38
1700.7007007007007 8.257961016599195e+38
1710.7107107107108 8.57741610442953e+38
1720.7207207207207 8.903780590733979e+38
1730.7307307307308 9.237017749892542e+38
1740.7407407407409 9.577085892617463e+38
1750.7507507507507 9.923938458480166e+38
1760.7607607607606 1.0277524113736848e+39
1770.770770770771 1.0637786854089652e+39
1780.7807807807808 1.1004666112023477e+39
1790.7907907907907 1.1378096868363433e+39
1800.8008008008007 1.1758009767704246e+39
1810.8108108108108 1.2144331237368989e+39
1820.8208208208207 1.253698360956337e+39
1830.8308308308308 1.293588524639922e+39
1840.8408408408409 1.3340950667470707e+39
1850.8508508508507 1.3752090679677168e+39
1860.8608608608608 1.4169212508996334e+39
1870.870870870871 1.45922199339247e+39
1880.8808808808808 1.502101342031239e+39
1890.890890890891 1.5455490257334055e+39
1900.900900900901 1.5895544694349036e+39
1910.9109109109108 1.6341068078418598e+39
1920.920920920921 1.6791948992259822e+39
1930.930930930931 1.7248073392428627e+39
1940.940940940941 1.7709324747536202e+39
1950.950950950951 1.817558417631023e+39
1960.960960960961 1.8646730585319944e+39
1970.970970970971 1.9122640806183756e+39
1980.980980980981 1.96031897320754e+39
1990.9909909909911 2.0088250453332306e+39
2001.001001001001 2.0577694391951982e+39
2011.0110110110109 2.107139143473626e+39
2021.0210210210212 2.1569210064810818e+39
2031.031031031031 2.2071017491211413e+39
2041.0410410410411 2.257667977619547e+39
2051.051051051051 2.3086061959912352e+39
2061.061061061061 2.3599028182059137e+39
2071.071071071071 2.4115441800169454e+39
2081.081081081081 2.4635165504240172e+39
2091.091091091091 2.5158061427496442e+39
2101.101101101101 2.5683991253230418e+39
2111.1111111111113 2.621281631781211e+39
2121.121121121121 2.6744397710139905e+39
2131.131131131131 2.727859636795475e+39
2141.141141141141 2.7815273171551933e+39
2151.151151151151 2.8354289035471075e+39
2161.161161161161 2.8895504998710875e+39
2171.1711711711714 2.9438782313907714e+39
2181.1811811811813 2.998398253574552e+39
2191.191191191191 3.053096760866583e+39
2201.201201201201 3.107959995374512e+39
2211.2112112112113 3.162974255443967e+39
2221.221221221221 3.2181259040781946e+39
2231.2312312312315 3.2734013771561095e+39
2241.2412412412414 3.3287871914028796e+39
2251.2512512512512 3.384269952072895e+39
2261.261261261261 3.439836360313828e+39
2271.271271271271 3.495473220190817e+39
2281.2812812812813 3.5511674453599604e+39
2291.2912912912916 3.60690606538931e+39
2301.3013013013015 3.662676231732408e+39
2311.3113113113113 3.718465223364659e+39
2321.321321321321 3.774260452095827e+39
2331.331331331331 3.830049467573354e+39
2341.3413413413414 3.885819961991575e+39
2351.3513513513512 3.9415597745212485e+39
2361.3613613613616 3.997256895472772e+39
2371.3713713713714 4.052899470204965e+39
2381.3813813813813 4.108475802790183e+39
2391.391391391391 4.163974359445058e+39
2401.4014014014015 4.2193837717350827e+39
2411.4114114114113 4.274692839560201e+39
2421.4214214214217 4.329890533928097e+39
2431.4314314314315 4.3849659995208434e+39
2441.4414414414414 4.439908557060469e+39
2451.4514514514512 4.4947077054786516e+39
2461.4614614614616 4.549353123895288e+39
2471.4714714714714 4.60383467341082e+39
2481.4814814814818 4.6581423987170275e+39
2491.4914914914916 4.712266529530871e+39
2501.5015015015015 4.7661974818560694e+39
2511.5115115115113 4.8199258590770514e+39
2521.521521521521 4.873442452889866e+39
2531.5315315315315 4.92673824407481e+39
2541.541541541542 4.97980440311532e+39
2551.5515515515517 5.032632290667954e+39
2561.5615615615616 5.0852134578879597e+39
2571.5715715715714 5.1375396466152454e+39
2581.5815815815813 5.189602789425319e+39
2591.5915915915916 5.241395009549881e+39
2601.6016016016015 5.292908620671614e+39
2611.611611611612 5.3441361265977923e+39
2621.6216216216217 5.3950702208172124e+39
2631.6316316316315 5.445703785944904e+39
2641.6416416416414 5.496029893059056e+39
2651.6516516516517 5.546041800934521e+39
2661.6616616616616 5.595732955177182e+39
2671.671671671672 5.645096987263464e+39
2681.6816816816818 5.694127713489011e+39
2691.6916916916916 5.742819133830812e+39
2701.7017017017015 5.791165430726612e+39
2711.711711711712 5.839160967775609e+39
2721.7217217217217 5.886800288364311e+39
2731.731731731732 5.934078114221237e+39
2741.741741741742 5.980989343904244e+39
2751.7517517517517 6.027529051223976e+39
2761.7617617617616 6.073692483607026e+39
2771.7717717717715 6.119475060402189e+39
2781.781781781782 6.16487237113318e+39
2791.791791791792 6.20988017370103e+39
2801.801801801802 6.254494392539359e+39
2811.811811811812 6.29871111672562e+39
2821.8218218218217 6.342526598051221e+39
2831.8318318318316 6.38593724905359e+39
2841.841841841842 6.428939641012812e+39
2851.851851851852 6.471530501915777e+39
2861.861861861862 6.513706714390346e+39
2871.871871871872 6.55546531361217e+39
2881.881881881882 6.596803485186674e+39
2891.8918918918916 6.63771856300857e+39
2901.901901901902 6.678208027101277e+39
2911.911911911912 6.718269501438455e+39
2921.921921921922 6.757900751749898e+39
2931.931931931932 6.797099683313792e+39
2941.941941941942 6.835864338737514e+39
2951.9519519519517 6.8741928957287e+39
2961.961961961962 6.912083664858727e+39
2971.971971971972 6.949535087320182e+39
2981.9819819819822 6.986545732680272e+39
2991.991991991992 7.023114296631622e+39
3002.002002002002 7.059239598742335e+39
3012.012012012012 7.09492058020656e+39
3022.0220220220217 7.130156301597298e+39
3032.032032032032 7.164946839060741e+39
3042.0420420420423 7.199289582678278e+39
3052.052052052052 7.23318490769049e+39
3062.062062062062 7.266632337746967e+39
3072.072072072072 7.299631503824053e+39
3082.0820820820823 7.332182142091236e+39
3092.092092092092 7.364284091783567e+39
3102.102102102102 7.3959372930814e+39
3112.1121121121123 7.427141784998527e+39
3122.122122122122 7.45789770328013e+39
3132.132132132132 7.488205278311407e+39
3142.1421421421423 7.518064833038114e+39
3152.152152152152 7.547476780899837e+39
3162.162162162162 7.576441623777159e+39
3172.1721721721724 7.604959949953301e+39
3182.1821821821823 7.633032432091459e+39
3192.192192192192 7.660659825228213e+39
3202.202202202202 7.687842964784033e+39
3212.2122122122123 7.714582764591542e+39
3222.222222222222 7.740880214941967e+39
3232.232232232232 7.766736380650662e+39
3242.2422422422424 7.792152399142131e+39
3252.252252252252 7.817129478555033e+39
3262.262262262262 7.841668895867719e+39
3272.2722722722724 7.865771995044772e+39
3282.2822822822823 7.889440185204894e+39
3292.292292292292 7.912674938810528e+39
3302.3023023023025 7.935477789879627e+39
3312.3123123123123 7.957850332219784e+39
3322.322322322322 7.979794217685078e+39
3332.3323323323325 8.001311154455852e+39
3342.3423423423424 8.022402905341698e+39
3352.352352352352 8.043071286107713e+39
3362.3623623623625 8.063318163824428e+39
3372.3723723723724 8.083145455241295e+39
3382.3823823823823 8.10255512518404e+39
3392.3923923923926 8.121549184975928e+39
3402.4024024024025 8.140129690882998e+39
3412.4124124124123 8.158298742583327e+39
3422.4224224224226 8.176058481660406e+39
3432.4324324324325 8.19341109012058e+39
3442.4424424424424 8.210358788934668e+39
3452.4524524524522 8.226903836603505e+39
3462.4624624624626 8.243048527747764e+39
3472.4724724724724 8.258795191721568e+39
3482.4824824824823 8.274146191250168e+39
3492.4924924924926 8.28910392109145e+39
3502.5025025025025 8.303670806721233e+39
3512.5125125125123 8.317849303042215e+39
3522.5225225225226 8.331641893116485e+39
3532.5325325325325 8.34505108692147e+39
3542.5425425425424 8.358079420129153e+39
3552.5525525525527 8.370729452908502e+39
3562.5625625625626 8.38300376875081e+39
3572.5725725725724 8.394904973317919e+39
3582.5825825825827 8.40643569331304e+39
3592.5925925925926 8.41759857537413e+39
3602.6026026026025 8.428396284989428e+39
3612.612612612613 8.438831505435233e+39
3622.6226226226227 8.448906936735381e+39
3632.6326326326325 8.458625294642575e+39
3642.642642642643 8.467989309641048e+39
3652.6526526526527 8.47700172597054e+39
3662.6626626626626 8.485665300671242e+39
3672.672672672673 8.493982802649622e+39
3682.6826826826828 8.501957011764649e+39
3692.6926926926926 8.509590717934563e+39
3702.7027027027025 8.516886720263493e+39
3712.712712712713 8.523847826188094e+39
3722.7227227227227 8.530476850643743e+39
3732.7327327327325 8.536776615249992e+39
3742.742742742743 8.542749947515292e+39
3752.7527527527527 8.548399680060413e+39
3762.7627627627626 8.553728649860534e+39
3772.772772772773 8.558739697505732e+39
3782.7827827827828 8.563435666479465e+39
3792.7927927927926 8.567819402454934e+39
3802.802802802803 8.571893752609074e+39
3812.812812812813 8.575661564953826e+39
3822.8228228228227 8.579125687684418e+39
3832.832832832833 8.582288968544626e+39
3842.842842842843 8.585154254208433e+39
3852.8528528528527 8.587724389678063e+39
3862.862862862863 8.590002217698047e+39
3872.872872872873 8.591990578185128e+39
3882.8828828828828 8.593692307673538e+39
3892.892892892893 8.595110238775867e+39
3902.902902902903 8.596247199658603e+39
3912.912912912913 8.597106013532748e+39
3922.922922922923 8.597689498158794e+39
3932.932932932933 8.598000465366073e+39
3942.942942942943 8.598041720586085e+39
3952.9529529529527 8.597816062399695e+39
3962.962962962963 8.597326282097773e+39
3972.972972972973 8.596575163255258e+39
3982.982982982983 8.595565481318256e+39
3992.992992992993 8.594300003203871e+39
4003.003003003003 8.592781486912797e+39
4013.013013013013 8.591012681154175e+39
4023.023023023023 8.588996324982608e+39
4033.033033033033 8.586735147447032e+39
4043.043043043043 8.584231867251378e+39
4053.053053053053 8.581489192426554e+39
4063.063063063063 8.578509820013751e+39
4073.073073073073 8.575296435758725e+39
4083.0830830830832 8.571851713816855e+39
4093.093093093093 8.568178316468836e+39
4103.103103103103 8.564278893846657e+39
4113.113113113113 8.560156083669809e+39
4123.123123123123 8.555812510991423e+39
4133.133133133133 8.551250787954116e+39
4143.143143143143 8.546473513555389e+39
4153.153153153153 8.541483273422451e+39
4163.163163163163 8.536282639596057e+39
4173.173173173173 8.530874170323388e+39
4183.183183183183 8.525260409859668e+39
4193.193193193193 8.519443888278329e+39
4203.203203203203 8.513427121289581e+39
4213.213213213214 8.507212610067204e+39
4223.223223223224 8.500802841083298e+39
4233.2332332332335 8.494200285950917e+39
4243.243243243243 8.487407401274396e+39
4253.253253253253 8.480426628507053e+39
4263.263263263263 8.47326039381637e+39
4273.273273273273 8.465911107956185e+39
4283.283283283283 8.458381166145957e+39
4293.293293293293 8.45067294795683e+39
4303.303303303303 8.442788817204339e+39
4313.313313313313 8.434731121847648e+39
4323.323323323323 8.426502193895118e+39
4333.333333333334 8.418104349316128e+39
4343.343343343344 8.409539887958806e+39
4353.353353353354 8.400811093473843e+39
4363.3633633633635 8.391920233243918e+39
4373.373373373373 8.382869558318802e+39
4383.383383383383 8.373661303355896e+39
4393.393393393393 8.364297686566138e+39
4403.403403403403 8.354780909665097e+39
4413.413413413413 8.345113157829093e+39
4423.423423423424 8.335296599656315e+39
4433.4334334334335 8.325333387132695e+39
4443.443443443443 8.315225655602459e+39
4453.453453453454 8.304975523743281e+39
4463.463463463464 8.294585093545826e+39
4473.473473473474 8.284056450297626e+39
4483.483483483484 8.273391662571114e+39
4493.493493493494 8.262592782215821e+39
4503.503503503503 8.251661844354445e+39
4513.513513513513 8.240600867382889e+39
4523.523523523523 8.2294118529739e+39
4533.533533533533 8.218096786084523e+39
4543.543543543543 8.206657634966974e+39
4553.553553553554 8.195096351182941e+39
4563.563563563564 8.183414869621351e+39
4573.573573573573 8.171615108519209e+39
4583.583583583584 8.159698969485698e+39
4593.593593593594 8.147668337529296e+39
4603.603603603604 8.13552508108777e+39
4613.613613613614 8.123271052061204e+39
4623.623623623624 8.110908085847602e+39
4633.6336336336335 8.098438001381311e+39
4643.643643643643 8.085862601174031e+39
4653.653653653653 8.073183671358291e+39
4663.663663663663 8.060402981733407e+39
4673.673673673674 8.047522285813762e+39
4683.683683683684 8.034543320879435e+39
4693.693693693694 8.021467808028922e+39
4703.703703703704 8.00829745223411e+39
4713.713713713714 7.99503394239718e+39
4723.723723723724 7.981678951409598e+39
4733.733733733734 7.968234136212933e+39
4743.743743743744 7.954701137861587e+39
4753.753753753754 7.941081581587276e+39
4763.763763763764 7.927377076865175e+39
4773.773773773773 7.91358921748178e+39
4783.783783783783 7.89971958160434e+39
4793.793793793793 7.885769731851741e+39
4803.803803803804 7.871741215366942e+39
4813.813813813814 7.857635563890773e+39
4823.823823823824 7.843454293837079e+39
4833.833833833834 7.82919890636913e+39
4843.843843843844 7.814870887477342e+39
4853.853853853854 7.80047170805809e+39
4863.863863863864 7.786002823993695e+39
4873.873873873874 7.771465676233529e+39
4883.883883883884 7.756861690876035e+39
4893.893893893894 7.742192279251854e+39
4903.9039039039035 7.727458838007812e+39
4913.913913913913 7.712662749191809e+39
4923.923923923924 7.697805380338561e+39
4933.933933933934 7.682888084556123e+39
4943.943943943944 7.667912200613188e+39
4953.953953953955 7.652879053027071e+39
4963.9639639639645 7.63778995215241e+39
4973.973973973974 7.622646194270442e+39
4983.983983983984 7.607449061678935e+39
4993.993993993994 7.592199822782624e+39
5004.004004004004 7.576899732184193e+39
5014.014014014014 7.561550030775752e+39
5024.024024024024 7.546151945830723e+39
5034.0340340340335 7.530706691096194e+39
5044.044044044043 7.5152154668856e+39
5054.054054054054 7.4996794601718e+39
5064.064064064064 7.484099844680455e+39
5074.074074074074 7.468477780983692e+39
5084.084084084085 7.452814416593993e+39
5094.0940940940945 7.43711088605841e+39
5104.104104104104 7.421368311052868e+39
5114.114114114114 7.405587800476711e+39
5124.124124124124 7.389770450547386e+39
5134.134134134134 7.373917344895225e+39
5144.144144144144 7.358029554658335e+39
5154.154154154154 7.342108138577601e+39
5164.1641641641645 7.326154143091646e+39
5174.174174174174 7.31016860243192e+39
5184.184184184184 7.294152538717719e+39
5194.194194194194 7.278106962051202e+39
5204.204204204204 7.262032870612408e+39
5214.214214214214 7.245931250754155e+39
5224.224224224225 7.229803077096885e+39
5234.2342342342345 7.213649312623452e+39
5244.244244244244 7.197470908773693e+39
5254.254254254254 7.18126880553898e+39
5264.264264264264 7.165043931556513e+39
5274.274274274274 7.148797204203537e+39
5284.284284284285 7.132529529691303e+39
5294.294294294295 7.116241803158858e+39
5304.304304304304 7.099934908766621e+39
5314.314314314314 7.083609719789723e+39
5324.324324324324 7.067267098711062e+39
5334.334334334334 7.050907897314198e+39
5344.344344344345 7.03453295677585e+39
5354.354354354355 7.018143107758196e+39
5364.3643643643645 7.001739170500833e+39
5374.374374374374 6.98532195491246e+39
5384.384384384384 6.968892260662189e+39
5394.394394394394 6.952450877270573e+39
5404.404404404404 6.935998584200248e+39
5414.414414414415 6.919536150946254e+39
5424.424424424425 6.903064337125981e+39
5434.4344344344345 6.886583892568717e+39
5444.444444444444 6.870095557404851e+39
5454.454454454454 6.853600062154656e+39
5464.464464464464 6.837098127816682e+39
5474.474474474475 6.820590465955748e+39
5484.484484484485 6.804077778790492e+39
5494.494494494495 6.787560759280521e+39
5504.504504504504 6.771040091213135e+39
5514.514514514514 6.754516449289565e+39
5524.524524524524 6.737990499210837e+39
5534.534534534535 6.721462897763121e+39
5544.544544544545 6.704934292902684e+39
5554.554554554555 6.688405323840301e+39
5564.5645645645645 6.671876621125279e+39
5574.574574574574 6.655348806728965e+39
5584.584584584584 6.638822494127782e+39
5594.594594594595 6.622298288385771e+39
5604.604604604605 6.605776786236687e+39
5614.614614614615 6.589258576165548e+39
5624.624624624625 6.572744238489737e+39
5634.6346346346345 6.556234345439576e+39
5644.644644644644 6.539729461238403e+39
5654.654654654654 6.523230142182172e+39
5664.664664664665 6.506736936718477e+39
5674.674674674675 6.490250385525153e+39
5684.684684684685 6.473771021588299e+39
5694.694694694695 6.457299370279799e+39
5704.704704704704 6.440835949434341e+39
5714.714714714714 6.424381269425903e+39
5724.724724724725 6.407935833243723e+39
5734.734734734735 6.391500136567726e+39
5744.744744744745 6.375074667843468e+39
5754.754754754755 6.358659908356495e+39
5764.764764764765 6.342256332306232e+39
5774.774774774774 6.325864406879305e+39
5784.784784784785 6.30948459232235e+39
5794.794794794795 6.293117342014271e+39
5804.804804804805 6.27676310253802e+39
5814.814814814815 6.260422313751759e+39
5824.824824824825 6.244095408859593e+39
5834.8348348348345 6.227782814481661e+39
5844.844844844845 6.211484950723815e+39
5854.854854854855 6.195202231246654e+39
5864.864864864865 6.178935063334102e+39
5874.874874874875 6.162683847961421e+39
5884.884884884885 6.146448979862714e+39
5894.894894894895 6.130230847597866e+39
5904.9049049049045 6.11402983361899e+39
5914.914914914915 6.097846314336335e+39
5924.924924924925 6.081680660183645e+39
5934.934934934935 6.065533235683e+39
