#lamb flux
1000.0 0.004929165481981132
1010.01001001001 0.005484282275406268
1020.0200200200201 0.006058475170756348
1030.03003003003 0.006648924995938944
1040.0400400400401 0.00725291183845142
1050.05005005005 0.007867865274143952
1060.06006006006 0.008491403343589872
1070.07007007007 0.009121360909837478
1080.08008008008 0.009755808366292898
1090.0900900900901 0.010393061867118863
1100.1001001001 0.011031686347660021
1110.11011011011 0.01167049261266343
1120.1201201201202 0.012308529717805997
1130.13013013013 0.012945073775061875
1140.1401401401401 0.01357961419134837
1150.1501501501502 0.014211838215952921
1160.16016016016 0.014841614535562288
1170.1701701701702 0.015468976523556856
1180.1801801801803 0.016094105627477786
1190.1901901901902 0.016717315268160046
1200.2002002002002 0.017339035527401788
1210.2102102102103 0.017959798818538788
1220.2202202202202 0.018580226665475222
1230.2302302302303 0.01920101765962813
1240.2402402402402 0.019822936619625982
1250.2502502502502 0.020443717482481746
1260.2602602602603 0.021054504421156122
1270.2702702702702 0.021637721557018874
1280.2802802802803 0.022192665980004578
1290.2902902902902 0.02271883234069412
1300.3003003003003 0.023215897438031072
1310.3103103103103 0.02368370454287554
1320.3203203203202 0.0241222477285978
1330.3303303303303 0.024531656433936323
1340.3403403403404 0.024912180441031537
1350.3503503503503 0.025264175413247946
1360.3603603603603 0.02558808910325339
1370.3703703703704 0.02588444831182119
1380.3803803803803 0.026153846651831725
1390.3903903903904 0.02639693314975839
1400.4004004004005 0.026614401698257767
1410.4104104104103 0.026806981358045236
1420.4204204204204 0.026975427494700846
1430.4304304304305 0.02712051372609488
1440.4404404404404 0.027243024648436812
1450.4504504504505 0.027343749303228068
1460.4604604604606 0.027423475343367757
1470.4704704704704 0.02748298385405531
1480.4804804804805 0.027523044782732427
1490.4904904904906 0.027544412931892515
1500.5005005005005 0.02754782446898556
1510.5105105105106 0.027533993908698578
1520.5205205205207 0.027503611524459754
1530.5305305305305 0.027457341147989603
1540.5405405405404 0.027395818318006044
1550.5505505505505 0.027319648741708523
1560.5605605605606 0.02722940703535828
1570.5705705705705 0.027125635713095224
1580.5805805805805 0.02700884439605034
1590.5905905905906 0.02687950921681289
1600.6006006006005 0.02673807239738243
1610.6106106106106 0.026584941981881587
1620.6206206206207 0.026420491708537858
1630.6306306306305 0.02624506100878636
1640.6406406406406 0.026058955124827775
1650.6506506506507 0.02586244534063915
1660.6606606606606 0.025655769325325654
1670.6706706706707 0.02543913159187423
1680.6806806806808 0.025212704078887004
1690.6906906906906 0.02497662686780261
1700.7007007007007 0.024731201937812346
1710.7107107107108 0.024477275851762396
1720.7207207207207 0.024214796826776654
1730.7307307307308 0.02394359267146857
1740.7407407407409 0.023663481642246145
1750.7507507507507 0.023374274003297186
1760.7607607607606 0.023075774018726604
1770.770770770771 0.022767782453995904
1780.7807807807808 0.022450099673637924
1790.7907907907907 0.02212252943213446
1800.8008008008007 0.021784883464342063
1810.8108108108108 0.021436986990189727
1820.8208208208207 0.0210786852545251
1830.8308308308308 0.020709851225564204
1840.8408408408409 0.020330394572583135
1850.8508508508507 0.019940272032974077
1860.8608608608608 0.019539499257721422
1870.870870870871 0.01912816418936957
1880.8808808808808 0.01870644197382528
1890.890890890891 0.018274611332798722
1900.900900900901 0.017833072223399884
1910.9109109109108 0.017382364482163022
1920.920920920921 0.016923186990994325
1930.930930930931 0.01645641671346373
1940.940940940941 0.015983126737040304
1950.950950950951 0.015504602231785599
1960.960960960961 0.015022353017648475
1970.970970970971 0.014538121248287617
1980.980980980981 0.0140538826050362
1990.9909909909911 0.013571839392161071
2001.001001001001 0.01309440407739633
2011.0110110110109 0.012624172167050132
2021.0210210210212 0.012163883863377644
2031.031031031031 0.011716374715759299
2041.0410410410411 0.011284516400646144
2051.051051051051 0.01087114975944814
2061.061061061061 0.010479013161510335
2071.071071071071 0.01011066999236589
2081.081081081081 0.009768439453095669
2091.091091091091 0.009454334792743734
2101.101101101101 0.009170012551870475
2111.1111111111113 0.00891673543034773
2121.121121121121 0.008695350150266602
2131.131131131131 0.008506280365754208
2141.141141141141 0.00834953348661957
2151.151151151151 0.00822471940372493
2161.161161161161 0.008131078624662887
2171.1711711711714 0.008067517249583427
2181.1811811811813 0.00803264645806629
2191.191191191191 0.008024824608189719
2201.201201201201 0.00804220052841027
2211.2112112112113 0.008082756997882
2221.221221221221 0.008144353695813454
2231.2312312312315 0.00822476904223578
2241.2412412412414 0.008321740380097255
2251.2512512512512 0.008433001914298324
2261.261261261261 0.008556319783043925
2271.271271271271 0.008689523634668374
2281.2812812812813 0.008830534142641917
2291.2912912912916 0.00897738601543367
2301.3013013013015 0.009128246232250498
2311.3113113113113 0.009281427436802943
2321.321321321321 0.009435396623272441
2331.331331331331 0.009588779429032199
2341.3413413413414 0.009740360491571624
2351.3513513513512 0.009889080424402957
2361.3613613613616 0.010034030017481496
2371.3713713713714 0.01017444227622751
2381.3813813813813 0.010309682887345836
2391.391391391391 0.01043923964850261
2401.4014014014015 0.010562711331719044
2411.4114114114113 0.010679796375227403
2421.4214214214217 0.010790281722093505
2431.4314314314315 0.010894032051000242
2441.4414414414414 0.010990979578428808
2451.4514514514512 0.011081114553883942
2461.4614614614616 0.011164476521494087
2471.4714714714714 0.011241146382183436
2481.4814814814818 0.011311239260027696
2491.4914914914916 0.011374898153426141
2501.5015015015015 0.011432288335261581
2511.5115115115113 0.011483592455166189
2521.521521521521 0.011529006290310529
2531.5315315315315 0.011568735087834504
2541.541541541542 0.011602990441316048
2551.5515515515517 0.011631987644832323
2561.5615615615616 0.011655943470641288
2571.5715715715714 0.011675074319845958
2581.5815815815813 0.011689594699247735
2591.5915915915916 0.011699715981682244
2601.6016016016015 0.011705645411264787
2611.611611611612 0.011707585319013995
2621.6216216216217 0.01170573251817545
2631.6316316316315 0.011700277852173497
2641.6416416416414 0.011691405871443837
2651.6516516516517 0.011679294618427465
2661.6616616616616 0.011664115502737792
2671.671671671672 0.011646033250954785
2681.6816816816818 0.011625205917669119
2691.6916916916916 0.011601784946313148
2701.7017017017015 0.011575915269995836
2711.711711711712 0.011547735444026758
2721.7217217217217 0.011517377803091101
2731.731731731732 0.01148496863714411
2741.741741741742 0.011450628381049075
2751.7517517517517 0.011414471813804901
2761.7617617617616 0.011376608263915136
2771.7717717717715 0.011337141818052968
2781.781781781782 0.01129617153069177
2791.791791791792 0.01125379163280784
2801.801801801802 0.01121009173813248
2811.811811811812 0.011165157045744223
2821.8218218218217 0.011119068538055466
2831.8318318318316 0.011071903173469058
2841.841841841842 0.011023734073165906
2851.851851851852 0.010974630701638016
2861.861861861862 0.010924659040709526
2871.871871871872 0.010873881756893014
2881.881881881882 0.01082235836201469
2891.8918918918916 0.01077014536711168
2901.901901901902 0.010717296429661067
2911.911911911912 0.010663862494244952
2921.921921921922 0.010609891926791066
2931.931931931932 0.010555430642555394
2941.941941941942 0.010500522228033578
2951.9519519519517 0.010445208057002602
2961.961961961962 0.010389527400904387
2971.971971971972 0.01033351753378894
2981.9819819819822 0.010277213832038227
2991.991991991992 0.010220649869092007
3002.002002002002 0.010163857505395961
3012.012012012012 0.010106866973788963
3022.0220220220217 0.010049706960542156
3032.032032032032 0.010070256379245086
3042.0420420420423 0.010002930349687194
3052.052052052052 0.009932823072457839
3062.062062062062 0.009860721135588352
3072.072072072072 0.009787302786459316
3082.0820820820823 0.009713148459443186
3092.092092092092 0.00963875080950075
3102.102102102102 0.009564524146903172
3112.1121121121123 0.009490813212023061
3122.122122122122 0.009417901262487288
3132.132132132132 0.0093460174698057
3142.1421421421423 0.009275343640541247
3152.152152152152 0.00920602028958178
3162.162162162162 0.009138152101306963
3172.1721721721724 0.00907181281939272
3182.1821821821823 0.009007049608468844
3192.192192192192 0.008943886931483814
3202.202202202202 0.008882329985949858
3212.2122122122123 0.008822367740641058
3222.222222222222 0.00876397561211034
3232.232232232232 0.008707117817814872
3242.2422422422424 0.008651749439870508
3252.252252252252 0.008597818230626612
3262.262262262262 0.008545266188456557
3272.2722722722724 0.008494030929461127
3282.2822822822823 0.008444046878225303
3292.292292292292 0.008395246298380414
3302.3023023023025 0.00834756018151614
3312.3123123123123 0.008300919010966213
3322.322322322322 0.00825525341515604
3332.3323323323325 0.008210494723541987
3342.3423423423424 0.008166575436684509
3352.352352352352 0.008123429620666011
3362.3623623623625 0.008080993234880235
3372.3723723723724 0.008039204401168848
3382.3823823823823 0.00799800362135011
3392.3923923923926 0.007957333949364731
3402.4024024024025 0.007917141123539749
3412.4124124124123 0.007877373663835828
3422.4224224224226 0.00783798293838434
3432.4324324324325 0.007798923203130234
3442.4424424424424 0.007760151617966436
3452.4524524524522 0.007721628242367759
3462.4624624624626 0.0076833160132013766
3472.4724724724724 0.007645180707099581
3482.4824824824823 0.00760719088952466
3492.4924924924926 0.007569317852430667
3502.5025025025025 0.007531535542227308
3512.5125125125123 0.007493820479575805
3522.5225225225226 0.007456151672389968
3532.5325325325325 0.00741851052327683
3542.5425425425424 0.007380880732527177
3552.5525525525527 0.007343248197654706
3562.5625625625626 0.007305600910382677
3572.5725725725724 0.007267928851886113
3582.5825825825827 0.007230223887015852
3592.5925925925926 0.007192479658155649
3602.6026026026025 0.007154691479295549
3612.612612612613 0.007116856230841964
3622.6226226226227 0.007078972255627401
3632.6326326326325 0.007041039256529774
3642.642642642643 0.007003058196062129
3652.6526526526527 0.006965031198248524
3662.6626626626626 0.006926961453059451
3672.672672672673 0.006888853123641772
3682.6826826826828 0.006850711256541749
3692.6926926926926 0.0068125416950865466
3702.7027027027025 0.006774350996058639
3712.712712712713 0.006736146349769141
3722.7227227227227 0.006697935503609678
3732.7327327327325 0.00665972668913819
3742.742742742743 0.00662152855273206
3752.7527527527527 0.006583350089821515
3762.7627627627626 0.006545200582697788
3772.772772772773 0.0065070895418740116
3782.7827827827828 0.006469026650961536
3792.7927927927926 0.006431021715010968
3802.802802802803 0.006393084612255306
3812.812812812813 0.006355225249181831
3822.8228228228227 0.00631745351885031
3832.832832832833 0.0062797792623670926
3842.842842842843 0.00624221223341782
3852.8528528528527 0.006204762065755914
3862.862862862863 0.006167438243539363
3872.872872872873 0.006130250074404706
3882.8828828828828 0.006093206665164242
3892.892892892893 0.0060563169000109095
3902.902902902903 0.00601958942111365
3912.912912912913 0.005983032611486099
3922.922922922923 0.005946654580011256
3932.932932932933 0.005910463148505814
3942.942942942943 0.005874465840708804
3952.9529529529527 0.005838669873081232
3962.962962962963 0.005803082147305275
3972.972972972973 0.005767709244374148
3982.982982982983 0.005732557420166553
3992.992992992993 0.005697632602402581
4003.003003003003 0.00566294038888133
4013.013013013013 0.00562848604690368
4023.023023023023 0.005594274513787472
4033.033033033033 0.0055603103983859
4043.043043043043 0.005526597983523653
4053.053053053053 0.005493141229269187
4063.063063063063 0.005459943776965329
4073.073073073073 0.005427008953944209
4083.0830830830832 0.0053943397788563
4093.093093093093 0.005361938967547242
4103.103103103103 0.0053298089394195666
4113.113113113113 0.00529795182422046
4123.123123123123 0.005266369469199828
4133.133133133133 0.0052350634465867995
4143.143143143143 0.005204035061335925
4153.153153153153 0.00517328535909764
4163.163163163163 0.0051428151343708
4173.173173173173 0.005112624938798003
4183.183183183183 0.005082715089567469
4193.193193193193 0.0050530856778878645
4203.203203203203 0.005023736577505329
4213.213213213214 0.004994667453234342
4223.223223223224 0.004965877769476537
4233.2332332332335 0.004937366798703885
4243.243243243243 0.004909133629884862
4253.253253253253 0.00488117717683415
4263.263263263263 0.004853496186468549
4273.273273273273 0.004826089246953366
4283.283283283283 0.004798954795725472
4293.293293293293 0.004772091127380696
4303.303303303303 0.004745496401414714
4313.313313313313 0.004719168649808057
4323.323323323323 0.0046931057844471135
4333.333333333334 0.004667305604374221
4343.343343343344 0.0046417658028610346
4353.353353353354 0.00461648397430045
4363.3633633633635 0.004591457620913238
4373.373373373373 0.004566684159266469
4383.383383383383 0.0045421609266016304
4393.393393393393 0.004517885186970991
4403.403403403403 0.004493854137181533
4413.413413413413 0.004470064912546296
4423.423423423424 0.004446514592443632
4433.4334334334335 0.004423200205685231
4443.443443443443 0.004400118735694361
4453.453453453454 0.004377267125496068
4463.463463463464 0.00435464228252154
4473.473473473474 0.0043322410832289555
4483.483483483484 0.004310060377543751
4493.493493493494 0.004288096993121087
4503.503503503503 0.004266347739433855
4513.513513513513 0.004244809411689504
4523.523523523523 0.004223478794579221
4533.533533533533 0.00420235266586319
4543.543543543543 0.004181427799795554
4553.553553553554 0.004160700970393035
4563.563563563564 0.004140168954551037
4573.573573573573 0.004119828535011223
4583.583583583584 0.004099676503184491
4593.593593593594 0.004079709661833388
4603.603603603604 0.004059924827617911
4613.613613613614 0.004040318833508713
4623.623623623624 0.00402088853107161
4633.6336336336335 0.004001630792627414
4643.643643643643 0.003982542513290884
4653.653653653653 0.003963620612892692
4663.663663663663 0.003944862037788206
4673.673673673674 0.00392626376255677
4683.683683683684 0.003907822791595225
4693.693693693694 0.0038895361606092176
4703.703703703704 0.00387140093800585
4713.713713713714 0.0038534142261911577
4723.723723723724 0.0038355731627757743
4733.733733733734 0.003817874921692082
4743.743743743744 0.0038003167142261493
4753.753753753754 0.0037828957899675043
4763.763763763764 0.003765609437679943
4773.773773773773 0.003748454986096213
4783.783783783783 0.0037314298046396688
4793.793793793793 0.0037145313040755717
4803.803803803804 0.003697756937094878
4813.813813813814 0.0036811041988331753
4823.823823823824 0.0036645706273273734
4833.833833833834 0.0036481538039126364
4843.843843843844 0.0036318513535620735
4853.853853853854 0.003615660945171486
4863.863863863864 0.0035995802917915495
4873.873873873874 0.0035836071508095917
4883.883883883884 0.0035677393240832007
4893.893893893894 0.003551974658027694
4903.9039039039035 0.003536311043659527
4913.913913913913 0.0035207464165975732
4923.923923923924 0.003505278757024201
4933.933933933934 0.003489906089607988
4943.943943943944 0.0034746264833898214
4953.953953953955 0.0034594380516341653
4963.9639639639645 0.003444338951647125
4973.973973973974 0.0034293273845629204
4983.983983983984 0.0034144015951003653
4993.993993993994 0.003399559871290824
5004.004004004004 0.003384800544179135
5014.014014014014 0.003370121987498902
5024.024024024024 0.003355522617323522
5034.0340340340335 0.0033410008916942824
5044.044044044043 0.0033265553102267936
5054.054054054054 0.003312184413696991
5064.064064064064 0.0032978867836079245
5074.074074074074 0.0032836610417384783
5084.084084084085 0.0032695058496751187
5094.0940940940945 0.0032554199083278034
5104.104104104104 0.0032414019574310404
5114.114114114114 0.003227450775031148
5124.124124124124 0.003213565176960677
5134.134134134134 0.0031997440163009402
5144.144144144144 0.00318598618283356
5154.154154154154 0.0031722906024819336
5164.1641641641645 0.0031586562367434384
5174.174174174174 0.0031450820821132363
5184.184184184184 0.00313156716950044
5194.194194194194 0.00311811056363743
5204.204204204204 0.0031047113624830774
5214.214214214214 0.0030913686966205487
5224.224224224225 0.0030780817286504194
5234.2342342342345 0.003064849652579761
5244.244244244244 0.00305167169320782
5254.254254254254 0.003038547105508958
5264.264264264264 0.003025475174013385
5274.274274274274 0.0030124552121863464
5284.284284284285 0.0029994865618062326
5294.294294294295 0.002986568592342229
5304.304304304304 0.0029737007003319453
5314.314314314314 0.0029608823087595992
5324.324324324324 0.0029481128664351534
5334.334334334334 0.002935391847374931
5344.344344344345 0.002922718750184098
5354.354354354355 0.0029100930974414827
5364.3643643643645 0.002897514435087086
5374.374374374374 0.0028849823318127243
5384.384384384384 0.00287249637845613
5394.394394394394 0.0028600561873988956
5404.404404404404 0.00284766139196859
5414.414414414415 0.002835311645845375
5424.424424424425 0.002823006622473427
5434.4344344344345 0.002810746014477453
5444.444444444444 0.0027985295330846074
5454.454454454454 0.002786356907552041
5464.464464464464 0.0027742278846003567
5474.474474474475 0.002762142227853208
5484.484484484485 0.0027500997172832577
5494.494494494495 0.0027381001486647097
5504.504504504504 0.0027261433330326404
5514.514514514514 0.0027142290961492703
5524.524524524524 0.002702357277977395
5534.534534534535 0.00269052773216112
5544.544544544545 0.002678740325514055
5554.554554554555 0.0026669949375151044
5564.5645645645645 0.002655291459811998
5574.574574574574 0.002643629795732675
5584.584584584584 0.0026320098598046236
5594.594594594595 0.002620431577282281
5604.604604604605 0.0026088948836826137
5614.614614614615 0.002597399724328889
5624.624624624625 0.0025859460539027824
5634.6346346346345 0.002574533836004847
5644.644644644644 0.00256316304272339
5654.654654654654 0.002551833654211832
5664.664664664665 0.0025405456582745503
5674.674674674675 0.0025292990499612786
5684.684684684685 0.0025180938311700272
5694.694694694695 0.0025069300102585935
5704.704704704704 0.0024958076016646335
5714.714714714714 0.0024847266255342967
5724.724724724725 0.0024736871073594395
5734.734734734735 0.0024626890776233753
5744.744744744745 0.0024517325714551496
5754.754754754755 0.0024408176282923197
5764.764764764765 0.0024299442915522067
5774.774774774774 0.0024191126083115667
5784.784784784785 0.0024083226289946524
5794.794794794795 0.0023975744070696093
5804.804804804805 0.0023868679987531552
5814.814814814815 0.0023762034627234792
5824.824824824825 0.002365580859841306
5834.8348348348345 0.0023550002528790405
5844.844844844845 0.002344461706257951
5854.854854854855 0.0023339652857932744
5864.864864864865 0.0023235110584472005
5874.874874874875 0.002313099092089631
5884.884884884885 0.0023027294552666355
5894.894894894895 0.0022924022169765034
5904.9049049049045 0.0022821174464533207
5914.914914914915 0.0022718752129579516
5924.924924924925 0.0022616755855763464
5934.934934934935 0.0022515186330250496
5944.944944944945 0.0022414044234638523
5954.954954954955 0.0022313330243154176
5964.964964964965 0.002221304502091836
5974.974974974975 0.002211318922227959
5984.984984984985 0.0022013763489214214
5994.994994994995 0.0021914768449792367
6005.005005005005 0.002181620471670835
6015.015015015015 0.002171807288587469
6025.025025025025 0.002162037353507826
6035.035035035035 0.0021523107222697615
6045.045045045045 0.0021426274486480304
6055.055055055055 0.0021329875842378827
6065.065065065065 0.002123391178344431
