#lamb flux
1000.0 0.047214617058803324
1010.01001001001 0.050413545053126584
1020.0200200200201 0.05372422421213021
1030.03003003003 0.057144975853365275
1040.0400400400401 0.06067392610868935
1050.05005005005 0.06430901730198468
1060.06006006006 0.06804801943158796
1070.07007007007 0.07188854168906951
1080.08008008008 0.07582804395272111
1090.0900900900901 0.07986384820048228
1100.1001001001 0.08399314979310156
1110.11011011011 0.08821302858401807
1120.1201201201202 0.09252045981780292
1130.13013013013 0.0969123247839842
1140.1401401401401 0.1013854211977209
1150.1501501501502 0.10593647328308003
1160.16016016016 0.11056214153863304
1170.1701701701702 0.11525903216872362
1180.1801801801803 0.1200237061670833
1190.1901901901902 0.12485268804250832
1200.2002002002002 0.1297424741790643
1210.2102102102103 0.13468954082577328
1220.2202202202202 0.13969035171298824
1230.2302302302303 0.14474136529466597
1240.2402402402402 0.1498390416175462
1250.2502502502502 0.1549789326075019
1260.2602602602603 0.1601546173954744
1270.2702702702702 0.16535703295345683
1280.2802802802803 0.17058209072103883
1290.2902902902902 0.17582575105882883
1300.3003003003003 0.18108402934254775
1310.3103103103103 0.1863530015641458
1320.3203203203202 0.19162880945239416
1330.3303303303303 0.19690766512645813
1340.3403403403404 0.20218585529679015
1350.3503503503503 0.20745974502835826
1360.3603603603603 0.21272578108172968
1370.3703703703704 0.21798049484788345
1380.3803803803803 0.2232205048928546
1390.3903903903904 0.22844251912841373
1400.4004004004005 0.23364333662496217
1410.4104104104103 0.2388198490827409
1420.4204204204204 0.24396904197722177
1430.4304304304305 0.24908799539429424
1440.4404404404404 0.25417388457049783
1450.4504504504505 0.2592239801531464
1460.4604604604606 0.26423564819471523
1470.4704704704704 0.2692063498953507
1480.4804804804805 0.2741336411068046
1490.4904904904906 0.27901517161049727
1500.5005005005005 0.2838486841817948
1510.5105105105106 0.2886320134519398
1520.5205205205207 0.293363084578403
1530.5305305305305 0.29803991173375377
1540.5405405405404 0.3026605964224613
1550.5505505505505 0.3072233256343519
1560.5605605605606 0.3117263698427727
1570.5705705705705 0.31616808085486303
1580.5805805805805 0.3205468895206908
1590.5905905905906 0.3248613033074295
1600.6006006006005 0.32910990374420546
1610.6106106106106 0.3332913437427984
1620.6206206206207 0.33740434479899134
1630.6306306306305 0.34144769407914854
1640.6406406406406 0.3454202413965076
1650.6506506506507 0.34932089608180833
1660.6606606606606 0.3531486237532808
1670.6706706706707 0.35690244299172674
1680.6806806806808 0.3605814219275878
1690.6906906906906 0.36418467474855354
1700.7007007007007 0.36771147041116947
1710.7107107107108 0.3711614667396603
1720.7207207207207 0.374533867119193
1730.7307307307308 0.377827846012957
1740.7407407407409 0.38104260803969975
1750.7507507507507 0.38417738449729255
1760.7607607607606 0.38723142997993154
1770.770770770771 0.39020401915358605
1780.7807807807808 0.3930944437711763
1790.7907907907907 0.3959020100296429
1800.8008008008007 0.39862603639614186
1810.8108108108108 0.4012658520607388
1820.8208208208207 0.40382079620879535
1830.8308308308308 0.4062902183482516
1840.8408408408409 0.4086734799755472
1850.8508508508507 0.41096995791892005
1860.8608608608608 0.4131790497586119
1870.870870870871 0.4153001817885475
1880.8808808808808 0.4173328200503781
1890.890890890891 0.41927648503370923
1900.900900900901 0.42113077068858645
1910.9109109109108 0.4228953684275283
1920.920920920921 0.424570096790346
1930.930930930931 0.4261549373870014
1940.940940940941 0.42765007759862766
1950.950950950951 0.42905596027718934
1960.960960960961 0.43037334031036445
1970.970970970971 0.43160334738114836
1980.980980980981 0.4327475535289718
1990.9909909909911 0.4338080432028417
2001.001001001001 0.4347874824046743
2011.0110110110109 0.4356891823076647
2021.0210210210212 0.4365171515054062
2031.031031031031 0.4372761299655574
2041.0410410410411 0.4379715970474932
2051.051051051051 0.4386097458584254
2061.061061061061 0.4391974170348868
2071.071071071071 0.4397419869640886
2081.081081081081 0.44025120859784994
2091.091091091091 0.44073300725986964
2101.101101101101 0.44119523885520695
2111.1111111111113 0.4416454230543492
2121.121121121121 0.4420904685459684
2131.131131131131 0.44253641047817
2141.141141141141 0.4429881810133055
2151.151151151151 0.4434494321051917
2161.161161161161 0.4439224252310751
2171.1711711711714 0.44440799643028334
2181.1811811811813 0.4449055975724523
2191.191191191191 0.4454134074502607
2201.201201201201 0.44592850015490504
2211.2112112112113 0.44644705404916346
2221.221221221221 0.4469645828772953
2231.2312312312315 0.4474761710686662
2241.2412412412414 0.44797669766462617
2251.2512512512512 0.44846103687530486
2261.261261261261 0.4489242273564257
2271.271271271271 0.4493616062753986
2281.2812812812813 0.44976890766948274
2291.2912912912916 0.450142327239848
2301.3013013013015 0.450478557502831
2311.3113113113113 0.45077479819381033
2321.321321321321 0.4510287471296525
2331.331331331331 0.45123857655511534
2341.3413413413414 0.45140289949742185
2351.3513513513512 0.4515207299784994
2361.3613613613616 0.4515914402001075
2371.3713713713714 0.45161471710294787
2381.3813813813813 0.45159052005609684
2391.391391391391 0.4515190408828571
2401.4014014014015 0.4514006669810387
2411.4114114114113 0.45123594794600635
2421.4214214214217 0.451025565843184
2431.4314314314315 0.4507703090897307
2441.4414414414414 0.4504710497787346
2451.4514514514512 0.450128724200276
2461.4614614614616 0.4497443162704779
2471.4714714714714 0.4493188435623951
2481.4814814814818 0.4488533456334802
2491.4914914914916 0.4483488743572302
2501.5015015015015 0.4478064859869041
2511.5115115115113 0.4472272347034576
2521.521521521521 0.4466121674257144
2531.5315315315315 0.4459623196866114
2541.541541541542 0.44527871240410044
2551.5515515515517 0.4445623493982504
2561.5615615615616 0.4438142155270301
2571.5715715715714 0.4430352753319516
2581.5815815815813 0.44222647210127064
2591.5915915915916 0.4413887272728833
2601.6016016016015 0.44052294011155363
2611.611611611612 0.43962998760584165
2621.6216216216217 0.4387107245393046
2631.6316316316315 0.4377659836983108
2641.6416416416414 0.4367965761854308
2651.6516516516517 0.4358032918129076
2661.6616616616616 0.4347868995553704
2671.671671671672 0.43374814804485207
2681.6816816816818 0.4326877660944157
2691.6916916916916 0.4316064632393898
2701.7017017017015 0.43050493028744025
2711.711711711712 0.42938383987055107
2721.7217217217217 0.42824384699350065
2731.731731731732 0.4270855895746528
2741.741741741742 0.4259096889759119
2751.7517517517517 0.4247167505194952
2761.7617617617616 0.4235073639898591
2771.7717717717715 0.4222821041196429
2781.781781781782 0.4210415310589269
2791.791791791792 0.41978619082744567
2801.801801801802 0.41851661574965526
2811.811811811812 0.41723332487277837
2821.8218218218217 0.4159368243680931
2831.8318318318316 0.4146276079158694
2841.841841841842 0.41330615707442914
2851.851851851852 0.4119729416338876
2861.861861861862 0.41062841995515376
2871.871871871872 0.40927303929481135
2881.881881881882 0.40790723611650503
2891.8918918918916 0.4065314363894616
2901.901901901902 0.4051460558747657
2911.911911911912 0.40375150040000446
2921.921921921922 0.402348166122871
2931.931931931932 0.4009364397843075
2941.941941941942 0.39951669895172914
2951.9519519519517 0.39808931225286864
2961.961961961962 0.3966546396007359
2971.971971971972 0.3952130324101759
2981.9819819819822 0.39376483380647753
2991.991991991992 0.39231037882646014
3002.002002002002 0.3908499946124477
3012.012012012012 0.3893840005995033
3022.0220220220217 0.38791270869629507
3032.032032032032 0.3865538507515061
3042.0420420420423 0.3850581698817236
3052.052052052052 0.3835539498035069
3062.062062062062 0.3820425921043979
3072.072072072072 0.38052534113501285
3082.0820820820823 0.37900329940547317
3092.092092092092 0.37747744168101866
3102.102102102102 0.3759486278706128
3112.1121121121123 0.37441761479745805
3122.122122122122 0.37288506693537604
3132.132132132132 0.3713515661900399
3142.1421421421423 0.369817620799178
3152.152152152152 0.368283673421093
3162.162162162162 0.3667501084762477
3172.1721721721724 0.3652172588022388
3182.1821821821823 0.3636854116782684
3192.192192192192 0.3621548142712033
3202.202202202202 0.3606256785515292
3212.2122122122123 0.35909818572392865
3222.222222222222 0.3575724902138401
3232.232232232232 0.35604872324822795
3242.2422422422424 0.35452699606582627
3252.252252252252 0.35300740278938836
3262.262262262262 0.35149002298990306
3272.2722722722724 0.3499749239703682
3282.2822822822823 0.34846216279449455
3292.292292292292 0.34695178808366794
3302.3023023023025 0.3454438416035952
3312.3123123123123 0.3439383596603064
3322.322322322322 0.34243537432355503
3332.3323323323325 0.3409349144941597
3342.3423423423424 0.3394370068304453
3352.352352352352 0.33794167654765506
3362.3623623623625 0.3364489481030355
3372.3723723723724 0.33495884577820073
3382.3823823823823 0.33347139416938
3392.3923923923926 0.33198661859524065
3402.4024024024025 0.33050454543111224
3412.4124124124123 0.3290252023776732
3422.4224224224226 0.3275486186714317
3432.4324324324325 0.3260748252436772
3442.4424424424424 0.32460385483397075
3452.4524524524522 0.3231357420636837
3462.4624624624626 0.3216705234745858
3472.4724724724724 0.32020823753701133
3482.4824824824823 0.3187489246316991
3492.4924924924926 0.3172926270090141
3502.5025025025025 0.3158393887288891
3512.5125125125123 0.3143892555844954
3522.5225225225226 0.3129422750123503
3532.5325325325325 0.3114984959912891
3542.5425425425424 0.3100579689324722
3552.5525525525527 0.3086207455623763
3562.5625625625626 0.3071868788004902
3572.5725725725724 0.3057564226332598
3582.5825825825827 0.30432943198563667
3592.5925925925926 0.30290596259143254
3602.6026026026025 0.30148607086353196
3612.612612612613 0.30006981376488334
3622.6226226226227 0.29865724868106797
3632.6326326326325 0.2972484332951386
3642.642642642643 0.2958434254653171
3652.6526526526527 0.29444228310605475
3662.6626626626626 0.2930450640728743
3672.672672672673 0.29165182605134377
3682.6826826826828 0.2902626264504637
3692.6926926926926 0.2888775223006915
3702.7027027027025 0.2874965701567733
3712.712712712713 0.28611982600550917
3722.7227227227227 0.2847473451785353
3732.7327327327325 0.283379182270161
3742.742742742743 0.28201539106028456
3752.7527527527527 0.2806560244423598
3762.7627627627626 0.2793011343563792
3772.772772772773 0.2779507717268064
3782.7827827827828 0.276604986405376
3792.7927927927926 0.2752638271186593
3802.802802802803 0.27392734142028674
3812.812812812813 0.2725955756476956
3822.8228228228227 0.271268574883274
3832.832832832833 0.26994638291975315
3842.842842842843 0.2686290422297032
3852.8528528528527 0.26731659393897417
3862.862862862863 0.26600907780392535
3872.872872872873 0.2647065321922861
3882.8828828828828 0.2634089940674789
3892.892892892893 0.2621164989762525
3902.902902902903 0.26082908103945346
3912.912912912913 0.2595467729457825
3922.922922922923 0.2582696059483712
3932.932932932933 0.2569976098640288
3942.942942942943 0.25573081307499684
3952.9529529529527 0.25446924253306735
3962.962962962963 0.25321292376591426
3972.972972972973 0.2519618808854934
3982.982982982983 0.2507161365983752
3992.992992992993 0.24947571221786835
4003.003003003003 0.2482406276778104
4013.013013013013 0.24701090154789215
4023.023023023023 0.24578655105039945
4033.033033033033 0.24456759207824968
4043.043043043043 0.24335403921421392
4053.053053053053 0.24214590575121497
4063.063063063063 0.24094320371359787
4073.073073073073 0.23974594387927362
4083.0830830830832 0.2385541358026431
4093.093093093093 0.23736778783821041
4103.103103103103 0.23618690716479804
4113.113113113113 0.23501149981028938
4123.123123123123 0.23384157067681202
4133.133133133133 0.23267712356629816
4143.143143143143 0.23151816120634816
4153.153153153153 0.23036468527633508
4163.163163163163 0.22921669643368608
4173.173173173173 0.22807419434028833
4183.183183183183 0.22693717768896088
4193.193193193193 0.2258056442299449
4203.203203203203 0.22467959079736488
4213.213213213214 0.2235590133356173
4223.223223223224 0.22244390692564514
4233.2332332332335 0.2213342658110608
4243.243243243243 0.22023008342408368
4253.253253253253 0.21913135241125825
4263.263263263263 0.21803806465892467
4273.273273273273 0.216950211318414
4283.283283283283 0.2158677828309423
4293.293293293293 0.21479076895218296
4303.303303303303 0.21371915877649533
4313.313313313313 0.21265294076079153
4323.323323323323 0.2115921027480238
4333.333333333334 0.21053663199028105
4343.343343343344 0.20948651517147654
4353.353353353354 0.2084417384296195
4363.3633633633635 0.2074022873786585
4373.373373373373 0.20636814712988968
4383.383383383383 0.20533930231291989
4393.393393393393 0.20431573709618334
4403.403403403403 0.20329743520700252
4413.413413413413 0.20228437995119253
4423.423423423424 0.20127655423220672
4433.4334334334335 0.2002739405698197
4443.443443443443 0.19927652111834918
4453.453453453454 0.19828427768441603
4463.463463463464 0.19729719174424565
4473.473473473474 0.19631524446050694
4483.483483483484 0.19533841669869842
4493.493493493494 0.1943666890430795
4503.503503503503 0.19340004181215278
4513.513513513513 0.19243845507370044
4523.523523523523 0.1914819086593797
4533.533533533533 0.19053038217888413
4543.543543543543 0.1895838550336722
4553.553553553554 0.18864230643027402
4563.563563563564 0.187705715393178
4573.573573573573 0.18677406077730654
4583.583583583584 0.18584732128008688
4593.593593593594 0.18492547545312338
4603.603603603604 0.1840085017134786
4613.613613613614 0.18309637835457154
4623.623623623624 0.18218908355669886
4633.6336336336335 0.18128659539718758
4643.643643643643 0.18038889186018742
4653.653653653653 0.17949595084610884
4663.663663663663 0.17860775018071667
4673.673673673674 0.17772426762388532
4683.683683683684 0.17684548087802504
4693.693693693694 0.17597136759618612
4703.703703703704 0.17510190538984866
4713.713713713714 0.17423707183640744
4723.723723723724 0.17337684448635776
4733.733733733734 0.17252120087019068
4743.743743743744 0.1716701185050067
4753.753753753754 0.17082357490085348
4763.763763763764 0.1699815475667971
4773.773773773773 0.1691440140167319
4783.783783783783 0.1683109517749408
4793.793793793793 0.16748233838140808
4803.803803803804 0.1666581513968947
4813.813813813814 0.16583836840778537
4823.823823823824 0.1650229670307092
4833.833833833834 0.16421192491694564
4843.843843843844 0.1634052197566202
4853.853853853854 0.16260282928269662
4863.863863863864 0.1618047312747734
4873.873873873874 0.16101090356269002
4883.883883883884 0.16022132402994885
4893.893893893894 0.15943597061696096
4903.9039039039035 0.15865482132411912
4913.913913913913 0.1578778542147058
4923.923923923924 0.15710504741764175
4933.933933933934 0.15633637913008075
4943.943943943944 0.15557182761985464
4953.953953953955 0.15481137122777677
4963.9639639639645 0.1540549883698071
4973.973973973974 0.15330265753908398
4983.983983983984 0.1525543573078295
4993.993993993994 0.15181006632913124
5004.004004004004 0.1510697633386058
5014.014014014014 0.15033342715595002
5024.024024024024 0.14960103668638206
5034.0340340340335 0.1488725709219789
5044.044044044043 0.14814800894291297
5054.054054054054 0.14742732991859264
5064.064064064064 0.14671051310871147
5074.074074074074 0.14599753786420774
5084.084084084085 0.14528838362814023
5094.0940940940945 0.14458302993648378
5104.104104104104 0.14388145641884623
5114.114114114114 0.14318364279911275
5124.124124124124 0.14248956889601835
5134.134134134134 0.1417992146236547
5144.144144144144 0.14111255999191064
5154.154154154154 0.1404295851068538
5164.1641641641645 0.13975027017105182
5174.174174174174 0.1390745954838394
5184.184184184184 0.13840254144153233
5194.194194194194 0.1377340885375903
5204.204204204204 0.13706921736273434
5214.214214214214 0.13640790860501625
5224.224224224225 0.13575014304984767
5234.2342342342345 0.1350959015799871
5244.244244244244 0.13444516517548877
5254.254254254254 0.13379791491361573
5264.264264264264 0.13315413196871806
5274.274274274274 0.1325137976120793
5284.284284284285 0.13187689321173182
5294.294294294295 0.13124340023224434
5304.304304304304 0.13061330023448156
5314.314314314314 0.12998657487533966
5324.324324324324 0.12936320590745692
5334.334334334334 0.12874317517890346
5344.344344344345 0.12812646463284902
5354.354354354355 0.12751305630721277
5364.3643643643645 0.12690293233429428
5374.374374374374 0.12629607494038825
5384.384384384384 0.12569246644538398
5394.394394394394 0.12509208926235021
5404.404404404404 0.12449492589710719
5414.414414414415 0.1239009589477869
5424.424424424425 0.1233101711043823
5434.4344344344345 0.12272254514828594
5444.444444444444 0.12213806395182003
5454.454454454454 0.121556710477759
5464.464464464464 0.1209784677788437
5474.474474474475 0.1204033189972895
5484.484484484485 0.11983124736428877
5494.494494494495 0.1192622361995085
5504.504504504504 0.11869626891058331
5514.514514514514 0.1181333289926051
5524.524524524524 0.11757340002760926
5534.534534534535 0.11701646568405942
5544.544544544545 0.11646250971632938
5554.554554554555 0.11591151596418373
5564.5645645645645 0.1153634683522586
5574.574574574574 0.11481835088954132
5584.584584584584 0.11427614766884998
5594.594594594595 0.11373684286631403
5604.604604604605 0.11320042074085597
5614.614614614615 0.1126668656336733
5624.624624624625 0.11213616196772307
5634.6346346346345 0.11160829424720824
5644.644644644644 0.11108324705706565
5654.654654654654 0.11056100506245736
5664.664664664665 0.11004155300826404
5674.674674674675 0.10952487571858212
5684.684684684685 0.10901095809622337
5694.694694694695 0.10849978512221871
5704.704704704704 0.10799134185532527
5714.714714714714 0.10748561343153724
5724.724724724725 0.10698258506360107
5734.734734734735 0.10648224204053429
5744.744744744745 0.10598456972714922
5754.754754754755 0.10548955356358022
5764.764764764765 0.10499717906481655
5774.774774774774 0.10450743182023879
5784.784784784785 0.10402029749316047
5794.794794794795 0.10353576182037447
5804.804804804805 0.1030538106117038
5814.814814814815 0.10257442974955784
5824.824824824825 0.1020976051884931
5834.8348348348345 0.10162332295477866
5844.844844844845 0.10115156914596767
5854.854854854855 0.1006823299304723
5864.864864864865 0.10021559154714496
5874.874874874875 0.09975134030486382
5884.884884884885 0.09928956258212383
5894.894894894895 0.09883024482663205
5904.9049049049045 0.0983733735549087
5914.914914914915 0.09791893535189267
5924.924924924925 0.09746691687055249
5934.934934934935 0.09701730483150116
5944.944944944945 0.09657008602261741
5954.954954954955 0.09612524729867025
5964.964964964965 0.09568277558094951
5974.974974974975 0.09524265785690024
5984.984984984985 0.0948048811797626
5994.994994994995 0.09436943266821582
6005.005005005005 0.09393629950602682
6015.015015015015 0.09350546894170375
6025.025025025025 0.09307692828815382
6035.035035035035 0.0926506649223451
6045.045045045045 0.0922266662849737
6055.055055055055 0.09180491988013414
6065.065065065065 0.0913854132749946
6075.075075075075 0.09096813409947609
6085.085085085085 0.090553070045936
6095.0950950950955 0.09014020886885518
6105.105105105105 0.08972953838452963
6115.115115115115 0.08932104647076512
6125.125125125125 0.08891472106657665
6135.135135135135 0.08851055017189108
6145.145145145145 0.08810852184725317
6155.155155155155 0.08770862421353606
6165.1651651651655 0.08731084545165414
6175.175175175175 0.08691517380228055
6185.185185185185 0.08652159756556681
6195.195195195195 0.08613010510086686
6205.205205205205 0.0857406848264636
6215.215215215215 0.08535332521929856
6225.225225225226 0.0849680148147053
6235.235235235235 0.08458474220614481
6245.245245245245 0.08420349604494481
6255.255255255255 0.0838242650400412
6265.265265265265 0.08344703795772253
