#lamb flux
1000.0 0.23455269387799182
1010.01001001001 0.2579548346639798
1020.0200200200201 0.282178577083286
1030.03003003003 0.30715149470451125
1040.0400400400401 0.33280333446965066
1050.05005005005 0.3590670013413604
1060.06006006006 0.38587934064182394
1070.07007007007 0.4131817317990193
1080.08008008008 0.4409205108987287
1090.0900900900901 0.46904724155396493
1100.1001001001 0.4975188544496687
1110.11011011011 0.5262976757866575
1120.1201201201202 0.5553513639934983
1130.13013013013 0.5846527727216563
1140.1401401401401 0.6141797564731935
1150.1501501501502 0.6439149333802437
1160.16016016016 0.6738454177760561
1170.1701701701702 0.7039625333534337
1180.1801801801803 0.7342615159576912
1190.1901901901902 0.7647412134465994
1200.2002002002002 0.7954037885919951
1210.2102102102103 0.8262544297066141
1220.2202202202202 0.8573010725560886
1230.2302302302303 0.888554136153958
1240.2402402402402 0.9200262742267122
1250.2502502502502 0.9516381103873622
1260.2602602602603 0.9831081738244843
1270.2702702702702 1.0138843111323887
1280.2802802802803 1.0439256942075221
1290.2902902902902 1.0731965783339392
1300.3003003003003 1.1016660540749148
1310.3103103103103 1.1293077831248117
1320.3203203203202 1.1560997232244052
1330.3303303303303 1.1820238465924302
1340.3403403403404 1.207065855711183
1350.3503503503503 1.2312148997307526
1360.3603603603603 1.254463294228295
1370.3703703703704 1.2768062465774561
1380.3803803803803 1.2982415887489753
1390.3903903903904 1.3187695189756568
1400.4004004004005 1.338392353371576
1410.4104104104103 1.357114288294453
1420.4204204204204 1.3749411739784787
1430.4304304304305 1.3918802997399236
1440.4404404404404 1.407940190866304
1450.4504504504505 1.4231304171385812
1460.4604604604606 1.4374614128020122
1470.4704704704704 1.450944307691732
1480.4804804804805 1.463590769131343
1490.4904904904906 1.4754128541541454
1500.5005005005005 1.4864228715449033
1510.5105105105106 1.496633253163098
1520.5205205205207 1.5060564339847493
1530.5305305305305 1.5147047402873954
1540.5405405405404 1.5225902854006332
1550.5505505505505 1.5297248724513988
1560.5605605605606 1.536119903548397
1570.5705705705705 1.5417862948730994
1580.5805805805805 1.5467343971752312
1590.5905905905906 1.5509739212088463
1600.6006006006005 1.5545138676910786
1610.6106106106106 1.5573624614202557
1620.6206206206207 1.559527089254023
1630.6306306306305 1.5610142417231319
1640.6406406406406 1.5618294581438612
1650.6506506506507 1.561977275194378
1660.6606606606606 1.5614611790399244
1670.6706706706707 1.5602835612320567
1680.6806806806808 1.5584456787719394
1690.6906906906906 1.5559476189214096
1700.7007007007007 1.5527961935853274
1710.7107107107108 1.549021032933402
1720.7207207207207 1.5446152518297
1730.7307307307308 1.539566693413146
1740.7407407407409 1.5338624014175077
1750.7507507507507 1.5274886369083398
1760.7607607607606 1.5204309126858775
1770.770770770771 1.512674049414277
1780.7807807807808 1.5042022582553534
1790.7907907907907 1.4949992555841387
1800.8008008008007 1.4850484162370488
1810.8108108108108 1.4743329726748209
1820.8208208208207 1.462836268402665
1830.8308308308308 1.450542074932915
1840.8408408408409 1.4374349824312842
1850.8508508508507 1.4235008748574056
1860.8608608608608 1.408727500757226
1870.870870870871 1.3931051507083112
1880.8808808808808 1.3766274515276764
1890.890890890891 1.3592922854406169
1900.900900900901 1.3411028391424193
1910.9109109109108 1.3220687826891167
1920.920920920921 1.302207571044746
1930.930930930931 1.281545851544171
1940.940940940941 1.260120948266971
1950.950950950951 1.237982379336671
1960.960960960961 1.2151933457806334
1970.970970970971 1.1918321116168373
1980.980980980981 1.1679931757090976
1990.9909909909911 1.143788118806807
2001.001001001001 1.1193459969279993
2011.0110110110109 1.0948131482706904
2021.0210210210212 1.0703522887225163
2031.031031031031 1.0461407938940934
2041.0410410410411 1.022368105253453
2051.051051051051 0.9992322540464444
2061.061061061061 0.9769355660267975
2071.071071071071 0.955679686222165
2081.081081081081 0.9356601369674471
2091.091091091091 0.9170606837638849
2101.101101101101 0.9000478222256337
2111.1111111111113 0.8847657082438032
2121.121121121121 0.8713318298747821
2131.131131131131 0.8598336660644412
2141.141141141141 0.8503265017291924
2151.151151151151 0.8428324816090269
2161.161161161161 0.8373408980356686
2171.1711711711714 0.833809630003934
2181.1811811811813 0.8321675891720707
2191.191191191191 0.8323179854953194
2201.201201201201 0.8341422009145064
2211.2112112112113 0.8375040517527821
2221.221221221221 0.842254226314512
2231.2312312312315 0.8482347007339204
2241.2412412412414 0.8552829608103113
2251.2512512512512 0.8632358880903097
2261.261261261261 0.8719332026063046
2271.271271271271 0.881220390213166
2281.2812812812813 0.8909510771356225
2291.2912912912916 0.9009888460582288
2301.3013013013015 0.9112085151490884
2311.3113113113113 0.921496922661448
2321.321321321321 0.9317532747102524
2331.331331331331 0.9418891226065317
2341.3413413413414 0.9518280393922717
2351.3513513513512 0.9615050639307291
2361.3613613613616 0.9708659762083082
2371.3713713713714 0.9798664605315356
2381.3813813813813 0.9884712050811625
2391.391391391391 0.9966529776588123
2401.4014014014015 1.0043917090673946
2411.4114114114113 1.011673607840079
2421.4214214214217 1.0184903232328193
2431.4314314314315 1.0248381676387177
2441.4414414414414 1.0307174048800825
2451.4514514514512 1.0361316071256315
2461.4614614614616 1.0410870803624113
2471.4714714714714 1.0455923563005975
2481.4814814814818 1.0496577471748219
2491.4914914914916 1.0532949590042304
2501.5015015015015 1.0565167583730208
2511.5115115115113 1.0593366875962251
2521.521521521521 1.061768823160567
2531.5315315315315 1.0638275725107897
2541.541541541542 1.0655275045352288
2551.5515515515517 1.066883209450042
2561.5615615615616 1.067909184158663
2571.5715715715714 1.068619739549585
2581.5815815815813 1.0690289265755826
2591.5915915915916 1.0691504783205856
2601.6016016016015 1.0689977655997336
2611.611611611612 1.068583763950216
2621.6216216216217 1.0679210301535056
2631.6316316316315 1.06702168668359
2641.6416416416414 1.0658974127017162
2651.6516516516517 1.0645594404174805
2661.6616616616616 1.063018555810922
2671.671671671672 1.0612851028626846
2681.6816816816818 1.0593689905715293
2691.6916916916916 1.0572797021527138
2701.7017017017015 1.0550263059089944
2711.711711711712 1.052617467350275
2721.7217217217217 1.050061462209867
2731.731731731732 1.0473661900666162
2741.741741741742 1.0445391883342192
2751.7517517517517 1.0415876464230618
2761.7617617617616 1.0385184199171407
2771.7717717717715 1.035338044639864
2781.781781781782 1.0320527505088317
2791.791791791792 1.0286684751016058
2801.801801801802 1.02519087687276
2811.811811811812 1.0216253479777258
2821.8218218218217 1.0179770266714274
2831.8318318318316 1.0142508092600693
2841.841841841842 1.0104513615928508
2851.851851851852 1.0065831300872405
2861.861861861862 1.0026503522869763
2871.871871871872 0.9986570669563702
2881.881881881882 0.9946071237179782
2891.8918918918916 0.9905041922434121
2901.901901901902 0.9863517710091341
2911.911911911912 0.9821531956306172
2921.921921921922 0.9779116467893311
2931.931931931932 0.9736301577677884
2941.941941941942 0.9693116216082923
2951.9519519519517 0.9649587979112454
2961.961961961962 0.9605743192889189
2971.971971971972 0.9561606974904017
2981.9819819819822 0.9517203292132274
2991.991991991992 0.9472555016168139
3002.002002002002 0.9427683975524274
3012.012012012012 0.9382611005239245
3022.0220220220217 0.9337355993930029
3032.032032032032 0.9339242119381611
3042.0420420420423 0.9287701015216459
3052.052052052052 0.923438457635989
3062.062062062062 0.9179767849195855
3072.072072072072 0.9124261906682164
3082.0820820820823 0.9068220108622587
3092.092092092092 0.9011943987777372
3102.102102102102 0.8955688734954511
3112.1121121121123 0.8899668272160519
3122.122122122122 0.8844059914847591
3132.132132132132 0.8789008633030221
3142.1421421421423 0.8734630927202833
3152.152152152152 0.868101833911285
3162.162162162162 0.862824061998473
3172.1721721721724 0.8576348580116318
3182.1821821821823 0.8525376644183991
3192.192192192192 0.8475345136336748
3202.202202202202 0.8426262318424871
3212.2122122122123 0.8378126203645957
3222.222222222222 0.8330926166617617
3232.232232232232 0.8284644369491545
3242.2422422422424 0.8239257022274842
3252.252252252252 0.8194735494071117
3262.262262262262 0.8151047290532927
3272.2722722722724 0.8108156911451593
3282.2822822822823 0.8066026601118134
3292.292292292292 0.8024617002879586
3302.3023023023025 0.7983887728192837
3312.3123123123123 0.7943797849445472
3322.322322322322 0.790430632486889
3332.3323323323325 0.7865372363008817
3342.3423423423424 0.7826955733440452
3352.352352352352 0.7789017029712204
3362.3623623623625 0.7751517889870172
3372.3723723723724 0.7714421179348244
3382.3823823823823 0.7677691140500277
3392.3923923923926 0.7641293512597589
3402.4024024024025 0.7605195625709142
3412.4124124124123 0.7569366471520781
3422.4224224224226 0.7533776753827844
3432.4324324324325 0.7498398921148705
3442.4424424424424 0.7463207183651412
3452.4524524524522 0.7428177516357901
3462.4624624624626 0.7393287650387661
3472.4724724724724 0.735851705382166
3482.4824824824823 0.7323846903605741
3492.4924924924926 0.728926004976852
3502.5025025025025 0.7254740973099183
3512.5125125125123 0.7220275737314847
3522.5225225225226 0.7185851936642884
3532.5325325325325 0.7151458639649655
3542.5425425425424 0.7117086330062787
3552.5525525525527 0.708272684525738
3562.5625625625626 0.7048373313007404
3572.5725725725724 0.701402008704057
3582.5825825825827 0.6979662681877986
3592.5925925925926 0.6945297707387601
3602.6026026026025 0.6910922803433026
3612.612612612613 0.687653657495593
3622.6226226226227 0.684213852779034
3632.6326326326325 0.680772900547087
3642.642642642643 0.6773309127263553
3652.6526526526527 0.6738880727617278
3662.6626626626626 0.670444629720575
3672.672672672673 0.6670008925704328
3682.6826826826828 0.6635572246422372
3692.6926926926926 0.6601140382890138
3702.7027027027025 0.6566717897479599
3712.712712712713 0.6532309742120467
3722.7227227227227 0.6497921211156429
3732.7327327327325 0.6463557896371318
3742.742742742743 0.6429225644201912
3752.7527527527527 0.6394930515141379
3762.7627627627626 0.6360678745326618
3772.772772772773 0.6326476710292916
3782.7827827827828 0.6292330890870395
3792.7927927927926 0.6258247841189065
3802.802802802803 0.6224234158752506
3812.812812812813 0.619029645653403
3822.8228228228227 0.6156441337044286
3832.832832832833 0.6122675368314648
3842.842842842843 0.6089005061737224
3852.8528528528527 0.6055436851699092
3862.862862862863 0.6021977076946092
3872.872872872873 0.598863196360961
3882.8828828828828 0.5955407609828134
3892.892892892893 0.5922309971894979
3902.902902902903 0.5889344851862462
3912.912912912913 0.585651788653317
3922.922922922923 0.5823834537768934
3932.932932932933 0.5791300084048805
3942.942942942943 0.5758919613207963
3952.9529529529527 0.5726698016290755
3962.962962962963 0.5694639982452161
3972.972972972973 0.5662749994843517
3982.982982982983 0.5631032327419916
3992.992992992993 0.559949104260842
4003.003003003003 0.5568129989778209
4013.013013013013 0.5536952804455517
4023.023023023023 0.5505962908228453
4033.033033033033 0.5475163509288764
4043.043043043043 0.5444557603559723
4053.053053053053 0.5414147976361517
4063.063063063063 0.5383937204567643
4073.073073073073 0.5353927659207922
4083.0830830830832 0.5324121508475985
4093.093093093093 0.529452072110116
4103.103103103103 0.5265127070046712
4113.113113113113 0.5235942136498652
4123.123123123123 0.5206967314111038
4133.133133133133 0.5178203813476014
4143.143143143143 0.5149652666788475
4153.153153153153 0.5121314732677218
4163.163163163163 0.5093190701176263
4173.173173173173 0.5065281098811717
4183.183183183183 0.5037586293781261
4193.193193193193 0.5010106501204911
4203.203203203203 0.49828417884273507
4213.213213213214 0.4955792080353482
4223.223223223224 0.4928957164800327
4233.2332332332335 0.49023366978497734
4243.243243243243 0.48759302091879086
4253.253253253253 0.4849737107417888
4263.263263263263 0.4823756685334501
4273.273273273273 0.4797988125149608
4283.283283283283 0.47724305036587267
4293.293293293293 0.4747082797339969
4303.303303303303 0.4721943887377459
4313.313313313313 0.46970125646022437
4323.323323323323 0.46722875343444625
4333.333333333334 0.4647767421191363
4343.343343343344 0.4623450773646371
4353.353353353354 0.45993360686851953
4363.3633633633635 0.4575421716205405
4373.373373373373 0.4551706063366658
4383.383383383383 0.45281873988191196
4393.393393393393 0.45048639568182525
4403.403403403403 0.4481733921224454
4413.413413413413 0.44587954293865545
4423.423423423424 0.44360465759085455
4433.4334334334335 0.4413485416299164
4443.443443443443 0.4391109970504412
4453.453453453454 0.43689182263232756
4463.463463463464 0.4346908142707268
4473.473473473474 0.4325077652944493
4483.483483483484 0.4303424667729399
4493.493493493494 0.42819470781193075
4503.503503503503 0.4260642758379186
4513.513513513513 0.42395095687161805
4523.523523523523 0.42185453579055615
4533.533533533533 0.41977479658099565
4543.543543543543 0.4177115225793667
4553.553553553554 0.4156644967034151
4563.563563563564 0.41363350167327023
4573.573573573573 0.4116183202226444
4583.583583583584 0.409618735300387
4593.593593593594 0.40763453026261204
4603.603603603604 0.4056654890556262
4613.613613613614 0.403711396389892
4623.623623623624 0.40177203790524474
4633.6336336336335 0.3998472003276083
4643.643643643643 0.39793667161743324
4653.653653653653 0.3960402411100901
4663.663663663663 0.3941576996484522
4673.673673673674 0.3922888397078922
4683.683683683684 0.3904334555139276
4693.693693693694 0.38859134315273275
4703.703703703704 0.38676230067474693
4713.713713713714 0.3849461281915973
4723.723723723724 0.383142627966554
4733.733733733734 0.3813516044987296
4743.743743743744 0.3795728646012415
4753.753753753754 0.3778062174735323
4763.763763763764 0.37605147476806716
4773.773773773773 0.37430845065158913
4783.783783783783 0.37257696186114986
4793.793793793793 0.3708568277550864
4803.803803803804 0.369147870359146
4813.813813813814 0.3674499144079354
4823.823823823824 0.3657627873818771
4833.833833833834 0.36408631953984316
4843.843843843844 0.36242034394764266
4853.853853853854 0.36076469650252363
4863.863863863864 0.35911921595385704
4873.873873873874 0.3574837439201543
4883.883883883884 0.3558581249025805
4893.893893893894 0.35424220629510317
4903.9039039039035 0.3526358383914316
4913.913913913913 0.3510388743888817
4923.923923923924 0.3494511703893058
4933.933933933934 0.3478725853972238
4943.943943943944 0.3463029813152807
4953.953953953955 0.34474222293716095
4963.9639639639645 0.34319017793807943
4973.973973973974 0.34164671686296777
4983.983983983984 0.34011171311247346
4993.993993993994 0.3385850429268801
5004.004004004004 0.33706658536805917
5014.014014014014 0.3355562222995589
5024.024024024024 0.33405383836492697
5034.0340340340335 0.33255932096437396
5044.044044044043 0.3310725602298633
5054.054054054054 0.32959344899872695
5064.064064064064 0.3281218827858921
5074.074074074074 0.32665775975480743
5084.084084084085 0.3252009806871495
5094.0940940940945 0.3237514489513945
5104.104104104104 0.32230907047032803
5114.114114114114 0.32087375368757165
5124.124124124124 0.3194454095331979
5134.134134134134 0.3180239513885044
5144.144144144144 0.3166092950500131
5154.154154154154 0.31520135869276344
5164.1641641641645 0.31380006283295764
5174.174174174174 0.31240533029002476
5184.184184184184 0.31101708614815654
5194.194194194194 0.3096352577173744
5204.204204204204 0.3082597744941831
5214.214214214214 0.3068905681218597
5224.224224224225 0.3055275723504315
5234.2342342342345 0.3041707229963896
5244.244244244244 0.30281995790218463
5254.254254254254 0.3014752168955518
5264.264264264264 0.30013644174870296
5274.274274274274 0.29880357613743325
5284.284284284285 0.2974765656001768
5294.294294294295 0.2961553574970527
5304.304304304304 0.29483990096893314
5314.314314314314 0.29353014689657625
5324.324324324324 0.2922260478598458
5334.334334334334 0.2909275580970615
5344.344344344345 0.28963463346449964
5354.354354354355 0.28834723139608054
5364.3643643643645 0.28706531086326526
5374.374374374374 0.28578883233519226
5384.384384384384 0.28451775773907395
5394.394394394394 0.2832520504208814
5404.404404404404 0.2819916751063364
5414.414414414415 0.28073659786223504
5424.424424424425 0.2794867860581199
5434.4344344344345 0.27824220832832114
5444.444444444444 0.2770028345343861
5454.454454454454 0.27576863572791244
5464.464464464464 0.27453958411379953
5474.474474474475 0.27331565301393684
5484.484484484485 0.2720968168313393
5494.494494494495 0.270883051014744
5504.504504504504 0.26967433202368263
5514.514514514514 0.2684706372940358
5524.524524524524 0.26727194520408537
5534.534534534535 0.266078235041069
5544.544544544545 0.26488948696825
5554.554554554555 0.2637056819925073
5564.5645645645645 0.2625268019324543
5574.574574574574 0.26135282938709276
5584.584584584584 0.2601837477050077
5594.594594594595 0.2590195409541063
5604.604604604605 0.25786019389191095
5614.614614614615 0.25670569193640164
5624.624624624625 0.25555602113741815
5634.6346346346345 0.2544111681486222
5644.644644644644 0.2532711202000201
5654.654654654654 0.25213586507104996
5664.664664664665 0.25100539106423053
5674.674674674675 0.24987968697937968
5684.684684684685 0.24875874208839097
5694.694694694695 0.24764254611057976
5704.704704704704 0.2465310891885893
5714.714714714714 0.24542436186485933
5724.724724724725 0.24432235505865518
5734.734734734735 0.24322506004365319
5744.744744744745 0.24213246842608227
5754.754754754755 0.24104457212341646
5764.764764764765 0.23996136334361787
5774.774774774774 0.23888283456492307
5784.784784784785 0.2378089785161717
5794.794794794795 0.23673978815767133
5804.804804804805 0.23567525666259598
5814.814814814815 0.23461537739891047
5824.824824824825 0.23356014391181923
5834.8348348348345 0.23250954990673056
5844.844844844845 0.23146358923273486
5854.854854854855 0.2304222558665872
5864.864864864865 0.22938554389719032
5874.874874874875 0.22835344751057246
5884.884884884885 0.2273259609753527
5894.894894894895 0.22630307862868682
5904.9049049049045 0.22528479486268918
5914.914914914915 0.22427110411132162
5924.924924924925 0.22326200083774456
5934.934934934935 0.22225747952212072
5944.944944944945 0.2212575346498677
5954.954954954955 0.2202621607003496
5964.964964964965 0.21927135213600119
5974.974974974975 0.2182851033918779
5984.984984984985 0.21730340886562374
5994.994994994995 0.2163262629078493
6005.005005005005 0.21535365981291274
6015.015015015015 0.21438559381009717
6025.025025025025 0.21342205905517442
6035.035035035035 0.21246304962235024
6045.045045045045 0.21150855949658132
6055.055055055055 0.21055858256625776
6065.065065065065 0.20961311261624244
6075.075075075075 0.2086721433212606
6085.085085085085 0.2077356682396307
6095.0950950950955 0.20680368080733047
6105.105105105105 0.2058761743323897
6115.115115115115 0.20495314198960127
6125.125125125125 0.2040345768155455
6135.135135135135 0.2031204717039175
6145.145145145145 0.20221081940115154
6155.155155155155 0.20130561250233556
6165.1651651651655 0.20040484344740603
6175.175175175175 0.19950850451761962
6185.185185185185 0.19861658783229022
6195.195195195195 0.19772908534578826
6205.205205205205 0.19684598884479107
6215.215215215215 0.19596728994578122
6225.225225225226 0.19509298009278306
6235.235235235235 0.19422305055533093
6245.245245245245 0.19335749242666492
6255.255255255255 0.19249629662214301
6265.265265265265 0.19163945387786605
6275.275275275275 0.19078695474950932
6285.285285285286 0.18993878961135138
6295.295295295296 0.18909494865549706
6305.305305305305 0.1882554218912854
6315.315315315315 0.18742019914487937
6325.325325325325 0.18658927005902806
