#lamb flux
1000.0 1.223835404720941e+40
1010.01001001001 1.2026331100251095e+40
1020.0200200200201 1.1816834399633423e+40
1030.03003003003 1.1609950164947718e+40
1040.0400400400401 1.1405753036986615e+40
1050.05005005005 1.1204306949309905e+40
1060.06006006006 1.1005665945988558e+40
1070.07007007007 1.0809874948080438e+40
1080.08008008008 1.0616970471367169e+40
1090.0900900900901 1.0426981297840303e+40
1100.1001001001 1.0239929103369815e+40
1110.11011011011 1.0055829043922646e+40
1120.1201201201202 9.874690302624941e+39
1130.13013013013 9.696516599882009e+39
1140.1401401401401 9.521306668685401e+39
1150.1501501501502 9.349054697149883e+39
1160.16016016016 9.179750740233969e+39
1170.1701701701702 9.01338110250896e+39
1180.1801801801803 8.849928693752245e+39
1190.1901901901902 8.689373359052934e+39
1200.2002002002002 8.531692185031613e+39
1210.2102102102103 8.376859783691869e+39
1220.2202202202202 8.224848555339186e+39
1230.2302302302303 8.07562893192382e+39
1240.2402402402402 7.929169602087845e+39
1250.2502502502502 7.785437646768743e+39
1260.2602602602603 7.64439866889662e+39
1270.2702702702702 7.506016956528663e+39
1280.2802802802803 7.370256202079592e+39
1290.2902902902902 7.237079242430715e+39
1300.3003003003003 7.106448197294776e+39
1310.3103103103103 6.978324596364196e+39
1320.3203203203202 6.852669496020473e+39
1330.3303303303303 6.729443586333777e+39
1340.3403403403404 6.608607289035079e+39
1350.3503503503503 6.490120847099272e+39
1360.3603603603603 6.373944406536509e+39
1370.3703703703704 6.260038090950001e+39
1380.3803803803803 6.148362069381802e+39
1390.3903903903904 6.038876617933758e+39
1400.4004004004005 5.93154217561829e+39
1410.4104104104103 5.826319394863456e+39
1420.4204204204204 5.723169187068061e+39
1430.4304304304305 5.622052763575899e+39
1440.4404404404404 5.522931672413194e+39
1450.4504504504505 5.4257678311097586e+39
1460.4604604604606 5.330523555902476e+39
1470.4704704704704 5.2371615875990565e+39
1480.4804804804805 5.145645114360917e+39
1490.4904904904906 5.055937791645934e+39
1500.5005005005005 4.968003759535033e+39
1510.5105105105106 4.8818076576508925e+39
1520.5205205205207 4.797314637862435e+39
1530.5305305305305 4.7144903749548936e+39
1540.5405405405404 4.633301075432685e+39
1550.5505505505505 4.553713484610271e+39
1560.5605605605606 4.47569489213501e+39
1570.5705705705705 4.399213136075831e+39
1580.5805805805805 4.324236605701647e+39
1590.5905905905906 4.250734243064569e+39
1600.6006006006005 4.178675543494542e+39
1610.6106106106106 4.108030555104177e+39
1620.6206206206207 4.038769877395282e+39
1630.6306306306305 3.970864659051843e+39
1640.6406406406406 3.9042865949977675e+39
1650.6506506506507 3.8390079227920575e+39
1660.6606606606606 3.775001418428353e+39
1670.6706706706707 3.7122403916008724e+39
1680.6806806806808 3.6506986804940275e+39
1690.6906906906906 3.590350646148549e+39
1700.7007007007007 3.531171168147839e+39
1710.7107107107108 3.473135641559836e+39
1720.7207207207207 3.416219957637789e+39
1730.7307307307308 3.360400503883673e+39
1740.7407407407409 3.3056541579093494e+39
1750.7507507507507 3.2519582801468823e+39
1760.7607607607606 3.199290706408031e+39
1770.770770770771 3.1476297403203687e+39
1780.7807807807808 3.096954145665348e+39
1790.7907907907907 3.0472431386416975e+39
1800.8008008008007 2.998476380075711e+39
1810.8108108108108 2.950633967598382e+39
1820.8208208208207 2.903696427807818e+39
1830.8308308308308 2.8576447084341357e+39
1840.8408408408409 2.812460170522737e+39
1850.8508508508507 2.7681245806509026e+39
1860.8608608608608 2.7246201031916077e+39
1870.870870870871 2.6819292926376258e+39
1880.8808808808808 2.6400350859981412e+39
1890.890890890891 2.5989207952792375e+39
1900.900900900901 2.5585701000588242e+39
1910.9109109109108 2.5189670401654352e+39
1920.920920920921 2.480096008469212e+39
1930.930930930931 2.4419417437917037e+39
1940.940940940941 2.404489323939144e+39
1950.950950950951 2.3677241588611352e+39
1960.960960960961 2.3316319839332694e+39
1970.970970970971 2.2961988533579266e+39
1980.980980980981 2.2614111336723437e+39
1990.9909909909911 2.2272554973470163e+39
2001.001001001001 2.193718916451084e+39
2011.0110110110109 2.1607886563547525e+39
2021.0210210210212 2.1284522694332142e+39
2031.031031031031 2.096697588732682e+39
2041.0410410410411 2.0655127215587347e+39
2051.051051051051 2.0348860429514775e+39
2061.061061061061 2.004806189022265e+39
2071.071071071071 1.9752620501437918e+39
2081.081081081081 1.946242764008748e+39
2091.091091091091 1.9177377086004126e+39
2101.101101101101 1.8897364951483856e+39
2111.1111111111113 1.8622289611694756e+39
2121.121121121121 1.8352051637128365e+39
2131.131131131131 1.8086553729345297e+39
2141.141141141141 1.7825700661171912e+39
2151.151151151151 1.7569399222245073e+39
2161.161161161161 1.7317558170407225e+39
2171.1711711711714 1.7070088188978822e+39
2181.1811811811813 1.682690184945384e+39
2191.191191191191 1.6587913578750033e+39
2201.201201201201 1.6353039629861385e+39
2211.2112112112113 1.6122198054634966e+39
2221.221221221221 1.589530867743119e+39
2231.2312312312315 1.5672293068596856e+39
2241.2412412412414 1.5453074516940273e+39
2251.2512512512512 1.5237578000694324e+39
2261.261261261261 1.502573015674325e+39
2271.271271271271 1.4817459248135545e+39
2281.2812812812813 1.4612695130090972e+39
2291.2912912912916 1.441136921482931e+39
2301.3013013013015 1.421341443560564e+39
2311.3113113113113 1.4018765210345413e+39
2321.321321321321 1.3827357405244544e+39
2331.331331331331 1.3639128298649902e+39
2341.3413413413414 1.3454016545475945e+39
2351.3513513513512 1.3271962142351319e+39
2361.3613613613616 1.3092906393632034e+39
2371.3713713713714 1.2916791878368323e+39
2381.3813813813813 1.2743562418271303e+39
2391.391391391391 1.2573163046694389e+39
2401.4014014014015 1.2405539978620651e+39
2411.4114114114113 1.2240640581631398e+39
2421.4214214214217 1.2078413347820543e+39
2431.4314314314315 1.1918807866613579e+39
2441.4414414414414 1.1761774798446915e+39
2451.4514514514512 1.1607265849263254e+39
2461.4614614614616 1.1455233745779806e+39
2471.4714714714714 1.1305632211488325e+39
2481.4814814814818 1.1158415943348689e+39
2491.4914914914916 1.1013540589140878e+39
2501.5015015015015 1.0870962725442978e+39
2511.5115115115113 1.0730639836206022e+39
2521.521521521521 1.0592530291898932e+39
2531.5315315315315 1.0456593329199427e+39
2541.541541541542 1.0322789031209e+39
2551.5515515515517 1.0191078308171885e+39
2561.5615615615616 1.0061422878679729e+39
2571.5715715715714 9.9337852513453e+38
2581.5815815815813 9.808128706929605e+38
2591.5915915915916 9.684417280908166e+38
2601.6016016016015 9.562615746462993e+38
2611.611611611612 9.442689597887745e+38
2621.6216216216217 9.324605034394331e+38
2631.6316316316315 9.208328944309607e+38
2641.6416416416414 9.09382888965176e+38
2651.6516516516517 8.981073091076143e+38
2661.6616616616616 8.87003041318084e+38
2671.671671671672 8.760670350162691e+38
2681.6816816816818 8.652963011814892e+38
2691.6916916916916 8.546879109857368e+38
2701.7017017017015 8.442389944591646e+38
2711.711711711712 8.339467391872153e+38
2721.7217217217217 8.23808389038604e+38
2731.731731731732 8.138212429233833e+38
2741.741741741742 8.039826535803688e+38
2751.7517517517517 7.942900263931747e+38
2761.7617617617616 7.84740818234191e+38
2771.7717717717715 7.753325363357879e+38
2781.781781781782 7.660627371880929e+38
2791.791791791792 7.569290254627006e+38
2801.801801801802 7.479290529616595e+38
2811.811811811812 7.39060517591135e+38
2821.8218218218217 7.303211623591414e+38
2831.8318318318316 7.217087743967504e+38
2841.841841841842 7.132211840022102e+38
2851.851851851852 7.048562637074063e+38
2861.861861861862 6.966119273661282e+38
2871.871871871872 6.884861292636e+38
2881.881881881882 6.804768632467607e+38
2891.8918918918916 6.725821618747918e+38
2901.901901901902 6.6480009558938165e+38
2911.911911911912 6.571287719042664e+38
2921.921921921922 6.495663346135554e+38
2931.931931931932 6.4211096301840024e+38
2941.941941941942 6.347608711715461e+38
2951.9519519519517 6.275143071393365e+38
2961.961961961962 6.203695522807454e+38
2971.971971971972 6.133249205430156e+38
2981.9819819819822 6.063787577735068e+38
2991.991991991992 5.9952944104735e+38
3002.002002002002 5.927753780105291e+38
3012.012012012012 5.86115006238013e+38
3022.0220220220217 5.795467926065701e+38
3032.032032032032 5.730695063920815e+38
3042.0420420420423 5.66681087812668e+38
3052.052052052052 5.603803887868202e+38
3062.062062062062 5.5416599015065655e+38
3072.072072072072 5.480364986948632e+38
3082.0820820820823 5.419905466677377e+38
3092.092092092092 5.3602679128555305e+38
3102.102102102102 5.301439142504026e+38
3112.1121121121123 5.243406212756866e+38
3122.122122122122 5.186156416193403e+38
3132.132132132132 5.12967727624887e+38
3142.1421421421423 5.073956542703782e+38
3152.152152152152 5.018982187252526e+38
3162.162162162162 4.964742399151211e+38
3172.1721721721724 4.911225580944817e+38
3182.1821821821823 4.858420344273374e+38
3192.192192192192 4.806315505756806e+38
3202.202202202202 4.754900082957978e+38
3212.2122122122123 4.704163290423334e+38
3222.222222222222 4.654094535800445e+38
3232.232232232232 4.604683416031625e+38
3242.2422422422424 4.555919713622827e+38
3252.252252252252 4.5077933929868585e+38
3262.262262262262 4.4602945968599274e+38
3272.2722722722724 4.413413642790507e+38
3282.2822822822823 4.367141019699458e+38
3292.292292292292 4.32146738451029e+38
3302.3023023023025 4.276383558848434e+38
3312.3123123123123 4.231880525808424e+38
3322.322322322322 4.187949426787747e+38
3332.3323323323325 4.1445815583862466e+38
3342.3423423423424 4.101768369369896e+38
3352.352352352352 4.059501457697664e+38
3362.3623623623625 4.017772567610451e+38
3372.3723723723724 3.976573586780745e+38
3382.3823823823823 3.935896543521858e+38
3392.3923923923926 3.8957336040556615e+38
3402.4024024024025 3.85607706983752e+38
3412.4124124124123 3.816919374937311e+38
3422.4224224224226 3.7782530834754256e+38
3432.4324324324325 3.740070887112569e+38
3442.4424424424424 3.7023656025922335e+38
3452.4524524524522 3.66513016933476e+38
3462.4624624624626 3.628357647081894e+38
3472.4724724724724 3.592041213590773e+38
3482.4824824824823 3.556174162376225e+38
3492.4924924924926 3.5207499005004315e+38
3502.5025025025025 3.485761946408857e+38
3512.5125125125123 3.451203927811473e+38
3522.5225225225226 3.417069579608281e+38
3532.5325325325325 3.3833527418581784e+38
3542.5425425425424 3.3500473577901915e+38
3552.5525525525527 3.317147471856171e+38
3562.5625625625626 3.2846472278240295e+38
3572.5725725725724 3.252540866910604e+38
3582.5825825825827 3.2208227259533118e+38
3592.5925925925926 3.1894872356196987e+38
3602.6026026026025 3.15852891865406e+38
3612.612612612613 3.1279423881603226e+38
3622.6226226226227 3.097722345920359e+38
3632.6326326326325 3.067863580746954e+38
3642.642642642643 3.0383609668706818e+38
3652.6526526526527 3.009209462359908e+38
3662.6626626626626 2.980404107573176e+38
3672.672672672673 2.9519400236433066e+38
3682.6826826826828 2.9238124109924548e+38
3692.6926926926926 2.8960165478774693e+38
3702.7027027027025 2.8685477889648625e+38
3712.712712712713 2.8414015639347476e+38
3722.7227227227227 2.8145733761131276e+38
3732.7327327327325 2.7880588011318256e+38
3742.742742742743 2.761853485615561e+38
3752.7527527527527 2.7359531458954747e+38
3762.7627627627626 2.7103535667485758e+38
3772.772772772773 2.685050600162517e+38
3782.7827827827828 2.6600401641251575e+38
3792.7927927927926 2.635318241438348e+38
3802.802802802803 2.6108808785554245e+38
3812.812812812813 2.5867241844418907e+38
3822.8228228228227 2.562844329458766e+38
3832.832832832833 2.5392375442681285e+38
3842.842842842843 2.515900118760347e+38
3852.8528528528527 2.4928284010025473e+38
3862.862862862863 2.470018796207842e+38
3872.872872872873 2.4474677657248804e+38
3882.8828828828828 2.4251718260472528e+38
3892.892892892893 2.4031275478423847e+38
3902.902902902903 2.3813315549994127e+38
3912.912912912913 2.3597805236957085e+38
3922.922922922923 2.338471181481597e+38
3932.932932932933 2.3174003063829344e+38
3942.942942942943 2.2965647260210906e+38
3952.9529529529527 2.2759613167500312e+38
3962.962962962963 2.2555870028100992e+38
3972.972972972973 2.2354387554981544e+38
3982.982982982983 2.2155135923537046e+38
3992.992992992993 2.1958085763607032e+38
4003.003003003003 2.1763208151647036e+38
4013.013013013013 2.157047460304988e+38
4023.023023023023 2.1379857064614154e+38
4033.033033033033 2.119132790715639e+38
4043.043043043043 2.1004859918264074e+38
4053.053053053053 2.0820426295186554e+38
4063.063063063063 2.0638000637860898e+38
4073.073073073073 2.045755694206984e+38
4083.0830830830832 2.0279069592729244e+38
4093.093093093093 2.010251335730217e+38
4103.103103103103 1.992786337933701e+38
4113.113113113113 1.975509517212728e+38
4123.123123123123 1.9584184612490105e+38
4133.133133133133 1.9415107934661507e+38
4143.143143143143 1.9247841724305676e+38
4153.153153153153 1.9082362912636096e+38
4163.163163163163 1.8918648770646055e+38
4173.173173173173 1.8756676903446452e+38
4183.183183183183 1.8596425244708724e+38
4193.193193193193 1.84378720512105e+38
4203.203203203203 1.828099589748219e+38
4213.213213213214 1.8125775670552313e+38
4223.223223223224 1.7972190564789574e+38
4233.2332332332335 1.782022007683966e+38
4243.243243243243 1.766984400065499e+38
4253.253253253253 1.752104242261543e+38
4263.263263263263 1.737379571673819e+38
4273.273273273273 1.7228084539975067e+38
4283.283283283283 1.708388982759532e+38
4293.293293293293 1.6941192788652473e+38
4303.303303303303 1.6799974901533278e+38
4313.313313313313 1.6660217909587383e+38
4323.323323323323 1.652190381683583e+38
4333.333333333334 1.6385014883757034e+38
4343.343343343344 1.6249533623148711e+38
4353.353353353354 1.6115442796064048e+38
4363.3633633633635 1.5982725407820811e+38
4373.373373373373 1.5851364704081992e+38
4383.383383383383 1.5721344167006388e+38
4393.393393393393 1.5592647511467956e+38
4403.403403403403 1.5465258681342465e+38
4413.413413413413 1.5339161845860084e+38
4423.423423423424 1.5214341396022825e+38
4433.4334334334335 1.5090781941085349e+38
4443.443443443443 1.4968468305097976e+38
4453.453453453454 1.4847385523510717e+38
4463.463463463464 1.4727518839837287e+38
4473.473473473474 1.4608853702377442e+38
4483.483483483484 1.4491375760997197e+38
4493.493493493494 1.4375070863965242e+38
4503.503503503503 1.4259925054844755e+38
4513.513513513513 1.4145924569439531e+38
4523.523523523523 1.40330558327932e+38
4533.533533533533 1.3921305456240827e+38
4543.543543543543 1.381066023451155e+38
4553.553553553554 1.3701107142881535e+38
4563.563563563564 1.3592633334376194e+38
4573.573573573573 1.3485226137020684e+38
4583.583583583584 1.3378873051137847e+38
4593.593593593594 1.3273561746692703e+38
4603.603603603604 1.3169280060682467e+38
4613.613613613614 1.3066015994571448e+38
4623.623623623624 1.296375771176976e+38
4633.6336336336335 1.286249353515524e+38
4643.643643643643 1.2762211944637576e+38
4653.653653653653 1.2662901574763915e+38
4663.663663663663 1.2564551212365257e+38
4673.673673673674 1.2467149794242689e+38
4683.683683683684 1.2370686404892956e+38
4693.693693693694 1.227515027427239e+38
4703.703703703704 1.2180530775598622e+38
4713.713713713714 1.208681742318943e+38
4723.723723723724 1.1993999870337844e+38
4733.733733733734 1.1902067907222964e+38
4743.743743743744 1.1811011458855907e+38
4753.753753753754 1.1720820583060012e+38
4763.763763763764 1.16314854684849e+38
4773.773773773773 1.1542996432653565e+38
4783.783783783783 1.1455343920042109e+38
4793.793793793793 1.1368518500191308e+38
4803.803803803804 1.1282510865849537e+38
4813.813813813814 1.1197311831146531e+38
4823.823823823824 1.1112912329797251e+38
4833.833833833834 1.1029303413335475e+38
4843.843843843844 1.0946476249376541e+38
4853.853853853854 1.0864422119908547e+38
4863.863863863864 1.0783132419611794e+38
4873.873873873874 1.0702598654205633e+38
4883.883883883884 1.0622812438822513e+38
4893.893893893894 1.0543765496408523e+38
4903.9039039039035 1.0465449656150053e+38
4913.913913913913 1.0387856851926102e+38
4923.923923923924 1.0310979120785717e+38
4933.933933933934 1.0234808601450242e+38
4943.943943943944 1.0159337532839704e+38
4953.953953953955 1.008455825262317e+38
4963.9639639639645 1.0010463195792469e+38
4973.973973973974 9.937044893258899e+37
4983.983983983984 9.864295970472571e+37
4993.993993993994 9.792209146063923e+37
5004.004004004004 9.720777230507008e+37
5014.014014014014 9.649993124804264e+37
5024.024024024024 9.57984981919222e+37
5034.0340340340335 9.510340391867989e+37
5044.044044044043 9.441458007735957e+37
5054.054054054054 9.37319591717446e+37
5064.064064064064 9.305547454822087e+37
5074.074074074074 9.238506038383167e+37
5084.084084084085 9.172065167452201e+37
5094.0940940940945 9.10621842235693e+37
5104.104104104104 9.040959463019576e+37
5114.114114114114 8.97628202783608e+37
5124.124124124124 8.912179932572969e+37
5134.134134134134 8.848647069281539e+37
5144.144144144144 8.785677405229049e+37
5154.154154154154 8.723264981846699e+37
5164.1641641641645 8.661403913693973e+37
5174.174174174174 8.600088387439213e+37
5184.184184184184 8.539312660856041e+37
5194.194194194194 8.479071061835363e+37
5204.204204204204 8.419357987412792e+37
5214.214214214214 8.360167902811068e+37
5224.224224224225 8.301495340497338e+37
5234.2342342342345 8.24333489925501e+37
5244.244244244244 8.185681243269891e+37
5254.254254254254 8.128529101230449e+37
5264.264264264264 8.071873265441839e+37
5274.274274274274 8.015708590953637e+37
5284.284284284285 7.960029994700832e+37
5294.294294294295 7.904832454658056e+37
5304.304304304304 7.850111009006655e+37
5314.314314314314 7.795860755314549e+37
5324.324324324324 7.742076849728499e+37
5334.334334334334 7.688754506178742e+37
5344.344344344345 7.635888995595607e+37
5354.354354354355 7.583475645138113e+37
5364.3643643643645 7.53150983743412e+37
5374.374374374374 7.479987009832075e+37
5384.384384384384 7.428902653663964e+37
5394.394394394394 7.378252313519411e+37
5404.404404404404 7.328031586530655e+37
5414.414414414415 7.278236121668302e+37
5424.424424424425 7.228861619047621e+37
5434.4344344344345 7.1799038292451885e+37
5444.444444444444 7.131358552625778e+37
5454.454454454454 7.083221638679305e+37
5464.464464464464 7.03548898536761e+37
5474.474474474475 6.988156538480977e+37
5484.484484484485 6.941220291004208e+37
5494.494494494495 6.894676282492087e+37
5504.504504504504 6.848520598454098e+37
5514.514514514514 6.802749369748217e+37
5524.524524524524 6.757358771983685e+37
5534.534534534535 6.7123450249325515e+37
5544.544544544545 6.667704391949875e+37
5554.554554554555 6.6234331794024455e+37
5564.5645645645645 6.579527736105889e+37
5574.574574574574 6.535984452770012e+37
5584.584584584584 6.49279976145225e+37
5594.594594594595 6.449970135019071e+37
5604.604604604605 6.407492086615308e+37
5614.614614614615 6.365362169141094e+37
5624.624624624625 6.323576974736497e+37
5634.6346346346345 6.282133134273597e+37
5644.644644644644 6.241027316855894e+37
5654.654654654654 6.200256229325001e+37
5664.664664664665 6.159816615774408e+37
5674.674674674675 6.119705257070334e+37
5684.684684684685 6.0799189703793755e+37
5694.694694694695 6.040454608703031e+37
5704.704704704704 6.001309060418861e+37
5714.714714714714 5.962479248828231e+37
5724.724724724725 5.923962131710532e+37
5734.734734734735 5.885754700883771e+37
5744.744744744745 5.847853981771412e+37
5754.754754754755 5.8102570329754e+37
5764.764764764765 5.77296094585526e+37
5774.774774774774 5.735962844113171e+37
5784.784784784785 5.699259883384906e+37
5794.794794794795 5.662849250836592e+37
5804.804804804805 5.62672816476714e+37
5814.814814814815 5.590893874216307e+37
5824.824824824825 5.555343658578281e+37
5834.8348348348345 5.520074827220673e+37
5844.844844844845 5.4850847191089235e+37
5854.854854854855 5.450370702435914e+37
5864.864864864865 5.415930174256797e+37
5874.874874874875 5.381760560128942e+37
5884.884884884885 5.3478593137568935e+37
5894.894894894895 5.314223916642284e+37
