#lamb flux
1000.0 8.352722002537488
1010.01001001001 8.525831012785185
1020.0200200200201 8.681331940419371
1030.03003003003 8.819903803677475
1040.0400400400401 8.942302359154041
1050.05005005005 9.049338922022791
1060.06006006006 9.141861845842273
1070.07007007007 9.220740561373043
1080.08008008008 9.28685202248983
1090.0900900900901 9.341069374209908
1100.1001001001 9.38425263935711
1110.11011011011 9.417241213155643
1120.1201201201202 9.44084795628049
1130.13013013013 9.455854684231067
1140.1401401401401 9.46300886241983
1150.1501501501502 9.463021330549319
1160.16016016016 9.456564895495822
1170.1701701701702 9.444273648123707
1180.1801801801803 9.4267428755541
1190.1901901901902 9.404529455934757
1200.2002002002002 9.378152637387558
1210.2102102102103 9.348095116348725
1220.2202202202202 9.314804342860967
1230.2302302302303 9.278693991489448
1240.2402402402402 9.240145546428822
1250.2502502502502 9.19902622225634
1260.2602602602603 9.154235460794146
1270.2702702702702 9.103551761485473
1280.2802802802803 9.047438755462329
1290.2902902902902 8.986339673658726
1300.3003003003003 8.92067704304857
1310.3103103103103 8.850852585464155
1320.3203203203202 8.777247288797202
1330.3303303303303 8.700221623391243
1340.3403403403404 8.620115879285954
1350.3503503503503 8.537250602652398
1360.3603603603603 8.451927112249217
1370.3703703703704 8.364428079029555
1380.3803803803803 8.275018154135738
1390.3903903903904 8.183944632438084
1400.4004004004005 8.091438140511206
1410.4104104104103 7.997713339505835
1420.4204204204204 7.902969634775386
1430.4304304304305 7.807391885365592
1440.4404404404404 7.711151107584453
1450.4504504504505 7.614405167848449
1460.4604604604606 7.517299460862282
1470.4704704704704 7.4199675699430525
1480.4804804804805 7.322531906956746
1490.4904904904906 7.225104329904952
1500.5005005005005 7.127786736691921
1510.5105105105106 7.0306716340255075
1520.5205205205207 6.933842680767705
1530.5305305305305 6.837375205359127
1540.5405405405404 6.741336697203736
1550.5505505505505 6.645787272121705
1560.5605605605606 6.550780112164941
1570.5705705705705 6.456361880247887
1580.5805805805805 6.362573110179456
1590.5905905905906 6.269448572796326
1600.6006006006005 6.177017618996985
1610.6106106106106 6.085304500564792
1620.6206206206207 5.994328669750506
1630.6306306306305 5.904105058665445
1640.6406406406406 5.814644339618825
1650.6506506506507 5.725953167622856
1660.6606606606606 5.638034406389928
1670.6706706706707 5.550887339264803
1680.6806806806808 5.464507866674934
1690.6906906906906 5.37888869185171
1700.7007007007007 5.294033874351659
1710.7107107107108 5.209986878671039
1720.7207207207207 5.126723193193331
1730.7307307307308 5.044209257814128
1740.7407407407409 4.96241072010582
1750.7507507507507 4.881292482229726
1760.7607607607606 4.800818765952329
1770.770770770771 4.720953200378736
1780.7807807807808 4.641658937854883
1790.7907907907907 4.562898804441002
1800.8008008008007 4.484635492421327
1810.8108108108108 4.406831803480104
1820.8208208208207 4.329450952419425
1830.8308308308308 4.2524569425812215
1840.8408408408409 4.175815025398843
1850.8508508508507 4.099492257645859
1860.8608608608608 4.0234581708294535
1870.870870870871 3.9476855675970652
1880.8808808808808 3.87215145972482
1890.890890890891 3.7968381608946813
1900.900900900901 3.7217345446206287
1910.9109109109108 3.646837472846575
1920.920920920921 3.5721533933399536
1930.930930930931 3.497700093446541
1940.940940940941 3.4235085835001096
1950.950950950951 3.34962506479346
1960.960960960961 3.276112914426016
1970.970970970971 3.203054592973479
1980.980980980981 3.1305533519569733
1990.9909909909911 3.058734588695271
2001.001001001001 2.9877466696492236
2011.0110110110109 2.91776102436919
2021.0210210210212 2.848971306192097
2031.031031031031 2.78159142890846
2041.0410410410411 2.7158523262205834
2051.051051051051 2.651997346587151
2061.061061061061 2.5902762902786107
2071.071071071071 2.530938213699013
2081.081081081081 2.4742232583044483
2091.091091091091 2.4203538926115367
2101.101101101101 2.369526067172347
2111.1111111111113 2.321900854820605
2121.121121121121 2.2775971661188006
2131.131131131131 2.236686083980068
2141.141141141141 2.1991872528088354
2151.151151151151 2.16506759740801
2161.161161161161 2.1342424551636587
2171.1711711711714 2.106579006461018
2181.1811811811813 2.0819017080970874
2191.191191191191 2.059999293731392
2201.201201201201 2.0406328178953115
2211.2112112112113 2.023544190651427
2221.221221221221 2.008464675056452
2231.2312312312315 1.9951228888593942
2241.2412412412414 1.9832519510653421
2251.2512512512512 1.972595527620421
2261.261261261261 1.9629126442690743
2271.271271271271 1.9539812372908292
2281.2812812812813 1.9456004968295444
2291.2912912912916 1.9375921192413321
2301.3013013013015 1.9298006240104169
2311.3113113113113 1.9220929094995451
2321.321321321321 1.9143572238130842
2331.331331331331 1.9065017166873814
2341.3413413413414 1.8984527198544359
2351.3513513513512 1.8901528805004704
2361.3613613613616 1.8815592482508308
2371.3713713713714 1.8726413927239793
2381.3813813813813 1.8633796075129254
2391.391391391391 1.8537632382351195
2401.4014014014015 1.843789157316265
2411.4114114114113 1.833460396373057
2421.4214214214217 1.8227849381552228
2431.4314314314315 1.8117746636061776
2441.4414414414414 1.8004444452729644
2451.4514514514512 1.7888113756179185
2461.4614614614616 1.7768941173730328
2471.4714714714714 1.7647123626026693
2481.4814814814818 1.7522863873273093
2491.4914914914916 1.7396366891921737
2501.5015015015015 1.7267836965709726
2511.5115115115113 1.7137475385504197
2521.521521521521 1.7005478663541704
2531.5315315315315 1.6872037178718848
2541.541541541542 1.6737334180182495
2551.5515515515517 1.6601545086320337
2561.5615615615616 1.6464837025228587
2571.5715715715714 1.6327368570775436
2581.5815815815813 1.6189289635489543
2591.5915915915916 1.6050741487721993
2601.6016016016015 1.5911856865918137
2611.611611611612 1.5772760167468918
2621.6216216216217 1.5633567693566095
2631.6316316316315 1.549438793484215
2641.6416416416414 1.5355321885408482
2651.6516516516517 1.5216463375283131
2661.6616616616616 1.5077899413187337
2671.671671671672 1.4939710533342534
2681.6816816816818 1.480197114126905
2691.6916916916916 1.4664749854715413
2701.7017017017015 1.452810983677353
2711.711711711712 1.439210911899045
2721.7217217217217 1.4256800912901466
2731.731731731732 1.41222339089043
2741.741741741742 1.398845256179205
2751.7517517517517 1.385549736257757
2761.7617617617616 1.3723405096492127
2771.7717717717715 1.3592209087234015
2781.781781781782 1.3461939427692728
2791.791791791792 1.333262319748608
2801.801801801802 1.320428466773036
2811.811811811812 1.3076945493522167
2821.8218218218217 1.2950624894649796
2831.8318318318316 1.2825339825075743
2841.841841841842 1.270110513174401
2851.851851851852 1.2577933703267599
2861.861861861862 1.245583660904675
2871.871871871872 1.2334823229357597
2881.881881881882 1.2214901376935883
2891.8918918918916 1.209607741056262
2901.901901901902 1.1978356341138017
2911.911911911912 1.1861741930709049
2921.921921921922 1.1746236784893431
2931.931931931932 1.1631842439120215
2941.941941941942 1.1518559439084843
2951.9519519519517 1.1406387415794024
2961.961961961962 1.1295325155554246
2971.971971971972 1.1185370665236627
2981.9819819819822 1.1076521233130432
2991.991991991992 1.09687734856784
3002.002002002002 1.0862123440368183
3012.012012012012 1.0756566555037006
3022.0220220220217 1.065209777382954
3032.032032032032 1.057725749972097
3042.0420420420423 1.047122381600368
3052.052052052052 1.0365311340548198
3062.062062062062 1.025979817302221
3072.072072072072 1.0154919469901635
3082.0820820820823 1.0050872245933984
3092.092092092092 0.9947819757674188
3102.102102102102 0.9845895488427827
3112.1121121121123 0.9745206757014951
3122.122122122122 0.9645837974565619
3132.132132132132 0.9547853574373716
3142.1421421421423 0.945130063991014
3152.152152152152 0.9356211255624081
3162.162162162162 0.9262604604299784
3172.1721721721724 0.9170488833607082
3182.1821821821823 0.9079862713184724
3192.192192192192 0.8990717102199697
3202.202202202202 0.8903036245889888
3212.2122122122123 0.8816798918163282
3222.222222222222 0.8731979425924902
3232.232232232232 0.8648548489454633
3242.2422422422424 0.8566474011879031
3252.252252252252 0.8485721749576703
3262.262262262262 0.8406255894235556
3272.2722722722724 0.8328039576241806
3282.2822822822823 0.8251035298124858
3292.292292292292 0.8175205305906851
3302.3023023023025 0.8100511905406761
3312.3123123123123 0.8026917729823021
3322.322322322322 0.7954385964260392
3332.3323323323325 0.7882880532271622
3342.3423423423424 0.7812366248947851
3352.352352352352 0.774280894460778
3362.3623623623625 0.7674175562701503
3372.3723723723724 0.7606434235154081
3382.3823823823823 0.7539554338023869
3392.3923923923926 0.7473506530037145
3402.4024024024025 0.7408262776279056
3412.4124124124123 0.734379635906974
3422.4224224224226 0.7280081877829223
3432.4324324324325 0.7217095239533501
3442.4424424424424 0.7154813641184096
3452.4524524524522 0.7093215545552494
3462.4624624624626 0.7032280651316928
3472.4724724724724 0.6971989858580292
3482.4824824824823 0.6912325230642777
3492.4924924924926 0.6853269952800111
3502.5025025025025 0.6794808288845997
3512.5125125125123 0.6736925535875198
3522.5225225225226 0.6679607977909887
3532.5325325325325 0.6622842838806089
3542.5425425425424 0.6566618234838018
3552.5525525525527 0.6510923127305379
3562.5625625625626 0.6455747275461542
3572.5725725725724 0.6401081190018232
3582.5825825825827 0.6346916087444788
3592.5925925925926 0.629324384524622
3602.6026026026025 0.6240056958374333
3612.612612612613 0.6187348496899248
3622.6226226226227 0.6135112065044857
3632.6326326326325 0.608334176167034
3642.642642642643 0.6032032142261229
3652.6526526526527 0.5981178182476437
3662.6626626626626 0.5930775243283081
3672.672672672673 0.5880819037697904
3682.6826826826828 0.5831305599142389
3692.6926926926926 0.5782231251408849
3702.7027027027025 0.5733592580225845
3712.712712712713 0.5685386406403783
3722.7227227227227 0.5637609760535042
3732.7327327327325 0.5590259859217099
3742.742742742743 0.5543334082762873
3752.7527527527527 0.5496829954358073
3762.7627627627626 0.5450745120622349
3772.772772772773 0.5405077333528335
3782.7827827827828 0.5359824433630577
3792.7927927927926 0.5314984334554747
3802.802802802803 0.5270555008696511
3812.812812812813 0.5226534474078609
3822.8228228228227 0.5182920782314315
3832.832832832833 0.5139712007625559
3842.842842842843 0.5096906236863991
3852.8528528528527 0.5054501560483926
3862.862862862863 0.5012496064416673
3872.872872872873 0.49708878227967007
3882.8828828828828 0.4929674891490977
3892.892892892893 0.488885530238426
3902.902902902903 0.4848427058373982
3912.912912912913 0.48083881290300867
3922.922922922923 0.47687364468764254
3932.932932932933 0.47294699042519145
3942.942942942943 0.4690586350711045
3952.9529529529527 0.4652083590925107
3962.962962962963 0.4613959383046955
3972.972972972973 0.45762114375037216
3982.982982982983 0.45388374161836104
3992.992992992993 0.45018349319843215
4003.003003003003 0.44652015486924773
4013.013013013013 0.4428934781164663
4023.023023023023 0.4393032095782512
4033.033033033033 0.4357490911155637
4043.043043043043 0.43223085990476084
4053.053053053053 0.42874824855017857
4063.063063063063 0.42530098521449966
4073.073073073073 0.42188879376485405
4083.0830830830832 0.41851139393272124
4093.093093093093 0.4151685014858342
4103.103103103103 0.4118598284103956
4113.113113113113 0.4085850831020484
4123.123123123123 0.4053439705641303
4133.133133133133 0.4021361926118728
4143.143143143143 0.3989614480812845
4153.153153153153 0.39581943304156997
4163.163163163163 0.39270984101001233
4173.173173173173 0.38963236316835215
4183.183183183183 0.3865866885797593
4193.193193193193 0.38357250440558355
4203.203203203203 0.38058949612114074
4213.213213213214 0.377637347729859
4223.223223223224 0.37471574197517465
4233.2332332332335 0.3718243605496299
4243.243243243243 0.36896288430068236
4253.253253253253 0.36613099343278865
4263.263263263263 0.36332836770537685
4273.273273273273 0.3605546866263668
4283.283283283283 0.3578096296409432
4293.293293293293 0.3550928763153289
4303.303303303303 0.352404106515338
4313.313313313313 0.3497430005795311
4323.323323323323 0.34710923948681993
4333.333333333334 0.344502505018405
4343.343343343344 0.3419224799139558
4353.353353353354 0.3393688480219628
4363.3633633633635 0.3368412944442244
4373.373373373373 0.3343395056744445
4383.383383383383 0.33186316973093904
4393.393393393393 0.32941197628347
4403.403403403403 0.3269856167742346
4413.413413413413 0.3245837845330586
4423.423423423424 0.3222061748868556
4433.4334334334335 0.31985248526341914
4443.443443443443 0.3175224152896313
4453.453453453454 0.3152156668841783
4463.463463463464 0.312931944344876
4473.473473473474 0.3106709544307003
4483.483483483484 0.30843240643865133
4493.493493493494 0.30621601227555195
4503.503503503503 0.3040214865249152
4513.513513513513 0.3018485465090006
4523.523523523523 0.299696912346187
4533.533533533533 0.29756630700379894
4543.543543543543 0.29545645634651246
4553.553553553554 0.29336708918047905
4563.563563563564 0.29129793729330267
4573.573573573573 0.28924873549000096
4583.583583583584 0.2872192216250929
4593.593593593594 0.2852091366309402
4603.603603603604 0.28321822454248213
4613.613613613614 0.2812462325184948
4623.623623623624 0.2792929108595047
4633.6336336336335 0.2773580130224909
4643.643643643643 0.2754412956325006
4653.653653653653 0.2735425184913048
4663.663663663663 0.2716614445832212
4673.673673673674 0.26979784007822233
4683.683683683684 0.2679514743324525
4693.693693693694 0.2661221198862666
4703.703703703704 0.26430955245990917
4713.713713713714 0.26251355094694323
4723.723723723724 0.2607338974055388
4733.733733733734 0.25897037704772663
4743.743743743744 0.2572227782267234
4753.753753753754 0.25549089242242534
4763.763763763764 0.2537745142251722
4773.773773773773 0.2520734413178721
4783.783783783783 0.25038747445658627
4793.793793793793 0.2487164174496553
4803.803803803804 0.2470600771354594
4813.813813813814 0.24541826335889502
4823.823823823824 0.24379078894664727
4833.833833833834 0.24217746968133838
4843.843843843844 0.24057812427462888
4853.853853853854 0.23899257433934054
4863.863863863864 0.2374206443606768
4873.873873873874 0.23586216166660434
4883.883883883884 0.2343169563974636
4893.893893893894 0.23278486147487076
4903.9039039039035 0.2312657125699709
4913.913913913913 0.2297593480711013
4923.923923923924 0.22826560905092097
4933.933933933934 0.22678433923306035
4943.943943943944 0.22531538495833922
4953.953953953955 0.22385859515060866
4963.9639639639645 0.22241382128225837
4973.973973973974 0.22098091733943634
4983.983983983984 0.21955973978702673
4993.993993993994 0.2181501475334226
5004.004004004004 0.21675200189513733
5014.014014014014 0.21536516656129
5024.024024024024 0.21398950755799978
5034.0340340340335 0.2126248932127279
5044.044044044043 0.2112711941185941
5054.054054054054 0.20992828309870246
5064.064064064064 0.20859603517050557
5074.074074074074 0.20727432751023228
5084.084084084085 0.20596303941740976
5094.0940940940945 0.20466205227950185
5104.104104104104 0.20337124953668792
5114.114114114114 0.20209051664680638
5124.124124124124 0.20081974105048225
5134.134134134134 0.19955881213645948
5144.144144144144 0.19830762120715678
5154.154154154154 0.19706606144446553
5164.1641641641645 0.1958340278758044
5174.174174174174 0.1946114173404487
5184.184184184184 0.193398128456147
5194.194194194194 0.1921940615860397
5204.204204204204 0.19099911880589246
5214.214214214214 0.18981320387165526
5224.224224224225 0.18863622218735893
5234.2342342342345 0.18746808077335916
5244.244244244244 0.186308688234936
5254.254254254254 0.18515795473126032
5264.264264264264 0.18401579194473078
5274.274274274274 0.1828821130506937
5284.284284284285 0.1817568326875466
5294.294294294295 0.1806398669272364
5304.304304304304 0.1795311332461531
5314.314314314314 0.17843055049642725
5324.324324324324 0.1773380388776319
5334.334334334334 0.17625351990889598
5344.344344344345 0.1751769164014281
5354.354354354355 0.17410815243145733
5364.3643643643645 0.1730471533135896
5374.374374374374 0.17199384557458355
5384.384384384384 0.17094815692754597
5394.394394394394 0.16991001624654684
5404.404404404404 0.16887935354165634
5414.414414414415 0.16785609993440215
5424.424424424425 0.16684018763364686
5434.4344344344345 0.16583154991188503
5444.444444444444 0.16483012108195882
5454.454454454454 0.163835836474192
5464.464464464464 0.16284863241393735
5474.474474474475 0.16186844619953994
5484.484484484485 0.160895216080711
5494.494494494495 0.15992888123731075
5504.504504504504 0.1589693817585387
5514.514514514514 0.15801665862252634
5524.524524524524 0.1570706536763329
5534.534534534535 0.15613130961633565
5544.544544544545 0.15519856996901693
5554.554554554555 0.15427237907214003
5564.5645645645645 0.15335268205631278
5574.574574574574 0.1524394248269341
5584.584584584584 0.15153255404651916
5594.594594594595 0.1506320171173995
5604.604604604605 0.14973776216479512
5614.614614614615 0.14884973802025023
5624.624624624625 0.14796789420543352
5634.6346346346345 0.14709218091629495
5644.644644644644 0.14622254900757445
5654.654654654654 0.14535894997766052
5664.664664664665 0.14450133595379003
5674.674674674675 0.14364965967758933
5684.684684684685 0.1428038744909463
5694.694694694695 0.14196393432221346
5704.704704704704 0.1411297936727339
5714.714714714714 0.1403014076036865
5724.724724724725 0.13947873172324515
5734.734734734735 0.13866172217404704
5744.744744744745 0.1378503356209647
5754.754754754755 0.1370445292391769
5764.764764764765 0.13624426070253393
5774.774774774774 0.13544948817221117
5784.784784784785 0.13466017028564664
5794.794794794795 0.1338762661457573
5804.804804804805 0.13309773531042893
5814.814814814815 0.13232453778227501
5824.824824824825 0.1315566339986587
5834.8348348348345 0.13079398482197419
5844.844844844845 0.13003655153018134
5854.854854854855 0.12928429580758952
5864.864864864865 0.1285371797358847
5874.874874874875 0.12779516578539626
5884.884884884885 0.12705821680659796
5894.894894894895 0.12632629602183776
5904.9049049049045 0.12559936701729274
5914.914914914915 0.1248773937351439
5924.924924924925 0.12416034046596651
5934.934934934935 0.12344817184132997
5944.944944944945 0.12274085282660537
5954.954954954955 0.12203834871397304
5964.964964964965 0.12134062511562822
5974.974974974975 0.12064764795717843
5984.984984984985 0.11995938347123013
5994.994994994995 0.11927579819115793
6005.005005005005 0.11859685894505459
6015.015015015015 0.11792253284985553
6025.025025025025 0.11725278730563538
6035.035035035035 0.11658758999007078
6045.045045045045 0.11592690885306724
6055.055055055055 0.11527071211154397
6065.065065065065 0.11461896824437476
6075.075075075075 0.11397164598747979
6085.085085085085 0.11332871432906494
6095.0950950950955 0.11269014250500481
6105.105105105105 0.11205589999436605
6115.115115115115 0.11142595651506655
6125.125125125125 0.11080028201966793
6135.135135135135 0.1101788466912976
6145.145145145145 0.10956162093969563
6155.155155155155 0.10894857539738564
6165.1651651651655 0.10833968091596367
6175.175175175175 0.10773490856250369
6185.185185185185 0.10713422961607523
6195.195195195195 0.10653761556437136
6205.205205205205 0.10594503810044262
6215.215215215215 0.1053564691195344
6225.225225225226 0.10477188071602551
6235.235235235235 0.10419124518046324
6245.245245245245 0.10361453499669462
6255.255255255255 0.10304172283908854
6265.265265265265 0.10247278156984745
6275.275275275275 0.10190768423640609
6285.285285285286 0.10134640406891376
6295.295295295296 0.10078891447779834
6305.305305305305 0.10023518905140853
6315.315315315315 0.09968520155373403
6325.325325325325 0.09913892592219838
6335.335335335335 0.0985963362655243
6345.345345345346 0.09805740686166846
