#lamb flux
1000.0 6.224847169422601e+40
1010.01001001001 6.14643958565537e+40
1020.0200200200201 6.067732248331781e+40
1030.03003003003 5.988834478401531e+40
1040.0400400400401 5.909847792012241e+40
1050.05005005005 5.830866318639287e+40
1060.06006006006 5.751977204194706e+40
1070.07007007007 5.6732609987675e+40
1080.08008008008 5.594792028811318e+40
1090.0900900900901 5.51663875373354e+40
1100.1001001001 5.438864106955335e+40
1110.11011011011 5.361525821608847e+40
1120.1201201201202 5.28467674111659e+40
1130.13013013013 5.208365114963078e+40
1140.1401401401401 5.132634880020042e+40
1150.1501501501502 5.057525927827663e+40
1160.16016016016 4.983074358265131e+40
1170.1701701701702 4.909312720067009e+40
1180.1801801801803 4.836270238657911e+40
1190.1901901901902 4.763973031787874e+40
1200.2002002002002 4.692444313456167e+40
1210.2102102102103 4.621704586611803e+40
1220.2202202202202 4.55177182511649e+40
1230.2302302302303 4.482661645449969e+40
1240.2402402402402 4.414387468629751e+40
1250.2502502502502 4.346959043796732e+40
1260.2602602602603 4.280381161878197e+40
1270.2702702702702 4.2146534323336365e+40
1280.2802802802803 4.1497829893370257e+40
1290.2902902902902 4.0857754012686148e+40
1300.3003003003003 4.022634784091576e+40
1310.3103103103103 3.9603639080258496e+40
1320.3203203203202 3.898964297860356e+40
1330.3303303303303 3.8384363272324362e+40
1340.3403403403404 3.7787793071904675e+40
1350.3503503503503 3.7199915693428246e+40
1360.3603603603603 3.6620705438836543e+40
1370.3703703703704 3.6050128327732543e+40
1380.3803803803803 3.548814278338493e+40
1390.3903903903904 3.493470027546481e+40
1400.4004004004005 3.438974592192846e+40
1410.4104104104103 3.385321905234371e+40
1420.4204204204204 3.332505373484572e+40
1430.4304304304305 3.280517926879861e+40
1440.4404404404404 3.2293520645135485e+40
1450.4504504504505 3.178999897624725e+40
1460.4604604604606 3.1294531897194923e+40
1470.4704704704704 3.080703393992531e+40
1480.4804804804805 3.0327416882082404e+40
1490.4904904904906 2.9855590071919824e+40
1500.5005005005005 2.9391460730739116e+40
1510.5105105105106 2.8934934234200253e+40
1520.5205205205207 2.848591437377681e+40
1530.5305305305305 2.804430359955711e+40
1540.5405405405404 2.761000324552607e+40
1550.5505505505505 2.7182913738398134e+40
1560.5605605605606 2.6762934791011006e+40
1570.5705705705705 2.6349965581232835e+40
1580.5805805805805 2.5943904917281217e+40
1590.5905905905906 2.5544651390299787e+40
1600.6006006006005 2.515210351499125e+40
1610.6106106106106 2.47661598590587e+40
1620.6206206206207 2.4386719162164276e+40
1630.6306306306305 2.4013680445074095e+40
1640.6406406406406 2.364694310961992e+40
1650.6506506506507 2.32864070300736e+40
1660.6606606606606 2.2931972636496626e+40
1670.6706706706707 2.2583540990597895e+40
1680.6806806806808 2.2241013854604624e+40
1690.6906906906906 2.190429375362701e+40
1700.7007007007007 2.157328444951558e+40
1710.7107107107108 2.1247891803599838e+40
1720.7207207207207 2.092802069994707e+40
1730.7307307307308 2.061357678967778e+40
1740.7407407407409 2.0304466761941062e+40
1750.7507507507507 2.0000598372563258e+40
1760.7607607607606 1.9701880469403264e+40
1770.770770770771 1.940822301479692e+40
1780.7807807807808 1.911953710548479e+40
1790.7907907907907 1.8835734990436088e+40
1800.8008008008007 1.8556730087006133e+40
1810.8108108108108 1.8282436995896836e+40
1820.8208208208207 1.8012771515428148e+40
1830.8308308308308 1.7747650655675781e+40
1840.8408408408409 1.748699265308277e+40
1850.8508508508507 1.7230716986211053e+40
1860.8608608608608 1.697874439335969e+40
1870.870870870871 1.6730996892835418e+40
1880.8808808808808 1.6487397806711203e+40
1890.890890890891 1.6247871788940188e+40
1900.900900900901 1.6012344858692745e+40
1910.9109109109108 1.5780744439733268e+40
1920.920920920921 1.555299940653006e+40
1930.930930930931 1.532904013756464e+40
1940.940940940941 1.5108798575945006e+40
1950.950950950951 1.4892208296892172e+40
1960.960960960961 1.4679204580927977e+40
1970.970970970971 1.446972449061573e+40
1980.980980980981 1.4263706947486293e+40
1990.9909909909911 1.4061092804341493e+40
2001.001001001001 1.3861824906534764e+40
2011.0110110110109 1.3665848134217662e+40
2021.0210210210212 1.347310941612118e+40
2031.031031031031 1.3283557704499378e+40
2041.0410410410411 1.3097143900755596e+40
2051.051051051051 1.2913820722374793e+40
2061.061061061061 1.2733542504432024e+40
2071.071071071071 1.2556264933326223e+40
2081.081081081081 1.238194471643542e+40
2091.091091091091 1.221053919869162e+40
2101.101101101101 1.2042005944827451e+40
2111.1111111111113 1.1876302313108393e+40
2121.121121121121 1.1713385051413686e+40
2131.131131131131 1.1553209948334286e+40
2141.141141141141 1.1395731569692217e+40
2151.151151151151 1.1240903104403634e+40
2161.161161161161 1.1088676333577525e+40
2171.1711711711714 1.093900172457579e+40
2181.1811811811813 1.0791828639341722e+40
2191.191191191191 1.0647105635565076e+40
2201.201201201201 1.050478083175169e+40
2211.2112112112113 1.0364802303863711e+40
2221.221221221221 1.022711848194372e+40
2231.2312312312315 1.0091678519361677e+40
2241.2412412412414 9.958432613884969e+39
2251.2512512512512 9.827332267364485e+39
2261.261261261261 9.698330478266265e+39
2271.271271271271 9.571381867673309e+39
2281.2812812812813 9.446442744229301e+39
2291.2912912912916 9.323471116642753e+39
2301.3013013013015 9.202426663937768e+39
2311.3113113113113 9.08327067391495e+39
2321.321321321321 8.965965959630424e+39
2331.331331331331 8.850476762463965e+39
2341.3413413413414 8.736768648829867e+39
2351.3513513513512 8.62480840601242e+39
2361.3613613613616 8.514563941136212e+39
2371.3713713713714 8.406004185997701e+39
2381.3813813813813 8.299099009427404e+39
2391.391391391391 8.193819138024809e+39
2401.4014014014015 8.090136085492361e+39
2411.4114114114113 7.988022090361419e+39
2421.4214214214217 7.887450061617621e+39
2431.4314314314315 7.788393531563856e+39
2441.4414414414414 7.690826615175491e+39
2451.4514514514512 7.594723975181282e+39
2461.4614614614616 7.500060792123262e+39
2471.4714714714714 7.406812738695669e+39
2481.4814814814818 7.314955957724314e+39
2491.4914914914916 7.22446704321638e+39
2501.5015015015015 7.135323023979914e+39
2511.5115115115113 7.047501349379555e+39
2521.521521521521 6.960979876857377e+39
2531.5315315315315 6.875736860904163e+39
2541.541541541542 6.79175094321686e+39
2551.5515515515517 6.70900114382163e+39
2561.5615615615616 6.627466852979943e+39
2571.5715715715714 6.54712782372763e+39
2581.5815815815813 6.467964164923947e+39
2591.5915915915916 6.389956334711016e+39
2601.6016016016015 6.313085134303015e+39
2611.611611611612 6.237331702040478e+39
2621.6216216216217 6.162677507658309e+39
2631.6316316316315 6.089104346726604e+39
2641.6416416416414 6.016594335232511e+39
2651.6516516516517 5.945129904278189e+39
2661.6616616616616 5.874693794875854e+39
2671.671671671672 5.805269052825458e+39
2681.6816816816818 5.736839023664248e+39
2691.6916916916916 5.669387347680384e+39
2701.7017017017015 5.60289795498504e+39
2711.711711711712 5.537355060639318e+39
2721.7217217217217 5.472743159833576e+39
2731.731731731732 5.4090470231178004e+39
2741.741741741742 5.346251691682666e+39
2751.7517517517517 5.2843424726911417e+39
2761.7617617617616 5.223304934661281e+39
2771.7717717717715 5.163124902900831e+39
2781.781781781782 5.1037884549945916e+39
2791.791791791792 5.0452819163455894e+39
2801.801801801802 4.987591855771038e+39
2811.811811811812 4.930705081154138e+39
2821.8218218218217 4.8746086351527205e+39
2831.8318318318316 4.819289790965607e+39
2841.841841841842 4.76473604815753e+39
2851.851851851852 4.71093512854332e+39
2861.861861861862 4.657874972131987e+39
2871.871871871872 4.605543733131175e+39
2881.881881881882 4.553929776012421e+39
2891.8918918918916 4.503021671637512e+39
2901.901901901902 4.452808193446057e+39
2911.911911911912 4.403278313704474e+39
2921.921921921922 4.3544211998162634e+39
2931.931931931932 4.3062262106936124e+39
2941.941941941942 4.258682893190009e+39
2951.9519519519517 4.2117809785937313e+39
2961.961961961962 4.165510379181831e+39
2971.971971971972 4.119861184834263e+39
2981.9819819819822 4.074823659707676e+39
2991.991991991992 4.0303882389684114e+39
3002.002002002002 3.986545525584145e+39
3012.012012012012 3.9432862871735914e+39
3022.0220220220217 3.900601452913675e+39
3032.032032032032 3.8585564229793505e+39
3042.0420420420423 3.816984061401013e+39
3052.052052052052 3.7759573861108994e+39
3062.062062062062 3.7354686855576215e+39
3072.072072072072 3.6955102822310444e+39
3082.0820820820823 3.656074543085101e+39
3092.092092092092 3.617153888673545e+39
3102.102102102102 3.578740801123074e+39
3112.1121121121123 3.540827831057351e+39
3122.122122122122 3.503407603575029e+39
3132.132132132132 3.466472823375758e+39
3142.1421421421423 3.4300162791195063e+39
3152.152152152152 3.394030847096895e+39
3162.162162162162 3.358509494280976e+39
3172.1721721721724 3.323445280824573e+39
3182.1821821821823 3.2888313620612994e+39
3192.192192192192 3.254660990062954e+39
3202.202202202202 3.2209275148011755e+39
3212.2122122122123 3.187624384956647e+39
3222.222222222222 3.154745148415137e+39
3232.232232232232 3.122283452485843e+39
3242.2422422422424 3.090233043874245e+39
3252.252252252252 3.0585877684384415e+39
3262.262262262262 3.0273415707552534e+39
3272.2722722722724 2.9964884935197284e+39
3282.2822822822823 2.9660226767994096e+39
3292.292292292292 2.935938357162601e+39
3302.3023023023025 2.9062298666979074e+39
3312.3123123123123 2.876891631940648e+39
3322.322322322322 2.847918172720065e+39
3332.3323323323325 2.819304100939892e+39
3342.3423423423424 2.791044119303492e+39
3352.352352352352 2.763133019993572e+39
3362.3623623623625 2.7355656833154945e+39
3372.3723723723724 2.7083370763121203e+39
3382.3823823823823 2.681442251357281e+39
3392.3923923923926 2.6548763447342482e+39
3402.4024024024025 2.6286345752047273e+39
3412.4124124124123 2.6027122425733167e+39
3422.4224224224226 2.577104726251805e+39
3432.4324324324325 2.5518074838271047e+39
3442.4424424424424 2.526816049636142e+39
3452.4524524524522 2.502126033350629e+39
3462.4624624624626 2.477733118574225e+39
3472.4724724724724 2.4536330614542632e+39
3482.4824824824823 2.4298216893098697e+39
3492.4924924924926 2.406294899278093e+39
3502.5025025025025 2.383048656979324e+39
3512.5125125125123 2.360078995203135e+39
3522.5225225225226 2.3373820126154206e+39
3532.5325325325325 2.314953872487566e+39
3542.5425425425424 2.2927908014481933e+39
3552.5525525525527 2.2708890882579233e+39
3562.5625625625626 2.249245082607437e+39
3572.5725725725724 2.227855193939009e+39
3582.5825825825827 2.2067158902916348e+39
3592.5925925925926 2.1858236971697107e+39
3602.6026026026025 2.1651751964352375e+39
3612.612612612613 2.14476702522338e+39
3622.6226226226227 2.1245958748812112e+39
3632.6326326326325 2.10465848992937e+39
3642.642642642643 2.0849516670464005e+39
3652.6526526526527 2.065472254075412e+39
3662.6626626626626 2.0462171490527147e+39
3672.672672672673 2.0271832992580994e+39
3682.6826826826828 2.0083677002863273e+39
3692.6926926926926 1.9897673951394436e+39
3702.7027027027025 1.971379473339493e+39
3712.712712712713 1.953201070061197e+39
3722.7227227227227 1.9352293652841946e+39
3732.7327327327325 1.9174615829643378e+39
3742.742742742743 1.8998949902236844e+39
3752.7527527527527 1.882526896558671e+39
3762.7627627627626 1.8653546530660758e+39
3772.772772772773 1.8483756516863108e+39
3782.7827827827828 1.8315873244636176e+39
3792.7927927927926 1.8149871428227284e+39
3802.802802802803 1.7985726168615876e+39
3812.812812812813 1.782341294659704e+39
3822.8228228228227 1.76629076160172e+39
3832.832832832833 1.7504186397158258e+39
3842.842842842843 1.734722587026589e+39
3852.8528528528527 1.7192002969218486e+39
3862.862862862863 1.7038494975332737e+39
3872.872872872873 1.6886679511302477e+39
3882.8828828828828 1.673653453526686e+39
3892.892892892893 1.658803833500488e+39
3902.902902902903 1.644116952225242e+39
3912.912912912913 1.6295907027138724e+39
3922.922922922923 1.6152230092739208e+39
3932.932932932933 1.6010118269741378e+39
3942.942942942943 1.5869551411220808e+39
3952.9529529529527 1.5730509667524422e+39
3962.962962962963 1.5592973481258137e+39
3972.972972972973 1.5456923582376156e+39
3982.982982982983 1.5322340983369224e+39
3992.992992992993 1.518920697454927e+39
4003.003003003003 1.5057503119428087e+39
4013.013013013013 1.4927211250187367e+39
4023.023023023023 1.4798313463237963e+39
4033.033033033033 1.467079211486604e+39
4043.043043043043 1.4544629816963882e+39
4053.053053053053 1.4419809432843327e+39
4063.063063063063 1.4296314073129684e+39
4073.073073073073 1.417412709173417e+39
4083.0830830830832 1.4053232081902932e+39
4093.093093093093 1.3933612872340873e+39
4103.103103103103 1.3815253523408256e+39
4113.113113113113 1.3698138323388708e+39
4123.123123123123 1.3582251784826427e+39
4133.133133133133 1.346757864093146e+39
4143.143143143143 1.3354103842051118e+39
4153.153153153153 1.3241812552206156e+39
4163.163163163163 1.3130690145690124e+39
4173.173173173173 1.3020722203730552e+39
4183.183183183183 1.2911894511210484e+39
4193.193193193193 1.280419305344901e+39
4203.203203203203 1.2697604013039552e+39
4213.213213213214 1.2592113766744561e+39
4223.223223223224 1.2487708882445408e+39
4233.2332332332335 1.2384376116146235e+39
4243.243243243243 1.2282102409030671e+39
4253.253253253253 1.2180874884570214e+39
4263.263263263263 1.208068084568325e+39
4273.273273273273 1.198150777194355e+39
4283.283283283283 1.1883343316837257e+39
4293.293293293293 1.1786175305067444e+39
4303.303303303303 1.1689991729905069e+39
4313.313313313313 1.1594780750585566e+39
4323.323323323323 1.1500530689749992e+39
4333.333333333334 1.1407230030929995e+39
4343.343343343344 1.1314867416075546e+39
4353.353353353354 1.122343164312474e+39
4363.3633633633635 1.113291166361471e+39
4373.373373373373 1.1043296580332969e+39
4383.383383383383 1.0954575645008256e+39
4393.393393393393 1.0866738256040238e+39
4403.403403403403 1.0779773956267288e+39
4413.413413413413 1.0693672430771506e+39
4423.423423423424 1.0608423504720464e+39
4433.4334334334335 1.0524017141244813e+39
4443.443443443443 1.0440443439351158e+39
4453.453453453454 1.0357692631869481e+39
4463.463463463464 1.0275755083434664e+39
4473.473473473474 1.0194621288501049e+39
4483.483483483484 1.011428186938998e+39
4493.493493493494 1.003472757436927e+39
4503.503503503503 9.95594927576423e+38
4513.513513513513 9.877937968099663e+38
4523.523523523523 9.800684766272165e+38
4533.533533533533 9.724180903752357e+38
4543.543543543543 9.648417730816294e+38
4553.553553553554 9.573386712805729e+38
4563.563563563564 9.499079428416608e+38
4573.573573573573 9.425487568015278e+38
4583.583583583584 9.352602931982017e+38
4593.593593593594 9.28041742908131e+38
4603.603603603604 9.208923074858403e+38
4613.613613613614 9.138111990061798e+38
4623.623623623624 9.067976399091009e+38
4633.6336336336335 8.998508628469386e+38
4643.643643643643 8.929701105341406e+38
4653.653653653653 8.861546355994037e+38
4663.663663663663 8.794037004401823e+38
4673.673673673674 8.727165770795176e+38
4683.683683683684 8.660925470251624e+38
4693.693693693694 8.595309011309423e+38
4703.703703703704 8.530309394603317e+38
4713.713713713714 8.46591971152204e+38
4723.723723723724 8.402133142887072e+38
4733.733733733734 8.338942957652433e+38
4743.743743743744 8.276342511625077e+38
4753.753753753754 8.214325246205555e+38
4763.763763763764 8.152884687148628e+38
4773.773773773773 8.09201444334338e+38
4783.783783783783 8.03170820561273e+38
4793.793793793793 7.971959745531766e+38
4803.803803803804 7.912762914264714e+38
4813.813813813814 7.85411164142025e+38
4823.823823823824 7.795999933924763e+38
4833.833833833834 7.738421874913326e+38
4843.843843843844 7.681371622638079e+38
4853.853853853854 7.624843409393672e+38
4863.863863863864 7.568831540459578e+38
4873.873873873874 7.513330393058927e+38
4883.883883883884 7.458334415333572e+38
4893.893893893894 7.403838125335217e+38
4903.9039039039035 7.349836110032202e+38
4913.913913913913 7.296323024331785e+38
4923.923923923924 7.243293590117631e+38
4933.933933933934 7.190742595302285e+38
4943.943943943944 7.138664892894269e+38
4953.953953953955 7.087055400079747e+38
4963.9639639639645 7.03590909731837e+38
4973.973973973974 6.985221027453082e+38
4983.983983983984 6.93498629483375e+38
4993.993993993994 6.885200064454278e+38
5004.004004004004 6.835857561103057e+38
5014.014014014014 6.786954068526508e+38
5024.024024024024 6.738484928605463e+38
5034.0340340340335 6.690445540544276e+38
5044.044044044043 6.642831360072331e+38
5054.054054054054 6.595637898657835e+38
5064.064064064064 6.54886072273366e+38
5074.074074074074 6.502495452935015e+38
5084.084084084085 6.456537763348799e+38
5094.0940940940945 6.410983380774438e+38
5104.104104104104 6.365828083995962e+38
5114.114114114114 6.321067703065201e+38
5124.124124124124 6.276698118595904e+38
5134.134134134134 6.232715261068596e+38
5144.144144144144 6.189115110145967e+38
5154.154154154154 6.145893693998697e+38
5164.1641641641645 6.1030470886414644e+38
5174.174174174174 6.060571417279026e+38
5184.184184184184 6.018462849662194e+38
5194.194194194194 5.97671760145352e+38
5204.204204204204 5.935331933602587e+38
5214.214214214214 5.8943021517306855e+38
5224.224224224225 5.8536246055247694e+38
5234.2342342342345 5.8132956881405375e+38
5244.244244244244 5.773311835614448e+38
5254.254254254254 5.7336695262845996e+38
5264.264264264264 5.694365280220235e+38
5274.274274274274 5.65539565865986e+38
5284.284284284285 5.616757263457681e+38
5294.294294294295 5.578446736538382e+38
5304.304304304304 5.5404607593599575e+38
5314.314314314314 5.502796052384635e+38
5324.324324324324 5.465449374557578e+38
5334.334334334334 5.428417522793422e+38
5344.344344344345 5.3916973314703484e+38
5354.354354354355 5.355285671931745e+38
5364.3643643643645 5.3191794519951455e+38
5374.374374374374 5.283375615468533e+38
5384.384384384384 5.2478711416737026e+38
5394.394394394394 5.212663044976707e+38
5404.404404404404 5.177748374325185e+38
5414.414414414415 5.143124212792525e+38
5424.424424424425 5.108787677128714e+38
5434.4344344344345 5.074735917317763e+38
5444.444444444444 5.040966116141632e+38
5454.454454454454 5.007475488750559e+38
5464.464464464464 4.974261282239624e+38
5474.474474474475 4.9413207752315355e+38
5484.484484484485 4.908651277465475e+38
5494.494494494495 4.8762501293919274e+38
5504.504504504504 4.844114701773436e+38
5514.514514514514 4.812242395291098e+38
5524.524524524524 4.780630640156826e+38
5534.534534534535 4.749276895731181e+38
5544.544544544545 4.7181786501467655e+38
5554.554554554555 4.687333419937023e+38
5564.5645645645645 4.656738749670419e+38
5574.574574574574 4.626392211589886e+38
5584.584584584584 4.596291405257447e+38
5594.594594594595 4.5664339572039355e+38
5604.604604604605 4.536817520583789e+38
5614.614614614615 4.507439774834714e+38
5624.624624624625 4.4782984253422835e+38
5634.6346346346345 4.449391203109295e+38
5644.644644644644 4.4207158644298546e+38
5654.654654654654 4.392270190568105e+38
5664.664664664665 4.364051987441508e+38
5674.674674674675 4.336059085308676e+38
5684.684684684685 4.308289338461558e+38
5694.694694694695 4.2807406249220546e+38
5704.704704704704 4.253410846142889e+38
5714.714714714714 4.226297926712716e+38
5724.724724724725 4.199399814065383e+38
5734.734734734735 4.172714478193306e+38
5744.744744744745 4.146239911364854e+38
5754.754754754755 4.119974127845716e+38
5764.764764764765 4.093915163624181e+38
5774.774774774774 4.0680610761402625e+38
5784.784784784785 4.0424099440186035e+38
5794.794794794795 4.016959866805135e+38
5804.804804804805 3.9917089647073785e+38
5814.814814814815 3.96665537833839e+38
5824.824824824825 3.941797268464254e+38
5834.8348348348345 3.917132815755084e+38
5844.844844844845 3.892660220539487e+38
5854.854854854855 3.868377702562419e+38
5864.864864864865 3.84428350074638e+38
5874.874874874875 3.820375872955935e+38
5884.884884884885 3.796653095765455e+38
5894.894894894895 3.773113464230064e+38
5904.9049049049045 3.7497552916597445e+38
