#lamb flux
1000.0 1.4955939350837797e+40
1010.01001001001 1.5165436882664181e+40
1020.0200200200201 1.5336699145862508e+40
1030.03003003003 1.5472061798318902e+40
1040.0400400400401 1.5573963796977303e+40
1050.05005005005 1.564489329345567e+40
1060.06006006006 1.5687342430480744e+40
1070.07007007007 1.5703770367843571e+40
1080.08008008008 1.5696573755416734e+40
1090.0900900900901 1.566806381978203e+40
1100.1001001001 1.5620449225148922e+40
1110.11011011011 1.5555823895790196e+40
1120.1201201201202 1.5476159035764453e+40
1130.13013013013 1.5383298643960567e+40
1140.1401401401401 1.5278957892089704e+40
1150.1501501501502 1.5164723805390146e+40
1160.16016016016 1.504205775705099e+40
1170.1701701701702 1.4912299355339162e+40
1180.1801801801803 1.4776671365608501e+40
1190.1901901901902 1.4636285366909556e+40
1200.2002002002002 1.4492147894416748e+40
1210.2102102102103 1.4345166864304515e+40
1220.2202202202202 1.4196158117236616e+40
1230.2302302302303 1.4045851950640924e+40
1240.2402402402402 1.389489953887642e+40
1250.2502502502502 1.374296869768583e+40
1260.2602602602603 1.3587927792433375e+40
1270.2702702702702 1.3425618441641327e+40
1280.2802802802803 1.3256946891925953e+40
1290.2902902902902 1.3082760590477855e+40
1300.3003003003003 1.2903849537723841e+40
1310.3103103103103 1.2720947967357136e+40
1320.3203203203202 1.2534736280614295e+40
1330.3303303303303 1.2345843171344005e+40
1340.3403403403404 1.2154847887236456e+40
1350.3503503503503 1.1962282580566843e+40
1360.3603603603603 1.1768634708975577e+40
1370.3703703703704 1.157434945319647e+40
1380.3803803803803 1.1379832124298803e+40
1390.3903903903904 1.118545053798128e+40
1400.4004004004005 1.0991537337799353e+40
1410.4104104104103 1.0798392252978048e+40
1420.4204204204204 1.0606284279714747e+40
1430.4304304304305 1.0415453777662911e+40
1440.4404404404404 1.0226114475659336e+40
1450.4504504504505 1.0038455382760245e+40
1460.4604604604606 9.852642602330549e+39
1470.4704704704704 9.668821048324005e+39
1480.4804804804805 9.487116064038755e+39
1490.4904904904906 9.307634944563516e+39
1500.5005005005005 9.130468364876213e+39
1510.5105105105106 8.955691716144489e+39
1520.5205205205207 8.783366353230854e+39
1530.5305305305305 8.61354075674427e+39
1540.5405405405404 8.446251613224953e+39
1550.5505505505505 8.281524817214699e+39
1560.5605605605606 8.119376399066965e+39
1570.5705705705705 7.959813382401944e+39
1580.5805805805805 7.802834575122307e+39
1590.5905905905906 7.648431297886681e+39
1600.6006006006005 7.496588053898159e+39
1610.6106106106106 7.347283143813084e+39
1620.6206206206207 7.200489229517975e+39
1630.6306306306305 7.056173850467381e+39
1640.6406406406406 6.914299896228553e+39
1650.6506506506507 6.77482603884785e+39
1660.6606606606606 6.637707128643395e+39
1670.6706706706707 6.502894557047725e+39
1680.6806806806808 6.370336590177662e+39
1690.6906906906906 6.239978676905513e+39
1700.7007007007007 6.111784646652182e+39
1710.7107107107108 5.985776829107892e+39
1720.7207207207207 5.861879936609829e+39
1730.7307307307308 5.740007840438992e+39
1740.7407407407409 5.620075577708602e+39
1750.7507507507507 5.501999363460159e+39
1760.7607607607606 5.385696631541067e+39
1770.770770770771 5.271086109915214e+39
1780.7807807807808 5.1580879370178016e+39
1790.7907907907907 5.046623826828664e+39
1800.8008008008007 4.9366172914926106e+39
1810.8108108108108 4.827993931537365e+39
1820.8208208208207 4.7206818049874606e+39
1830.8308308308308 4.614611887881045e+39
1840.8408408408409 4.509718639767065e+39
1850.8508508508507 4.405940688554199e+39
1860.8608608608608 4.303221649407454e+39
1870.870870870871 4.201511091988708e+39
1880.8808808808808 4.100765668884653e+39
1890.890890890891 4.0009504151513185e+39
1900.900900900901 3.902040224041904e+39
1910.9109109109108 3.8040214966218827e+39
1920.920920920921 3.706893952531038e+39
1930.930930930931 3.610672575075023e+39
1940.940940940941 3.515389645701664e+39
1950.950950950951 3.4210968005966885e+39
1960.960960960961 3.327867015944587e+39
1970.970970970971 3.2357963993602095e+39
1980.980980980981 3.1450056350539274e+39
1990.9909909909911 3.055640902523133e+39
2001.001001001001 2.967874067249128e+39
2011.0110110110109 2.881901932378871e+39
2021.0210210210212 2.797944348666142e+39
2031.031031031031 2.7162410117973054e+39
2041.0410410410411 2.6370468359442866e+39
2051.051051051051 2.5606258813439147e+39
2061.061061061061 2.4872439288734348e+39
2071.071071071071 2.4171599275618708e+39
2081.081081081081 2.3506166778920916e+39
2091.091091091091 2.2878312365946816e+39
2101.101101101101 2.2289856179060608e+39
2111.1111111111113 2.1742184046464088e+39
2121.121121121121 2.123617858722378e+39
2131.131131131131 2.0772170325926504e+39
2141.141141141141 2.034991238897532e+39
2151.151151151151 1.9968580519912745e+39
2161.161161161161 1.962679815593013e+39
2171.1711711711714 1.9322684398178844e+39
2181.1811811811813 1.9053921102999005e+39
2191.191191191191 1.8817834176970183e+39
2201.201201201201 1.8611483555023213e+39
2211.2112112112113 1.843175627879569e+39
2221.221221221221 1.827545750762307e+39
2231.2312312312315 1.8139395077473942e+39
2241.2412412412414 1.802045424135989e+39
2251.2512512512512 1.7915660343675078e+39
2261.261261261261 1.7822228280255252e+39
2271.271271271271 1.7737598580945016e+39
2281.2812812812813 1.7659460758580563e+39
2291.2912912912916 1.7585765165716732e+39
2301.3013013013015 1.7514724984450778e+39
2311.3113113113113 1.7444810163395633e+39
2321.321321321321 1.7374735141548223e+39
2331.331331331331 1.7303442100679428e+39
2341.3413413413414 1.7230081305862855e+39
2351.3513513513512 1.7153989864041478e+39
2361.3613613613616 1.7074669982937345e+39
2371.3713713713714 1.6991767569565137e+39
2381.3813813813813 1.6905051784311618e+39
2391.391391391391 1.6814395971859945e+39
2401.4014014014015 1.6719760228015378e+39
2411.4114114114113 1.6621175731900556e+39
2421.4214214214217 1.6518730873792025e+39
2431.4314314314315 1.641255913642853e+39
2441.4414414414414 1.6302828637695288e+39
2451.4514514514512 1.6189733210876396e+39
2461.4614614614616 1.6073484881151292e+39
2471.4714714714714 1.5954307590156848e+39
2481.4814814814818 1.583243202125947e+39
2491.4914914914916 1.570809138426389e+39
2501.5015015015015 1.558151802772469e+39
2511.5115115115113 1.5452940758379146e+39
2521.521521521521 1.5322582759420593e+39
2531.5315315315315 1.5190660011628533e+39
2541.541541541542 1.505738013325296e+39
2551.5515515515517 1.4922941565693407e+39
2561.5615615615616 1.4787533042231752e+39
2571.5715715715714 1.4651333286286608e+39
2581.5815815815813 1.451451089384001e+39
2591.5915915915916 1.4377224361875363e+39
2601.6016016016015 1.4239622230918536e+39
2611.611611611612 1.4101843315168656e+39
2621.6216216216217 1.3964016998325787e+39
2631.6316316316315 1.3826263577154252e+39
2641.6416416416414 1.3688694638147773e+39
2651.6516516516517 1.3551413455461622e+39
2661.6616616616616 1.3414515400622125e+39
2671.671671671672 1.3278088356476907e+39
2681.6816816816818 1.3142213129470438e+39
2691.6916916916916 1.300696385566649e+39
2701.7017017017015 1.2872408397038438e+39
2711.711711711712 1.273860872544655e+39
2721.7217217217217 1.2605621292450864e+39
2731.731731731732 1.247349738369818e+39
2741.741741741742 1.2342283457094632e+39
2751.7517517517517 1.2212021464351127e+39
2761.7617617617616 1.2082749155785968e+39
2771.7717717717715 1.1954500368499161e+39
2781.781781781782 1.1827305298210511e+39
2791.791791791792 1.1701190755186662e+39
2801.801801801802 1.1576180404779778e+39
2811.811811811812 1.145229499316968e+39
2821.8218218218217 1.1329552558947069e+39
2831.8318318318316 1.1207968631202752e+39
2841.841841841842 1.1087556414800923e+39
2851.851851851852 1.0968326963515968e+39
2861.861861861862 1.0850289341704897e+39
2871.871871871872 1.0733450775173752e+39
2881.881881881882 1.061781679187731e+39
2891.8918918918916 1.0503391353068813e+39
2901.901901901902 1.0390176975491455e+39
2911.911911911912 1.0278174845176872e+39
2921.921921921922 1.0167384923388143e+39
2931.931931931932 1.0057806045217176e+39
2941.941941941942 9.949436011318437e+38
2951.9519519519517 9.842271673233657e+38
2961.961961961962 9.736309012735609e+38
2971.971971971972 9.631543215593037e+38
2981.9819819819822 9.527968740134021e+38
2991.991991991992 9.425579380961425e+38
3002.002002002002 9.324368328151194e+38
3012.012012012012 9.224328222242936e+38
3022.0220220220217 9.125451205311769e+38
3032.032032032032 9.058517583638856e+38
3042.0420420420423 8.957896579936307e+38
3052.052052052052 8.857399373727234e+38
3062.062062062062 8.757326182207074e+38
3072.072072072072 8.657929800067987e+38
3082.0820820820823 8.559420982606572e+38
3092.092092092092 8.461973363272785e+38
3102.102102102102 8.36572792326834e+38
3112.1121121121123 8.270797035813803e+38
3122.122122122122 8.177268110864581e+38
3132.132132132132 8.08520686778922e+38
3142.1421421421423 7.994660264173235e+38
3152.152152152152 7.905659108755366e+38
3162.162162162162 7.818220385765992e+38
3172.1721721721724 7.732349316793251e+38
3182.1821821821823 7.648041184891301e+38
3192.192192192192 7.565282944072407e+38
3202.202202202202 7.484054635671466e+38
3212.2122122122123 7.404330631398411e+38
3222.222222222222 7.3260807212448e+38
3232.232232232232 7.249271062816957e+38
3242.2422422422424 7.173865007150402e+38
3252.252252252252 7.09982381463215e+38
3262.262262262262 7.027107273326566e+38
3272.2722722722724 6.955674230769779e+38
3282.2822822822823 6.885483049166717e+38
3292.292292292292 6.816491992891779e+38
3302.3023023023025 6.748659556254198e+38
3312.3123123123123 6.681944738637777e+38
3322.322322322322 6.6163072733558085e+38
3332.3323323323325 6.551707815869487e+38
3342.3423423423424 6.488108096396486e+38
3352.352352352352 6.425471041378468e+38
3362.3623623623625 6.363760867777856e+38
3372.3723723723724 6.30294315372813e+38
3382.3823823823823 6.2429848886638765e+38
3392.3923923923926 6.183854505702649e+38
3402.4024024024025 6.1255218987340216e+38
3412.4124124124123 6.067958426390252e+38
3422.4224224224226 6.0111369048223495e+38
3432.4324324324325 5.955031590982713e+38
3442.4424424424424 5.8996181579170694e+38
3452.4524524524522 5.844873663392465e+38
3462.4624624624626 5.790776513031005e+38
3472.4724724724724 5.73730641897978e+38
3482.4824824824823 5.684444355023045e+38
3492.4924924924926 5.632172508932613e+38
3502.5025025025025 5.580474232753749e+38
3512.5125125125123 5.529333991636577e+38
3522.5225225225226 5.47873731174495e+38
3532.5325325325325 5.428670727705228e+38
3542.5425425425424 5.379121729995647e+38
3552.5525525525527 5.330078712621699e+38
3562.5625625625626 5.281530921373902e+38
3572.5725725725724 5.233468402920469e+38
3582.5825825825827 5.185881954948484e+38
3592.5925925925926 5.138763077532329e+38
3602.6026026026025 5.09210392587736e+38
3612.612612612613 5.0458972645591665e+38
3622.6226226226227 5.000136423354512e+38
3632.6326326326325 4.9548152547382104e+38
3642.642642642643 4.909928093101211e+38
3652.6526526526527 4.865469715728052e+38
3662.6626626626626 4.821435305556905e+38
3672.672672672673 4.7778204157324576e+38
3682.6826826826828 4.734620935950183e+38
3692.6926926926926 4.691833060580585e+38
3702.7027027027025 4.649453258553324e+38
3712.712712712713 4.6074782449735795e+38
3722.7227227227227 4.565904954436644e+38
3732.7327327327325 4.5247305160011166e+38
3742.742742742743 4.483952229776768e+38
3752.7527527527527 4.443567545079089e+38
3762.7627627627626 4.403574040099655e+38
3772.772772772773 4.36396940303895e+38
3782.7827827827828 4.3247514146463944e+38
3792.7927927927926 4.285917932111077e+38
3802.802802802803 4.2474668742457476e+38
3812.812812812813 4.209396207906149e+38
3822.8228228228227 4.171703935587702e+38
3832.832832832833 4.134388084141767e+38
3842.842842842843 4.097446694554106e+38
3852.8528528528527 4.060877812729052e+38
3862.862862862863 4.024679481223709e+38
3872.872872872873 3.988849731877737e+38
3882.8828828828828 3.9533865792854526e+38
3892.892892892893 3.9182880150585566e+38
3902.902902902903 3.8835520028291606e+38
3912.912912912913 3.849176473944487e+38
3922.922922922923 3.815159323806306e+38
3932.932932932933 3.781498408809915e+38
3942.942942942943 3.748191543839162e+38
3952.9529529529527 3.7152365002759135e+38
3962.962962962963 3.682631004484183e+38
3972.972972972973 3.650372736730846e+38
3982.982982982983 3.618459330506769e+38
3992.992992992993 3.5868883722139455e+38
4003.003003003003 3.555657401186049e+38
4013.013013013013 3.524763910011385e+38
4023.023023023023 3.494205345129156e+38
4033.033033033033 3.463979107671433e+38
4043.043043043043 3.434082554524939e+38
4053.053053053053 3.4045129995882924e+38
4063.063063063063 3.3752677152018507e+38
4073.073073073073 3.3463439337288297e+38
4083.0830830830832 3.317738849267712e+38
4093.093093093093 3.289449619477381e+38
4103.103103103103 3.261473367497653e+38
4113.113113113113 3.233807183949229e+38
4123.123123123123 3.2064481289981196e+38
4133.133133133133 3.1793932344709252e+38
4143.143143143143 3.1526395060082813e+38
4153.153153153153 3.126183925244872e+38
4163.163163163163 3.1000234520053675e+38
4173.173173173173 3.0741550265065966e+38
4183.183183183183 3.0485755715570804e+38
4193.193193193193 3.0232819947459104e+38
4203.203203203203 2.9982711906137226e+38
4213.213213213214 2.97354004279925e+38
4223.223223223224 2.9490854261555733e+38
4233.2332332332335 2.9249042088308904e+38
4243.243243243243 2.900993254309171e+38
4253.253253253253 2.877349423406657e+38
4263.263263263263 2.8539695762206513e+38
4273.273273273273 2.8308505740275393e+38
4283.283283283283 2.8079892811274233e+38
4293.293293293293 2.7853825666332036e+38
4303.303303303303 2.7630273062022375e+38
4313.313313313313 2.740920383709156e+38
4323.323323323323 2.7190586928586624e+38
4333.333333333334 2.6974391387374995e+38
4343.343343343344 2.676058639305002e+38
4353.353353353354 2.6549141268218956e+38
4363.3633633633635 2.6340025492172775e+38
4373.373373373373 2.6133208713938685e+38
4383.383383383383 2.5928660764718325e+38
4393.393393393393 2.5726351669716382e+38
4403.403403403403 2.5526251659365606e+38
4413.413413413413 2.5328331179955772e+38
4423.423423423424 2.513256090367538e+38
4433.4334334334335 2.4938911738075557e+38
4443.443443443443 2.4747354834967e+38
4453.453453453454 2.455786159876129e+38
4463.463463463464 2.4370403694269117e+38
4473.473473473474 2.418495305396721e+38
4483.483483483484 2.400148188474847e+38
4493.493493493494 2.3819962674167844e+38
4503.503503503503 2.3640368196198626e+38
4513.513513513513 2.346267151651313e+38
4523.523523523523 2.3286845997301983e+38
4533.533533533533 2.31128653016472e+38
4543.543543543543 2.2940703397462907e+38
4553.553553553554 2.2770334561018855e+38
4563.563563563564 2.260173338006133e+38
4573.573573573573 2.2434874756545713e+38
4583.583583583584 2.226973390899552e+38
4593.593593593594 2.2106286374502017e+38
4603.603603603604 2.194450801037863e+38
4613.613613613614 2.178437499548426e+38
4623.623623623624 2.1625863831228983e+38
4633.6336336336335 2.146895134227602e+38
4643.643643643643 2.1313614676953058e+38
4653.653653653653 2.1159831307385842e+38
4663.663663663663 2.100757902936714e+38
4673.673673673674 2.0856835961973138e+38
4683.683683683684 2.0707580546939787e+38
4693.693693693694 2.055979154781061e+38
4703.703703703704 2.0413448048867812e+38
4713.713713713714 2.0268529453857868e+38
4723.723723723724 2.0125015484522325e+38
4733.733733733734 1.998288617894461e+38
4743.743743743744 1.9842121889723222e+38
4753.753753753754 1.970270328198091e+38
4763.763763763764 1.956461133121996e+38
4773.773773773773 1.9427827321032435e+38
4783.783783783783 1.9292332840675032e+38
4793.793793793793 1.9158109782516534e+38
4803.803803803804 1.9025140339366887e+38
4813.813813813814 1.889340700169575e+38
4823.823823823824 1.876289255474837e+38
4833.833833833834 1.8633580075566343e+38
4843.843843843844 1.850545292992056e+38
4853.853853853854 1.837849476916324e+38
4863.863863863864 1.82526895270058e+38
4873.873873873874 1.8128021416228994e+38
4883.883883883884 1.8004474925331553e+38
4893.893893893894 1.788203481512315e+38
4903.9039039039035 1.7760686115267497e+38
4913.913913913913 1.764041412078088e+38
4923.923923923924 1.752120438849148e+38
4933.933933933934 1.740304273346448e+38
4943.943943943944 1.728591522539739e+38
4953.953953953955 1.7169808184990713e+38
4963.9639639639645 1.705470818029778e+38
4973.973973973974 1.6940602023058134e+38
4983.983983983984 1.6827476765018423e+38
4993.993993993994 1.671531969424446e+38
5004.004004004004 1.6604118331428087e+38
5014.014014014014 1.6493860426192268e+38
5024.024024024024 1.6384533953397512e+38
5034.0340340340335 1.6276127109452975e+38
5044.044044044043 1.6168628308634719e+38
5054.054054054054 1.6062026179414313e+38
5064.064064064064 1.5956309560800108e+38
5074.074074074074 1.5851467498693726e+38
5084.084084084085 1.5747489242264101e+38
5094.0940940940945 1.5644364240341291e+38
5104.104104104104 1.5542082137832047e+38
5114.114114114114 1.5440632772159103e+38
5124.124124124124 1.5340006169726115e+38
5134.134134134134 1.5240192542409797e+38
5144.144144144144 1.5141182284080967e+38
5154.154154154154 1.504296596715595e+38
5164.1641641641645 1.4945534339179745e+38
5174.174174174174 1.48488783194423e+38
5184.184184184184 1.4752988995628957e+38
5194.194194194194 1.4657857620506354e+38
5204.204204204204 1.4563475608644758e+38
5214.214214214214 1.446983453317766e+38
5224.224224224225 1.4376926122599657e+38
5234.2342342342345 1.428474225760341e+38
5244.244244244244 1.419327496795615e+38
5254.254254254254 1.4102516429416803e+38
5264.264264264264 1.4012458960693895e+38
5274.274274274274 1.3923095020445087e+38
5284.284284284285 1.3834417204318567e+38
5294.294294294295 1.3746418242036864e+38
5304.304304304304 1.3659090994523295e+38
5314.314314314314 1.3572428451071487e+38
5324.324324324324 1.3486423726558055e+38
5334.334334334334 1.340107005869882e+38
5344.344344344345 1.3316360805348434e+38
5354.354354354355 1.3232289441843948e+38
5364.3643643643645 1.3148849558391862e+38
5374.374374374374 1.3066034857499176e+38
5384.384384384384 1.2983839151448043e+38
5394.394394394394 1.290225635981425e+38
5404.404404404404 1.2821280507029265e+38
5414.414414414415 1.2740905719985823e+38
5424.424424424425 1.2661126225686899e+38
5434.4344344344345 1.2581936348937839e+38
5444.444444444444 1.2503330510081496e+38
5454.454454454454 1.2425303222776178e+38
5464.464464464464 1.234784909181606e+38
5474.474474474475 1.2270962810993843e+38
5484.484484484485 1.2194639161005368e+38
5494.494494494495 1.2118873007395829e+38
5504.504504504504 1.2043659298547327e+38
5514.514514514514 1.1968993063707262e+38
5524.524524524524 1.1894869411057405e+38
5534.534534534535 1.1821283525823042e+38
5544.544544544545 1.1748230668421963e+38
5554.554554554555 1.1675706172652736e+38
5564.5645645645645 1.1603705443921986e+38
5574.574574574574 1.1532223957510108e+38
5584.584584584584 1.1461257256875069e+38
5594.594594594595 1.139080095199368e+38
5604.604604604605 1.132085071774019e+38
5614.614614614615 1.1251402292301246e+38
5624.624624624625 1.118245147562721e+38
5634.6346346346345 1.1113994127919052e+38
5644.644644644644 1.1046026168150373e+38
5654.654654654654 1.0978543572624158e+38
5664.664664664665 1.0911542373563587e+38
5674.674674674675 1.0845018657736593e+38
5684.684684684685 1.077896856511342e+38
5694.694694694695 1.0713388287556883e+38
5704.704704704704 1.0648274067544661e+38
5714.714714714714 1.0583622196923164e+38
5724.724724724725 1.0519429015692436e+38
5734.734734734735 1.0455690910821592e+38
5744.744744744745 1.0392404315094215e+38
5754.754754754755 1.0329565705983227e+38
5764.764764764765 1.0267171604554722e+38
5774.774774774774 1.020521857440022e+38
5784.784784784785 1.0143703220596778e+38
5794.794794794795 1.0082622188694533e+38
5804.804804804805 1.0021972163731078e+38
5814.814814814815 9.961749869272174e+37
5824.824824824825 9.901952066478346e+37
5834.8348348348345 9.842575553196711e+37
5844.844844844845 9.783617163077758e+37
5854.854854854855 9.725073764716304e+37
5864.864864864865 9.666942260816354e+37
5874.874874874875 9.609219587379245e+37
5884.884884884885 9.551902712914645e+37
