#lamb flux
1000.0 0.062118093031875786
1010.01001001001 0.06307348552554712
1020.0200200200201 0.06387936625068684
1030.03003003003 0.06454409845580376
1040.0400400400401 0.06507648894405264
1050.05005005005 0.06548558976735544
1060.06006006006 0.0657805308467164
1070.07007007007 0.0659703813630731
1080.08008008008 0.06606403736086586
1090.0900900900901 0.06607013280599838
1100.1001001001 0.0659969712922875
1110.11011011011 0.0658524756544633
1120.1201201201202 0.06564415288711224
1130.13013013013 0.06537907196026391
1140.1401401401401 0.0650638523422004
1150.1501501501502 0.06470466127231589
1160.16016016016 0.06430721805956735
1170.1701701701702 0.0638768039068772
1180.1801801801803 0.06341827597319667
1190.1901901901902 0.06293608457941716
1200.2002002002002 0.06243429264017068
1210.2102102102103 0.061916596560235446
1220.2202202202202 0.06138634797206379
1230.2302302302303 0.060846575810763665
1240.2402402402402 0.06030000832594468
1250.2502502502502 0.05974543738742049
1260.2602602602603 0.059174399866668906
1270.2702702702702 0.0585701990386082
1280.2802802802803 0.057936468712581866
1290.2902902902902 0.0572766263104886
1300.3003003003003 0.05659387635242363
1310.3103103103103 0.05589121529675833
1320.3203203203202 0.05517143746268326
1330.3303303303303 0.0544371417970444
1340.3403403403404 0.05369073927838303
1350.3503503503503 0.05293446077943123
1360.3603603603603 0.05217036523495008
1370.3703703703704 0.051400347984822674
1380.3803803803803 0.050626149182855566
1390.3903903903904 0.04984936217995637
1400.4004004004005 0.04907144180640573
1410.4104104104103 0.0482937124920046
1420.4204204204204 0.04751737617512761
1430.4304304304305 0.04674351996232043
1440.4404404404404 0.045973123509210616
1450.4504504504505 0.04520706610131125
1460.4604604604606 0.0444461334199357
1470.4704704704704 0.04369102398404033
1480.4804804804805 0.042942355263502374
1490.4904904904906 0.042200669463229756
1500.5005005005005 0.04146643898069757
1510.5105105105106 0.040740071542103205
1520.5205205205207 0.040021915024414455
1530.5305305305305 0.039312261972225745
1540.5405405405404 0.03861135381960802
1550.5505505505505 0.0379193848280949
1560.5605605605606 0.03723650575264541
1570.5705705705705 0.03656282724791451
1580.5805805805805 0.03589842302748169
1590.5905905905906 0.03524333278888346
1600.6006006006005 0.0345975649173949
1610.6106106106106 0.03396109898154778
1620.6206206206207 0.03333388803338328
1630.6306306306305 0.03271586072644967
1640.6406406406406 0.03210692326459434
1650.6506506506507 0.03150696119469775
1660.6606606606606 0.030915841056676288
1670.6706706706707 0.030333411904382098
1680.6806806806808 0.0297595067114702
1690.6906906906906 0.02919394367693315
1700.7007007007007 0.028636617979824017
1710.7107107107108 0.02808767638734615
1720.7207207207207 0.0275468412888862
1730.7307307307308 0.027013784990252816
1740.7407407407409 0.026488181716824842
1750.7507507507507 0.025969707757198174
1760.7607607607606 0.02545804172664923
1770.770770770771 0.024952864976377276
1780.7807807807808 0.024453862178976514
1790.7907907907907 0.023960722125605453
1800.8008008008007 0.02347313877582715
1810.8108108108108 0.022990812607002534
1820.8208208208207 0.022513452316260264
1830.8308308308308 0.022040776934171145
1840.8408408408409 0.021572518414899367
1850.8508508508507 0.02110842477218406
1860.8608608608608 0.02064826383316951
1870.870870870871 0.020191827681706864
1880.8808808808808 0.019738937857798265
1890.890890890891 0.019289451368459738
1900.900900900901 0.018843267545162346
1910.9109109109108 0.018400335751531327
1920.920920920921 0.01796066389929124
1930.930930930931 0.017524327667724618
1940.940940940941 0.017091480239834977
1950.950950950951 0.016662362265765104
1960.960960960961 0.016237311641623262
1970.970970970971 0.015816772553600787
1980.980980980981 0.015401303091277074
1990.9909909909911 0.014991580593771031
2001.001001001001 0.014588403777295512
2011.0110110110109 0.014192690627667825
2021.0210210210212 0.013805471055206039
2031.031031031031 0.013427873431169267
2041.0410410410411 0.013061104378069595
2051.051051051051 0.012706421581919267
2061.061061061061 0.012365099924092087
2071.071071071071 0.0120383918598203
2081.081081081081 0.011727483638177879
2091.091091091091 0.01143344958089513
2101.101101101101 0.011157207119471923
2111.1111111111113 0.010899475542578847
2121.121121121121 0.010660741364393834
2131.131131131131 0.010441232866304741
2141.141141141141 0.010240905716043018
2151.151151151151 0.01005944070389134
2161.161161161161 0.00989625366354717
2171.1711711711714 0.009750516687955513
2181.1811811811813 0.009621188922228298
2191.191191191191 0.00950705460419821
2201.201201201201 0.009406765677791657
2211.2112112112113 0.00931888623413104
2221.221221221221 0.00924193621301716
2231.2312312312315 0.009174432169893033
2241.2412412412414 0.009114923412916745
2251.2512512512512 0.00906202237103676
2261.261261261261 0.009014428603519004
2271.271271271271 0.008970946354238177
2281.2812812812813 0.008930495956965557
2291.2912912912916 0.008892119694575122
2301.3013013013015 0.008854982904101177
2311.3113113113113 0.008818371210723415
2321.321321321321 0.008781684783972248
2331.331331331331 0.0087444304589092
2341.3413413413414 0.008706212473972557
2351.3513513513512 0.00866672246366043
2361.3613613613616 0.008625729222936099
2371.3713713713714 0.00858306864205149
2381.3813813813813 0.008538634102613454
2391.391391391391 0.008492367532255986
2401.4014014014015 0.00844425123787608
2411.4114114114113 0.00839430057593658
2421.4214214214217 0.008342557471601425
2431.4314314314315 0.008289084764584176
2441.4414414414414 0.008233961336445035
2451.4514514514512 0.008177277959554393
2461.4614614614616 0.008119133800103909
2471.4714714714714 0.008059633504690843
2481.4814814814818 0.007998884800705255
2491.4914914914916 0.007936996543868636
2501.5015015015015 0.007874077150912378
2511.5115115115113 0.007810233360871122
2521.521521521521 0.007745569274306202
2531.5315315315315 0.007680185625622236
2541.541541541542 0.007614179249262858
2551.5515515515517 0.007547642705824609
2561.5615615615616 0.0074806640389298755
2571.5715715715714 0.007413326638015515
2581.5815815815813 0.007345709186019366
2591.5915915915916 0.007277885674300605
2601.6016016016015 0.007209925470041631
2611.611611611612 0.0071418934238870095
2621.6216216216217 0.0070738500077197185
2631.6316316316315 0.0070058514742970795
2641.6416416416414 0.006937950032008981
2651.6516516516517 0.006870194029315029
2661.6616616616616 0.006802628144500057
2671.671671671672 0.006735293577288456
2681.6816816816818 0.006668228239604664
2691.6916916916916 0.006601466943382779
2701.7017017017015 0.006535041583833786
2711.711711711712 0.006468981316991544
2721.7217217217217 0.006403312730693722
2731.731731731732 0.006338060008424272
2741.741741741742 0.006273245085660857
2751.7517517517517 0.006208887798542667
2761.7617617617616 0.0061450060248099785
2771.7717717717715 0.006081615817071866
2781.781781781782 0.006018731528539628
2791.791791791792 0.005956365931424077
2801.801801801802 0.005894530328239175
2811.811811811812 0.005833234656285946
2821.8218218218217 0.005772487585611187
2831.8318318318316 0.005712296610747838
2841.841841841842 0.00565266813654963
2851.851851851852 0.005593607558432993
2861.861861861862 0.005535119337335814
2871.871871871872 0.005477207069695989
2881.881881881882 0.0054198735527439664
2891.8918918918916 0.005363120845393003
2901.901901901902 0.005306950324999237
2911.911911911912 0.005251362740251533
2921.921921921922 0.005196358260438186
2931.931931931932 0.005141936521324945
2941.941941941942 0.00508809666786585
2951.9519519519517 0.005034837393955954
2961.961961961962 0.004982156979422648
2971.971971971972 0.004930053324440475
2981.9819819819822 0.004878523981542883
2991.991991991992 0.00482756618539348
3002.002002002002 0.004777176880468903
3012.012012012012 0.0047273527467956164
3022.0220220220217 0.004678090223873492
3032.032032032032 0.004643972184864402
3042.0420420420423 0.0045939090377033346
3052.052052052052 0.004543914104167889
3062.062062062062 0.004494129404097339
3072.072072072072 0.004444674652085308
3082.0820820820823 0.00439564977947752
3092.092092092092 0.004347137237295673
3102.102102102102 0.004299204089128475
3112.1121121121123 0.004251903905096161
3122.122122122122 0.0042052784692665065
3132.132132132132 0.004159359313560962
3142.1421421421423 0.004114169091387396
3152.152152152152 0.004069722804090775
3162.162162162162 0.004026028892921787
3172.1721721721724 0.003983090208660756
3182.1821821821823 0.003940904870360567
3192.192192192192 0.0038994670239326993
3202.202202202202 0.0038587675105300778
3212.2122122122123 0.0038187944539048633
3222.222222222222 0.0037795337751575795
3232.232232232232 0.0037409696425593445
3242.2422422422424 0.003703084863430424
3252.252252252252 0.003665861224401364
3262.262262262262 0.003629279785770921
3272.2722722722724 0.0035933211351088607
3282.2822822822823 0.0035579656047312557
3292.292292292292 0.003523193457200124
3302.3023023023025 0.0034889850425659764
3312.3123123123123 0.0034553209306789697
3322.322322322322 0.003422182021539153
3332.3323323323325 0.0033895496363358737
3342.3423423423424 0.0033574055915384857
3352.352352352352 0.0033257322581416123
3362.3623623623625 0.0032945126079365994
3372.3723723723724 0.0032637302484731547
3382.3823823823823 0.003233369448189624
3392.3923923923926 0.00320341515302492
3402.4024024024025 0.00317385299567693
3412.4124124124123 0.003144669298540598
3422.4224224224226 0.0031158510712411998
3432.4324324324325 0.0030873860035735227
3442.4424424424424 0.003059262454564312
3452.4524524524522 0.0030314694382921215
3462.4624624624626 0.003003996607024563
3472.4724724724724 0.0029768342321669183
3482.4824824824823 0.0029499731834570914
3492.4924924924926 0.0029234049067895537
3502.5025025025025 0.002897121401003965
3512.5125125125123 0.002871115193932566
3522.5225225225226 0.002845379317963148
3532.5325325325325 0.002819907285341189
3542.5425425425424 0.002794693063405221
3552.5525525525527 0.002769731049922942
3562.5625625625626 0.0027450160486721165
3572.5725725725724 0.0027205432453892104
3582.5825825825827 0.0026963081841900167
3592.5925925925926 0.002672306744549748
3602.6026026026025 0.0026485351189152475
3612.612612612613 0.0026249897910086903
3622.6226226226227 0.0026016675148703775
3632.6326326326325 0.002578565294677749
3642.642642642643 0.002555680365368558
3652.6526526526527 0.0025330101740878236
3662.6626626626626 0.0025105523624710533
3672.672672672673 0.002488304749769843
3682.6826826826828 0.0024662653168203703
3692.6926926926926 0.00244443219085042
3702.7027027027025 0.002422803631116393
3712.712712712713 0.0024013780153580725
3722.7227227227227 0.0023801538270558126
3732.7327327327325 0.0023591296434720913
3742.742742742743 0.002338304124457254
3752.7527527527527 0.0023176760019973023
3762.7627627627626 0.0022972440704801212
3772.772772772773 0.0022770071776553684
3782.7827827827828 0.0022569642162622496
3792.7927927927926 0.002237114116298788
3802.802802802803 0.002217455837905721
3812.812812812813 0.002197988364837874
3822.8228228228227 0.0021787106984958037
3832.832832832833 0.0021596218524905764
3842.842842842843 0.0021407208477146906
3852.8528528528527 0.0021220067078925754
3862.862862862863 0.0021034784555844068
3872.872872872873 0.0020851351086176007
3882.8828828828828 0.002066975676920819
3892.892892892893 0.0020489991597361238
3902.902902902903 0.0020312045431854393
3912.912912912913 0.0020135907981683895
3922.922922922923 0.0019961568785692436
3932.932932932933 0.0019789017197516224
3942.942942942943 0.0019618242373202932
3952.9529529529527 0.0019449233261303875
3962.962962962963 0.0019281978595251117
3972.972972972973 0.0019116466887838884
3982.982982982983 0.0018952686427637518
3992.992992992993 0.0018790625277176022
4003.003003003003 0.0018630271272738245
4013.013013013013 0.001847161202562499
4023.023023023023 0.0018314634924743137
4033.033033033033 0.0018159327140390364
4043.043043043043 0.0018005675629111416
4053.053053053053 0.0017853667139509826
4063.063063063063 0.0017703288218905463
4073.073073073073 0.001755452522073588
4083.0830830830832 0.0017407364312605565
4093.093093093093 0.0017261791484893935
4103.103103103103 0.001711779255983888
4113.113113113113 0.0016975353201018873
4123.123123123123 0.0016834458923161647
4133.133133133133 0.0016695095102213719
4143.143143143143 0.0016557246985609484
4153.153153153153 0.0016420899702683594
4163.163163163163 0.0016286038275175254
4173.173173173173 0.0016152647627777081
4183.183183183183 0.0016020712598685605
4193.193193193193 0.0015890217950114125
4203.203203203203 0.0015761148378732564
4213.213213213214 0.0015633488526002398
4223.223223223224 0.0015507222988377664
4233.2332332332335 0.00153823363273466
4243.243243243243 0.0015258813079290989
4253.253253253253 0.0015136637765142988
4263.263263263263 0.0015015794899821942
4273.273273273273 0.0014896269001435515
4283.283283283283 0.0014778044600232236
4293.293293293293 0.0014661106247294135
4303.303303303303 0.0014545438522959929
4313.313313313313 0.001443102604497146
4323.323323323323 0.0014317853476336893
4333.333333333334 0.0014205905532906362
4343.343343343344 0.0014095166990656604
4353.353353353354 0.0013985622692682437
4363.3633633633635 0.0013877257555894222
4373.373373373373 0.0013770056577421229
4383.383383383383 0.0013664004840721897
4393.393393393393 0.0013559087521402711
4403.403403403403 0.0013455289892748252
4413.413413413413 0.0013352597330965458
4423.423423423424 0.0013250995320146124
4433.4334334334335 0.0013150469456951661
4443.443443443443 0.0013051005455025034
4453.453453453454 0.0012952589149135012
4463.463463463464 0.0012855206499058362
4473.473473473474 0.0012758843593205533
4483.483483483484 0.001266348665199633
4493.493493493494 0.0012569122030991538
4503.503503503503 0.0012475736223787172
4513.513513513513 0.0012383315864678023
4523.523523523523 0.0012291847731096964
4533.533533533533 0.0012201318745837326
4543.543543543543 0.001211171597906467
4553.553553553554 0.0012023026650125278
4563.563563563564 0.001193523812915811
4573.573573573573 0.0011848337938517063
4583.583583583584 0.0011762313754010536
4593.593593593594 0.0011677153405964993
4603.603603603604 0.0011592844880119312
4613.613613613614 0.0011509376318356644
4623.623623623624 0.0011426736019280205
4633.6336336336335 0.0011344912438639664
4643.643643643643 0.0011263894189614363
4653.653653653653 0.0011183670042959654
4663.663663663663 0.0011104228927022492
4673.673673673674 0.0011025559927632276
4683.683683683684 0.0010947652287872792
4693.693693693694 0.001087049540774097
4703.703703703704 0.0010794078843698028
4713.713713713714 0.0010718392308118533
4723.723723723724 0.001064342566864253
4733.733733733734 0.0010569168947435917
4743.743743743744 0.001049561232036419
4753.753753753754 0.001042274611608422
4763.763763763764 0.00103505608150589
4773.773773773773 0.0010279047048499085
4783.783783783783 0.001020819559723741
4793.793793793793 0.0010137997390538061
4803.803803803804 0.0010068443504846708
4813.813813813814 0.00099995251624846
4823.823823823824 0.0009931233730290573
4833.833833833834 0.0009863560718214731
4843.843843843844 0.0009796497777867384
4853.853853853854 0.0009730036701026559
4863.863863863864 0.0009664169418107533
4873.873873873874 0.0009598887996597434
4883.883883883884 0.0009534184639458068
4893.893893893894 0.000947005168349979
4903.9039039039035 0.0009406481597729314
4913.913913913913 0.0009343466981674098
4923.923923923924 0.0009281000563685923
4933.933933933934 0.0009219075199226141
4943.943943943944 0.0009157683869134863
4953.953953953955 0.0009096819677886499
4963.9639639639645 0.0009036475851833696
4973.973973973974 0.0008976645737441736
4983.983983983984 0.0008917322799515465
4993.993993993994 0.0008858500619420486
5004.004004004004 0.0008800172893300495
5014.014014014014 0.0008742333430292497
5024.024024024024 0.0008684976150741309
5034.0340340340335 0.0008628095084415227
5044.044044044043 0.0008571684368723965
5054.054054054054 0.0008515738246940479
5064.064064064064 0.0008460251066427929
5074.074074074074 0.0008405217276872937
5084.084084084085 0.0008350631428526435
5094.0940940940945 0.000829648817045315
5104.104104104104 0.0008242782248790734
5114.114114114114 0.0008189508505019609
5124.124124124124 0.0008136661874244376
5134.134134134134 0.0008084237383487694
5144.144144144144 0.0008032230149997441
5154.154154154154 0.0007980635379567877
5164.1641641641645 0.0007929448364875618
5174.174174174174 0.0007878664483830971
5184.184184184184 0.0007828279197945312
5194.194194194194 0.0007778288050715071
5204.204204204204 0.0007728686666022879
5214.214214214214 0.0007679470746556281
5224.224224224225 0.000763063607224457
5234.2342342342345 0.0007582178498714107
5244.244244244244 0.0007534093955762452
5254.254254254254 0.0007486378445851775
5264.264264264264 0.0007439028042621719
5274.274274274274 0.0007392038889422087
5284.284284284285 0.0007345407197865557
5294.294294294295 0.0007299129246400658
5304.304304304304 0.0007253201378905157
5314.314314314314 0.0007207620003300112
5324.324324324324 0.000716238159018461
5334.334334334334 0.0007117482671491411
5344.344344344345 0.0007072919839163498
5354.354354354355 0.0007028689743851706
5364.3643643643645 0.0006984789093633332
5374.374374374374 0.0006941214652751934
5384.384384384384 0.000689796324037814
5394.394394394394 0.0006855031729391627
5404.404404404404 0.0006812417045184108
5414.414414414415 0.0006770116164483386
5424.424424424425 0.000672812611419835
5434.4344344344345 0.0006686443970284855
5444.444444444444 0.0006645066856632428
5454.454454454454 0.0006603991943971686
5464.464464464464 0.0006563216448802313
5474.474474474475 0.0006522737632341537
5484.484484484485 0.0006482552799492945
5494.494494494495 0.0006442659297835446
5504.504504504504 0.0006403054516632329
5514.514514514514 0.0006363735885860135
5524.524524524524 0.0006324700875257268
5534.534534534535 0.0006285946993392107
5544.544544544545 0.0006247471786750445
5554.554554554555 0.0006209272838842053
5564.5645645645645 0.0006171347769326196
5574.574574574574 0.0006133694233155867
5584.584584584584 0.0006096309919740528
5594.594594594595 0.0006059192552127124
5604.604604604605 0.0006022339886199231
5614.614614614615 0.0005985749709893955
5624.624624624625 0.000594941984243652
5634.6346346346345 0.0005913348133592205
5644.644644644644 0.00058775324629354
5654.654654654654 0.0005841970739135607
5664.664664664665 0.0005806660899260022
5674.674674674675 0.0005771600908092645
5684.684684684685 0.0005736788757469419
5694.694694694695 0.0005702222465629379
5704.704704704704 0.0005667900076581426
5714.714714714714 0.0005633819659486525
5724.724724724725 0.0005599979308055066
5734.734734734735 0.0005566377139959128
5744.744744744745 0.0005533011296259402
5754.754754754755 0.0005499879940846521
5764.764764764765 0.0005466981259896546
5774.774774774774 0.0005434313461340341
5784.784784784785 0.000540187477434661
5794.794794794795 0.0005369663448818307
5804.804804804805 0.0005337677754902232
5814.814814814815 0.0005305915982511478
5824.824824824825 0.0005274376440860567
5834.8348348348345 0.0005243057458012954
5844.844844844845 0.0005211957380440741
5854.854854854855 0.0005181074572596246
5864.864864864865 0.000515040741649527
5874.874874874875 0.0005119954311311819
5884.884884884885 0.0005089713672983984
5894.894894894895 0.0005059683933830802
5904.9049049049045 0.0005029863542179831
5914.914914914915 0.0005000250962005229
5924.924924924925 0.0004970844672576096
5934.934934934935 0.0004941643168114835
5944.944944944945 0.0004912644957465362
5954.954954954955 0.0004883848563770859
5964.964964964965 0.00048552525241609567
5974.974974974975 0.00048268553894480155
5984.984984984985 0.0004798655723832401
5994.994994994995 0.0004770652104616448
6005.005005005005 0.00047428431219269704
6015.015015015015 0.00047152273784460794
6025.025025025025 0.0004687803489150139
6035.035035035035 0.0004660570081056587
