#lamb flux
1000.0 4.268733717149777e+40
1010.01001001001 4.729693845846937e+40
1020.0200200200201 5.203579034991453e+40
1030.03003003003 5.687910697963464e+40
1040.0400400400401 6.180336160768646e+40
1050.05005005005 6.678667176592418e+40
1060.06006006006 7.180908251299167e+40
1070.07007007007 7.685275616519097e+40
1080.08008008008 8.190207924529508e+40
1090.0900900900901 8.694369862290143e+40
1100.1001001001 9.196649914131728e+40
1110.11011011011 9.69615346653919e+40
1120.1201201201202 1.019219236484688e+41
1130.13013013013 1.0684271918062205e+41
1140.1401401401401 1.1172076218687797e+41
1150.1501501501502 1.165545251027536e+41
1160.16016016016 1.213439520448836e+41
1170.1701701701702 1.2609030027096428e+41
1180.1801801801803 1.3079598661912693e+41
1190.1901901901902 1.3546444164925751e+41
1200.2002002002002 1.4009997338275743e+41
1210.2102102102103 1.4470764184922415e+41
1220.2202202202202 1.4929314508934792e+41
1230.2302302302303 1.5386271682038385e+41
1240.2402402402402 1.5842303562970745e+41
1250.2502502502502 1.6295653520321672e+41
1260.2602602602603 1.6739342441754525e+41
1270.2702702702702 1.715954471173623e+41
1280.2802802802803 1.7555916537636684e+41
1290.2902902902902 1.7928267250784058e+41
1300.3003003003003 1.8276545412263594e+41
1310.3103103103103 1.86008249856328e+41
1320.3203203203202 1.8901291774470544e+41
1330.3303303303303 1.9178230283867387e+41
1340.3403403403404 1.9432011129989684e+41
1350.3503503503503 1.9663079090829445e+41
1360.3603603603603 1.9871941864150366e+41
1370.3703703703704 2.005915957531553e+41
1380.3803803803803 2.0225335057915333e+41
1390.3903903903904 2.037110491363448e+41
1400.4004004004005 2.049713134430169e+41
1410.4104104104103 2.0604094738247277e+41
1420.4204204204204 2.0692686984634953e+41
1430.4304304304305 2.0763605483035154e+41
1440.4404404404404 2.081754781088175e+41
1450.4504504504505 2.0855207008334653e+41
1460.4604604604606 2.087726743821873e+41
1470.4704704704704 2.0884401177903483e+41
1480.4804804804805 2.0877264900039455e+41
1490.4904904904906 2.0856497199804157e+41
1500.5005005005005 2.082271632758838e+41
1510.5105105105106 2.0776518287751304e+41
1520.5205205205207 2.0718475266080053e+41
1530.5305305305305 2.0649134350826468e+41
1540.5405405405404 2.056901651458726e+41
1550.5505505505505 2.0478615826788954e+41
1560.5605605605606 2.0378398869095152e+41
1570.5705705705705 2.0268804328640426e+41
1580.5805805805805 2.015024274659087e+41
1590.5905905905906 2.0023096402128518e+41
1600.6006006006005 1.9887719314550428e+41
1610.6106106106106 1.974443734877218e+41
1620.6206206206207 1.9593548412137778e+41
1630.6306306306305 1.9435322733088527e+41
1640.6406406406406 1.9270003214951313e+41
1650.6506506506507 1.9097805860908255e+41
1660.6606606606606 1.8918920269136596e+41
1670.6706706706707 1.8733510200205036e+41
1680.6806806806808 1.854171422212279e+41
1690.6906906906906 1.8343646442012706e+41
1700.7007007007007 1.813953881167047e+41
1710.7107107107108 1.7930020714713456e+41
1720.7207207207207 1.771506085062455e+41
1730.7307307307308 1.749453991271348e+41
1740.7407407407409 1.7268332034475332e+41
1750.7507507507507 1.7036305955163733e+41
1760.7607607607606 1.679832649042979e+41
1770.770770770771 1.6554256361948001e+41
1780.7807807807808 1.630395844667511e+41
1790.7907907907907 1.604729851313095e+41
1800.8008008008007 1.578414851848337e+41
1810.8108108108108 1.5514390545734954e+41
1820.8208208208207 1.5237921464214848e+41
1830.8308308308308 1.495465839789281e+41
1840.8408408408409 1.4664545083471025e+41
1850.8508508508507 1.4367559192150676e+41
1860.8608608608608 1.406372067342224e+41
1870.870870870871 1.3753101153839813e+41
1880.8808808808808 1.343583438585843e+41
1890.890890890891 1.31121276886359e+41
1900.900900900901 1.2782274251540556e+41
1910.9109109109108 1.2446666079822408e+41
1920.920920920921 1.210580724953657e+41
1930.930930930931 1.1760327006403719e+41
1940.940940940941 1.1410992094961437e+41
1950.950950950951 1.1058717548391393e+41
1960.960960960961 1.0704575019334576e+41
1970.970970970971 1.034979760725174e+41
1980.980980980981 9.995780063586354e+40
1990.9909909909911 9.644073261446942e+40
2001.001001001001 9.29637193184514e+40
2011.0110110110109 8.954494919127558e+40
2021.0210210210212 8.620357607575653e+40
2031.031031031031 8.295936712634454e+40
2041.0410410410411 7.983228280351531e+40
2051.051051051051 7.684200433893062e+40
2061.061061061061 7.400743056602368e+40
2071.071071071071 7.134617102689638e+40
2081.081081081081 6.887406480291673e+40
2091.091091091091 6.660475387564836e+40
2101.101101101101 6.454933581859058e+40
2111.1111111111113 6.271611368913826e+40
2121.121121121121 6.111045216656702e+40
2131.131131131131 5.97347396852136e+40
2141.141141141141 5.858844802360172e+40
2151.151151151151 5.7668274722598155e+40
2161.161161161161 5.696835045685321e+40
2171.1711711711714 5.64804930566362e+40
2181.1811811811813 5.619449168466097e+40
2191.191191191191 5.609840778538901e+40
2201.201201201201 5.61788828559562e+40
2211.2112112112113 5.642144604379246e+40
2221.221221221221 5.681081660327066e+40
2231.2312312312315 5.733119725824335e+40
2241.2412412412414 5.796655472862036e+40
2251.2512512512512 5.870088345779816e+40
2261.261261261261 5.951844831573483e+40
2271.271271271271 6.040400205554529e+40
2281.2812812812813 6.134297373289413e+40
2291.2912912912916 6.232162517268147e+40
2301.3013013013015 6.332717378643022e+40
2311.3113113113113 6.434788144084692e+40
2321.321321321321 6.537311047303273e+40
2331.331331331331 6.6393349185104e+40
2341.3413413413414 6.740021012233154e+40
2351.3513513513512 6.838640509035244e+40
2361.3613613613616 6.93457011937971e+40
2371.3713713713714 7.027286221317872e+40
2381.3813813813813 7.116357943440959e+40
2391.391391391391 7.201439567073148e+40
2401.4014014014015 7.282262573441247e+40
2411.4114114114113 7.358627608192378e+40
2421.4214214214217 7.43039658169928e+40
2431.4314314314315 7.497485072424778e+40
2441.4414414414414 7.55985515439685e+40
2451.4514514514512 7.617508729780806e+40
2461.4614614614616 7.670481414064669e+40
2471.4714714714714 7.718836994387655e+40
2481.4814814814818 7.762662460561524e+40
2491.4914914914916 7.802063592674702e+40
2501.5015015015015 7.837161078050966e+40
2511.5115115115113 7.868087122968658e+40
2521.521521521521 7.894982520189317e+40
2531.5315315315315 7.917994131328051e+40
2541.541541541542 7.937272742843699e+40
2551.5515515515517 7.952971255451685e+40
2561.5615615615616 7.965243168671617e+40
2571.5715715715714 7.974241324702536e+40
2581.5815815815813 7.980116878628293e+40
2591.5915915915916 7.983018464911711e+40
2601.6016016016015 7.983091533104373e+40
2611.611611611612 7.980477828585866e+40
2621.6216216216217 7.975314996887332e+40
2631.6316316316315 7.967736292710952e+40
2641.6416416416414 7.957870377107122e+40
2651.6516516516517 7.945841188406345e+40
2661.6616616616616 7.931767874424378e+40
2671.671671671672 7.915764775173958e+40
2681.6816816816818 7.897941446836335e+40
2691.6916916916916 7.878402719084841e+40
2701.7017017017015 7.857248779025882e+40
2711.711711711712 7.834575276046256e+40
2721.7217217217217 7.810473442744226e+40
2731.731731731732 7.7850302278906465e+40
2741.741741741742 7.758328438029252e+40
2751.7517517517517 7.730446884894527e+40
2761.7617617617616 7.701460536313293e+40
2771.7717717717715 7.671440668672153e+40
2781.781781781782 7.640455019387592e+40
2791.791791791792 7.608567938115884e+40
2801.801801801802 7.575840535694257e+40
2811.811811811812 7.542330830019166e+40
2821.8218218218217 7.508093888247608e+40
2831.8318318318316 7.473181964857905e+40
2841.841841841842 7.437644635232358e+40
2851.851851851852 7.40152892452794e+40
2861.861861861862 7.36487943168752e+40
2871.871871871872 7.327738448514408e+40
2881.881881881882 7.290146073790657e+40
2891.8918918918916 7.252140322465715e+40
2901.901901901902 7.213757229979238e+40
2911.911911911912 7.175030951811066e+40
2921.921921921922 7.135993858373981e+40
2931.931931931932 7.096676625382163e+40
2941.941941941942 7.057108319840772e+40
2951.9519519519517 7.017316481811076e+40
2961.961961961962 6.977327202111215e+40
2971.971971971972 6.937165196115928e+40
2981.9819819819822 6.896853873819744e+40
2991.991991991992 6.856415406327473e+40
3002.002002002002 6.815870788934136e+40
3012.012012012012 6.775239900953389e+40
3022.0220220220217 6.734541562449798e+40
3032.032032032032 6.745945518085399e+40
3042.0420420420423 6.698512137612254e+40
3052.052052052052 6.649266383640571e+40
3062.062062062062 6.598735981179442e+40
3072.072072072072 6.547375441168022e+40
3082.0820820820823 6.495573237395608e+40
3092.092092092092 6.443658635834327e+40
3102.102102102102 6.391908107559565e+40
3112.1121121121123 6.340551285824227e+40
3122.122122122122 6.289776450191393e+40
3132.132132132132 6.239735537207623e+40
3142.1421421421423 6.190548689042832e+40
3152.152152152152 6.142308359792623e+40
3162.162162162162 6.095083004544427e+40
3172.1721721721724 6.0489203795118085e+40
3182.1821821821823 6.003850483087994e+40
3192.192192192192 5.959888167992181e+40
3202.202202202202 5.9170354541282895e+40
3212.2122122122123 5.875283570614044e+40
3222.222222222222 5.834614753878853e+40
3232.232232232232 5.795003826930488e+40
3242.2422422422424 5.756419582971545e+40
3252.252252252252 5.71882599459472e+40
3262.262262262262 5.682183267863586e+40
3272.2722722722724 5.646448758735128e+40
3282.2822822822823 5.611577767530548e+40
3292.292292292292 5.577524225528746e+40
3302.3023023023025 5.544241286250687e+40
3312.3123123123123 5.511681832625872e+40
3322.322322322322 5.479798909982269e+40
3332.3323323323325 5.448546093673123e+40
3342.3423423423424 5.417877799143035e+40
3352.352352352352 5.387749541331495e+40
3362.3623623623625 5.358118149508451e+40
3372.3723723723724 5.328941942923533e+40
3382.3823823823823 5.300180872019417e+40
3392.3923923923926 5.271796629404389e+40
3402.4024024024025 5.243752734288533e+40
3412.4124124124123 5.216014593657737e+40
3422.4224224224226 5.188549543081343e+40
3432.4324324324325 5.161326869717425e+40
3442.4424424424424 5.1343178197887135e+40
3452.4524524524522 5.107495592546704e+40
3462.4624624624626 5.080835322517709e+40
3472.4724724724724 5.054314051627806e+40
3482.4824824824823 5.02791069263073e+40
3492.4924924924926 5.001605985110643e+40
3502.5025025025025 4.975382445197127e+40
3512.5125125125123 4.949224310011253e+40
3522.5225225225226 4.923117477756005e+40
3532.5325325325325 4.89704944427059e+40
3542.5425425425424 4.871009236784708e+40
3552.5525525525527 4.84498734553358e+40
3562.5625625625626 4.818975653827398e+40
3572.5725725725724 4.792967367107764e+40
3582.5825825825827 4.766956941468828e+40
3592.5925925925926 4.7409400120703305e+40
3602.6026026026025 4.714913321824346e+40
3612.612612612613 4.688874650695339e+40
3622.6226226226227 4.662822745914863e+40
3632.6326326326325 4.636757253376702e+40
3642.642642642643 4.610678650445692e+40
3652.6526526526527 4.58458818038328e+40
3662.6626626626626 4.55848778856489e+40
3672.672672672673 4.532380060638616e+40
3682.6826826826828 4.506268162750665e+40
3692.6926926926926 4.480155783941085e+40
3702.7027027027025 4.454047080792836e+40
3712.712712712713 4.427946624398635e+40
3722.7227227227227 4.401859349692605e+40
3732.7327327327325 4.375790507177891e+40
3742.742742742743 4.3497456170670503e+40
3752.7527527527527 4.323730425838661e+40
3762.7627627627626 4.297750865201568e+40
3772.772772772773 4.2718130134475274e+40
3782.7827827827828 4.245923059163034e+40
3792.7927927927926 4.2200872672625786e+40
3802.802802802803 4.194311947297863e+40
3812.812812812813 4.1686034239906655e+40
3822.8228228228227 4.142968009931265e+40
3832.832832832833 4.1174119803792926e+40
3842.842842842843 4.091941550099537e+40
3852.8528528528527 4.0665628521618727e+40
3862.862862862863 4.041281918631484e+40
3872.872872872873 4.0161046630735404e+40
3882.8828828828828 3.991036864794664e+40
3892.892892892893 3.966084154742739e+40
3902.902902902903 3.941252002985745e+40
3912.912912912913 3.916545707690446e+40
3922.922922922923 3.89197038552186e+40
3932.932932932933 3.867530963385282e+40
3942.942942942943 3.8432321714334226e+40
3952.9529529529527 3.81907853726268e+40
3962.962962962963 3.7950743812240547e+40
3972.972972972973 3.771223812775899e+40
3982.982982982983 3.747530727807781e+40
3992.992992992993 3.723998806866726e+40
4003.003003003003 3.700631514219528e+40
4013.013013013013 3.6774320976869427e+40
4023.023023023023 3.6544035891882515e+40
4033.033033033033 3.631548805937068e+40
4043.043043043043 3.60887035223181e+40
4053.053053053053 3.586370621786918e+40
4063.063063063063 3.564051800553407e+40
4073.073073073073 3.541915869979951e+40
4083.0830830830832 3.5199646106682585e+40
4093.093093093093 3.498199606379073e+40
4103.103103103103 3.476622248347475e+40
4113.113113113113 3.4552337398688664e+40
4123.123123123123 3.4340351011190513e+40
4133.133133133133 3.413027174174488e+40
4143.143143143143 3.3922106282008124e+40
4153.153153153153 3.371585964779967e+40
4163.163163163163 3.3511535233483966e+40
4173.173173173173 3.330913486720762e+40
4183.183183183183 3.3108658866755334e+40
4193.193193193193 3.2910106095807357e+40
4203.203203203203 3.2713474020398026e+40
4213.213213213214 3.251875876539271e+40
4223.223223223224 3.2325955170815377e+40
4233.2332332332335 3.2135056847874994e+40
4243.243243243243 3.194605623455294e+40
4253.253253253253 3.175894465062705e+40
4263.263263263263 3.1573712352020672e+40
4273.273273273273 3.1390348584377203e+40
4283.283283283283 3.12088416357715e+40
4293.293293293293 3.1029178888480536e+40
4303.303303303303 3.085134686974447e+40
4313.313313313313 3.0675331301459987e+40
4323.323323323323 3.050111714875429e+40
4333.333333333334 3.0328688667397886e+40
4343.343343343344 3.0158029450020126e+40
4353.353353353354 2.9989122471099017e+40
4363.3633633633635 2.9821950130702546e+40
4373.373373373373 2.9656494296964767e+40
4383.383383383383 2.9492736347284823e+40
4393.393393393393 2.933065720824198e+40
4403.403403403403 2.9170237394223925e+40
4413.413413413413 2.9011457044769682e+40
4423.423423423424 2.885429596063195e+40
4433.4334334334335 2.869873363856673e+40
4443.443443443443 2.854474930486122e+40
4453.453453453454 2.8392321947613245e+40
4463.463463463464 2.82414303477782e+40
4473.473473473474 2.8092053109000424e+40
4483.483483483484 2.794416868624944e+40
4493.493493493494 2.7797755413281113e+40
4503.503503503503 2.765279152894641e+40
4513.513513513513 2.750925520237109e+40
4523.523523523523 2.7367124557030225e+40
4533.533533533533 2.7226377693743353e+40
4543.543543543543 2.708699271261512e+40
4553.553553553554 2.694894773394802e+40
4563.563563563564 2.6812220918153816e+40
4573.573573573573 2.6676790484689954e+40
4583.583583583584 2.6542634730048325e+40
4593.593593593594 2.6409732044823066e+40
4603.603603603604 2.6278060929884146e+40
4613.613613613614 2.614760001168402e+40
4623.623623623624 2.6018328056723187e+40
4633.6336336336335 2.5890223985201754e+40
4643.643643643643 2.5763266883882584e+40
4653.653653653653 2.563743601819181e+40
4663.663663663663 2.551271084358223e+40
4673.673673673674 2.538907101618429e+40
4683.683683683684 2.526649640276933e+40
4693.693693693694 2.5144967090048834e+40
4703.703703703704 2.502446339333347e+40
4713.713713713714 2.4904965864574767e+40
4723.723723723724 2.4786455299812e+40
4733.733733733734 2.4668912746045997e+40
4743.743743743744 2.455231950756187e+40
4753.753753753754 2.443665715172074e+40
4763.763763763764 2.4321907514241565e+40
4773.773773773773 2.420805270399212e+40
4783.783783783783 2.4095075107309233e+40
4793.793793793793 2.398295739186607e+40
4803.803803803804 2.3871682510105335e+40
4813.813813813814 2.3761233702255585e+40
4823.823823823824 2.365159449894816e+40
4833.833833833834 2.354274872345085e+40
4843.843843843844 2.3434680493534944e+40
4853.853853853854 2.3327374222990725e+40
4863.863863863864 2.3220814622806966e+40
4873.873873873874 2.3114986702028747e+40
4883.883883883884 2.3009875768307986e+40
4893.893893893894 2.2905467428160237e+40
4903.9039039039035 2.2801747586941183e+40
4913.913913913913 2.2698702448555515e+40
4923.923923923924 2.2596318514910693e+40
4933.933933933934 2.2494582585127773e+40
4943.943943943944 2.23934817545205e+40
4953.953953953955 2.2293003413354413e+40
4963.9639639639645 2.219313524539651e+40
4973.973973973974 2.209386522626596e+40
4983.983983983984 2.199518162159633e+40
4993.993993993994 2.1897072985018663e+40
5004.004004004004 2.1799528155975394e+40
5014.014014014014 2.1702536257373935e+40
5024.024024024024 2.1606086693088825e+40
5034.0340340340335 2.151016914532125e+40
5044.044044044043 2.141477357182388e+40
5054.054054054054 2.1319890202999237e+40
5064.064064064064 2.122550953887923e+40
5074.074074074074 2.1131622345993392e+40
5084.084084084085 2.103821965413287e+40
5094.0940940940945 2.09452927530174e+40
5104.104104104104 2.085283318887167e+40
5114.114114114114 2.0760832760917903e+40
5124.124124124124 2.0669283517790608e+40
5134.134134134134 2.057817775387992e+40
5144.144144144144 2.0487508005608972e+40
5154.154154154154 2.03972670476514e+40
5164.1641641641645 2.0307447889094005e+40
5174.174174174174 2.0218043769550225e+40
5184.184184184184 2.0129048155229167e+40
5194.194194194194 2.0040454734965347e+40
5204.204204204204 1.9952257416213843e+40
5214.214214214214 1.9864450321015233e+40
5224.224224224225 1.9777027781934945e+40
5234.2342342342345 1.9689984337981193e+40
5244.244244244244 1.9603314730505514e+40
5254.254254254254 1.9517013899089994e+40
5264.264264264264 1.9431076977424742e+40
5274.274274274274 1.9345499289179662e+40
5284.284284284285 1.9260276343873543e+40
5294.294294294295 1.9175403832744323e+40
5304.304304304304 1.9090877624623344e+40
5314.314314314314 1.9006693761817164e+40
5324.324324324324 1.8922848455999536e+40
5334.334334334334 1.8839338084116685e+40
5344.344344344345 1.8756159184308506e+40
5354.354354354355 1.8673308451848494e+40
5364.3643643643645 1.8590782735104667e+40
5374.374374374374 1.850857903152425e+40
5384.384384384384 1.8426694483644102e+40
5394.394394394394 1.8345126375129403e+40
5404.404404404404 1.8263872126842467e+40
5414.414414414415 1.8182929292943823e+40
5424.424424424425 1.810229555702753e+40
5434.4344344344345 1.802196872829233e+40
5444.444444444444 1.7941946737750588e+40
5454.454454454454 1.7862227634476626e+40
5464.464464464464 1.7782809581895844e+40
5474.474474474475 1.7703690854116258e+40
5484.484484484485 1.762486983230377e+40
5494.494494494495 1.7546345001102402e+40
5504.504504504504 1.7468114945100878e+40
5514.514514514514 1.7390178345346499e+40
5524.524524524524 1.7312533975907496e+40
5534.534534534535 1.7235180700484808e+40
5544.544544544545 1.7158117469074225e+40
5554.554554554555 1.7081343314679605e+40
5564.5645645645645 1.7004857350078212e+40
5574.574574574574 1.6928658764638552e+40
5584.584584584584 1.6852746821191642e+40
5594.594594594595 1.6777120852955995e+40
5604.604604604605 1.6701780260517234e+40
5614.614614614615 1.6626724508862252e+40
5624.624624624625 1.6551953124468838e+40
5634.6346346346345 1.6477465692450791e+40
5644.644644644644 1.6403261853758838e+40
5654.654654654654 1.632934130243776e+40
5664.664664664665 1.6255703782939588e+40
5674.674674674675 1.6182349087493425e+40
5684.684684684685 1.6109277053531467e+40
5694.694694694695 1.60364875611717e+40
5704.704704704704 1.5963980530757003e+40
5714.714714714714 1.5891755920450596e+40
5724.724724724725 1.5819813723887901e+40
5734.734734734735 1.5748153967884502e+40
5744.744744744745 1.5676776710200058e+40
5754.754754754755 1.5605682037357977e+40
5764.764764764765 1.5534870062520625e+40
5774.774774774774 1.5464340923419675e+40
5784.784784784785 1.5394094780341324e+40
5794.794794794795 1.5324131814166032e+40
5804.804804804805 1.525445222446237e+40
5814.814814814815 1.5185056227634496e+40
5824.824824824825 1.511594405512299e+40
5834.8348348348345 1.5047115951658275e+40
5844.844844844845 1.4978572173566492e+40
5854.854854854855 1.4910312987126916e+40
5864.864864864865 1.4842338666980642e+40
5874.874874874875 1.47746494945899e+40
5884.884884884885 1.4707245756747306e+40
5894.894894894895 1.4640127744134542e+40
