#lamb flux
1000.0 2.431614379622375e+40
1010.01001001001 2.4982680383267057e+40
1020.0200200200201 2.559496867725165e+40
1030.03003003003 2.615424007948721e+40
1040.0400400400401 2.6662104818240046e+40
1050.05005005005 2.7120474983841665e+40
1060.06006006006 2.753149498333354e+40
1070.07007007007 2.789747966048548e+40
1080.08008008008 2.8220860034319416e+40
1090.0900900900901 2.850413639269983e+40
1100.1001001001 2.874983832524271e+40
1110.11011011011 2.8960491180286657e+40
1120.1201201201202 2.9138588373402323e+40
1130.13013013013 2.928656895053798e+40
1140.1401401401401 2.940679980933801e+40
1150.1501501501502 2.950156200067149e+40
1160.16016016016 2.957304056341975e+40
1170.1701701701702 2.9623317384658094e+40
1180.1801801801803 2.965436662105369e+40
1190.1901901901902 2.966805226293413e+40
1200.2002002002002 2.9666127468102246e+40
1210.2102102102103 2.965023533666904e+40
1220.2202202202202 2.9621910839999823e+40
1230.2302302302303 2.958258365570654e+40
1240.2402402402402 2.9533581696143782e+40
1250.2502502502502 2.947433087222617e+40
1260.2602602602603 2.9400635922237305e+40
1270.2702702702702 2.9304065099608583e+40
1280.2802802802803 2.918620133332202e+40
1290.2902902902902 2.9048573487135265e+40
1300.3003003003003 2.8892652978483194e+40
1310.3103103103103 2.8719851320950525e+40
1320.3203203203202 2.853151847415391e+40
1330.3303303303303 2.832894189411816e+40
1340.3403403403404 2.811334618644295e+40
1350.3503503503503 2.7885893273564073e+40
1360.3603603603603 2.7647682996086976e+40
1370.3703703703704 2.73997540764178e+40
1380.3803803803803 2.714308538067685e+40
1390.3903903903904 2.687859742211695e+40
1400.4004004004005 2.660715405596061e+40
1410.4104104104103 2.632956432171905e+40
1420.4204204204204 2.604658439466657e+40
1430.4304304304305 2.5758919613234393e+40
1440.4404404404404 2.5467226553683856e+40
1450.4504504504505 2.517211512754381e+40
1460.4604604604606 2.4874150680985746e+40
1470.4704704704704 2.457385607858977e+40
1480.4804804804805 2.4271713756862854e+40
1490.4904904904906 2.3968167735433567e+40
1500.5005005005005 2.3663625576101453e+40
1510.5105105105106 2.335846028189185e+40
1520.5205205205207 2.3053012129987174e+40
1530.5305305305305 2.274759043390172e+40
1540.5405405405404 2.2442475231563984e+40
1550.5505505505505 2.2137918897093655e+40
1560.5605605605606 2.183414767502982e+40
1570.5705705705705 2.153136313660916e+40
1580.5805805805805 2.1229743558421295e+40
1590.5905905905906 2.092944522440948e+40
1600.6006006006005 2.0630603652750576e+40
1610.6106106106106 2.0333334749661975e+40
1620.6206206206207 2.0037735892657834e+40
1630.6306306306305 1.9743886946234335e+40
1640.6406406406406 1.94518512134181e+40
1650.6506506506507 1.9161676327085648e+40
1660.6606606606606 1.8873395085470193e+40
1670.6706706706707 1.858702623684077e+40
1680.6806806806808 1.8302575218986251e+40
1690.6906906906906 1.802003485989125e+40
1700.7007007007007 1.7739442129695068e+40
1710.7107107107108 1.7460987609682845e+40
1720.7207207207207 1.7184596595004227e+40
1730.7307307307308 1.6910158838482895e+40
1740.7407407407409 1.6637560774882836e+40
1750.7507507507507 1.6366685733557319e+40
1760.7607607607606 1.6097414225658222e+40
1770.770770770771 1.5829624324121842e+40
1780.7807807807808 1.556319215786472e+40
1790.7907907907907 1.5297992545243893e+40
1800.8008008008007 1.5033899795843483e+40
1810.8108108108108 1.4770788713992727e+40
1820.8208208208207 1.450853584199658e+40
1830.8308308308308 1.4247020985692323e+40
1840.8408408408409 1.3986129069358264e+40
1850.8508508508507 1.3725752370786402e+40
1860.8608608608608 1.3465793189911902e+40
1870.870870870871 1.320616700498106e+40
1880.8808808808808 1.294680616779739e+40
1890.890890890891 1.2687664182789486e+40
1900.900900900901 1.2428720601877972e+40
1910.9109109109108 1.216998654648697e+40
1920.920920920921 1.1911510837469823e+40
1930.930930930931 1.1653386671096264e+40
1940.940940940941 1.1395758722758526e+40
1950.950950950951 1.1138830488593976e+40
1960.960960960961 1.0882871589029374e+40
1970.970970970971 1.0628224659665139e+40
1980.980980980981 1.0375311349236092e+40
1990.9909909909911 1.01246368406572e+40
2001.001001001001 9.876792222695312e+39
2011.0110110110109 9.632453984038257e+39
2021.0210210210212 9.392379898925379e+39
2031.031031031031 9.157400645126211e+39
2041.0410410410411 8.928406658748573e+39
2051.051051051051 8.706329995760477e+39
2061.061061061061 8.49212133335018e+39
2071.071071071071 8.286722683674901e+39
2081.081081081081 8.091036867147322e+39
2091.091091091091 7.90589524444769e+39
2101.101101101101 7.732025568996523e+39
2111.1111111111113 7.570022030236878e+39
2121.121121121121 7.420319564321645e+39
2131.131131131131 7.28317429213197e+39
2141.141141141141 7.15865151902002e+39
2151.151151151151 7.0466221441475e+39
2161.161161161161 6.946767653128574e+39
2171.1711711711714 6.858593190939807e+39
2181.1811811811813 6.781447614028527e+39
2191.191191191191 6.714548965414958e+39
2201.201201201201 6.657013542906266e+39
2211.2112112112113 6.607886648637889e+39
2221.221221221221 6.566173202754379e+39
2231.2312312312315 6.530866640605068e+39
2241.2412412412414 6.500974845650551e+39
2251.2512512512512 6.475542250593983e+39
2261.261261261261 6.453667622127785e+39
2271.271271271271 6.434517393887563e+39
2281.2812812812813 6.417334702809227e+39
2291.2912912912916 6.401444502945342e+39
2301.3013013013015 6.386255275296408e+39
2311.3113113113113 6.371257927915415e+39
2321.321321321321 6.356022498381618e+39
2331.331331331331 6.34019324427699e+39
2341.3413413413414 6.323482650471066e+39
2351.3513513513512 6.305664807502749e+39
2361.3613613613616 6.28656853361684e+39
2371.3713713713714 6.266070531964953e+39
2381.3813813813813 6.244088799493704e+39
2391.391391391391 6.220576438296398e+39
2401.4014014014015 6.195515965130012e+39
2411.4114114114113 6.168914170553997e+39
2421.4214214214217 6.140797545045925e+39
2431.4314314314315 6.11120826431734e+39
2441.4414414414414 6.08020070849905e+39
2451.4514514514512 6.047838478466191e+39
2461.4614614614616 6.014191865993924e+39
2471.4714714714714 5.979335731496231e+39
2481.4814814814818 5.943347742804308e+39
2491.4914914914916 5.906306929976625e+39
2501.5015015015015 5.868292513858919e+39
2511.5115115115113 5.829382969541227e+39
2521.521521521521 5.78965528962841e+39
2531.5315315315315 5.749184416092582e+39
2541.541541541542 5.708042813233927e+39
2551.5515515515517 5.666300157825657e+39
2561.5615615615616 5.624023125792897e+39
2571.5715715715714 5.581275257739722e+39
2581.5815815815813 5.538116888283847e+39
2591.5915915915916 5.494605126491211e+39
2601.6016016016015 5.450793876739045e+39
2611.611611611612 5.4067338910989605e+39
2621.6216216216217 5.362472845846647e+39
2631.6316316316315 5.318055435998339e+39
2641.6416416416414 5.273523482872592e+39
2651.6516516516517 5.228916050603428e+39
2661.6616616616616 5.184269568310669e+39
2671.671671671672 5.139617955285466e+39
2681.6816816816818 5.0949927470925485e+39
2691.6916916916916 5.0504232209411325e+39
2701.7017017017015 5.005936519048685e+39
2711.711711711712 4.9615577690274e+39
2721.7217217217217 4.917310200573395e+39
2731.731731731732 4.873215257942017e+39
2741.741741741742 4.8292927078573186e+39
2751.7517517517517 4.785560742635777e+39
2761.7617617617616 4.7420360784098356e+39
2771.7717717717715 4.6987340484198734e+39
2781.781781781782 4.6556686914082554e+39
2791.791791791792 4.61285283519906e+39
2801.801801801802 4.570298175584731e+39
2811.811811811812 4.528015350668801e+39
2821.8218218218217 4.486014010833533e+39
2831.8318318318316 4.44430288451453e+39
2841.841841841842 4.4028898399725284e+39
2851.851851851852 4.361781943256527e+39
2861.861861861862 4.3209855125531e+39
2871.871871871872 4.2805061691150555e+39
2881.881881881882 4.2403488849588706e+39
2891.8918918918916 4.2005180275152463e+39
2901.901901901902 4.1610174014108907e+39
2911.911911911912 4.1218502875528624e+39
2921.921921921922 4.0830194796792834e+39
2931.931931931932 4.04452731853266e+39
2941.941941941942 4.006375723804215e+39
2951.9519519519517 3.9685662239898444e+39
2961.961961961962 3.9310999842906405e+39
2971.971971971972 3.8939778326833264e+39
2981.9819819819822 3.8572002842787296e+39
2991.991991991992 3.8207675640792465e+39
3002.002002002002 3.784679628239634e+39
3012.012012012012 3.7489361839288456e+39
3022.0220220220217 3.713536707884621e+39
3032.032032032032 3.6900709251292203e+39
3042.0420420420423 3.6538472802228697e+39
3052.052052052052 3.6175784765125406e+39
3062.062062062062 3.5813787699605735e+39
3072.072072072072 3.5453450430240543e+39
3082.0820820820823 3.5095587275661315e+39
3092.092092092092 3.474087565721976e+39
3102.102102102102 3.4389872145280255e+39
3112.1121121121123 3.40430270186509e+39
3122.122122122122 3.3700697423831594e+39
3132.132132132132 3.336315922708522e+39
3142.1421421421423 3.3030617654966766e+39
3152.152152152152 3.2703216818800645e+39
3162.162162162162 3.2381048216437155e+39
3172.1721721721724 3.206415830102619e+39
3182.1821821821823 3.175255520200076e+39
3192.192192192192 3.144621467831594e+39
3202.202202202202 3.114508537852771e+39
3212.2122122122123 3.084909347672233e+39
3222.222222222222 3.0558146747779243e+39
3232.232232232232 3.027213814007818e+39
3242.2422422422424 2.9990948898620124e+39
3252.252252252252 2.9714451286671726e+39
3262.262262262262 2.9442510949494585e+39
3272.2722722722724 2.917498895949745e+39
3282.2822822822823 2.891174357825339e+39
3292.292292292292 2.865263176725112e+39
3302.3023023023025 2.839751047598724e+39
3312.3123123123123 2.814623773303961e+39
3322.322322322322 2.7898673563074066e+39
3332.3323323323325 2.7654680750305933e+39
3342.3423423423424 2.741412546674925e+39
3352.352352352352 2.7176877781614044e+39
3362.3623623623625 2.6942812066444752e+39
3372.3723723723724 2.6711807309004513e+39
3382.3823823823823 2.6483747347488323e+39
3392.3923923923926 2.6258521035378518e+39
3402.4024024024025 2.603602234611601e+39
3412.4124124124123 2.581615042574658e+39
3422.4224224224226 2.559880960079296e+39
3432.4324324324325 2.5383909347793213e+39
3442.4424424424424 2.51713642302219e+39
3452.4524524524522 2.496109380786487e+39
3462.4624624624626 2.4753022523141048e+39
3472.4724724724724 2.45470795683501e+39
3482.4824824824823 2.4343198737363594e+39
3492.4924924924926 2.414131826486747e+39
3502.5025025025025 2.3941380655894902e+39
3512.5125125125123 2.3743332508060864e+39
3522.5225225225226 2.3547124328615842e+39
3532.5325325325325 2.335271034817282e+39
3542.5425425425424 2.316004833272731e+39
3552.5525525525527 2.2969099395378923e+39
3562.5625625625626 2.2779827808975148e+39
3572.5725725725724 2.2592200820729165e+39
3582.5825825825827 2.2406188469712604e+39
3592.5925925925926 2.2221763407989318e+39
3602.6026026026025 2.203890072603514e+39
3612.612612612613 2.1857577782981106e+39
3622.6226226226227 2.1677774042120778e+39
3632.6326326326325 2.1499470912036448e+39
3642.642642642643 2.1322651593622737e+39
3652.6526526526527 2.1147300933217267e+39
3662.6626626626626 2.0973405281988045e+39
3672.672672672673 2.0800952361673574e+39
3682.6826826826828 2.0629931136724357e+39
3692.6926926926926 2.046033169285261e+39
3702.7027027027025 2.029214512196082e+39
3712.712712712713 2.012536341338781e+39
3722.7227227227227 1.995997935138346e+39
3732.7327327327325 1.9795986418699102e+39
3742.742742742743 1.9633378706160896e+39
3752.7527527527527 1.9472150828075806e+39
3762.7627627627626 1.931229784330562e+39
3772.772772772773 1.9153815181832858e+39
3782.7827827827828 1.8996698576632687e+39
3792.7927927927926 1.8840944000657618e+39
3802.802802802803 1.868654760873658e+39
3812.812812812813 1.853350568418556e+39
3822.8228228228227 1.838181458992515e+39
3832.832832832833 1.8231470723899123e+39
3842.842842842843 1.8082470478588313e+39
3852.8528528528527 1.7934810204415295e+39
3862.862862862863 1.7788486176837577e+39
3872.872872872873 1.7643494566930014e+39
3882.8828828828828 1.749983141526016e+39
3892.892892892893 1.7357492608865812e+39
3902.902902902903 1.7216473861147015e+39
3912.912912912913 1.7076770694491408e+39
3922.922922922923 1.6938378425456432e+39
3932.932932932933 1.680129215233815e+39
3942.942942942943 1.6665506744961974e+39
3952.9529529529527 1.6531016836537188e+39
3962.962962962963 1.6397816817423413e+39
3972.972972972973 1.6265900830663e+39
3982.982982982983 1.6135262769140367e+39
3992.992992992993 1.6005896274235196e+39
4003.003003003003 1.5877794735843216e+39
4013.013013013013 1.5750951293643834e+39
4023.023023023023 1.5625358839500933e+39
4033.033033033033 1.550101002088854e+39
4043.043043043043 1.53778972452394e+39
4053.053053053053 1.5256012685120146e+39
4063.063063063063 1.513534828414239e+39
4073.073073073073 1.5015895763524643e+39
4083.0830830830832 1.4897646629225138e+39
4093.093093093093 1.4780592179570918e+39
4103.103103103103 1.466472351331323e+39
4113.113113113113 1.455003153804445e+39
4123.123123123123 1.4436506978915606e+39
4133.133133133133 1.4324140387598777e+39
4143.143143143143 1.4212922151442146e+39
4153.153153153153 1.410284250276969e+39
4163.163163163163 1.399389152828129e+39
4173.173173173173 1.388605917851268e+39
4183.183183183183 1.377933527731783e+39
4193.193193193193 1.3673709531339868e+39
4203.203203203203 1.3569171539439458e+39
4213.213213213214 1.346571080205268e+39
4223.223223223224 1.3363316730452782e+39
4233.2332332332335 1.3261978655893208e+39
4243.243243243243 1.3161685838611216e+39
4253.253253253253 1.306242747667407e+39
4263.263263263263 1.296419271465158e+39
4273.273273273273 1.2866970652100822e+39
4283.283283283283 1.2770750351850766e+39
4293.293293293293 1.267552084807621e+39
4303.303303303303 1.2581271154151816e+39
4313.313313313313 1.2487990270278907e+39
4323.323323323323 1.2395667190878525e+39
4333.333333333334 1.230429091174603e+39
4343.343343343344 1.2213850436963222e+39
4353.353353353354 1.212433478556533e+39
4363.3633633633635 1.2035732997961037e+39
4373.373373373373 1.1948034142104659e+39
4383.383383383383 1.1861227319420362e+39
4393.393393393393 1.1775301670479058e+39
4403.403403403403 1.1690246380429381e+39
4413.413413413413 1.1606050684184458e+39
4423.423423423424 1.1522703871367221e+39
4433.4334334334335 1.1440195291016925e+39
4443.443443443443 1.1358514356060437e+39
4453.453453453454 1.127765054755195e+39
4463.463463463464 1.119759341868538e+39
4473.473473473474 1.1118332598583552e+39
4483.483483483484 1.1039857795869174e+39
4493.493493493494 1.096215880202218e+39
4503.503503503503 1.0885225494528688e+39
4513.513513513513 1.0809047839826712e+39
4523.523523523523 1.0733615896053835e+39
4533.533533533533 1.065891981560265e+39
4543.543543543543 1.0584949847488968e+39
4553.553553553554 1.0511696339538769e+39
4563.563563563564 1.0439149740399328e+39
4573.573573573573 1.036730060138005e+39
4583.583583583584 1.0296139578128788e+39
4593.593593593594 1.022565743214907e+39
4603.603603603604 1.0155845032163895e+39
4613.613613613614 1.0086693355331592e+39
4623.623623623624 1.0018193488319083e+39
4633.6336336336335 9.950336628238147e+38
4643.643643643643 9.883114083449815e+38
4653.653653653653 9.816517274242231e+38
4663.663663663663 9.750537733387073e+38
4673.673673673674 9.685167106579648e+38
4683.683683683684 9.620397152767577e+38
4693.693693693694 9.556219744372887e+38
4703.703703703704 9.492626867412361e+38
4713.713713713714 9.429610621520671e+38
4723.723723723724 9.367163219880916e+38
4733.733733733734 9.305276989066836e+38
4743.743743743744 9.243944368801223e+38
4753.753753753754 9.183157911634465e+38
4763.763763763764 9.12291028254747e+38
4773.773773773773 9.063194258482788e+38
4783.783783783783 9.00400272780791e+38
4793.793793793793 8.945328689714272e+38
4803.803803803804 8.887165253555751e+38
4813.813813813814 8.829505638129999e+38
4823.823823823824 8.772343170906081e+38
4833.833833833834 8.715671287201615e+38
4843.843843843844 8.659483529312627e+38
4853.853853853854 8.603773545599091e+38
4863.863863863864 8.548535089529176e+38
4873.873873873874 8.493762018684945e+38
4883.883883883884 8.439448293732325e+38
4893.893893893894 8.385587977357899e+38
4903.9039039039035 8.332175233175104e+38
4913.913913913913 8.279204324602232e+38
4923.923923923924 8.226669613714594e+38
4933.933933933934 8.174565560073149e+38
4943.943943943944 8.122886719531587e+38
4953.953953953955 8.071627743024159e+38
4963.9639639639645 8.02078337533611e+38
4973.973973973974 7.97034845385859e+38
4983.983983983984 7.920317907329988e+38
4993.993993993994 7.87068675456534e+38
5004.004004004004 7.821450103175483e+38
5014.014014014014 7.77260314827764e+38
5024.024024024024 7.724141171198804e+38
5034.0340340340335 7.676059538173574e+38
5044.044044044043 7.628353699037625e+38
5054.054054054054 7.581019185918314e+38
5064.064064064064 7.534051611923566e+38
5074.074074074074 7.487446669830272e+38
5084.084084084085 7.441200130773352e+38
5094.0940940940945 7.395307842936581e+38
5104.104104104104 7.349765730246137e+38
5114.114114114114 7.304569791067923e+38
5124.124124124124 7.259716096909555e+38
5134.134134134134 7.215200791127877e+38
5144.144144144144 7.171020087642838e+38
5154.154154154154 7.12717026965853e+38
5164.1641641641645 7.083647688392088e+38
5174.174174174174 7.040448761811188e+38
5184.184184184184 6.997569973380724e+38
5194.194194194194 6.955007870819349e+38
5204.204204204204 6.91275906486643e+38
5214.214214214214 6.87082022805991e+38
5224.224224224225 6.829188093525645e+38
5234.2342342342345 6.787859453778617e+38
5244.244244244244 6.746831159536492e+38
5254.254254254254 6.7061001185459555e+38
5264.264264264264 6.66566329442208e+38
5274.274274274274 6.625517705501232e+38
5284.284284284285 6.585660423707676e+38
5294.294294294295 6.546088573434281e+38
5304.304304304304 6.5067993304374754e+38
5314.314314314314 6.4677899207468354e+38
5324.324324324324 6.4290576195893465e+38
5334.334334334334 6.390599750328687e+38
5344.344344344345 6.3524136834195665e+38
5354.354354354355 6.3144968353774e+38
5364.3643643643645 6.276846667763281e+38
5374.374374374374 6.2394606861845615e+38
5384.384384384384 6.202336439310919e+38
5394.394394394394 6.165471517906165e+38
5404.404404404404 6.128863553875711e+38
5414.414414414415 6.092510219329832e+38
5424.424424424425 6.056409225662694e+38
5434.4344344344345 6.020558322647168e+38
5444.444444444444 5.9849552975454354e+38
5454.454454454454 5.949597974235384e+38
5464.464464464464 5.914484212352713e+38
5474.474474474475 5.879611906448768e+38
5484.484484484485 5.844978985164012e+38
5494.494494494495 5.8105834104170805e+38
5504.504504504504 5.77642317660937e+38
5514.514514514514 5.742496309845021e+38
5524.524524524524 5.7088008671663e+38
5534.534534534535 5.675334935804162e+38
5544.544544544545 5.642096632444006e+38
5554.554554554555 5.60908410250638e+38
5564.5645645645645 5.576295519442654e+38
5574.574574574574 5.54372908404542e+38
5584.584584584584 5.511383023773535e+38
5594.594594594595 5.47925559209163e+38
5604.604604604605 5.447345067824046e+38
5614.614614614615 5.4156497545228454e+38
5624.624624624625 5.384167979849965e+38
5634.6346346346345 5.352898094973189e+38
5644.644644644644 5.3218384739758494e+38
5654.654654654654 5.290987513280088e+38
5664.664664664665 5.26034363108345e+38
5674.674674674675 5.2299052668087425e+38
5684.684684684685 5.199670880566838e+38
5694.694694694695 5.1696389526323776e+38
5704.704704704704 5.139807982932106e+38
5714.714714714714 5.110176490545692e+38
5724.724724724725 5.080743013218833e+38
5734.734734734735 5.051506106888463e+38
5744.744744744745 5.022464345219872e+38
5754.754754754755 4.993616319155546e+38
5764.764764764765 4.964960636475552e+38
5774.774774774774 4.9364959213692535e+38
5784.784784784785 4.908220814018165e+38
5794.794794794795 4.88013397018979e+38
5804.804804804805 4.852234060842199e+38
5814.814814814815 4.8245197717391935e+38
5824.824824824825 4.796989803075845e+38
5834.8348348348345 4.7696428691142106e+38
5844.844844844845 4.742477697829083e+38
5854.854854854855 4.715493030563503e+38
5864.864864864865 4.688687621693903e+38
5874.874874874875 4.6620602383047e+38
5884.884884884885 4.635609659872086e+38
5894.894894894895 4.609334677956911e+38
5904.9049049049045 4.5832340959063995e+38
