#lamb flux
1000.0 1.2312793851906942e-05
1010.01001001001 1.4748097555037074e-05
1020.0200200200201 1.759121993543026e-05
1030.03003003003 2.0897628709679356e-05
1040.0400400400401 2.4728454648368108e-05
1050.05005005005 2.915084399130074e-05
1060.06006006006 3.4238311262785796e-05
1070.07007007007 4.007109064183618e-05
1080.08008008008 4.6736484005309235e-05
1090.0900900900901 5.4329203740241096e-05
1100.1001001001 6.29517084149229e-05
1110.11011011011 7.271452940636626e-05
1120.1201201201202 8.373658660437576e-05
1130.13013013013 9.614549134894571e-05
1140.1401401401401 0.0001100778348075113
1150.1501501501502 0.00012567946006092345
1160.16016016016 0.00014310571624107825
1170.1701701701702 0.0001625216931479419
1180.1801801801803 0.00018410243486831094
1190.1901901901902 0.0002080331310219587
1200.2002002002002 0.00023450928437180945
1210.2102102102103 0.0002637368536522991
1220.2202202202202 0.00029593237059307305
1230.2302302302303 0.00033132303024249613
1240.2402402402402 0.00037014675382602684
1250.2502502502502 0.0004126500361111795
1260.2602602602603 0.00045908436187064154
1270.2702702702702 0.0005097022948580159
1280.2802802802803 0.0005647769651892713
1290.2902902902902 0.0006245909750880609
1300.3003003003003 0.0006894361982621538
1310.3103103103103 0.0007596135487320898
1320.3203203203202 0.0008354327197152001
1330.3303303303303 0.0009172118932872117
1340.3403403403404 0.0010052774216539008
1350.3503503503503 0.0010999634809668868
1360.3603603603603 0.0012016116987093675
1370.3703703703704 0.0013105707557597665
1380.3803803803803 0.0014271959643133124
1390.3903903903904 0.0015518488229032685
1400.4004004004005 0.001684896549814656
1410.4104104104103 0.0018267115962243604
1420.4204204204204 0.001977671140431493
1430.4304304304305 0.0021381565645615976
1440.4404404404404 0.0023085529151375254
1450.4504504504505 0.0024892483489086345
1460.4604604604606 0.0026806335653182414
1470.4704704704704 0.002883101226967761
1480.4804804804805 0.0030970453694041606
1490.4904904904906 0.003322860801515618
1500.5005005005005 0.0035609424977689885
1510.5105105105106 0.003811684983461837
1520.5205205205207 0.004075481714091015
1530.5305305305305 0.004352724449860605
1540.5405405405404 0.004643802626262971
1550.5505505505505 0.004949102721569089
1560.5605605605606 0.005269007621958226
1570.5705705705705 0.005603895984902089
1580.5805805805805 0.005954141601296076
1590.5905905905906 0.006320112756699849
1600.6006006006005 0.006702171591912197
1610.6106106106106 0.007100673462962174
1620.6206206206207 0.007515966300449607
1630.6306306306305 0.007948389968017553
1640.6406406406406 0.008398275619585824
1650.6506506506507 0.00886594505482406
1660.6606606606606 0.009351710072198323
1670.6706706706707 0.00985587181879014
1680.6806806806808 0.010378720135970977
1690.6906906906906 0.010920532899925822
1700.7007007007007 0.011481578499300761
1710.7107107107108 0.012062122730358449
1720.7207207207207 0.012662404754409088
1730.7307307307308 0.013282647132225609
1740.7407407407409 0.013923056797402151
1750.7507507507507 0.014583824337837944
1760.7607607607606 0.015265123269097887
1770.770770770771 0.015967109301334086
1780.7807807807808 0.01668991960278618
1790.7907907907907 0.017433672064664802
1800.8008008008007 0.018198464574571683
1810.8108108108108 0.01898437430865211
1820.8208208208207 0.019791457056564783
1830.8308308308308 0.02061974659825311
1840.8408408408409 0.021469254157599635
1850.8508508508507 0.022339967965521262
1860.8608608608608 0.02323185297408703
1870.870870870871 0.024144850773943023
1880.8808808808808 0.025078879779739043
1890.890890890891 0.02603383576227604
1900.900900900901 0.02700959282137363
1910.9109109109108 0.028006004909331566
1920.920920920921 0.02902290803015177
1930.930930930931 0.030060123252625012
1940.940940940941 0.031117460683384116
1950.950950950951 0.03219472454557626
1960.960960960961 0.033291719495441435
1970.970970970971 0.034408258277412646
1980.980980980981 0.03554417076246963
1990.9909909909911 0.036699314328596314
2001.001001001001 0.037873585421851805
2011.0110110110109 0.03906693198028016
2021.0210210210212 0.04027936621424013
2031.031031031031 0.04151097702672654
2041.0410410410411 0.04276194114614369
2051.051051051051 0.04403253186219054
2061.061061061061 0.04532312414215987
2071.071071071071 0.04663419490360114
2081.081081081081 0.0479663173700632
2091.091091091091 0.04932014876556825
2101.101101101101 0.05069641111097681
2111.1111111111113 0.05209586553710613
2121.121121121121 0.05351928125328572
2131.131131131131 0.05496740100299872
2141.141141141141 0.05644090538343931
2151.151151151151 0.05794037869716576
2161.161161161161 0.05946627897255218
2171.1711711711714 0.0610189144231453
2181.1811811811813 0.06259842796500913
2191.191191191191 0.06420479057937993
2201.201201201201 0.06583780342850606
2211.2112112112113 0.06749710783784796
2221.221221221221 0.06918220165212736
2231.2312312312315 0.07089246011467454
2241.2412412412414 0.07262715931768934
2251.2512512512512 0.07438550039167677
2261.261261261261 0.07616663288459967
2271.271271271271 0.07796967615449955
2281.2812812812813 0.07979373799762861
2291.2912912912916 0.0816379301059756
2301.3013013013015 0.08350138026019356
2311.3113113113113 0.08538324140070847
2321.321321321321 0.08728269787965863
2331.331331331331 0.08919896928732209
2341.3413413413414 0.09113131228195215
2351.3513513513512 0.09307902084614957
2361.3613613613616 0.09504142535991658
2371.3713713713714 0.09701789083203607
2381.3813813813813 0.09900781457637702
2391.391391391391 0.10101062356450796
2401.4014014014015 0.1030257716346188
2411.4114114114113 0.10505273669149003
2421.4214214214217 0.10709101799400939
2431.4314314314315 0.10914013359555684
2441.4414414414414 0.11119961797797769
2451.4514514514512 0.11326901990102285
2461.4614614614616 0.11534790047518226
2471.4714714714714 0.11743583145586245
2481.4814814814818 0.1195323937500498
2491.4914914914916 0.12163717612223506
2501.5015015015015 0.12374977408385404
2511.5115115115113 0.12586978894932416
2521.521521521521 0.12799682704154278
2531.5315315315315 0.13013049903016163
2541.541541541542 0.13227041938681122
2551.5515515515517 0.13441620594258546
2561.5615615615616 0.13656747953433454
2571.5715715715714 0.13872386372762893
2581.5815815815813 0.1408849846055218
2591.5915915915916 0.1430504706134706
2601.6016016016015 0.14521995245191688
2611.611611611612 0.14739306300907648
2621.6216216216217 0.14956943732744443
2631.6316316316315 0.1517487125983715
2641.6416416416414 0.15393052817983152
2651.6516516516517 0.156114525633176
2661.6616616616616 0.1583003487752503
2671.671671671672 0.16048764374277863
2681.6816816816818 0.1626760590663616
2691.6916916916916 0.16486524575182937
2701.7017017017015 0.16705485736703118
2711.711711711712 0.16924455013242898
2721.7217217217217 0.17143398301412296
2731.731731731732 0.1736228178181456
2741.741741741742 0.17581071928505732
2751.7517517517517 0.17799735518402415
2761.7617617617616 0.1801823964057062
2771.7717717717715 0.18236551705339568
2781.781781781782 0.1845463945319481
2791.791791791792 0.18672470963413093
2801.801801801802 0.18890014662409216
2811.811811811812 0.19107239331770998
2821.8218218218217 0.1932411411596374
2831.8318318318316 0.1954060852969054
2841.841841841842 0.19756692464897574
2851.851851851852 0.19972336197418475
2861.861861861862 0.2018751039325242
2871.871871871872 0.2040218611447482
2881.881881881882 0.20616334824780352
2891.8918918918916 0.20829928394659977
2901.901901901902 0.21042939106215136
2911.911911911912 0.21255339657613
2921.921921921922 0.21467103167188217
2931.931931931932 0.2167820317719686
2941.941941941942 0.2188861365722911
2951.9519519519517 0.22098309007287706
2961.961961961962 0.22307264060539547
2971.971971971972 0.22515454085748404
2981.9819819819822 0.22722854789396627
2991.991991991992 0.22929442317503748
3002.002002002002 0.23135193257151224
3012.012012012012 0.2334008463772016
3022.0220220220217 0.23544093931852283
3032.032032032032 0.23753669272188824
3042.0420420420423 0.23955108801729375
3052.052052052052 0.24155348155166223
3062.062062062062 0.2435442176302405
3072.072072072072 0.24552358806197727
3082.0820820820823 0.2474918362503382
3092.092092092092 0.24944916106676443
3102.102102102102 0.25139572051223924
3112.1121121121123 0.2533316351731588
3122.122122122122 0.25525699147825653
3132.132132132132 0.25717184476371435
3142.1421421421423 0.2590762221538462
3152.152152152152 0.2609701252648737
3162.162162162162 0.26285353273939166
3172.1721721721724 0.2647264026190708
3182.1821821821823 0.2665886745630939
3192.192192192192 0.2684402719196822
3202.202202202202 0.2702811036579201
3212.2122122122123 0.2721110661668971
3222.222222222222 0.27393004492896633
3232.232232232232 0.2757379160737269
3242.2422422422424 0.27753454781906933
3252.252252252252 0.27931980180541455
3262.262262262262 0.28109353432901774
3272.2722722722724 0.28285559747998296
3282.2822822822823 0.2846058401903783
3292.292292292292 0.28634410919762193
3302.3023023023025 0.28807024992806707
3312.3123123123123 0.28978410730549103
3322.322322322322 0.29148552648897924
3332.3323323323325 0.293174353544474
3342.3423423423424 0.29485043605405886
3352.352352352352 0.2965136236668484
3362.3623623623625 0.298163768595162
3372.3723723723724 0.2998007260594762
3382.3823823823823 0.3014243546854769
3392.3923923923926 0.30303451685636096
3402.4024024024025 0.30463107902337383
3412.4124124124123 0.30621391197741626
3422.4224224224226 0.30778289108440765
3432.4324324324325 0.30933789648694265
3442.4424424424424 0.31087881327465566
3452.4524524524522 0.31240553162555856
3462.4624624624626 0.3139179469205197
3472.4724724724724 0.315415959832903
3482.4824824824823 0.31689947639530197
3492.4924924924926 0.31836840804517397
3502.5025025025025 0.3198226716510893
3512.5125125125123 0.3212621895212093
3522.5225225225226 0.3226868893955074
3532.5325325325325 0.32409670442316924
3542.5425425425424 0.3254915731265136
3552.5525525525527 0.326871439352697
3562.5625625625626 0.3282362522143952
3572.5725725725724 0.3295859660205644
3582.5825825825827 0.3309205401983351
3592.5925925925926 0.332239939207011
3602.6026026026025 0.3335441324450855
3612.612612612613 0.33483309415113477
3622.6226226226227 0.33610680329937315
3632.6326326326325 0.33736524349062647
3642.642642642643 0.33860840283939975
3652.6526526526527 0.3398362738576907
3662.6626626626626 0.3410488533361379
3672.672672672673 0.3422461422230621
3682.6826826826828 0.3434281455018961
3692.6926926926926 0.3445948720674934
3702.7027027027025 0.3457463346017268
3712.712712712713 0.3468825494487917
3722.7227227227227 0.34800353649057064
3732.7327327327325 0.3491093190223903
3742.742742742743 0.35019992362948227
3752.7527527527527 0.3512753800644152
3762.7627627627626 0.3523357211257513
3772.772772772773 0.3533809825381543
3782.7827827827828 0.35441120283414834
3792.7927927927926 0.3554264232377038
3802.802802802803 0.3564266875498216
3812.812812812813 0.35741204203624516
3822.8228228228227 0.35838253531742614
3832.832832832833 0.3593382182608586
3842.842842842843 0.36027914387585996
3852.8528528528527 0.3612053672108862
3862.862862862863 0.362116945253438
3872.872872872873 0.363013936832616
3882.8828828828828 0.3638964025243516
3892.892892892893 0.36476440455936543
3902.902902902903 0.3656180067338429
3912.912912912913 0.36645727432286535
3922.922922922923 0.3672822739965796
3932.932932932933 0.3680930737391102
3942.942942942943 0.36888974277019776
3952.9529529529527 0.3696723514695467
3962.962962962963 0.37044097130385706
3972.972972972973 0.37119567475651033
3982.982982982983 0.37193653525987874
3992.992992992993 0.37266362713021267
4003.003003003003 0.3733770255050704
4013.013013013013 0.37407680628324547
4023.023023023023 0.37476304606713423
4033.033033033033 0.37543582210750615
4043.043043043043 0.3760952122506133
4053.053053053053 0.37674129488758945
4063.063063063063 0.37737414890608106
4073.073073073073 0.37799385364405236
4083.0830830830832 0.3786004888457084
4093.093093093093 0.3791941346194731
4103.103103103103 0.37977487139796223
4113.113113113113 0.3803427798999006
4123.123123123123 0.3808979410939049
4133.133133133133 0.3814404361640915
4143.143143143143 0.3819703464774341
4153.153153153153 0.38248775355282233
4163.163163163163 0.38299273903175113
4173.173173173173 0.38348538465059345
4183.183183183183 0.3839657722143873
4193.193193193193 0.38443398357208836
4203.203203203203 0.3848901005932253
4213.213213213214 0.3853342051459076
4223.223223223224 0.38576637907612454
4233.2332332332335 0.38618670418829004
4243.243243243243 0.3865952622269732
4253.253253253253 0.3869921348597654
4263.263263263263 0.3873774036612395
4273.273273273273 0.38775115009794264
4283.283283283283 0.388113455514381
4293.293293293293 0.38846440111994907
4303.303303303303 0.38880406797675904
4313.313313313313 0.38913253698832334
4323.323323323323 0.3894498888890494
4333.333333333334 0.38975620423450924
4343.343343343344 0.39005156339243385
4353.353353353354 0.39033604653440906
4363.3633633633635 0.3906097336282158
4373.373373373373 0.3908727044308005
4383.383383383383 0.39112503848182006
4393.393393393393 0.391366815097744
4403.403403403403 0.39159811336647293
4413.413413413413 0.3918190121424422
4423.423423423424 0.39202959004218657
4433.4334334334335 0.39222992544032836
4443.443443443443 0.3924200964659735
4453.453453453454 0.3926001809994748
4463.463463463464 0.392770256669549
4473.473473473474 0.3929304008507191
4483.483483483484 0.3930806906610543
4493.493493493494 0.39322120296019414
4503.503503503503 0.39335201434762884
4513.513513513513 0.39347320116122014
4523.523523523523 0.3935848394759373
4533.533533533533 0.39368700510279975
4543.543543543543 0.3937797735879998
4553.553553553554 0.39386322021219206
4563.563563563564 0.39393741998994003
4573.573573573573 0.3940024476692903
4583.583583583584 0.3940583777314809
4593.593593593594 0.3941052843907495
4603.603603603604 0.39414324159424496
4613.613613613614 0.3941723230220236
4623.623623623624 0.39419260208711737
4633.6336336336335 0.39420415193566877
4643.643643643643 0.39420704544712065
4653.653653653653 0.3942013552344484
4663.663663663663 0.39418715364443185
4673.673673673674 0.3941645127579555
4683.683683683684 0.3941335043903283
4693.693693693694 0.3940942000916213
4703.703703703704 0.3940466711470116
4713.713713713714 0.3939909885771283
4723.723723723724 0.393927223138396
4733.733733733734 0.39385544532337136
4743.743743743744 0.393775725361067
4753.753753753754 0.3936881332172551
4763.763763763764 0.3935927385947573
4773.773773773773 0.39348961093370244
4783.783783783783 0.39337881941176644
4793.793793793793 0.39326043294437446
4803.803803803804 0.39313452018487627
4813.813813813814 0.3930011495246834
4823.823823823824 0.39286038909337634
4833.833833833834 0.3927123067587666
4843.843843843844 0.3925569701269255
4853.853853853854 0.3923944465421707
4863.863863863864 0.3922248030870117
4873.873873873874 0.3920481065820566
4883.883883883884 0.39186442358587176
4893.893893893894 0.3916738203948038
4903.9039039039035 0.39147636304275946
4913.913913913913 0.3912721173009388
4923.923923923924 0.39106114867753194
4933.933933933934 0.39084352241736836
4943.943943943944 0.39061930350153357
4953.953953953955 0.39038855664693484
4963.9639639639645 0.3901513463058353
4973.973973973974 0.3899077366653461
4983.983983983984 0.38965779164688114
4993.993993993994 0.3894015749055746
5004.004004004004 0.38913914982966175
5014.014014014014 0.3888705795398275
5024.024024024024 0.38859592688852007
5034.0340340340335 0.3883152544592329
5044.044044044043 0.38802862456575365
5054.054054054054 0.3877360992513901
5064.064064064064 0.38743774028816036
5074.074074074074 0.38713360917596285
5084.084084084085 0.3868237671417159
5094.0940940940945 0.38650827513848157
5104.104104104104 0.38618719384455863
5114.114114114114 0.3858605836625639
5124.124124124124 0.38552850471848765
5134.134134134134 0.38519101686073653
5144.144144144144 0.3848481796591601
5154.154154154154 0.38450005240406293
5164.1641641641645 0.3841466941052046
5174.174174174174 0.383788163490788
5184.184184184184 0.38342451900644214
5194.194194194194 0.3830558188141921
5204.204204204204 0.3826821207914277
5214.214214214214 0.3823034825298644
5224.224224224225 0.38191996133450445
5234.2342342342345 0.38153161422259274
5244.244244244244 0.3811384979225762
5254.254254254254 0.38074066887306396
5264.264264264264 0.3803381832217869
5274.274274274274 0.37993109682456777
5284.284284284285 0.37951946524429175
5294.294294294295 0.37910334374988613
5304.304304304304 0.3786827873153081
5314.314314314314 0.3782578506185443
5324.324324324324 0.377828588040615
5334.334334334334 0.37739505366459924
5344.344344344345 0.3769573012746652
5354.354354354355 0.37651538435511916
5364.3643643643645 0.3760693560894709
5374.374374374374 0.37561926935951134
5384.384384384384 0.37516517674441346
5394.394394394394 0.3747071305198457
5404.404404404404 0.37424518265711104
5414.414414414415 0.3737793848223019
5424.424424424425 0.37330978837548
5434.4344344344345 0.37283644436987545
5444.444444444444 0.3723594035511114
5454.454454454454 0.3718787163564513
5464.464464464464 0.3713944329140711
5474.474474474475 0.3709066030423584
5484.484484484485 0.37041527624923315
5494.494494494495 0.3699205017315017
5504.504504504504 0.36942232837423267
5514.514514514514 0.3689208047501618
5524.524524524524 0.368415979119129
5534.534534534535 0.3679078994275386
5544.544544544545 0.3673966133078539
5554.554554554555 0.36688216807811824
5564.5645645645645 0.366364610741509
5574.574574574574 0.36584398798591883
5584.584584584584 0.36532034618357395
5594.594594594595 0.3647937313906741
5604.604604604605 0.36426418934707605
5614.614614614615 0.3637317654759974
5624.624624624625 0.3631965048837615
5634.6346346346345 0.36265845235956906
5644.644644644644 0.36211765237530413
5654.654654654654 0.36157414908537444
5664.664664664665 0.36102798632658
5674.674674674675 0.3604792076180192
5684.684684684685 0.35992785616102463
5694.694694694695 0.35937397483913425
5704.704704704704 0.35881760621809206
5714.714714714714 0.35825879254588605
5724.724724724725 0.35769757575281547
5734.734734734735 0.35713399745159286
5744.744744744745 0.3565680989374779
5754.754754754755 0.35599992118844437
5764.764764764765 0.3554295048653802
5774.774774774774 0.354856890312319
5784.784784784785 0.3542821175567043
5794.794794794795 0.35370522630968615
5804.804804804805 0.35312625596644925
5814.814814814815 0.3525452456065726
5824.824824824825 0.3519622339944227
5834.8348348348345 0.3513772595795741
5844.844844844845 0.3507903604972661
5854.854854854855 0.3502015745688845
5864.864864864865 0.3496109393024791
5874.874874874875 0.3490184918933085
5884.884884884885 0.3484242692244153
5894.894894894895 0.3478283078672308
5904.9049049049045 0.3472306440822101
5914.914914914915 0.346631313819495
5924.924924924925 0.3460303527196058
5934.934934934935 0.3454277961141606
5944.944944944945 0.3448236790266254
5954.954954954955 0.3442180361730869
5964.964964964965 0.3436109019630573
5974.974974974975 0.3430023105003022
5984.984984984985 0.34239229558369766
5994.994994994995 0.34178089070811046
6005.005005005005 0.341168129065306
6015.015015015015 0.3405540435448806
6025.025025025025 0.3399386667352187
6035.035035035035 0.3393220309244735
6045.045045045045 0.33870416810157267
6055.055055055055 0.3380851099572465
6065.065065065065 0.3374648878850796
6075.075075075075 0.3368435329825846
6085.085085085085 0.336221076052299
6095.0950950950955 0.33559754760290195
6105.105105105105 0.33497297785035396
6115.115115115115 0.3343473967190562
6125.125125125125 0.3337208338430299
6135.135135135135 0.3330933185671182
6145.145145145145 0.33246487994820206
6155.155155155155 0.33183554675644167
6165.1651651651655 0.3312053474765299
6175.175175175175 0.33057431030896967
6185.185185185185 0.3299424631713638
6195.195195195195 0.32930983369972533
6205.205205205205 0.3286764492498038
6215.215215215215 0.3280423368984252
6225.225225225226 0.32740752344485247
