#lamb flux
1000.0 4.637965823662352e+40
1010.01001001001 4.806164728638299e+40
1020.0200200200201 4.972941111104265e+40
1030.03003003003 5.138115629228609e+40
1040.0400400400401 5.30152348344261e+40
1050.05005005005 5.463013839002988e+40
1060.06006006006 5.622449222760675e+40
1070.07007007007 5.779704903707178e+40
1080.08008008008 5.93466826543207e+40
1090.0900900900901 6.087238177336351e+40
1100.1001001001 6.237324370301204e+40
1110.11011011011 6.384846821500164e+40
1120.1201201201202 6.529735152154787e+40
1130.13013013013 6.67192804126031e+40
1140.1401401401401 6.81137265763675e+40
1150.1501501501502 6.948024112083598e+40
1160.16016016016 7.081844930922247e+40
1170.1701701701702 7.212804551790588e+40
1180.1801801801803 7.340878842200537e+40
1190.1901901901902 7.466049641072977e+40
1200.2002002002002 7.588304323219916e+40
1210.2102102102103 7.707635386542299e+40
1220.2202202202202 7.824040061549414e+40
1230.2302302302303 7.937519942676416e+40
1240.2402402402402 8.048080640774983e+40
1250.2502502502502 8.155643179201504e+40
1260.2602602602603 8.259951366696665e+40
1270.2702702702702 8.360526822911161e+40
1280.2802802802803 8.457381719039874e+40
1290.2902902902902 8.550533349547773e+40
1300.3003003003003 8.640003742050818e+40
1310.3103103103103 8.725819283496212e+40
1320.3203203203202 8.808010362634043e+40
1330.3303303303303 8.886611028671772e+40
1340.3403403403404 8.96165866591523e+40
1350.3503503503503 9.033193684126322e+40
1360.3603603603603 9.101259224265532e+40
1370.3703703703704 9.16590087923524e+40
1380.3803803803803 9.22716642919786e+40
1390.3903903903904 9.285105591008195e+40
1400.4004004004005 9.33976978127192e+40
1410.4104104104103 9.391211892521701e+40
1420.4204204204204 9.439486081986439e+40
1430.4304304304305 9.484647572418345e+40
1440.4404404404404 9.526752464436076e+40
1450.4504504504505 9.565857559838395e+40
1460.4604604604606 9.602020195342835e+40
1470.4704704704704 9.63529808620575e+40
1480.4804804804805 9.66574917918465e+40
1490.4904904904906 9.693431514309462e+40
1500.5005005005005 9.718403094937117e+40
1510.5105105105106 9.740721765572775e+40
1520.5205205205207 9.760445096950392e+40
1530.5305305305305 9.777630277876943e+40
1540.5405405405404 9.792334013355675e+40
1550.5505505505505 9.804612428517005e+40
1560.5605605605606 9.81452097789887e+40
1570.5705705705705 9.822114359633481e+40
1580.5805805805805 9.827446434113412e+40
1590.5905905905906 9.830570146727569e+40
1600.6006006006005 9.831537454277985e+40
1610.6106106106106 9.8303992547106e+40
1620.6206206206207 9.827205319819828e+40
1630.6306306306305 9.822004230617341e+40
1640.6406406406406 9.814843315091742e+40
1650.6506506506507 9.805768588130271e+40
1660.6606606606606 9.794824693425938e+40
1670.6706706706707 9.782054847258767e+40
1680.6806806806808 9.767500784118238e+40
1690.6906906906906 9.75120270423148e+40
1700.7007007007007 9.733204664278339e+40
1710.7107107107108 9.71356561244147e+40
1720.7207207207207 9.692318636703102e+40
1730.7307307307308 9.66949236909883e+40
1740.7407407407409 9.645114005625944e+40
1750.7507507507507 9.619209263569909e+40
1760.7607607607606 9.59180234669658e+40
1770.770770770771 9.5629159205525e+40
1780.7807807807808 9.532571100689342e+40
1790.7907907907907 9.500787457315035e+40
1800.8008008008007 9.467583040687593e+40
1810.8108108108108 9.432974432521492e+40
1820.8208208208207 9.396976829782397e+40
1830.8308308308308 9.359604168508835e+40
1840.8408408408409 9.320869296714031e+40
1850.8508508508507 9.280784206968152e+40
1860.8608608608608 9.23936034089557e+40
1870.870870870871 9.196608979469098e+40
1880.8808808808808 9.152541734517423e+40
1890.890890890891 9.107171158102651e+40
1900.900900900901 9.060511487108213e+40
1910.9109109109108 9.012579540146507e+40
1920.920920920921 8.96339578228479e+40
1930.930930930931 8.912985569512526e+40
1940.940940940941 8.861380578644087e+40
1950.950950950951 8.808620418701588e+40
1960.960960960961 8.75475440599177e+40
1970.970970970971 8.699843466438515e+40
1980.980980980981 8.64396210494079e+40
1990.9909909909911 8.587200352849461e+40
2001.001001001001 8.529665572246903e+40
2011.0110110110109 8.471483961941937e+40
2021.0210210210212 8.412801578827727e+40
2031.031031031031 8.35378466494226e+40
2041.0410410410411 8.294619062023764e+40
2051.051051051051 8.235508509010261e+40
2061.061061061061 8.176671660602497e+40
2071.071071071071 8.118337741075276e+40
2081.081081081081 8.060740856870893e+40
2091.091091091091 8.004113127702723e+40
2101.101101101101 7.948676945247178e+40
2111.1111111111113 7.894636810743678e+40
2121.121121121121 7.842171313807832e+40
2131.131131131131 7.79142587102674e+40
2141.141141141141 7.742506827219413e+40
2151.151151151151 7.695477428674882e+40
2161.161161161161 7.65035601447501e+40
2171.1711711711714 7.6071165610875e+40
2181.1811811811813 7.565691488255213e+40
2191.191191191191 7.52597642512998e+40
2201.201201201201 7.487836474375358e+40
2211.2112112112113 7.451113417873016e+40
2221.221221221221 7.415633286574059e+40
2231.2312312312315 7.381213761927718e+40
2241.2412412412414 7.347670970693525e+40
2251.2512512512512 7.314825357652894e+40
2261.261261261261 7.282506450793158e+40
2271.271271271271 7.250556453732834e+40
2281.2812812812813 7.218832698984011e+40
2291.2912912912916 7.187209067581412e+40
2301.3013013013015 7.155576525202645e+40
2311.3113113113113 7.123842945281099e+40
2321.321321321321 7.091932390849073e+40
2331.331331331331 7.059784014612791e+40
2341.3413413413414 7.027350716353726e+40
2351.3513513513512 6.994597672553643e+40
2361.3613613613616 6.9615008284174095e+40
2371.3713713713714 6.92804541938861e+40
2381.3813813813813 6.894224569064595e+40
2391.391391391391 6.8600379936571825e+40
2401.4014014014015 6.82549082985669e+40
2411.4114114114113 6.790592592878776e+40
2421.4214214214217 6.755356264181336e+40
2431.4314314314315 6.719797503347895e+40
2441.4414414414414 6.683933975467293e+40
2451.4514514514512 6.647784783563694e+40
2461.4614614614616 6.61136999487557e+40
2471.4714714714714 6.574710249744756e+40
2481.4814814814818 6.537826442318133e+40
2491.4914914914916 6.500739463003045e+40
2501.5015015015015 6.463469993519698e+40
2511.5115115115113 6.426038346363414e+40
2521.521521521521 6.388464341461704e+40
2531.5315315315315 6.350767213743316e+40
2541.541541541542 6.312965546202506e+40
2551.5515515515517 6.275077223828916e+40
2561.5615615615616 6.237119404475635e+40
2571.5715715715714 6.199108503356622e+40
2581.5815815815813 6.161060188402589e+40
2591.5915915915916 6.122989384168551e+40
2601.6016016016015 6.08491028238337e+40
2611.611611611612 6.046836357568584e+40
2621.6216216216217 6.008780386439126e+40
2631.6316316316315 5.970754470037544e+40
2641.6416416416414 5.932770057753789e+40
2651.6516516516517 5.894837972549097e+40
2661.6616616616616 5.856968436840777e+40
2671.671671671672 5.819171098618701e+40
2681.6816816816818 5.781455057458219e+40
2691.6916916916916 5.743828890170948e+40
2701.7017017017015 5.706300675897644e+40
2711.711711711712 5.668878020498161e+40
2721.7217217217217 5.631568080134719e+40
2731.731731731732 5.59437758397748e+40
2741.741741741742 5.557312855988079e+40
2751.7517517517517 5.5203798357572805e+40
2761.7617617617616 5.483584098389649e+40
2771.7717717717715 5.446930873440466e+40
2781.781781781782 5.410425062920115e+40
2791.791791791792 5.374071258388373e+40
2801.801801801802 5.337873757166277e+40
2811.811811811812 5.3018365776971775e+40
2821.8218218218217 5.265963474090986e+40
2831.8318318318316 5.230257949887211e+40
2841.841841841842 5.19472327107305e+40
2851.851851851852 5.159362478393021e+40
2861.861861861862 5.124178398986146e+40
2871.871871871872 5.089173657386108e+40
2881.881881881882 5.054350685918797e+40
2891.8918918918916 5.019711734530455e+40
2901.901901901902 4.9852588800783985e+40
2911.911911911912 4.950994035114883e+40
2921.921921921922 4.916918956193262e+40
2931.931931931932 4.883035251724137e+40
2941.941941941942 4.849344389407769e+40
2951.9519519519517 4.815847703267556e+40
2961.961961961962 4.782546400308106e+40
2971.971971971972 4.7494415668198995e+40
2981.9819819819822 4.716534174351483e+40
2991.991991991992 4.683825085368658e+40
3002.002002002002 4.651315058619141e+40
3012.012012012012 4.619004754219921e+40
3022.0220220220217 4.5868947384835285e+40
3032.032032032032 4.557520015957776e+40
3042.0420420420423 4.525487651093867e+40
3052.052052052052 4.493570151996719e+40
3062.062062062062 4.46179246472445e+40
3072.072072072072 4.430175940635359e+40
3082.0820820820823 4.398738720226807e+40
3092.092092092092 4.367496082255103e+40
3102.102102102102 4.336460760770216e+40
3112.1121121121123 4.3056432325690145e+40
3122.122122122122 4.2750519774328245e+40
3132.132132132132 4.244693713373919e+40
3142.1421421421423 4.214573608973896e+40
3152.152152152152 4.1846954747569823e+40
3162.162162162162 4.155061935405007e+40
3172.1721721721724 4.1256745844894176e+40
3182.1821821821823 4.0965341232699604e+40
3192.192192192192 4.067640484990182e+40
3202.202202202202 4.0389929459872465e+40
3212.2122122122123 4.0105902248274913e+40
3222.222222222222 3.982430570579966e+40
3232.232232232232 3.95451184124774e+40
3242.2422422422424 3.926831573290734e+40
3252.252252252252 3.8993870430941075e+40
3262.262262262262 3.872175321162499e+40
3272.2722722722724 3.845193319752319e+40
3282.2822822822823 3.8184378345915895e+40
3292.292292292292 3.791905581279071e+40
3302.3023023023025 3.765593226901418e+40
3312.3123123123123 3.739497417358478e+40
3322.322322322322 3.71361480084218e+40
3332.3323323323325 3.687942047873706e+40
3342.3423423423424 3.6624758682662063e+40
3352.352352352352 3.637213025346172e+40
3362.3623623623625 3.612150347735451e+40
3372.3723723723724 3.5872847389672623e+40
3382.3823823823823 3.5626131851836343e+40
3392.3923923923926 3.5381327611380725e+40
3402.4024024024025 3.5138406347054146e+40
3412.4124124124123 3.489734070081358e+40
3422.4224224224226 3.4658104298360926e+40
3432.4324324324325 3.4420671759701582e+40
3442.4424424424424 3.4185018701057687e+40
3452.4524524524522 3.3951121729333586e+40
3462.4624624624626 3.371895843020803e+40
3472.4724724724724 3.3488507350815685e+40
3482.4824824824823 3.325974797787901e+40
3492.4924924924926 3.303266071206e+40
3502.5025025025025 3.2807226839216884e+40
3512.5125125125123 3.2583428499175247e+40
3522.5225225225226 3.236124865255491e+40
3532.5325325325325 3.2140671046130336e+40
3542.5425425425424 3.192168017714724e+40
3552.5525525525527 3.1704261256966325e+40
3562.5625625625626 3.1488400174359144e+40
3572.5725725725724 3.1274083458739406e+40
3582.5825825825827 3.106129824357579e+40
3592.5925925925926 3.0850032230198116e+40
3602.6026026026025 3.064027365217851e+40
3612.612612612613 3.0432011240441936e+40
3622.6226226226227 3.0225234189235496e+40
3632.6326326326325 3.0019932123064537e+40
3642.642642642643 2.9816095064683564e+40
3652.6526526526527 2.9613713404212425e+40
3662.6626626626626 2.941277786943248e+40
3672.672672672673 2.9213279497304475e+40
3682.6826826826828 2.901520960673616e+40
3692.6926926926926 2.881855977261813e+40
3702.7027027027025 2.8623321801136044e+40
3712.712712712713 2.842948770635933e+40
3722.7227227227227 2.8237049688099776e+40
3732.7327327327325 2.8046000111025307e+40
3742.742742742743 2.785633148501154e+40
3752.7527527527527 2.7668036446706435e+40
3762.7627627627626 2.748110774228119e+40
3772.772772772773 2.729553821133652e+40
3782.7827827827828 2.711132077193086e+40
3792.7927927927926 2.6928448406694826e+40
3802.802802802803 2.6746914149994797e+40
3812.812812812813 2.6566711076106583e+40
3822.8228228228227 2.638783228835988e+40
3832.832832832833 2.6210270909213045e+40
3842.842842842843 2.6034020071217707e+40
3852.8528528528527 2.585907290883229e+40
3862.862862862863 2.568542255104417e+40
3872.872872872873 2.5513062114760024e+40
3882.8828828828828 2.5341984698924337e+40
3892.892892892893 2.5172183379327694e+40
3902.902902902903 2.5003651204065505e+40
3912.912912912913 2.483638118961036e+40
3922.922922922923 2.467036631746105e+40
3932.932932932933 2.4505599531332924e+40
3942.942942942943 2.4342073734854854e+40
3952.9529529529527 2.417978178973965e+40
3962.962962962963 2.4018716514395617e+40
3972.972972972973 2.3858870682948314e+40
3982.982982982983 2.370023702464261e+40
3992.992992992993 2.354280822359636e+40
4003.003003003003 2.3386576918878674e+40
4013.013013013013 2.3231535704886054e+40
4023.023023023023 2.30776771319918e+40
4033.033033033033 2.2924993707444787e+40
4043.043043043043 2.2773477896494775e+40
4053.053053053053 2.2623122123723126e+40
4063.063063063063 2.2473918774558107e+40
4073.073073073073 2.2325860196955856e+40
4083.0830830830832 2.2178938703228606e+40
4093.093093093093 2.2033146572002977e+40
4103.103103103103 2.1888476050292208e+40
4113.113113113113 2.1744919355667151e+40
4123.123123123123 2.160246867851151e+40
4133.133133133133 2.1461116184348282e+40
4143.143143143143 2.1320854016224613e+40
4153.153153153153 2.1181674297143606e+40
4163.163163163163 2.1043569132531897e+40
4173.173173173173 2.0906530612733266e+40
4183.183183183183 2.077055081551865e+40
4193.193193193193 2.0635621808603839e+40
4203.203203203203 2.0501735652167015e+40
4213.213213213214 2.036888440135875e+40
4223.223223223224 2.0237060108797414e+40
4233.2332332332335 2.010625482704406e+40
4243.243243243243 1.9976460611051095e+40
4253.253253253253 1.9847669520579326e+40
4263.263263263263 1.9719873622579133e+40
4273.273273273273 1.9593064993531172e+40
4283.283283283283 1.9467235721743033e+40
4293.293293293293 1.9342377909598514e+40
4303.303303303303 1.9218483675756395e+40
4313.313313313313 1.9095545157296186e+40
4323.323323323323 1.897355451180851e+40
4333.333333333334 1.885250391942824e+40
4343.343343343344 1.8732385584808615e+40
4353.353353353354 1.861319173903501e+40
4363.3633633633635 1.8494914641477134e+40
4373.373373373373 1.8377546581578958e+40
4383.383383383383 1.8261079880585402e+40
4393.393393393393 1.8145506893205612e+40
4403.403403403403 1.803082000921233e+40
4413.413413413413 1.7917011654977337e+40
4423.423423423424 1.78040742949431e+40
4433.4334334334335 1.7692000433030723e+40
4443.443443443443 1.758078261398456e+40
4453.453453453454 1.7470413424654073e+40
4463.463463463464 1.7360885495213485e+40
4473.473473473474 1.7252191500319694e+40
4483.483483483484 1.7144324160209686e+40
4493.493493493494 1.703727624173786e+40
4503.503503503503 1.6931040559354544e+40
4513.513513513513 1.6825609976026515e+40
4523.523523523523 1.6720977404100642e+40
4533.533533533533 1.6617135806111957e+40
4543.543543543543 1.651407819553697e+40
4553.553553553554 1.641179763749378e+40
4563.563563563564 1.6310287249390124e+40
4573.573573573573 1.6209540201520453e+40
4583.583583583584 1.6109549717613675e+40
4593.593593593594 1.601030907533261e+40
4603.603603603604 1.5911811606726517e+40
4613.613613613614 1.5814050698638276e+40
4623.623623623624 1.5717019793067192e+40
4633.6336336336335 1.5620712387489067e+40
4643.643643643643 1.5525122035134851e+40
4653.653653653653 1.5430242345229024e+40
4663.663663663663 1.5336066983189285e+40
4673.673673673674 1.5242589670788727e+40
4683.683683683684 1.5149804186281933e+40
4693.693693693694 1.5057704364496155e+40
4703.703703703704 1.496628409688902e+40
4713.713713713714 1.4875537331573993e+40
4723.723723723724 1.478545807331473e+40
4733.733733733734 1.4696040383489758e+40
4743.743743743744 1.4607278380028623e+40
4753.753753753754 1.4519166237320624e+40
4763.763763763764 1.4431698186097441e+40
4773.773773773773 1.4344868513290663e+40
4783.783783783783 1.4258671561865565e+40
4793.793793793793 1.4173101730631966e+40
4803.803803803804 1.408815347403344e+40
4813.813813813814 1.4003821301915908e+40
4823.823823823824 1.3920099779276545e+40
4833.833833833834 1.383698352599409e+40
4843.843843843844 1.3754467216541592e+40
4853.853853853854 1.3672545579682312e+40
4863.863863863864 1.3591213398150027e+40
4873.873873873874 1.3510465508314318e+40
4883.883883883884 1.3430296799831972e+40
4893.893893893894 1.335070221528521e+40
4903.9039039039035 1.3271676749807544e+40
4913.913913913913 1.319321545069817e+40
4923.923923923924 1.3115313417025527e+40
4933.933933933934 1.3037965799220947e+40
4943.943943943944 1.296116779866288e+40
4953.953953953955 1.2884914667252628e+40
4963.9639639639645 1.2809201706982152e+40
4973.973973973974 1.2734024269494482e+40
4983.983983983984 1.2659377755637648e+40
4993.993993993994 1.2585257615012457e+40
5004.004004004004 1.2511659345514808e+40
5014.014014014014 1.2438578492873184e+40
5024.024024024024 1.2366010650181653e+40
5034.0340340340335 1.2293951457429121e+40
5044.044044044043 1.222239660102518e+40
5054.054054054054 1.2151341813323073e+40
5064.064064064064 1.2080782872140278e+40
5074.074074074074 1.2010715600277043e+40
5084.084084084085 1.1941135865033378e+40
5094.0940940940945 1.1872039577724909e+40
5104.104104104104 1.1803422693197923e+40
5114.114114114114 1.1735281209343965e+40
5124.124124124124 1.1667611166614382e+40
5134.134134134134 1.160040864753519e+40
5144.144144144144 1.1533669776222402e+40
5154.154154154154 1.1467390717898322e+40
5164.1641641641645 1.1401567678408959e+40
5174.174174174174 1.1336196903742925e+40
5184.184184184184 1.1271274679551956e+40
5194.194194194194 1.1206797330673412e+40
5204.204204204204 1.1142761220654965e+40
5214.214214214214 1.1079162751281637e+40
5224.224224224225 1.1015998362105436e+40
5234.2342342342345 1.095326452997781e+40
5244.244244244244 1.0890957768585005e+40
5254.254254254254 1.0829074627986656e+40
5264.264264264264 1.0767611694157564e+40
5274.274274274274 1.0706565588533061e+40
5284.284284284285 1.0645932967557834e+40
5294.294294294295 1.058571052223856e+40
5304.304304304304 1.0525894977700347e+40
5314.314314314314 1.046648309274716e+40
5324.324324324324 1.0407471659426244e+40
5334.334334334334 1.0348857502596813e+40
5344.344344344345 1.0290637479502847e+40
5354.354354354355 1.0232808479350357e+40
5364.3643643643645 1.0175367422888911e+40
5374.374374374374 1.0118311261997744e+40
5384.384384384384 1.0061636979276301e+40
5394.394394394394 1.0005341587639414e+40
5404.404404404404 9.949422129917053e+39
5414.414414414415 9.893875678458791e+39
5424.424424424425 9.838699334742951e+39
5434.4344344344345 9.783890228990434e+39
5444.444444444444 9.72944551978336e+39
5454.454454454454 9.675362393688481e+39
5464.464464464464 9.621638064885329e+39
5474.474474474475 9.568269774799221e+39
5484.484484484485 9.515254791739028e+39
5494.494494494495 9.462590410539762e+39
5504.504504504504 9.410273952209984e+39
5514.514514514514 9.358302763583982e+39
5524.524524524524 9.306674216978778e+39
5534.534534534535 9.255385709855872e+39
5544.544544544545 9.204434664487796e+39
5554.554554554555 9.153818527629363e+39
5564.5645645645645 9.103534770193682e+39
5574.574574574574 9.053580886932865e+39
5584.584584584584 9.003954396123404e+39
5594.594594594595 8.954652839256161e+39
5604.604604604605 8.905673780731088e+39
5614.614614614615 8.857014807556378e+39
5624.624624624625 8.808673529052281e+39
5634.6346346346345 8.7606475765594e+39
5644.644644644644 8.712934603151436e+39
5654.654654654654 8.665532283352432e+39
5664.664664664665 8.618438312858318e+39
5674.674674674675 8.571650408262938e+39
5684.684684684685 8.525166306788256e+39
5694.694694694695 8.478983766018912e+39
5704.704704704704 8.433100563640994e+39
5714.714714714714 8.38751449718492e+39
5724.724724724725 8.342223383772541e+39
5734.734734734735 8.29722505986824e+39
5744.744744744745 8.252517381034104e+39
5754.754754754755 8.208098221689066e+39
5764.764764764765 8.163965474871963e+39
5774.774774774774 8.120117052008515e+39
5784.784784784785 8.076550882682074e+39
5794.794794794795 8.033264914408198e+39
5804.804804804805 7.99025711241293e+39
5814.814814814815 7.947525459414737e+39
5824.824824824825 7.905067955410122e+39
5834.8348348348345 7.862882617462718e+39
5844.844844844845 7.820967479496022e+39
5854.854854854855 7.779320592089456e+39
5864.864864864865 7.737940022277951e+39
5874.874874874875 7.696823853354837e+39
5884.884884884885 7.655970184678059e+39
5894.894894894895 7.615377131479635e+39
5904.9049049049045 7.575042824678347e+39
5914.914914914915 7.534965410695547e+39
