#lamb flux
1000.0 0.8154593059023943
1010.01001001001 0.8343830745944437
1020.0200200200201 0.8510356551385744
1030.03003003003 0.8655054014124446
1040.0400400400401 0.877895247992904
1050.05005005005 0.8883188135565718
1060.06006006006 0.8968969713183866
1070.07007007007 0.9037548860833551
1080.08008008008 0.9090195012775547
1090.0900900900901 0.912817448088411
1100.1001001001 0.9152733416878684
1110.11011011011 0.9165084255958905
1120.1201201201202 0.9166395238140181
1130.13013013013 0.9157782607719276
1140.1401401401401 0.9140305108433097
1150.1501501501502 0.9114960417630272
1160.16016016016 0.9082683193700211
1170.1701701701702 0.9044344444457304
1180.1801801801803 0.9000751958200935
1190.1901901901902 0.8952651572368512
1200.2002002002002 0.8900729086125143
1210.2102102102103 0.8845612652294674
1220.2202202202202 0.8787875510408308
1230.2302302302303 0.8728038946201061
1240.2402402402402 0.8666575383638405
1250.2502502502502 0.8603251374298709
1260.2602602602603 0.8536520676624376
1270.2702702702702 0.8463335825938845
1280.2802802802803 0.838432027513208
1290.2902902902902 0.8300065702108437
1300.3003003003003 0.8211131604245485
1310.3103103103103 0.8118045254964629
1320.3203203203202 0.8021301964035736
1330.3303303303303 0.7921365589266065
1340.3403403403404 0.781866925299285
1350.3503503503503 0.7713616222243055
1360.3603603603603 0.7606580916498121
1370.3703703703704 0.7497910011682482
1380.3803803803803 0.7387923613272818
1390.3903903903904 0.727691647530348
1400.4004004004005 0.7165159245532688
1410.4104104104103 0.7052899720151979
1420.4204204204204 0.6940364094188797
1430.4304304304305 0.682775819619331
1440.4404404404404 0.6715268697941364
1450.4504504504505 0.6603064291750627
1460.4604604604606 0.649129682962372
1470.4704704704704 0.638010241982358
1480.4804804804805 0.6269602477677348
1490.4904904904906 0.615990472841742
1500.5005005005005 0.6051104160722827
1510.5105105105106 0.5943283930340139
1520.5205205205207 0.5836516213758022
1530.5305305305305 0.5730863012399551
1540.5405405405404 0.5626376908196005
1550.5505505505505 0.5523101771728293
1560.5605605605606 0.5421073424379063
1570.5705705705705 0.5320320256141156
1580.5805805805805 0.5220863800885335
1590.5905905905906 0.5122719271011689
1600.6006006006005 0.5025896053502038
1610.6106106106106 0.493039816946307
1620.6206206206207 0.4836224699307771
1630.6306306306305 0.4743370175773335
1640.6406406406406 0.46518249470220824
1650.6506506506507 0.4561575512125315
1660.6606606606606 0.4472604831292556
1670.6706706706707 0.4384892613288191
1680.6806806806808 0.42984155825783554
1690.6906906906906 0.4213147728880648
1700.7007007007007 0.41290769050699505
1710.7107107107108 0.40462362972381966
1720.7207207207207 0.39645822623100924
1730.7307307307308 0.38840621459346303
1740.7407407407409 0.38046237015631573
1750.7507507507507 0.3726215129345721
1760.7607607607606 0.3648785137806715
1770.770770770771 0.35722830328698824
1780.7807807807808 0.34966588395403225
1790.7907907907907 0.3421863462359507
1800.8008008008007 0.33478488916157384
1810.8108108108108 0.32745684631938565
1820.8208208208207 0.3201977180846566
1830.8308308308308 0.3130032110507978
1840.8408408408409 0.3058692856963643
1850.8508508508507 0.29879221336243544
1860.8608608608608 0.29176864361651544
1870.870870870871 0.28479568301802244
1880.8808808808808 0.2778709861508319
1890.890890890891 0.27099285951837343
1900.900900900901 0.26416037846948387
1910.9109109109108 0.2573735166977002
1920.920920920921 0.2506332869917001
1930.930930930931 0.2439418907736492
1940.940940940941 0.23730287252222199
1950.950950950951 0.2307212734396787
1960.960960960961 0.2242037767289055
1970.970970970971 0.21775883469424218
1980.980980980981 0.2113967657392572
1990.9909909909911 0.20512980745933823
2001.001001001001 0.198972110755614
2011.0110110110109 0.19293965963499068
2021.0210210210212 0.18705010253915683
2031.031031031031 0.1813224840468719
2041.0410410410411 0.17577687085911137
2051.051051051051 0.17043387309459215
2061.061061061061 0.1653140707360112
2071.071071071071 0.16043736482239332
2081.081081081081 0.15582228256471845
2091.091091091091 0.15148527362466768
2101.101101101101 0.14744003998931265
2111.1111111111113 0.14369694311978268
2121.121121121121 0.1402625288024576
2131.131131131131 0.13713920253292425
2141.141141141141 0.13432507716269154
2151.151151151151 0.13181400132779916
2161.161161161161 0.12959576351562005
2171.1711711711714 0.1276564541200384
2181.1811811811813 0.1259789577751932
2191.191191191191 0.12454354145260366
2201.201201201201 0.123328500546204
2211.2112112112113 0.12231082529017824
2221.221221221221 0.12146685285582683
2231.2312312312315 0.12077287565404374
2241.2412412412414 0.1202056829442172
2251.2512512512512 0.11974302004489933
2261.261261261261 0.11936395656459327
2271.271271271271 0.1190491615614982
2281.2812812812813 0.11878108899827562
2291.2912912912916 0.11854408105127946
2301.3013013013015 0.11832439969364593
2311.3113113113113 0.11811019856416871
2321.321321321321 0.1178914476242288
2331.331331331331 0.1176598227172668
2341.3413413413414 0.11740857112437325
2351.3513513513512 0.11713236279073946
2361.3613613613616 0.11682713528546154
2371.3713713713714 0.11648993891400476
2381.3813813813813 0.11611878684603333
2391.391391391391 0.11571251372683367
2401.4014014014015 0.11527064504830413
2411.4114114114113 0.11479327857816274
2421.4214214214217 0.11428097837699407
2431.4314314314315 0.11373468135310535
2441.4414414414414 0.11315561588943232
2451.4514514514512 0.11254523179717135
2461.4614614614616 0.11190514068020961
2471.4714714714714 0.11123706570795487
2481.4814814814818 0.11054279977023475
2491.4914914914916 0.10982417100855826
2501.5015015015015 0.10908301476869232
2511.5115115115113 0.10832115108889394
2521.521521521521 0.10754036691768531
2531.5315315315315 0.10674240233850427
2541.541541541542 0.10592894016149342
2551.5515515515517 0.1051015983221462
2561.5615615615616 0.10426192460066003
2571.5715715715714 0.10341139324362156
2581.5815815815813 0.10255140313063003
2591.5915915915916 0.10168327718262657
2601.6016016016015 0.1008082627562872
2611.611611611612 0.09992753281027421
2621.6216216216217 0.09904218766493798
2631.6316316316315 0.09815325720777365
2641.6416416416414 0.09726170342313162
2651.6516516516517 0.09636842314689063
2661.6616616616616 0.09547425096554552
2671.671671671672 0.09457996219489812
2681.6816816816818 0.09368627588669402
2691.6916916916916 0.09279385782249124
2701.7017017017015 0.09190332346311267
2711.711711711712 0.09101524082950627
2721.7217217217217 0.09013013329696698
2731.731731731732 0.08924848228967523
2741.741741741742 0.08837072986656525
2751.7517517517517 0.08749728119280306
2761.7617617617616 0.08662850689377069
2771.7717717717715 0.08576474529051949
2781.781781781782 0.08490630451728191
2791.791791791792 0.08405346452288319
2801.801801801802 0.08320647895884516
2811.811811811812 0.08236557695768212
2821.8218218218217 0.08153096480539308
2831.8318318318316 0.08070282751249841
2841.841841841842 0.07988133028818598
2851.851851851852 0.07906661992224119
2861.861861861862 0.0782588260794682
2871.871871871872 0.07745806251127627
2881.881881881882 0.07666442818902393
2891.8918918918916 0.07587800836359745
2901.901901901902 0.0750988755555519
2911.911911911912 0.07432709047998429
2921.921921921922 0.07356270291012647
2931.931931931932 0.07280575248346544
2941.941941941942 0.07205626945400749
2951.9519519519517 0.07131427539411583
2961.961961961962 0.07057978384916361
2971.971971971972 0.0698528009480611
2981.9819819819822 0.06913332597253796
2991.991991991992 0.0684213518878892
3002.002002002002 0.06771686583772818
3012.012012012012 0.06701984960513262
3022.0220220220217 0.06633028004241821
3032.032032032032 0.06590751828762392
3042.0420420420423 0.0651987659430899
3052.052052052052 0.0644887931579377
3062.062062062062 0.06378016493781413
3072.072072072072 0.0630750492673085
3082.0820820820823 0.062375261539418525
3092.092092092092 0.06168230530255834
3102.102102102102 0.060997409413682896
3112.1121121121123 0.06032156174217852
3122.122122122122 0.059655539606783686
3132.132132132132 0.05899993715102347
3142.1421421421423 0.05835518987480978
3152.152152152152 0.05772159654369431
3162.162162162162 0.057099338694968416
3172.1721721721724 0.056488497953119006
3182.1821821821823 0.055889071357454696
3192.192192192192 0.05530098489307794
3202.202202202202 0.05472410540361681
3212.2122122122123 0.05415825105085959
3222.222222222222 0.053603200473115904
3232.232232232232 0.05305870078108701
3242.2422422422424 0.052524474517496235
3252.252252252252 0.052000225694854185
3262.262262262262 0.051485645014613966
3272.2722722722724 0.05098041436064792
3282.2822822822823 0.050484210650469846
3292.292292292292 0.04999670911892298
3302.3023023023025 0.04951758610112978
3312.3123123123123 0.04904652137431512
3322.322322322322 0.04858320011162873
3332.3323323323325 0.048127314495250824
3342.3423423423424 0.04767856503082542
3352.352352352352 0.04723666160056745
3362.3623623623625 0.04680132428819646
3372.3723723723724 0.0463722840051025
3382.3823823823823 0.04594928294381124
3392.3923923923926 0.045532074881847184
3402.4024024024025 0.045120425356447974
3412.4124124124123 0.044714111728235355
3422.4224224224226 0.04431292314986097
3432.4324324324325 0.04391666045379174
3442.4424424424424 0.04352513597175281
3452.4524524524522 0.04313817329688483
3462.4624624624626 0.04275560699837304
3472.4724724724724 0.042377282297153394
3482.4824824824823 0.04200305471027312
3492.4924924924926 0.041632789670574995
3502.5025025025025 0.041266362127560095
3512.5125125125123 0.04090365613456491
3522.5225225225226 0.040544564426744596
3532.5325325325325 0.040188987993781365
3542.5425425425424 0.03983683565072792
3552.5525525525527 0.0394880236099389
3562.5625625625626 0.039142475056638634
3572.5725725725724 0.038800119730309834
3582.5825825825827 0.038460893513765686
3592.5925925925926 0.03812473803147741
3602.6026026026025 0.03779160025847332
3612.612612612613 0.03746143214089439
3622.6226226226227 0.03713419022908675
3632.6326326326325 0.03680983532392906
3642.642642642643 0.0364883321369306
3652.6526526526527 0.036169648964491055
3662.6626626626626 0.035853757376585124
3672.672672672673 0.03554063192002315
3682.6826826826828 0.03523024983633792
3692.6926926926926 0.03492259079426062
3702.7027027027025 0.034617636636672645
3712.712712712713 0.03431537114185306
3722.7227227227227 0.03401577979878397
3732.7327327327325 0.033718849596225675
3742.742742742743 0.03342456882523323
3752.7527527527527 0.0331329268947486
3762.7627627627626 0.03284391415987458
3772.772772772773 0.032557521762412514
3782.7827827827828 0.03227374148322663
3792.7927927927926 0.0319925656059836
3802.802802802803 0.031713986791806016
3812.812812812813 0.031437997964370495
3822.8228228228227 0.03116459220497881
3832.832832832833 0.03089376265712892
3842.842842842843 0.030625502440114673
3852.8528528528527 0.030359804571187504
3862.862862862863 0.03009666189581861
3872.872872872873 0.02983606702560895
3882.8828828828828 0.029578012283402042
3892.892892892893 0.02932248965516725
3902.902902902903 0.02906949074823021
3912.912912912913 0.028819006755441676
3922.922922922923 0.028571028424887783
3932.932932932933 0.0283255460347596
3942.942942942943 0.02808254937301277
3952.9529529529527 0.02784202772146371
3962.962962962963 0.027603969843983108
3972.972972972973 0.027368363978461915
3982.982982982983 0.02713519783224056
3992.992992992993 0.026904458580706263
4003.003003003003 0.026676132868778974
4013.013013013013 0.026450206815019337
4023.023023023023 0.02622666601810819
4033.033033033033 0.026005495565459637
4043.043043043043 0.025786680043744032
4053.053053053053 0.025570203551110504
4063.063063063063 0.025356049710911176
4073.073073073073 0.02514420168674208
4083.0830830830832 0.024934642198627524
4093.093093093093 0.024727353540186597
4103.103103103103 0.024522317596631277
4113.113113113113 0.024319515863456802
4123.123123123123 0.024118929465694407
4133.133133133133 0.02392053917760733
4143.143143143143 0.023724325442719605
4153.153153153153 0.023530268394076032
4163.163163163163 0.023338347874640484
4173.173173173173 0.023148543457747514
4183.183183183183 0.022960834467529723
4193.193193193193 0.02277519999925034
4203.203203203203 0.022591618939477653
4213.213213213214 0.022410069986043744
4223.223223223224 0.02223053166773606
4233.2332332332335 0.022052982363675998
4243.243243243243 0.02187740032234389
4253.253253253253 0.0217037636802144
4263.263263263263 0.021532050479971282
4273.273273273273 0.021362238688274058
4283.283283283283 0.021194306213053765
4293.293293293293 0.021028230920318008
4303.303303303303 0.020863990650449173
4313.313313313313 0.02070156323398271
4323.323323323323 0.020540926506855035
4333.333333333334 0.020382058325113583
4343.343343343344 0.020224936579083693
4353.353353353354 0.020069539206989104
4363.3633633633635 0.019915844208025037
4373.373373373373 0.01976382965488465
4383.383383383383 0.01961347370574105
4393.393393393393 0.019464754615688824
4403.403403403403 0.019317650747650055
4413.413413413413 0.019172140582751324
4423.423423423424 0.01902820273017896
4433.4334334334335 0.018885815936520892
4443.443443443443 0.018744959094604136
4453.453453453454 0.01860561125183785
4463.463463463464 0.01846775161807255
4473.473473473474 0.018331359572985855
4483.483483483484 0.01819641467300711
4493.493493493494 0.01806289665779173
4503.503503503503 0.017930785456258095
4513.513513513513 0.017800061192198808
4523.523523523523 0.017670704189478924
4533.533533533533 0.01754269497683404
4543.543543543543 0.01741601429228038
4553.553553553554 0.0172906430871501
4563.563563563564 0.01716656252976412
4573.573573573573 0.017043754008755307
4583.583583583584 0.01692219913605454
4593.593593593594 0.01680187974955204
4603.603603603604 0.016682777915446277
4613.613613613614 0.01656487593029273
4623.623623623624 0.016448156322764182
4633.6336336336335 0.01633260185513465
4643.643643643643 0.01621819552449832
4653.653653653653 0.016104920563734748
4663.663663663663 0.01599276044223165
4673.673673673674 0.015881698866375877
4683.683683683684 0.015771719779823452
4693.693693693694 0.015662807363558597
4703.703703703704 0.01555494603575229
4713.713713713714 0.015448120451429851
4723.723723723724 0.015342315501957124
4733.733733733734 0.015237516314354532
4743.743743743744 0.01513370825044817
4753.753753753754 0.015030876905866282
4763.763763763764 0.01492900810889001
4773.773773773773 0.014828087919166054
4783.783783783783 0.014728102626289848
4793.793793793793 0.014629038748266172
4803.803803803804 0.014530883029855085
4813.813813813814 0.014433622440810166
4823.823823823824 0.014337244174015827
4833.833833833834 0.014241735643530486
4843.843843843844 0.014147084482541959
4853.853853853854 0.0140532785412411
4863.863863863864 0.0139603058846198
4873.873873873874 0.01386815479019882
4883.883883883884 0.013776813745691157
4893.893893893894 0.013686271446605992
4903.9039039039035 0.013596516793798395
4913.913913913913 0.013507538890969532
4923.923923923924 0.013419327042122066
4933.933933933934 0.013331870748975263
4943.943943943944 0.0132451597083438
4953.953953953955 0.013159183809484673
4963.9639639639645 0.013073933131415923
4973.973973973974 0.0129893979402108
4983.983983983984 0.012905568686271206
4993.993993993994 0.012822436001583533
5004.004004004004 0.01273999069696028
5014.014014014014 0.012658223759270497
5024.024024024024 0.012577126348661944
5034.0340340340335 0.012496689795777925
5044.044044044043 0.012416905598971217
5054.054054054054 0.01233776542151781
5064.064064064064 0.012259261088832822
5074.074074074074 0.01218138458569078
5084.084084084085 0.01210412805345253
5094.0940940940945 0.012027483787300803
5104.104104104104 0.011951444233486317
5114.114114114114 0.011876001986586272
5124.124124124124 0.01180114978677704
5134.134134134134 0.011726880517122534
5144.144144144144 0.011653187200879938
5154.154154154154 0.01158006299882411
5164.1641641641645 0.011507501206592156
5174.174174174174 0.011435495252049309
5184.184184184184 0.011364038692677369
5194.194194194194 0.011293125212986824
5204.204204204204 0.011222748621953707
5214.214214214214 0.011152902850482075
5224.224224224225 0.011083581948893053
5234.2342342342345 0.01101478008444135
5244.244244244244 0.010946491538859831
5254.254254254254 0.010878710705933076
5264.264264264264 0.010811432089100324
5274.274274274274 0.01074465029908869
5284.284284284285 0.010678360051576859
5294.294294294295 0.01061255616489005
5304.304304304304 0.010547233557726434
5314.314314314314 0.010482387246915602
5324.324324324324 0.010418012345209261
5334.334334334334 0.010354104059104596
5344.344344344345 0.010290657686700387
5354.354354354355 0.010227668615586357
5364.3643643643645 0.010165132320765593
5374.374374374374 0.010103044362610553
5384.384384384384 0.010041400384852437
5394.394394394394 0.009980196112604249
5404.404404404404 0.009919427350417426
5414.414414414415 0.009859089980372172
5424.424424424425 0.009799179960201434
5434.4344344344345 0.009739693321448412
5444.444444444444 0.009680626167657662
5454.454454454454 0.009621974672599674
5464.464464464464 0.009563735078528708
5474.474474474475 0.009505903694473877
5484.484484484485 0.009448476894563278
5494.494494494495 0.009391451116380938
5504.504504504504 0.009334822859356513
5514.514514514514 0.009278588683187355
5524.524524524524 0.0092227452062929
5534.534534534535 0.009167289104300994
5544.544544544545 0.009112217108565933
5554.554554554555 0.009057526004718
5564.5645645645645 0.009003212631244123
5574.574574574574 0.008949273878099462
5584.584584584584 0.008895706685349489
5594.594594594595 0.00884250804184232
5604.604604604605 0.008789674983911037
5614.614614614615 0.00873720459410543
5624.624624624625 0.00868509399995308
5634.6346346346345 0.008633340372749262
5644.644644644644 0.00858194092637532
5654.654654654654 0.008530892916145238
5664.664664664665 0.008480193637679857
5674.674674674675 0.008429840425808622
5684.684684684685 0.008379830653498128
5694.694694694695 0.008330161730807414
5704.704704704704 0.00828083110386937
5714.714714714714 0.008231836253897973
5724.724724724725 0.00818317469622094
5734.734734734735 0.008134843979337333
5744.744744744745 0.00808684168399982
5754.754754754755 0.008039165422321052
5764.764764764765 0.007991812836903874
5774.774774774774 0.007944781599994876
5784.784784784785 0.007898069412660927
5794.794794794795 0.007851674003988219
5804.804804804805 0.007805593130303498
5814.814814814815 0.007759824574416994
5824.824824824825 0.007714366144886705
5834.8348348348345 0.007669215675303556
5844.844844844845 0.007624371023597134
5854.854854854855 0.007579830071361477
5864.864864864865 0.007535590723200583
5874.874874874875 0.0074916509060932515
5884.884884884885 0.007448008568776828
5894.894894894895 0.007404661681149426
5904.9049049049045 0.007361608233690346
5914.914914914915 0.007318846236898156
5924.924924924925 0.007276373720746205
5934.934934934935 0.007234188734155
5944.944944944945 0.007192289344481292
5954.954954954955 0.007150673637023278
5964.964964964965 0.007109339714541709
5974.974974974975 0.007068285696796447
5984.984984984985 0.0070275097200981525
5994.994994994995 0.0069870099368747034
6005.005005005005 0.006946784515252036
6015.015015015015 0.006906831638649018
6025.025025025025 0.006867149505386058
6035.035035035035 0.006827736328307019
6045.045045045045 0.006788590334414228
6055.055055055055 0.0067497097645161114
6065.065065065065 0.006711092872887242
6075.075075075075 0.00667273792694041
6085.085085085085 0.006634643206910421
6095.0950950950955 0.006596807005549314
6105.105105105105 0.006559227627832686
6115.115115115115 0.006521903390676782
6125.125125125125 0.006484832622666141
6135.135135135135 0.006448013663791442
6145.145145145145 0.00641144486519721
6155.155155155155 0.00637512458893927
6165.1651651651655 0.006339051207751457
6175.175175175175 0.006303223104821492
6185.185185185185 0.006267638673575633
