#lamb flux
1000.0 8.609159168902231e+39
1010.01001001001 8.429180939342827e+39
1020.0200200200201 8.252829465583499e+39
1030.03003003003 8.080077098789066e+39
1040.0400400400401 7.91089151227524e+39
1050.05005005005 7.745236251128915e+39
1060.06006006006 7.583071235260438e+39
1070.07007007007 7.424353219361548e+39
1080.08008008008 7.269036213016829e+39
1090.0900900900901 7.117071864001167e+39
1100.1001001001 6.968409807590462e+39
1110.11011011011 6.822997984518899e+39
1120.1201201201202 6.680782930032288e+39
1130.13013013013 6.541710036313987e+39
1140.1401401401401 6.405723790396969e+39
1150.1501501501502 6.272767989522815e+39
1160.16016016016 6.142785935765001e+39
1170.1701701701702 6.015720611599858e+39
1180.1801801801803 5.891514837983268e+39
1190.1901901901902 5.770111416374163e+39
1200.2002002002002 5.651453256037132e+39
1210.2102102102103 5.535483487854832e+39
1220.2202202202202 5.422145565786589e+39
1230.2302302302303 5.311383357021903e+39
1240.2402402402402 5.2031412217962773e+39
1250.2502502502502 5.0973640363885247e+39
1260.2602602602603 4.993997214683111e+39
1270.2702702702702 4.892986753861287e+39
1280.2802802802803 4.79427964374531e+39
1290.2902902902902 4.6978236378433735e+39
1300.3003003003003 4.6035672876949326e+39
1310.3103103103103 4.5114599718168924e+39
1320.3203203203202 4.4214519197485576e+39
1330.3303303303303 4.333494231653109e+39
1340.3403403403404 4.247538893895783e+39
1350.3503503503503 4.163538790984512e+39
1360.3603603603603 4.0814477142268573e+39
1370.3703703703704 4.0012203674278114e+39
1380.3803803803803 3.9228123699258696e+39
1390.3903903903904 3.846180257239877e+39
1400.4004004004005 3.771281479576135e+39
1410.4104104104103 3.698074398424065e+39
1420.4204204204204 3.6265182814492665e+39
1430.4304304304305 3.556573295874761e+39
1440.4404404404404 3.4882005005248226e+39
1450.4504504504505 3.4213618366904315e+39
1460.4604604604606 3.3560201179615795e+39
1470.4704704704704 3.292139019158637e+39
1480.4804804804805 3.2296830644832956e+39
1490.4904904904906 3.168617614998681e+39
1500.5005005005005 3.1089088555382647e+39
1510.5105105105106 3.0505237811340444e+39
1520.5205205205207 2.9934301830460816e+39
1530.5305305305305 2.937596634467715e+39
1540.5405405405404 2.8829924759737217e+39
1550.5505505505505 2.829587800772226e+39
1560.5605605605606 2.7773534398151406e+39
1570.5705705705705 2.7262609468165475e+39
1580.5805805805805 2.6762825832233737e+39
1590.5905905905906 2.6273913031781884e+39
1600.6006006006005 2.579560738509713e+39
1610.6106106106106 2.5327651837828856e+39
1620.6206206206207 2.486979581436746e+39
1630.6306306306305 2.442179507035285e+39
1640.6406406406406 2.3983411546534017e+39
1650.6506506506507 2.355441322417595e+39
1660.6606606606606 2.3134573982184123e+39
1670.6706706706707 2.2723673456096378e+39
1680.6806806806808 2.2321496899071003e+39
1690.6906906906906 2.1927835044982027e+39
1700.7007007007007 2.154248398405608e+39
1710.7107107107108 2.116524505038251e+39
1720.7207207207207 2.0795924614531476e+39
1730.7307307307308 2.0434333998335128e+39
1740.7407407407409 2.008028935546364e+39
1750.7507507507507 1.9733611548562757e+39
1760.7607607607606 1.9394126028902146e+39
1770.770770770771 1.9061662718550393e+39
1780.7807807807808 1.873605589508604e+39
1790.7907907907907 1.8417144078848347e+39
1800.8008008008007 1.8104769922726385e+39
1810.8108108108108 1.7798780104480975e+39
1820.8208208208207 1.7499025221589995e+39
1830.8308308308308 1.7205359688605658e+39
1840.8408408408409 1.6917641637009163e+39
1850.8508508508507 1.6635732817547263e+39
1860.8608608608608 1.63594985050333e+39
1870.870870870871 1.608880740559502e+39
1880.8808808808808 1.5823531566350076e+39
1890.890890890891 1.556354628748911e+39
1900.900900900901 1.5308730036745498e+39
1910.9109109109108 1.5058964366227135e+39
1920.920920920921 1.4814133831583088e+39
1930.930930930931 1.45741259134706e+39
1940.940940940941 1.4338830941279898e+39
1950.950950950951 1.4108142019060684e+39
1960.960960960961 1.388195495357741e+39
1970.970970970971 1.3660168184397622e+39
1980.980980980981 1.344268271589034e+39
1990.9909909909911 1.3229402050978574e+39
2001.001001001001 1.3020232126455233e+39
2011.0110110110109 1.2815081249635679e+39
2021.0210210210212 1.2613860036090386e+39
2031.031031031031 1.2416481348181787e+39
2041.0410410410411 1.2222860234129874e+39
2051.051051051051 1.2032913867360129e+39
2061.061061061061 1.1846561485950373e+39
2071.071071071071 1.1663724332096349e+39
2081.081081081081 1.1484325591655472e+39
2091.091091091091 1.130829033399519e+39
2101.101101101101 1.1135545452547899e+39
2111.1111111111113 1.0966019606631431e+39
2121.121121121121 1.0799643165204204e+39
2131.131131131131 1.0636348153257815e+39
2141.141141141141 1.0476068201491468e+39
2151.151151151151 1.0318738499758109e+39
2161.161161161161 1.0164295754539275e+39
2171.1711711711714 1.0012678150427055e+39
2181.1811811811813 9.863825315310927e+38
2191.191191191191 9.717678288727598e+38
2201.201201201201 9.574179492669296e+38
2211.2112112112113 9.433272704077478e+38
2221.221221221221 9.294903028274861e+38
2231.2312312312315 9.159016872692768e+38
2241.2412412412414 9.02556192040617e+38
2251.2512512512512 8.894487103164741e+38
2261.261261261261 8.765742573779219e+38
2271.271271271271 8.63927967786709e+38
2281.2812812812813 8.515050925070183e+38
2291.2912912912916 8.393009959926062e+38
2301.3013013013015 8.273111532608011e+38
2311.3113113113113 8.155311469752572e+38
2321.321321321321 8.039566645576829e+38
2331.331331331331 7.92583495345798e+38
2341.3413413413414 7.814075278112835e+38
2351.3513513513512 7.70424746847869e+38
2361.3613613613616 7.59631231136381e+38
2371.3713713713714 7.4902315059071e+38
2381.3813813813813 7.385967638863049e+38
2391.391391391391 7.28348416071021e+38
2401.4014014014015 7.182745362568182e+38
2411.4114114114113 7.083716353899129e+38
2421.4214214214217 6.986363040964215e+38
2431.4314314314315 6.890652106002339e+38
2441.4414414414414 6.796550987097229e+38
2451.4514514514512 6.7040278586994314e+38
2461.4614614614616 6.613051612770558e+38
2471.4714714714714 6.523591840518985e+38
2481.4814814814818 6.435618814698045e+38
2491.4914914914916 6.349103472439882e+38
2501.5015015015015 6.264017398600102e+38
2511.5115115115113 6.1803328095904245e+38
2521.521521521521 6.09802253767829e+38
2531.5315315315315 6.0170600157340584e+38
2541.541541541542 5.937419262408058e+38
2551.5515515515517 5.859074867720939e+38
2561.5615615615616 5.782001979052055e+38
2571.5715715715714 5.706176287511787e+38
2581.5815815815813 5.631574014684411e+38
2591.5915915915916 5.558171899729199e+38
2601.6016016016015 5.485947186827961e+38
2611.611611611612 5.414877612968038e+38
2621.6216216216217 5.344941396050298e+38
2631.6316316316315 5.276117223312079e+38
2641.6416416416414 5.208384240055732e+38
2651.6516516516517 5.1417220386735546e+38
2661.6616616616616 5.076110647960523e+38
2671.671671671672 5.011530522706371e+38
2681.6816816816818 4.947962533559094e+38
2691.6916916916916 4.885387957152042e+38
2701.7017017017015 4.8237884664871816e+38
2711.711711711712 4.763146121567297e+38
2721.7217217217217 4.703443360270206e+38
2731.731731731732 4.64466298945811e+38
2741.741741741742 4.5867881763157395e+38
2751.7517517517517 4.5298024399107556e+38
2761.7617617617616 4.473689642970459e+38
2771.7717717717715 4.4184339838687075e+38
2781.781781781782 4.364019988817349e+38
2791.791791791792 4.3104325042565715e+38
2801.801801801802 4.257656689438654e+38
2811.811811811812 4.205678009199941e+38
2821.8218218218217 4.154482226915837e+38
2831.8318318318316 4.104055397633887e+38
2841.841841841842 4.05438386138008e+38
2851.851851851852 4.005454236633714e+38
2861.861861861862 3.957253413966216e+38
2871.871871871872 3.90976854983951e+38
2881.881881881882 3.862987060559644e+38
2891.8918918918916 3.816896616381463e+38
2901.901901901902 3.77148513576028e+38
2911.911911911912 3.726740779746587e+38
2921.921921921922 3.682651946519975e+38
2931.931931931932 3.639207266058546e+38
2941.941941941942 3.596395594940166e+38
2951.9519519519517 3.554206011272052e+38
2961.961961961962 3.512627809745294e+38
2971.971971971972 3.471650496810943e+38
2981.9819819819822 3.431263785974472e+38
2991.991991991992 3.39145759320544e+38
3002.002002002002 3.3522220324593365e+38
3012.012012012012 3.313547411308607e+38
3022.0220220220217 3.2754242266800155e+38
3032.032032032032 3.237844707158923e+38
3042.0420420420423 3.2007964191793208e+38
3052.052052052052 3.16427210301369e+38
3062.062062062062 3.128262987934805e+38
3072.072072072072 3.0927604703704854e+38
3082.0820820820823 3.0577561105046937e+38
3092.092092092092 3.0232416289378698e+38
3102.102102102102 2.989208903406899e+38
3112.1121121121123 2.9556499655650684e+38
3122.122122122122 2.922556997822079e+38
3132.132132132132 2.8899223302440732e+38
3142.1421421421423 2.8577384375135434e+38
3152.152152152152 2.8259979359488224e+38
3162.162162162162 2.7946935805827433e+38
3172.1721721721724 2.763818262300039e+38
3182.1821821821823 2.7333650050328852e+38
3192.192192192192 2.7033269630139853e+38
3202.202202202202 2.673697418086493e+38
3212.2122122122123 2.6444697770700576e+38
3222.222222222222 2.6156375691822104e+38
3232.232232232232 2.587194443514243e+38
3242.2422422422424 2.5591341665607783e+38
3252.252252252252 2.5314506198021357e+38
3262.262262262262 2.5041377973385915e+38
3272.2722722722724 2.4771898035756464e+38
3282.2822822822823 2.4506008509593658e+38
3292.292292292292 2.4243652577608602e+38
3302.3023023023025 2.398477445908991e+38
3312.3123123123123 2.3729319388703405e+38
3322.322322322322 2.3477233595755256e+38
3332.3323323323325 2.322846428390915e+38
3342.3423423423424 2.298295961134831e+38
3352.352352352352 2.2740668671372703e+38
3362.3623623623625 2.2501541473423e+38
3372.3723723723724 2.2265528924521538e+38
3382.3823823823823 2.2032582811121496e+38
3392.3923923923926 2.180265578135569e+38
3402.4024024024025 2.157570132767592e+38
3412.4124124124123 2.135167376987421e+38
3422.4224224224226 2.1130528238477762e+38
3432.4324324324325 2.091222065850907e+38
3442.4424424424424 2.069670773360284e+38
3452.4524524524522 2.0483946930471906e+38
3462.4624624624626 2.027389646371404e+38
3472.4724724724724 2.006651528095211e+38
3482.4824824824823 1.986176304829945e+38
3492.4924924924926 1.9659600136143646e+38
3502.5025025025025 1.9459987605240892e+38
3512.5125125125123 1.9262887193113957e+38
3522.5225225225226 1.9068261300746737e+38
3532.5325325325325 1.8876072979568472e+38
3542.5425425425424 1.8686285918720933e+38
3552.5525525525527 1.8498864432601994e+38
3562.5625625625626 1.831377344867924e+38
3572.5725725725724 1.813097849556713e+38
3582.5825825825827 1.7950445691361818e+38
3592.5925925925926 1.7772141732227476e+38
3602.6026026026025 1.7596033881228336e+38
3612.612612612613 1.7422089957400654e+38
3622.6226226226227 1.725027832505912e+38
3632.6326326326325 1.7080567883332075e+38
3642.642642642643 1.6912928055920471e+38
3652.6526526526527 1.6747328781075193e+38
3662.6626626626626 1.6583740501787557e+38
3672.672672672673 1.64221341561884e+38
3682.6826826826828 1.626248116815055e+38
3692.6926926926926 1.6104753438090226e+38
3702.7027027027025 1.5948923333962543e+38
3712.712712712713 1.5794963682446786e+38
3722.7227227227227 1.5642847760317199e+38
3732.7327327327325 1.5492549285994513e+38
3742.742742742743 1.5344042411274711e+38
3752.7527527527527 1.5197301713230439e+38
3762.7627627627626 1.5052302186281333e+38
3772.772772772773 1.4909019234429387e+38
3782.7827827827828 1.4767428663655496e+38
3792.7927927927926 1.4627506674473562e+38
3802.802802802803 1.4489229854638559e+38
3812.812812812813 1.4352575172005037e+38
3822.8228228228227 1.4217519967532629e+38
3832.832832832833 1.4084041948435279e+38
3842.842842842843 1.3952119181470908e+38
3852.8528528528527 1.382173008636833e+38
3862.862862862863 1.3692853429388331e+38
3872.872872872873 1.3565468317015972e+38
3882.8828828828828 1.3439554189780882e+38
3892.892892892893 1.3315090816203219e+38
3902.902902902903 1.3192058286861827e+38
3912.912912912913 1.307043700858237e+38
3922.922922922923 1.295020769874248e+38
3932.932932932933 1.283135137969155e+38
3942.942942942943 1.2713849373282345e+38
3952.9529529529527 1.2597683295512144e+38
3962.962962962963 1.2482835051271054e+38
3972.972972972973 1.2369286829194905e+38
3982.982982982983 1.2257021096620608e+38
3992.992992992993 1.2146020594641587e+38
4003.003003003003 1.203626833326135e+38
4013.013013013013 1.192774758664265e+38
4023.023023023023 1.1820441888450505e+38
4033.033033033033 1.1714335027286873e+38
4043.043043043043 1.1609411042214978e+38
4053.053053053053 1.1505654218371415e+38
4063.063063063063 1.1403049082664076e+38
4073.073073073073 1.1301580399554066e+38
4083.0830830830832 1.1201233166919776e+38
4093.093093093093 1.1101992612001418e+38
4103.103103103103 1.1003844187424154e+38
4113.113113113113 1.090677356729833e+38
4123.123123123123 1.0810766643394933e+38
4133.133133133133 1.071580952139488e+38
4143.143143143143 1.0621888517210461e+38
4153.153153153153 1.0528990153377415e+38
4163.163163163163 1.04371011555161e+38
4173.173173173173 1.034620844886042e+38
4183.183183183183 1.0256299154852959e+38
4193.193193193193 1.0167360587804938e+38
4203.203203203203 1.0079380251619687e+38
4213.213213213214 9.992345836578321e+37
4223.223223223224 9.906245216186191e+37
4233.2332332332335 9.82106644407894e+37
4243.243243243243 9.736797750986932e+37
4253.253253253253 9.653427541756753e+37
4263.263263263263 9.570944392428704e+37
4273.273273273273 9.489337047369037e+37
4283.283283283283 9.40859441645583e+37
4293.293293293293 9.32870557231745e+37
4303.303303303303 9.249659747622386e+37
4313.313313313313 9.171446332419598e+37
4323.323323323323 9.094054871528089e+37
4333.333333333334 9.01747506197493e+37
4343.343343343344 8.941696750480626e+37
4353.353353353354 8.86670993099085e+37
4363.3633633633635 8.792504742253648e+37
4373.373373373373 8.71907146544118e+37
4383.383383383383 8.64640052181507e+37
4393.393393393393 8.574482470434517e+37
4403.403403403403 8.503308005906264e+37
4413.413413413413 8.432867956175604e+37
4423.423423423424 8.363153280357602e+37
4433.4334334334335 8.294155066607741e+37
4443.443443443443 8.225864530031113e+37
4453.453453453454 8.158273010629496e+37
4463.463463463464 8.091371971285563e+37
4473.473473473474 8.025152995783287e+37
4483.483483483484 7.9596077868641285e+37
4493.493493493494 7.894728164318036e+37
4503.503503503503 7.8305060631086895e+37
4513.513513513513 7.76693353153234e+37
4523.523523523523 7.704002729409415e+37
4533.533533533533 7.641705926308505e+37
4543.543543543543 7.580035499801837e+37
4553.553553553554 7.518983933751767e+37
4563.563563563564 7.458543816627668e+37
4573.573573573573 7.398707839852547e+37
4583.583583583584 7.339468796178908e+37
4593.593593593594 7.280819578093231e+37
4603.603603603604 7.222753176248473e+37
4613.613613613614 7.165262677924197e+37
4623.623623623624 7.108341265513587e+37
4633.6336336336335 7.051982215037002e+37
4643.643643643643 6.996178894681487e+37
4653.653653653653 6.940924763365704e+37
4663.663663663663 6.886213369329876e+37
4673.673673673674 6.83203834875018e+37
4683.683683683684 6.778393424377228e+37
4693.693693693694 6.725272404198027e+37
4703.703703703704 6.67266918012111e+37
4713.713713713714 6.620577726684322e+37
4723.723723723724 6.568992099784849e+37
4733.733733733734 6.517906435431036e+37
4743.743743743744 6.467314948515669e+37
4753.753753753754 6.417211931610193e+37
4763.763763763764 6.367591753779589e+37
4773.773773773773 6.3184488594173935e+37
4783.783783783783 6.269777767100638e+37
4793.793793793793 6.221573068464187e+37
4803.803803803804 6.173829427094179e+37
4813.813813813814 6.126541577440247e+37
4823.823823823824 6.079704323746065e+37
4833.833833833834 6.033312538997993e+37
4843.843843843844 5.987361163891408e+37
4853.853853853854 5.9418452058144e+37
4863.863863863864 5.896759737848566e+37
4873.873873873874 5.852099897786496e+37
4883.883883883884 5.807860887165725e+37
4893.893893893894 5.7640379703188145e+37
4903.9039039039035 5.720626473439241e+37
4913.913913913913 5.677621783662833e+37
4923.923923923924 5.635019348164474e+37
4933.933933933934 5.592814673269783e+37
4943.943943943944 5.551003323581451e+37
4953.953953953955 5.509580921120074e+37
4963.9639639639645 5.468543144479124e+37
4973.973973973974 5.427885727993804e+37
4983.983983983984 5.387604460923615e+37
4993.993993993994 5.347695186648297e+37
5004.004004004004 5.308153801876934e+37
5014.014014014014 5.268976255870026e+37
5024.024024024024 5.230158549674194e+37
5034.0340340340335 5.191696735369435e+37
5044.044044044043 5.153586915328531e+37
5054.054054054054 5.115825241488548e+37
5064.064064064064 5.078407914634114e+37
5074.074074074074 5.041331183692293e+37
5084.084084084085 5.004591345038841e+37
5094.0940940940945 4.968184741815682e+37
5104.104104104104 4.9321077632593285e+37
5114.114114114114 4.896356844040106e+37
5124.124124124124 4.860928463612003e+37
5134.134134134134 4.825819145572888e+37
5144.144144144144 4.791025457034992e+37
5154.154154154154 4.7565440080054185e+37
5164.1641641641645 4.72237145077653e+37
5174.174174174174 4.688504479326028e+37
5184.184184184184 4.6549398287265565e+37
5194.194194194194 4.621674274564666e+37
5204.204204204204 4.588704632368982e+37
5214.214214214214 4.556027757047389e+37
5224.224224224225 4.523640542333106e+37
5234.2342342342345 4.491539920239482e+37
5244.244244244244 4.459722860523344e+37
5254.254254254254 4.428186370156797e+37
5264.264264264264 4.396927492807258e+37
5274.274274274274 4.365943308325675e+37
5284.284284284285 4.335230932242682e+37
5294.294294294295 4.304787515272656e+37
5304.304304304304 4.274610242825442e+37
5314.314314314314 4.244696334525721e+37
5324.324324324324 4.2150430437397717e+37
5334.334334334334 4.185647657109619e+37
5344.344344344345 4.156507494094332e+37
5354.354354354355 4.127619906518444e+37
5364.3643643643645 4.0989822781272963e+37
5374.374374374374 4.07059202414925e+37
5384.384384384384 4.0424465908645956e+37
5394.394394394394 4.014543455181096e+37
5404.404404404404 3.986880124216002e+37
5414.414414414415 3.9594541348844777e+37
5424.424424424425 3.932263053494298e+37
5434.4344344344345 3.905304475346707e+37
5444.444444444444 3.8785760243433567e+37
5454.454454454454 3.8520753525992244e+37
5464.464464464464 3.8258001400613728e+37
5474.474474474475 3.799748094133499e+37
5484.484484484485 3.7739169493061483e+37
5494.494494494495 3.7483044667925005e+37
5504.504504504504 3.722908434169657e+37
5514.514514514514 3.697726665025295e+37
5524.524524524524 3.6727569986096584e+37
5534.534534534535 3.6479972994927384e+37
5544.544544544545 3.6234454572265976e+37
5554.554554554555 3.5990993860127245e+37
5564.5645645645645 3.574957024374361e+37
5574.574574574574 3.5510163348337147e+37
5584.584584584584 3.5272753035939523e+37
5594.594594594595 3.5037319402259145e+37
5604.604604604605 3.480384277359507e+37
5614.614614614615 3.4572303703796027e+37
5624.624624624625 3.43426829712648e+37
5634.6346346346345 3.4114961576006665e+37
5644.644644644644 3.388912073672112e+37
5654.654654654654 3.366514188793674e+37
5664.664664664665 3.3443006677187574e+37
5674.674674674675 3.322269696223156e+37
5684.684684684685 3.3004194808308974e+37
5694.694694694695 3.2787482485441445e+37
5704.704704704704 3.25725424657701e+37
5714.714714714714 3.2359357420932596e+37
5724.724724724725 3.2147910219478175e+37
5734.734734734735 3.1938183924320376e+37
5744.744744744745 3.1730161790226596e+37
5754.754754754755 3.1523827261343925e+37
5764.764764764765 3.131916396876088e+37
5774.774774774774 3.111615572810424e+37
5784.784784784785 3.0914786537170426e+37
5794.794794794795 3.071504057359106e+37
5804.804804804805 3.0516902192532043e+37
5814.814814814815 3.032035592442543e+37
5824.824824824825 3.012538647273414e+37
5834.8348348348345 2.993197871174817e+37
5844.844844844845 2.9740117684412715e+37
5854.854854854855 2.954978860018686e+37
5864.864864864865 2.936097683293291e+37
5874.874874874875 2.917366791883573e+37
5884.884884884885 2.8987847554351517e+37
5894.894894894895 2.880350159418562e+37
5904.9049049049045 2.862061604929907e+37
