#lamb flux
1000.0 5.360625908968452e+40
1010.01001001001 5.388464706741674e+40
1020.0200200200201 5.413011688149714e+40
1030.03003003003 5.434374032069579e+40
1040.0400400400401 5.45265911222942e+40
1050.05005005005 5.467974112805436e+40
1060.06006006006 5.480425686498142e+40
1070.07007007007 5.490119651800497e+40
1080.08008008008 5.49716072633984e+40
1090.0900900900901 5.501652293347203e+40
1100.1001001001 5.503696198480638e+40
1110.11011011011 5.503392574400215e+40
1120.1201201201202 5.500839690660151e+40
1130.13013013013 5.496133826646684e+40
1140.1401401401401 5.489369165447417e+40
1150.1501501501502 5.480637706689189e+40
1160.16016016016 5.470029196525094e+40
1170.1701701701702 5.4576310730885e+40
1180.1801801801803 5.44352842586114e+40
1190.1901901901902 5.4278039675243295e+40
1200.2002002002002 5.410538016977258e+40
1210.2102102102103 5.391808492313724e+40
1220.2202202202202 5.37169091264903e+40
1230.2302302302303 5.350258407782804e+40
1240.2402402402402 5.327581734770492e+40
1250.2502502502502 5.303718776176145e+40
1260.2602602602603 5.278704662804918e+40
1270.2702702702702 5.25254839240816e+40
1280.2802802802803 5.225315592250062e+40
1290.2902902902902 5.197069678472169e+40
1300.3003003003003 5.167871882643171e+40
1310.3103103103103 5.137781282341841e+40
1320.3203203203202 5.10685483523424e+40
1330.3303303303303 5.075147416153276e+40
1340.3403403403404 5.04271185673158e+40
1350.3503503503503 5.009598987179005e+40
1360.3603603603603 4.975857679833304e+40
1370.3703703703704 4.941534894147012e+40
1380.3803803803803 4.906675722805511e+40
1390.3903903903904 4.8713234387007815e+40
1400.4004004004005 4.83551954251245e+40
1410.4104104104103 4.799303810672933e+40
1420.4204204204204 4.762714343516362e+40
1430.4304304304305 4.725787613432259e+40
1440.4404404404404 4.68855851286434e+40
1450.4504504504505 4.651060402012489e+40
1460.4604604604606 4.613325156112416e+40
1470.4704704704704 4.575383212182179e+40
1480.4804804804805 4.5372636151384395e+40
1490.4904904904906 4.498994063197638e+40
1500.5005005005005 4.460600952488444e+40
1510.5105105105106 4.422109420812208e+40
1520.5205205205207 4.383543390497238e+40
1530.5305305305305 4.344925610301238e+40
1540.5405405405404 4.3062776963238544e+40
1550.5505505505505 4.2676201718981474e+40
1560.5605605605606 4.2289725064361e+40
1570.5705705705705 4.1903531532089927e+40
1580.5805805805805 4.151779586048662e+40
1590.5905905905906 4.1132683349604084e+40
1600.6006006006005 4.07483502064278e+40
1610.6106106106106 4.0364943879136395e+40
1620.6206206206207 3.998260338045776e+40
1630.6306306306305 3.9601459600193406e+40
1640.6406406406406 3.92216356070207e+40
1650.6506506506507 3.8843246939724435e+40
1660.6606606606606 3.846640188804993e+40
1670.6706706706707 3.809120176341685e+40
1680.6806806806808 3.77177411597853e+40
1690.6906906906906 3.734610820502527e+40
1700.7007007007007 3.6976388592733875e+40
1710.7107107107108 3.66086733230955e+40
1720.7207207207207 3.6243030583916366e+40
1730.7307307307308 3.5879521223184994e+40
1740.7407407407409 3.551820109170217e+40
1750.7507507507507 3.515912122717722e+40
1760.7607607607606 3.48023280355867e+40
1770.770770770771 3.4447863471238823e+40
1780.7807807807808 3.409576521729453e+40
1790.7907907907907 3.3746066868858603e+40
1800.8008008008007 3.3398798121184175e+40
1810.8108108108108 3.3053984966032874e+40
1820.8208208208207 3.2711649899808576e+40
1830.8308308308308 3.2371812147737834e+40
1840.8408408408409 3.203448790909587e+40
1850.8508508508507 3.1699690629266893e+40
1860.8608608608608 3.1367431305250886e+40
1870.870870870871 3.103771883204582e+40
1880.8808808808808 3.0710560398074144e+40
1890.890890890891 3.038596193838395e+40
1900.900900900901 3.00639286545965e+40
1910.9109109109108 2.9744465610294913e+40
1920.920920920921 2.9427578409504287e+40
1930.930930930931 2.9113273963781184e+40
1940.940940940941 2.880156134984264e+40
1950.950950950951 2.8492452754207277e+40
1960.960960960961 2.8185964493590183e+40
1970.970970970971 2.788211808945364e+40
1980.980980980981 2.7580941362013935e+40
1990.9909909909911 2.7282469493307877e+40
2001.001001001001 2.6986745991300974e+40
2011.0110110110109 2.669382346882278e+40
2021.0210210210212 2.6403764134536064e+40
2031.031031031031 2.611663988126259e+40
2041.0410410410411 2.5832531853637535e+40
2051.051051051051 2.5551529386439475e+40
2061.061061061061 2.5273728230848434e+40
2071.071071071071 2.4999228030715936e+40
2081.081081081081 2.4728129074445435e+40
2091.091091091091 2.446052842633937e+40
2101.101101101101 2.419651562607986e+40
2111.1111111111113 2.3936168224350293e+40
2121.121121121121 2.3679547482256636e+40
2131.131131131131 2.342669458852528e+40
2141.141141141141 2.317762773175419e+40
2151.151151151151 2.293234030257768e+40
2161.161161161161 2.269080039845079e+40
2171.1711711711714 2.2452951676015226e+40
2181.1811811811813 2.221871546228676e+40
2191.191191191191 2.1987993916965257e+40
2201.201201201201 2.176067395133315e+40
2211.2112112112113 2.153663156480038e+40
2221.221221221221 2.13157362599911e+40
2231.2312312312315 2.1097855235354494e+40
2241.2412412412414 2.0882857119245377e+40
2251.2512512512512 2.0670615087704432e+40
2261.261261261261 2.0461009287027837e+40
2271.271271271271 2.025392855180954e+40
2281.2812812812813 2.0049271463473597e+40
2291.2912912912916 1.9846946831155897e+40
2301.3013013013015 1.9646873696899665e+40
2311.3113113113113 1.9448980973181397e+40
2321.321321321321 1.9253206816357567e+40
2331.331331331331 1.9059497828371263e+40
2341.3413413413414 1.886780816418742e+40
2351.3513513513512 1.8678098606435104e+40
2361.3613613613616 1.849033565336752e+40
2371.3713713713714 1.830449065256548e+40
2381.3813813813813 1.8120539001323571e+40
2391.391391391391 1.7938459425496101e+40
2401.4014014014015 1.7758233341614e+40
2411.4114114114113 1.7579844302049448e+40
2421.4214214214217 1.7403277519573686e+40
2431.4314314314315 1.72285194654962e+40
2441.4414414414414 1.7055557534384719e+40
2451.4514514514512 1.6884379767884357e+40
2461.4614614614616 1.6714974630165414e+40
2471.4714714714714 1.6547330827865593e+40
2481.4814814814818 1.638143716792483e+40
2491.4914914914916 1.6217282447347516e+40
2501.5015015015015 1.6054855369601164e+40
2511.5115115115113 1.589414448302865e+40
2521.521521521521 1.5735138137285003e+40
2531.5315315315315 1.5577824454392824e+40
2541.541541541542 1.5422191311535497e+40
2551.5515515515517 1.5268226333170466e+40
2561.5615615615616 1.511591689044987e+40
2571.5715715715714 1.496525010628394e+40
2581.5815815815813 1.481621286467994e+40
2591.5915915915916 1.4668791823241433e+40
2601.6016016016015 1.4522973427924425e+40
2611.611611611612 1.4378743929323506e+40
2621.6216216216217 1.4236089399908595e+40
2631.6316316316315 1.4094995751753608e+40
2641.6416416416414 1.3955448754398872e+40
2651.6516516516517 1.3817434052570268e+40
2661.6616616616616 1.3680937183544635e+40
2671.671671671672 1.3545943594005025e+40
2681.6816816816818 1.341243865627245e+40
2691.6916916916916 1.328040768383563e+40
2701.7017017017015 1.3149835946127725e+40
2711.711711711712 1.302070868252092e+40
2721.7217217217217 1.2893011115526767e+40
2731.731731731732 1.2766728463202994e+40
2741.741741741742 1.2641845950778183e+40
2751.7517517517517 1.2518348821512403e+40
2761.7617617617616 1.2396222346818204e+40
2771.7717717717715 1.2275451835669426e+40
2781.781781781782 1.215602264332849e+40
2791.791791791792 1.2037920179424146e+40
2801.801801801802 1.19211299154122e+40
2811.811811811812 1.1805637391452446e+40
2821.8218218218217 1.1691428222734138e+40
2831.8318318318316 1.1578488105282124e+40
2841.841841841842 1.1466802821274533e+40
2851.851851851852 1.1356358243902075e+40
2861.861861861862 1.1247140341797491e+40
2871.871871871872 1.1139135183062663e+40
2881.881881881882 1.1032328938919372e+40
2891.8918918918916 1.0926707887008447e+40
2901.901901901902 1.0822258414360524e+40
2911.911911911912 1.071896702006056e+40
2921.921921921922 1.0616820317626653e+40
2931.931931931932 1.0515805037122823e+40
2941.941941941942 1.0415908027023803e+40
2951.9519519519517 1.0317116255849136e+40
2961.961961961962 1.0219416813582531e+40
2971.971971971972 1.0122796912891481e+40
2981.9819819819822 1.0027243890161211e+40
2991.991991991992 9.932745206356029e+39
3002.002002002002 9.839288447720345e+39
3012.012012012012 9.74686132633083e+39
3022.0220220220217 9.655451680510364e+39
3032.032032032032 9.566022976197476e+39
3042.0420420420423 9.476485474194354e+39
3052.052052052052 9.387897164676392e+39
3062.062062062062 9.300256053816663e+39
3072.072072072072 9.213558840404191e+39
3082.0820820820823 9.127801078599505e+39
3092.092092092092 9.042977324596216e+39
3102.102102102102 8.959081268625278e+39
3112.1121121121123 8.876105853620974e+39
3122.122122122122 8.794043381757795e+39
3132.132132132132 8.712885609966277e+39
3142.1421421421423 8.632623835442211e+39
3152.152152152152 8.553248972077163e+39
3162.162162162162 8.474751618658546e+39
3172.1721721721724 8.397122119614305e+39
3182.1821821821823 8.320350619009673e+39
3192.192192192192 8.244427108441492e+39
3202.202202202202 8.169341469418703e+39
3212.2122122122123 8.095083510765416e+39
3222.222222222222 8.021643001535014e+39
3232.232232232232 7.949009699879908e+39
3242.2422422422424 7.877173378281436e+39
3252.252252252252 7.806123845507663e+39
3262.262262262262 7.735850965633068e+39
3272.2722722722724 7.666344674423605e+39
3282.2822822822823 7.597594993362407e+39
3292.292292292292 7.52959204156575e+39
3302.3023023023025 7.462326045815622e+39
3312.3123123123123 7.395787348913763e+39
3322.322322322322 7.329966416542619e+39
3332.3323323323325 7.264853842800951e+39
3342.3423423423424 7.200440354565617e+39
3352.352352352352 7.13671681481621e+39
3362.3623623623625 7.073674225046205e+39
3372.3723723723724 7.011303726871537e+39
3382.3823823823823 6.949596602936825e+39
3392.3923923923926 6.888544277209339e+39
3402.4024024024025 6.828138314741384e+39
3412.4124124124123 6.768370420973762e+39
3422.4224224224226 6.70923244064523e+39
3432.4324324324325 6.650716356366111e+39
3442.4424424424424 6.592814286907914e+39
3452.4524524524522 6.535518485255309e+39
3462.4624624624626 6.478821336461588e+39
3472.4724724724724 6.422715355344284e+39
3482.4824824824823 6.367193184053213e+39
3492.4924924924926 6.312247589539742e+39
3502.5025025025025 6.257871460952439e+39
3512.5125125125123 6.204057806981315e+39
3522.5225225225226 6.150799753170102e+39
3532.5325325325325 6.098090539213492e+39
3542.5425425425424 6.045923516254045e+39
3552.5525525525527 5.994292144191515e+39
3562.5625625625626 5.943189989015453e+39
3572.5725725725724 5.892610720170408e+39
3582.5825825825827 5.842548107961629e+39
3592.5925925925926 5.792996021007778e+39
3602.6026026026025 5.74394842374617e+39
3612.612612612613 5.695399373994916e+39
3622.6226226226227 5.647343020575515e+39
3632.6326326326325 5.599773600998588e+39
3642.642642642643 5.55268543921486e+39
3652.6526526526527 5.506072943432707e+39
3662.6626626626626 5.45993060400315e+39
3672.672672672673 5.414252991372772e+39
3682.6826826826828 5.369034754104418e+39
3692.6926926926926 5.32427061696541e+39
3702.7027027027025 5.2799553790825015e+39
3712.712712712713 5.2360839121627184e+39
3722.7227227227227 5.1926511587789236e+39
3732.7327327327325 5.149652130718643e+39
3742.742742742743 5.107081907394838e+39
3752.7527527527527 5.0649356343168575e+39
3762.7627627627626 5.023208521619927e+39
3772.772772772773 4.9818958426513546e+39
3782.7827827827828 4.9409929326116165e+39
3792.7927927927926 4.9004951872483993e+39
3802.802802802803 4.86039806160173e+39
3812.812812812813 4.8206970687982507e+39
3822.8228228228227 4.7813877788926673e+39
3832.832832832833 4.74246581775455e+39
3842.842842842843 4.703926865998504e+39
3852.8528528528527 4.6657666579559144e+39
3862.862862862863 4.6279809806863636e+39
3872.872872872873 4.5905656730270113e+39
3882.8828828828828 4.553516624678059e+39
3892.892892892893 4.5168297753227836e+39
3902.902902902903 4.480501113780283e+39
3912.912912912913 4.4445266771894616e+39
3922.922922922923 4.40890255022266e+39
3932.932932932933 4.3736248643274655e+39
3942.942942942943 4.338689796995202e+39
3952.9529529529527 4.304093571054778e+39
3962.962962962963 4.2698324539905446e+39
3972.972972972973 4.235902757282885e+39
3982.982982982983 4.202300835770318e+39
3992.992992992993 4.1690230870319375e+39
4003.003003003003 4.1360659507891586e+39
4013.013013013013 4.103425908325581e+39
4023.023023023023 4.071099481924081e+39
4033.033033033033 4.0390832343201205e+39
4043.043043043043 4.007373768170358e+39
4053.053053053053 3.975967725535749e+39
4063.063063063063 3.9448617873782676e+39
4073.073073073073 3.9140526730705e+39
4083.0830830830832 3.8835371399174005e+39
4093.093093093093 3.8533119826894816e+39
4103.103103103103 3.8233740331668217e+39
4113.113113113113 3.79372015969328e+39
4123.123123123123 3.7643472667403026e+39
4133.133133133133 3.735252294479823e+39
4143.143143143143 3.706432218365749e+39
4153.153153153153 3.6778840487235294e+39
4163.163163163163 3.6496048303473583e+39
4173.173173173173 3.621591642104637e+39
4183.183183183183 3.5938415965472594e+39
4193.193193193193 3.566351839529368e+39
4203.203203203203 3.539119549831249e+39
4213.213213213214 3.512141938789061e+39
4223.223223223224 3.485416249930051e+39
4233.2332332332335 3.458939758613041e+39
4243.243243243243 3.4327097716738953e+39
4253.253253253253 3.406723627075735e+39
4263.263263263263 3.3809786935636974e+39
4273.273273273273 3.3554723703240205e+39
4283.283283283283 3.330202086647258e+39
4293.293293293293 3.3051653015954775e+39
4303.303303303303 3.280359503673259e+39
4313.313313313313 3.255782210502351e+39
4323.323323323323 3.231430968499854e+39
4333.333333333334 3.2073033525597986e+39
4343.343343343344 3.183396965738026e+39
4353.353353353354 3.1597094389402266e+39
4363.3633633633635 3.1362384306130743e+39
4373.373373373373 3.11298162643837e+39
4383.383383383383 3.089936739030087e+39
4393.393393393393 3.067101507634273e+39
4403.403403403403 3.0444736978317394e+39
4413.413413413413 3.0220511012434544e+39
4423.423423423424 2.999831535238625e+39
4433.4334334334335 2.977812842645392e+39
4443.443443443443 2.955992891464099e+39
4453.453453453454 2.9343695745830935e+39
4463.463463463464 2.912940809497069e+39
4473.473473473474 2.891704538027816e+39
4483.483483483484 2.870658726047472e+39
4493.493493493494 2.849801363204164e+39
4503.503503503503 2.829130462650052e+39
4513.513513513513 2.808644060771771e+39
4523.523523523523 2.788340216923181e+39
4533.533533533533 2.768217013160535e+39
4543.543543543543 2.748272553979912e+39
4553.553553553554 2.728504966057017e+39
4563.563563563564 2.7089123979892688e+39
4573.573573573573 2.689493020040187e+39
4583.583583583584 2.6702450238860883e+39
4593.593593593594 2.651166622365056e+39
4603.603603603604 2.6322560492281845e+39
4613.613613613614 2.61351155889312e+39
4623.623623623624 2.5949314261998414e+39
4633.6336336336335 2.576513946168727e+39
4643.643643643643 2.5582574337608805e+39
4653.653653653653 2.5401602236406937e+39
4663.663663663663 2.52222066994069e+39
4673.673673673674 2.504437146028592e+39
4683.683683683684 2.486808044276652e+39
4693.693693693694 2.4693317758332118e+39
4703.703703703704 2.452006770396504e+39
4713.713713713714 2.4348314759907012e+39
4723.723723723724 2.4178043587441657e+39
4733.733733733734 2.40092390266995e+39
4743.743743743744 2.384188609448511e+39
4753.753753753754 2.3675969982126356e+39
4763.763763763764 2.3511476053345863e+39
4773.773773773773 2.3348389842154336e+39
4783.783783783783 2.318669705076621e+39
4793.793793793793 2.30263835475369e+39
4803.803803803804 2.2867435364922096e+39
4813.813813813814 2.2709838697458852e+39
4823.823823823824 2.2553579899768364e+39
4833.833833833834 2.2398645484580394e+39
4843.843843843844 2.2245022120779322e+39
4853.853853853854 2.2092696631471607e+39
4863.863863863864 2.1941655992074666e+39
4873.873873873874 2.1791887328427115e+39
4883.883883883884 2.1643377914920095e+39
4893.893893893894 2.1496115172649826e+39
4903.9039039039035 2.1350086667591063e+39
4913.913913913913 2.1205280108791495e+39
4923.923923923924 2.106168334658684e+39
4933.933933933934 2.0919284370836782e+39
4943.943943943944 2.0778071309181122e+39
4953.953953953955 2.0638032425316697e+39
4963.9639639639645 2.0499156117294405e+39
4973.973973973974 2.0361430915836275e+39
4983.983983983984 2.0224845482672865e+39
4993.993993993994 2.008938860890027e+39
5004.004004004004 1.9955049213356944e+39
5014.014014014014 1.9821816341020272e+39
5024.024024024024 1.968967916142236e+39
5034.0340340340335 1.955862696708537e+39
5044.044044044043 1.9428649171975832e+39
5054.054054054054 1.9299735309978073e+39
5064.064064064064 1.917187503338652e+39
5074.074074074074 1.904505811141657e+39
5084.084084084085 1.891927442873412e+39
5094.0940940940945 1.879451398400349e+39
5104.104104104104 1.867076688845346e+39
5114.114114114114 1.8548023364461445e+39
5124.124124124124 1.8426273744155537e+39
5134.134134134134 1.830550846803432e+39
5144.144144144144 1.8185718083604125e+39
5154.154154154154 1.806689324403384e+39
5164.1641641641645 1.7949024706826778e+39
5174.174174174174 1.7832103332509755e+39
5184.184184184184 1.7716120083338913e+39
5194.194194194194 1.76010660220223e+39
5204.204204204204 1.7486932310459082e+39
5214.214214214214 1.7373710208494986e+39
5224.224224224225 1.7261391072693977e+39
5234.2342342342345 1.714996635512608e+39
5244.244244244244 1.703942760217079e+39
5254.254254254254 1.6929766453336482e+39
5264.264264264264 1.6820974640094995e+39
5274.274274274274 1.6713043984731888e+39
5284.284284284285 1.6605966399211523e+39
5294.294294294295 1.6499733884057416e+39
5304.304304304304 1.639433852724718e+39
5314.314314314314 1.6289772503122302e+39
5324.324324324324 1.61860280713122e+39
5334.334334334334 1.6083097575672808e+39
5344.344344344345 1.5980973443239023e+39
5354.354354354355 1.5879648183191418e+39
5364.3643643643645 1.5779114385836443e+39
5374.374374374374 1.567936472160054e+39
5384.384384384384 1.5580391940037482e+39
5394.394394394394 1.5482188868849163e+39
5404.404404404404 1.5384748412919425e+39
5414.414414414415 1.528806355336092e+39
5424.424424424425 1.519212734657475e+39
5434.4344344344345 1.50969329233227e+39
5444.444444444444 1.5002473487811994e+39
5454.454454454454 1.4908742316792418e+39
5464.464464464464 1.4815732758665516e+39
5474.474474474475 1.4723438232605854e+39
5484.484484484485 1.4631852227694078e+39
5494.494494494495 1.4540968302061717e+39
5504.504504504504 1.4450780082047527e+39
5514.514514514514 1.436128126136514e+39
5524.524524524524 1.4272465600282078e+39
5534.534534534535 1.418432692480976e+39
5544.544544544545 1.4096859125904485e+39
5554.554554554555 1.4010056158679175e+39
5564.5645645645645 1.3923912041625812e+39
5574.574574574574 1.3838420855848363e+39
5584.584584584584 1.3753576744306054e+39
5594.594594594595 1.3669373911066805e+39
5604.604604604605 1.3585806620570934e+39
5614.614614614615 1.3502869196904567e+39
5624.624624624625 1.3420556023082984e+39
5634.6346346346345 1.3338861540343663e+39
5644.644644644644 1.3257780247448745e+39
5654.654654654654 1.3177306699997018e+39
5664.664664664665 1.309743550974506e+39
5674.674674674675 1.3018161343937674e+39
5684.684684684685 1.2939478924647182e+39
5694.694694694695 1.2861383028121692e+39
5704.704704704704 1.278386848414214e+39
5714.714714714714 1.2706930175387934e+39
5724.724724724725 1.263056303681112e+39
5734.734734734735 1.2554762055018992e+39
5744.744744744745 1.2479522267664923e+39
5754.754754754755 1.2404838762847366e+39
5764.764764764765 1.2330706678516965e+39
5774.774774774774 1.225712120189153e+39
5784.784784784785 1.218407756887885e+39
5794.794794794795 1.2111571063507222e+39
5804.804804804805 1.2039597017363574e+39
5814.814814814815 1.1968150809039065e+39
5824.824824824825 1.1897227863582094e+39
5834.8348348348345 1.1826823651958527e+39
5844.844844844845 1.1756933690519201e+39
5854.854854854855 1.1687553540474372e+39
5864.864864864865 1.161867880737519e+39
5874.874874874875 1.1550305140602072e+39
5884.884884884885 1.1482428232859772e+39
5894.894894894895 1.1415043819679166e+39
