#lamb flux
1000.0 1.9736685564298217e+39
1010.01001001001 2.0275587424794603e+39
1020.0200200200201 2.0779238473927238e+39
1030.03003003003 2.1248245318953625e+39
1040.0400400400401 2.1683430768206037e+39
1050.05005005005 2.2085794241550018e+39
1060.06006006006 2.245647580256301e+39
1070.07007007007 2.2796723888922618e+39
1080.08008008008 2.3107866701258797e+39
1090.0900900900901 2.3391287124292836e+39
1100.1001001001 2.3648400992716588e+39
1110.11011011011 2.3880638473504177e+39
1120.1201201201202 2.408942831215902e+39
1130.13013013013 2.427618467923128e+39
1140.1401401401401 2.444229635223832e+39
1150.1501501501502 2.4589117974316802e+39
1160.16016016016 2.471796314240539e+39
1170.1701701701702 2.4830099092788487e+39
1180.1801801801803 2.4926742769056683e+39
1190.1901901901902 2.5009058075900585e+39
1200.2002002002002 2.5078154140843568e+39
1210.2102102102103 2.5135084424440756e+39
1220.2202202202202 2.518084653719907e+39
1230.2302302302303 2.5216382638219672e+39
1240.2402402402402 2.5242580306146793e+39
1250.2502502502502 2.5259098351424437e+39
1260.2602602602603 2.5263227062742455e+39
1270.2702702702702 2.5249453307734628e+39
1280.2802802802803 2.5218781078862486e+39
1290.2902902902902 2.517218891344886e+39
1300.3003003003003 2.511062738546813e+39
1310.3103103103103 2.5035017112016006e+39
1320.3203203203202 2.4946247217362923e+39
1330.3303303303303 2.484517420151381e+39
1340.3403403403404 2.4732621164238175e+39
1350.3503503503503 2.4609377339529303e+39
1360.3603603603603 2.4476197899335877e+39
1370.3703703703704 2.433380398914494e+39
1380.3803803803803 2.4182882961547954e+39
1390.3903903903904 2.402408877727418e+39
1400.4004004004005 2.385804254631186e+39
1410.4104104104103 2.3685333184656282e+39
1420.4204204204204 2.3506518164919764e+39
1430.4304304304305 2.332212434151858e+39
1440.4404404404404 2.3132648833421273e+39
1450.4504504504505 2.2938559949508907e+39
1460.4604604604606 2.274029814347451e+39
1470.4704704704704 2.2538276986882405e+39
1480.4804804804805 2.2332884150536034e+39
1490.4904904904906 2.212448238567237e+39
1500.5005005005005 2.1913410497727974e+39
1510.5105105105106 2.169998430651657e+39
1520.5205205205207 2.1484497587633616e+39
1530.5305305305305 2.1267222990770212e+39
1540.5405405405404 2.1048412931389805e+39
1550.5505505505505 2.082830045290577e+39
1560.5605605605606 2.0607100057107538e+39
1570.5705705705705 2.0385008501127945e+39
1580.5805805805805 2.016220555973439e+39
1590.5905905905906 1.993885475217133e+39
1600.6006006006005 1.971510403319244e+39
1610.6106106106106 1.9491086448306564e+39
1620.6206206206207 1.9266920753632923e+39
1630.6306306306305 1.904271200113099e+39
1640.6406406406406 1.881855209034701e+39
1650.6506506506507 1.8594520288220432e+39
1660.6606606606606 1.8370683718927806e+39
1670.6706706706707 1.8147097826231108e+39
1680.6806806806808 1.792380681135375e+39
1690.6906906906906 1.7700844050056046e+39
1700.7007007007007 1.7478274499547604e+39
1710.7107107107108 1.7256277484905193e+39
1720.7207207207207 1.7034832830853978e+39
1730.7307307307308 1.6813891527455636e+39
1740.7407407407409 1.6593399783682355e+39
1750.7507507507507 1.6373299174309842e+39
1760.7607607607606 1.6153526840575584e+39
1770.770770770771 1.5934015759303412e+39
1780.7807807807808 1.5714695098027982e+39
1790.7907907907907 1.5495490676898614e+39
1800.8008008008007 1.5276325561813112e+39
1810.8108108108108 1.5057120817316316e+39
1820.8208208208207 1.4837796452245916e+39
1830.8308308308308 1.461827259581675e+39
1840.8408408408409 1.439847094662077e+39
1850.8508508508507 1.41783165415984e+39
1860.8608608608608 1.3957739895976105e+39
1870.870870870871 1.3736679567854863e+39
1880.8808808808808 1.351508520173539e+39
1890.890890890891 1.3292921102669804e+39
1900.900900900901 1.3070170385526434e+39
1910.9109109109108 1.2846839730317512e+39
1920.920920920921 1.2622964752667417e+39
1930.930930930931 1.2398615966107408e+39
1940.940940940941 1.2173905267817158e+39
1950.950950950951 1.1948992819906913e+39
1960.960960960961 1.1724094123436949e+39
1970.970970970971 1.1499486992759839e+39
1980.980980980981 1.1275518036504031e+39
1990.9909909909911 1.1052608144954004e+39
2001.001001001001 1.0831256382160005e+39
2011.0110110110109 1.0612041599721963e+39
2021.0210210210212 1.0395621046801495e+39
2031.031031031031 1.0182725269021785e+39
2041.0410410410411 9.974148688582514e+38
2051.051051051051 9.770735455362651e+38
2061.061061061061 9.57336045996746e+38
2071.071071071071 9.382905794945854e+38
2081.081081081081 9.20023341073164e+38
2091.091091091091 9.026155189451805e+38
2101.101101101101 8.861402088394636e+38
2111.1111111111113 8.706594315462351e+38
2121.121121121121 8.562214628454926e+38
2131.131131131131 8.428586757148844e+38
2141.141141141141 8.305860623333025e+38
2151.151151151151 8.194005508593724e+38
2161.161161161161 8.092811656547357e+38
2171.1711711711714 8.001900082437081e+38
2181.1811811811813 7.92073969230749e+38
2191.191191191191 7.848670269497467e+38
2201.201201201201 7.784929526414417e+38
2211.2112112112113 7.728682270495479e+38
2221.221221221221 7.679049787990676e+38
2231.2312312312315 7.635137773626557e+38
2241.2412412412414 7.596061476884706e+38
2251.2512512512512 7.560967138845211e+38
2261.261261261261 7.529049203202926e+38
2271.271271271271 7.499563157764652e+38
2281.2812812812813 7.471834169405312e+38
2291.2912912912916 7.445261901774067e+38
2301.3013013013015 7.419322049429686e+38
2311.3113113113113 7.393565192393022e+38
2321.321321321321 7.367613584863635e+38
2331.331331331331 7.341156456897058e+38
2341.3413413413414 7.313944343731114e+38
2351.3513513513512 7.2857828777551e+38
2361.3613613613616 7.256526393579544e+38
2371.3713713713714 7.226071615008557e+38
2381.3813813813813 7.194351618887777e+38
2391.391391391391 7.161330207446802e+38
2401.4014014014015 7.126996768790112e+38
2411.4114114114113 7.091361664332232e+38
2421.4214214214217 7.054452151201996e+38
2431.4314314314315 7.01630882555877e+38
2441.4414414414414 6.976982557847063e+38
2451.4514514514512 6.936531881788166e+38
2461.4614614614616 6.895020794031304e+38
2471.4714714714714 6.85251691971758e+38
2481.4814814814818 6.809089999803444e+38
2491.4914914914916 6.764810658096994e+38
2501.5015015015015 6.71974940900214e+38
2511.5115115115113 6.6739758705125964e+38
2521.521521521521 6.62755815073872e+38
2531.5315315315315 6.580562379970432e+38
2541.541541541542 6.533052363837369e+38
2551.5515515515517 6.4850893364354845e+38
2561.5615615615616 6.43673179530179e+38
2571.5715715715714 6.3880354028169715e+38
2581.5815815815813 6.339052941000172e+38
2591.5915915915916 6.2898343087454605e+38
2601.6016016016015 6.2404265523556785e+38
2611.611611611612 6.190873921782325e+38
2621.6216216216217 6.14121794630582e+38
2631.6316316316315 6.09149752451557e+38
2641.6416416416414 6.041749024399242e+38
2651.6516516516517 5.992006390148143e+38
2661.6616616616616 5.9423012529526916e+38
2671.671671671672 5.892663043616994e+38
2681.6816816816818 5.843119105281692e+38
2691.6916916916916 5.793694804923683e+38
2701.7017017017015 5.744413642613231e+38
2711.711711711712 5.695297357763908e+38
2721.7217217217217 5.6463660318181585e+38
2731.731731731732 5.597638186978934e+38
2741.741741741742 5.549130880732892e+38
2751.7517517517517 5.5008597960179415e+38
2761.7617617617616 5.452839326973331e+38
2771.7717717717715 5.405082660276796e+38
2781.781781781782 5.3576018521249834e+38
2791.791791791792 5.310407900952392e+38
2801.801801801802 5.2635108160130855e+38
2811.811811811812 5.216919681970466e+38
2821.8218218218217 5.170642719654754e+38
2831.8318318318316 5.1246873431569386e+38
2841.841841841842 5.079060213433079e+38
2851.851851851852 5.0337672885945145e+38
2861.861861861862 4.9888138710587614e+38
2871.871871871872 4.944204651733147e+38
2881.881881881882 4.89994375139907e+38
2891.8918918918916 4.856034759459425e+38
2901.901901901902 4.812480770205658e+38
2911.911911911912 4.769284416754469e+38
2921.921921921922 4.7264479027971664e+38
2931.931931931932 4.6839730322977126e+38
2941.941941941942 4.6418612372684015e+38
2951.9519519519517 4.600113603745097e+38
2961.961961961962 4.558730896077107e+38
2971.971971971972 4.517713579640036e+38
2981.9819819819822 4.477061842073554e+38
2991.991991991992 4.436775613139764e+38
3002.002002002002 4.396854583291968e+38
3012.012012012012 4.3572982210379705e+38
3022.0220220220217 4.318105789176671e+38
3032.032032032032 4.289522577636368e+38
3042.0420420420423 4.249724878619821e+38
3052.052052052052 4.2099447061250516e+38
3062.062062062062 4.170282325294459e+38
3072.072072072072 4.130822831789421e+38
3082.0820820820823 4.091637826122628e+38
3092.092092092092 4.052786942928168e+38
3102.102102102102 4.01431924225793e+38
3112.1121121121123 3.976274470882015e+38
3122.122122122122 3.938684202067093e+38
3132.132132132132 3.90157286250198e+38
3142.1421421421423 3.864958655008288e+38
3152.152152152152 3.8288543854759475e+38
3162.162162162162 3.79326820214698e+38
3172.1721721721724 3.758204254973865e+38
3182.1821821821823 3.723663282330975e+38
3192.192192192192 3.6896431318817675e+38
3202.202202202202 3.6561392219181874e+38
3212.2122122122123 3.623144949004815e+38
3222.222222222222 3.590652047288264e+38
3232.232232232232 3.558650904378865e+38
3242.2422422422424 3.527130838281121e+38
3252.252252252252 3.496080339444407e+38
3262.262262262262 3.4654872816276515e+38
3272.2722722722724 3.435339104921539e+38
3282.2822822822823 3.4056229739487785e+38
3292.292292292292 3.3763259139667253e+38
3302.3023023023025 3.347434927325715e+38
3312.3123123123123 3.3189370924895693e+38
3322.322322322322 3.2908196476005503e+38
3332.3323323323325 3.2630700603676127e+38
3342.3423423423424 3.2356760858730678e+38
3352.352352352352 3.2086258137265657e+38
3362.3623623623625 3.181907705845739e+38
3372.3723723723724 3.1555106260079555e+38
3382.3823823823823 3.1294238621962616e+38
3392.3923923923926 3.103637142653822e+38
3402.4024024024025 3.0781406464629376e+38
3412.4124124124123 3.0529250093770364e+38
3422.4224224224226 3.027981325555039e+38
3432.4324324324325 3.003301145776746e+38
3442.4424424424424 2.9788764726543906e+38
3452.4524524524522 2.954699753298586e+38
3462.4624624624626 2.9307638698458048e+38
3472.4724724724724 2.9070621282087936e+38
3482.4824824824823 2.8835882453701145e+38
3492.4924924924926 2.86033633550238e+38
3502.5025025025025 2.8373008951654635e+38
3512.5125125125123 2.81447678780154e+38
3522.5225225225226 2.791859227722063e+38
3532.5325325325325 2.7694437637570194e+38
3542.5425425425424 2.7472262627153794e+38
3552.5525525525527 2.7252028927864572e+38
3562.5625625625626 2.7033701069946967e+38
3572.5725725725724 2.6817246268049587e+38
3582.5825825825827 2.660263425961591e+38
3592.5925925925926 2.6389837146321255e+38
3602.6026026026025 2.6178829239154232e+38
3612.612612612613 2.5969586907641267e+38
3622.6226226226227 2.576208843362478e+38
3632.6326326326325 2.5556313869926112e+38
3642.642642642643 2.5352244904154802e+38
3652.6526526526527 2.514986472786225e+38
3662.6626626626626 2.494915791118324e+38
3672.672672672673 2.475011028305938e+38
3682.6826826826828 2.455270881709558e+38
3692.6926926926926 2.4356941523061864e+38
3702.7027027027025 2.416279734402066e+38
3712.712712712713 2.3970266059029872e+38
3722.7227227227227 2.3779338191347452e+38
3732.7327327327325 2.3590004922040913e+38
3742.742742742743 2.340225800888798e+38
3752.7527527527527 2.3216089710437632e+38
3762.7627627627626 2.3031492715088946e+38
3772.772772772773 2.28484600750338e+38
3782.7827827827828 2.266698514490148e+38
3792.7927927927926 2.24870615249359e+38
3802.802802802803 2.2308683008531987e+38
3812.812812812813 2.2131843533953528e+38
3822.8228228228227 2.1956537140053043e+38
3832.832832832833 2.1782757925813302e+38
3842.842842842843 2.1610500013529933e+38
3852.8528528528527 2.1439757515455886e+38
3862.862862862863 2.1270524503729958e+38
3872.872872872873 2.110279498341479e+38
3882.8828828828828 2.093656286847168e+38
3892.892892892893 2.0771821960504983e+38
3902.902902902903 2.0608565930110953e+38
3912.912912912913 2.0446788300672003e+38
3922.922922922923 2.0286482434441156e+38
3932.932932932933 2.0127641520767026e+38
3942.942942942943 1.9970258566314306e+38
3952.9529529529527 1.9814326387140732e+38
3962.962962962963 1.9659837602496456e+38
3972.972972972973 1.9506784630217477e+38
3982.982982982983 1.935515968359022e+38
3992.992992992993 1.920495476956992e+38
4003.003003003003 1.9056161688241234e+38
4013.013013013013 1.890877203341414e+38
4023.023023023023 1.876277719425461e+38
4033.033033033033 1.8618168357854117e+38
4043.043043043043 1.8474936512647107e+38
4053.053053053053 1.8333072452591403e+38
4063.063063063063 1.819256678203031e+38
4073.073073073073 1.805340992116097e+38
4083.0830830830832 1.791559211203738e+38
4093.093093093093 1.77791034250414e+38
4103.103103103103 1.7643933765759117e+38
4113.113113113113 1.7510072882204335e+38
4123.123123123123 1.7377510372334398e+38
4133.133133133133 1.724623569180815e+38
4143.143143143143 1.7116238161938787e+38
4153.153153153153 1.69875069777981e+38
4163.163163163163 1.6860031216431914e+38
4173.173173173173 1.6733799845149767e+38
4183.183183183183 1.6608801729854663e+38
4193.193193193193 1.6485025643381623e+38
4203.203203203203 1.6362460273816669e+38
4213.213213213214 1.6241094232770214e+38
4223.223223223224 1.6120916063581049e+38
4233.2332332332335 1.6001914249429893e+38
4243.243243243243 1.58840772213431e+38
4253.253253253253 1.5767393366069372e+38
4263.263263263263 1.5651851033814226e+38
4273.273273273273 1.5537438545818485e+38
4283.283283283283 1.5424144201768914e+38
4293.293293293293 1.5311956287030772e+38
4303.303303303303 1.5200863079692905e+38
4313.313313313313 1.509085285741822e+38
4323.323323323323 1.4981913904092607e+38
4333.333333333334 1.4874034516267522e+38
4343.343343343344 1.4767203009391629e+38
4353.353353353354 1.4661407723828438e+38
4363.3633633633635 1.4556637030657543e+38
4373.373373373373 1.4452879337257958e+38
4383.383383383383 1.4350123092672718e+38
4393.393393393393 1.424835679275472e+38
4403.403403403403 1.4147568985094356e+38
4413.413413413413 1.4047748273729934e+38
4423.423423423424 1.3948883323642781e+38
4433.4334334334335 1.3850962865038805e+38
4443.443443443443 1.3753975697419344e+38
4453.453453453454 1.3657910693443911e+38
4463.463463463464 1.3562756802588474e+38
4473.473473473474 1.3468503054602202e+38
4483.483483483484 1.3375138562767121e+38
4493.493493493494 1.3282652526964175e+38
4503.503503503503 1.3191034236550238e+38
4513.513513513513 1.3100273073050258e+38
4523.523523523523 1.301035851266906e+38
4533.533533533533 1.2921280128627656e+38
4543.543543543543 1.2833027593328449e+38
4553.553553553554 1.274559068035435e+38
4563.563563563564 1.2658959266306679e+38
4573.573573573573 1.2573123332486512e+38
4583.583583583584 1.2488072966424644e+38
4593.593593593594 1.240379836326488e+38
4603.603603603604 1.2320289827005584e+38
4613.613613613614 1.2237537771604555e+38
4623.623623623624 1.2155532721951661e+38
4633.6336336336335 1.2074265314714526e+38
4643.643643643643 1.1993726299061663e+38
4653.653653653653 1.191390653726786e+38
4663.663663663663 1.1834797005206523e+38
4673.673673673674 1.1756388792733386e+38
4683.683683683684 1.1678673103966235e+38
4693.693693693694 1.1601641257464884e+38
4703.703703703704 1.1525284686315823e+38
4713.713713713714 1.1449594938125767e+38
4723.723723723724 1.1374563674928148e+38
4733.733733733734 1.1300182673006644e+38
4743.743743743744 1.1226443822639782e+38
4753.753753753754 1.1153339127770224e+38
4763.763763763764 1.1080860705602781e+38
4773.773773773773 1.1009000786134452e+38
4783.783783783783 1.093775171162046e+38
4793.793793793793 1.0867105935979284e+38
4803.803803803804 1.0797056024140351e+38
4813.813813813814 1.0727594651337537e+38
4823.823823823824 1.0658714602351532e+38
4833.833833833834 1.0590408770704258e+38
4843.843843843844 1.0522670157808227e+38
4853.853853853854 1.0455491872073637e+38
4863.863863863864 1.0388867127976074e+38
4873.873873873874 1.032278924508737e+38
4883.883883883884 1.0257251647072296e+38
4893.893893893894 1.0192247860653478e+38
4903.9039039039035 1.0127771514546972e+38
4913.913913913913 1.006381633837078e+38
4923.923923923924 1.0000376161528551e+38
4933.933933933934 9.937444912070596e+37
4943.943943943944 9.87501661553417e+37
4953.953953953955 9.813085393765183e+37
4963.9639639639645 9.751645463723054e+37
4973.973973973974 9.69069113627056e+37
4983.983983983984 9.630216814950534e+37
4993.993993993994 9.570216994750913e+37
5004.004004004004 9.510686260859822e+37
5014.014014014014 9.451619287412266e+37
5024.024024024024 9.393010836229703e+37
5034.0340340340335 9.334855755554191e+37
5044.044044044043 9.277148978778108e+37
5054.054054054054 9.21988552317098e+37
5064.064064064064 9.163060488604485e+37
5074.074074074074 9.106669056276813e+37
5084.084084084085 9.050706487437492e+37
5094.0940940940945 8.995168122113774e+37
5104.104104104104 8.940049377839414e+37
5114.114114114114 8.885345748386975e+37
5124.124124124124 8.831052802504395e+37
5134.134134134134 8.777166182656791e+37
5144.144144144144 8.723681603774112e+37
5154.154154154154 8.67059485200564e+37
5164.1641641641645 8.617901783481819e+37
5174.174174174174 8.56559832308423e+37
5184.184184184184 8.51368046322426e+37
5194.194194194194 8.462144262631078e+37
5204.204204204204 8.410985845149538e+37
5214.214214214214 8.360201398548382e+37
5224.224224224225 8.309787173339352e+37
5234.2342342342345 8.259739481607647e+37
5244.244244244244 8.21005469585404e+37
5254.254254254254 8.160729247849209e+37
5264.264264264264 8.1117596275004495e+37
5274.274274274274 8.06314238173131e+37
5284.284284284285 8.0148741133742525e+37
5294.294294294295 7.966951480076768e+37
5304.304304304304 7.919371193221075e+37
5314.314314314314 7.872130016857757e+37
5324.324324324324 7.825224766653432e+37
5334.334334334334 7.778652308852722e+37
5344.344344344345 7.732409559254584e+37
5354.354354354355 7.686493482203302e+37
5364.3643643643645 7.640901089594063e+37
5374.374374374374 7.595629439893418e+37
5384.384384384384 7.550675637174562e+37
5394.394394394394 7.506036830167585e+37
5404.404404404404 7.461710211324733e+37
5414.414414414415 7.417693015900705e+37
5424.424424424425 7.37398252104801e+37
5434.4344344344345 7.330576044927408e+37
5444.444444444444 7.28747094583341e+37
5454.454454454454 7.244664621334874e+37
5464.464464464464 7.2021545074305735e+37
5474.474474474475 7.1599380777198e+37
5484.484484484485 7.118012842587888e+37
5494.494494494495 7.07637634840662e+37
5504.504504504504 7.035026176749448e+37
5514.514514514514 6.993959943621442e+37
5524.524524524524 6.953175298703884e+37
5534.534534534535 6.912669924613419e+37
5544.544544544545 6.872441536175643e+37
5554.554554554555 6.832487879713024e+37
5564.5645645645645 6.792806732347045e+37
5574.574574574574 6.753395901314458e+37
5584.584584584584 6.714253223297487e+37
5594.594594594595 6.67537656376784e+37
5604.604604604605 6.636763816344501e+37
5614.614614614615 6.598412902164943e+37
5624.624624624625 6.560321769269837e+37
5634.6346346346345 6.522488392000984e+37
5644.644644644644 6.484910770412302e+37
5654.654654654654 6.44758692969379e+37
5664.664664664665 6.410514919608204e+37
5674.674674674675 6.373692813940406e+37
5684.684684684685 6.337118709959051e+37
5694.694694694695 6.300790727890616e+37
5704.704704704704 6.264707010405467e+37
5714.714714714714 6.228865722115849e+37
5724.724724724725 6.193265049085629e+37
5734.734734734735 6.157903198351568e+37
5744.744744744745 6.122778397455985e+37
5754.754754754755 6.087888893990617e+37
5764.764764764765 6.053232955151506e+37
5774.774774774774 6.018808867304717e+37
5784.784784784785 5.98461493556269e+37
5794.794794794795 5.950649483371117e+37
5804.804804804805 5.916910852106044e+37
5814.814814814815 5.883397400681137e+37
5824.824824824825 5.850107505164861e+37
5834.8348348348345 5.817039558407374e+37
5844.844844844845 5.784191969677055e+37
5854.854854854855 5.751563164306356e+37
5864.864864864865 5.719151583346881e+37
5874.874874874875 5.686955683233527e+37
5884.884884884885 5.6549739354574275e+37
5894.894894894895 5.6232048262476065e+37
