#lamb flux
1000.0 2.3630158864868182e+39
1010.01001001001 2.502582681649036e+39
1020.0200200200201 2.645107139348086e+39
1030.03003003003 2.79043207754772e+39
1040.0400400400401 2.938400039391118e+39
1050.05005005005 3.088853851506225e+39
1060.06006006006 3.241637124739038e+39
1070.07007007007 3.396594700739988e+39
1080.08008008008 3.55357304790892e+39
1090.0900900900901 3.7124206102159665e+39
1100.1001001001 3.8729881123740016e+39
1110.11011011011 4.035128824754733e+39
1120.1201201201202 4.198698791324544e+39
1130.13013013013 4.3635570237372303e+39
1140.1401401401401 4.529565664565343e+39
1150.1501501501502 4.696590122485457e+39
1160.16016016016 4.864499182061462e+39
1170.1701701701702 5.033165090595677e+39
1180.1801801801803 5.202463624345516e+39
1190.1901901901902 5.372274136233744e+39
1200.2002002002002 5.542479587016959e+39
1210.2102102102103 5.712966561719016e+39
1220.2202202202202 5.883625272986716e+39
1230.2302302302303 6.054349552882786e+39
1240.2402402402402 6.225036834498025e+39
1250.2502502502502 6.395507177830021e+39
1260.2602602602603 6.565411921452082e+39
1270.2702702702702 6.734180359108229e+39
1280.2802802802803 6.901686251285831e+39
1290.2902902902902 7.06780912298455e+39
1300.3003003003003 7.232434220275063e+39
1310.3103103103103 7.395452450804962e+39
1320.3203203203202 7.556760309853414e+39
1330.3303303303303 7.716259793435196e+39
1340.3403403403404 7.873858299854183e+39
1350.3503503503503 8.029468521009588e+39
1360.3603603603603 8.183008324662705e+39
1370.3703703703704 8.334400628780448e+39
1380.3803803803803 8.483573268983e+39
1390.3903903903904 8.63045886003787e+39
1400.4004004004005 8.774994652260429e+39
1410.4104104104103 8.917122383603272e+39
1420.4204204204204 9.056788128141477e+39
1430.4304304304305 9.19394214158996e+39
1440.4404404404404 9.32853870442124e+39
1450.4504504504505 9.460535963087411e+39
1460.4604604604606 9.589895769789183e+39
1470.4704704704704 9.71658352117658e+39
1480.4804804804805 9.840567996311456e+39
1490.4904904904906 9.961821194169451e+39
1500.5005005005005 1.0080318170910422e+40
1510.5105105105106 1.0196036877100062e+40
1520.5205205205207 1.030895799502182e+40
1530.5305305305305 1.0419064776177723e+40
1540.5405405405404 1.0526342879038958e+40
1550.5505505505505 1.063078020707197e+40
1560.5605605605606 1.0732366747034411e+40
1570.5705705705705 1.0831094407506918e+40
1580.5805805805805 1.092695685760243e+40
1590.5905905905906 1.1019949365774732e+40
1600.6006006006005 1.111006863863346e+40
1610.6106106106106 1.1197312659664487e+40
1620.6206206206207 1.1281680527753695e+40
1630.6306306306305 1.1363172295420707e+40
1640.6406406406406 1.1441788806689118e+40
1650.6506506506507 1.1517531534553586e+40
1660.6606606606606 1.1590402418055517e+40
1670.6706706706707 1.166040369905172e+40
1680.6806806806808 1.1727537758859797e+40
1690.6906906906906 1.1791806955096359e+40
1700.7007007007007 1.1853221207429265e+40
1710.7107107107108 1.1911813999211226e+40
1720.7207207207207 1.1967584257771724e+40
1730.7307307307308 1.2020526173894872e+40
1740.7407407407409 1.207063339325757e+40
1750.7507507507507 1.2117898875756264e+40
1760.7607607607606 1.2162314765047454e+40
1770.770770770771 1.2203872272264513e+40
1780.7807807807808 1.2242561578894386e+40
1790.7907907907907 1.227837176503248e+40
1800.8008008008007 1.2311290770711995e+40
1810.8108108108108 1.2341305399756493e+40
1820.8208208208207 1.236840137765956e+40
1830.8308308308308 1.2392563477369167e+40
1840.8408408408409 1.2413775729551094e+40
1850.8508508508507 1.243202173690249e+40
1860.8608608608608 1.2447285115319554e+40
1870.870870870871 1.2459550088074025e+40
1880.8808808808808 1.246880226241829e+40
1890.890890890891 1.2475029620909192e+40
1900.900900900901 1.24782237617611e+40
1910.9109109109108 1.247838142307905e+40
1920.920920920921 1.2475506324043547e+40
1930.930930930931 1.2469611350952353e+40
1940.940940940941 1.2460721106182143e+40
1950.950950950951 1.2448874822153885e+40
1960.960960960961 1.243412961875791e+40
1970.970970970971 1.2416564050068867e+40
1980.980980980981 1.2396281843709566e+40
1990.9909909909911 1.2373415684021768e+40
2001.001001001001 1.2348130829946868e+40
2011.0110110110109 1.2320628294062702e+40
2021.0210210210212 1.2291147247166266e+40
2031.031031031031 1.2259966262735113e+40
2041.0410410410411 1.2227402989851524e+40
2051.051051051051 1.2193811855607443e+40
2061.061061061061 1.2159579461876374e+40
2071.071071071071 1.2125117466099561e+40
2081.081081081081 1.209085292324961e+40
2091.091091091091 1.205721630715492e+40
2101.101101101101 1.2024627701448917e+40
2111.1111111111113 1.1993481918600646e+40
2121.121121121121 1.1964133526619876e+40
2131.131131131131 1.1936882893510298e+40
2141.141141141141 1.191196436522714e+40
2151.151151151151 1.1889537558524417e+40
2161.161161161161 1.1869682485252436e+40
2171.1711711711714 1.185239886400981e+40
2181.1811811811813 1.1837609571903504e+40
2191.191191191191 1.1825167804300992e+40
2201.201201201201 1.1814867199023175e+40
2211.2112112112113 1.1806453981870117e+40
2221.221221221221 1.1799640118251097e+40
2231.2312312312315 1.1794116503536332e+40
2241.2412412412414 1.1789565367114253e+40
2251.2512512512512 1.1785671266666977e+40
2261.261261261261 1.1782130273025642e+40
2271.271271271271 1.1778657160543843e+40
2281.2812812812813 1.1774990600825122e+40
2291.2912912912916 1.1770896496703603e+40
2301.3013013013015 1.1766169685575225e+40
2311.3113113113113 1.1760634290234815e+40
2321.321321321321 1.1754143009041957e+40
2331.331331331331 1.174657562488023e+40
2341.3413413413414 1.1737836983157968e+40
2351.3513513513512 1.1727854650904463e+40
2361.3613613613616 1.1716576427933578e+40
2371.3713713713714 1.1703967841328329e+40
2381.3813813813813 1.1690009718763596e+40
2391.391391391391 1.1674695905754276e+40
2401.4014014014015 1.1658031167179508e+40
2411.4114114114113 1.1640029294162487e+40
2421.4214214214217 1.1620711422998402e+40
2431.4314314314315 1.1600104562573e+40
2441.4414414414414 1.1578240319823914e+40
2451.4514514514512 1.1555153808530583e+40
2461.4614614614616 1.1530882724431765e+40
2471.4714714714714 1.1505466568819203e+40
2481.4814814814818 1.1478946002907062e+40
2491.4914914914916 1.1451362316087275e+40
2501.5015015015015 1.1422756992394872e+40
2511.5115115115113 1.1393171360935893e+40
2521.521521521521 1.1362646317539524e+40
2531.5315315315315 1.1331222106396322e+40
2541.541541541542 1.1298938151874992e+40
2551.5515515515517 1.1265832932037854e+40
2561.5615615615616 1.12319438865802e+40
2571.5715715715714 1.119730735299628e+40
2581.5815815815813 1.1161958525723884e+40
2591.5915915915916 1.112593143384879e+40
2601.6016016016015 1.108925893366741e+40
2611.611611611612 1.1051972713021435e+40
2621.6216216216217 1.101410330484442e+40
2631.6316316316315 1.0975680107805533e+40
2641.6416416416414 1.0936731412313105e+40
2651.6516516516517 1.0897284430456907e+40
2661.6616616616616 1.0857365328733726e+40
2671.671671671672 1.0816999262622147e+40
2681.6816816816818 1.0776210412256735e+40
2691.6916916916916 1.0735022018604285e+40
2701.7017017017015 1.0693456419670906e+40
2711.711711711712 1.0651535086372524e+40
2721.7217217217217 1.0609278657786399e+40
2731.731731731732 1.0566706975570484e+40
2741.741741741742 1.052383911739448e+40
2751.7517517517517 1.0480693429271497e+40
2761.7617617617616 1.0437287556716565e+40
2771.7717717717715 1.0393638474687331e+40
2781.781781781782 1.0349762516285668e+40
2791.791791791792 1.0305675400217434e+40
2801.801801801802 1.026139225702162e+40
2811.811811811812 1.0216927654091224e+40
2821.8218218218217 1.01722956195163e+40
2831.8318318318316 1.0127509664785766e+40
2841.841841841842 1.0082582806388414e+40
2851.851851851852 1.0037527586356893e+40
2861.861861861862 9.992356091799621e+39
2871.871871871872 9.947079973466503e+39
2881.881881881882 9.901710463394566e+39
2891.8918918918916 9.856258391678812e+39
2901.901901901902 9.81073420241288e+39
2911.911911911912 9.765147968842918e+39
2921.921921921922 9.719509407776412e+39
2931.931931931932 9.673827893286463e+39
2941.941941941942 9.628112469749906e+39
2951.9519519519517 9.582371864256168e+39
2961.961961961962 9.53661449842204e+39
2971.971971971972 9.490848499645382e+39
2981.9819819819822 9.445081711829529e+39
2991.991991991992 9.399321705607978e+39
3002.002002002002 9.353575788097643e+39
3012.012012012012 9.307851012207093e+39
3022.0220220220217 9.262154185524797e+39
3032.032032032032 9.22248884666343e+39
3042.0420420420423 9.176110698791042e+39
3052.052052052052 9.129570638185873e+39
3062.062062062062 9.08293220036282e+39
3072.072072072072 9.036250791852883e+39
3082.0820820820823 8.989574516277033e+39
3092.092092092092 8.942944929951611e+39
3102.102102102102 8.896397731821412e+39
3112.1121121121123 8.849963392374419e+39
3122.122122122122 8.80366772601331e+39
3132.132132132132 8.757532411155289e+39
3142.1421421421423 8.711575462112142e+39
3152.152152152152 8.665811656574177e+39
3162.162162162162 8.620252922289979e+39
3172.1721721721724 8.574908686303498e+39
3182.1821821821823 8.52978618988375e+39
3192.192192192192 8.484890772062996e+39
3202.202202202202 8.440226124488471e+39
3212.2122122122123 8.395794520091426e+39
3222.222222222222 8.3515970178864e+39
3232.232232232232 8.30763364603377e+39
3242.2422422422424 8.263903565129606e+39
3252.252252252252 8.220405213528666e+39
3262.262262262262 8.177136436359007e+39
3272.2722722722724 8.134094599749517e+39
3282.2822822822823 8.091276691664506e+39
3292.292292292292 8.048679410621709e+39
3302.3023023023025 8.006299243461315e+39
3312.3123123123123 7.964132533233086e+39
3322.322322322322 7.922175538176334e+39
3332.3323323323325 7.880424482682235e+39
3342.3423423423424 7.838875601049844e+39
3352.352352352352 7.797525174775126e+39
3362.3623623623625 7.756369564046623e+39
3372.3723723723724 7.715405234060682e+39
3382.3823823823823 7.674628776713728e+39
3392.3923923923926 7.634036928178518e+39
3402.4024024024025 7.593626582824581e+39
3412.4124124124123 7.553394803900536e+39
3422.4224224224226 7.51333883135723e+39
3432.4324324324325 7.473456087154822e+39
3442.4424424424424 7.43374417836459e+39
3452.4524524524522 7.394200898346248e+39
3462.4624624624626 7.354824226254798e+39
3472.4724724724724 7.315612325105653e+39
3482.4824824824823 7.276563538604475e+39
3492.4924924924926 7.237676386927319e+39
3502.5025025025025 7.198949561617908e+39
3512.5125125125123 7.160381919751504e+39
3522.5225225225226 7.121972477499381e+39
3532.5325325325325 7.083720403213415e+39
3542.5425425425424 7.045625010137395e+39
3552.5525525525527 7.007685748839774e+39
3562.5625625625626 6.969902199451869e+39
3572.5725725725724 6.932274063785544e+39
3582.5825825825827 6.894801157395817e+39
3592.5925925925926 6.857483401645361e+39
3602.6026026026025 6.820320815820982e+39
3612.612612612613 6.783313509345126e+39
3622.6226226226227 6.746461674119737e+39
3632.6326326326325 6.709765577034214e+39
3642.642642642643 6.673225552664459e+39
3652.6526526526527 6.636841996185457e+39
3662.6626626626626 6.600615356515871e+39
3672.672672672673 6.564546129709818e+39
3682.6826826826828 6.528634852607398e+39
3692.6926926926926 6.492882096753095e+39
3702.7027027027025 6.457288462588323e+39
3712.712712712713 6.421854573922314e+39
3722.7227227227227 6.386581072683586e+39
3732.7327327327325 6.351468613952157e+39
3742.742742742743 6.316517861271566e+39
3752.7527527527527 6.281729482238019e+39
3762.7627627627626 6.247104144363059e+39
3772.772772772773 6.212642511204972e+39
3782.7827827827828 6.178345238763408e+39
3792.7927927927926 6.144212972130828e+39
3802.802802802803 6.110246342393883e+39
3812.812812812813 6.076445963777256e+39
3822.8228228228227 6.042812431022047e+39
3832.832832832833 6.009346316990604e+39
3842.842842842843 5.976048170489273e+39
3852.8528528528527 5.942918514300462e+39
3862.862862862863 5.909957843415302e+39
3872.872872872873 5.877166623458132e+39
3882.8828828828828 5.844545289293841e+39
3892.892892892893 5.812094243809601e+39
3902.902902902903 5.779813856861909e+39
3912.912912912913 5.747704464380676e+39
3922.922922922923 5.715766367621637e+39
3932.932932932933 5.683999832558986e+39
3942.942942942943 5.652405089409926e+39
3952.9529529529527 5.620982332283317e+39
3962.962962962963 5.589731718944697e+39
3972.972972972973 5.558653370690125e+39
3982.982982982983 5.527747372321643e+39
3992.992992992993 5.497013772217302e+39
4003.003003003003 5.466452582489039e+39
4013.013013013013 5.436063779221837e+39
4023.023023023023 5.405847302787931e+39
4033.033033033033 5.375803058230062e+39
4043.043043043043 5.3459309157080065e+39
4053.053053053053 5.316230711002925e+39
4063.063063063063 5.2867022460742586e+39
4073.073073073073 5.257345289664155e+39
4083.0830830830832 5.228159577944715e+39
4093.093093093093 5.1991448152035635e+39
4103.103103103103 5.170300674563347e+39
4113.113113113113 5.141626798731315e+39
4123.123123123123 5.1131228007749075e+39
4133.133133133133 5.08478826491997e+39
4143.143143143143 5.0566227473680333e+39
4153.153153153153 5.0286257771295585e+39
4163.163163163163 5.0007968568700694e+39
4173.173173173173 4.973135463766437e+39
4183.183183183183 4.945641050370626e+39
4193.193193193193 4.91831304547847e+39
4203.203203203203 4.891150855001194e+39
4213.213213213214 4.8641538628375695e+39
4223.223223223224 4.837321431744707e+39
4233.2332332332335 4.8106529042056535e+39
4243.243243243243 4.784147603292179e+39
4253.253253253253 4.757804833521118e+39
4263.263263263263 4.731623881702908e+39
4273.273273273273 4.7056040177810016e+39
4283.283283283283 4.679744495660967e+39
4293.293293293293 4.654044554028224e+39
4303.303303303303 4.628503417153416e+39
4313.313313313313 4.6031202956845797e+39
4323.323323323323 4.57789438742529e+39
4333.333333333334 4.552824878098146e+39
4343.343343343344 4.527910942092933e+39
4353.353353353354 4.503151743198966e+39
4363.3633633633635 4.4785464353211296e+39
4373.373373373373 4.454094163179258e+39
4383.383383383383 4.429794062990486e+39
4393.393393393393 4.40564526313434e+39
4403.403403403403 4.3816468848003337e+39
4413.413413413413 4.357798042617917e+39
4423.423423423424 4.3340978452686926e+39
4433.4334334334335 4.310545396080781e+39
4443.443443443443 4.2871397936053657e+39
4453.453453453454 4.263880132175391e+39
4463.463463463464 4.2407655024465187e+39
4473.473473473474 4.217794991920332e+39
4483.483483483484 4.194967685450022e+39
4493.493493493494 4.172282665728594e+39
4503.503503503503 4.1497390137598274e+39
4513.513513513513 4.1273358093121476e+39
4523.523523523523 4.10507213135561e+39
4533.533533533533 4.08294705848229e+39
4543.543543543543 4.060959669310232e+39
4553.553553553554 4.039109042871293e+39
4563.563563563564 4.017394258983144e+39
4573.573573573573 3.995814398605658e+39
4583.583583583584 3.9743685441820785e+39
4593.593593593594 3.95305577996521e+39
4603.603603603604 3.9318751923289314e+39
4613.613613613614 3.910825870065436e+39
4623.623623623624 3.8899069046684194e+39
4633.6336336336335 3.869117390602635e+39
4643.643643643643 3.8484564255601044e+39
4653.653653653653 3.8279231107033165e+39
4663.663663663663 3.807516550895787e+39
4673.673673673674 3.787235854920283e+39
4683.683683683684 3.767080135685079e+39
4693.693693693694 3.747048510418555e+39
4703.703703703704 3.727140100852493e+39
4713.713713713714 3.7073540333944216e+39
4723.723723723724 3.6876894392893056e+39
4733.733733733734 3.6681454547709153e+39
4743.743743743744 3.6487212212032566e+39
4753.753753753754 3.62941588521231e+39
4763.763763763764 3.6102285988084585e+39
4773.773773773773 3.5911585194998574e+39
4783.783783783783 3.572204810397149e+39
4793.793793793793 3.553366640309727e+39
4803.803803803804 3.5346431838339074e+39
4813.813813813814 3.516033621433309e+39
4823.823823823824 3.4975371395117015e+39
4833.833833833834 3.4791529304786107e+39
4843.843843843844 3.460880192807997e+39
4853.853853853854 3.4427181310902196e+39
4863.863863863864 3.424665956077609e+39
4873.873873873874 3.406722884723882e+39
4883.883883883884 3.388888140217638e+39
4893.893893893894 3.3711609520102306e+39
4903.9039039039035 3.3535405558382276e+39
4913.913913913913 3.336026193740678e+39
4923.923923923924 3.318617114071464e+39
4933.933933933934 3.3013125715069296e+39
4943.943943943944 3.284111827049003e+39
4953.953953953955 3.267014148024046e+39
4963.9639639639645 3.2500188080776175e+39
4973.973973973974 3.2331250871653576e+39
4983.983983983984 3.2163322715401975e+39
4993.993993993994 3.199639653736061e+39
5004.004004004004 3.1830465325482625e+39
5014.014014014014 3.1665522130107687e+39
5024.024024024024 3.1501560063704854e+39
5034.0340340340335 3.1338572300587755e+39
5044.044044044043 3.117655207660298e+39
5054.054054054054 3.101549268879411e+39
5064.064064064064 3.08553874950421e+39
5074.074074074074 3.06962299136839e+39
5084.084084084085 3.053801342311061e+39
5094.0940940940945 3.038073156134665e+39
5104.104104104104 3.0224377925610873e+39
5114.114114114114 3.006894617186125e+39
5124.124124124124 2.9914430014324244e+39
5134.134134134134 2.97608232250099e+39
5144.144144144144 2.9608119633213865e+39
5154.154154154154 2.945631312500752e+39
5164.1641641641645 2.930539764271697e+39
5174.174174174174 2.915536718439218e+39
5184.184184184184 2.900621580326707e+39
5194.194194194194 2.885793760721136e+39
5204.204204204204 2.871052675817545e+39
5214.214214214214 2.8563977471628584e+39
5224.224224224225 2.8418284015991585e+39
5234.2342342342345 2.827344071206476e+39
5244.244244244244 2.812944193245156e+39
5254.254254254254 2.7986282100979014e+39
5264.264264264264 2.7843955692115185e+39
5274.274274274274 2.770245723038486e+39
5284.284284284285 2.7561781289783303e+39
5294.294294294295 2.74219224931895e+39
5304.304304304304 2.7282875511778714e+39
5314.314314314314 2.7144635064435372e+39
5324.324324324324 2.7007195917166453e+39
5334.334334334334 2.6870552882516156e+39
5344.344344344345 2.6734700818981868e+39
5354.354354354355 2.6599634630432354e+39
5364.3643643643645 2.6465349265528073e+39
5374.374374374374 2.633183971714452e+39
5384.384384384384 2.619910102179831e+39
5394.394394394394 2.6067128259076978e+39
5404.404404404404 2.5935916551072322e+39
5414.414414414415 2.5805461061817882e+39
5424.424424424425 2.5675756996730722e+39
5434.4344344344345 2.554679960205762e+39
5444.444444444444 2.5418584164326148e+39
5454.454454454454 2.5291106009800908e+39
5464.464464464464 2.5164360503944666e+39
5474.474474474475 2.50383430508852e+39
5484.484484484485 2.4913049092887527e+39
5494.494494494495 2.4788474109831953e+39
5504.504504504504 2.4664613618698057e+39
5514.514514514514 2.4541463173054568e+39
5524.524524524524 2.441901836255555e+39
5534.534534534535 2.429727481244272e+39
5544.544544544545 2.4176228183054228e+39
5554.554554554555 2.4055874169339704e+39
5564.5645645645645 2.3936208500382035e+39
5574.574574574574 2.381722693892561e+39
5584.584584584584 2.3698925280911218e+39
5594.594594594595 2.35812993550176e+39
5604.604604604605 2.3464345022209926e+39
5614.614614614615 2.3348058175294702e+39
5624.624624624625 2.3232434738481758e+39
5634.6346346346345 2.3117470666952922e+39
5644.644644644644 2.3003161946437436e+39
5654.654654654654 2.2889504592794346e+39
5664.664664664665 2.2776494651601464e+39
5674.674674674675 2.266412819775142e+39
5684.684684684685 2.255240133505421e+39
5694.694694694695 2.2441310195846647e+39
5704.704704704704 2.2330850940608544e+39
5714.714714714714 2.2221019757585516e+39
5724.724724724725 2.2111812862418487e+39
5734.734734734735 2.2003226497779864e+39
5744.744744744745 2.1895256933016156e+39
5754.754754754755 2.1787900463797196e+39
5764.764764764765 2.168115341177184e+39
5774.774774774774 2.157501212423009e+39
5784.784784784785 2.1469472973771476e+39
5794.794794794795 2.1364532357979837e+39
5804.804804804805 2.1260186699104286e+39
5814.814814814815 2.1156432443746312e+39
5824.824824824825 2.1053266062553052e+39
5834.8348348348345 2.0950684049916425e+39
5844.844844844845 2.0848682923678443e+39
5854.854854854855 2.0747259224842173e+39
5864.864864864865 2.064640951728859e+39
5874.874874874875 2.054613038749918e+39
5884.884884884885 2.044641844428409e+39
5894.894894894895 2.0347270318515878e+39
