#lamb flux
1000.0 4.089002253276299e+33
1416.6666666666667 9.523199997637829e+35
1833.3333333333335 1.2279853925967504e+37
2250.0 4.742789560262127e+37
2666.666666666667 1.2739914961494017e+38
3083.3333333333335 2.2187610012245454e+38
3500.0 2.8361362423014376e+38
3916.666666666667 3.2413851878716818e+38
4333.333333333334 3.425675343824285e+38
4750.0 3.458338524827869e+38
5166.666666666667 3.381040770627474e+38
5583.333333333334 3.2230076896483167e+38
6000.0 3.013910182660085e+38
6416.666666666667 2.7810395173492772e+38
6833.333333333334 2.5447558010134667e+38
7250.0 2.317428760445812e+38
7666.666666666667 2.1049694639694676e+38
8083.333333333334 1.9090897500815822e+38
8500.0 1.72923692469597e+38
8916.666666666668 1.5639113730268945e+38
9333.333333333334 1.412326376558789e+38
9750.0 1.2756472138311296e+38
10166.666666666668 1.1529369735786192e+38
10583.333333333334 1.0429809979735406e+38
11000.0 9.445589907938917e+37
