#lamb flux
1000.0 0.000882253831230512
1416.6666666666667 0.03011363723686743
1833.3333333333335 0.15613160464686565
2250.0 0.36952574004420624
2666.666666666667 0.6015420344573604
3083.3333333333335 0.7660449957397887
3500.0 0.7779684512887969
3916.666666666667 0.7410199335730099
4333.333333333334 0.6785985831866318
4750.0 0.6068551224430703
5166.666666666667 0.5349215080692471
5583.333333333334 0.4674744924352345
6000.0 0.40660661270606097
6416.666666666667 0.3529374547952105
6833.333333333334 0.3062828409467869
7250.0 0.2660623975941722
7666.666666666667 0.23154065867942716
8083.333333333334 0.20196131407610116
8500.0 0.17661526923170873
8916.666666666668 0.15486981786789794
9333.333333333334 0.13618146495612274
9750.0 0.12009698225807817
10166.666666666668 0.10622165679152322
10583.333333333334 0.09422111792114522
11000.0 0.08381380309925038
