#lamb flux
1000.0 6.994205778106153e+32
1416.6666666666667 2.7029870359032325e+35
1833.3333333333335 4.5866704106678476e+36
2250.0 2.1036061879589695e+37
2666.666666666667 6.371566586234385e+37
3083.3333333333335 1.2103526595023815e+38
3500.0 1.6524957929866984e+38
3916.666666666667 1.9886979861942665e+38
4333.333333333334 2.1905786275044817e+38
4750.0 2.2876865085173523e+38
5166.666666666667 2.3004566568878087e+38
5583.333333333334 2.245515016174408e+38
6000.0 2.1425533889387758e+38
6416.666666666667 2.0114865466589128e+38
6833.333333333334 1.8683706451642162e+38
7250.0 1.723895833714611e+38
7666.666666666667 1.5840160457450694e+38
8083.333333333334 1.45137460858656e+38
8500.0 1.3266674017611033e+38
8916.666666666668 1.209638932789516e+38
9333.333333333334 1.1004055974211768e+38
9750.0 1.0004950718930863e+38
10166.666666666668 9.096833480581055e+37
10583.333333333334 8.274256192430926e+37
11000.0 7.53087942344983e+37
