#lamb flux
1000.0 0.005394935616075649
1416.6666666666667 0.12958410262474832
1833.3333333333335 0.5272634378343978
2250.0 1.0388374733919672
2666.666666666667 1.5863974003240449
3083.3333333333335 1.8931705849151883
3500.0 1.8265032642052446
3916.666666666667 1.6738322901568776
4333.333333333334 1.4854353313685102
4750.0 1.297338985667505
5166.666666666667 1.1229594973147807
5583.333333333334 0.9666666811888605
6000.0 0.8297733461493452
6416.666666666667 0.7119436216722924
6833.333333333334 0.6117181180671871
7250.0 0.527012633526952
7666.666666666667 0.4555541171571337
8083.333333333334 0.395172563295272
8500.0 0.34395045985199413
8916.666666666668 0.30027147381409036
9333.333333333334 0.2628797087628432
9750.0 0.2308991893255181
10166.666666666668 0.2034740148625631
10583.333333333334 0.17988079528120265
11000.0 0.1595187105297916
