#lamb flux
1000.0 1.5318466775973992e-07
1416.6666666666667 9.571021127910294e-05
1833.3333333333335 0.0024342533787260158
2250.0 0.015720427451951704
2666.666666666667 0.05068826847715479
3083.3333333333335 0.10631994764932784
3500.0 0.15765959906954763
3916.666666666667 0.20185927655864136
4333.333333333334 0.23425314431793226
4750.0 0.25409380108652085
5166.666666666667 0.26279977108828545
5583.333333333334 0.26266093252260214
6000.0 0.25607025786116755
6416.666666666667 0.2451383535906867
6833.333333333334 0.23155461246846495
7250.0 0.21658490688019993
7666.666666666667 0.20113037070091896
8083.333333333334 0.1858035449155682
8500.0 0.17100058715757924
8916.666666666668 0.156961459869419
9333.333333333334 0.14381913979833896
9750.0 0.13163699583939487
10166.666666666668 0.12042255766028279
10583.333333333334 0.11015008455228792
11000.0 0.10077382552207495
