#lamb flux
1000.0 2.0231434322684119e+31
1416.6666666666667 4.617899423660055e+34
1833.3333333333335 2.3308252581146228e+36
2250.0 2.287421176370914e+37
2666.666666666667 1.0090833808007236e+38
3083.3333333333335 2.6391767285299538e+38
3500.0 4.624384569483742e+38
3916.666666666667 6.753479906744575e+38
4333.333333333334 8.710350728790043e+38
4750.0 1.0311594381836012e+39
5166.666666666667 1.147799617515207e+39
5583.333333333334 1.220706157168004e+39
6000.0 1.2546973020956621e+39
6416.666666666667 1.2570190254390887e+39
6833.333333333334 1.2353091715276858e+39
7250.0 1.1964272218686792e+39
7666.666666666667 1.1459931239191758e+39
8083.333333333334 1.0883539559279257e+39
8500.0 1.0267476993417988e+39
8916.666666666668 9.635240972109925e+38
9333.333333333334 9.00453463173618e+38
9750.0 8.390154765912607e+38
10166.666666666668 7.800697626191882e+38
10583.333333333334 7.241349446441104e+38
11000.0 6.7149456242946294e+38
