#lamb flux
1000.0 1.6070298315242257e-07
1416.6666666666667 0.00016764295919385804
1833.3333333333335 0.004296822437564805
2250.0 0.02360352669114911
2666.666666666667 0.09463476229460381
3083.3333333333335 0.21011524492349648
3500.0 0.3208801182389981
3916.666666666667 0.4227414281923635
4333.333333333334 0.49971126266391297
4750.0 0.555329103759809
5166.666666666667 0.5898963123364805
5583.333333333334 0.6030695335715514
6000.0 0.5978123726536765
6416.666666666667 0.5794781420162614
6833.333333333334 0.5534546538420533
7250.0 0.5237472607924689
7666.666666666667 0.4927287082729467
8083.333333333334 0.46149684262207885
8500.0 0.430368070843328
8916.666666666668 0.39929061272368555
9333.333333333334 0.3685683988009826
9750.0 0.3394979128872238
10166.666666666668 0.3123380293629141
10583.333333333334 0.287146040100767
11000.0 0.2639035611292991
