#lamb flux
1000.0 0.3654043691102022
1416.6666666666667 1.7716227593109362
1833.3333333333335 3.027912984371243
2250.0 3.4780092360004318
2666.666666666667 3.6768235627884605
3083.3333333333335 3.3759364635715654
3500.0 2.679864545904054
3916.666666666667 2.114016483144384
4333.333333333334 1.667123495254282
4750.0 1.3239097075103925
5166.666666666667 1.0599716009493891
5583.333333333334 0.8550982767855428
6000.0 0.6949161572558913
6416.666666666667 0.569044009612308
6833.333333333334 0.4696496563242772
7250.0 0.39068933957800706
7666.666666666667 0.32749048246309354
8083.333333333334 0.27646557005282446
8500.0 0.23488151802323123
8916.666666666668 0.20066696222787098
9333.333333333334 0.17229768246964974
9750.0 0.14870211650341436
10166.666666666668 0.12896680181264492
10583.333333333334 0.11236708989185246
11000.0 0.09833009661431555
