#lamb flux
1000.0 1.536709105628912e+31
1416.6666666666667 7.166858892206416e+34
1833.3333333333335 4.764334041233316e+36
2250.0 5.184494199652376e+37
2666.666666666667 2.8199841158325863e+38
3083.3333333333335 8.231952102043659e+38
3500.0 1.559150164850038e+39
3916.666666666667 2.4262255288080907e+39
4333.333333333334 3.287211222236505e+39
4750.0 4.067809273416336e+39
5166.666666666667 4.711472059782138e+39
5583.333333333334 5.182180900271378e+39
6000.0 5.475887427257085e+39
6416.666666666667 5.614236270175631e+39
6833.333333333334 5.629907494908068e+39
7250.0 5.554861387137438e+39
7666.666666666667 5.414768687823857e+39
8083.333333333334 5.228079011551468e+39
8500.0 5.00732238259473e+39
8916.666666666668 4.7609895645100015e+39
9333.333333333334 4.4979314429630423e+39
9750.0 4.23186612834462e+39
10166.666666666668 3.9691912706542497e+39
10583.333333333334 3.714011776191179e+39
11000.0 3.469076953225987e+39
