#lamb flux
1000.0 7.579743069181249e-09
1416.6666666666667 9.649173029736469e-06
1833.3333333333335 0.00033349982766618923
2250.0 0.0024851833136588183
2666.666666666667 0.009758534934668604
3083.3333333333335 0.02292065240055929
3500.0 0.03689108839122981
3916.666666666667 0.050456207655549604
4333.333333333334 0.0616640293207249
4750.0 0.06997989772008605
5166.666666666667 0.07530368235170472
5583.333333333334 0.07782721676614159
6000.0 0.07801345277447594
6416.666666666667 0.07645151639766476
6833.333333333334 0.07370413611824886
7250.0 0.0702242095248405
7666.666666666667 0.06633742245957738
8083.333333333334 0.062260663772799214
8500.0 0.05813122316215937
8916.666666666668 0.054033752512582106
9333.333333333334 0.05003922552637393
9750.0 0.04623911922339023
10166.666666666668 0.04266607495744298
10583.333333333334 0.039333218746334754
11000.0 0.03624278852304484
