#lamb flux
1000.0 1.6614293146015614e+36
1416.6666666666667 1.2057516013353486e+38
1833.3333333333335 9.411780950544747e+38
2250.0 2.877291883681867e+39
2666.666666666667 5.597160808456151e+39
3083.3333333333335 8.10412960535259e+39
3500.0 9.066809402746969e+39
3916.666666666667 9.312055914235536e+39
4333.333333333334 9.05467931729904e+39
4750.0 8.501986555838638e+39
5166.666666666667 7.802204269898851e+39
5583.333333333334 7.052053391958401e+39
6000.0 6.311128404512807e+39
6416.666666666667 5.613191790274054e+39
6833.333333333334 4.9747502388344735e+39
7250.0 4.401445934656017e+39
7666.666666666667 3.8925660504687914e+39
8083.333333333334 3.4440263860346706e+39
8500.0 3.050226458719757e+39
8916.666666666668 2.705133875612557e+39
9333.333333333334 2.4029882776959117e+39
9750.0 2.1386916812004808e+39
10166.666666666668 1.9073948625407508e+39
10583.333333333334 1.704763544596111e+39
11000.0 1.5269924775893836e+39
