#lamb flux
1000.0 0.0002071828524116673
1416.6666666666667 0.011125045781488417
1833.3333333333335 0.06934791587061874
2250.0 0.1773182111424317
2666.666666666667 0.3283913747978954
3083.3333333333335 0.44857226452120585
3500.0 0.4788076228417424
3916.666666666667 0.4746888347269903
4333.333333333334 0.4483274611350853
4750.0 0.4119791638926811
5166.666666666667 0.3719575267201884
5583.333333333334 0.3316640560456146
6000.0 0.2932653777937762
6416.666666666667 0.258059282524895
6833.333333333334 0.2266200439416916
7250.0 0.19899936859176154
7666.666666666667 0.174939936094783
8083.333333333334 0.1540437400422742
8500.0 0.135880154878991
8916.666666666668 0.1200441728100747
9333.333333333334 0.1062145826069869
9750.0 0.09418841773135092
10166.666666666668 0.08372297310911232
10583.333333333334 0.07460087714765465
11000.0 0.06663450712086436
