#lamb flux
1000.0 1.6474721740286116e+36
1416.6666666666667 2.205573894454126e+38
1833.3333333333335 1.7620290038521408e+39
2250.0 4.517900897133956e+39
2666.666666666667 1.1345557358977336e+40
3083.3333333333335 1.7612379379312827e+40
3500.0 2.0452350119631148e+40
3916.666666666667 2.176590221197419e+40
4333.333333333334 2.1667182845823215e+40
4750.0 2.0958436142396523e+40
5166.666666666667 1.9863782145881636e+40
5583.333333333334 1.8451720270692894e+40
6000.0 1.6852458989390658e+40
6416.666666666667 1.5221517601436806e+40
6833.333333333334 1.367561907206425e+40
7250.0 1.2272942858597993e+40
7666.666666666667 1.1024984782439773e+40
8083.333333333334 9.916498016889215e+39
8500.0 8.921721303305221e+39
8916.666666666668 8.014469957653245e+39
9333.333333333334 7.183360205355721e+39
9750.0 6.442901684848147e+39
10166.666666666668 5.785888484390745e+39
10583.333333333334 5.203311240040792e+39
11000.0 4.686743551281512e+39
