#lamb flux
1000.0 5.308276801936991e-09
1416.6666666666667 6.7575484926244245e-06
1833.3333333333335 0.00023355796924679165
2250.0 0.001740433786745886
2666.666666666667 0.006834137271118417
3083.3333333333335 0.016051885441585662
3500.0 0.02583571856170123
3916.666666666667 0.03533569860707702
4333.333333333334 0.04318480631461881
4750.0 0.049008609431609916
5166.666666666667 0.0527369841536284
5583.333333333334 0.0545042761408081
6000.0 0.05463470170717671
6416.666666666667 0.053540840007716244
6833.333333333334 0.05161678336487045
7250.0 0.049179706878288626
7666.666666666667 0.046457696194774314
8083.333333333334 0.04360264380492368
8500.0 0.0407106969937498
8916.666666666668 0.03784113951703204
9333.333333333334 0.035043675969512265
9750.0 0.03238236991350082
10166.666666666668 0.02988008087598196
10583.333333333334 0.02754600132366166
11000.0 0.025381698534956865
