#lamb flux
1000.0 1.2032264070037942e+35
1416.6666666666667 1.8797977473053036e+37
1833.3333333333335 2.1594999531323255e+38
2250.0 8.257302089057298e+38
2666.666666666667 1.94636535338346e+39
3083.3333333333335 3.20237582176075e+39
3500.0 3.940816440014688e+39
3916.666666666667 4.36282071103688e+39
4333.333333333334 4.50225122418857e+39
4750.0 4.442166762667031e+39
5166.666666666667 4.2504892588765304e+39
5583.333333333334 3.978965968178967e+39
6000.0 3.6674057860737567e+39
6416.666666666667 3.3445702145384346e+39
6833.333333333334 3.0291752408780125e+39
7250.0 2.73191425028081e+39
7666.666666666667 2.4578355053771844e+39
8083.333333333334 2.208425263758786e+39
8500.0 1.9831450050645417e+39
8916.666666666668 1.7804428917240444e+39
9333.333333333334 1.5986596660728763e+39
9750.0 1.4366450067694228e+39
10166.666666666668 1.2925378455310263e+39
10583.333333333334 1.1644581273552325e+39
11000.0 1.050636273419639e+39
