#lamb flux
1000.0 0.0013432231894585079
1416.6666666666667 0.047177295885687386
1833.3333333333335 0.2448256244704186
2250.0 0.5745830416943881
2666.666666666667 0.9466302870656234
3083.3333333333335 1.2094150789453804
3500.0 1.2303579077202116
3916.666666666667 1.1738631887230742
4333.333333333334 1.0761528241210974
4750.0 0.9637171128023406
5166.666666666667 0.8507685797344344
5583.333333333334 0.7444517901515129
6000.0 0.6481379403130516
6416.666666666667 0.562994844383135
6833.333333333334 0.48888567651567955
7250.0 0.4249699785014824
7666.666666666667 0.3701018270027851
8083.333333333334 0.32307148011600867
8500.0 0.2827352420899276
8916.666666666668 0.24807361701722697
9333.333333333334 0.21823009972076385
9750.0 0.19252473218810814
10166.666666666668 0.17033672677413303
10583.333333333334 0.15113661599865058
11000.0 0.13447780666635395
