#lamb flux
1000.0 0.032557018087493714
1416.6666666666667 0.2674099296197641
1833.3333333333335 0.6258717345600172
2250.0 0.8892772640236933
2666.666666666667 1.047312833668761
3083.3333333333335 1.0491385917113858
3500.0 0.8894745118819184
3916.666666666667 0.737390884939015
4333.333333333334 0.6048891099691013
4750.0 0.49530192211822366
5166.666666666667 0.40631947582219885
5583.333333333334 0.33446277104134764
6000.0 0.2765389661770337
6416.666666666667 0.2298477684348553
6833.333333333334 0.19214635616431097
7250.0 0.16159803367240297
7666.666666666667 0.13672252021640785
8083.333333333334 0.11634388065182959
8500.0 0.09953781751547981
8916.666666666668 0.08558236650851679
9333.333333333334 0.07392399544752419
9750.0 0.06414872110303381
10166.666666666668 0.055911718277608734
10583.333333333334 0.048936627204069855
11000.0 0.043002106519497076
