#lamb flux
1000.0 8.039962183734231e-10
1416.6666666666667 1.9098445282259847e-06
1833.3333333333335 0.00010027834216740257
2250.0 0.0010198913967514104
2666.666666666667 0.0045131999937935196
3083.3333333333335 0.011909685064597393
3500.0 0.02102952328216531
3916.666666666667 0.03088728626181429
4333.333333333334 0.04003269853332801
4750.0 0.047555199157234544
5166.666666666667 0.053064430633145865
5583.333333333334 0.05655232649129913
6000.0 0.05824078421816526
6416.666666666667 0.05845453947591769
6833.333333333334 0.05753523578781318
7250.0 0.05579405025534486
7666.666666666667 0.053491915051892214
8083.333333333334 0.05083611664489572
8500.0 0.04798502548463929
8916.666666666668 0.04505590749672739
9333.333333333334 0.04213451143465823
9750.0 0.03928407103153977
10166.666666666668 0.036545039254606886
10583.333333333334 0.0339425019551281
11000.0 0.03149046330376552
