#lamb flux
1000.0 1.178940213785181e-07
1416.6666666666667 7.832981902494327e-05
1833.3333333333335 0.0014622577971369717
2250.0 0.0062994246272837316
2666.666666666667 0.023286711308003784
3083.3333333333335 0.04745161312987741
3500.0 0.06764497706247391
3916.666666666667 0.08455301651403453
4333.333333333334 0.09569910956104835
4750.0 0.10287732527749689
5166.666666666667 0.10648513914767939
5583.333333333334 0.10651390628127037
6000.0 0.10356969005138311
6416.666666666667 0.09869411518170271
6833.333333333334 0.09288122087286413
7250.0 0.08681388988553584
7666.666666666667 0.08084379955775613
8083.333333333334 0.07508314932585801
8500.0 0.06951067579252383
8916.666666666668 0.06405371035453293
9333.333333333334 0.05872956887169395
9750.0 0.05376547120297938
10166.666666666668 0.04918744423521424
10583.333333333334 0.044988579889132595
11000.0 0.041152630432691885
