#lamb flux
1000.0 1.682417643515895e-06
1416.6666666666667 0.0002741772712412524
1833.3333333333335 0.0030618633221765655
2250.0 0.01114483143347107
2666.666666666667 0.02702333404602178
3083.3333333333335 0.04452330157461
3500.0 0.054706141925861464
3916.666666666667 0.06055579650696342
4333.333333333334 0.0624322912175526
4750.0 0.061659076895683486
5166.666666666667 0.05912027599381897
5583.333333333334 0.055441863453369995
6000.0 0.0511532443146084
6416.666666666667 0.0466756819548099
6833.333333333334 0.04229618713368612
7250.0 0.03817749032409668
7666.666666666667 0.03439038171895648
8083.333333333334 0.03094831296288123
8500.0 0.0278343688969301
8916.666666666668 0.025018897831000274
9333.333333333334 0.022478795404452107
9750.0 0.020211139304107083
10166.666666666668 0.018191979059682343
10583.333333333334 0.016395757970393377
11000.0 0.014798246044746647
