#lamb flux
1000.0 6.250305842689057e+35
1416.6666666666667 6.600719391503919e+37
1833.3333333333335 6.035497324426081e+38
2250.0 1.9811282357657344e+39
2666.666666666667 4.280316499150252e+39
3083.3333333333335 6.573954527290606e+39
3500.0 7.672880367458692e+39
3916.666666666667 8.152901963157521e+39
4333.333333333334 8.139743752239002e+39
4750.0 7.821354504905437e+39
5166.666666666667 7.324266047832643e+39
5583.333333333334 6.733565434594067e+39
6000.0 6.110987631894591e+39
6416.666666666667 5.49904185280591e+39
6833.333333333334 4.923282399532818e+39
7250.0 4.396124730478023e+39
7666.666666666667 3.921195247730151e+39
8083.333333333334 3.497016914646288e+39
8500.0 3.119606486136387e+39
8916.666666666668 2.784078713362647e+39
9333.333333333334 2.4861480456159444e+39
9750.0 2.223112746638791e+39
10166.666666666668 1.991108391906343e+39
10583.333333333334 1.7864402097738848e+39
11000.0 1.605765432166322e+39
