#lamb flux
1000.0 3.788957201744627e+34
1416.6666666666667 9.812353948247451e+36
1833.3333333333335 1.460275046016796e+38
2250.0 6.5045158675646404e+38
2666.666666666667 1.737726703487388e+39
3083.3333333333335 3.112447328246652e+39
3500.0 4.081671878980642e+39
3916.666666666667 4.7510601796777567e+39
4333.333333333334 5.102514120961074e+39
4750.0 5.204182376299121e+39
5166.666666666667 5.120626189889435e+39
5583.333333333334 4.907411081084964e+39
6000.0 4.613621774496801e+39
6416.666666666667 4.279164501324416e+39
6833.333333333334 3.9328145906776025e+39
7250.0 3.592960662180229e+39
7666.666666666667 3.2699434166196575e+39
8083.333333333334 2.968640813809408e+39
8500.0 2.6905940306042712e+39
8916.666666666668 2.4355023639649502e+39
9333.333333333334 2.202740284755391e+39
9750.0 1.9924651676963968e+39
10166.666666666668 1.8032360940830713e+39
10583.333333333334 1.6333133430974716e+39
11000.0 1.4809191163389085e+39
