#lamb flux
1000.0 1.4712746553159582e-07
1416.6666666666667 3.4265676383042035e-05
1833.3333333333335 0.00044184465385857904
2250.0 0.0017065155857812824
2666.666666666667 0.00458398230979409
3083.3333333333335 0.007983382314572069
3500.0 0.010204776407197512
3916.666666666667 0.0116629132967854
4333.333333333334 0.012326012553969812
4750.0 0.012443538804619505
5166.666666666667 0.012165411722207751
5583.333333333334 0.011596788737077743
6000.0 0.010844429497669056
6416.666666666667 0.010006531432037431
6833.333333333334 0.009156352777745423
7250.0 0.008338401374106094
7666.666666666667 0.007573945991521145
8083.333333333334 0.006869146041110569
8500.0 0.006222012859746345
8916.666666666668 0.005627150644026249
9333.333333333334 0.00508172868136779
9750.0 0.004589939791132071
10166.666666666668 0.004148412848253539
10583.333333333334 0.0037527773604553363
11000.0 0.0033986425478058258
