#lamb flux
1000.0 9.78324620300195e-07
1416.6666666666667 0.00019114555175269034
1833.3333333333335 0.0022135486404540354
2250.0 0.007932853863787037
2666.666666666667 0.020529702005744353
3083.3333333333335 0.034645476260617425
3500.0 0.0432143189725814
3916.666666666667 0.04846355672998445
4333.333333333334 0.050439166023408255
4750.0 0.05030634143463165
5166.666666666667 0.04870387681778132
5583.333333333334 0.0460484448302785
6000.0 0.04275750210392893
6416.666666666667 0.039212071748342445
6833.333333333334 0.03569050744275982
7250.0 0.03235478300933616
7666.666666666667 0.029274782204623966
8083.333333333334 0.026462290849046995
8500.0 0.023899324551593527
8916.666666666668 0.02155693146253988
9333.333333333334 0.01941906003048316
9750.0 0.01750011371602717
10166.666666666668 0.01578419804095254
10583.333333333334 0.014252081436377427
11000.0 0.012885008664514471
