#lamb flux
1000.0 8.276612511655559e-11
1416.6666666666667 4.840910898821323e-07
1833.3333333333335 4.0822157625403184e-05
2250.0 0.0005534504709400014
2666.666666666667 0.0030489165561680635
3083.3333333333335 0.009377510390377848
3500.0 0.018590580597901488
3916.666666666667 0.029918860701706382
4333.333333333334 0.041732233251496914
4750.0 0.05269253771099319
5166.666666666667 0.06189962126154858
5583.333333333334 0.06890595707466543
6000.0 0.07364919617007891
6416.666666666667 0.07632385297729734
6833.333333333334 0.07725111636362447
7250.0 0.07678370216614473
7666.666666666667 0.07525142603969347
8083.333333333334 0.07293758143161345
8500.0 0.0700737461556117
8916.666666666668 0.06684361897608967
9333.333333333334 0.06339716245248544
9750.0 0.05986686899187608
10166.666666666668 0.056341901193306745
10583.333333333334 0.05288555790281214
11000.0 0.049541879349285965
