#lamb flux
1000.0 3.70570044526344e-07
1416.6666666666667 0.00012404925285481238
1833.3333333333335 0.0015435233568108172
2250.0 0.0050515522885310185
2666.666666666667 0.016066278779987165
3083.3333333333335 0.028994156134036223
3500.0 0.037630793063530704
3916.666666666667 0.04373254304580952
4333.333333333334 0.04666506499988406
4750.0 0.047858090334330625
5166.666666666667 0.047674628006324105
5583.333333333334 0.04617664825768178
6000.0 0.04367442332449902
6416.666666666667 0.04063202055440371
6833.333333333334 0.037453488498919885
7250.0 0.034386323234688106
7666.666666666667 0.03153195981525537
8083.333333333334 0.02889620002010162
8500.0 0.026437994661108764
8916.666666666668 0.024103672081353174
9333.333333333334 0.02188317494639758
9750.0 0.01985498593538587
10166.666666666668 0.018017261766460065
10583.333333333334 0.01635747514778766
11000.0 0.014861556929164526
