#lamb flux
1000.0 3.8681112754866683e-07
1416.6666666666667 0.00016050091820347994
1833.3333333333335 0.003196445432697612
2250.0 0.017466941425908374
2666.666666666667 0.051522644972431225
3083.3333333333335 0.10047111135020895
3500.0 0.14079643513286866
3916.666666666667 0.17251742483056925
4333.333333333334 0.1931826548297759
4750.0 0.20364876418238925
5166.666666666667 0.20578615198683725
5583.333333333334 0.20168552878975304
6000.0 0.19332595637189579
6416.666666666667 0.18236943009238576
6833.333333333334 0.1700798993905581
7250.0 0.1573430122116871
7666.666666666667 0.14473661877596528
8083.333333333334 0.13261182142359834
8500.0 0.12116377278784603
8916.666666666668 0.11048573992180359
9333.333333333334 0.10061827114281313
9750.0 0.09158594305511604
10166.666666666668 0.08336203808168265
10583.333333333334 0.07590085832644056
11000.0 0.06914801613858979
