#lamb flux
1000.0 0.4190284597378509
1416.6666666666667 0.31241508312215766
1833.3333333333335 0.1851872143813667
2250.0 0.1066988049943275
2666.666666666667 0.07974155575113266
3083.3333333333335 0.05564824302306345
3500.0 0.03596333986376833
3916.666666666667 0.02430144981616749
4333.333333333334 0.016948439335531945
4750.0 0.012230226872868767
5166.666666666667 0.00907228662334673
5583.333333333334 0.0068678650716305824
6000.0 0.00528456045793711
6416.666666666667 0.00412700512994129
6833.333333333334 0.0032694220311214675
7250.0 0.0026258007818616
7666.666666666667 0.002135797513273572
8083.333333333334 0.001756803624164315
8500.0 0.001458739737923641
8916.666666666668 0.0012203854052632386
9333.333333333334 0.0010274086198119408
9750.0 0.0008708872849332381
10166.666666666668 0.0007429753374691759
10583.333333333334 0.0006376394048892804
11000.0 0.0005502755357379602
