#lamb flux
1000.0 2.7441051943103806e+32
1416.6666666666667 2.5945644874537675e+35
1833.3333333333335 6.070821610409349e+36
2250.0 3.0773151861300523e+37
2666.666666666667 1.2217229779613764e+38
3083.3333333333335 2.655531579426136e+38
3500.0 3.9828007070035235e+38
3916.666666666667 5.177114423048793e+38
4333.333333333334 6.050210683637501e+38
4750.0 6.669313568030693e+38
5166.666666666667 7.04313870845448e+38
5583.333333333334 7.165084679280546e+38
6000.0 7.070321124695395e+38
6416.666666666667 6.824881410041738e+38
6833.333333333334 6.494956869045813e+38
7250.0 6.128678184878518e+38
7666.666666666667 5.753269057642386e+38
8083.333333333334 5.379977215447731e+38
8500.0 5.010563519265034e+38
8916.666666666668 4.6426233826077426e+38
9333.333333333334 4.278995156816403e+38
9750.0 3.9359838177339975e+38
10166.666666666668 3.616457816156177e+38
10583.333333333334 3.320840368657878e+38
11000.0 3.048712880118374e+38
