#lamb flux
1000.0 5.149922411755888e-07
1416.6666666666667 0.00016553173778703788
1833.3333333333335 0.002692015951196895
2250.0 0.01245568729184821
2666.666666666667 0.03538200158557711
3083.3333333333335 0.06555150471411846
3500.0 0.08807061417043888
3916.666666666667 0.104538785384328
4333.333333333334 0.11399339366005255
4750.0 0.11783620683198408
5166.666666666667 0.11732717684157494
5583.333333333334 0.11357129956230579
6000.0 0.10765445982668083
6416.666666666667 0.10053916925436536
6833.333333333334 0.09295650681925936
7250.0 0.08538730723817063
7666.666666666667 0.07810659463244608
8083.333333333334 0.07124676134275956
8500.0 0.06485338402805806
8916.666666666668 0.058925393036366173
9333.333333333334 0.05346110295491846
9750.0 0.04849310111279499
10166.666666666668 0.04399862107655025
10583.333333333334 0.039943978050394756
11000.0 0.03629271557043369
