#lamb flux
1000.0 3.2050045869597794e+38
1416.6666666666667 3.365649101891153e+39
1833.3333333333335 9.180487645937219e+39
2250.0 1.452453649249981e+40
2666.666666666667 1.796709555858431e+40
3083.3333333333335 1.8774382871367832e+40
3500.0 1.6439840065004838e+40
3916.666666666667 1.3964926431099982e+40
4333.333333333334 1.168064677599615e+40
4750.0 9.708682367579376e+39
5166.666666666667 8.058672795468384e+39
5583.333333333334 6.698471231843473e+39
6000.0 5.5850358307662e+39
6416.666666666667 4.675945091245774e+39
6833.333333333334 3.933455095156241e+39
7250.0 3.325626520169348e+39
7666.666666666667 2.826207250516766e+39
8083.333333333334 2.413997603022952e+39
8500.0 2.072053536309588e+39
8916.666666666668 1.7869028262745286e+39
9333.333333333334 1.5479089953410788e+39
9750.0 1.3467344498831681e+39
10166.666666666668 1.1766027354594073e+39
10583.333333333334 1.032062341146884e+39
11000.0 9.087178712192929e+38
