#lamb flux
1000.0 0.09225464570115906
1416.6666666666667 0.7890814174997204
1833.3333333333335 1.8972044994610344
2250.0 2.7494736784587976
2666.666666666667 3.2622620721049795
3083.3333333333335 3.291170844462859
3500.0 2.8056523924775085
3916.666666666667 2.3354813959023124
4333.333333333334 1.92213504249463
4750.0 1.5778022522160322
5166.666666666667 1.296806897304467
5583.333333333334 1.0691480912647198
6000.0 0.8851974343865306
6416.666666666667 0.736620547574281
6833.333333333334 0.6164262054509424
7250.0 0.5188673233174116
7666.666666666667 0.43930314879550053
8083.333333333334 0.37404015120410783
8500.0 0.32016818158315574
8916.666666666668 0.2754073623948692
9333.333333333334 0.23799914659020674
9750.0 0.20661419552829188
10166.666666666668 0.18015291823987756
10583.333333333334 0.15773385077344912
11000.0 0.13865028944989086
