#lamb flux
1000.0 3.1299988144145557e+32
1416.6666666666667 2.9594287370944907e+35
1833.3333333333335 6.924539366239137e+36
2250.0 3.5100669260558654e+37
2666.666666666667 1.3935294756523114e+38
3083.3333333333335 3.028969411405183e+38
3500.0 4.5428876111665765e+38
3916.666666666667 5.905153359218622e+38
4333.333333333334 6.901029999144306e+38
4750.0 7.607195090106977e+38
5166.666666666667 8.033589912270076e+38
5583.333333333334 8.172684705319414e+38
6000.0 8.064594893705695e+38
6416.666666666667 7.784639876868502e+38
6833.333333333334 7.408319237155188e+38
7250.0 6.990532102184557e+38
7666.666666666667 6.562330542854471e+38
8083.333333333334 6.136544014727758e+38
8500.0 5.715181002304716e+38
8916.666666666668 5.295498770770486e+38
9333.333333333334 4.880734818581479e+38
9750.0 4.48948703154885e+38
10166.666666666668 4.125027240361966e+38
10583.333333333334 3.78783817701687e+38
11000.0 3.4774423808701716e+38
