#lamb flux
1000.0 3.6898764206629976e+34
1416.6666666666667 1.1579486194934978e+37
1833.3333333333335 1.8093860191357365e+38
2250.0 8.030370276946952e+38
2666.666666666667 2.2901323004231713e+39
3083.3333333333335 4.212400287896471e+39
3500.0 5.620924531442875e+39
3916.666666666667 6.639935911660668e+39
4333.333333333334 7.209364527568802e+39
4750.0 7.432950939554414e+39
5166.666666666667 7.389610076408147e+39
5583.333333333334 7.1440307061766e+39
6000.0 6.76284575581954e+39
6416.666666666667 6.307514143333138e+39
6833.333333333334 5.825260518226481e+39
7250.0 5.3467434388811756e+39
7666.666666666667 4.8887977596867715e+39
8083.333333333334 4.4587920231175814e+39
8500.0 4.058531097597913e+39
8916.666666666668 3.68703963792683e+39
9333.333333333334 3.3439634401117626e+39
9750.0 3.032165205462957e+39
10166.666666666668 2.750242009856352e+39
10583.333333333334 2.4960369022229558e+39
11000.0 2.2672279288718885e+39
