#lamb flux
1000.0 0.00012436479822772127
1416.6666666666667 0.006677985449972762
1833.3333333333335 0.04162718808227399
2250.0 0.10643807291064764
2666.666666666667 0.19712213916871607
3083.3333333333335 0.2692626272800085
3500.0 0.28741188139590856
3916.666666666667 0.28493951340371537
4333.333333333334 0.26911568015882564
4750.0 0.24729703735198363
5166.666666666667 0.2232734139016684
5583.333333333334 0.19908661807369582
6000.0 0.1760372014959552
6416.666666666667 0.15490418356742236
6833.333333333334 0.1360322812004044
7250.0 0.11945253207144603
7666.666666666667 0.10501047553476461
8083.333333333334 0.09246720192139866
8500.0 0.0815642214013924
8916.666666666668 0.07205842161239555
9333.333333333334 0.06375699041208724
9750.0 0.05653809391171474
10166.666666666668 0.050256044535244244
10583.333333333334 0.044780361531293535
11000.0 0.03999842137815494
