#lamb flux
1000.0 0.30197679019682466
1416.6666666666667 1.6814715274738654
1833.3333333333335 3.2651004733270583
2250.0 4.192767601663979
2666.666666666667 4.479433563173941
3083.3333333333335 4.2233573067765215
3500.0 3.4270764493231005
3916.666666666667 2.7457982358301507
4333.333333333334 2.1935401116305
4750.0 1.756824029486094
5166.666666666667 1.4144539669705
5583.333333333334 1.1462623590203587
6000.0 0.9355448578569107
6416.666666666667 0.7691539141689974
6833.333333333334 0.6369573806409238
7250.0 0.5312166211993478
7666.666666666667 0.4460390648060012
8083.333333333334 0.37693593563638933
8500.0 0.32047858603366736
8916.666666666668 0.2740369429746771
9333.333333333334 0.23558673675172154
9750.0 0.20356521700392458
10166.666666666668 0.17674298241302816
10583.333333333334 0.15415157976042682
11000.0 0.1350237295358532
