#lamb flux
1000.0 3.399973341208741e+35
1416.6666666666667 5.156412927770528e+37
1833.3333333333335 5.419204724289219e+38
2250.0 1.873719219297343e+39
2666.666666666667 4.501329790414519e+39
3083.3333333333335 7.307453344402508e+39
3500.0 8.869018376181713e+39
3916.666666666667 9.72778931076493e+39
4333.333333333334 9.952486970090311e+39
4750.0 9.774976738836846e+39
5166.666666666667 9.334537812095797e+39
5583.333333333334 8.724145103117061e+39
6000.0 8.024582190528407e+39
6416.666666666667 7.301849886547168e+39
6833.333333333334 6.600979403739251e+39
7250.0 5.946771890460497e+39
7666.666666666667 5.3490041037816814e+39
8083.333333333334 4.8082606421182636e+39
8500.0 4.320490903147828e+39
8916.666666666668 3.879946183172348e+39
9333.333333333334 3.482562754222027e+39
9750.0 3.128355760827472e+39
10166.666666666668 2.813446030918414e+39
10583.333333333334 2.5336891543461995e+39
11000.0 2.2851870490701755e+39
