#lamb flux
1000.0 0.00013408125334528313
1416.6666666666667 0.007199727509020532
1833.3333333333335 0.04487946453377523
2250.0 0.11475393698934283
2666.666666666667 0.21252302788646646
3083.3333333333335 0.2902997557125444
3500.0 0.30986698674431956
3916.666666666667 0.3072014559522619
4333.333333333334 0.29014132780959717
4750.0 0.2666180236630518
5166.666666666667 0.24071746668859928
5583.333333333334 0.2146409888971678
6000.0 0.18979075227344022
6416.666666666667 0.16700663995865483
6833.333333333334 0.14666030113578077
7250.0 0.1287851984134609
7666.666666666667 0.11321480334253438
8083.333333333334 0.09969154056158738
8500.0 0.087936724776458
8916.666666666668 0.07768824958153807
9333.333333333334 0.06873823868007006
9750.0 0.06095533946475116
10166.666666666668 0.05418248198435873
10583.333333333334 0.0482789912011644
11000.0 0.04312344446855174
