#lamb flux
1000.0 8.434364712091935e+39
1416.6666666666667 2.7853837270359476e+40
1833.3333333333335 3.927497902787658e+40
2250.0 4.044069479477789e+40
2666.666666666667 3.9064178169160097e+40
3083.3333333333335 3.382866115911508e+40
3500.0 2.5737000436294634e+40
3916.666666666667 1.9649032362914758e+40
4333.333333333334 1.5105830054955004e+40
4750.0 1.1747449190566095e+40
5166.666666666667 9.242330731594837e+39
5583.333333333334 7.348087369371478e+39
6000.0 5.899402219965307e+39
6416.666666666667 4.781356627463726e+39
6833.333333333334 3.911243563202736e+39
7250.0 3.2281912986405173e+39
7666.666666666667 2.6869851105006583e+39
8083.333333333334 2.253958501355189e+39
8500.0 1.9040248074122412e+39
8916.666666666668 1.6184595774480813e+39
9333.333333333334 1.3834959924964443e+39
9750.0 1.1892637177172311e+39
10166.666666666668 1.0276884762029229e+39
10583.333333333334 8.924511667408388e+38
11000.0 7.786018728424765e+38
