#lamb flux
1000.0 0.00031110320969467256
1416.6666666666667 0.018499657418052772
1833.3333333333335 0.1236644886143678
2250.0 0.33330748689311696
2666.666666666667 0.6290477216239154
3083.3333333333335 0.875734239273281
3500.0 0.9489280046186976
3916.666666666667 0.9515498406595377
4333.333333333334 0.907102167076122
4750.0 0.8394636922071858
5166.666666666667 0.7620702550734351
5583.333333333334 0.6826196729701409
6000.0 0.6059987936698152
6416.666666666667 0.5351190619299568
6833.333333333334 0.4713405858077441
7250.0 0.41493349176459915
7666.666666666667 0.3655187124921605
8083.333333333334 0.3224048166761109
8500.0 0.28480458537890657
8916.666666666668 0.2519548440228158
9333.333333333334 0.22322749658216073
9750.0 0.1981954067091461
10166.666666666668 0.17637049481043593
10583.333333333334 0.15731458536105897
11000.0 0.14064734723993524
