#lamb flux
1000.0 1.6500578709492756e-11
1416.6666666666667 3.004996212743635e-07
1833.3333333333335 3.664808069230335e-05
2250.0 0.0005375477100077201
2666.666666666667 0.004233678977140865
3083.3333333333335 0.015383446206157505
3500.0 0.034185053136047486
3916.666666666667 0.06048581936126027
4333.333333333334 0.09068661026095048
4750.0 0.12253290434630526
5166.666666666667 0.15324283126255644
5583.333333333334 0.17988175121020553
6000.0 0.2007027852522309
6416.666666666667 0.21548407578087397
6833.333333333334 0.22497725447991737
7250.0 0.23021197949345856
7666.666666666667 0.2320640717473576
8083.333333333334 0.23111274034992438
8500.0 0.22767203496899882
8916.666666666668 0.22189070273304728
9333.333333333334 0.21411599096264242
9750.0 0.20531835462857115
10166.666666666668 0.19592346949661932
10583.333333333334 0.18622697406612548
11000.0 0.17645602829302018
