#lamb flux
1000.0 9.157485093720571e+36
1416.6666666666667 3.42642956808527e+38
1833.3333333333335 1.8315513978193424e+39
2250.0 4.366043354568995e+39
2666.666666666667 7.313574923812705e+39
3083.3333333333335 9.43968186126817e+39
3500.0 9.674940632178834e+39
3916.666666666667 9.285189908611963e+39
4333.333333333334 8.551576809102121e+39
4750.0 7.688027144169842e+39
5166.666666666667 6.809646003396853e+39
5583.333333333334 5.97532786922641e+39
6000.0 5.2143286468907784e+39
6416.666666666667 4.538177358726756e+39
6833.333333333334 3.947452442817413e+39
7250.0 3.4365408854661584e+39
7666.666666666667 2.9969498201196455e+39
8083.333333333334 2.619392556146094e+39
8500.0 2.2949467111078683e+39
8916.666666666668 2.0155960355347873e+39
9333.333333333334 1.7746250399447705e+39
9750.0 1.566784507059477e+39
10166.666666666668 1.387171923720333e+39
10583.333333333334 1.2315826234175597e+39
11000.0 1.0964590708304762e+39
