#lamb flux
1000.0 1.002729771561635e+36
1416.6666666666667 5.699733463129279e+37
1833.3333333333335 3.902785587913476e+38
2250.0 1.1002439651076918e+39
2666.666666666667 2.0190656908553725e+39
3083.3333333333335 2.804549872130326e+39
3500.0 3.041101622642615e+39
3916.666666666667 3.0480431733295065e+39
4333.333333333334 2.906759386734512e+39
4750.0 2.6863518528045116e+39
5166.666666666667 2.433001785741317e+39
5583.333333333334 2.1749695854074e+39
6000.0 1.9284032824266393e+39
6416.666666666667 1.7015435531936637e+39
6833.333333333334 1.4976702651174392e+39
7250.0 1.3171335421762602e+39
7666.666666666667 1.1586958062837323e+39
8083.333333333334 1.0203716978156086e+39
8500.0 8.999235075678663e+38
8916.666666666668 7.951339886298662e+38
9333.333333333334 7.03969159412414e+38
9750.0 6.246581159220701e+38
10166.666666666668 5.5558325531811896e+38
10583.333333333334 4.953285592841071e+38
11000.0 4.4266982061662364e+38
