#lamb flux
1000.0 1.2706751696275619e+36
1416.6666666666667 8.507028952167843e+37
1833.3333333333335 5.879667655888956e+38
2250.0 1.5876063487944187e+39
2666.666666666667 3.115728152074715e+39
3083.3333333333335 4.4107635375170885e+39
3500.0 4.8327206036303783e+39
3916.666666666667 4.891328844291428e+39
4333.333333333334 4.6952272257991993e+39
4750.0 4.374304479894252e+39
5166.666666666667 3.996120903220244e+39
5583.333333333334 3.5985539667190327e+39
6000.0 3.208117965143202e+39
6416.666666666667 2.842542499303426e+39
6833.333333333334 2.511208731173901e+39
7250.0 2.216937281553875e+39
7666.666666666667 1.958388600682011e+39
8083.333333333334 1.7321265828894232e+39
8500.0 1.5340133065842233e+39
8916.666666666668 1.3599982703785293e+39
9333.333333333334 1.206951940929399e+39
9750.0 1.0731894233272894e+39
10166.666666666668 9.562792155608489e+38
10583.333333333334 8.53980640250201e+38
11000.0 7.64332649910198e+38
