#lamb flux
1000.0 0.00020282354841778786
1416.6666666666667 0.01046809249735351
1833.3333333333335 0.06764931960374758
2250.0 0.18331044008751546
2666.666666666667 0.3294574985725267
3083.3333333333335 0.4498874539699301
3500.0 0.48146427653412405
3916.666666666667 0.47770511561834855
4333.333333333334 0.45186778201209776
4750.0 0.41492609044396633
5166.666666666667 0.37385268511707964
5583.333333333334 0.3327605272307
6000.0 0.2939441515393564
6416.666666666667 0.25853336793443904
6833.333333333334 0.22692839844358623
7250.0 0.19910109236887186
7666.666666666667 0.1747967906413608
8083.333333333334 0.15366127942181054
8500.0 0.1353149171866574
8916.666666666668 0.11939224232982715
9333.333333333334 0.10556688123122279
9750.0 0.09356353757773785
10166.666666666668 0.08312855394361952
10583.333333333334 0.07404095024941783
11000.0 0.066110703619932
