#lamb flux
1000.0 1.8346231579888597e+39
1416.6666666666667 1.5108880095936094e+40
1833.3333333333335 3.6084517687852296e+40
2250.0 5.25234973053836e+40
2666.666666666667 6.146076909958422e+40
3083.3333333333335 6.170497390296261e+40
3500.0 5.244630525544052e+40
3916.666666666667 4.354412847962551e+40
4333.333333333334 3.5771336297648133e+40
4750.0 2.9305296229896675e+40
5166.666666666667 2.4038716654044087e+40
5583.333333333334 1.9785624533025977e+40
6000.0 1.6360408607402154e+40
6416.666666666667 1.3600649124459233e+40
6833.333333333334 1.1371346627017078e+40
7250.0 9.56326678477467e+39
7666.666666666667 8.08944342502275e+39
8083.333333333334 6.881312160360816e+39
8500.0 5.885093857097952e+39
8916.666666666668 5.0586759816094314e+39
9333.333333333334 4.3692276647613595e+39
9750.0 3.791288568432809e+39
10166.666666666668 3.304352773371951e+39
10583.333333333334 2.892054818534267e+39
11000.0 2.5412920305605346e+39
