#lamb flux
1000.0 6.706265009294918e+32
1416.6666666666667 2.2449390503561486e+35
1833.3333333333335 2.793338757869821e+36
2250.0 9.141874486509096e+36
2666.666666666667 2.907540013103939e+37
3083.3333333333335 5.2471185307019005e+37
3500.0 6.81010444642223e+37
3916.666666666667 7.914347841322795e+37
4333.333333333334 8.445051001496905e+37
4750.0 8.660954692952264e+37
5166.666666666667 8.62775322378315e+37
5583.333333333334 8.356661447171987e+37
6000.0 7.90382982295807e+37
6416.666666666667 7.353241356819335e+37
6833.333333333334 6.778017357484493e+37
7250.0 6.222947583414286e+37
7666.666666666667 5.706388897511322e+37
8083.333333333334 5.229391257031795e+37
8500.0 4.784525925141669e+37
8916.666666666668 4.362079856759877e+37
9333.333333333334 3.9602329600840807e+37
9750.0 3.593188370331297e+37
10166.666666666668 3.2606125058532236e+37
10583.333333333334 2.96023828273095e+37
11000.0 2.6895195844847965e+37
