#lamb flux
1000.0 2.480801851004105e+36
1416.6666666666667 1.9391720228510183e+38
1833.3333333333335 1.4197337690241275e+39
2250.0 3.909992092639687e+39
2666.666666666667 8.03536985094699e+39
3083.3333333333335 1.1645009918102993e+40
3500.0 1.2969776604150234e+40
3916.666666666667 1.3303146653158909e+40
4333.333333333334 1.290073706464575e+40
4750.0 1.2130166180456585e+40
5166.666666666667 1.1173476201653997e+40
5583.333333333334 1.0132048102793506e+40
6000.0 9.083870640664973e+39
6416.666666666667 8.086307766400557e+39
6833.333333333334 7.172755755892986e+39
7250.0 6.355904355888622e+39
7666.666666666667 5.63460444798907e+39
8083.333333333334 5.0004036019429514e+39
8500.0 4.4421562527534394e+39
8916.666666666668 3.9487021929679813e+39
9333.333333333334 3.511916328487005e+39
9750.0 3.128702379843318e+39
10166.666666666668 2.792701043609925e+39
10583.333333333334 2.497863766465899e+39
11000.0 2.2388365735472647e+39
