#lamb flux
1000.0 3.0640796067415803e-10
1416.6666666666667 2.222415764865817e-06
1833.3333333333335 0.00018797943127890716
2250.0 0.002380570341067215
2666.666666666667 0.014371553100618302
3083.3333333333335 0.04526899256991091
3500.0 0.09085582940637635
3916.666666666667 0.14797728443226127
4333.333333333334 0.20799989396831028
4750.0 0.2653012715434974
5166.666666666667 0.3151570820247771
5583.333333333334 0.354159288875838
6000.0 0.3811750651569524
6416.666666666667 0.3970716084383243
6833.333333333334 0.4037443015304177
7250.0 0.4032504595605502
7666.666666666667 0.3973435566163711
8083.333333333334 0.3873431316323019
8500.0 0.3741847579022324
8916.666666666668 0.35853081642335194
9333.333333333334 0.3410862974478291
9750.0 0.32294002963703633
10166.666666666668 0.30463708641577714
10583.333333333334 0.28654800136362796
11000.0 0.26893647535359533
