#lamb flux
1000.0 6.298711178425099e+26
1416.6666666666667 2.61854356091451e+31
1833.3333333333335 5.550749627398646e+33
2250.0 1.2279972183050748e+35
2666.666666666667 1.1330790593954386e+36
3083.3333333333335 4.8030001647317875e+36
3500.0 1.2065808017280817e+37
3916.666666666667 2.3464516048551733e+37
4333.333333333334 3.803573046127804e+37
4750.0 5.461898876863393e+37
5166.666666666667 7.170858239543824e+37
5583.333333333334 8.772108386915129e+37
6000.0 1.0151265075539371e+38
6416.666666666667 1.1257713511429702e+38
6833.333333333334 1.2090746798964227e+38
7250.0 1.2674910576084913e+38
7666.666666666667 1.3040781537318565e+38
8083.333333333334 1.321522362909946e+38
8500.0 1.321885345489876e+38
8916.666666666668 1.3067303919026722e+38
9333.333333333334 1.2783413721502683e+38
9750.0 1.2413226737664186e+38
10166.666666666668 1.1982220238977738e+38
10583.333333333334 1.1510001247538223e+38
11000.0 1.1012477316941012e+38
