#lamb flux
1000.0 3.636737538926985e-08
1416.6666666666667 3.438552606603429e-05
1833.3333333333335 0.000804560440630384
2250.0 0.004078337696278347
2666.666666666667 0.016191382988283706
3083.3333333333335 0.03519351736489137
3500.0 0.05278369382943687
3916.666666666667 0.06861182437415077
4333.333333333334 0.08018288933391697
4750.0 0.08838780328837827
5166.666666666667 0.09334207371501
5583.333333333334 0.0949582125231853
6000.0 0.09370231979357518
6416.666666666667 0.09044952968306777
6833.333333333334 0.08607706988910326
7250.0 0.08122281195765851
7666.666666666667 0.07624754909854439
8083.333333333334 0.07130034642461164
8500.0 0.06640454046539801
8916.666666666668 0.061528263455923625
9333.333333333334 0.05670913180714179
9750.0 0.052163233873982945
10166.666666666668 0.04792858497272851
10583.333333333334 0.04401079395397342
11000.0 0.04040431321483306
