#lamb flux
1000.0 6.239211683091717e+30
1416.6666666666667 7.863070740498604e+33
1833.3333333333335 2.8204743377465077e+35
2250.0 2.208432638629654e+36
2666.666666666667 8.520841372985477e+36
3083.3333333333335 2.0077538061547657e+37
3500.0 3.246417831839731e+37
3916.666666666667 4.4524547408509115e+37
4333.333333333334 5.457533591372551e+37
4750.0 6.199700460686662e+37
5166.666666666667 6.670126008162443e+37
5583.333333333334 6.892540304870665e+37
6000.0 6.910982015721898e+37
6416.666666666667 6.776277374939474e+37
6833.333333333334 6.5356359044262905e+37
7250.0 6.227537003009644e+37
7666.666666666667 5.880776463815001e+37
8083.333333333334 5.515691145312251e+37
8500.0 5.146078136504418e+37
8916.666666666668 4.78103070125349e+37
9333.333333333334 4.427230819645457e+37
9750.0 4.090929521157942e+37
10166.666666666668 3.7748025592298516e+37
10583.333333333334 3.479977770507071e+37
11000.0 3.2066301920224745e+37
