#lamb flux
1000.0 6.790443177464416e-10
1416.6666666666667 1.6130288240592766e-06
1833.3333333333335 8.469372975356645e-05
2250.0 0.0008613864615975907
2666.666666666667 0.003811787593776163
3083.3333333333335 0.010058758716086831
3500.0 0.01776125056727368
3916.666666666667 0.026086983679009346
4333.333333333334 0.033811075029816694
4750.0 0.04016447718168513
5166.666666666667 0.04481749947628736
5583.333333333334 0.0477633290825036
6000.0 0.04918937761231272
6416.666666666667 0.04936991240818385
6833.333333333334 0.04859348096307876
7250.0 0.04712289924273567
7666.666666666667 0.045178547027060825
8083.333333333334 0.04293549565923285
8500.0 0.04052750267679566
8916.666666666668 0.03805360929241577
9333.333333333334 0.035586237742026815
9750.0 0.03317879438025534
10166.666666666668 0.030865445235384918
10583.333333333334 0.0286673774776664
11000.0 0.0265964188399865
