#lamb flux
1000.0 9.504266846180513e+33
1416.6666666666667 1.8569483917930322e+36
1833.3333333333335 2.150427017713176e+37
2250.0 7.706640353183708e+37
2666.666666666667 1.9944276376821624e+38
3083.3333333333335 3.3657524768504964e+38
3500.0 4.198201809184226e+38
3916.666666666667 4.708156842004479e+38
4333.333333333334 4.900084117664091e+38
4750.0 4.8871804218020785e+38
5166.666666666667 4.731503553264982e+38
5583.333333333334 4.473532592732821e+38
6000.0 4.1538227827402476e+38
6416.666666666667 3.8093899075489545e+38
6833.333333333334 3.467275580854698e+38
7250.0 3.143215299811636e+38
7666.666666666667 2.843998159334756e+38
8083.333333333334 2.570769132983796e+38
8500.0 2.3217810660036298e+38
8916.666666666668 2.094221332607738e+38
9333.333333333334 1.886530550310362e+38
9750.0 1.7001079922182628e+38
10166.666666666668 1.5334095352536505e+38
10583.333333333334 1.384566863330729e+38
11000.0 1.2517579351659001e+38
