#lamb flux
1000.0 4.5373072038417066e+32
1416.6666666666667 2.5185458151826086e+35
1833.3333333333335 5.889830392278945e+36
2250.0 3.565215186353389e+37
2666.666666666667 1.1256397134429309e+38
3083.3333333333335 2.3082775713015176e+38
3500.0 3.3612064776666874e+38
3916.666666666667 4.244156196103919e+38
4333.333333333334 4.86895178342015e+38
4750.0 5.2351920991211025e+38
5166.666666666667 5.37763100987103e+38
5583.333333333334 5.343872975746708e+38
6000.0 5.183232051307522e+38
6416.666666666667 4.9395054228166896e+38
6833.333333333334 4.6475253489709526e+38
7250.0 4.332781575180892e+38
7666.666666666667 4.012733188551483e+38
8083.333333333334 3.698661585591987e+38
8500.0 3.3974238481420695e+38
8916.666666666668 3.1128613028939894e+38
9333.333333333334 2.8471229764139033e+38
9750.0 2.6016855678790354e+38
10166.666666666668 2.37648176137661e+38
10583.333333333334 2.1707823187659073e+38
11000.0 1.9835018833252803e+38
