#lamb flux
1000.0 1.2213354904516356e+33
1416.6666666666667 1.1547785038864379e+36
1833.3333333333335 2.701977280013504e+37
2250.0 1.3696392761907016e+38
2666.666666666667 5.437596326767197e+38
3083.3333333333335 1.1819134961345012e+39
3500.0 1.7726491917820675e+39
3916.666666666667 2.3042096185337977e+39
4333.333333333334 2.6928038502157863e+39
4750.0 2.968351714240149e+39
5166.666666666667 3.1347323297388845e+39
5583.333333333334 3.189007560293551e+39
6000.0 3.146830572087644e+39
6416.666666666667 3.037591234290258e+39
6833.333333333334 2.8907497240140626e+39
7250.0 2.727727855429368e+39
7666.666666666667 2.5606422453428396e+39
8083.333333333334 2.394498988111414e+39
8500.0 2.230081800773874e+39
8916.666666666668 2.066320459483855e+39
9333.333333333334 1.9044782464339533e+39
9750.0 1.7518121158070028e+39
10166.666666666668 1.6095987463420717e+39
10583.333333333334 1.4780265015990525e+39
11000.0 1.3569090749166211e+39
