#lamb flux
1000.0 8.157070295455773e+36
1416.6666666666667 2.594546486329775e+38
1833.3333333333335 1.1926971806918707e+39
2250.0 2.489163072153522e+39
2666.666666666667 4.1049939279814633e+39
3083.3333333333335 5.119432881509847e+39
3500.0 5.0976514461689464e+39
3916.666666666667 4.790412040875495e+39
4333.333333333334 4.334721967290406e+39
4750.0 3.849973855827168e+39
5166.666666666667 3.381486849453679e+39
5583.333333333334 2.946645396806881e+39
6000.0 2.5549017568823224e+39
6416.666666666667 2.21055750389332e+39
6833.333333333334 1.913215600106596e+39
7250.0 1.659135490618691e+39
7666.666666666667 1.442897998400327e+39
8083.333333333334 1.2587074646552112e+39
8500.0 1.101163209704549e+39
8916.666666666668 9.656046535641453e+38
9333.333333333334 8.48525438780391e+38
9750.0 7.477905656073842e+38
10166.666666666668 6.60962420713154e+38
10583.333333333334 5.859247335064341e+38
11000.0 5.208975444438743e+38
