#lamb flux
1000.0 0.8632001552493834
1416.6666666666667 3.1850471904712316
1833.3333333333335 4.925727739913793
2250.0 5.477917778699808
2666.666666666667 5.3503198783071495
3083.3333333333335 4.724990683600034
3500.0 3.6524300268574565
3916.666666666667 2.820224873038135
4333.333333333334 2.1884708193000586
4750.0 1.7126890712993594
5166.666666666667 1.353265963458968
5583.333333333334 1.0796974987645893
6000.0 0.8696597790088572
6416.666666666667 0.7069533222475434
6833.333333333334 0.5797733647726623
7250.0 0.4794630416106258
7666.666666666667 0.39963497314356383
8083.333333333334 0.3355478428963619
8500.0 0.2836598562855154
8916.666666666668 0.24130708713826254
9333.333333333334 0.20647944758658368
9750.0 0.17765812933163422
10166.666666666668 0.1536547248354098
10583.333333333334 0.13354243788905457
11000.0 0.11659406888492484
