#lamb flux
1000.0 5.9654821780320555e+32
1416.6666666666667 7.040598717049738e+35
1833.3333333333335 2.265912347781152e+37
2250.0 1.5849306412709615e+38
2666.666666666667 6.1790725803931e+38
3083.3333333333335 1.4275723672721986e+39
3500.0 2.2655392175230328e+39
3916.666666666667 3.066306452226688e+39
4333.333333333334 3.714072926359138e+39
4750.0 4.188320958420839e+39
5166.666666666667 4.486406045090407e+39
5583.333333333334 4.618909786882367e+39
6000.0 4.613375737814233e+39
6416.666666666667 4.506094161921002e+39
6833.333333333334 4.3317896621648126e+39
7250.0 4.1178592644508874e+39
7666.666666666667 3.8832761650863685e+39
8083.333333333334 3.6399958094173097e+39
8500.0 3.3950521641401596e+39
8916.666666666668 3.152428048780381e+39
9333.333333333334 2.915882468579761e+39
9750.0 2.691425259027349e+39
10166.666666666668 2.4808945166959636e+39
10583.333333333334 2.2849311590471134e+39
11000.0 2.1035590211725023e+39
