#lamb flux
1000.0 1.693071122014632e-05
1416.6666666666667 0.0026450809778319076
1833.3333333333335 0.030386525656004523
2250.0 0.11618926937904153
2666.666666666667 0.2738748878450229
3083.3333333333335 0.45060929465155153
3500.0 0.5545159641537305
3916.666666666667 0.6138965795122043
4333.333333333334 0.6335159773221848
4750.0 0.6250614365897194
5166.666666666667 0.5980903158996692
5583.333333333334 0.5598840199142637
6000.0 0.5160440955225204
6416.666666666667 0.47061760054668167
6833.333333333334 0.4262380790514107
7250.0 0.38441020726002983
7666.666666666667 0.3458443309250966
8083.333333333334 0.3107495827413102
8500.0 0.27905018700539125
8916.666666666668 0.2505277832025423
9333.333333333334 0.2249488956361484
9750.0 0.2021516615152011
10166.666666666668 0.18187420818239156
10583.333333333334 0.16385199134132408
11000.0 0.1478360119021433
