#lamb flux
1000.0 0.9743354648907184
1416.6666666666667 3.2144912914919814
1833.3333333333335 4.681022475556323
2250.0 5.017121959868841
2666.666666666667 4.781324477006188
3083.3333333333335 4.14999142389329
3500.0 3.1672991468032694
3916.666666666667 2.4219713948061696
4333.333333333334 1.8651625454560625
4750.0 1.4507737063496264
5166.666666666667 1.1405987330579275
5583.333333333334 0.9062462767635143
6000.0 0.7273957562342277
6416.666666666667 0.5895383472947657
6833.333333333334 0.48223388722185967
7250.0 0.3979031507697994
7666.666666666667 0.33099952440806035
8083.333333333334 0.2774334117903959
8500.0 0.23416692468202796
8916.666666666668 0.19892591717201727
9333.333333333334 0.17000110553862197
9750.0 0.1461050612416076
10166.666666666668 0.12623392647140963
10583.333333333334 0.10960704502774896
11000.0 0.09561341330348011
