#lamb flux
1000.0 0.0017566824945080873
1416.6666666666667 0.09135897210971912
1833.3333333333335 0.45627525141306374
2250.0 0.8955221093920195
2666.666666666667 1.7715677970750325
3083.3333333333335 2.353185798152828
3500.0 2.4350116486560394
3916.666666666667 2.3669481235813827
4333.333333333334 2.193892806068439
4750.0 1.9995956042390102
5166.666666666667 1.802416031570299
5583.333333333334 1.605426496806224
6000.0 1.4156761385745857
6416.666666666667 1.24120248495392
6833.333333333334 1.0868244863762435
7250.0 0.9534199831827967
7666.666666666667 0.8391636169263699
8083.333333333334 0.7410102654882454
8500.0 0.6557400208869124
8916.666666666668 0.5805170818549457
9333.333333333334 0.5137270212296198
9750.0 0.4555235434310671
10166.666666666668 0.4048499092211053
10583.333333333334 0.3606676445241961
11000.0 0.3220766896510012
