#lamb flux
1000.0 8.162013780144467e+34
1416.6666666666667 2.0210903791886979e+37
1833.3333333333335 2.148522330165905e+38
2250.0 6.3957336689144095e+38
2666.666666666667 1.8898211789072364e+39
3083.3333333333335 3.241143664475772e+39
3500.0 4.048687763915271e+39
3916.666666666667 4.565877305358921e+39
4333.333333333334 4.7568144816822664e+39
4750.0 4.782985098697036e+39
5166.666666666667 4.6865016905297055e+39
5583.333333333334 4.476647623275088e+39
6000.0 4.184712587295627e+39
6416.666666666667 3.8544290643332185e+39
6833.333333333334 3.5222456461193304e+39
7250.0 3.209275999015921e+39
7666.666666666667 2.923055416278389e+39
8083.333333333334 2.6625959025731103e+39
8500.0 2.4229833236625143e+39
8916.666666666668 2.198476636552925e+39
9333.333333333334 1.9874740500251284e+39
9750.0 1.7963697258623502e+39
10166.666666666668 1.6244484395886222e+39
10583.333333333334 1.4701454884164196e+39
11000.0 1.3318468424508701e+39
