#lamb flux
1000.0 1.586459486971884e+37
1416.6666666666667 5.046104469542825e+38
1833.3333333333335 2.3196634194109435e+39
2250.0 4.84114544487616e+39
2666.666666666667 7.983756820921564e+39
3083.3333333333335 9.956727806197363e+39
3500.0 9.914365335990767e+39
3916.666666666667 9.316818849759143e+39
4333.333333333334 8.430552317569615e+39
4750.0 7.487771132208272e+39
5166.666666666667 6.576615988432782e+39
5583.333333333334 5.730897706141574e+39
6000.0 4.968999878234616e+39
6416.666666666667 4.299288588333165e+39
6833.333333333334 3.72099164218631e+39
7250.0 3.226834076359645e+39
7666.666666666667 2.806276194003349e+39
8083.333333333334 2.4480460830857796e+39
8500.0 2.1416400220473782e+39
8916.666666666668 1.8779937009546683e+39
9333.333333333334 1.6502876443765107e+39
9750.0 1.454369515163801e+39
10166.666666666668 1.2854984263853215e+39
10583.333333333334 1.1395584670155365e+39
11000.0 1.0130878136280289e+39
