#lamb flux
1000.0 5.904365719914845e+35
1416.6666666666667 6.309206100565217e+37
1833.3333333333335 5.257191924994733e+38
2250.0 1.5315325453673104e+39
2666.666666666667 3.438064698394382e+39
3083.3333333333335 5.2318080741048877e+39
3500.0 6.033838824293265e+39
3916.666666666667 6.364990017560278e+39
4333.333333333334 6.30806787368048e+39
4750.0 6.045529712347644e+39
5166.666666666667 5.662957240800898e+39
5583.333333333334 5.2080379333328546e+39
6000.0 4.723592098164997e+39
6416.666666666667 4.24558901326636e+39
6833.333333333334 3.797608128603741e+39
7250.0 3.390812141837485e+39
7666.666666666667 3.0273956580726356e+39
8083.333333333334 2.7044832965259157e+39
8500.0 2.4170733551663195e+39
8916.666666666668 2.159829852065177e+39
9333.333333333334 1.929305412722855e+39
9750.0 1.7254748513128934e+39
10166.666666666668 1.5455847862793816e+39
10583.333333333334 1.3868173751693262e+39
11000.0 1.2466120215152848e+39
