#lamb flux
1000.0 6.702363185337067e+26
1416.6666666666667 2.786352551294957e+31
1833.3333333333335 5.906468625062791e+33
2250.0 1.3066932447793508e+35
2666.666666666667 1.2056922692027904e+36
3083.3333333333335 5.110799744800367e+36
3500.0 1.2839043602025902e+37
3916.666666666667 2.4968236210647533e+37
4333.333333333334 4.0473244819397326e+37
4750.0 5.811923886860343e+37
5166.666666666667 7.630401666394019e+37
5583.333333333334 9.334267700927833e+37
6000.0 1.080180744910815e+38
6416.666666666667 1.1979162475099254e+38
6833.333333333334 1.2865580581974208e+38
7250.0 1.3487180411379324e+38
7666.666666666667 1.387649816094622e+38
8083.333333333334 1.4062119349282375e+38
8500.0 1.4065981791949965e+38
8916.666666666668 1.390472022570085e+38
9333.333333333334 1.3602636965385533e+38
9750.0 1.3208726601521144e+38
10166.666666666668 1.2750099112879991e+38
10583.333333333334 1.2247618034769568e+38
11000.0 1.1718210354087073e+38
