#lamb flux
1000.0 4.559148464166514e+30
1416.6666666666667 1.0829982217172759e+34
1833.3333333333335 5.6863930356117e+35
2250.0 5.78340567885131e+36
2666.666666666667 2.559259403210673e+37
3083.3333333333335 6.753517134796631e+37
3500.0 1.1925021111169845e+38
3916.666666666667 1.7514973392252593e+38
4333.333333333334 2.2700979415539083e+38
4750.0 2.6966695644349253e+38
5166.666666666667 3.0090765589970923e+38
5583.333333333334 3.2068615072527382e+38
6000.0 3.302607348791963e+38
6416.666666666667 3.3147285743999767e+38
6833.333333333334 3.2625984536115534e+38
7250.0 3.163862624203773e+38
7666.666666666667 3.0333175303678973e+38
8083.333333333334 2.882717577884412e+38
8500.0 2.7210433362968157e+38
8916.666666666668 2.554944498133518e+38
9333.333333333334 2.3892835402181845e+38
9750.0 2.227646200525627e+38
10166.666666666668 2.0723264087936353e+38
10583.333333333334 1.9247466856469305e+38
11000.0 1.7857011528948798e+38
