#lamb flux
1000.0 3.041087585567588e+34
1416.6666666666667 7.741859601483599e+36
1833.3333333333335 1.0543570884719362e+38
2250.0 4.2305114165958725e+38
2666.666666666667 1.1579700445268453e+39
3083.3333333333335 2.049204055452748e+39
3500.0 2.6522013291783068e+39
3916.666666666667 3.0604572781904406e+39
4333.333333333334 3.2598088839842356e+39
4750.0 3.311255955072314e+39
5166.666666666667 3.2533717616075477e+39
5583.333333333334 3.114271920256738e+39
6000.0 2.9227425192770784e+39
6416.666666666667 2.7053822305485268e+39
6833.333333333334 2.4822410602700994e+39
7250.0 2.2657470126628224e+39
7666.666666666667 2.062099410519042e+39
8083.333333333334 1.8733870947797282e+39
8500.0 1.6994284009059914e+39
8916.666666666668 1.539040831889657e+39
9333.333333333334 1.3916346080354943e+39
9750.0 1.2584111421541193e+39
10166.666666666668 1.138554186437755e+39
10583.333333333334 1.0309575138803282e+39
11000.0 9.344898553873125e+38
