#lamb flux
1000.0 3.0022707396349088e+38
1416.6666666666667 5.456585562144095e+39
1833.3333333333335 1.6372944860243243e+40
2250.0 2.427170978935663e+40
2666.666666666667 3.673313471070589e+40
3083.3333333333335 4.1181414290168143e+40
3500.0 3.764293372829293e+40
3916.666666666667 3.320260756428449e+40
4333.333333333334 2.8524639617301254e+40
4750.0 2.4398725574604354e+40
5166.666666666667 2.0841798883174213e+40
5583.333333333334 1.774896845353033e+40
6000.0 1.5077551420233707e+40
6416.666666666667 1.2809725506184593e+40
6833.333333333334 1.0915357905882036e+40
7250.0 9.347023880581783e+39
7666.666666666667 8.049301530455219e+39
8083.333333333334 6.968354017217341e+39
8500.0 6.057489186238319e+39
8916.666666666668 5.279097979145863e+39
9333.333333333334 4.6086927362862597e+39
9750.0 4.0370033181080705e+39
10166.666666666668 3.548510669242651e+39
10583.333333333334 3.129667128057114e+39
11000.0 2.769295468982566e+39
