#lamb flux
1000.0 8.276634986241142e+32
1416.6666666666667 4.594153199664816e+35
1833.3333333333335 1.0743812155034983e+37
2250.0 6.503413460712223e+37
2666.666666666667 2.0533123757403935e+38
3083.3333333333335 4.210596736410971e+38
3500.0 6.131275198973061e+38
3916.666666666667 7.741889645471603e+38
4333.333333333334 8.881597579034528e+38
4750.0 9.549667267535228e+38
5166.666666666667 9.809494257234482e+38
5583.333333333334 9.74791523828167e+38
6000.0 9.45488542220271e+38
6416.666666666667 9.01029653945352e+38
6833.333333333334 8.477687133497768e+38
7250.0 7.90355379563457e+38
7666.666666666667 7.319744158097973e+38
8083.333333333334 6.7468369467373544e+38
8500.0 6.19734036540755e+38
8916.666666666668 5.678261490655597e+38
9333.333333333334 5.1935204247943255e+38
9750.0 4.745810858051285e+38
10166.666666666668 4.33500999749803e+38
10583.333333333334 3.9597876184797985e+38
11000.0 3.618163890006233e+38
