#lamb flux
1000.0 1.3793909575371525e-05
1416.6666666666667 0.003564325316591192
1833.3333333333335 0.04890099907510267
2250.0 0.19702981231310907
2666.666666666667 0.5413552552655505
3083.3333333333335 0.9603828630051289
3500.0 1.245272472682051
3916.666666666667 1.4390514818273121
4333.333333333334 1.534558540416794
4750.0 1.5602883951295499
5166.666666666667 1.5342745376167028
5583.333333333334 1.469692525428173
6000.0 1.380107551302036
6416.666666666667 1.2781020452079646
6833.333333333334 1.173186308426455
7250.0 1.0712711546783455
7666.666666666667 0.9753174027863991
8083.333333333334 0.886335226188969
8500.0 0.8042551601207615
8916.666666666668 0.7285303046965969
9333.333333333334 0.6588942286744047
9750.0 0.5959319396860919
10166.666666666668 0.539266630744672
10583.333333333334 0.4883818050422179
11000.0 0.4427475311330384
