#lamb flux
1000.0 3.332777901968475e+35
1416.6666666666667 3.1387095010949144e+37
1833.3333333333335 2.7756025423716913e+38
2250.0 9.081451808570967e+38
2666.666666666667 1.8901147755992557e+39
3083.3333333333335 2.8559345994478007e+39
3500.0 3.297160685362428e+39
3916.666666666667 3.4716146477851436e+39
4333.333333333334 3.442424148710014e+39
4750.0 3.2861739922021363e+39
5166.666666666667 3.058499495871472e+39
5583.333333333334 2.7973279725048775e+39
6000.0 2.5282537358282718e+39
6416.666666666667 2.2674909213805993e+39
6833.333333333334 2.0241642728395185e+39
7250.0 1.8024436775908757e+39
7666.666666666667 1.603354535473727e+39
8083.333333333334 1.4261258372880447e+39
8500.0 1.269091022165286e+39
8916.666666666668 1.1302383555875658e+39
9333.333333333334 1.007643567340405e+39
9750.0 8.99738086104557e+38
10166.666666666668 8.047981057442561e+38
10583.333333333334 7.212273671011468e+38
11000.0 6.475967189067433e+38
