#lamb flux
1000.0 1.501451843017198e+33
1416.6666666666667 3.982650018497477e+34
1833.3333333333335 1.6582463735810613e+35
2250.0 3.252196093813233e+35
2666.666666666667 5.140376026254655e+35
3083.3333333333335 6.2171160470954476e+35
3500.0 6.049730418043001e+35
3916.666666666667 5.584677769613234e+35
4333.333333333334 4.9825365564052366e+35
4750.0 4.375079625932825e+35
5166.666666666667 3.806774244107102e+35
5583.333333333334 3.291359139036144e+35
6000.0 2.834968092775185e+35
6416.666666666667 2.4390564019110477e+35
6833.333333333334 2.100717195583729e+35
7250.0 1.8140292640274887e+35
7666.666666666667 1.5717502617544073e+35
8083.333333333334 1.3666173595978262e+35
8500.0 1.1920833148919968e+35
8916.666666666668 1.0426088604694671e+35
9333.333333333334 9.140475326399718e+34
9750.0 8.038303003025425e+34
10166.666666666668 7.091318398562265e+34
10583.333333333334 6.275266535907583e+34
11000.0 5.569905519782569e+34
