#lamb flux
1000.0 7.721511686580039e+29
1416.6666666666667 1.834198533182473e+33
1833.3333333333335 9.630647175467684e+34
2250.0 9.794950721274152e+35
2666.666666666667 4.334439105503829e+36
3083.3333333333335 1.1437960814768969e+37
3500.0 2.0196576311634808e+37
3916.666666666667 2.9663888509307673e+37
4333.333333333334 3.8447065111300997e+37
4750.0 4.567161109204115e+37
5166.666666666667 5.096263040944371e+37
5583.333333333334 5.431237609416729e+37
6000.0 5.59339566156117e+37
6416.666666666667 5.613924535740982e+37
6833.333333333334 5.525635386998766e+37
7250.0 5.358413400996668e+37
7666.666666666667 5.137318282993379e+37
8083.333333333334 4.8822576500178695e+37
8500.0 4.608441266180102e+37
8916.666666666668 4.3271312518022875e+37
9333.333333333334 4.0465628446519104e+37
9750.0 3.7728089589793227e+37
10166.666666666668 3.5097546635463267e+37
10583.333333333334 3.2598091822934257e+37
11000.0 3.0243174639275516e+37
