#lamb flux
1000.0 1.4620975913753252e+31
1416.6666666666667 1.8426329117270635e+34
1833.3333333333335 6.609502843012392e+35
2250.0 5.1752436135570123e+36
2666.666666666667 1.9967749582363623e+37
3083.3333333333335 4.704972604165404e+37
3500.0 7.607659322401294e+37
3916.666666666667 1.0433887617481677e+38
4333.333333333334 1.2789190564602996e+38
4750.0 1.4528385269221542e+38
5166.666666666667 1.5630781044235423e+38
5583.333333333334 1.6151986965787657e+38
6000.0 1.6195203292442355e+38
6416.666666666667 1.5879536280584427e+38
6833.333333333334 1.531561677874122e+38
7250.0 1.4593617454872405e+38
7666.666666666667 1.3781018404074913e+38
8083.333333333334 1.2925477044136861e+38
8500.0 1.2059325489472623e+38
8916.666666666668 1.1203872905190945e+38
9333.333333333334 1.037477785119585e+38
9750.0 9.586688997234517e+37
10166.666666666668 8.84587670702733e+37
10583.333333333334 8.154983954281823e+37
11000.0 7.514420920984381e+37
