#lamb flux
1000.0 1.0651729254359905e+36
1416.6666666666667 1.2204892449836127e+38
1833.3333333333335 9.032284029181365e+38
2250.0 2.218423778112098e+39
2666.666666666667 5.3545946636600254e+39
3083.3333333333335 8.101756987764092e+39
3500.0 9.231331154212308e+39
3916.666666666667 9.678388926883944e+39
4333.333333333334 9.521540103814368e+39
4750.0 9.11962461703109e+39
5166.666666666667 8.571372482247131e+39
5583.333333333334 7.906477717420719e+39
6000.0 7.179028665140327e+39
6416.666666666667 6.452182236479009e+39
6833.333333333334 5.772064767291077e+39
7250.0 5.1603781471865573e+39
7666.666666666667 4.619816517335841e+39
8083.333333333334 4.142485281964626e+39
8500.0 3.7165822158505405e+39
8916.666666666668 3.330462985500647e+39
9333.333333333334 2.9787231361230946e+39
9750.0 2.6665569403824905e+39
10166.666666666668 2.3904802218570683e+39
10583.333333333334 2.146392905858263e+39
11000.0 1.9305226429119715e+39
