#lamb flux
1000.0 8.315828023673831e-05
1416.6666666666667 0.004291950201196047
1833.3333333333335 0.027736429627220466
2250.0 0.07515784565467418
2666.666666666667 0.1350785902628761
3083.3333333333335 0.1844552433091299
3500.0 0.19740183792431773
3916.666666666667 0.19586057035786564
4333.333333333334 0.18526718391255548
4750.0 0.17012097646373434
5166.666666666667 0.15328075363411137
5583.333333333334 0.1364328421972746
6000.0 0.12051800847754181
6416.666666666667 0.10599947801403496
6833.333333333334 0.09304134307212893
7250.0 0.0816320617788743
7666.666666666667 0.0716672231307928
8083.333333333334 0.06300159836161316
8500.0 0.05547953327608892
8916.666666666668 0.04895118748886656
9333.333333333334 0.04328274680936697
9750.0 0.03836133890036879
10166.666666666668 0.034082963435186936
10583.333333333334 0.03035701789987765
11000.0 0.02710559232969274
