#lamb flux
1000.0 1.2799880439696722e+35
1416.6666666666667 2.149336631927153e+37
1833.3333333333335 2.498001421830404e+38
2250.0 9.459549135975139e+38
2666.666666666667 2.2905797596602337e+39
3083.3333333333335 3.8036099476017596e+39
3500.0 4.706958229162858e+39
3916.666666666667 5.236849062399964e+39
4333.333333333334 5.4232342723634284e+39
4750.0 5.3712724641130554e+39
5166.666666666667 5.1592467126815556e+39
5583.333333333334 4.845355135557293e+39
6000.0 4.4771139666648704e+39
6416.666666666667 4.091003207256498e+39
6833.333333333334 3.7116055125623416e+39
7250.0 3.3531010827138805e+39
7666.666666666667 3.0220793185973186e+39
8083.333333333334 2.7203326639240542e+39
8500.0 2.4470037873848764e+39
8916.666666666668 2.2000022985331465e+39
9333.333333333334 1.9774441001745145e+39
9750.0 1.7786601429855188e+39
10166.666666666668 1.601551629321201e+39
10583.333333333334 1.4439105925992436e+39
11000.0 1.303637629688986e+39
