#lamb flux
1000.0 0.12835074863803744
1416.6666666666667 0.9622177137700416
1833.3333333333335 1.8559880606231713
2250.0 2.1404347030718736
2666.666666666667 2.6082056441589416
3083.3333333333335 2.541059604887663
3500.0 2.096533617502622
3916.666666666667 1.7079979860679944
4333.333333333334 1.3792089331897315
4750.0 1.1208550613856483
5166.666666666667 0.9172395837974379
5583.333333333334 0.7536891733475217
6000.0 0.6214503929511749
6416.666666666667 0.5148487247358725
6833.333333333334 0.42927006247135235
7250.0 0.36059366925124264
7666.666666666667 0.30521624912982415
8083.333333333334 0.2601425316148342
8500.0 0.22299482539608
8916.666666666668 0.1919508160013059
9333.333333333334 0.16577394585741553
9750.0 0.14380557946485079
10166.666666666668 0.12529533615196933
10583.333333333334 0.10962299746568126
11000.0 0.09629131082837705
