#lamb flux
1000.0 7.084819928777217e+28
1416.6666666666667 8.13374302238885e+32
1833.3333333333335 9.908683259214965e+34
2250.0 1.69350386029816e+36
2666.666666666667 1.09397208154979e+37
3083.3333333333335 3.779279174718485e+37
3500.0 8.185666614698083e+37
3916.666666666667 1.4123886111759364e+38
4333.333333333334 2.0839682029735572e+38
4750.0 2.755925254860949e+38
5166.666666666667 3.3653258950157914e+38
5583.333333333334 3.87136354793126e+38
6000.0 4.256133120894243e+38
6416.666666666667 4.519693946403617e+38
6833.333333333334 4.673178567356219e+38
7250.0 4.7328392833561354e+38
7666.666666666667 4.716055180543229e+38
8083.333333333334 4.6391353694650166e+38
8500.0 4.5163634544421166e+38
8916.666666666668 4.359760686684484e+38
9333.333333333334 4.179663412731166e+38
9750.0 3.985581479563021e+38
10166.666666666668 3.7843374999187924e+38
10583.333333333334 3.581083282602302e+38
11000.0 3.3796659812202858e+38
