#lamb flux
1000.0 2.7471006507166747e-12
1416.6666666666667 3.153814913320323e-08
1833.3333333333335 3.842038400802776e-06
2250.0 6.566469724544167e-05
2666.666666666667 0.00042418176429361764
3083.3333333333335 0.0014653950819468447
3500.0 0.0031739480057142275
3916.666666666667 0.005476460533691908
4333.333333333334 0.008080474117920997
4750.0 0.010685951283255396
5166.666666666667 0.01304886934178883
5583.333333333334 0.015011003001622227
6000.0 0.01650292623310656
6416.666666666667 0.01752486909480069
6833.333333333334 0.018119997420336934
7250.0 0.018351328623378363
7666.666666666667 0.01828624917150443
8083.333333333334 0.01798799675974211
8500.0 0.01751195529215416
8916.666666666668 0.01690473652084338
9333.333333333334 0.016206419071080263
9750.0 0.015453876860751172
10166.666666666668 0.014673564202149998
10583.333333333334 0.013885456955580347
11000.0 0.013104472251304837
