#lamb flux
1000.0 2.176480415805525e+35
1416.6666666666667 2.278344835306877e+37
1833.3333333333335 2.0157213413246335e+38
2250.0 6.369863324966074e+38
2666.666666666667 1.387271197857904e+39
3083.3333333333335 2.1206515840633185e+39
3500.0 2.462880472339028e+39
3916.666666666667 2.6083591225661923e+39
4333.333333333334 2.5961458586525563e+39
4750.0 2.4907404891062637e+39
5166.666666666667 2.331073871138527e+39
5583.333333333334 2.1420795956778363e+39
6000.0 1.9427586824243158e+39
6416.666666666667 1.7469171335213497e+39
6833.333333333334 1.5630549008884406e+39
7250.0 1.3952411846152954e+39
7666.666666666667 1.2445093262657134e+39
8083.333333333334 1.1101504176328462e+39
8500.0 9.90647096204202e+38
8916.666666666668 8.842460179422437e+38
9333.333333333334 7.895554357802108e+38
9750.0 7.059445404210834e+38
10166.666666666668 6.322041957897741e+38
10583.333333333334 5.671588454331502e+38
11000.0 5.097447646955806e+38
