#lamb flux
1000.0 1.2362921930051886e-06
1416.6666666666667 0.0004257576655779982
1833.3333333333335 0.007418019335647346
2250.0 0.03653841125205621
2666.666666666667 0.10432541309360306
3083.3333333333335 0.19629352257521676
3500.0 0.26726753218097954
3916.666666666667 0.32037400999388
4333.333333333334 0.3522952296396024
4750.0 0.3662960299781202
5166.666666666667 0.3662037505285818
5583.333333333334 0.35569354841878614
6000.0 0.3382450039274264
6416.666666666667 0.316827459536035
6833.333333333334 0.2936784723375877
7250.0 0.2703029855390774
7666.666666666667 0.24761133020605072
8083.333333333334 0.22609298194707084
8500.0 0.20596797784319268
8916.666666666668 0.18729791294111278
9333.333333333334 0.17010146401106083
9750.0 0.15444123881428898
10166.666666666668 0.14024982548810452
10583.333333333334 0.12742802223244334
11000.0 0.11586627642907098
