#lamb flux
1000.0 0.0013700577170403677
1416.6666666666667 0.04357788160531555
1833.3333333333335 0.20032486141617648
2250.0 0.4180786670277545
2666.666666666667 0.689472862893921
3083.3333333333335 0.859857555731763
3500.0 0.856199156024991
3916.666666666667 0.8045953690089972
4333.333333333334 0.7280578770810746
4750.0 0.6466398106827825
5166.666666666667 0.5679529519005666
5583.333333333334 0.49491718460802747
6000.0 0.42912010581135224
6416.666666666667 0.3712842059063455
6833.333333333334 0.3213427986207639
7250.0 0.27866762210005996
7666.666666666667 0.2423484739014391
8083.333333333334 0.21141191788035607
8500.0 0.18495085840036424
8916.666666666668 0.1621825066240562
9333.333333333334 0.14251793639117863
9750.0 0.12559855414156798
10166.666666666668 0.11101493947848112
10583.333333333334 0.09841164458181949
11000.0 0.08748970827801751
