#lamb flux
1000.0 0.030704504491862832
1416.6666666666667 0.3065528336374834
1833.3333333333335 0.8135198266019923
2250.0 1.2651730143818671
2666.666666666667 1.5469364918516815
3083.3333333333335 1.6030360410396929
3500.0 1.3950210816081832
3916.666666666667 1.179373205688534
4333.333333333334 0.9827604060990888
4750.0 0.8143810011954363
5166.666666666667 0.6743023814250134
5583.333333333334 0.5593343078688219
6000.0 0.46555042213734543
6416.666666666667 0.3891939549646596
6833.333333333334 0.3269759042783004
7250.0 0.27614181497108814
7666.666666666667 0.23444408872765868
8083.333333333334 0.20007742594321393
8500.0 0.17160488886011835
8916.666666666668 0.1478877279204807
9333.333333333334 0.12802921538696954
9750.0 0.11132785078070306
10166.666666666668 0.09721475234422387
10583.333333333334 0.08523306491538424
11000.0 0.07501499308987511
