#lamb flux
1000.0 1.2506784871026292e+39
1416.6666666666667 1.3633024558013475e+40
1833.3333333333335 3.3690095841759677e+40
2250.0 4.658333182628982e+40
2666.666666666667 6.075406738054804e+40
3083.3333333333335 6.31354873777791e+40
3500.0 5.47551043449393e+40
3916.666666666667 4.629578930763944e+40
4333.333333333334 3.8515620653154574e+40
4750.0 3.200912056270108e+40
5166.666666666667 2.6647581914901305e+40
5583.333333333334 2.220889579097284e+40
6000.0 1.8539702873728234e+40
6416.666666666667 1.552642988873016e+40
6833.333333333334 1.3066134985968085e+40
7250.0 1.1060846766413591e+40
7666.666666666667 9.421535383648518e+39
8083.333333333334 8.07204670215281e+39
8500.0 6.950389383476484e+39
8916.666666666668 6.007873281685029e+39
9333.333333333334 5.21008180003621e+39
9750.0 4.5368355079427755e+39
10166.666666666668 3.966598875015079e+39
10583.333333333334 3.481496439422039e+39
11000.0 3.067058553598184e+39
