#lamb flux
1000.0 3.9810540397806787e+33
1416.6666666666667 4.021424637230956e+36
1833.3333333333335 1.0375534887875075e+38
2250.0 5.808698003033082e+38
2666.666666666667 2.2914627307348957e+39
3083.3333333333335 5.073689266411886e+39
3500.0 7.74165059313347e+39
3916.666666666667 1.0187321600381758e+40
4333.333333333334 1.2035736985779452e+40
4750.0 1.335864288459175e+40
5166.666666666667 1.4167227814308265e+40
5583.333333333334 1.446372714235092e+40
6000.0 1.4324210018887026e+40
6416.666666666667 1.3875999205990556e+40
6833.333333333334 1.324520944494934e+40
7250.0 1.2525722728988003e+40
7666.666666666667 1.1773998122442182e+40
8083.333333333334 1.101725821386714e+40
8500.0 1.0264629157892682e+40
8916.666666666668 9.516451097331299e+39
9333.333333333334 8.780228494046765e+39
9750.0 8.084591849690372e+39
10166.666666666668 7.435300842257457e+39
10583.333333333334 6.833539519832362e+39
11000.0 6.278724961212793e+39
