#lamb flux
1000.0 1.1758496268883143e+36
1416.6666666666667 6.313930317595099e+37
1833.3333333333335 3.935785228013265e+38
2250.0 1.0063552556851959e+39
2666.666666666667 1.8637588537597564e+39
3083.3333333333335 2.5458358340470607e+39
3500.0 2.7174341800790756e+39
3916.666666666667 2.694058329174484e+39
4333.333333333334 2.544446472104795e+39
4750.0 2.3381546325389267e+39
5166.666666666667 2.1110150474383752e+39
5583.333333333334 1.8823326931449234e+39
6000.0 1.6644040809559445e+39
6416.666666666667 1.46459471688824e+39
6833.333333333334 1.2861638451853142e+39
7250.0 1.1294049222022188e+39
7666.666666666667 9.928575468021315e+38
8083.333333333334 8.742628656028113e+38
8500.0 7.71176897876276e+38
8916.666666666668 6.813010544346271e+38
9333.333333333334 6.028123267671084e+38
9750.0 5.3455879459825804e+38
10166.666666666668 4.75163004787293e+38
10583.333333333334 4.2339128233119574e+38
11000.0 3.781787895277706e+38
