#lamb flux
1000.0 8.084857097189036e+31
1416.6666666666667 1.7885652120311363e+35
1833.3333333333335 5.911259731816272e+36
2250.0 3.463772146726734e+37
2666.666666666667 1.753091508599662e+38
3083.3333333333335 4.351205395018445e+38
3500.0 7.175863404814113e+38
3916.666666666667 1.0073402903208921e+39
4333.333333333334 1.2498962529634175e+39
4750.0 1.452917420726328e+39
5166.666666666667 1.60828634232198e+39
5583.333333333334 1.70248026758223e+39
6000.0 1.7359305842097156e+39
6416.666666666667 1.7222517004798535e+39
6833.333333333334 1.6786671205724064e+39
7250.0 1.6189056730058545e+39
7666.666666666667 1.5510362248347e+39
8083.333333333334 1.478311161164179e+39
8500.0 1.400951076035669e+39
8916.666666666668 1.3178252126492587e+39
9333.333333333334 1.2300194220917187e+39
9750.0 1.1442305423831097e+39
10166.666666666668 1.062094312386403e+39
10583.333333333334 9.843236631207613e+38
11000.0 9.112950260930289e+38
