#lamb flux
1000.0 0.00044748221058033043
1416.6666666666667 0.024598234421259118
1833.3333333333335 0.15719096357212137
2250.0 0.4112891839563966
2666.666666666667 0.7626033335335728
3083.3333333333335 1.047272114594301
3500.0 1.1230462092595759
3916.666666666667 1.117112524433121
4333.333333333334 1.0580834821444718
4750.0 0.9741446256313719
5166.666666666667 0.8806233359371082
5583.333333333334 0.7860452174494957
6000.0 0.6957285853372018
6416.666666666667 0.6127732561661723
6833.333333333334 0.5385415739915185
7250.0 0.47318360274970106
7666.666666666667 0.4161398666319297
8083.333333333334 0.3665235691248331
8500.0 0.3233636607370933
8916.666666666668 0.2857367059988224
9333.333333333334 0.25289082099792975
9750.0 0.2243181324208684
10166.666666666668 0.19944373372368465
10583.333333333334 0.17775444430168766
11000.0 0.15880686371398187
