#lamb flux
1000.0 2.423805188002201e-06
1416.6666666666667 0.0003949984090026904
1833.3333333333335 0.004411128374602722
2250.0 0.016056001523739354
2666.666666666667 0.03893165143048815
3083.3333333333335 0.06414329388391649
3500.0 0.07881338568132708
3916.666666666667 0.08724079559130991
4333.333333333334 0.08994420139088288
4750.0 0.08883025629407121
5166.666666666667 0.08517268718751796
5583.333333333334 0.07987331611071412
6000.0 0.0736948399410438
6416.666666666667 0.0672441593272795
6833.333333333334 0.0609347614740298
7250.0 0.05500108695904503
7666.666666666667 0.04954512094487271
8083.333333333334 0.04458624278486924
8500.0 0.0401000833515741
8916.666666666668 0.03604392440520822
9333.333333333334 0.032384480233748986
9750.0 0.029117540754242055
10166.666666666668 0.026208601291614356
10583.333333333334 0.023620843125978813
11000.0 0.021319358885011064
