#lamb flux
1000.0 1.6272445575102258e+38
1416.6666666666667 2.6878921343755413e+39
1833.3333333333335 9.426808331884694e+39
2250.0 1.7505716402976663e+40
2666.666666666667 2.400937375074525e+40
3083.3333333333335 2.7064353278280313e+40
3500.0 2.508544324098124e+40
3916.666666666667 2.2260452146314394e+40
4333.333333333334 1.9273878264729604e+40
4750.0 1.6469680519393865e+40
5166.666666666667 1.398287117756698e+40
5583.333333333334 1.1843246686943872e+40
6000.0 1.003284144575283e+40
6416.666666666667 8.51471646117757e+39
6833.333333333334 7.247038256688606e+39
7250.0 6.189671897132442e+39
7666.666666666667 5.3069156436058e+39
8083.333333333334 4.5682780471478475e+39
8500.0 3.9483181276993764e+39
8916.666666666668 3.426091602638718e+39
9333.333333333334 2.984531762137717e+39
9750.0 2.6098362147917066e+39
10166.666666666668 2.2906523358955772e+39
10583.333333333334 2.0177017845832037e+39
11000.0 1.783394477366994e+39
