#lamb flux
1000.0 6.358102285690974e+32
1416.6666666666667 6.011615892953462e+35
1833.3333333333335 1.4066117012276607e+37
2250.0 7.130151117855423e+37
2666.666666666667 2.8307368371894885e+38
3083.3333333333335 6.1528768794583424e+38
3500.0 9.228164551109585e+38
3916.666666666667 1.1995394023056937e+39
4333.333333333334 1.4018361415701805e+39
4750.0 1.5452825179153652e+39
5166.666666666667 1.6318979466790048e+39
5583.333333333334 1.660152875004916e+39
6000.0 1.6381961229730587e+39
6416.666666666667 1.581327646721698e+39
6833.333333333334 1.5048840037242976e+39
7250.0 1.4200170917767322e+39
7666.666666666667 1.3330346526596651e+39
8083.333333333334 1.2465427893007573e+39
8500.0 1.160949493863881e+39
8916.666666666668 1.0756976227355915e+39
9333.333333333334 9.914448230127776e+38
9750.0 9.119689638671571e+38
10166.666666666668 8.379346664509388e+38
10583.333333333334 7.694399902072528e+38
11000.0 7.063879464856864e+38
