#lamb flux
1000.0 1.9487284546108034e-08
1416.6666666666667 1.842532004424304e-05
1833.3333333333335 0.0004311198725034288
2250.0 0.00218535779147659
2666.666666666667 0.008676075304042786
3083.3333333333335 0.018858278325754138
3500.0 0.028283890438581753
3916.666666666667 0.03676531865428936
4333.333333333334 0.04296561859232102
4750.0 0.04736218257846162
5166.666666666667 0.050016904743279314
5583.333333333334 0.05088290501093165
6000.0 0.05020994088527408
6416.666666666667 0.0484669488278674
6833.333333333334 0.04612398711398624
7250.0 0.04352285616742428
7666.666666666667 0.04085688530784319
8083.333333333334 0.03820595036457975
8500.0 0.03558255610561774
8916.666666666668 0.03296962634117536
9333.333333333334 0.03038731764554496
9750.0 0.027951419932476334
10166.666666666668 0.02568230352777816
10583.333333333334 0.02358297390727459
11000.0 0.021650458414434755
