#lamb flux
1000.0 0.0007237416394197993
1416.6666666666667 0.03695241559949668
1833.3333333333335 0.21446726178194833
2250.0 0.5103692442275175
2666.666666666667 0.9489217593523288
3083.3333333333335 1.2788602450927409
3500.0 1.3483513437777772
3916.666666666667 1.3252606893795464
4333.333333333334 1.2422526419834357
4750.0 1.1362859639988818
5166.666666666667 1.0231317322101066
5583.333333333334 0.9102895473551283
6000.0 0.8030841808685041
6416.666666666667 0.705113848585275
6833.333333333334 0.6180597068893137
7250.0 0.5420315750763016
7666.666666666667 0.47617318252855667
8083.333333333334 0.4191995800116313
8500.0 0.3697524389516404
8916.666666666668 0.3265889649672613
9333.333333333334 0.2888031607057061
9750.0 0.25596128559954934
10166.666666666668 0.2274028652395299
10583.333333333334 0.20252745446899034
11000.0 0.18081763503284376
