#lamb flux
1000.0 1.972898177052596e-09
1416.6666666666667 4.756550681682209e-06
1833.3333333333335 0.0002526842934641809
2250.0 0.0025946537611989846
2666.666666666667 0.011507333962632576
3083.3333333333335 0.030456575070892458
3500.0 0.05391045345751832
3916.666666666667 0.07932828803023524
4333.333333333334 0.10297659679125948
4750.0 0.1224686774493525
5166.666666666667 0.13677733776524725
5583.333333333334 0.14587670297357605
6000.0 0.1503337140561181
6416.666666666667 0.1509775416038405
6833.333333333334 0.1486818276579926
7250.0 0.14424557579185693
7666.666666666667 0.138342573300297
8083.333333333334 0.13151135605786676
8500.0 0.12416570655433189
8916.666666666668 0.11661340362627737
9333.333333333334 0.10907839091902148
9750.0 0.10172164552760768
10166.666666666668 0.09464841758107014
10583.333333333334 0.08792444481023608
11000.0 0.08158668838032043
