#lamb flux
1000.0 1.5743747100215828e+36
1416.6666666666667 1.5506066689846686e+38
1833.3333333333335 1.3850169243044575e+39
2250.0 4.5201343511437634e+39
2666.666666666667 9.556620393018808e+39
3083.3333333333335 1.4527330715458752e+40
3500.0 1.6836436744165477e+40
3916.666666666667 1.778596087445635e+40
4333.333333333334 1.7679007431812105e+40
4750.0 1.6918060405829382e+40
5166.666666666667 1.5783556411099924e+40
5583.333333333334 1.446488109304818e+40
6000.0 1.30941336749863e+40
6416.666666666667 1.1758379868645024e+40
6833.333333333334 1.0508147210426495e+40
7250.0 9.367118520303562e+39
7666.666666666667 8.341506642577014e+39
8083.333333333334 7.427490000135185e+39
8500.0 6.616311851453059e+39
8916.666666666668 5.897406036885477e+39
9333.333333333334 5.261102143899341e+39
9750.0 4.70035285518933e+39
10166.666666666668 4.206499471390759e+39
10583.333333333334 3.771412573846556e+39
11000.0 3.3877840231619593e+39
