#lamb flux
1000.0 2.374907543605925e+35
1416.6666666666667 1.275248160833326e+37
1833.3333333333335 7.949252875775487e+37
2250.0 2.0325734121283604e+38
2666.666666666667 3.764303581036724e+38
3083.3333333333335 5.141920011541515e+38
3500.0 5.488503619804583e+38
3916.666666666667 5.441290537976733e+38
4333.333333333334 5.139113865175489e+38
4750.0 4.722458508260657e+38
5166.666666666667 4.26369617864684e+38
5583.333333333334 3.801817860295622e+38
6000.0 3.361659277752367e+38
6416.666666666667 2.9580968194614593e+38
6833.333333333334 2.5977133031262454e+38
7250.0 2.2811014335411097e+38
7666.666666666667 2.005311583817359e+38
8083.333333333334 1.7657814631529093e+38
8500.0 1.5575748721098527e+38
8916.666666666668 1.3760492639907535e+38
9333.333333333334 1.2175226402090153e+38
9750.0 1.0796684242286e+38
10166.666666666668 9.59704522335989e+37
10583.333333333334 8.551392349090312e+37
11000.0 7.638218693473871e+37
