#lamb flux
1000.0 4.4850612118838006e-08
1416.6666666666667 4.240646666366046e-05
1833.3333333333335 0.0009922362519325933
2250.0 0.005029671240982232
2666.666666666667 0.019968266345921876
3083.3333333333335 0.04340293407304979
3500.0 0.06509628349045143
3916.666666666667 0.0846165633024708
4333.333333333334 0.09888675301941896
4750.0 0.10900558643263693
5166.666666666667 0.1151155148742217
5583.333333333334 0.11710864234189865
6000.0 0.11555979376331159
6416.666666666667 0.11154824148633853
6833.333333333334 0.10615583974919864
7250.0 0.10016925321999154
7666.666666666667 0.09403343554563644
8083.333333333334 0.08793222351626068
8500.0 0.08189439725754827
8916.666666666668 0.0758806553695243
9333.333333333334 0.06993738885618382
9750.0 0.06433109192797352
10166.666666666668 0.05910864754487779
10583.333333333334 0.05427697290616586
11000.0 0.04982922634722751
