#lamb flux
1000.0 2.905853848472432e+35
1416.6666666666667 6.808179992588193e+37
1833.3333333333335 7.380548070775842e+38
2250.0 2.2931831392834676e+39
2666.666666666667 6.570305254646815e+39
3083.3333333333335 1.1225437581396371e+40
3500.0 1.401665344143712e+40
3916.666666666667 1.5785935330852274e+40
4333.333333333334 1.6441494474089408e+40
4750.0 1.6500248742629313e+40
5166.666666666667 1.6122021949013585e+40
5583.333333333334 1.5363137533187281e+40
6000.0 1.4338593370811862e+40
6416.666666666667 1.3193328734540432e+40
6833.333333333334 1.2044967099394375e+40
7250.0 1.0961642069953741e+40
7666.666666666667 9.96857464031883e+39
8083.333333333334 9.064064336645474e+39
8500.0 8.233821629942432e+39
8916.666666666668 7.460583078603902e+39
9333.333333333334 6.738942039135954e+39
9750.0 6.086746269655792e+39
10166.666666666668 5.500857890258724e+39
10583.333333333334 4.9756548573457675e+39
11000.0 4.505423906389583e+39
