#lamb flux
1000.0 5.6330612732440955e-05
1416.6666666666667 0.004799431636566207
1833.3333333333335 0.04030602085993682
2250.0 0.1278943089399761
2666.666666666667 0.25969999050324044
3083.3333333333335 0.3858596583250472
3500.0 0.4399031024941583
3916.666666666667 0.45862478953753943
4333.333333333334 0.4512148439217637
4750.0 0.4279486961858443
5166.666666666667 0.39613867090611316
5583.333333333334 0.3606624676407212
6000.0 0.32472080393318364
6416.666666666667 0.29027820965608264
6833.333333333334 0.2583956314093871
7250.0 0.22951960983741806
7666.666666666667 0.20371598462629517
8083.333333333334 0.18083876709940458
8500.0 0.16064068603072273
8916.666666666668 0.1428395893548479
9333.333333333334 0.12716900179537569
9750.0 0.11340868393470672
10166.666666666668 0.1013267594789251
10583.333333333334 0.09071120054995588
11000.0 0.08137365445738538
