#lamb flux
1000.0 6.629775525297125e+33
1416.6666666666667 1.5440607355073203e+36
1833.3333333333335 1.991015655405217e+37
2250.0 7.689805043043561e+37
2666.666666666667 2.0656084583569063e+38
3083.3333333333335 3.5974270668635585e+38
3500.0 4.5984192428733524e+38
3916.666666666667 5.255476728924223e+38
4333.333333333334 5.5542788057655344e+38
4750.0 5.607237827204664e+38
5166.666666666667 5.4819097576132136e+38
5583.333333333334 5.2256800498346385e+38
6000.0 4.88665613926563e+38
6416.666666666667 4.509087201464184e+38
6833.333333333334 4.125984453517727e+38
7250.0 3.7574037689299194e+38
7666.666666666667 3.412929162007874e+38
8083.333333333334 3.0953361521249425e+38
8500.0 2.803728619030122e+38
8916.666666666668 2.5356751359869997e+38
9333.333333333334 2.2899001431311605e+38
9750.0 2.0682929852618068e+38
10166.666666666668 1.8693345848653346e+38
10583.333333333334 1.6910555351674229e+38
11000.0 1.5314772874842801e+38
