#lamb flux
1000.0 1.8601200668448642e+36
1416.6666666666667 9.600418229448414e+37
1833.3333333333335 6.2042035002823475e+38
2250.0 1.681162915888747e+39
2666.666666666667 3.021495822590214e+39
3083.3333333333335 4.125973968404451e+39
3500.0 4.4155689476711964e+39
3916.666666666667 4.3810932139189714e+39
4333.333333333334 4.144135803945281e+39
4750.0 3.805338941721326e+39
5166.666666666667 3.4286496171424136e+39
5583.333333333334 3.05178831050082e+39
6000.0 2.69579848629693e+39
6416.666666666667 2.3710417719999865e+39
6833.333333333334 2.0811886537572372e+39
7250.0 1.8259809580059152e+39
7666.666666666667 1.6030831746535032e+39
8083.333333333334 1.409246764388519e+39
8500.0 1.2409899874342099e+39
8916.666666666668 1.0949611498062095e+39
9333.333333333334 9.681670383161702e+38
9750.0 8.580828761305718e+38
10166.666666666668 7.62382339351486e+38
10583.333333333334 6.790387921007584e+38
11000.0 6.063095108826326e+38
