#lamb flux
1000.0 0.007646653746205598
1416.6666666666667 0.17987778334848661
1833.3333333333335 0.7607692239863945
2250.0 1.583601304860372
2666.666666666667 2.363303584598439
3083.3333333333335 2.825553414264934
3500.0 2.7364388788756315
3916.666666666667 2.5123341853402046
4333.333333333334 2.2344860688058277
4750.0 1.951627691491848
5166.666666666667 1.6872302228582727
5583.333333333334 1.4508056215049523
6000.0 1.2447442570222238
6416.666666666667 1.067879302406943
6833.333333333334 0.9174115434262343
7250.0 0.7899755774974675
7666.666666666667 0.6822102469903999
8083.333333333334 0.5910345676715973
8500.0 0.513754256540695
8916.666666666668 0.4480771696251719
9333.333333333334 0.392100551624513
9750.0 0.3442776322926698
10166.666666666668 0.3032939129767667
10583.333333333334 0.26805665516609345
11000.0 0.23766009427906207
