#lamb flux
1000.0 4.788108173775163e+35
1416.6666666666667 2.5710584645357397e+37
1833.3333333333335 1.6026679763758437e+38
2250.0 4.097920104137227e+38
2666.666666666667 7.589302915584918e+38
3083.3333333333335 1.0366748508777015e+39
3500.0 1.1065504050688017e+39
3916.666666666667 1.0970316621763607e+39
4333.333333333334 1.0361090969649588e+39
4750.0 9.521062091278166e+38
5166.666666666667 8.596140333309913e+38
5583.333333333334 7.664936355562998e+38
6000.0 6.777522059159399e+38
6416.666666666667 5.963890088359561e+38
6833.333333333334 5.237312220137168e+38
7250.0 4.598983420872394e+38
7666.666666666667 4.042956876907853e+38
8083.333333333334 3.560034444113936e+38
8500.0 3.1402641321743563e+38
8916.666666666668 2.774285991120125e+38
9333.333333333334 2.45467665511295e+38
9750.0 2.1767454572849308e+38
10166.666666666668 1.934883351639405e+38
10583.333333333334 1.7240667626862294e+38
11000.0 1.539959627387208e+38
