#lamb flux
1000.0 5.057158319973543e-06
1416.6666666666667 0.0009880701122245475
1833.3333333333335 0.011442281724754443
2250.0 0.04100653002688916
2666.666666666667 0.10612219211356479
3083.3333333333335 0.1790894912437812
3500.0 0.2233835765751474
3916.666666666667 0.25051795083859435
4333.333333333334 0.2607302758357814
4750.0 0.2600436786058941
5166.666666666667 0.2517602140978853
5583.333333333334 0.2380337477593368
6000.0 0.22102219756037694
6416.666666666667 0.2026951492079198
6833.333333333334 0.184491469306831
7250.0 0.16724843338440762
7666.666666666667 0.15132728474736723
8083.333333333334 0.13678894669108344
8500.0 0.12354045425203848
8916.666666666668 0.11143214944895448
9333.333333333334 0.10038105855813965
9750.0 0.09046163598779082
10166.666666666668 0.08159171995734893
10583.333333333334 0.07367189858801741
11000.0 0.06660522225300432
