#lamb flux
1000.0 0.0006440419165041354
1416.6666666666667 0.054582062848115565
1833.3333333333335 0.32332860421904414
2250.0 0.6662286672323389
2666.666666666667 1.5296220004719396
3083.3333333333335 2.1842729770072715
3500.0 2.375671320118131
3916.666666666667 2.405206776271856
4333.333333333334 2.2992640804209064
4750.0 2.1558075065841957
5166.666666666667 1.9938223783382811
5583.333333333334 1.814683172458287
6000.0 1.6282945513839417
6416.666666666667 1.448130163230564
6833.333333333334 1.2838613933503409
7250.0 1.1393336461062027
7666.666666666667 1.0139755286963776
8083.333333333334 0.9049240969855281
8500.0 0.8086472008935243
8916.666666666668 0.7218861891251325
9333.333333333334 0.6431345436678936
9750.0 0.5736742594807148
10166.666666666668 0.5125995793966862
10583.333333333334 0.45888095316673266
11000.0 0.41159344515659324
