#lamb flux
1000.0 3.8896882023685557e+34
1416.6666666666667 7.599692189689849e+36
1833.3333333333335 8.800774153573966e+37
2250.0 3.153996888641943e+38
2666.666666666667 8.162335694402027e+38
3083.3333333333335 1.3774579263375063e+39
3500.0 1.7181436835297443e+39
3916.666666666667 1.92684637538404e+39
4333.333333333334 2.005393965842944e+39
4750.0 2.0001130373532744e+39
5166.666666666667 1.9364011815383492e+39
5583.333333333334 1.8308247475034736e+39
6000.0 1.6999812541298255e+39
6416.666666666667 1.5590196720507346e+39
6833.333333333334 1.4190069722875028e+39
7250.0 1.286383017969975e+39
7666.666666666667 1.1639262940484347e+39
8083.333333333334 1.0521053890231226e+39
8500.0 9.5020526749481e+38
8916.666666666668 8.570748425341678e+38
9333.333333333334 7.720759258668129e+38
9750.0 6.957811798751628e+38
10166.666666666668 6.275586613051093e+38
10583.333333333334 5.666437486287815e+38
11000.0 5.122907586073001e+38
