#lamb flux
1000.0 8.51703026414893e+35
1416.6666666666667 4.841264693622447e+37
1833.3333333333335 3.314965198946441e+38
2250.0 9.345300612921349e+38
2666.666666666667 1.7149629024715715e+39
3083.3333333333335 2.3821409133039553e+39
3500.0 2.5830642802259206e+39
3916.666666666667 2.5889603250983405e+39
4333.333333333334 2.4689560806458088e+39
4750.0 2.2817453594557227e+39
5166.666666666667 2.0665537644918194e+39
5583.333333333334 1.8473852385642104e+39
6000.0 1.637955666992208e+39
6416.666666666667 1.4452645517593617e+39
6833.333333333334 1.2720977610803015e+39
7250.0 1.1187526848006173e+39
7666.666666666667 9.841781433986667e+38
8083.333333333334 8.666878033791761e+38
8500.0 7.643809894502017e+38
8916.666666666668 6.7537440667261124e+38
9333.333333333334 5.9794042281255555e+38
9750.0 5.305748596422821e+38
10166.666666666668 4.719037505418221e+38
10583.333333333334 4.207243516416041e+38
11000.0 3.759968404394199e+38
