#lamb flux
1000.0 4.232393498042229e-07
1416.6666666666667 0.00030561658803571857
1833.3333333333335 0.005484415943827294
2250.0 0.021878417249416266
2666.666666666667 0.08501577706997512
3083.3333333333335 0.1740285517172385
3500.0 0.24787922341465018
3916.666666666667 0.31016651468959805
4333.333333333334 0.3508628588276356
4750.0 0.3780922252449755
5166.666666666667 0.39294354213780675
5583.333333333334 0.3944137817272057
6000.0 0.3843338818653454
6416.666666666667 0.36670647827201874
6833.333333333334 0.34551450246078946
7250.0 0.32347881669404
7666.666666666667 0.30192860617577977
8083.333333333334 0.281188069887045
8500.0 0.2610336032773717
8916.666666666668 0.24105004284993392
9333.333333333334 0.22127862550921687
9750.0 0.20277415414386918
10166.666666666668 0.18566781692417453
10583.333333333334 0.16994676674347012
11000.0 0.1555601013770745
