#lamb flux
1000.0 4.078255918230565e-08
1416.6666666666667 1.3108562329870238e-05
1833.3333333333335 0.00021318243474655716
2250.0 0.0009863737033717678
2666.666666666667 0.0028019229384083954
3083.3333333333335 0.005191064848647362
3500.0 0.00697436727673594
3916.666666666667 0.00827849210320257
4333.333333333334 0.009027208473511511
4750.0 0.00933152326328988
5166.666666666667 0.009291212858492246
5583.333333333334 0.008993782576681366
6000.0 0.00852522432007635
6416.666666666667 0.00796175998864807
6833.333333333334 0.007361284185724818
7250.0 0.006761874514670794
7666.666666666667 0.006185310308471264
8083.333333333334 0.005642075799775033
8500.0 0.005135780232842943
8916.666666666668 0.004666338901262917
9333.333333333334 0.004233618336139012
9750.0 0.003840199148537846
10166.666666666668 0.003484278450289217
10583.333333333334 0.003163188721248175
11000.0 0.0028740429511308857
