#lamb flux
1000.0 2.422333542460624e+28
1416.6666666666667 1.9606837476227783e+32
1833.3333333333335 2.0164858922686e+34
2250.0 3.1386126999268365e+35
2666.666666666667 1.8527708385620852e+36
3083.3333333333335 6.041488177161612e+36
3500.0 1.2535931990295728e+37
3916.666666666667 2.0903117638571547e+37
4333.333333333334 3.0014024195408795e+37
4750.0 3.878438338598102e+37
5166.666666666667 4.642928377626941e+37
5583.333333333334 5.251865425084919e+37
6000.0 5.692226134118181e+37
6416.666666666667 5.971542427227964e+37
6833.333333333334 6.108917601737271e+37
7250.0 6.128272041281286e+37
7666.666666666667 6.054004457188299e+37
8083.333333333334 5.908583033336448e+37
8500.0 5.711453483673471e+37
8916.666666666668 5.47874961149292e+37
9333.333333333334 5.223530932080735e+37
9750.0 4.956251195895327e+37
10166.666666666668 4.684770185765042e+37
10583.333333333334 4.414923537652742e+37
11000.0 4.150932177682009e+37
