#lamb flux
1000.0 1.7440215274895238e-07
1416.6666666666667 6.739961231762298e-05
1833.3333333333335 0.0011436969671015204
2250.0 0.00524539110451224
2666.666666666667 0.015887649924470153
3083.3333333333335 0.030180425926757928
3500.0 0.04120536810735699
3916.666666666667 0.04958864822729016
4333.333333333334 0.05462258911491072
4750.0 0.05704399678217549
5166.666666666667 0.05736242341092906
5583.333333333334 0.055992440782455265
6000.0 0.05342506858751084
6416.666666666667 0.05015688629879855
6833.333333333334 0.046588257907650414
7250.0 0.042985744779757744
7666.666666666667 0.03949780963430931
8083.333333333334 0.036190364454962175
8500.0 0.03308076115993909
8916.666666666668 0.03016262898466796
9333.333333333334 0.027438870284313428
9750.0 0.02494757802223528
10166.666666666668 0.022683166503025952
10583.333333333334 0.020632050845193203
11000.0 0.018778423529570126
