#lamb flux
1000.0 3.0466780952812372e-06
1416.6666666666667 0.0004965056623925104
1833.3333333333335 0.005544706423148162
2250.0 0.0201820956495677
2666.666666666667 0.04893636263075981
3083.3333333333335 0.08062692884835009
3500.0 0.09906696171740062
3916.666666666667 0.10966005942170234
4333.333333333334 0.11305819029170183
4750.0 0.11165798199831198
5166.666666666667 0.1070604855765397
5583.333333333334 0.10039927457724607
6000.0 0.09263304480699501
6416.666666666667 0.0845246591071484
6833.333333333334 0.07659386321271666
7250.0 0.06913534457482512
7666.666666666667 0.06227729664825944
8083.333333333334 0.05604407892018623
8500.0 0.05040505985008299
8916.666666666668 0.04530654340410667
9333.333333333334 0.0407066900605799
9750.0 0.03660020782343807
10166.666666666668 0.032943724957093565
10583.333333333334 0.029690961014614624
11000.0 0.026798038077449488
