#lamb flux
1000.0 2.5839363984136684e+40
1416.6666666666667 3.155336755586435e+40
1833.3333333333335 2.6839796678973566e+40
2250.0 2.062033605087144e+40
2666.666666666667 1.605039817721204e+40
3083.3333333333335 1.2031458115248319e+40
3500.0 8.240993129789041e+39
3916.666666666667 5.805558054577782e+39
4333.333333333334 4.1917064686241604e+39
4750.0 3.0974574908520986e+39
5166.666666666667 2.3358991233084174e+39
5583.333333333334 1.7927269592468925e+39
6000.0 1.3972238846451493e+39
6416.666666666667 1.10418727430809e+39
6833.333333333334 8.837201439703493e+38
7250.0 7.155027417742847e+38
7666.666666666667 5.854442266125877e+38
8083.333333333334 4.836222149069613e+38
8500.0 4.029595412510997e+38
8916.666666666668 3.3834893825318793e+38
9333.333333333334 2.860917279697881e+38
9750.0 2.4351258720117787e+38
10166.666666666668 2.085479737668863e+38
10583.333333333334 1.7962482661997753e+38
11000.0 1.5553555280118409e+38
