#lamb flux
1000.0 5.4563967285055105e+35
1416.6666666666667 1.0440143295983935e+38
1833.3333333333335 1.0134208098630757e+39
2250.0 2.937279644532454e+39
2666.666666666667 8.023467462559478e+39
3083.3333333333335 1.3240392160821792e+40
3500.0 1.6103357533606167e+40
3916.666666666667 1.7767202661249177e+40
4333.333333333334 1.820351969646122e+40
4750.0 1.8025667684469102e+40
5166.666666666667 1.7418433303207893e+40
5583.333333333334 1.6445006751826969e+40
6000.0 1.522778336655276e+40
6416.666666666667 1.3917131004216184e+40
6833.333333333334 1.2631725190062376e+40
7250.0 1.1437195522204044e+40
7666.666666666667 1.0354598776549525e+40
8083.333333333334 9.377882152107064e+39
8500.0 8.488966974158494e+39
8916.666666666668 7.667596718131385e+39
9333.333333333334 6.906365591347679e+39
9750.0 6.222050205419867e+39
10166.666666666668 5.610124079506305e+39
10583.333333333334 5.06379401556231e+39
11000.0 4.576400928516249e+39
