#lamb flux
1000.0 8.167460913219075e-08
1416.6666666666667 7.722373064284232e-05
1833.3333333333335 0.0018068985954674658
2250.0 0.00915921574452945
2666.666666666667 0.036362945159574354
3083.3333333333335 0.07903833433117538
3500.0 0.11854271901470424
3916.666666666667 0.1540898642704551
4333.333333333334 0.18007640296664418
4750.0 0.19850316962277206
5166.666666666667 0.2096295733376166
5583.333333333334 0.21325913153499007
6000.0 0.21043862148429415
6416.666666666667 0.20313343770292255
6833.333333333334 0.1933136764252462
7250.0 0.18241188285521687
7666.666666666667 0.17123833389825951
8083.333333333334 0.16012780308963798
8500.0 0.14913270009345636
8916.666666666668 0.13818145561936054
9333.333333333334 0.12735854938656824
9750.0 0.11714927712340875
10166.666666666668 0.10763901441899418
10583.333333333334 0.0988403577468154
11000.0 0.09074084818476515
