#lamb flux
1000.0 6.279392433253424e+32
1416.6666666666667 4.1720832586084226e+35
1833.3333333333335 7.788427639877608e+36
2250.0 3.3552642344273685e+37
2666.666666666667 1.2403207310517641e+38
3083.3333333333335 2.5274165470761923e+38
3500.0 3.602976233628576e+38
3916.666666666667 4.503549593938314e+38
4333.333333333334 5.0972242478466815e+38
4750.0 5.479557744720177e+38
5166.666666666667 5.671720831975245e+38
5583.333333333334 5.6732530565858334e+38
6000.0 5.516435188303458e+38
6416.666666666667 5.2567473128162435e+38
6833.333333333334 4.947134966817552e+38
7250.0 4.6239705531654835e+38
7666.666666666667 4.3059854713797305e+38
8083.333333333334 3.999155803057025e+38
8500.0 3.7023489952938315e+38
8916.666666666668 3.411694498321272e+38
9333.333333333334 3.1281146072463058e+38
9750.0 2.863711739531954e+38
10166.666666666668 2.619872165951571e+38
10583.333333333334 2.3962279412933138e+38
11000.0 2.1919136621681683e+38
