#lamb flux
1000.0 4.952342767152019e+35
1416.6666666666667 4.663966742805699e+37
1833.3333333333335 4.124407800197068e+38
2250.0 1.3494587248928975e+39
2666.666666666667 2.808616869578211e+39
3083.3333333333335 4.2437772552082576e+39
3500.0 4.899417348707285e+39
3916.666666666667 5.1586472897408176e+39
4333.333333333334 5.115271654995131e+39
4750.0 4.883091667246437e+39
5166.666666666667 4.544778650797852e+39
5583.333333333334 4.15669071251469e+39
6000.0 3.756859733965149e+39
6416.666666666667 3.369379116877107e+39
6833.333333333334 3.0078077780711156e+39
7250.0 2.6783419635145236e+39
7666.666666666667 2.382505366542365e+39
8083.333333333334 2.1191523056998686e+39
8500.0 1.8858063541424867e+39
8916.666666666668 1.6794781740919078e+39
9333.333333333334 1.4973083953893533e+39
9750.0 1.3369661988035021e+39
10166.666666666668 1.1958900938601798e+39
10583.333333333334 1.0717081185715457e+39
11000.0 9.62296624991102e+38
