#lamb flux
1000.0 1.393554454723251e+37
1416.6666666666667 4.432525015783739e+38
1833.3333333333335 2.0376046902709087e+39
2250.0 4.252487917953312e+39
2666.666666666667 7.012974472142674e+39
3083.3333333333335 8.746042683558993e+39
3500.0 8.708831264323721e+39
3916.666666666667 8.183943251342232e+39
4333.333333333334 7.405442013745401e+39
4750.0 6.577298004094526e+39
5166.666666666667 5.776934477651168e+39
5583.333333333334 5.034051038517562e+39
6000.0 4.3647959325140107e+39
6416.666666666667 3.776517972008383e+39
6833.333333333334 3.268538857461928e+39
7250.0 2.834468222284624e+39
7666.666666666667 2.4650479406830802e+39
8083.333333333334 2.150376705152165e+39
8500.0 1.881227990784878e+39
8916.666666666668 1.649639659505509e+39
9333.333333333334 1.4496214478097064e+39
9750.0 1.2775259206515926e+39
10166.666666666668 1.1291886577250759e+39
10583.333333333334 1.0009942208850392e+39
11000.0 8.899017260137566e+38
