#lamb flux
1000.0 1.7759122328889435e+31
1416.6666666666667 8.027652262831863e+34
1833.3333333333335 4.578244122678964e+36
2250.0 4.1612735543767045e+37
2666.666666666667 2.3585257278965663e+38
3083.3333333333335 6.740879624690138e+38
3500.0 1.2476263245687093e+39
3916.666666666667 1.9117145528145852e+39
4333.333333333334 2.5521627117123976e+39
4750.0 3.1342620812524464e+39
5166.666666666667 3.618812379642933e+39
5583.333333333334 3.969741041443297e+39
6000.0 4.17943184151862e+39
6416.666666666667 4.2673686662133076e+39
6833.333333333334 4.264260567700784e+39
7250.0 4.1985296087011834e+39
7666.666666666667 4.090454539504961e+39
8083.333333333334 3.951969947730722e+39
8500.0 3.7889251933927085e+39
8916.666666666668 3.603757019718864e+39
9333.333333333334 3.401782160034431e+39
9750.0 3.1975839321440335e+39
10166.666666666668 2.9964009757171845e+39
10583.333333333334 2.801317085831937e+39
11000.0 2.6143767436836434e+39
