#lamb flux
1000.0 0.000652772139715883
1416.6666666666667 0.02980093964040409
1833.3333333333335 0.1809325626020108
2250.0 0.4726985307597162
2666.666666666667 0.8240865543547564
3083.3333333333335 1.1025816618014133
3500.0 1.16218131269658
3916.666666666667 1.1394552052508247
4333.333333333334 1.067727377031303
4750.0 0.9728246039970094
5166.666666666667 0.8708105698423418
5583.333333333334 0.7708629133803172
6000.0 0.6778213509455672
6416.666666666667 0.5938450565696923
6833.333333333334 0.5194941649930607
7250.0 0.45443881746892856
7666.666666666667 0.397908889569581
8083.333333333334 0.34896404432610684
8500.0 0.30664511140824197
8916.666666666668 0.27005140680928796
9333.333333333334 0.23838405476994767
9750.0 0.21096359513916457
10166.666666666668 0.18718177263821895
10583.333333333334 0.16651405034735609
11000.0 0.1485124000046661
