#lamb flux
1000.0 0.0009400816967801914
1416.6666666666667 0.03271798814416078
1833.3333333333335 0.1681194039124132
2250.0 0.39093928763627395
2666.666666666667 0.6438348038544242
3083.3333333333335 0.8208469277650391
3500.0 0.8335488769223175
3916.666666666667 0.7942409541687745
4333.333333333334 0.7273234015541772
4750.0 0.6508591349579608
5166.666666666667 0.5743042027554631
5583.333333333334 0.5023394658971606
6000.0 0.4371853539360934
6416.666666666667 0.37962091308334245
6833.333333333334 0.3295519888392373
7250.0 0.2864037100564825
7666.666666666667 0.24938990846556452
8083.333333333334 0.2176802830510385
8500.0 0.19049115003334402
8916.666666666668 0.16712604984369128
9333.333333333334 0.14700512951503264
9750.0 0.129676301674931
10166.666666666668 0.1147207367693231
10583.333333333334 0.10178078682796415
11000.0 0.09055487563814078
