#lamb flux
1000.0 0.00010820419952367185
1416.6666666666667 0.010522402759665688
1833.3333333333335 0.08678306792553649
2250.0 0.25760398819568453
2666.666666666667 0.5573280970306485
3083.3333333333335 0.8384248342812322
3500.0 0.9605578789840696
3916.666666666667 1.0071770184415398
4333.333333333334 0.994016522197761
4750.0 0.9480867027517017
5166.666666666667 0.8836766197801185
5583.333333333334 0.8092688697875327
6000.0 0.7316475219265144
6416.666666666667 0.6559845151303882
6833.333333333334 0.5854888421708551
7250.0 0.5216183712179382
7666.666666666667 0.46461736260263975
8083.333333333334 0.4140514451278267
8500.0 0.3691975406861852
8916.666666666668 0.3292789521127365
9333.333333333334 0.29373252539593153
9750.0 0.26238827960093986
10166.666666666668 0.23478361380293472
10583.333333333334 0.21046512677214957
11000.0 0.18902469924588566
