#lamb flux
1000.0 3.718170582515165e-05
1416.6666666666667 0.0021134887874905313
1833.3333333333335 0.014471718078385664
2250.0 0.040797579374572374
2666.666666666667 0.07486793420137977
3083.3333333333335 0.10399406826738143
3500.0 0.11276552180293846
3916.666666666667 0.11302291786609561
4333.333333333334 0.10778404659686279
4750.0 0.09961122843522645
5166.666666666667 0.09021688518195331
5583.333333333334 0.08064892615816704
6000.0 0.07150612816429862
6416.666666666667 0.06309405947426912
6833.333333333334 0.0555343391609378
7250.0 0.048839949991080364
7666.666666666667 0.04296500196955655
8083.333333333334 0.0378358769994479
8500.0 0.033369599739136
8916.666666666668 0.029483953598756725
9333.333333333334 0.02610351755537038
9750.0 0.023162625630768225
10166.666666666668 0.020601296327770063
10583.333333333334 0.01836702300103774
11000.0 0.01641441145425116
