#lamb flux
1000.0 0.0013646054412931052
1416.6666666666667 0.043404459256724995
1833.3333333333335 0.19952764946671753
2250.0 0.4164148829781253
2666.666666666667 0.6867290396797626
3083.3333333333335 0.8564356703331361
3500.0 0.8527918295779662
3916.666666666667 0.8013934047689184
4333.333333333334 0.7251605011118434
4750.0 0.6440664456973888
5166.666666666667 0.5656927287970298
5583.333333333334 0.4929476143271702
6000.0 0.42741238129983883
6416.666666666667 0.3698066448911951
6833.333333333334 0.32006398421339555
7250.0 0.27755863764004346
7666.666666666667 0.2413840249660371
8083.333333333334 0.21057058392908912
8500.0 0.18421482876661271
8916.666666666668 0.16153708582426188
9333.333333333334 0.14195077262977582
9750.0 0.1250987226803675
10166.666666666668 0.11057314490692839
10583.333333333334 0.09802000602796296
11000.0 0.08714153461449498
