#lamb flux
1000.0 8.767520172234836e-07
1416.6666666666667 0.00022705458678381248
1833.3333333333335 0.0033790275902478594
2250.0 0.015051232052247981
2666.666666666667 0.04021041441070277
3083.3333333333335 0.0720209896349739
3500.0 0.09444852140037029
3916.666666666667 0.109937942676276
4333.333333333334 0.11807046926800972
4750.0 0.12042303867455205
5166.666666666667 0.11848957648204002
5583.333333333334 0.11355585021401123
6000.0 0.10675766397239154
6416.666666666667 0.0990184345930274
6833.333333333334 0.09100401356222385
7250.0 0.08313990738456106
7666.666666666667 0.0756653964158755
8083.333333333334 0.06869335501390514
8500.0 0.062259445495334804
8916.666666666668 0.05635670969246151
9333.333333333334 0.050970673070402366
9750.0 0.046104977227533275
10166.666666666668 0.04172627978720796
10583.333333333334 0.037794324191874486
11000.0 0.03426797278145842
