#lamb flux
1000.0 8.483714153871356e-07
1416.6666666666667 0.0004042313935442736
1833.3333333333335 0.007932289178892585
2250.0 0.040633556386959556
2666.666666666667 0.1278824227226739
3083.3333333333335 0.2527407383912495
3500.0 0.3561736772348026
3916.666666666667 0.43914200291484773
4333.333333333334 0.4934719111517538
4750.0 0.523286884174434
5166.666666666667 0.5325384094880554
5583.333333333334 0.5250734827173478
6000.0 0.5054569578799529
6416.666666666667 0.47826709066053374
6833.333333333334 0.447254072744984
7250.0 0.41502157716538157
7666.666666666667 0.38313913968202423
8083.333333333334 0.35242519948777384
8500.0 0.32322844298225745
8916.666666666668 0.2956410723204124
9333.333333333334 0.26977327884978064
9750.0 0.24597175744493044
10166.666666666668 0.22422104346168992
10583.333333333334 0.2044258249839221
11000.0 0.18646150410977785
