#lamb flux
1000.0 6.60930346950436e-08
1416.6666666666667 2.212480931454376e-05
1833.3333333333335 0.0002752951682986214
2250.0 0.0009009698047678335
2666.666666666667 0.00286550177627875
3083.3333333333335 0.005171253844248966
3500.0 0.006711641559503143
3916.666666666667 0.0077999194147591044
4333.333333333334 0.00832294948186116
4750.0 0.00853573156175763
5166.666666666667 0.008503010131115098
5583.333333333334 0.008235837894821588
6000.0 0.0077895534696057365
6416.666666666667 0.007246925605291382
6833.333333333334 0.006680018396990393
7250.0 0.006132974017071846
7666.666666666667 0.005623883918453744
8083.333333333334 0.005153782877740742
8500.0 0.004715349565390512
8916.666666666668 0.004299011370946299
9333.333333333334 0.0039029745181336254
9750.0 0.003541236788241718
10166.666666666668 0.003213469422663148
10583.333333333334 0.002917438115776209
11000.0 0.002650633563749399
