#lamb flux
1000.0 1.3206663797361717e+34
1416.6666666666667 2.1522402930786083e+36
1833.3333333333335 2.4035054342959806e+37
2250.0 8.748484205891574e+37
2666.666666666667 2.121281174178535e+38
3083.3333333333335 3.494995890649458e+38
3500.0 4.294329810734541e+38
3916.666666666667 4.7535167532933756e+38
4333.333333333334 4.900818078001843e+38
4750.0 4.840122200069355e+38
5166.666666666667 4.6408310782210684e+38
5583.333333333334 4.352082574441781e+38
6000.0 4.015433994115477e+38
6416.666666666667 3.663953724365074e+38
6833.333333333334 3.3201715729606324e+38
7250.0 2.996861577626527e+38
7666.666666666667 2.699580636090148e+38
8083.333333333334 2.4293846772918854e+38
8500.0 2.1849458928954983e+38
8916.666666666668 1.9639366806928114e+38
9333.333333333334 1.764543391591422e+38
9750.0 1.5865366294731426e+38
10166.666666666668 1.4280363272212639e+38
10583.333333333334 1.2870363316292296e+38
11000.0 1.1616346336881501e+38
