#lamb flux
1000.0 3.7082924528429577e+36
1416.6666666666667 1.91391723034235e+38
1833.3333333333335 1.2368556969025857e+39
2250.0 3.351527605185307e+39
2666.666666666667 6.023584366902208e+39
3083.3333333333335 8.225446518413798e+39
3500.0 8.802776388209589e+39
3916.666666666667 8.734046360746119e+39
4333.333333333334 8.261653534759832e+39
4750.0 7.586235926173412e+39
5166.666666666667 6.835276778804033e+39
5583.333333333334 6.083974771962066e+39
6000.0 5.37428167100899e+39
6416.666666666667 4.7268541774278086e+39
6833.333333333334 4.149009687724645e+39
7250.0 3.640233513040757e+39
7666.666666666667 3.195869634335227e+39
8083.333333333334 2.8094418385795234e+39
8500.0 2.474009009677419e+39
8916.666666666668 2.182889287824266e+39
9333.333333333334 1.9301154722603196e+39
9750.0 1.7106542261361242e+39
10166.666666666668 1.5198678437963755e+39
10583.333333333334 1.3537160707082736e+39
11000.0 1.2087246535147927e+39
