#lamb flux
1000.0 1.410958193114015e-07
1416.6666666666667 3.2860918701045584e-05
1833.3333333333335 0.00042373076447205357
2250.0 0.0016365551725743418
2666.666666666667 0.0043960571017276915
3083.3333333333335 0.007656095104206074
3500.0 0.009786420794110557
3916.666666666667 0.011184779818112093
4333.333333333334 0.01182069461919404
4750.0 0.011933402756767814
5166.666666666667 0.011666677788565675
5583.333333333334 0.01112136610473881
6000.0 0.010399850628907586
6416.666666666667 0.009596303081598387
6833.333333333334 0.008780978401362969
7250.0 0.007996559781519228
7666.666666666667 0.007263444056708004
8083.333333333334 0.006587538126469169
8500.0 0.0059669348550251255
8916.666666666668 0.005396459645646916
9333.333333333334 0.004873397833811373
9750.0 0.004401770349810758
10166.666666666668 0.003978344271420748
10583.333333333334 0.0035989282793226214
11000.0 0.003259311598256762
