#lamb flux
1000.0 5.495280642411732e+33
1416.6666666666667 8.955452036824117e+35
1833.3333333333335 1.0000963975214274e+37
2250.0 3.640236220496861e+37
2666.666666666667 8.826631428222204e+37
3083.3333333333335 1.4542645711198677e+38
3500.0 1.7868666790605677e+38
3916.666666666667 1.9779339429365427e+38
4333.333333333334 2.0392258884795005e+38
4750.0 2.013970389574227e+38
5166.666666666667 1.9310455373253054e+38
5583.333333333334 1.8108975508473982e+38
6000.0 1.6708183866354576e+38
6416.666666666667 1.5245677701145085e+38
6833.333333333334 1.3815203335471533e+38
7250.0 1.246991342265293e+38
7666.666666666667 1.1232930162952513e+38
8083.333333333334 1.0108647266965881e+38
8500.0 9.091539736435372e+37
8916.666666666668 8.171922440010583e+37
9333.333333333334 7.342248800522188e+37
9750.0 6.601564302835206e+37
10166.666666666668 5.9420460049929015e+37
10583.333333333334 5.355346321979972e+37
11000.0 4.83355101182841e+37
