#lamb flux
1000.0 4.984164161256443e+35
1416.6666666666667 3.9229919456501805e+37
1833.3333333333335 2.7993462915902103e+38
2250.0 7.450255134855543e+38
2666.666666666667 1.549842972353211e+39
3083.3333333333335 2.241286621794321e+39
3500.0 2.4886176782170368e+39
3916.666666666667 2.5480780512293376e+39
4333.333333333334 2.4663869321613117e+39
4750.0 2.317886448233529e+39
5166.666666666667 2.1357404699471228e+39
5583.333333333334 1.937246793491549e+39
6000.0 1.73680398024995e+39
6416.666666666667 1.5457565819333503e+39
6833.333333333334 1.3709258678735552e+39
7250.0 1.2149171113231083e+39
7666.666666666667 1.077453698707909e+39
8083.333333333334 9.567444627091163e+38
8500.0 8.504650117215284e+38
8916.666666666668 7.563268451917723e+38
9333.333333333334 6.727700241960536e+38
9750.0 5.9942221388967e+38
10166.666666666668 5.3509418845143125e+38
10583.333333333334 4.7863497966136655e+38
11000.0 4.290243534080905e+38
