#lamb flux
1000.0 4.814762345482026e+35
1416.6666666666667 9.591035675642717e+37
1833.3333333333335 9.516745103733101e+38
2250.0 2.7967123056816855e+39
2666.666666666667 7.712337180516295e+39
3083.3333333333335 1.2815099405566853e+40
3500.0 1.566779405725196e+40
3916.666666666667 1.735732992583327e+40
4333.333333333334 1.784168335350891e+40
4750.0 1.7714365416626145e+40
5166.666666666667 1.7155284070706598e+40
5583.333333333334 1.6226441232765055e+40
6000.0 1.5048903385550985e+40
6416.666666666667 1.377208464053162e+40
6833.333333333334 1.2514564291357634e+40
7250.0 1.1342562738812126e+40
7666.666666666667 1.0278034277368414e+40
8083.333333333334 9.315840025042835e+39
8500.0 8.438687197207598e+39
8916.666666666668 7.626935781592814e+39
9333.333333333334 6.873592410174533e+39
9750.0 6.19565897529563e+39
10166.666666666668 5.588892881619168e+39
10583.333333333334 5.046738990947447e+39
11000.0 4.562729768158604e+39
