#lamb flux
1000.0 7.618419478272364e+27
1416.6666666666667 2.280311261240821e+32
1833.3333333333335 4.0407421314602363e+34
2250.0 7.985572682515467e+35
2666.666666666667 6.818375404315337e+36
3083.3333333333335 2.7311813807911267e+37
3500.0 6.571519788294295e+37
3916.666666666667 1.2353213957902447e+38
4333.333333333334 1.9483130570971364e+38
4750.0 2.735297875341813e+38
5166.666666666667 3.5238530031571734e+38
5583.333333333334 4.242040881518596e+38
6000.0 4.841708986259071e+38
6416.666666666667 5.3055539026886866e+38
6833.333333333334 5.63880121636538e+38
7250.0 5.856957600693562e+38
7666.666666666667 5.976923938173005e+38
8083.333333333334 6.012839454906396e+38
8500.0 5.975274598209006e+38
8916.666666666668 5.872070652088073e+38
9333.333333333334 5.713967063196013e+38
9750.0 5.521716513042108e+38
10166.666666666668 5.306543552092987e+38
10583.333333333334 5.0769040669868175e+38
11000.0 4.8395265145830144e+38
