#lamb flux
1000.0 3.9316311683086884e-08
1416.6666666666667 1.2637272711957672e-05
1833.3333333333335 0.00020551792770992852
2250.0 0.0009509107995015393
2666.666666666667 0.0027011859424028216
3083.3333333333335 0.00500443149347739
3500.0 0.006723619192672983
3916.666666666667 0.007980857070311119
4333.333333333334 0.008702654985093955
4750.0 0.008996028803819155
5166.666666666667 0.008957167671245042
5583.333333333334 0.008670430843097715
6000.0 0.008218718571290131
6416.666666666667 0.0076755123644970035
6833.333333333334 0.007096625352518475
7250.0 0.006518766141975319
7666.666666666667 0.005962931037686734
8083.333333333334 0.005439227334703423
8500.0 0.004951134514822128
8916.666666666668 0.00449857091706411
9333.333333333334 0.0040814078711149376
9750.0 0.003702133207828352
10166.666666666668 0.0033590088579254556
10583.333333333334 0.0030494632060995464
11000.0 0.002770713038191745
