#lamb flux
1000.0 2.879909806258476e-07
1416.6666666666667 6.707249192191792e-05
1833.3333333333335 0.0008648777758065425
2250.0 0.0033403762868252653
2666.666666666667 0.00897280161660662
3083.3333333333335 0.01562687220348341
3500.0 0.019975084556494285
3916.666666666667 0.022829278171546803
4333.333333333334 0.024127245241385292
4750.0 0.024357294063687723
5166.666666666667 0.023812881156736868
5583.333333333334 0.02269984430462838
6000.0 0.02122715751323052
6416.666666666667 0.01958703488409483
6833.333333333334 0.017922873923583084
7250.0 0.016321795389488497
7666.666666666667 0.01482543130491812
8083.333333333334 0.013445838255242417
8500.0 0.012179123581519014
8916.666666666668 0.011014725403221673
9333.333333333334 0.009947102812746533
9750.0 0.008984462939571614
10166.666666666668 0.008120207059183232
10583.333333333334 0.0073457802606945325
11000.0 0.00665258792165583
