#lamb flux
1000.0 3.8540685226016662e+37
1416.6666666666667 1.8814212203771717e+39
1833.3333333333335 8.250292104289884e+39
2250.0 1.4073373302986854e+40
2666.666666666667 2.8396318468687965e+40
3083.3333333333335 3.693475699241439e+40
3500.0 3.7447337115933387e+40
3916.666666666667 3.5905316468872283e+40
4333.333333333334 3.287350600216818e+40
4750.0 2.9764260500277185e+40
5166.666666666667 2.674786333648324e+40
5583.333333333334 2.3767651587034643e+40
6000.0 2.0898547777939051e+40
6416.666666666667 1.826716124307706e+40
6833.333333333334 1.5954931771184334e+40
7250.0 1.3976017180630827e+40
7666.666666666667 1.229731216512765e+40
8083.333333333334 1.0864844856398455e+40
8500.0 9.622441204829065e+39
8916.666666666668 8.521611170038547e+39
9333.333333333334 7.537606214921329e+39
9750.0 6.680025857531421e+39
10166.666666666668 5.933815555612736e+39
10583.333333333334 5.283562134773154e+39
11000.0 4.7159132146335745e+39
