#lamb flux
1000.0 1.0261611095824966e-07
1416.6666666666667 5.695963822008606e-05
1833.3333333333335 0.0013320488604951265
2250.0 0.008063119835551684
2666.666666666667 0.025457559857501314
3083.3333333333335 0.05220419441261601
3500.0 0.07601732070814957
3916.666666666667 0.09598618378204407
4333.333333333334 0.11011661190469406
4750.0 0.11839953284986016
5166.666666666667 0.1216209429095341
5583.333333333334 0.12085746844774298
6000.0 0.11722440015720936
6416.666666666667 0.11171225878588684
6833.333333333334 0.10510881354638808
7250.0 0.0979905426064542
7666.666666666667 0.09075230210852955
8083.333333333334 0.08364923303909579
8500.0 0.07683641572207571
8916.666666666668 0.0704007259162334
9333.333333333334 0.06439076618221944
9750.0 0.05883993366944742
10166.666666666668 0.053746705955726296
10583.333333333334 0.0490945905316003
11000.0 0.044859040880650285
