#lamb flux
1000.0 1.0603480444763519e-06
1416.6666666666667 0.000304878857927459
1833.3333333333335 0.004680420434118827
2250.0 0.020924075685495123
2666.666666666667 0.05783013473231992
3083.3333333333335 0.10514496439395996
3500.0 0.1392841786728303
3916.666666666667 0.16349822780780005
4333.333333333334 0.17670850077819356
4750.0 0.18132408508057893
5166.666666666667 0.17942522497219127
5583.333333333334 0.1727775720039308
6000.0 0.16305541459987885
6416.666666666667 0.1517055431834794
6833.333333333334 0.13980595549204802
7250.0 0.1280526121523374
7666.666666666667 0.11683391752145737
8083.333333333334 0.10632828537508149
8500.0 0.09658807765413539
8916.666666666668 0.08759910804494289
9333.333333333334 0.07934736992490948
9750.0 0.07186896650847437
10166.666666666668 0.06512182439754854
10583.333333333334 0.05904953889368889
11000.0 0.05359294682270987
