#lamb flux
1000.0 3.858635078427815e+35
1416.6666666666667 6.02833638447478e+37
1833.3333333333335 6.925315320970463e+38
2250.0 2.6480399124012337e+39
2666.666666666667 6.241812500362025e+39
3083.3333333333335 1.0269721149925001e+40
3500.0 1.263783147092927e+40
3916.666666666667 1.3991159883549006e+40
4333.333333333334 1.4438300559583558e+40
4750.0 1.424561528477083e+40
5166.666666666667 1.3630923373451125e+40
5583.333333333334 1.2760173456397093e+40
6000.0 1.1761028955649173e+40
6416.666666666667 1.0725725330629442e+40
6833.333333333334 9.714283010346258e+39
7250.0 8.760994685646991e+39
7666.666666666667 7.882049664842384e+39
8083.333333333334 7.082214237672548e+39
8500.0 6.359761419470591e+39
8916.666666666668 5.709714611609412e+39
9333.333333333334 5.126752729220186e+39
9750.0 4.6071867988442356e+39
10166.666666666668 4.14504854774668e+39
10583.333333333334 3.7343088145497266e+39
11000.0 3.3692927247007415e+39
