#lamb flux
1000.0 0.005055040174418471
1416.6666666666667 0.206363696668716
1833.3333333333335 0.8627439236354019
2250.0 1.4724354346724582
2666.666666666667 2.7986023809459137
3083.3333333333335 3.5509766867582213
3500.0 3.5423664544076283
3916.666666666667 3.350528305301922
4333.333333333334 3.036932825551223
4750.0 2.722745415981603
5166.666666666667 2.4240437064959774
5583.333333333334 2.13707147718971
6000.0 1.867465498073073
6416.666666666667 1.6242063116515668
6833.333333333334 1.4124448196634019
7250.0 1.232108513108664
7666.666666666667 1.079612665963604
8083.333333333334 0.9499481328284344
8500.0 0.8381138754490203
8916.666666666668 0.7398468354746783
9333.333333333334 0.6527937900785777
9750.0 0.5772613598273272
10166.666666666668 0.5117715124125721
10583.333333333334 0.45488268878830235
11000.0 0.4053599269530292
