#lamb flux
1000.0 3.879086173484153e+34
1416.6666666666667 3.911264266655351e+36
1833.3333333333335 2.3998013385920344e+37
2250.0 4.874006701886519e+37
2666.666666666667 1.1908663375440493e+38
3083.3333333333335 1.7400148420025656e+38
3500.0 1.9198951907741335e+38
3916.666666666667 1.968106524939588e+38
4333.333333333334 1.898391593752696e+38
4750.0 1.7966394318481646e+38
5166.666666666667 1.6769692561315767e+38
5583.333333333334 1.5381738478994202e+38
6000.0 1.3885223454608784e+38
6416.666666666667 1.2407905483553715e+38
6833.333333333334 1.1046529065255577e+38
7250.0 9.843181409518935e+37
7666.666666666667 8.796977852747427e+37
8083.333333333334 7.884031527860945e+37
8500.0 7.073138073971981e+37
8916.666666666668 6.335116968979679e+37
9333.333333333334 5.657981318047081e+37
9750.0 5.05783727790118e+37
10166.666666666668 4.528149345873885e+37
10583.333333333334 4.0607113106993083e+37
11000.0 3.6480249864642156e+37
