#lamb flux
1000.0 1.7983819723958664e+36
1416.6666666666667 2.1049728633665352e+38
1833.3333333333335 1.6362229929457318e+39
2250.0 4.2412519296361897e+39
2666.666666666667 1.0151251366407621e+40
3083.3333333333335 1.5480441527183809e+40
3500.0 1.777679722773171e+40
3916.666666666667 1.873635392114892e+40
4333.333333333334 1.852132322583774e+40
4750.0 1.7785914816711022e+40
5166.666666666667 1.6737170295278862e+40
5583.333333333334 1.5454025883275115e+40
6000.0 1.4048613682345703e+40
6416.666666666667 1.2641979386234978e+40
6833.333333333334 1.132110700162908e+40
7250.0 1.0127635907007938e+40
7666.666666666667 9.068223023299819e+39
8083.333333333334 8.12984179749836e+39
8500.0 7.291896039513921e+39
8916.666666666668 6.533626990995132e+39
9333.333333333334 5.844834419661479e+39
9750.0 5.233533839561314e+39
10166.666666666668 4.692754076223298e+39
10583.333333333334 4.214505186374535e+39
11000.0 3.7914318579447505e+39
