#lamb flux
1000.0 1.6764147892361396e-07
1416.6666666666667 0.0001344195780230448
1833.3333333333335 0.003503673338697058
2250.0 0.021460275383812132
2666.666666666667 0.076368770789591
3083.3333333333335 0.16507607889529724
3500.0 0.24903491019984608
3916.666666666667 0.323911325940861
4333.333333333334 0.37997487352350245
4750.0 0.41738239049342163
5166.666666666667 0.4374037782803267
5583.333333333334 0.44207200713673733
6000.0 0.43462645651346216
6416.666666666667 0.41878177284239215
6833.333333333334 0.3978487172584158
7250.0 0.3743033290465488
7666.666666666667 0.34977180843948946
8083.333333333334 0.32521473245529886
8500.0 0.30114739469915036
8916.666666666668 0.27782184060922793
9333.333333333334 0.2554815371786151
9750.0 0.23457528428728472
10166.666666666668 0.21519360085104022
10583.333333333334 0.19733295256121638
11000.0 0.18094585565908183
