#lamb flux
1000.0 6.475264315996486e+38
1416.6666666666667 4.5049757014855436e+39
1833.3333333333335 9.773813924303127e+39
2250.0 1.3364023848872762e+40
2666.666666666667 1.5072919233257666e+40
3083.3333333333335 1.4717072706404958e+40
3500.0 1.2250253025623114e+40
3916.666666666667 1.0010417594984645e+40
4333.333333333334 8.120763906291273e+39
4750.0 6.586989166515114e+39
5166.666666666667 5.36000014502272e+39
5583.333333333334 4.3823471435485866e+39
6000.0 3.603235378404447e+39
6416.666666666667 2.9809096644931264e+39
6833.333333333334 2.481905585021132e+39
7250.0 2.0797669882022813e+39
7666.666666666667 1.7537760654784028e+39
8083.333333333334 1.487811453883646e+39
8500.0 1.2693697350114429e+39
8916.666666666668 1.0887583772133366e+39
9333.333333333334 9.38506542219011e+38
9750.0 8.129011333985723e+38
10166.666666666668 7.073371474968849e+38
10583.333333333334 6.181552674563859e+38
11000.0 5.424388927397609e+38
