#lamb flux
1000.0 1.0149229061387012e-05
1416.6666666666667 0.002534839329634591
1833.3333333333335 0.030431537681100747
2250.0 0.10506372724704129
2666.666666666667 0.2983515846388097
3083.3333333333335 0.5193250278861886
3500.0 0.6599065556386827
3916.666666666667 0.7524012561979972
4333.333333333334 0.7922539860859693
4750.0 0.8003720629263082
5166.666666666667 0.7850379590298502
5583.333333333334 0.750460499511972
6000.0 0.7027392742127174
6416.666666666667 0.6487372125467775
6833.333333333334 0.5939165371761803
7250.0 0.5415385750034601
7666.666666666667 0.49297571555908565
8083.333333333334 0.44838978511033367
8500.0 0.4073415825777257
8916.666666666668 0.3692051506151751
9333.333333333334 0.33377355372210166
9750.0 0.3017233587515326
10166.666666666668 0.2728942983457326
10583.333333333334 0.24702063120836718
11000.0 0.22382983410426585
