#lamb flux
1000.0 5.392265478106375e+31
1416.6666666666667 1.7399896371360862e+35
1833.3333333333335 8.458644020892593e+36
2250.0 7.056548471187977e+37
2666.666666666667 3.6618857159667336e+38
3083.3333333333335 9.90323382571888e+38
3500.0 1.759552802620806e+39
3916.666666666667 2.6096363998168236e+39
4333.333333333334 3.394903491876867e+39
4750.0 4.078173256812445e+39
5166.666666666667 4.61995544007258e+39
5583.333333333334 4.987045916369983e+39
6000.0 5.179883787751609e+39
6416.666666666667 5.2282683620122916e+39
6833.333333333334 5.1721849981889875e+39
7250.0 5.046838644506363e+39
7666.666666666667 4.876839868597411e+39
8083.333333333334 4.676651640600145e+39
8500.0 4.4535310454219375e+39
8916.666666666668 4.2107042462520634e+39
9333.333333333334 3.954206098626404e+39
9750.0 3.699591491069161e+39
10166.666666666668 3.4522268914045364e+39
10583.333333333334 3.215096347684636e+39
11000.0 2.9900389532912024e+39
