#lamb flux
1010.0 8.7713e-05
1030.0 9.498e-05
1050.0 0.00010524
1070.0 0.00011678
1090.0 0.00012937
1110.0 0.0001424
1130.0 0.00015558
1150.0 0.00016943
1170.0 0.0001837
1190.0 0.00019713
1210.0 0.00021058
1230.0 0.00022423
1250.0 0.0002374
1270.0 0.0002498
1290.0 0.00026253
1310.0 0.00027479
1330.0 0.00028606
1350.0 0.0002971
1370.0 0.00030824
1390.0 0.0003188
1410.0 0.00032885
1430.0 0.00033945
1450.0 0.00035013
1470.0 0.0003606
1490.0 0.00037151
1510.0 0.00038353
1530.0 0.00039536
1550.0 0.00040761
1570.0 0.00042092
1590.0 0.00043494
1610.0 0.00044917
1630.0 0.00046474
1650.0 0.00048143
1670.0 0.00049849
1690.0 0.00051615
1710.0 0.000535
1730.0 0.00055458
1750.0 0.00057388
1770.0 0.00059397
1790.0 0.0006146
1810.0 0.00063487
1830.0 0.00065479
1850.0 0.00067522
1870.0 0.00069474
1890.0 0.00071301
1910.0 0.00073056
1930.0 0.00074726
1950.0 0.00076191
1970.0 0.00077484
1990.0 0.00078664
2010.0 0.00079646
2030.0 0.00080402
2050.0 0.00081024
2070.0 0.00081513
2090.0 0.00081764
2110.0 0.0008187
2130.0 0.00081891
2150.0 0.00081782
2170.0 0.00081539
2190.0 0.00081283
2210.0 0.00080999
2230.0 0.00080653
2250.0 0.00080311
2270.0 0.00080046
2290.0 0.00079789
2310.0 0.00079545
2330.0 0.00079408
2350.0 0.00079363
2370.0 0.0007937
2390.0 0.00079494
2410.0 0.00079791
2430.0 0.00080195
2450.0 0.00080732
2470.0 0.00081485
2490.0 0.00082476
2510.0 0.00083657
2530.0 0.00085266
2550.0 0.00087646
2570.0 0.00091128
2590.0 0.00096178
2610.0 0.0010407
2630.0 0.001152
2650.0 0.0012916
2670.0 0.0014624
2690.0 0.0016597
2710.0 0.0018576
2730.0 0.0020413
2750.0 0.0022085
2770.0 0.0023394
2790.0 0.002429
2810.0 0.0024846
2830.0 0.0025097
2850.0 0.0025129
2870.0 0.0025044
2890.0 0.0024888
2910.0 0.002472
2930.0 0.0024593
2950.0 0.0024483
2970.0 0.0024409
2990.0 0.0024398
3010.0 0.0032718
3030.0 0.0032818
3050.0 0.0032981
3070.0 0.0033224
3090.0 0.0033481
3110.0 0.0033733
3130.0 0.0033976
3150.0 0.0034299
3170.0 0.0034439
3190.0 0.0039789
3210.0 0.0063143
3230.0 0.01007
3250.0 0.011936
3270.0 0.010725
3290.0 0.0086194
3310.0 0.0074888
3330.0 0.0070908
3350.0 0.0071511
3370.0 0.0073439
3390.0 0.0075679
3410.0 0.0077729
3430.0 0.0077892
3450.0 0.0079132
3470.0 0.0080854
3490.0 0.0086393
3510.0 0.0096819
3530.0 0.010908
3550.0 0.013103
3570.0 0.015775
3590.0 0.017186
3610.0 0.017482
3630.0 0.01753
3650.0 0.017743
3670.0 0.019289
3690.0 0.022937
3710.0 0.026907
3730.0 0.029672
3750.0 0.031822
3770.0 0.031935
3790.0 0.030295
3810.0 0.02797
3830.0 0.024824
3850.0 0.02229
3870.0 0.021286
3890.0 0.023656
3910.0 0.028243
3930.0 0.032917
3950.0 0.036653
3970.0 0.038598
3990.0 0.038991
4010.0 0.038448
4030.0 0.034414
4050.0 0.028653
4070.0 0.025593
4090.0 0.025915
4110.0 0.027822
4130.0 0.02874
4150.0 0.028915
4170.0 0.028838
4190.0 0.029233
4210.0 0.02946
4230.0 0.030467
4250.0 0.031374
4270.0 0.032173
4290.0 0.03254
4310.0 0.033181
4330.0 0.033982
4350.0 0.034443
4370.0 0.03329
4390.0 0.030542
4410.0 0.026878
4430.0 0.023441
4450.0 0.021419
4470.0 0.021575
4490.0 0.023283
4510.0 0.02615
4530.0 0.030512
4550.0 0.037252
4570.0 0.045175
4590.0 0.054355
4610.0 0.063465
4630.0 0.069045
4650.0 0.070726
4670.0 0.069711
4690.0 0.064937
4710.0 0.056758
4730.0 0.047474
4750.0 0.039764
4770.0 0.034869
4790.0 0.033879
4810.0 0.034953
4830.0 0.036819
4850.0 0.039434
4870.0 0.04255
4890.0 0.044383
4910.0 0.046119
4930.0 0.049567
4950.0 0.053289
4970.0 0.05429
4990.0 0.051601
5010.0 0.046097
5030.0 0.039439
5050.0 0.034177
5070.0 0.030948
5090.0 0.029389
5110.0 0.029257
5130.0 0.029415
5150.0 0.029354
5170.0 0.029687
5190.0 0.031176
5210.0 0.034345
5230.0 0.038536
5250.0 0.043875
5270.0 0.049534
5290.0 0.053956
5310.0 0.057389
5330.0 0.060654
5350.0 0.062584
5370.0 0.062199
5390.0 0.061061
5410.0 0.061307
5430.0 0.064615
5450.0 0.071174
5470.0 0.07837
5490.0 0.083011
5510.0 0.084443
5530.0 0.083894
5550.0 0.082205
5570.0 0.079796
5590.0 0.077513
5610.0 0.075686
5630.0 0.074329
5650.0 0.072031
5670.0 0.067641
5690.0 0.062663
5710.0 0.058703
5730.0 0.055523
5750.0 0.054422
5770.0 0.055578
5790.0 0.057087
5810.0 0.05768
5830.0 0.057996
5850.0 0.057708
5870.0 0.05652
5890.0 0.056168
5910.0 0.056462
5930.0 0.054893
5950.0 0.051111
5970.0 0.046066
5990.0 0.040969
6010.0 0.037263
6030.0 0.035845
6050.0 0.036891
6070.0 0.038561
6090.0 0.038397
6110.0 0.037389
6130.0 0.037776
6150.0 0.039516
6170.0 0.041184
6190.0 0.042048
6210.0 0.041984
6230.0 0.040295
6250.0 0.036875
6270.0 0.032723
6290.0 0.029392
6310.0 0.028568
6330.0 0.030046
6350.0 0.032175
6370.0 0.034324
6390.0 0.037741
6410.0 0.042539
6430.0 0.046357
6450.0 0.048346
6470.0 0.049694
6490.0 0.050835
6510.0 0.051353
6530.0 0.051603
6550.0 0.052273
6570.0 0.052616
6590.0 0.052382
6610.0 0.051257
6630.0 0.049038
6650.0 0.045925
6670.0 0.04286
6690.0 0.040838
6710.0 0.039334
6730.0 0.037668
6750.0 0.036746
6770.0 0.037343
6790.0 0.038198
6810.0 0.038223
6830.0 0.037563
6850.0 0.036617
6870.0 0.035671
6890.0 0.034865
6910.0 0.034906
6930.0 0.035222
6950.0 0.03525
6970.0 0.035223
6990.0 0.03482
7010.0 0.033777
7030.0 0.03185
7050.0 0.02919
7070.0 0.027134
7090.0 0.026905
7110.0 0.027564
7130.0 0.027224
7150.0 0.026186
7170.0 0.026328
7190.0 0.028087
7210.0 0.030145
7230.0 0.031764
7250.0 0.032628
7270.0 0.032034
7290.0 0.030729
7310.0 0.029905
7330.0 0.030285
7350.0 0.031243
7370.0 0.031925
7390.0 0.033053
7410.0 0.035087
7430.0 0.037099
7450.0 0.038446
7470.0 0.038677
7490.0 0.036855
7510.0 0.034436
7530.0 0.03331
7550.0 0.031881
7570.0 0.030418
7590.0 0.02972
7610.0 0.029584
7630.0 0.030161
7650.0 0.031808
7670.0 0.034001
7690.0 0.036012
7710.0 0.037356
7730.0 0.038457
7750.0 0.03938
7770.0 0.039949
7790.0 0.040501
7810.0 0.040434
7830.0 0.039047
7850.0 0.037478
7870.0 0.036383
7890.0 0.035832
7910.0 0.035647
7930.0 0.034761
7950.0 0.033642
7970.0 0.032386
7990.0 0.031404
8010.0 0.029568
8030.0 0.029444
8050.0 0.02924
8070.0 0.028751
8090.0 0.028352
8110.0 0.027941
8130.0 0.02787
8150.0 0.027585
8170.0 0.027069
8190.0 0.026196
8210.0 0.025048
8230.0 0.024008
8250.0 0.023568
8270.0 0.022298
8290.0 0.019684
8310.0 0.016852
8330.0 0.014931
8350.0 0.014335
8370.0 0.015433
8390.0 0.017223
8410.0 0.018327
8430.0 0.01912
8450.0 0.020438
8470.0 0.021913
8490.0 0.023789
8510.0 0.025872
8530.0 0.027979
8550.0 0.029606
8570.0 0.030774
8590.0 0.031626
8610.0 0.032151
8630.0 0.032025
8650.0 0.031374
8670.0 0.031338
8690.0 0.032717
8710.0 0.034598
8730.0 0.035353
8750.0 0.034921
8770.0 0.03508
8790.0 0.034992
8810.0 0.033558
8830.0 0.031023
8850.0 0.027908
8870.0 0.025569
8890.0 0.024774
8910.0 0.024129
8930.0 0.022488
8950.0 0.020813
8970.0 0.020133
8990.0 0.020205
9010.0 0.019954
9030.0 0.019644
9050.0 0.019467
9070.0 0.019366
9090.0 0.019276
9110.0 0.019189
9130.0 0.019102
9150.0 0.019016
9170.0 0.018929
9190.0 0.018853
9210.0 0.018795
9230.0 0.018701
9250.0 0.018613
9270.0 0.018529
9290.0 0.018449
9310.0 0.018369
9330.0 0.018292
9350.0 0.018217
9370.0 0.018142
9390.0 0.018068
9410.0 0.017995
9430.0 0.01792
9450.0 0.017822
9470.0 0.017734
9490.0 0.017688
9510.0 0.01763
9530.0 0.017571
9550.0 0.017508
9570.0 0.017444
9590.0 0.017381
9610.0 0.017317
9630.0 0.017252
9650.0 0.017189
9670.0 0.017128
9690.0 0.017065
9710.0 0.017003
9730.0 0.016942
9750.0 0.016882
9770.0 0.01682
9790.0 0.01676
9810.0 0.016701
9830.0 0.01664
9850.0 0.016579
9870.0 0.016522
9890.0 0.016463
9910.0 0.016403
9930.0 0.016344
9950.0 0.016243
9970.0 0.016195
9990.0 0.016145
10010.0 0.016094
10030.0 0.01604
10050.0 0.015982
10070.0 0.015925
10090.0 0.015868
10110.0 0.015801
10130.0 0.015716
10150.0 0.015659
10170.0 0.015605
10190.0 0.015544
10210.0 0.015485
10230.0 0.015426
10250.0 0.015359
10270.0 0.015293
10290.0 0.015229
10310.0 0.015161
10330.0 0.015087
10350.0 0.015018
10370.0 0.014949
10390.0 0.014874
10410.0 0.014799
10430.0 0.014729
10450.0 0.014653
10470.0 0.014573
10490.0 0.014496
10510.0 0.014419
10530.0 0.014332
10550.0 0.014248
10570.0 0.014167
10590.0 0.014081
10610.0 0.01399
10630.0 0.013904
10650.0 0.013816
10670.0 0.01372
10690.0 0.013626
10710.0 0.013533
10730.0 0.013434
10750.0 0.01333
10770.0 0.013232
10790.0 0.013132
10810.0 0.013024
10830.0 0.012918
10850.0 0.012815
10870.0 0.012701
10890.0 0.012586
10910.0 0.012475
10930.0 0.01236
10950.0 0.012238
10970.0 0.012117
10990.0 0.012001
11010.0 0.012564
11030.0 0.012435
11050.0 0.012311
11070.0 0.012187
11090.0 0.012055
11110.0 0.011933
11130.0 0.011814
11150.0 0.011693
11170.0 0.011572
11190.0 0.01146
11210.0 0.011347
11230.0 0.011232
11250.0 0.011124
11270.0 0.011021
11290.0 0.010917
11310.0 0.010815
11330.0 0.010722
11350.0 0.010629
11370.0 0.010536
11390.0 0.010446
11410.0 0.010357
11430.0 0.010261
11450.0 0.010163
11470.0 0.010064
11490.0 0.0099578
11510.0 0.0098413
11530.0 0.0097228
11550.0 0.0095984
11570.0 0.0094619
11590.0 0.0093197
11610.0 0.009176
11630.0 0.0090217
11650.0 0.0088587
11670.0 0.0086989
11690.0 0.0085364
11710.0 0.0083662
11730.0 0.0081961
11750.0 0.008031
11770.0 0.0078592
11790.0 0.0076845
11810.0 0.0075146
11830.0 0.0073448
11850.0 0.0071666
11870.0 0.0069937
11890.0 0.0068269
11910.0 0.0066568
11930.0 0.0064872
11950.0 0.0063266
11970.0 0.0061686
11990.0 0.0060094
12010.0 0.0058597
12030.0 0.005719
12050.0 0.0055814
12070.0 0.0054493
12090.0 0.0053321
12110.0 0.0052217
12130.0 0.005118
12150.0 0.0050258
12170.0 0.0049452
12190.0 0.0048715
12210.0 0.0048095
12230.0 0.00476
12250.0 0.0047208
12270.0 0.0046925
12290.0 0.0046752
12310.0 0.0046675
12330.0 0.0046697
12350.0 0.0046806
12370.0 0.0046976
12390.0 0.0047212
12410.0 0.0047525
12430.0 0.0047847
12450.0 0.0048185
12470.0 0.0048556
12490.0 0.0048929
12510.0 0.0049267
12530.0 0.0049606
12550.0 0.0049934
12570.0 0.0050208
12590.0 0.0050436
12610.0 0.0050632
12630.0 0.0050766
12650.0 0.0050813
12670.0 0.0050798
12690.0 0.0050706
12710.0 0.0050525
12730.0 0.0050263
12750.0 0.0049912
12770.0 0.0049476
12790.0 0.0048969
12810.0 0.0048385
12830.0 0.0047726
12850.0 0.0047034
12870.0 0.0046306
12890.0 0.004553
12910.0 0.0044744
12930.0 0.004397
12950.0 0.0043178
12970.0 0.0042384
12990.0 0.0041635
13010.0 0.0040905
13030.0 0.0040182
13050.0 0.0039493
13070.0 0.0038846
13090.0 0.0038205
13110.0 0.0037585
13130.0 0.0037004
13150.0 0.0036445
13170.0 0.0035889
13190.0 0.0035369
13210.0 0.0034881
13230.0 0.0034403
13250.0 0.0033943
13270.0 0.0033515
13290.0 0.0033101
13310.0 0.0032695
13330.0 0.0032312
13350.0 0.0031949
13370.0 0.0031591
13390.0 0.0031242
13410.0 0.0030915
13430.0 0.0030594
13450.0 0.0030274
13470.0 0.0029965
13490.0 0.0029667
13510.0 0.0029362
13530.0 0.0029062
13550.0 0.0028772
13570.0 0.0028482
13590.0 0.0028187
13610.0 0.0027899
13630.0 0.0027618
13650.0 0.0027329
13670.0 0.0027043
13690.0 0.0026766
13710.0 0.0026489
13730.0 0.0026204
13750.0 0.0025935
13770.0 0.0025671
13790.0 0.0025404
13810.0 0.0025144
13830.0 0.0024897
13850.0 0.0024651
13870.0 0.0024407
13890.0 0.0024176
13910.0 0.0023954
13930.0 0.0023732
13950.0 0.002352
13970.0 0.0023322
13990.0 0.0023126
14010.0 0.0022934
14030.0 0.0022751
14050.0 0.0022573
14070.0 0.002239
14090.0 0.0022213
14110.0 0.0022041
14130.0 0.0021867
14150.0 0.002169
14170.0 0.0021523
14190.0 0.0021359
14210.0 0.0021194
14230.0 0.0021037
14250.0 0.0020892
14270.0 0.0020749
14290.0 0.0020614
14310.0 0.0020496
14330.0 0.0020388
14350.0 0.0020288
14370.0 0.0020201
14390.0 0.0020127
14410.0 0.0020058
14430.0 0.0019998
14450.0 0.0019946
14470.0 0.0019899
14490.0 0.0019852
14510.0 0.0019811
14530.0 0.0019772
14550.0 0.0019733
14570.0 0.0019695
14590.0 0.0019661
14610.0 0.0019629
14630.0 0.00196
14650.0 0.0019581
14670.0 0.0019574
14690.0 0.0019581
14710.0 0.0019611
14730.0 0.0019665
14750.0 0.0019751
14770.0 0.0019876
14790.0 0.0020041
14810.0 0.0020249
14830.0 0.0020521
14850.0 0.0020847
14870.0 0.0021216
14890.0 0.0021639
14910.0 0.0022114
14930.0 0.0022598
14950.0 0.0023077
14970.0 0.0023555
14990.0 0.0023987
15010.0 0.0024351
15030.0 0.0024657
15050.0 0.0024905
15070.0 0.0025087
15090.0 0.002523
15110.0 0.0025348
15130.0 0.0025447
15150.0 0.0025538
15170.0 0.0025625
15190.0 0.0025711
15210.0 0.0025799
15230.0 0.0025888
15250.0 0.0025978
15270.0 0.0026071
15290.0 0.0026165
15310.0 0.0026261
15330.0 0.0026359
15350.0 0.0026458
15370.0 0.002656
15390.0 0.0026662
15410.0 0.0026767
15430.0 0.0026874
15450.0 0.0026982
15470.0 0.0027091
15490.0 0.0027202
15510.0 0.0027315
15530.0 0.002743
15550.0 0.0027545
15570.0 0.0027663
15590.0 0.0027782
15610.0 0.0027902
15630.0 0.0028023
15650.0 0.0028146
15670.0 0.0028271
15690.0 0.0028396
15710.0 0.0028523
15730.0 0.0028651
15750.0 0.0028781
15770.0 0.0028911
15790.0 0.0029043
15810.0 0.0029175
15830.0 0.0029309
15850.0 0.0029444
15870.0 0.0029579
15890.0 0.0029716
15910.0 0.0029854
15930.0 0.0029992
15950.0 0.0030131
15970.0 0.0030271
15990.0 0.0030412
16010.0 0.0030553
16030.0 0.0030695
16050.0 0.0030838
16070.0 0.0030981
16090.0 0.0031125
16110.0 0.0031269
16130.0 0.0031414
16150.0 0.0031558
16170.0 0.0031703
16190.0 0.0031849
16210.0 0.0031995
16230.0 0.003214
16250.0 0.0032286
16270.0 0.0032432
16290.0 0.0032578
16310.0 0.0032724
16330.0 0.003287
16350.0 0.0033016
16370.0 0.0033161
16390.0 0.0033306
16410.0 0.0033451
16430.0 0.0033595
16450.0 0.0033739
16470.0 0.0033883
16490.0 0.0034026
16510.0 0.0034168
16530.0 0.003431
16550.0 0.0034451
16570.0 0.0034591
16590.0 0.0034731
16610.0 0.0034869
16630.0 0.0035007
16650.0 0.0035143
16670.0 0.0035279
16690.0 0.0035413
16710.0 0.0035547
16730.0 0.0035679
16750.0 0.0035809
16770.0 0.0035939
16790.0 0.0036067
16810.0 0.0036193
16830.0 0.0036319
16850.0 0.0036442
16870.0 0.0036564
16890.0 0.0036684
16910.0 0.0036803
16930.0 0.003692
16950.0 0.0037035
16970.0 0.0037148
16990.0 0.0037259
17010.0 0.0037368
17030.0 0.0037475
17050.0 0.003758
17070.0 0.0037683
17090.0 0.0037784
17110.0 0.0037883
17130.0 0.0037979
17150.0 0.0038073
17170.0 0.0038165
17190.0 0.0038254
17210.0 0.0038341
17230.0 0.0038425
17250.0 0.0038507
17270.0 0.0038586
17290.0 0.0038663
17310.0 0.0038737
17330.0 0.0038808
17350.0 0.0038877
17370.0 0.0038943
17390.0 0.0039006
17410.0 0.0039067
17430.0 0.0039124
17450.0 0.0039179
17470.0 0.0039231
17490.0 0.003928
17510.0 0.0039326
17530.0 0.0039369
17550.0 0.0039409
17570.0 0.0039446
17590.0 0.003948
17610.0 0.0039511
17630.0 0.0039539
17650.0 0.0039564
17670.0 0.0039585
17690.0 0.0039604
17710.0 0.0039619
17730.0 0.0039632
17750.0 0.0039641
17770.0 0.0039647
17790.0 0.0039651
17810.0 0.0039651
17830.0 0.0039647
17850.0 0.0039641
17870.0 0.0039632
17890.0 0.0039619
17910.0 0.0039603
17930.0 0.0039584
17950.0 0.0039562
17970.0 0.0039537
17990.0 0.0039509
18010.0 0.0039477
18030.0 0.0039443
18050.0 0.0039405
18070.0 0.0039365
18090.0 0.0039321
18110.0 0.0039274
18130.0 0.0039225
18150.0 0.0039172
18170.0 0.0039116
18190.0 0.0039058
18210.0 0.0038996
18230.0 0.0038932
18250.0 0.0038864
18270.0 0.0038794
18290.0 0.0038721
18310.0 0.0038645
18330.0 0.0038567
18350.0 0.0038485
18370.0 0.0038401
18390.0 0.0038314
18410.0 0.0038225
18430.0 0.0038133
18450.0 0.0038038
18470.0 0.0037941
18490.0 0.0037841
18510.0 0.0037739
18530.0 0.0037634
18550.0 0.0037527
18570.0 0.0037418
18590.0 0.0037306
18610.0 0.0037192
18630.0 0.0037076
18650.0 0.0036957
18670.0 0.0036836
18690.0 0.0036714
18710.0 0.0036589
18730.0 0.0036462
18750.0 0.0036333
18770.0 0.0036202
18790.0 0.0036069
18810.0 0.0035934
18830.0 0.0035797
18850.0 0.0035659
18870.0 0.0035519
18890.0 0.0035377
18910.0 0.0035234
18930.0 0.0035088
18950.0 0.0034942
18970.0 0.0034794
18990.0 0.0034644
19010.0 0.0034493
19030.0 0.003434
19050.0 0.0034186
19070.0 0.0034031
19090.0 0.0033875
19110.0 0.0033717
19130.0 0.0033558
19150.0 0.0033398
19170.0 0.0033237
19190.0 0.0033075
19210.0 0.0032912
19230.0 0.0032748
19250.0 0.0032583
19270.0 0.0032417
19290.0 0.0032251
19310.0 0.0032084
19330.0 0.0031915
19350.0 0.0031746
19370.0 0.0031577
19390.0 0.0031407
19410.0 0.0031236
19430.0 0.0031065
19450.0 0.0030893
19470.0 0.0030721
19490.0 0.0030548
19510.0 0.0030375
19530.0 0.0030202
19550.0 0.0030028
19570.0 0.0029854
19590.0 0.002968
19610.0 0.0029506
19630.0 0.0029331
19650.0 0.0029157
19670.0 0.0028982
19690.0 0.0028807
19710.0 0.0028632
19730.0 0.0028457
19750.0 0.0028283
19770.0 0.0028108
19790.0 0.0027933
19810.0 0.0027758
19830.0 0.0027583
19850.0 0.0027407
19870.0 0.0027229
19890.0 0.0027045
19910.0 0.0026852
19930.0 0.0026644
19950.0 0.0026415
19970.0 0.002615
19990.0 0.0025845
20010.0 0.0025504
20030.0 0.0025114
20050.0 0.0024678
20070.0 0.0024217
20090.0 0.0023736
20110.0 0.0023219
20130.0 0.0022708
20150.0 0.0022209
20170.0 0.0021707
20190.0 0.0021209
20210.0 0.0020738
20230.0 0.0020281
20250.0 0.0019827
20270.0 0.0019398
20290.0 0.0018995
20310.0 0.0018603
20330.0 0.0018224
20350.0 0.0017883
20370.0 0.001756
20390.0 0.0017251
20410.0 0.0016968
20430.0 0.001671
20450.0 0.0016464
20470.0 0.0016239
20490.0 0.0016035
20510.0 0.0015848
20530.0 0.0015674
20550.0 0.0015516
20570.0 0.0015373
20590.0 0.0015239
20610.0 0.0015114
20630.0 0.0014998
20650.0 0.0014889
20670.0 0.0014783
20690.0 0.0014682
20710.0 0.0014581
20730.0 0.0014482
20750.0 0.0014381
20770.0 0.0014278
20790.0 0.0014171
20810.0 0.0014061
20830.0 0.0013946
20850.0 0.0013827
20870.0 0.00137
20890.0 0.0013568
20910.0 0.0013433
20930.0 0.0013291
20950.0 0.0013143
20970.0 0.0012993
20990.0 0.001284
21010.0 0.0012681
21030.0 0.0012521
21050.0 0.0012361
21070.0 0.0012198
21090.0 0.0012033
21110.0 0.0011872
21130.0 0.0011713
21150.0 0.0011553
21170.0 0.0011395
21190.0 0.0011242
21210.0 0.001109
21230.0 0.0010939
21250.0 0.0010794
21270.0 0.0010654
21290.0 0.0010514
21310.0 0.001038
21330.0 0.0010252
21350.0 0.0010126
21370.0 0.0010004
21390.0 0.00098889
21410.0 0.0009778
21430.0 0.00096695
21450.0 0.00095673
21470.0 0.00094708
21490.0 0.0009378
21510.0 0.00092895
21530.0 0.00092063
21550.0 0.00091269
21570.0 0.00090507
21590.0 0.00089785
21610.0 0.00089097
21630.0 0.00088433
21650.0 0.00087793
21670.0 0.00087178
21690.0 0.00086578
21710.0 0.00085992
21730.0 0.00085418
21750.0 0.00084854
21770.0 0.00084298
21790.0 0.00083748
21810.0 0.00083204
21830.0 0.00082665
21850.0 0.00082131
21870.0 0.00081602
21890.0 0.00081077
21910.0 0.00080556
21930.0 0.00080038
21950.0 0.00079523
21970.0 0.0007901
21990.0 0.00078496
22010.0 0.00077982
22030.0 0.00077466
22050.0 0.00076945
22070.0 0.00076417
22090.0 0.00075884
22110.0 0.00075342
22130.0 0.00074786
22150.0 0.00074223
22170.0 0.0007365
22190.0 0.00073057
22210.0 0.00072451
22230.0 0.00071841
22250.0 0.00071214
22270.0 0.00070568
22290.0 0.00069916
22310.0 0.00069254
22330.0 0.00068563
22350.0 0.00067861
22370.0 0.00067153
22390.0 0.00066421
22410.0 0.00065658
22430.0 0.00064897
22450.0 0.0006412
22470.0 0.00063307
22490.0 0.00062481
22510.0 0.00061656
22530.0 0.00060793
22550.0 0.00059903
22570.0 0.00059026
22590.0 0.0005814
22610.0 0.00057227
22630.0 0.0005632
22650.0 0.00055442
22670.0 0.00054547
22690.0 0.00053655
22710.0 0.000528
22730.0 0.00051965
22750.0 0.00051119
22770.0 0.00050322
22790.0 0.00049569
22810.0 0.00048831
22830.0 0.0004812
22850.0 0.00047462
22870.0 0.00046832
22890.0 0.0004622
22910.0 0.00045651
22930.0 0.0004512
22950.0 0.00044607
22970.0 0.00044116
22990.0 0.00043668
23010.0 0.00043236
23030.0 0.00042818
23050.0 0.00042422
23070.0 0.00042047
23090.0 0.00041673
23110.0 0.00041312
23130.0 0.00040969
23150.0 0.00040631
23170.0 0.00040295
23190.0 0.00039972
23210.0 0.00039659
23230.0 0.00039347
23250.0 0.00039041
23270.0 0.00038748
23290.0 0.00038459
23310.0 0.0003817
23330.0 0.00037898
23350.0 0.00037634
23370.0 0.00037375
23390.0 0.00037125
23410.0 0.0003689
23430.0 0.00036661
23450.0 0.0003644
23470.0 0.00036233
23490.0 0.00036038
23510.0 0.00035849
23530.0 0.00035673
23550.0 0.00035513
23570.0 0.00035362
23590.0 0.00035225
23610.0 0.00035105
23630.0 0.00035
23650.0 0.00034913
23670.0 0.00034848
23690.0 0.00034805
23710.0 0.00034789
23730.0 0.00034806
23750.0 0.0003485
23770.0 0.00034928
23790.0 0.00035052
23810.0 0.00035215
23830.0 0.00035411
23850.0 0.00035665
23870.0 0.00035972
23890.0 0.00036305
23910.0 0.00036679
23930.0 0.00037105
23950.0 0.00037553
23970.0 0.00038003
23990.0 0.00038489
24010.0 0.00038985
