#lamb flux
1010.0 1.5707e-05
1030.0 1.6371e-05
1050.0 1.7141e-05
1070.0 1.801e-05
1090.0 1.8999e-05
1110.0 2.0018e-05
1130.0 2.1049e-05
1150.0 2.2134e-05
1170.0 2.326e-05
1190.0 2.4337e-05
1210.0 2.5437e-05
1230.0 2.6581e-05
1250.0 2.7713e-05
1270.0 2.8824e-05
1290.0 3.0005e-05
1310.0 3.1198e-05
1330.0 3.2356e-05
1350.0 3.354e-05
1370.0 3.4773e-05
1390.0 3.5991e-05
1410.0 3.7191e-05
1430.0 3.8454e-05
1450.0 3.9733e-05
1470.0 4.0988e-05
1490.0 4.2269e-05
1510.0 4.3627e-05
1530.0 4.4936e-05
1550.0 4.6242e-05
1570.0 4.7597e-05
1590.0 4.8962e-05
1610.0 5.0281e-05
1630.0 5.164e-05
1650.0 5.3033e-05
1670.0 5.4385e-05
1690.0 5.5719e-05
1710.0 5.7092e-05
1730.0 5.8462e-05
1750.0 5.9745e-05
1770.0 6.1046e-05
1790.0 6.2351e-05
1810.0 6.3594e-05
1830.0 6.479e-05
1850.0 6.6028e-05
1870.0 6.7202e-05
1890.0 6.8301e-05
1910.0 6.9387e-05
1930.0 7.0465e-05
1950.0 7.145e-05
1970.0 7.2382e-05
1990.0 7.3322e-05
2010.0 7.4205e-05
2030.0 7.5013e-05
2050.0 7.5826e-05
2070.0 7.6641e-05
2090.0 7.7368e-05
2110.0 7.8076e-05
2130.0 7.8807e-05
2150.0 7.9514e-05
2170.0 8.0179e-05
2190.0 8.0896e-05
2210.0 8.1641e-05
2230.0 8.2373e-05
2250.0 8.3141e-05
2270.0 8.4004e-05
2290.0 8.4892e-05
2310.0 8.5806e-05
2330.0 8.683e-05
2350.0 8.7951e-05
2370.0 8.9126e-05
2390.0 9.042e-05
2410.0 9.1881e-05
2430.0 9.3434e-05
2450.0 9.5091e-05
2470.0 9.6901e-05
2490.0 9.8852e-05
2510.0 0.0001009
2530.0 0.00010324
2550.0 0.00010621
2570.0 0.00011026
2590.0 0.00011599
2610.0 0.00012483
2630.0 0.00013754
2650.0 0.00015403
2670.0 0.00017484
2690.0 0.00019989
2710.0 0.0002267
2730.0 0.00025391
2750.0 0.000282
2770.0 0.00030908
2790.0 0.00033447
2810.0 0.00035944
2830.0 0.00038507
2850.0 0.00041016
2870.0 0.00043595
2890.0 0.00046349
2910.0 0.00049233
2930.0 0.00052175
2950.0 0.00055317
2970.0 0.0005864
2990.0 0.00062029
3010.0 0.0011359
3030.0 0.0011993
3050.0 0.001263
3070.0 0.0013223
3090.0 0.0013749
3110.0 0.0014096
3130.0 0.0014128
3150.0 0.0013692
3170.0 0.0012481
3190.0 0.0010448
3210.0 0.00076089
3230.0 0.00043813
3250.0 0.00076809
3270.0 0.000332
3290.0 0.0011121
3310.0 0.00022131
3330.0 0.00022578
3350.0 0.00034618
3370.0 0.00048329
3390.0 0.00062868
3410.0 0.00077347
3430.0 0.00092471
3450.0 0.0010755
3470.0 0.0012136
3490.0 0.0013042
3510.0 0.0016234
3530.0 0.0022235
3550.0 0.002229
3570.0 0.0018928
3590.0 0.0027124
3610.0 0.0017484
3630.0 0.0028187
3650.0 0.0031996
3670.0 0.0041131
3690.0 0.0039329
3710.0 0.0028066
3730.0 0.0037491
3750.0 0.0038985
3770.0 0.0040163
3790.0 0.0036334
3810.0 0.0031934
3830.0 0.0044153
3850.0 0.0047497
3870.0 0.0058988
3890.0 0.0055673
3910.0 0.0050544
3930.0 0.0054712
3950.0 0.0061578
3970.0 0.0080308
3990.0 0.0064669
4010.0 0.0042732
4030.0 0.0057551
4050.0 0.0062947
4070.0 0.0071529
4090.0 0.0062776
4110.0 0.004293
4130.0 0.0056596
4150.0 0.0052024
4170.0 0.005513
4190.0 0.005486
4210.0 0.0068135
4230.0 0.0047655
4250.0 0.0056943
4270.0 0.0056881
4290.0 0.0057508
4310.0 0.0070047
4330.0 0.0071835
4350.0 0.0055706
4370.0 0.0048239
4390.0 0.0058527
4410.0 0.005962
4430.0 0.0046072
4450.0 0.0046354
4470.0 0.0053718
4490.0 0.0040088
4510.0 0.0048795
4530.0 0.0052694
4550.0 0.0070451
4570.0 0.010316
4590.0 0.010019
4610.0 0.0067038
4630.0 0.010658
4650.0 0.015251
4670.0 0.014107
4690.0 0.0083829
4710.0 0.0090576
4730.0 0.011702
4750.0 0.01046
4770.0 0.0079221
4790.0 0.0054779
4810.0 0.0079065
4830.0 0.0091199
4850.0 0.0081515
4870.0 0.0029558
4890.0 0.0087503
4910.0 0.012132
4930.0 0.01301
4950.0 0.012833
4970.0 0.0081025
4990.0 0.0092956
5010.0 0.010802
5030.0 0.011736
5050.0 0.011567
5070.0 0.0083681
5090.0 0.0068689
5110.0 0.0064247
5130.0 0.0057304
5150.0 0.0065498
5170.0 0.00571
5190.0 0.0070712
5210.0 0.0070595
5230.0 0.0077167
5250.0 0.0097754
5270.0 0.0082962
5290.0 0.0081395
5310.0 0.011865
5330.0 0.013728
5350.0 0.011605
5370.0 0.01013
5390.0 0.011456
5410.0 0.014302
5430.0 0.015726
5450.0 0.016844
5470.0 0.016963
5490.0 0.016625
5510.0 0.019382
5530.0 0.020072
5550.0 0.021443
5570.0 0.022698
5590.0 0.022475
5610.0 0.021284
5630.0 0.020528
5650.0 0.02089
5670.0 0.020653
5690.0 0.01765
5710.0 0.016907
5730.0 0.017067
5750.0 0.018569
5770.0 0.016121
5790.0 0.014768
5810.0 0.014958
5830.0 0.015688
5850.0 0.014343
5870.0 0.014408
5890.0 0.017068
5910.0 0.016269
5930.0 0.013374
5950.0 0.011623
5970.0 0.012398
5990.0 0.011424
6010.0 0.010766
6030.0 0.01102
6050.0 0.010339
6070.0 0.0078251
6090.0 0.0070386
6110.0 0.0090564
6130.0 0.010433
6150.0 0.01098
6170.0 0.010711
6190.0 0.01009
6210.0 0.009887
6230.0 0.011425
6250.0 0.010561
6270.0 0.0096585
6290.0 0.0088747
6310.0 0.0083946
6330.0 0.0079879
6350.0 0.0070019
6370.0 0.0069569
6390.0 0.0082446
6410.0 0.01024
6430.0 0.011758
6450.0 0.011089
6470.0 0.01088
6490.0 0.013547
6510.0 0.015499
6530.0 0.014683
6550.0 0.014134
6570.0 0.014351
6590.0 0.013904
6610.0 0.015104
6630.0 0.014222
6650.0 0.012604
6670.0 0.011361
6690.0 0.011002
6710.0 0.013435
6730.0 0.012355
6750.0 0.010637
6770.0 0.0095932
6790.0 0.010054
6810.0 0.011119
6830.0 0.010853
6850.0 0.0098792
6870.0 0.010203
6890.0 0.010018
6910.0 0.0094576
6930.0 0.010835
6950.0 0.010053
6970.0 0.0094291
6990.0 0.0094188
7010.0 0.0090155
7030.0 0.0084908
7050.0 0.00819
7070.0 0.008848
7090.0 0.008384
7110.0 0.0072753
7130.0 0.0058922
7150.0 0.0053488
7170.0 0.0070825
7190.0 0.0077181
7210.0 0.0074658
7230.0 0.0077699
7250.0 0.0072428
7270.0 0.0068995
7290.0 0.0076257
7310.0 0.0084948
7330.0 0.0083371
7350.0 0.0078271
7370.0 0.0074836
7390.0 0.0078402
7410.0 0.0091381
7430.0 0.0099937
7450.0 0.010642
7470.0 0.010464
7490.0 0.010745
7510.0 0.010318
7530.0 0.010332
7550.0 0.010205
7570.0 0.009002
7590.0 0.0089233
7610.0 0.0086792
7630.0 0.0080942
7650.0 0.0088922
7670.0 0.0097169
7690.0 0.010561
7710.0 0.011783
7730.0 0.012567
7750.0 0.013147
7770.0 0.013162
7790.0 0.014375
7810.0 0.014852
7830.0 0.013756
7850.0 0.013868
7870.0 0.013222
7890.0 0.013817
7910.0 0.013114
7930.0 0.013222
7950.0 0.011755
7970.0 0.012069
7990.0 0.011588
8010.0 0.011596
8030.0 0.011562
8050.0 0.01213
8070.0 0.011715
8090.0 0.011758
8110.0 0.011474
8130.0 0.01148
8150.0 0.011005
8170.0 0.010713
8190.0 0.010593
8210.0 0.010684
8230.0 0.0095266
8250.0 0.0087347
8270.0 0.007672
8290.0 0.0063837
8310.0 0.0054518
8330.0 0.0043531
8350.0 0.0036693
8370.0 0.0037894
8390.0 0.0038876
8410.0 0.0041315
8430.0 0.0050367
8450.0 0.0053921
8470.0 0.0057022
8490.0 0.0065355
8510.0 0.0071334
8530.0 0.008227
8550.0 0.0097349
8570.0 0.010864
8590.0 0.01167
8610.0 0.012746
8630.0 0.014015
8650.0 0.014255
8670.0 0.014416
8690.0 0.014985
8710.0 0.014848
8730.0 0.01472
8750.0 0.013951
8770.0 0.013973
8790.0 0.013793
8810.0 0.012746
8830.0 0.012734
8850.0 0.011969
8870.0 0.011511
8890.0 0.010556
8910.0 0.011301
8930.0 0.010363
8950.0 0.010191
8970.0 0.01022
8990.0 0.0098941
9010.0 0.010057
9030.0 0.009656
9050.0 0.0096029
9070.0 0.0095908
9090.0 0.009577
9110.0 0.0095665
9130.0 0.0095495
9150.0 0.0095295
9170.0 0.009487
9190.0 0.0094088
9210.0 0.0095153
9230.0 0.0094646
9250.0 0.009428
9270.0 0.0093936
9290.0 0.0093603
9310.0 0.0093281
9330.0 0.0092958
9350.0 0.0092628
9370.0 0.0092294
9390.0 0.0091952
9410.0 0.00916
9430.0 0.0091238
9450.0 0.0090865
9470.0 0.0090486
9490.0 0.0090109
9510.0 0.0089723
9530.0 0.0089332
9550.0 0.0088933
9570.0 0.0088529
9590.0 0.0088122
9610.0 0.008771
9630.0 0.0087295
9650.0 0.0086877
9670.0 0.0086459
9690.0 0.0086037
9710.0 0.0085614
9730.0 0.0085191
9750.0 0.0084768
9770.0 0.0084344
9790.0 0.0083921
9810.0 0.0083498
9830.0 0.0083077
9850.0 0.0082658
9870.0 0.008224
9890.0 0.0081825
9910.0 0.0081412
9930.0 0.0080998
9950.0 0.0080348
9970.0 0.0080016
9990.0 0.0079675
10010.0 0.007933
10030.0 0.0078969
10050.0 0.0078581
10070.0 0.0078117
10090.0 0.0077782
10110.0 0.0077433
10130.0 0.0077086
10150.0 0.0076742
10170.0 0.007639
10190.0 0.0076031
10210.0 0.0075689
10230.0 0.0075356
10250.0 0.0075017
10270.0 0.0074685
10290.0 0.0074371
10310.0 0.0074052
10330.0 0.007373
10350.0 0.0073428
10370.0 0.0073134
10390.0 0.0072835
10410.0 0.0072545
10430.0 0.0072274
10450.0 0.0071999
10470.0 0.0071725
10490.0 0.0071467
10510.0 0.0071216
10530.0 0.0070956
10550.0 0.007071
10570.0 0.0070479
10590.0 0.0070247
10610.0 0.0070016
10630.0 0.0069802
10650.0 0.0069593
10670.0 0.0069378
10690.0 0.0069175
10710.0 0.0068985
10730.0 0.0068792
10750.0 0.0068598
10770.0 0.0068425
10790.0 0.0068255
10810.0 0.0068081
10830.0 0.0067915
10850.0 0.0067759
10870.0 0.0067583
10890.0 0.0067392
10910.0 0.0067182
10930.0 0.0066916
10950.0 0.0066547
10970.0 0.0066069
10990.0 0.0065474
11010.0 0.0064292
11030.0 0.0063386
11050.0 0.0062341
11070.0 0.0061141
11090.0 0.0059755
11110.0 0.0058373
11130.0 0.0056985
11150.0 0.0055549
11170.0 0.0054131
11190.0 0.0052815
11210.0 0.0051511
11230.0 0.0050227
11250.0 0.0049049
11270.0 0.0047954
11290.0 0.0046883
11310.0 0.0045887
11330.0 0.0045021
11350.0 0.0044197
11370.0 0.004342
11390.0 0.0042727
11410.0 0.0042091
11430.0 0.0041452
11450.0 0.0040854
11470.0 0.0040292
11490.0 0.0039718
11510.0 0.0039115
11530.0 0.0038526
11550.0 0.003792
11570.0 0.0037254
11590.0 0.0036563
11610.0 0.0035865
11630.0 0.0035103
11650.0 0.0034285
11670.0 0.0033484
11690.0 0.0032665
11710.0 0.0031802
11730.0 0.0030948
11750.0 0.003014
11770.0 0.0029311
11790.0 0.0028496
11810.0 0.0027742
11830.0 0.0027025
11850.0 0.0026305
11870.0 0.0025654
11890.0 0.0025069
11910.0 0.0024503
11930.0 0.0023967
11950.0 0.0023492
11970.0 0.0023041
11990.0 0.0022595
12010.0 0.0022188
12030.0 0.0021812
12050.0 0.002144
12070.0 0.0021074
12090.0 0.0020754
12110.0 0.0020444
12130.0 0.0020141
12150.0 0.0019869
12170.0 0.0019634
12190.0 0.001941
12210.0 0.0019228
12230.0 0.0019101
12250.0 0.001902
12270.0 0.0018993
12290.0 0.0019034
12310.0 0.0019141
12330.0 0.0019318
12350.0 0.0019567
12370.0 0.0019877
12390.0 0.0020252
12410.0 0.0020701
12430.0 0.0021179
12450.0 0.0021688
12470.0 0.0022234
12490.0 0.0022791
12510.0 0.0023329
12530.0 0.002387
12550.0 0.00244
12570.0 0.0024889
12590.0 0.0025341
12610.0 0.0025767
12630.0 0.0026148
12650.0 0.0026475
12670.0 0.0026766
12690.0 0.0027016
12710.0 0.0027222
12730.0 0.002739
12750.0 0.0027521
12770.0 0.0027614
12790.0 0.0027676
12810.0 0.0027703
12830.0 0.0027694
12850.0 0.0027661
12870.0 0.00276
12890.0 0.0027501
12910.0 0.0027377
12930.0 0.0027233
12950.0 0.0027049
12970.0 0.002683
12990.0 0.0026599
13010.0 0.0026341
13030.0 0.0026045
13050.0 0.002573
13070.0 0.0025412
13090.0 0.0025058
13110.0 0.0024686
13130.0 0.0024322
13150.0 0.0023956
13170.0 0.0023573
13190.0 0.0023221
13210.0 0.0022904
13230.0 0.0022604
13250.0 0.002234
13270.0 0.0022132
13290.0 0.0021966
13310.0 0.0021842
13330.0 0.0021774
13350.0 0.0021752
13370.0 0.0021766
13390.0 0.0021811
13410.0 0.0021876
13430.0 0.0021948
13450.0 0.0022017
13470.0 0.0022069
13490.0 0.0022096
13510.0 0.0022086
13530.0 0.0022033
13550.0 0.0021941
13570.0 0.0021804
13590.0 0.0021618
13610.0 0.0021403
13630.0 0.0021166
13650.0 0.0020895
13670.0 0.0020612
13690.0 0.0020333
13710.0 0.002005
13730.0 0.0019758
13750.0 0.0019496
13770.0 0.0019248
13790.0 0.0019007
13810.0 0.0018782
13830.0 0.0018581
13850.0 0.0018383
13870.0 0.0018192
13890.0 0.0018016
13910.0 0.0017846
13930.0 0.0017673
13950.0 0.0017504
13970.0 0.0017346
13990.0 0.0017187
14010.0 0.0017029
14030.0 0.0016881
14050.0 0.0016741
14070.0 0.0016603
14090.0 0.0016479
14110.0 0.0016369
14130.0 0.0016269
14150.0 0.0016183
14170.0 0.0016113
14190.0 0.0016057
14210.0 0.0016015
14230.0 0.0015988
14250.0 0.0015975
14270.0 0.0015976
14290.0 0.0015993
14310.0 0.0016021
14330.0 0.0016061
14350.0 0.0016114
14370.0 0.0016174
14390.0 0.0016237
14410.0 0.0016309
14430.0 0.0016383
14450.0 0.0016451
14470.0 0.0016517
14490.0 0.0016582
14510.0 0.0016635
14530.0 0.0016678
14550.0 0.0016718
14570.0 0.0016751
14590.0 0.0016778
14610.0 0.0016806
14630.0 0.001684
14650.0 0.0016877
14670.0 0.0016924
14690.0 0.0016989
14710.0 0.0017076
14730.0 0.0017175
14750.0 0.0017301
14770.0 0.0017459
14790.0 0.0017638
14810.0 0.0017836
14830.0 0.0018077
14850.0 0.0018337
14870.0 0.0018601
14890.0 0.0018881
14910.0 0.0019172
14930.0 0.0019439
14950.0 0.0019675
14970.0 0.0019886
14990.0 0.0020043
15010.0 0.0020138
15030.0 0.0020182
15050.0 0.0020177
15070.0 0.0020126
15090.0 0.0020046
15110.0 0.0019945
15130.0 0.0019832
15150.0 0.0019712
15170.0 0.0019589
15190.0 0.0019463
15210.0 0.0019337
15230.0 0.0019212
15250.0 0.0019085
15270.0 0.0018958
15290.0 0.0018833
15310.0 0.0018707
15330.0 0.0018581
15350.0 0.0018457
15370.0 0.0018332
15390.0 0.0018206
15410.0 0.0018081
15430.0 0.0017958
15450.0 0.0017833
15470.0 0.0017709
15490.0 0.0017587
15510.0 0.0017464
15530.0 0.0017341
15550.0 0.0017219
15570.0 0.0017099
15590.0 0.0016977
15610.0 0.0016856
15630.0 0.0016737
15650.0 0.0016618
15670.0 0.0016498
15690.0 0.001638
15710.0 0.0016264
15730.0 0.0016146
15750.0 0.001603
15770.0 0.0015914
15790.0 0.00158
15810.0 0.0015684
15830.0 0.0015571
15850.0 0.0015459
15870.0 0.0015346
15890.0 0.0015234
15910.0 0.0015125
15930.0 0.0015015
15950.0 0.0014905
15970.0 0.0014796
15990.0 0.0014689
16010.0 0.0014582
16030.0 0.0014475
16050.0 0.0014371
16070.0 0.0014266
16090.0 0.0014162
16110.0 0.001406
16130.0 0.0013958
16150.0 0.0013856
16170.0 0.0013755
16190.0 0.0013656
16210.0 0.0013558
16230.0 0.0013459
16250.0 0.0013363
16270.0 0.0013267
16290.0 0.0013171
16310.0 0.0013076
16330.0 0.0012983
16350.0 0.0012891
16370.0 0.0012797
16390.0 0.0012707
16410.0 0.0012617
16430.0 0.0012527
16450.0 0.0012438
16470.0 0.0012351
16490.0 0.0012264
16510.0 0.0012178
16530.0 0.0012093
16550.0 0.0012009
16570.0 0.0011924
16590.0 0.0011841
16610.0 0.001176
16630.0 0.0011679
16650.0 0.0011598
16670.0 0.0011519
16690.0 0.0011441
16710.0 0.0011363
16730.0 0.0011286
16750.0 0.001121
16770.0 0.0011134
16790.0 0.0011059
16810.0 0.0010986
16830.0 0.0010913
16850.0 0.001084
16870.0 0.0010769
16890.0 0.0010699
16910.0 0.0010628
16930.0 0.0010559
16950.0 0.0010491
16970.0 0.0010423
16990.0 0.0010356
17010.0 0.001029
17030.0 0.0010225
17050.0 0.001016
17070.0 0.0010095
17090.0 0.0010032
17110.0 0.00099698
17130.0 0.00099071
17150.0 0.00098459
17170.0 0.00097859
17190.0 0.00097258
17210.0 0.00096664
17230.0 0.00096085
17250.0 0.00095507
17270.0 0.00094928
17290.0 0.00094364
17310.0 0.00093809
17330.0 0.00093253
17350.0 0.00092702
17370.0 0.00092169
17390.0 0.00091636
17410.0 0.00091104
17430.0 0.00090585
17450.0 0.00090075
17470.0 0.00089558
17490.0 0.00089052
17510.0 0.00088559
17530.0 0.00088067
17550.0 0.00087575
17570.0 0.00087098
17590.0 0.00086627
17610.0 0.00086153
17630.0 0.00085688
17650.0 0.00085234
17670.0 0.0008478
17690.0 0.00084323
17710.0 0.00083884
17730.0 0.0008345
17750.0 0.00083014
17770.0 0.00082585
17790.0 0.00082169
17810.0 0.00081749
17830.0 0.00081331
17850.0 0.00080926
17870.0 0.00080525
17890.0 0.00080121
17910.0 0.00079725
17930.0 0.00079341
17950.0 0.00078955
17970.0 0.00078572
17990.0 0.000782
18010.0 0.00077831
18030.0 0.00077456
18050.0 0.00077093
18070.0 0.00076738
18090.0 0.00076381
18110.0 0.00076026
18130.0 0.00075684
18150.0 0.00075344
18170.0 0.00075001
18190.0 0.00074666
18210.0 0.0007434
18230.0 0.00074009
18250.0 0.0007368
18270.0 0.00073365
18290.0 0.0007305
18310.0 0.00072733
18330.0 0.00072425
18350.0 0.00072125
18370.0 0.00071819
18390.0 0.00071518
18410.0 0.00071226
18430.0 0.00070934
18450.0 0.00070639
18470.0 0.00070354
18490.0 0.00070076
18510.0 0.00069795
18530.0 0.00069516
18550.0 0.00069249
18570.0 0.00068978
18590.0 0.00068705
18610.0 0.00068442
18630.0 0.00068184
18650.0 0.00067922
18670.0 0.00067662
18690.0 0.00067415
18710.0 0.00067165
18730.0 0.00066914
18750.0 0.00066671
18770.0 0.00066433
18790.0 0.00066186
18810.0 0.00065946
18830.0 0.00065716
18850.0 0.00065483
18870.0 0.00065249
18890.0 0.00065024
18910.0 0.00064802
18930.0 0.00064575
18950.0 0.00064353
18970.0 0.00064139
18990.0 0.00063922
19010.0 0.000637
19030.0 0.00063492
19050.0 0.00063284
19070.0 0.00063073
19090.0 0.00062867
19110.0 0.00062669
19130.0 0.00062464
19150.0 0.0006226
19170.0 0.00062064
19190.0 0.0006187
19210.0 0.00061671
19230.0 0.00061476
19250.0 0.00061291
19270.0 0.00061101
19290.0 0.00060911
19310.0 0.00060729
19330.0 0.00060547
19350.0 0.00060357
19370.0 0.00060177
19390.0 0.00060001
19410.0 0.00059822
19430.0 0.00059642
19450.0 0.00059472
19470.0 0.000593
19490.0 0.00059124
19510.0 0.00058955
19530.0 0.0005879
19550.0 0.00058618
19570.0 0.00058447
19590.0 0.00058286
19610.0 0.00058123
19630.0 0.00057957
19650.0 0.00057797
19670.0 0.00057642
19690.0 0.00057479
19710.0 0.00057319
19730.0 0.00057166
19750.0 0.00057011
19770.0 0.0005685
19790.0 0.00056698
19810.0 0.00056549
19830.0 0.00056394
19850.0 0.00056239
19870.0 0.00056086
19890.0 0.00055919
19910.0 0.00055727
19930.0 0.00055514
19950.0 0.00055256
19970.0 0.00054921
19990.0 0.00054499
20010.0 0.00054007
20030.0 0.00053398
20050.0 0.00052676
20070.0 0.00051892
20090.0 0.00051049
20110.0 0.00050099
20130.0 0.00049145
20150.0 0.00048208
20170.0 0.00047243
20190.0 0.00046271
20210.0 0.00045361
20230.0 0.00044478
20250.0 0.00043596
20270.0 0.00042782
20290.0 0.00042045
20310.0 0.00041349
20330.0 0.00040706
20350.0 0.00040184
20370.0 0.00039735
20390.0 0.0003936
20410.0 0.00039084
20430.0 0.00038905
20450.0 0.00038806
20470.0 0.00038804
20490.0 0.00038889
20510.0 0.00039057
20530.0 0.00039311
20550.0 0.00039634
20570.0 0.00040006
20590.0 0.00040446
20610.0 0.00040933
20630.0 0.00041437
20650.0 0.00041968
20670.0 0.00042537
20690.0 0.00043081
20710.0 0.00043606
20730.0 0.00044126
20750.0 0.00044616
20770.0 0.00045046
20790.0 0.00045441
20810.0 0.00045794
20830.0 0.00046084
20850.0 0.00046316
20870.0 0.00046499
20890.0 0.00046623
20910.0 0.00046691
20930.0 0.00046711
20950.0 0.00046682
20970.0 0.00046613
20990.0 0.00046509
21010.0 0.00046362
21030.0 0.00046185
21050.0 0.00045987
21070.0 0.00045762
21090.0 0.00045506
21110.0 0.00045248
21130.0 0.0004498
21150.0 0.00044693
21170.0 0.00044405
21190.0 0.00044129
21210.0 0.00043847
21230.0 0.00043569
21250.0 0.00043318
21270.0 0.00043088
21290.0 0.00042873
21310.0 0.00042689
21330.0 0.00042546
21350.0 0.00042429
21370.0 0.0004235
21390.0 0.00042311
21410.0 0.00042311
21430.0 0.00042351
21450.0 0.00042431
21470.0 0.00042546
21490.0 0.00042699
21510.0 0.00042888
21530.0 0.00043101
21550.0 0.00043341
21570.0 0.00043617
21590.0 0.00043909
21610.0 0.00044214
21630.0 0.00044545
21650.0 0.00044902
21670.0 0.00045249
21690.0 0.00045613
21710.0 0.00045998
21730.0 0.00046386
21750.0 0.0004677
21770.0 0.00047185
21790.0 0.00047607
21810.0 0.00048023
21830.0 0.00048451
21850.0 0.00048901
21870.0 0.00049346
21890.0 0.00049784
21910.0 0.00050244
21930.0 0.00050706
21950.0 0.00051154
21970.0 0.00051605
21990.0 0.00052071
22010.0 0.00052506
22030.0 0.00052923
22050.0 0.00053333
22070.0 0.00053719
22090.0 0.0005406
22110.0 0.00054376
22130.0 0.00054659
22150.0 0.00054888
22170.0 0.00055067
22190.0 0.00055196
22210.0 0.00055262
22230.0 0.00055265
22250.0 0.00055204
22270.0 0.00055072
22290.0 0.00054879
22310.0 0.00054623
22330.0 0.00054284
22350.0 0.00053883
22370.0 0.00053434
22390.0 0.00052917
22410.0 0.00052324
22430.0 0.00051712
22450.0 0.00051062
22470.0 0.00050349
22490.0 0.00049614
22510.0 0.00048883
22530.0 0.00048102
22550.0 0.00047298
22570.0 0.00046525
22590.0 0.00045757
22610.0 0.00044971
22630.0 0.00044211
22650.0 0.00043504
22670.0 0.00042792
22690.0 0.00042101
22710.0 0.00041465
22730.0 0.0004086
22750.0 0.00040256
22770.0 0.00039711
22790.0 0.00039214
22810.0 0.00038736
22830.0 0.00038286
22850.0 0.00037888
22870.0 0.00037515
22890.0 0.00037158
22910.0 0.0003684
22930.0 0.00036557
22950.0 0.00036291
22970.0 0.00036047
22990.0 0.00035845
23010.0 0.00035664
23030.0 0.00035503
23050.0 0.00035372
23070.0 0.00035267
23090.0 0.0003518
23110.0 0.00035117
23130.0 0.00035078
23150.0 0.00035058
23170.0 0.00035055
23190.0 0.00035069
23210.0 0.00035096
23230.0 0.00035136
23250.0 0.00035187
23270.0 0.00035245
23290.0 0.00035312
23310.0 0.00035388
23330.0 0.00035467
23350.0 0.00035549
23370.0 0.00035638
23390.0 0.0003573
23410.0 0.0003582
23430.0 0.00035914
23450.0 0.00036008
23470.0 0.00036097
23490.0 0.00036181
