#lamb flux
1010.0 0.00013245
1030.0 0.00014115
1050.0 0.00015868
1070.0 0.00017834
1090.0 0.00019889
1110.0 0.00022003
1130.0 0.00024127
1150.0 0.00026349
1170.0 0.00028621
1190.0 0.00030722
1210.0 0.00032794
1230.0 0.00034862
1250.0 0.00036824
1270.0 0.0003861
1290.0 0.000404
1310.0 0.00042066
1330.0 0.00043528
1350.0 0.00044921
1370.0 0.00046312
1390.0 0.00047612
1410.0 0.00048853
1430.0 0.00050222
1450.0 0.00051671
1470.0 0.00053175
1490.0 0.00054859
1510.0 0.00056846
1530.0 0.00058958
1550.0 0.00061302
1570.0 0.00063994
1590.0 0.00066995
1610.0 0.00070242
1630.0 0.00073946
1650.0 0.00078053
1670.0 0.00082438
1690.0 0.00087132
1710.0 0.00092234
1730.0 0.00097651
1750.0 0.0010318
1770.0 0.0010898
1790.0 0.00115
1810.0 0.0012101
1830.0 0.0012698
1850.0 0.0013304
1870.0 0.0013885
1890.0 0.0014431
1910.0 0.0014948
1930.0 0.0015427
1950.0 0.0015841
1970.0 0.0016191
1990.0 0.0016488
2010.0 0.0016711
2030.0 0.0016853
2050.0 0.0016932
2070.0 0.0016948
2090.0 0.0016881
2110.0 0.0016751
2130.0 0.0016575
2150.0 0.0016345
2170.0 0.0016064
2190.0 0.0015762
2210.0 0.0015438
2230.0 0.0015092
2250.0 0.0014739
2270.0 0.0014399
2290.0 0.0014061
2310.0 0.0013731
2330.0 0.001343
2350.0 0.0013156
2370.0 0.0012907
2390.0 0.0012695
2410.0 0.0012534
2430.0 0.0012414
2450.0 0.0012344
2470.0 0.0012339
2490.0 0.0012408
2510.0 0.001254
2530.0 0.0012774
2550.0 0.0013163
2570.0 0.0013751
2590.0 0.0014603
2610.0 0.001592
2630.0 0.0017754
2650.0 0.002004
2670.0 0.0022841
2690.0 0.0026106
2710.0 0.0029461
2730.0 0.0032716
2750.0 0.0035919
2770.0 0.0038825
2790.0 0.0041385
2810.0 0.0043785
2830.0 0.0046184
2850.0 0.0048527
2870.0 0.0050982
2890.0 0.0053673
2910.0 0.0056573
2930.0 0.0059614
2950.0 0.0062939
2970.0 0.0066534
2990.0 0.0070287
3010.0 0.0084124
3030.0 0.0088938
3050.0 0.0093961
3070.0 0.0098965
3090.0 0.010403
3110.0 0.010887
3130.0 0.01131
3150.0 0.011657
3170.0 0.011877
3190.0 0.012254
3210.0 0.013515
3230.0 0.015467
3250.0 0.016278
3270.0 0.015424
3290.0 0.014068
3310.0 0.01336
3330.0 0.013071
3350.0 0.01305
3370.0 0.013118
3390.0 0.013279
3410.0 0.013363
3430.0 0.012946
3450.0 0.012797
3470.0 0.012756
3490.0 0.014281
3510.0 0.018804
3530.0 0.02333
3550.0 0.026584
3570.0 0.029672
3590.0 0.031456
3610.0 0.031251
3630.0 0.030688
3650.0 0.032262
3670.0 0.03682
3690.0 0.042379
3710.0 0.047285
3730.0 0.051371
3750.0 0.055008
3770.0 0.054349
3790.0 0.050579
3810.0 0.046806
3830.0 0.043146
3850.0 0.041661
3870.0 0.043648
3890.0 0.047936
3910.0 0.052327
3930.0 0.057086
3950.0 0.064025
3970.0 0.069041
3990.0 0.066914
4010.0 0.060729
4030.0 0.053362
4050.0 0.048871
4070.0 0.046942
4090.0 0.046002
4110.0 0.046635
4130.0 0.046686
4150.0 0.046894
4170.0 0.048847
4190.0 0.052135
4210.0 0.052082
4230.0 0.051323
4250.0 0.051459
4270.0 0.052948
4290.0 0.055714
4310.0 0.058338
4330.0 0.056796
4350.0 0.051799
4370.0 0.04689
4390.0 0.042011
4410.0 0.037143
4430.0 0.035218
4450.0 0.03593
4470.0 0.03745
4490.0 0.040045
4510.0 0.045694
4530.0 0.05741
4550.0 0.074807
4570.0 0.08743
4590.0 0.09648
4610.0 0.10971
4630.0 0.11985
4650.0 0.11602
4670.0 0.10142
4690.0 0.086081
4710.0 0.075494
4730.0 0.068607
4750.0 0.061874
4770.0 0.056845
4790.0 0.058534
4810.0 0.06316
4830.0 0.065003
4850.0 0.063578
4870.0 0.065137
4890.0 0.069629
4910.0 0.073722
4930.0 0.07637
4950.0 0.076825
4970.0 0.073736
4990.0 0.067304
5010.0 0.060245
5030.0 0.054344
5050.0 0.050429
5070.0 0.047775
5090.0 0.045719
5110.0 0.045095
5130.0 0.045076
5150.0 0.045824
5170.0 0.049202
5190.0 0.05466
5210.0 0.061693
5230.0 0.067841
5250.0 0.073017
5270.0 0.078832
5290.0 0.084893
5310.0 0.088545
5330.0 0.088639
5350.0 0.086422
5370.0 0.08585
5390.0 0.089035
5410.0 0.095176
5430.0 0.10159
5450.0 0.10698
5470.0 0.11036
5490.0 0.11066
5510.0 0.10946
5530.0 0.10818
5550.0 0.10693
5570.0 0.10491
5590.0 0.10247
5610.0 0.099447
5630.0 0.094732
5650.0 0.088134
5670.0 0.082101
5690.0 0.078582
5710.0 0.076667
5730.0 0.07437
5750.0 0.072843
5770.0 0.072723
5790.0 0.073431
5810.0 0.073433
5830.0 0.073569
5850.0 0.073716
5870.0 0.072232
5890.0 0.07039
5910.0 0.068066
5930.0 0.063091
5950.0 0.057195
5970.0 0.053025
5990.0 0.051073
6010.0 0.049918
6030.0 0.048248
6050.0 0.047406
6070.0 0.049305
6090.0 0.052097
6110.0 0.053458
6130.0 0.053006
6150.0 0.051977
6170.0 0.051419
6190.0 0.050807
6210.0 0.049067
6230.0 0.045761
6250.0 0.042555
6270.0 0.040646
6290.0 0.03941
6310.0 0.040291
6330.0 0.043687
6350.0 0.047955
6370.0 0.051024
6390.0 0.053505
6410.0 0.056462
6430.0 0.058729
6450.0 0.06032
6470.0 0.061868
6490.0 0.06339
6510.0 0.064463
6530.0 0.064896
6550.0 0.065265
6570.0 0.064372
6590.0 0.062014
6610.0 0.059728
6630.0 0.057742
6650.0 0.055165
6670.0 0.052119
6690.0 0.049744
6710.0 0.048328
6730.0 0.04691
6750.0 0.045869
6770.0 0.045833
6790.0 0.045867
6810.0 0.045087
6830.0 0.044183
6850.0 0.044453
6870.0 0.044691
6890.0 0.043921
6910.0 0.043514
6930.0 0.043265
6950.0 0.042481
6970.0 0.041342
6990.0 0.040174
7010.0 0.039173
7030.0 0.037927
7050.0 0.035745
7070.0 0.0334
7090.0 0.032958
7110.0 0.034163
7130.0 0.035481
7150.0 0.036431
7170.0 0.03751
7190.0 0.038415
7210.0 0.03827
7230.0 0.038221
7250.0 0.038917
7270.0 0.03858
7290.0 0.037806
7310.0 0.037829
7330.0 0.038956
7350.0 0.04064
7370.0 0.041721
7390.0 0.042468
7410.0 0.043226
7430.0 0.043241
7450.0 0.042608
7470.0 0.041819
7490.0 0.040122
7510.0 0.038392
7530.0 0.037858
7550.0 0.037352
7570.0 0.036871
7590.0 0.036925
7610.0 0.03688
7630.0 0.037039
7650.0 0.038407
7670.0 0.040327
7690.0 0.042146
7710.0 0.043463
7730.0 0.044645
7750.0 0.045833
7770.0 0.046955
7790.0 0.047949
7810.0 0.048241
7830.0 0.047104
7850.0 0.045357
7870.0 0.043572
7890.0 0.041981
7910.0 0.041325
7930.0 0.040614
7950.0 0.03966
7970.0 0.038578
7990.0 0.038007
8010.0 0.035664
8030.0 0.035432
8050.0 0.035134
8070.0 0.034607
8090.0 0.03413
8110.0 0.033925
8130.0 0.033949
8150.0 0.03371
8170.0 0.033289
8190.0 0.032273
8210.0 0.030527
8230.0 0.028899
8250.0 0.028125
8270.0 0.026956
8290.0 0.024813
8310.0 0.022714
8330.0 0.021354
8350.0 0.020664
8370.0 0.02128
8390.0 0.022901
8410.0 0.024413
8430.0 0.025911
8450.0 0.027847
8470.0 0.029555
8490.0 0.031427
8510.0 0.033288
8530.0 0.035107
8550.0 0.036556
8570.0 0.037609
8590.0 0.038418
8610.0 0.039219
8630.0 0.039347
8650.0 0.038589
8670.0 0.038614
8690.0 0.039926
8710.0 0.041637
8730.0 0.042147
8750.0 0.041458
8770.0 0.041422
8790.0 0.04133
8810.0 0.04013
8830.0 0.037185
8850.0 0.033577
8870.0 0.030944
8890.0 0.029932
8910.0 0.028803
8930.0 0.026796
8950.0 0.025051
8970.0 0.024477
8990.0 0.02471
9010.0 0.024647
9030.0 0.024373
9050.0 0.024175
9070.0 0.024042
9090.0 0.023919
9110.0 0.023799
9130.0 0.023679
9150.0 0.023561
9170.0 0.023442
9190.0 0.02333
9210.0 0.023226
9230.0 0.023106
9250.0 0.02299
9270.0 0.022877
9290.0 0.022765
9310.0 0.022655
9330.0 0.022546
9350.0 0.022439
9370.0 0.022332
9390.0 0.022227
9410.0 0.022122
9430.0 0.022015
9450.0 0.021888
9470.0 0.021769
9490.0 0.021691
9510.0 0.021602
9530.0 0.021512
9550.0 0.021417
9570.0 0.021322
9590.0 0.021228
9610.0 0.021133
9630.0 0.021038
9650.0 0.020944
9670.0 0.020853
9690.0 0.02076
9710.0 0.020668
9730.0 0.020578
9750.0 0.020488
9770.0 0.020395
9790.0 0.020306
9810.0 0.020218
9830.0 0.020128
9850.0 0.020035
9870.0 0.019949
9890.0 0.019862
9910.0 0.019774
9930.0 0.019687
9950.0 0.019581
9970.0 0.019498
9990.0 0.019413
10010.0 0.019326
10030.0 0.019239
10050.0 0.019154
10070.0 0.019069
10090.0 0.018985
10110.0 0.018889
10130.0 0.01876
10150.0 0.018679
10170.0 0.018604
10190.0 0.018519
10210.0 0.018436
10230.0 0.018352
10250.0 0.01826
10270.0 0.018167
10290.0 0.018078
10310.0 0.017983
10330.0 0.017883
10350.0 0.017788
10370.0 0.017694
10390.0 0.017593
10410.0 0.017492
10430.0 0.017396
10450.0 0.017295
10470.0 0.017189
10490.0 0.017087
10510.0 0.016986
10530.0 0.016873
10550.0 0.016764
10570.0 0.01666
10590.0 0.016549
10610.0 0.016434
10630.0 0.016324
10650.0 0.016212
10670.0 0.016091
10690.0 0.015973
10710.0 0.015857
10730.0 0.015735
10750.0 0.015606
10770.0 0.015486
10790.0 0.015362
10810.0 0.015231
10830.0 0.015102
10850.0 0.014977
10870.0 0.01484
10890.0 0.014702
10910.0 0.01457
10930.0 0.014434
10950.0 0.014291
10970.0 0.014152
10990.0 0.014018
11010.0 0.013788
11030.0 0.013638
11050.0 0.013498
11070.0 0.013359
11090.0 0.013216
11110.0 0.013087
11130.0 0.012964
11150.0 0.012841
11170.0 0.012724
11190.0 0.012618
11210.0 0.012515
11230.0 0.012415
11250.0 0.012325
11270.0 0.012242
11290.0 0.012162
11310.0 0.012087
11330.0 0.012022
11350.0 0.011958
11370.0 0.011897
11390.0 0.011839
11410.0 0.011783
11430.0 0.011723
11450.0 0.011661
11470.0 0.011599
11490.0 0.01153
11510.0 0.011453
11530.0 0.011374
11550.0 0.011288
11570.0 0.011192
11590.0 0.01109
11610.0 0.010984
11630.0 0.010866
11650.0 0.010739
11670.0 0.01061
11690.0 0.010474
11710.0 0.010327
11730.0 0.010175
11750.0 0.010021
11770.0 0.0098561
11790.0 0.0096819
11810.0 0.009507
11830.0 0.0093269
11850.0 0.0091323
11870.0 0.008939
11890.0 0.008749
11910.0 0.0085519
11930.0 0.0083526
11950.0 0.0081623
11970.0 0.0079735
11990.0 0.007782
12010.0 0.0076012
12030.0 0.0074308
12050.0 0.0072634
12070.0 0.0071017
12090.0 0.0069579
12110.0 0.0068213
12130.0 0.0066912
12150.0 0.0065741
12170.0 0.0064701
12190.0 0.0063719
12210.0 0.0062865
12230.0 0.0062153
12250.0 0.006155
12270.0 0.0061056
12290.0 0.0060691
12310.0 0.0060438
12330.0 0.0060285
12350.0 0.0060231
12370.0 0.0060256
12390.0 0.0060354
12410.0 0.0060529
12430.0 0.0060734
12450.0 0.0060968
12470.0 0.0061238
12490.0 0.0061522
12510.0 0.0061789
12530.0 0.0062065
12550.0 0.006234
12570.0 0.006258
12590.0 0.0062787
12610.0 0.0062972
12630.0 0.0063106
12650.0 0.0063169
12670.0 0.0063175
12690.0 0.0063109
12710.0 0.0062959
12730.0 0.0062728
12750.0 0.0062402
12770.0 0.0061987
12790.0 0.0061496
12810.0 0.0060921
12830.0 0.0060261
12850.0 0.0059564
12870.0 0.0058827
12890.0 0.0058035
12910.0 0.0057232
12930.0 0.0056443
12950.0 0.0055634
12970.0 0.0054826
12990.0 0.0054069
13010.0 0.0053336
13030.0 0.0052614
13050.0 0.0051933
13070.0 0.00513
13090.0 0.0050678
13110.0 0.0050082
13130.0 0.0049528
13150.0 0.0049
13170.0 0.0048479
13190.0 0.0047997
13210.0 0.0047548
13230.0 0.0047112
13250.0 0.0046695
13270.0 0.004631
13290.0 0.0045938
13310.0 0.0045573
13330.0 0.0045228
13350.0 0.0044897
13370.0 0.0044565
13390.0 0.004423
13410.0 0.0043908
13430.0 0.0043577
13450.0 0.0043232
13470.0 0.0042882
13490.0 0.0042529
13510.0 0.0042145
13530.0 0.004175
13550.0 0.0041353
13570.0 0.0040939
13590.0 0.0040503
13610.0 0.0040068
13630.0 0.0039636
13650.0 0.0039183
13670.0 0.0038729
13690.0 0.0038288
13710.0 0.0037842
13730.0 0.0037379
13750.0 0.0036943
13770.0 0.0036515
13790.0 0.003608
13810.0 0.0035655
13830.0 0.0035253
13850.0 0.0034848
13870.0 0.0034447
13890.0 0.003407
13910.0 0.003371
13930.0 0.0033353
13950.0 0.0033015
13970.0 0.003271
13990.0 0.0032415
14010.0 0.0032136
14030.0 0.0031882
14050.0 0.0031648
14070.0 0.0031418
14090.0 0.0031209
14110.0 0.0031019
14130.0 0.0030835
14150.0 0.0030658
14170.0 0.0030496
14190.0 0.0030342
14210.0 0.0030188
14230.0 0.0030043
14250.0 0.0029905
14270.0 0.0029767
14290.0 0.002963
14310.0 0.0029502
14330.0 0.0029376
14350.0 0.0029249
14370.0 0.0029126
14390.0 0.0029009
14410.0 0.0028889
14430.0 0.002877
14450.0 0.0028657
14470.0 0.0028546
14490.0 0.002843
14510.0 0.002832
14530.0 0.0028215
14550.0 0.0028105
14570.0 0.0027994
14590.0 0.0027886
14610.0 0.0027773
14630.0 0.0027654
14650.0 0.0027538
14670.0 0.0027427
14690.0 0.0027318
14710.0 0.0027221
14730.0 0.002715
14750.0 0.0027104
14770.0 0.0027095
14790.0 0.0027135
14810.0 0.0027229
14830.0 0.0027394
14850.0 0.0027633
14870.0 0.0027937
14890.0 0.0028315
14910.0 0.0028765
14930.0 0.0029243
14950.0 0.0029728
14970.0 0.0030222
14990.0 0.0030673
15010.0 0.0031054
15030.0 0.0031372
15050.0 0.0031627
15070.0 0.0031808
15090.0 0.0031945
15110.0 0.0032052
15130.0 0.0032139
15150.0 0.0032215
15170.0 0.0032286
15190.0 0.0032356
15210.0 0.0032427
15230.0 0.0032498
15250.0 0.0032571
15270.0 0.0032646
15290.0 0.0032722
15310.0 0.00328
15330.0 0.0032879
15350.0 0.0032959
15370.0 0.0033041
15390.0 0.0033125
15410.0 0.003321
15430.0 0.0033296
15450.0 0.0033384
15470.0 0.0033473
15490.0 0.0033564
15510.0 0.0033655
15530.0 0.0033749
15550.0 0.0033843
15570.0 0.0033939
15590.0 0.0034036
15610.0 0.0034134
15630.0 0.0034234
15650.0 0.0034334
15670.0 0.0034436
15690.0 0.0034539
15710.0 0.0034643
15730.0 0.0034748
15750.0 0.0034854
15770.0 0.0034962
15790.0 0.003507
15810.0 0.0035179
15830.0 0.0035289
15850.0 0.00354
15870.0 0.0035512
15890.0 0.0035625
15910.0 0.0035739
15930.0 0.0035853
15950.0 0.0035968
15970.0 0.0036084
15990.0 0.0036201
16010.0 0.0036318
16030.0 0.0036436
16050.0 0.0036554
16070.0 0.0036673
16090.0 0.0036793
16110.0 0.0036913
16130.0 0.0037033
16150.0 0.0037154
16170.0 0.0037275
16190.0 0.0037397
16210.0 0.0037519
16230.0 0.003764
16250.0 0.0037763
16270.0 0.0037885
16290.0 0.0038008
16310.0 0.003813
16330.0 0.0038253
16350.0 0.0038376
16370.0 0.0038498
16390.0 0.003862
16410.0 0.0038743
16430.0 0.0038865
16450.0 0.0038987
16470.0 0.0039109
16490.0 0.003923
16510.0 0.0039351
16530.0 0.0039471
16550.0 0.0039592
16570.0 0.0039711
16590.0 0.003983
16610.0 0.0039949
16630.0 0.0040067
16650.0 0.0040184
16670.0 0.00403
16690.0 0.0040416
16710.0 0.0040531
16730.0 0.0040645
16750.0 0.0040758
16770.0 0.004087
16790.0 0.0040981
16810.0 0.0041091
16830.0 0.00412
16850.0 0.0041308
16870.0 0.0041415
16890.0 0.004152
16910.0 0.0041624
16930.0 0.0041727
16950.0 0.0041828
16970.0 0.0041928
16990.0 0.0042027
17010.0 0.0042124
17030.0 0.004222
17050.0 0.0042314
17070.0 0.0042406
17090.0 0.0042497
17110.0 0.0042585
17130.0 0.0042672
17150.0 0.0042758
17170.0 0.0042842
17190.0 0.0042923
17210.0 0.0043003
17230.0 0.0043081
17250.0 0.0043157
17270.0 0.004323
17290.0 0.0043302
17310.0 0.0043372
17330.0 0.0043439
17350.0 0.0043504
17370.0 0.0043568
17390.0 0.0043628
17410.0 0.0043687
17430.0 0.0043743
17450.0 0.0043798
17470.0 0.0043849
17490.0 0.0043898
17510.0 0.0043945
17530.0 0.004399
17550.0 0.0044031
17570.0 0.0044071
17590.0 0.0044108
17610.0 0.0044142
17630.0 0.0044174
17650.0 0.0044204
17670.0 0.004423
17690.0 0.0044254
17710.0 0.0044276
17730.0 0.0044295
17750.0 0.0044311
17770.0 0.0044324
17790.0 0.0044335
17810.0 0.0044343
17830.0 0.0044348
17850.0 0.0044351
17870.0 0.0044351
17890.0 0.0044348
17910.0 0.0044342
17930.0 0.0044334
17950.0 0.0044323
17970.0 0.0044309
17990.0 0.0044292
18010.0 0.0044273
18030.0 0.004425
18050.0 0.0044225
18070.0 0.0044197
18090.0 0.0044167
18110.0 0.0044133
18130.0 0.0044097
18150.0 0.0044058
18170.0 0.0044016
18190.0 0.0043972
18210.0 0.0043925
18230.0 0.0043875
18250.0 0.0043822
18270.0 0.0043767
18290.0 0.0043709
18310.0 0.0043648
18330.0 0.0043585
18350.0 0.0043519
18370.0 0.004345
18390.0 0.0043378
18410.0 0.0043304
18430.0 0.0043228
18450.0 0.0043148
18470.0 0.0043067
18490.0 0.0042982
18510.0 0.0042896
18530.0 0.0042806
18550.0 0.0042714
18570.0 0.004262
18590.0 0.0042523
18610.0 0.0042424
18630.0 0.0042323
18650.0 0.0042219
18670.0 0.0042113
18690.0 0.0042004
18710.0 0.0041893
18730.0 0.004178
18750.0 0.0041665
18770.0 0.0041548
18790.0 0.0041428
18810.0 0.0041306
18830.0 0.0041182
18850.0 0.0041056
18870.0 0.0040928
18890.0 0.0040799
18910.0 0.0040667
18930.0 0.0040533
18950.0 0.0040397
18970.0 0.0040259
18990.0 0.004012
19010.0 0.0039978
19030.0 0.0039835
19050.0 0.003969
19070.0 0.0039543
19090.0 0.0039395
19110.0 0.0039245
19130.0 0.0039094
19150.0 0.0038941
19170.0 0.0038786
19190.0 0.003863
19210.0 0.0038472
19230.0 0.0038313
19250.0 0.0038153
19270.0 0.0037991
19290.0 0.0037828
19310.0 0.0037663
19330.0 0.0037498
19350.0 0.0037331
19370.0 0.0037163
19390.0 0.0036994
19410.0 0.0036823
19430.0 0.0036652
19450.0 0.003648
19470.0 0.0036306
19490.0 0.0036132
19510.0 0.0035956
19530.0 0.003578
19550.0 0.0035603
19570.0 0.0035425
19590.0 0.0035247
19610.0 0.0035067
19630.0 0.0034887
19650.0 0.0034706
19670.0 0.0034525
19690.0 0.0034343
19710.0 0.003416
19730.0 0.0033977
19750.0 0.0033793
19770.0 0.0033609
19790.0 0.0033424
19810.0 0.0033239
19830.0 0.0033052
19850.0 0.0032864
19870.0 0.0032673
19890.0 0.0032476
19910.0 0.0032268
19930.0 0.0032043
19950.0 0.0031792
19970.0 0.0031504
19990.0 0.0031169
20010.0 0.0030795
20030.0 0.0030365
20050.0 0.0029883
20070.0 0.0029374
20090.0 0.0028841
20110.0 0.0028269
20130.0 0.00277
20150.0 0.0027144
20170.0 0.0026583
20190.0 0.0026025
20210.0 0.0025494
20230.0 0.0024976
20250.0 0.0024458
20270.0 0.0023965
20290.0 0.0023499
20310.0 0.0023042
20330.0 0.0022597
20350.0 0.0022192
20370.0 0.0021805
20390.0 0.0021433
20410.0 0.0021088
20430.0 0.0020772
20450.0 0.0020468
20470.0 0.0020187
20490.0 0.0019932
20510.0 0.0019696
20530.0 0.0019476
20550.0 0.0019277
20570.0 0.0019095
20590.0 0.0018926
20610.0 0.001877
20630.0 0.0018626
20650.0 0.0018491
20670.0 0.0018364
20690.0 0.0018243
20710.0 0.0018125
20730.0 0.001801
20750.0 0.0017895
20770.0 0.0017778
20790.0 0.001766
20810.0 0.0017537
20830.0 0.001741
20850.0 0.0017277
20870.0 0.0017137
20890.0 0.001699
20910.0 0.0016837
20930.0 0.0016676
20950.0 0.0016508
20970.0 0.0016334
20990.0 0.0016155
21010.0 0.0015967
21030.0 0.0015776
21050.0 0.0015582
21070.0 0.0015384
21090.0 0.0015179
21110.0 0.0014978
21130.0 0.0014776
21150.0 0.001457
21170.0 0.0014366
21190.0 0.0014166
21210.0 0.0013964
21230.0 0.0013761
21250.0 0.0013566
21270.0 0.0013374
21290.0 0.0013181
21310.0 0.0012993
21330.0 0.0012814
21350.0 0.0012636
21370.0 0.0012461
21390.0 0.0012294
21410.0 0.0012133
21430.0 0.0011973
21450.0 0.0011822
21470.0 0.0011679
21490.0 0.0011541
21510.0 0.0011408
21530.0 0.0011283
21550.0 0.0011164
21570.0 0.001105
21590.0 0.0010942
21610.0 0.0010839
21630.0 0.0010741
21650.0 0.0010646
21670.0 0.0010556
21690.0 0.0010468
21710.0 0.0010383
21730.0 0.0010301
21750.0 0.0010219
21770.0 0.0010139
21790.0 0.001006
21810.0 0.00099818
21830.0 0.00099037
21850.0 0.00098257
21870.0 0.00097479
21890.0 0.00096702
21910.0 0.00095922
21930.0 0.0009514
21950.0 0.00094358
21970.0 0.00093571
21990.0 0.00092774
22010.0 0.00091975
22030.0 0.00091171
22050.0 0.00090353
22070.0 0.00089523
22090.0 0.00088689
22110.0 0.00087837
22130.0 0.00086963
22150.0 0.0008608
22170.0 0.00085184
22190.0 0.00084255
22210.0 0.00083308
22230.0 0.00082361
22250.0 0.00081388
22270.0 0.00080387
22290.0 0.00079384
22310.0 0.00078372
22330.0 0.0007732
22350.0 0.00076263
22370.0 0.00075209
22390.0 0.00074132
22410.0 0.00073026
22430.0 0.0007194
22450.0 0.00070852
22470.0 0.00069735
22490.0 0.00068623
22510.0 0.00067532
22530.0 0.00066416
22550.0 0.00065291
22570.0 0.00064203
22590.0 0.00063126
22610.0 0.0006204
22630.0 0.0006098
22650.0 0.00059969
22670.0 0.00058958
22690.0 0.00057968
22710.0 0.00057029
22730.0 0.00056124
22750.0 0.00055223
22770.0 0.00054381
22790.0 0.00053589
22810.0 0.00052821
22830.0 0.00052087
22850.0 0.00051408
22870.0 0.00050759
22890.0 0.00050132
22910.0 0.00049547
22930.0 0.00048998
22950.0 0.00048467
22970.0 0.00047957
22990.0 0.00047484
23010.0 0.00047026
23030.0 0.0004658
23050.0 0.00046153
23070.0 0.00045744
23090.0 0.00045336
23110.0 0.00044939
23130.0 0.00044557
23150.0 0.00044179
23170.0 0.00043803
23190.0 0.00043435
23210.0 0.00043076
23230.0 0.00042712
23250.0 0.00042351
23270.0 0.00041994
23290.0 0.00041634
23310.0 0.00041263
23330.0 0.00040898
23350.0 0.00040532
23370.0 0.00040156
23390.0 0.00039778
23410.0 0.00039408
23430.0 0.00039031
23450.0 0.00038655
23470.0 0.00038291
23490.0 0.00037937
23510.0 0.00037585
23530.0 0.00037249
23550.0 0.00036939
23570.0 0.00036645
23590.0 0.00036371
23610.0 0.00036127
23630.0 0.00035912
23650.0 0.00035723
23670.0 0.00035568
23690.0 0.00035449
23710.0 0.00035364
23730.0 0.00035321
23750.0 0.00035314
23770.0 0.00035347
23790.0 0.00035429
23810.0 0.00035554
23830.0 0.00035717
23850.0 0.00035938
23870.0 0.00036214
23890.0 0.00036518
23910.0 0.00036863
23930.0 0.00037261
23950.0 0.00037681
23970.0 0.00038102
23990.0 0.00038557
24010.0 0.00039021
24030.0 0.00039461
24050.0 0.0003989
24070.0 0.00040327
24090.0 0.00040716
24110.0 0.00041065
24130.0 0.00041397
24150.0 0.00041701
