#lamb flux
1010.0 1.7906e-07
1030.0 1.9805e-07
1050.0 2.1988e-07
1070.0 2.4446e-07
1090.0 2.7237e-07
1110.0 3.0101e-07
1130.0 3.2982e-07
1150.0 3.6001e-07
1170.0 3.9115e-07
1190.0 4.2068e-07
1210.0 4.506e-07
1230.0 4.8153e-07
1250.0 5.1182e-07
1270.0 5.4125e-07
1290.0 5.7234e-07
1310.0 6.0341e-07
1330.0 6.332e-07
1350.0 6.6333e-07
1370.0 6.9444e-07
1390.0 7.2477e-07
1410.0 7.542e-07
1430.0 7.8497e-07
1450.0 8.1573e-07
1470.0 8.4547e-07
1490.0 8.7553e-07
1510.0 9.0728e-07
1530.0 9.3737e-07
1550.0 9.6706e-07
1570.0 9.9778e-07
1590.0 1.0285e-06
1610.0 1.0579e-06
1630.0 1.0883e-06
1650.0 1.1194e-06
1670.0 1.1495e-06
1690.0 1.1793e-06
1710.0 1.2102e-06
1730.0 1.2413e-06
1750.0 1.2706e-06
1770.0 1.3008e-06
1790.0 1.3316e-06
1810.0 1.3615e-06
1830.0 1.3909e-06
1850.0 1.4222e-06
1870.0 1.4527e-06
1890.0 1.4822e-06
1910.0 1.5124e-06
1930.0 1.5433e-06
1950.0 1.5729e-06
1970.0 1.6023e-06
1990.0 1.6328e-06
2010.0 1.6628e-06
2030.0 1.6919e-06
2050.0 1.7219e-06
2070.0 1.7528e-06
2090.0 1.7819e-06
2110.0 1.8111e-06
2130.0 1.8411e-06
2150.0 1.8707e-06
2170.0 1.899e-06
2190.0 1.9285e-06
2210.0 1.9582e-06
2230.0 1.9867e-06
2250.0 2.0152e-06
2270.0 2.045e-06
2290.0 2.0739e-06
2310.0 2.1016e-06
2330.0 2.1305e-06
2350.0 2.1602e-06
2370.0 2.1897e-06
2390.0 2.2217e-06
2410.0 2.2596e-06
2430.0 2.3033e-06
2450.0 2.3554e-06
2470.0 2.4222e-06
2490.0 2.5063e-06
2510.0 2.602e-06
2530.0 2.7172e-06
2550.0 2.8613e-06
2570.0 3.0407e-06
2590.0 3.274e-06
2610.0 3.6233e-06
2630.0 4.1219e-06
2650.0 4.774e-06
2670.0 5.617e-06
2690.0 6.653e-06
2710.0 7.7589e-06
2730.0 8.8515e-06
2750.0 9.9278e-06
2770.0 1.0864e-05
2790.0 1.1607e-05
2810.0 1.2197e-05
2830.0 1.2658e-05
2850.0 1.2973e-05
2870.0 1.3204e-05
2890.0 1.3387e-05
2910.0 1.3533e-05
2930.0 1.3652e-05
2950.0 1.3766e-05
2970.0 1.3877e-05
2990.0 1.3981e-05
3010.0 0.00039519
3030.0 0.00039815
3050.0 0.000401
3070.0 0.00040345
3090.0 0.00040555
3110.0 0.00040685
3130.0 0.0004068
3150.0 0.00040499
3170.0 0.00040066
3190.0 0.00039385
3210.0 0.00038521
3230.0 0.00037532
3250.0 0.00036556
3270.0 0.00035843
3290.0 0.00035447
3310.0 0.00035511
3330.0 0.00036025
3350.0 0.0003692
3370.0 0.00038198
3390.0 0.00039808
3410.0 0.00041561
3430.0 0.00043528
3450.0 0.00045793
3470.0 0.00048267
3490.0 0.00050889
3510.0 0.00053852
3530.0 0.00057025
3550.0 0.00060237
3570.0 0.00063588
3590.0 0.00067233
3610.0 0.00070988
3630.0 0.00074732
3650.0 0.00078616
3670.0 0.00082162
3690.0 0.00084813
3710.0 0.00086333
3730.0 0.00086383
3750.0 0.0008518
3770.0 0.00084708
3790.0 0.00084205
3810.0 0.00082135
3830.0 0.00084678
3850.0 0.00094679
3870.0 0.0010017
3890.0 0.00099713
3910.0 0.0010014
3930.0 0.0010277
3950.0 0.001044
3970.0 0.00095115
3990.0 0.00081842
4010.0 0.0024529
4030.0 0.0029721
4050.0 0.0034073
4070.0 0.0029564
4090.0 0.0026776
4110.0 0.0023627
4130.0 0.0021746
4150.0 0.0023132
4170.0 0.0022786
4190.0 0.0024288
4210.0 0.0024066
4230.0 0.0025455
4250.0 0.0030114
4270.0 0.0030468
4290.0 0.0028076
4310.0 0.0029173
4330.0 0.0031031
4350.0 0.0034794
4370.0 0.0039596
4390.0 0.0037156
4410.0 0.0027452
4430.0 0.002324
4450.0 0.0021355
4470.0 0.0016391
4490.0 0.0017688
4510.0 0.0026717
4530.0 0.0030813
4550.0 0.003108
4570.0 0.0034973
4590.0 0.0039838
4610.0 0.0053732
4630.0 0.0069787
4650.0 0.0075683
4670.0 0.0070089
4690.0 0.0066878
4710.0 0.0070694
4730.0 0.0066716
4750.0 0.0049879
4770.0 0.0036588
4790.0 0.0034166
4810.0 0.0032565
4830.0 0.0029813
4850.0 0.0032715
4870.0 0.004322
4890.0 0.0050968
4910.0 0.0044718
4930.0 0.0039569
4950.0 0.0043473
4970.0 0.0055751
4990.0 0.0075556
5010.0 0.0086917
5030.0 0.0076641
5050.0 0.0051852
5070.0 0.0034173
5090.0 0.0027555
5110.0 0.0028338
5130.0 0.0032707
5150.0 0.0035435
5170.0 0.0034903
5190.0 0.0032615
5210.0 0.003409
5230.0 0.0035836
5250.0 0.0038621
5270.0 0.0041669
5290.0 0.0046178
5310.0 0.0053749
5330.0 0.005948
5350.0 0.00591
5370.0 0.0062079
5390.0 0.0071236
5410.0 0.0071172
5430.0 0.0062941
5450.0 0.0057828
5470.0 0.0061403
5490.0 0.0075017
5510.0 0.0093796
5530.0 0.010758
5550.0 0.010398
5570.0 0.0094522
5590.0 0.0082187
5610.0 0.0075795
5630.0 0.0073497
5650.0 0.0069998
5670.0 0.0066329
5690.0 0.0059297
5710.0 0.0057816
5730.0 0.0053257
5750.0 0.0037549
5770.0 0.0029294
5790.0 0.0033196
5810.0 0.0037484
5830.0 0.0045998
5850.0 0.0054756
5870.0 0.0060752
5890.0 0.0061781
5910.0 0.0060611
5930.0 0.0057694
5950.0 0.0058789
5970.0 0.0067013
5990.0 0.0063009
6010.0 0.0052821
6030.0 0.0044626
6050.0 0.0038863
6070.0 0.0038651
6090.0 0.0041911
6110.0 0.0046863
6130.0 0.0047581
6150.0 0.0040939
6170.0 0.0036014
6190.0 0.0040528
6210.0 0.0053577
6230.0 0.0070309
6250.0 0.0076154
6270.0 0.0066549
6290.0 0.0055991
6310.0 0.004371
6330.0 0.0033491
6350.0 0.0029873
6370.0 0.0031414
6390.0 0.0036317
6410.0 0.004478
6430.0 0.0052291
6450.0 0.0059834
6470.0 0.0068512
6490.0 0.0082758
6510.0 0.0092534
6530.0 0.0090781
6550.0 0.0082091
6570.0 0.0069687
6590.0 0.0062839
6610.0 0.0054184
6630.0 0.0049088
6650.0 0.0046402
6670.0 0.0045079
6690.0 0.0040731
6710.0 0.0037026
6730.0 0.0026669
6750.0 0.0026439
6770.0 0.0028738
6790.0 0.0033032
6810.0 0.0030225
6830.0 0.0031123
6850.0 0.002911
6870.0 0.0026592
6890.0 0.0025532
6910.0 0.0027208
6930.0 0.0025484
6950.0 0.0026219
6970.0 0.0027578
6990.0 0.0031303
7010.0 0.003157
7030.0 0.0032071
7050.0 0.0030585
7070.0 0.0029142
7090.0 0.0029227
7110.0 0.0030073
7130.0 0.0032363
7150.0 0.0034372
7170.0 0.0037927
7190.0 0.0041692
7210.0 0.0040968
7230.0 0.0042116
7250.0 0.004526
7270.0 0.0049323
7290.0 0.0058541
7310.0 0.0063523
7330.0 0.00614
7350.0 0.0055533
7370.0 0.0048318
7390.0 0.0046875
7410.0 0.0049814
7430.0 0.0055362
7450.0 0.0060299
7470.0 0.0059745
7490.0 0.0054476
7510.0 0.0061708
7530.0 0.0061033
7550.0 0.0054857
7570.0 0.0042854
7590.0 0.0029461
7610.0 0.0025286
7630.0 0.002873
7650.0 0.0033969
7670.0 0.0042278
7690.0 0.0046523
7710.0 0.0048483
7730.0 0.005095
7750.0 0.0057197
7770.0 0.0058097
7790.0 0.0053365
7810.0 0.0048693
7830.0 0.0050213
7850.0 0.0048812
7870.0 0.0044753
7890.0 0.0037601
7910.0 0.0030564
7930.0 0.0029185
7950.0 0.0026588
7970.0 0.0024612
7990.0 0.0024472
8010.0 0.00018125
8030.0 0.00017889
8050.0 0.00017648
8070.0 0.00017879
8090.0 0.00019211
8110.0 0.00018884
8130.0 0.00015577
8150.0 0.0001517
8170.0 0.00013067
8190.0 0.00012383
8210.0 0.00016081
8230.0 0.00017904
8250.0 0.00016137
8270.0 0.00014045
8290.0 0.00013692
8310.0 0.00010538
8330.0 7.1024e-05
8350.0 5.0405e-05
8370.0 3.1757e-05
8390.0 5.8052e-05
8410.0 6.7647e-05
8430.0 8.3385e-05
8450.0 9.7917e-05
8470.0 0.00012171
8490.0 0.00012085
8510.0 0.00011887
8530.0 0.00012406
8550.0 0.00016738
8570.0 0.00019816
8590.0 0.00021381
8610.0 0.00027009
8630.0 0.00032536
8650.0 0.00034037
8670.0 0.00036171
8690.0 0.00036374
8710.0 0.00032942
8730.0 0.00030641
8750.0 0.00027046
8770.0 0.00025663
8790.0 0.00025213
8810.0 0.00024159
8830.0 0.00019319
8850.0 0.00014143
8870.0 0.00010829
8890.0 0.00010587
8910.0 0.00012133
8930.0 0.00013801
8950.0 0.00014065
8970.0 0.00014132
8990.0 0.00012604
9010.0 0.0013208
9030.0 0.0011968
9050.0 0.0012026
9070.0 0.0012121
9090.0 0.0012204
9110.0 0.0012307
9130.0 0.0012386
9150.0 0.0012448
9170.0 0.0012514
9190.0 0.0012584
9210.0 0.0012658
9230.0 0.0012736
9250.0 0.0012815
9270.0 0.0012897
9290.0 0.0012982
9310.0 0.0013067
9330.0 0.0013154
9350.0 0.0013244
9370.0 0.0013336
9390.0 0.0013428
9410.0 0.0013522
9430.0 0.001362
9450.0 0.0013717
9470.0 0.0013817
9490.0 0.0013919
9510.0 0.0014022
9530.0 0.0014126
9550.0 0.0014234
9570.0 0.0014343
9590.0 0.0014453
9610.0 0.0014564
9630.0 0.0014679
9650.0 0.0014794
9670.0 0.001491
9690.0 0.0015029
9710.0 0.0015149
9730.0 0.001527
9750.0 0.0015393
9770.0 0.0015519
9790.0 0.0015646
9810.0 0.0015772
9830.0 0.0015902
9850.0 0.0016033
9870.0 0.0016164
9890.0 0.0016297
9910.0 0.0016432
9930.0 0.0016567
9950.0 0.0016703
9970.0 0.0016842
9990.0 0.0016982
10010.0 0.0014735
10030.0 0.0014856
10050.0 0.001498
10070.0 0.0015108
10090.0 0.0015228
10110.0 0.0015351
10130.0 0.0015475
10150.0 0.0015598
10170.0 0.0015723
10190.0 0.001585
10210.0 0.0015976
10230.0 0.0016101
10250.0 0.0016228
10270.0 0.0016355
10290.0 0.0016481
10310.0 0.0016608
10330.0 0.0016736
10350.0 0.0016863
10370.0 0.0016988
10390.0 0.0017116
10410.0 0.0017242
10430.0 0.0017366
10450.0 0.0017492
10470.0 0.0017618
10490.0 0.0017741
10510.0 0.0017864
10530.0 0.0017989
10550.0 0.0018111
10570.0 0.0018232
10590.0 0.0018352
10610.0 0.0018473
10630.0 0.0018591
10650.0 0.0018708
10670.0 0.0018825
10690.0 0.0018941
10710.0 0.0019054
10730.0 0.0019168
10750.0 0.0019281
10770.0 0.001939
10790.0 0.0019498
10810.0 0.0019606
10830.0 0.0019711
10850.0 0.001981
10870.0 0.0019906
10890.0 0.0019991
10910.0 0.0020056
10930.0 0.0020093
10950.0 0.0020084
10970.0 0.0020016
10990.0 0.0019883
11010.0 0.0019659
11030.0 0.0019347
11050.0 0.0018966
11070.0 0.001851
11090.0 0.0017962
11110.0 0.0017396
11130.0 0.0016805
11150.0 0.0016169
11170.0 0.0015513
11190.0 0.0014877
11210.0 0.001422
11230.0 0.0013546
11250.0 0.0012902
11270.0 0.0012284
11290.0 0.0011665
11310.0 0.0011078
11330.0 0.0010562
11350.0 0.0010074
11370.0 0.00096226
11390.0 0.00092324
11410.0 0.00088911
11430.0 0.00085739
11450.0 0.00083006
11470.0 0.00080643
11490.0 0.00078444
11510.0 0.00076325
11530.0 0.00074359
11550.0 0.00072406
11570.0 0.00070322
11590.0 0.00068165
11610.0 0.00065968
11630.0 0.00063578
11650.0 0.00061018
11670.0 0.00058496
11690.0 0.00055938
11710.0 0.00053299
11730.0 0.00050742
11750.0 0.00048376
11770.0 0.00046055
11790.0 0.0004388
11810.0 0.00041966
11830.0 0.00040253
11850.0 0.00038676
11870.0 0.00037357
11890.0 0.0003626
11910.0 0.00035297
11930.0 0.00034468
11950.0 0.00033779
11970.0 0.00033162
11990.0 0.0003258
12010.0 0.00032041
12030.0 0.00031521
12050.0 0.00030985
12070.0 0.00030426
12090.0 0.00029888
12110.0 0.00029341
12130.0 0.00028794
12150.0 0.00028289
12170.0 0.00027848
12190.0 0.00027467
12210.0 0.00027201
12230.0 0.00027072
12250.0 0.00027093
12270.0 0.00027298
12290.0 0.00027684
12310.0 0.00028238
12330.0 0.00029013
12350.0 0.0002998
12370.0 0.00031081
12390.0 0.00032351
12410.0 0.00033839
12430.0 0.00035351
12450.0 0.00036917
12470.0 0.00038582
12490.0 0.00040255
12510.0 0.00041824
12530.0 0.00043385
12550.0 0.0004489
12570.0 0.00046219
12590.0 0.00047386
12610.0 0.00048426
12630.0 0.00049255
12650.0 0.00049827
12670.0 0.00050203
12690.0 0.00050354
12710.0 0.00050271
12730.0 0.00049979
12750.0 0.00049459
12770.0 0.00048746
12790.0 0.00047881
12810.0 0.00046848
12830.0 0.00045652
12850.0 0.00044402
12870.0 0.00043081
12890.0 0.0004165
12910.0 0.00040197
12930.0 0.00038764
12950.0 0.00037269
12970.0 0.00035747
12990.0 0.00034307
13010.0 0.00032885
13030.0 0.00031447
13050.0 0.00030066
13070.0 0.00028772
13090.0 0.00027474
13110.0 0.00026218
13130.0 0.0002506
13150.0 0.00023963
13170.0 0.00022889
13190.0 0.00021934
13210.0 0.00021093
13230.0 0.00020324
13250.0 0.00019662
13270.0 0.0001914
13290.0 0.00018734
13310.0 0.00018454
13330.0 0.00018327
13350.0 0.00018342
13370.0 0.00018506
13390.0 0.00018829
13410.0 0.00019266
13430.0 0.00019834
13450.0 0.00020535
13470.0 0.00021314
13490.0 0.00022138
13510.0 0.00023068
13530.0 0.00024011
13550.0 0.00024913
13570.0 0.00025803
13590.0 0.0002667
13610.0 0.00027441
13630.0 0.00028115
13650.0 0.0002873
13670.0 0.0002924
13690.0 0.00029635
13710.0 0.0002994
13730.0 0.00030158
13750.0 0.00030267
13770.0 0.00030292
13790.0 0.00030237
13810.0 0.00030103
13830.0 0.00029906
13850.0 0.00029639
13870.0 0.00029302
13890.0 0.00028916
13910.0 0.00028482
13930.0 0.00027979
13950.0 0.0002743
13970.0 0.00026869
13990.0 0.00026258
14010.0 0.00025608
14030.0 0.0002496
14050.0 0.00024306
14070.0 0.00023616
14090.0 0.00022956
14110.0 0.00022334
14130.0 0.00021732
14150.0 0.00021166
14170.0 0.00020682
14190.0 0.00020264
14210.0 0.00019909
14230.0 0.00019646
14250.0 0.00019477
14270.0 0.00019394
14290.0 0.00019412
14310.0 0.0001952
14330.0 0.00019714
14350.0 0.0002
14370.0 0.00020356
14390.0 0.00020761
14410.0 0.00021237
14430.0 0.00021761
14450.0 0.00022295
14470.0 0.00022849
14490.0 0.00023439
14510.0 0.00024003
14530.0 0.00024538
14550.0 0.00025073
14570.0 0.00025587
14590.0 0.00026055
14610.0 0.00026507
14630.0 0.00026955
14650.0 0.00027372
14670.0 0.00027775
14690.0 0.00028195
14710.0 0.00028636
14730.0 0.00029077
14750.0 0.00029567
14770.0 0.00030121
14790.0 0.00030723
14810.0 0.00031374
14830.0 0.00032146
14850.0 0.00032985
14870.0 0.00033861
14890.0 0.00034805
14910.0 0.00035809
14930.0 0.00036773
14950.0 0.00037674
14970.0 0.00038528
14990.0 0.00039243
15010.0 0.0003979
15030.0 0.00040196
15050.0 0.00040464
15070.0 0.00040595
15090.0 0.00040641
15110.0 0.00040627
15130.0 0.00040576
15150.0 0.00040508
15170.0 0.00040426
15190.0 0.00040339
15210.0 0.00040254
15230.0 0.00040168
15250.0 0.00040079
15270.0 0.00039992
15290.0 0.00039909
15310.0 0.00039823
15330.0 0.00039737
15350.0 0.00039654
15370.0 0.00039572
15390.0 0.00039486
15410.0 0.00039402
15430.0 0.00039322
15450.0 0.00039239
15470.0 0.00039155
15490.0 0.00039075
15510.0 0.00038995
15530.0 0.00038913
15550.0 0.00038832
15570.0 0.00038755
15590.0 0.00038673
15610.0 0.00038591
15630.0 0.00038514
15650.0 0.00038436
15670.0 0.00038355
15690.0 0.00038277
15710.0 0.00038201
15730.0 0.00038122
15750.0 0.00038043
15770.0 0.00037967
15790.0 0.0003789
15810.0 0.0003781
15830.0 0.00037733
15850.0 0.00037658
15870.0 0.00037581
15890.0 0.00037503
15910.0 0.00037429
15930.0 0.00037353
15950.0 0.00037274
15970.0 0.00037199
15990.0 0.00037124
16010.0 0.00037047
16030.0 0.00036969
16050.0 0.00036896
16070.0 0.00036821
16090.0 0.00036744
16110.0 0.00036669
16130.0 0.00036596
16150.0 0.00036517
16170.0 0.00036441
16190.0 0.00036367
16210.0 0.00036292
16230.0 0.00036214
16250.0 0.0003614
16270.0 0.00036066
16290.0 0.00035989
16310.0 0.00035913
16330.0 0.00035839
16350.0 0.00035764
16370.0 0.00035684
16390.0 0.0003561
16410.0 0.00035535
16430.0 0.00035458
16450.0 0.00035381
16470.0 0.00035308
16490.0 0.00035231
16510.0 0.00035153
16530.0 0.00035078
16550.0 0.00035002
16570.0 0.00034923
16590.0 0.00034845
16610.0 0.00034771
16630.0 0.00034694
16650.0 0.00034615
16670.0 0.0003454
16690.0 0.00034464
16710.0 0.00034383
16730.0 0.00034305
16750.0 0.00034229
16770.0 0.0003415
16790.0 0.0003407
16810.0 0.00033993
16830.0 0.00033916
16850.0 0.00033836
16870.0 0.00033757
16890.0 0.0003368
16910.0 0.00033599
16930.0 0.00033517
16950.0 0.00033439
16970.0 0.0003336
16990.0 0.00033278
17010.0 0.00033198
17030.0 0.00033121
17050.0 0.00033039
17070.0 0.00032956
17090.0 0.00032877
17110.0 0.00032796
17130.0 0.00032711
17150.0 0.0003263
17170.0 0.00032551
17190.0 0.00032467
17210.0 0.00032384
17230.0 0.00032304
17250.0 0.00032222
17270.0 0.00032136
17290.0 0.00032053
17310.0 0.00031972
17330.0 0.00031886
17350.0 0.00031801
17370.0 0.0003172
17390.0 0.00031636
17410.0 0.0003155
17430.0 0.00031466
17450.0 0.00031383
17470.0 0.00031295
17490.0 0.00031209
17510.0 0.00031125
17530.0 0.0003104
17550.0 0.00030952
17570.0 0.00030867
17590.0 0.00030783
17610.0 0.00030694
17630.0 0.00030607
17650.0 0.00030522
17670.0 0.00030435
17690.0 0.00030344
17710.0 0.00030258
17730.0 0.00030172
17750.0 0.00030082
17770.0 0.00029994
17790.0 0.00029909
17810.0 0.00029819
17830.0 0.00029729
17850.0 0.00029641
17870.0 0.00029553
17890.0 0.00029462
17910.0 0.00029371
17930.0 0.00029285
17950.0 0.00029195
17970.0 0.00029103
17990.0 0.00029015
18010.0 0.00028927
18030.0 0.00028833
18050.0 0.00028742
18070.0 0.00028654
18090.0 0.00028562
18110.0 0.00028469
18130.0 0.0002838
18150.0 0.0002829
18170.0 0.00028197
18190.0 0.00028106
18210.0 0.00028016
18230.0 0.00027923
18250.0 0.00027828
18270.0 0.00027739
18290.0 0.00027647
18310.0 0.00027553
18330.0 0.00027461
18350.0 0.00027372
18370.0 0.00027277
18390.0 0.00027183
18410.0 0.00027092
18430.0 0.00027
18450.0 0.00026904
18470.0 0.00026811
18490.0 0.0002672
18510.0 0.00026626
18530.0 0.00026532
18550.0 0.00026441
18570.0 0.00026347
18590.0 0.00026251
18610.0 0.00026158
18630.0 0.00026066
18650.0 0.0002597
18670.0 0.00025875
18690.0 0.00025784
18710.0 0.0002569
18730.0 0.00025594
18750.0 0.00025501
18770.0 0.00025409
18790.0 0.00025312
18810.0 0.00025217
18830.0 0.00025124
18850.0 0.0002503
18870.0 0.00024934
18890.0 0.00024841
18910.0 0.00024748
18930.0 0.00024652
18950.0 0.00024557
18970.0 0.00024464
18990.0 0.00024369
19010.0 0.00024271
19030.0 0.00024179
19050.0 0.00024085
19070.0 0.00023989
19090.0 0.00023894
19110.0 0.00023803
19130.0 0.00023707
19150.0 0.0002361
19170.0 0.00023517
19190.0 0.00023423
19210.0 0.00023326
19230.0 0.00023231
19250.0 0.00023139
19270.0 0.00023044
19290.0 0.00022948
19310.0 0.00022855
19330.0 0.00022762
19350.0 0.00022664
19370.0 0.00022569
19390.0 0.00022477
19410.0 0.00022381
19430.0 0.00022285
19450.0 0.00022193
19470.0 0.00022099
19490.0 0.00022003
19510.0 0.00021909
19530.0 0.00021817
19550.0 0.00021721
19570.0 0.00021624
19590.0 0.00021532
19610.0 0.00021438
19630.0 0.00021342
19650.0 0.00021249
19670.0 0.00021158
19690.0 0.00021062
19710.0 0.00020967
19730.0 0.00020874
19750.0 0.00020781
19770.0 0.00020684
19790.0 0.00020591
19810.0 0.00020499
19830.0 0.00020404
19850.0 0.00020308
19870.0 0.00020214
19890.0 0.00020113
19910.0 0.00020002
19930.0 0.00019883
19950.0 0.00019747
19970.0 0.0001958
19990.0 0.00019379
20010.0 0.00017241
20030.0 0.00016992
20050.0 0.000167
20070.0 0.00016383
20090.0 0.00016043
20110.0 0.00015658
20130.0 0.00015268
20150.0 0.00014882
20170.0 0.00014481
20190.0 0.00014075
20210.0 0.00013691
20230.0 0.00013317
20250.0 0.00012942
20270.0 0.00012594
20290.0 0.00012276
20310.0 0.00011974
20330.0 0.00011692
20350.0 0.00011458
20370.0 0.0001125
20390.0 0.00011067
20410.0 0.0001092
20430.0 0.00010807
20450.0 0.00010717
20470.0 0.00010656
20490.0 0.00010624
20510.0 0.00010615
20530.0 0.00010628
20550.0 0.00010661
20570.0 0.00010708
20590.0 0.00010773
20610.0 0.00010851
20630.0 0.00010938
20650.0 0.00011034
20670.0 0.00011144
20690.0 0.00011257
20710.0 0.00011373
20730.0 0.00011498
20750.0 0.00011629
20770.0 0.00011758
20790.0 0.00011893
20810.0 0.00012036
20830.0 0.00012178
20850.0 0.00012321
20870.0 0.00012474
20890.0 0.0001263
20910.0 0.0001278
20930.0 0.00012936
20950.0 0.00013098
20970.0 0.00013256
20990.0 0.00013411
21010.0 0.00013575
21030.0 0.00013735
21050.0 0.00013888
21070.0 0.0001404
21090.0 0.00014193
21110.0 0.00014332
21130.0 0.00014463
21150.0 0.0001459
21170.0 0.00014705
21190.0 0.00014804
21210.0 0.00014893
21230.0 0.00014967
21250.0 0.0001502
21270.0 0.00015053
21290.0 0.00015066
21310.0 0.00015054
21330.0 0.00015018
21350.0 0.00014956
21370.0 0.00014864
21390.0 0.00014748
21410.0 0.00014605
21430.0 0.00014425
21450.0 0.00014222
21470.0 0.00014002
21490.0 0.00013752
21510.0 0.00013478
21530.0 0.000132
21550.0 0.00012909
21570.0 0.00012598
21590.0 0.00012292
21610.0 0.00011997
21630.0 0.00011701
21650.0 0.00011412
21670.0 0.00011162
21690.0 0.00010931
21710.0 0.00010723
21730.0 0.00010553
21750.0 0.00010421
21770.0 0.00010321
21790.0 0.00010264
21810.0 0.00010248
21830.0 0.00010271
21850.0 0.00010335
21870.0 0.00010435
21890.0 0.00010564
21910.0 0.0001073
21930.0 0.00010925
21950.0 0.00011135
21970.0 0.00011369
21990.0 0.00011631
22010.0 0.00011893
22030.0 0.00012159
22050.0 0.00012438
22070.0 0.00012719
22090.0 0.00012985
22110.0 0.00013253
22130.0 0.00013521
22150.0 0.00013771
22170.0 0.00014007
22190.0 0.0001424
22210.0 0.00014458
22230.0 0.00014649
22250.0 0.00014829
22270.0 0.00014995
22290.0 0.00015137
22310.0 0.00015259
22330.0 0.00015366
22350.0 0.00015449
22370.0 0.00015507
22390.0 0.00015544
22410.0 0.00015555
22430.0 0.0001554
22450.0 0.000155
22470.0 0.00015431
22490.0 0.00015334
22510.0 0.00015213
22530.0 0.00015058
22550.0 0.00014869
22570.0 0.0001466
22590.0 0.00014424
22610.0 0.00014153
22630.0 0.0001386
22650.0 0.00013556
22670.0 0.00013221
22690.0 0.00012862
22710.0 0.00012501
22730.0 0.00012128
22750.0 0.00011725
22770.0 0.0001133
22790.0 0.00010945
22810.0 0.00010549
22830.0 0.00010154
22850.0 9.7851e-05
22870.0 9.423e-05
22890.0 9.0627e-05
22910.0 8.7308e-05
22930.0 8.4267e-05
22950.0 8.1369e-05
