#lamb flux
1010.0 4.5288e-09
1030.0 4.9866e-09
1050.0 5.5131e-09
1070.0 6.1057e-09
1090.0 6.7789e-09
1110.0 7.4694e-09
1130.0 8.1643e-09
1150.0 8.8922e-09
1170.0 9.6431e-09
1190.0 1.0355e-08
1210.0 1.1077e-08
1230.0 1.1822e-08
1250.0 1.2553e-08
1270.0 1.3263e-08
1290.0 1.4012e-08
1310.0 1.4761e-08
1330.0 1.548e-08
1350.0 1.6206e-08
1370.0 1.6956e-08
1390.0 1.7688e-08
1410.0 1.8397e-08
1430.0 1.9139e-08
1450.0 1.9881e-08
1470.0 2.0598e-08
1490.0 2.1323e-08
1510.0 2.2088e-08
1530.0 2.2813e-08
1550.0 2.3529e-08
1570.0 2.4269e-08
1590.0 2.5011e-08
1610.0 2.5719e-08
1630.0 2.6449e-08
1650.0 2.7199e-08
1670.0 2.7925e-08
1690.0 2.8641e-08
1710.0 2.9385e-08
1730.0 3.0134e-08
1750.0 3.0839e-08
1770.0 3.1564e-08
1790.0 3.2305e-08
1810.0 3.3023e-08
1830.0 3.3728e-08
1850.0 3.4477e-08
1870.0 3.5208e-08
1890.0 3.5914e-08
1910.0 3.6635e-08
1930.0 3.7373e-08
1950.0 3.8079e-08
1970.0 3.8776e-08
1990.0 3.9501e-08
2010.0 4.0213e-08
2030.0 4.0899e-08
2050.0 4.1607e-08
2070.0 4.2332e-08
2090.0 4.3015e-08
2110.0 4.3696e-08
2130.0 4.4396e-08
2150.0 4.5082e-08
2170.0 4.5735e-08
2190.0 4.6413e-08
2210.0 4.7093e-08
2230.0 4.7742e-08
2250.0 4.8386e-08
2270.0 4.9057e-08
2290.0 4.9704e-08
2310.0 5.0321e-08
2330.0 5.096e-08
2350.0 5.1615e-08
2370.0 5.2264e-08
2390.0 5.2971e-08
2410.0 5.3819e-08
2430.0 5.4807e-08
2450.0 5.6003e-08
2470.0 5.7558e-08
2490.0 5.954e-08
2510.0 6.1804e-08
2530.0 6.4545e-08
2550.0 6.7993e-08
2570.0 7.2291e-08
2590.0 7.7879e-08
2610.0 8.6241e-08
2630.0 9.8143e-08
2650.0 1.1364e-07
2670.0 1.336e-07
2690.0 1.5803e-07
2710.0 1.8399e-07
2730.0 2.0949e-07
2750.0 2.3448e-07
2770.0 2.5604e-07
2790.0 2.7297e-07
2810.0 2.8622e-07
2830.0 2.9637e-07
2850.0 3.0308e-07
2870.0 3.0781e-07
2890.0 3.114e-07
2910.0 3.1413e-07
2930.0 3.1626e-07
2950.0 3.1826e-07
2970.0 3.2021e-07
2990.0 3.2202e-07
3010.0 9.4152e-06
3030.0 9.4669e-06
3050.0 9.5168e-06
3070.0 9.5577e-06
3090.0 9.591e-06
3110.0 9.606e-06
3130.0 9.5897e-06
3150.0 9.5328e-06
3170.0 9.4166e-06
3190.0 9.2429e-06
3210.0 9.0268e-06
3230.0 8.7814e-06
3250.0 8.5361e-06
3270.0 8.3555e-06
3290.0 8.2448e-06
3310.0 8.2482e-06
3330.0 8.354e-06
3350.0 8.5491e-06
3370.0 8.8336e-06
3390.0 9.1956e-06
3410.0 9.5915e-06
3430.0 1.0037e-05
3450.0 1.0552e-05
3470.0 1.1114e-05
3490.0 1.1712e-05
3510.0 1.2389e-05
3530.0 1.3116e-05
3550.0 1.3861e-05
3570.0 1.4646e-05
3590.0 1.5504e-05
3610.0 1.6402e-05
3630.0 1.7294e-05
3650.0 1.8224e-05
3670.0 1.9069e-05
3690.0 1.9698e-05
3710.0 2.0048e-05
3730.0 2.0014e-05
3750.0 1.9644e-05
3770.0 1.9683e-05
3790.0 1.9547e-05
3810.0 1.8286e-05
3830.0 1.8713e-05
3850.0 2.2157e-05
3870.0 2.3248e-05
3890.0 2.1966e-05
3910.0 2.1639e-05
3930.0 2.2854e-05
3950.0 2.4006e-05
3970.0 2.2782e-05
3990.0 1.8391e-05
4010.0 5.1793e-05
4030.0 6.1197e-05
4050.0 7.0072e-05
4070.0 6.3002e-05
4090.0 5.7384e-05
4110.0 5.0042e-05
4130.0 4.8333e-05
4150.0 5.432e-05
4170.0 5.0868e-05
4190.0 5.2368e-05
4210.0 5.3191e-05
4230.0 5.8034e-05
4250.0 6.907e-05
4270.0 7.1066e-05
4290.0 6.4645e-05
4310.0 6.5508e-05
4330.0 6.8511e-05
4350.0 7.8901e-05
4370.0 9.1237e-05
4390.0 8.2489e-05
4410.0 5.7578e-05
4430.0 4.7409e-05
4450.0 4.3797e-05
4470.0 3.2214e-05
4490.0 3.7417e-05
4510.0 6.1873e-05
4530.0 7.2451e-05
4550.0 7.1404e-05
4570.0 7.6245e-05
4590.0 8.5575e-05
4610.0 0.00012618
4630.0 0.0001677
4650.0 0.00017581
4670.0 0.00016068
4690.0 0.00015526
4710.0 0.00016348
4730.0 0.00014982
4750.0 0.00010897
4770.0 7.8508e-05
4790.0 7.5819e-05
4810.0 7.4073e-05
4830.0 6.9069e-05
4850.0 7.5482e-05
4870.0 9.9777e-05
4890.0 0.00011709
4910.0 0.00010006
4930.0 9.0617e-05
4950.0 0.00010074
4970.0 0.00013015
4990.0 0.00017631
5010.0 0.00020346
5030.0 0.00017541
5050.0 0.00011629
5070.0 7.792e-05
5090.0 6.1724e-05
5110.0 6.21e-05
5130.0 7.2503e-05
5150.0 7.6814e-05
5170.0 7.4909e-05
5190.0 6.9201e-05
5210.0 7.3469e-05
5230.0 8.0062e-05
5250.0 8.7912e-05
5270.0 9.1499e-05
5290.0 0.00010065
5310.0 0.00012108
5330.0 0.00013339
5350.0 0.00013231
5370.0 0.00014103
5390.0 0.00016534
5410.0 0.0001593
5430.0 0.00013684
5450.0 0.0001283
5470.0 0.00013893
5490.0 0.00017043
5510.0 0.00021144
5530.0 0.00024325
5550.0 0.00023155
5570.0 0.00020996
5590.0 0.00018028
5610.0 0.00016978
5630.0 0.00017075
5650.0 0.00016092
5670.0 0.00015124
5690.0 0.00013195
5710.0 0.00013033
5730.0 0.00012156
5750.0 8.1025e-05
5770.0 6.1935e-05
5790.0 7.1421e-05
5810.0 7.9319e-05
5830.0 0.00010259
5850.0 0.00012508
5870.0 0.00013796
5890.0 0.00013835
5910.0 0.00013557
5930.0 0.0001292
5950.0 0.00013195
5970.0 0.00015371
5990.0 0.00013992
6010.0 0.00011515
6030.0 9.6627e-05
6050.0 8.4625e-05
6070.0 8.7699e-05
6090.0 9.5812e-05
6110.0 0.00010476
6130.0 0.00010424
6150.0 8.7952e-05
6170.0 7.508e-05
6190.0 8.5559e-05
6210.0 0.00011775
6230.0 0.0001594
6250.0 0.00017279
6270.0 0.00014628
6290.0 0.00012363
6310.0 9.599e-05
6330.0 7.2699e-05
6350.0 6.6297e-05
6370.0 6.9685e-05
6390.0 8.11e-05
6410.0 0.00010133
6430.0 0.00011924
6450.0 0.00013886
6470.0 0.0001555
6490.0 0.00018724
6510.0 0.00020948
6530.0 0.00020798
6550.0 0.00018891
6570.0 0.00015749
6590.0 0.00014367
6610.0 0.00012259
6630.0 0.00011524
6650.0 0.00010996
6670.0 0.00010348
6690.0 8.9647e-05
6710.0 8.3011e-05
6730.0 5.3289e-05
6750.0 5.6356e-05
6770.0 6.761e-05
6790.0 8.1106e-05
6810.0 6.8766e-05
6830.0 7.0636e-05
6850.0 6.4005e-05
6870.0 5.8719e-05
6890.0 5.4639e-05
6910.0 6.0303e-05
6930.0 5.6588e-05
6950.0 6.0582e-05
6970.0 6.3641e-05
6990.0 7.1813e-05
7010.0 7.1392e-05
7030.0 7.5252e-05
7050.0 6.9873e-05
7070.0 6.4194e-05
7090.0 6.562e-05
7110.0 6.827e-05
7130.0 7.4937e-05
7150.0 8.1033e-05
7170.0 8.9906e-05
7190.0 9.8226e-05
7210.0 9.3994e-05
7230.0 9.6272e-05
7250.0 0.00010322
7270.0 0.00011178
7290.0 0.00013428
7310.0 0.00014506
7330.0 0.00013933
7350.0 0.00012575
7370.0 0.00010512
7390.0 0.00010333
7410.0 0.00011379
7430.0 0.0001274
7450.0 0.00013837
7470.0 0.00013395
7490.0 0.00011742
7510.0 0.00014609
7530.0 0.00014145
7550.0 0.00012927
7570.0 9.7232e-05
7590.0 6.0543e-05
7610.0 5.0191e-05
7630.0 6.0199e-05
7650.0 7.3236e-05
7670.0 9.7005e-05
7690.0 0.000107
7710.0 0.00010744
7730.0 0.00011149
7750.0 0.00013037
7770.0 0.00013293
7790.0 0.00012187
7810.0 0.00010761
7830.0 0.00011249
7850.0 0.00011306
7870.0 0.00010559
7890.0 8.6836e-05
7910.0 6.7212e-05
7930.0 6.5626e-05
7950.0 5.9695e-05
7970.0 5.3954e-05
7990.0 5.2478e-05
8010.0 9.9691e-06
8030.0 9.1225e-06
8050.0 9.7446e-06
8070.0 1.1075e-05
8090.0 1.3635e-05
8110.0 1.2953e-05
8130.0 7.7123e-06
8150.0 8.1347e-06
8170.0 4.5902e-06
8190.0 2.8341e-06
8210.0 7.5573e-06
8230.0 9.1415e-06
8250.0 3.9611e-06
8270.0 3.1078e-06
8290.0 5.7335e-06
8310.0 5.1042e-06
8330.0 3.2063e-06
8350.0 2.4964e-06
8370.0 5.9275e-07
8390.0 2.7215e-06
8410.0 3.0921e-06
8430.0 3.8162e-06
8450.0 4.3615e-06
8470.0 7.1727e-06
8490.0 6.0351e-06
8510.0 4.807e-06
8530.0 2.8807e-06
8550.0 8.4725e-06
8570.0 1.2578e-05
8590.0 9.2757e-06
8610.0 1.3665e-05
8630.0 1.522e-05
8650.0 9.5989e-06
8670.0 1.3097e-05
8690.0 1.8638e-05
8710.0 1.6007e-05
8730.0 1.6751e-05
8750.0 1.3308e-05
8770.0 1.1914e-05
8790.0 1.2928e-05
8810.0 1.3811e-05
8830.0 8.0283e-06
8850.0 3.6722e-06
8870.0 2.567e-06
8890.0 5.6274e-06
8910.0 8.7368e-06
8930.0 1.1549e-05
8950.0 1.2568e-05
8970.0 1.2088e-05
8990.0 8.9362e-06
9010.0 2.5323e-05
9030.0 2.135e-05
9050.0 2.1673e-05
9070.0 2.2069e-05
9090.0 2.2401e-05
9110.0 2.2812e-05
9130.0 2.3114e-05
9150.0 2.3335e-05
9170.0 2.357e-05
9190.0 2.382e-05
9210.0 2.4084e-05
9230.0 2.4363e-05
9250.0 2.4644e-05
9270.0 2.4935e-05
9290.0 2.5233e-05
9310.0 2.5531e-05
9330.0 2.5834e-05
9350.0 2.6147e-05
9370.0 2.6461e-05
9390.0 2.6777e-05
9410.0 2.7101e-05
9430.0 2.7435e-05
9450.0 2.7765e-05
9470.0 2.81e-05
9490.0 2.8445e-05
9510.0 2.8793e-05
9530.0 2.914e-05
9550.0 2.9501e-05
9570.0 2.9866e-05
9590.0 3.0231e-05
9610.0 3.0602e-05
9630.0 3.0983e-05
9650.0 3.1366e-05
9670.0 3.1747e-05
9690.0 3.214e-05
9710.0 3.2539e-05
9730.0 3.2937e-05
9750.0 3.334e-05
9770.0 3.3758e-05
9790.0 3.4172e-05
9810.0 3.4588e-05
9830.0 3.5013e-05
9850.0 3.5444e-05
9870.0 3.5872e-05
9890.0 3.6307e-05
9910.0 3.6751e-05
9930.0 3.7194e-05
9950.0 3.7638e-05
9970.0 3.8092e-05
9990.0 3.8552e-05
10010.0 3.3661e-05
10030.0 3.4058e-05
10050.0 3.4462e-05
10070.0 3.4869e-05
10090.0 3.5268e-05
10110.0 3.5677e-05
10130.0 3.6087e-05
10150.0 3.6493e-05
10170.0 3.6904e-05
10190.0 3.7323e-05
10210.0 3.7735e-05
10230.0 3.8146e-05
10250.0 3.8565e-05
10270.0 3.8982e-05
10290.0 3.9394e-05
10310.0 3.9812e-05
10330.0 4.0234e-05
10350.0 4.0648e-05
10370.0 4.1061e-05
10390.0 4.1479e-05
10410.0 4.1895e-05
10430.0 4.2302e-05
10450.0 4.2714e-05
10470.0 4.3126e-05
10490.0 4.3532e-05
10510.0 4.3934e-05
10530.0 4.4343e-05
10550.0 4.4745e-05
10570.0 4.5138e-05
10590.0 4.5534e-05
10610.0 4.5928e-05
10630.0 4.6313e-05
10650.0 4.6694e-05
10670.0 4.7079e-05
10690.0 4.7456e-05
10710.0 4.7824e-05
10730.0 4.8193e-05
10750.0 4.8563e-05
10770.0 4.8916e-05
10790.0 4.9267e-05
10810.0 4.9617e-05
10830.0 4.9955e-05
10850.0 5.0277e-05
10870.0 5.0592e-05
10890.0 5.0875e-05
10910.0 5.1102e-05
10930.0 5.1252e-05
10950.0 5.1282e-05
10970.0 5.115e-05
10990.0 5.084e-05
11010.0 4.7441e-05
11030.0 4.6694e-05
11050.0 4.5776e-05
11070.0 4.4672e-05
11090.0 4.3344e-05
11110.0 4.1969e-05
11130.0 4.0535e-05
11150.0 3.8993e-05
11170.0 3.7405e-05
11190.0 3.5868e-05
11210.0 3.4283e-05
11230.0 3.2662e-05
11250.0 3.1114e-05
11270.0 2.963e-05
11290.0 2.8145e-05
11310.0 2.6739e-05
11330.0 2.55e-05
11350.0 2.4329e-05
11370.0 2.3245e-05
11390.0 2.2305e-05
11410.0 2.1479e-05
11430.0 2.0709e-05
11450.0 2.0042e-05
11470.0 1.946e-05
11490.0 1.8917e-05
11510.0 1.8392e-05
11530.0 1.7903e-05
11550.0 1.7417e-05
11570.0 1.69e-05
11590.0 1.6367e-05
11610.0 1.5826e-05
11630.0 1.524e-05
11650.0 1.4616e-05
11670.0 1.4002e-05
11690.0 1.338e-05
11710.0 1.274e-05
11730.0 1.2121e-05
11750.0 1.1547e-05
11770.0 1.0984e-05
11790.0 1.0456e-05
11810.0 9.9894e-06
11830.0 9.5705e-06
11850.0 9.1832e-06
11870.0 8.8568e-06
11890.0 8.5832e-06
11910.0 8.3409e-06
11930.0 8.1308e-06
11950.0 7.9539e-06
11970.0 7.7948e-06
11990.0 7.644e-06
12010.0 7.5043e-06
12030.0 7.3699e-06
12050.0 7.2318e-06
12070.0 7.0893e-06
12090.0 6.952e-06
12110.0 6.8131e-06
12130.0 6.674e-06
12150.0 6.5449e-06
12170.0 6.4307e-06
12190.0 6.3297e-06
12210.0 6.2551e-06
12230.0 6.212e-06
12250.0 6.2029e-06
12270.0 6.2352e-06
12290.0 6.3092e-06
12310.0 6.4215e-06
12330.0 6.5837e-06
12350.0 6.7895e-06
12370.0 7.0259e-06
12390.0 7.3003e-06
12410.0 7.6238e-06
12430.0 7.9531e-06
12450.0 8.2945e-06
12470.0 8.6581e-06
12490.0 9.0233e-06
12510.0 9.3654e-06
12530.0 9.7057e-06
12550.0 1.0034e-05
12570.0 1.0322e-05
12590.0 1.0575e-05
12610.0 1.0799e-05
12630.0 1.0976e-05
12650.0 1.1096e-05
12670.0 1.1173e-05
12690.0 1.1199e-05
12710.0 1.1174e-05
12730.0 1.1102e-05
12750.0 1.098e-05
12770.0 1.0814e-05
12790.0 1.0615e-05
12810.0 1.0379e-05
12830.0 1.0107e-05
12850.0 9.8228e-06
12870.0 9.5235e-06
12890.0 9.2006e-06
12910.0 8.8731e-06
12930.0 8.5508e-06
12950.0 8.2153e-06
12970.0 7.8746e-06
12990.0 7.5526e-06
13010.0 7.235e-06
13030.0 6.9144e-06
13050.0 6.6067e-06
13070.0 6.3184e-06
13090.0 6.0293e-06
13110.0 5.7496e-06
13130.0 5.4914e-06
13150.0 5.2466e-06
13170.0 5.0067e-06
13190.0 4.7925e-06
13210.0 4.6033e-06
13230.0 4.4296e-06
13250.0 4.279e-06
13270.0 4.159e-06
13290.0 4.064e-06
13310.0 3.9964e-06
13330.0 3.9621e-06
13350.0 3.9589e-06
13370.0 3.9884e-06
13390.0 4.0527e-06
13410.0 4.1424e-06
13430.0 4.2611e-06
13450.0 4.4095e-06
13470.0 4.5755e-06
13490.0 4.7525e-06
13510.0 4.9533e-06
13530.0 5.1579e-06
13550.0 5.3546e-06
13570.0 5.5495e-06
13590.0 5.7403e-06
13610.0 5.9108e-06
13630.0 6.0603e-06
13650.0 6.1976e-06
13670.0 6.3123e-06
13690.0 6.4017e-06
13710.0 6.4715e-06
13730.0 6.5224e-06
13750.0 6.5489e-06
13770.0 6.5567e-06
13790.0 6.5469e-06
13810.0 6.5195e-06
13830.0 6.4777e-06
13850.0 6.4204e-06
13870.0 6.3477e-06
13890.0 6.2641e-06
13910.0 6.1697e-06
13930.0 6.0603e-06
13950.0 5.9407e-06
13970.0 5.8185e-06
13990.0 5.6853e-06
14010.0 5.5438e-06
14030.0 5.4027e-06
14050.0 5.2606e-06
14070.0 5.1106e-06
14090.0 4.9669e-06
14110.0 4.8318e-06
14130.0 4.7008e-06
14150.0 4.5774e-06
14170.0 4.4719e-06
14190.0 4.3805e-06
14210.0 4.3027e-06
14230.0 4.2446e-06
14250.0 4.2067e-06
14270.0 4.1875e-06
14290.0 4.19e-06
14310.0 4.2121e-06
14330.0 4.253e-06
14350.0 4.3139e-06
14370.0 4.3902e-06
14390.0 4.4774e-06
14410.0 4.5805e-06
14430.0 4.6941e-06
14450.0 4.8106e-06
14470.0 4.9319e-06
14490.0 5.0613e-06
14510.0 5.1854e-06
14530.0 5.3038e-06
14550.0 5.4223e-06
14570.0 5.5365e-06
14590.0 5.6406e-06
14610.0 5.7415e-06
14630.0 5.8413e-06
14650.0 5.9343e-06
14670.0 6.0241e-06
14690.0 6.1174e-06
14710.0 6.2154e-06
14730.0 6.3132e-06
14750.0 6.4215e-06
14770.0 6.5441e-06
14790.0 6.6771e-06
14810.0 6.8214e-06
14830.0 6.9923e-06
14850.0 7.1783e-06
14870.0 7.3726e-06
14890.0 7.5826e-06
14910.0 7.8058e-06
14930.0 8.0209e-06
14950.0 8.2222e-06
14970.0 8.4133e-06
14990.0 8.5741e-06
15010.0 8.6978e-06
15030.0 8.7902e-06
15050.0 8.8523e-06
15070.0 8.8841e-06
15090.0 8.8972e-06
15110.0 8.8972e-06
15130.0 8.8888e-06
15150.0 8.8766e-06
15170.0 8.8616e-06
15190.0 8.8453e-06
15210.0 8.8294e-06
15230.0 8.8135e-06
15250.0 8.7969e-06
15270.0 8.7805e-06
15290.0 8.7653e-06
15310.0 8.7495e-06
15330.0 8.7335e-06
15350.0 8.7183e-06
15370.0 8.7032e-06
15390.0 8.6872e-06
15410.0 8.6719e-06
15430.0 8.6572e-06
15450.0 8.6421e-06
15470.0 8.6266e-06
15490.0 8.6121e-06
15510.0 8.5977e-06
15530.0 8.5826e-06
15550.0 8.568e-06
15570.0 8.5539e-06
15590.0 8.5391e-06
15610.0 8.5241e-06
15630.0 8.5101e-06
15650.0 8.496e-06
15670.0 8.4813e-06
15690.0 8.4671e-06
15710.0 8.4535e-06
15730.0 8.4391e-06
15750.0 8.4247e-06
15770.0 8.4109e-06
15790.0 8.3971e-06
15810.0 8.3824e-06
15830.0 8.3684e-06
15850.0 8.3549e-06
15870.0 8.3408e-06
15890.0 8.3266e-06
15910.0 8.3132e-06
15930.0 8.2994e-06
15950.0 8.2849e-06
15970.0 8.2711e-06
15990.0 8.2575e-06
16010.0 8.2433e-06
16030.0 8.2289e-06
16050.0 8.2156e-06
16070.0 8.2018e-06
16090.0 8.1874e-06
16110.0 8.1736e-06
16130.0 8.1602e-06
16150.0 8.1455e-06
16170.0 8.1312e-06
16190.0 8.1175e-06
16210.0 8.1035e-06
16230.0 8.0888e-06
16250.0 8.0749e-06
16270.0 8.0612e-06
16290.0 8.0465e-06
16310.0 8.0321e-06
16330.0 8.0182e-06
16350.0 8.0038e-06
16370.0 7.9885e-06
16390.0 7.9744e-06
16410.0 7.9602e-06
16430.0 7.9453e-06
16450.0 7.9305e-06
16470.0 7.9165e-06
16490.0 7.9015e-06
16510.0 7.8862e-06
16530.0 7.8715e-06
16550.0 7.8569e-06
16570.0 7.8413e-06
16590.0 7.8259e-06
16610.0 7.8114e-06
16630.0 7.7961e-06
16650.0 7.7804e-06
16670.0 7.7654e-06
16690.0 7.7503e-06
16710.0 7.734e-06
16730.0 7.7183e-06
16750.0 7.703e-06
16770.0 7.6871e-06
16790.0 7.6707e-06
16810.0 7.6552e-06
16830.0 7.6395e-06
16850.0 7.623e-06
16870.0 7.6068e-06
16890.0 7.591e-06
16910.0 7.5743e-06
16930.0 7.5572e-06
16950.0 7.5411e-06
16970.0 7.5246e-06
16990.0 7.5075e-06
17010.0 7.4907e-06
17030.0 7.4744e-06
17050.0 7.4571e-06
17070.0 7.4397e-06
17090.0 7.4229e-06
17110.0 7.4058e-06
17130.0 7.3876e-06
17150.0 7.3703e-06
17170.0 7.3532e-06
17190.0 7.3353e-06
17210.0 7.3174e-06
17230.0 7.3001e-06
17250.0 7.2823e-06
17270.0 7.2636e-06
17290.0 7.2456e-06
17310.0 7.2278e-06
17330.0 7.2092e-06
17350.0 7.1903e-06
17370.0 7.1725e-06
17390.0 7.1541e-06
17410.0 7.135e-06
17430.0 7.1165e-06
17450.0 7.0982e-06
17470.0 7.0786e-06
17490.0 7.0593e-06
17510.0 7.0407e-06
17530.0 7.0215e-06
17550.0 7.0018e-06
17570.0 6.9827e-06
17590.0 6.9638e-06
17610.0 6.9439e-06
17630.0 6.9241e-06
17650.0 6.9049e-06
17670.0 6.8851e-06
17690.0 6.8644e-06
17710.0 6.8449e-06
17730.0 6.8253e-06
17750.0 6.8048e-06
17770.0 6.7846e-06
17790.0 6.7651e-06
17810.0 6.7445e-06
17830.0 6.7237e-06
17850.0 6.7035e-06
17870.0 6.6832e-06
17890.0 6.6621e-06
17910.0 6.6412e-06
17930.0 6.6211e-06
17950.0 6.6002e-06
17970.0 6.579e-06
17990.0 6.5585e-06
18010.0 6.5379e-06
18030.0 6.516e-06
18050.0 6.4949e-06
18070.0 6.4741e-06
18090.0 6.4527e-06
18110.0 6.4309e-06
18130.0 6.4101e-06
18150.0 6.3889e-06
18170.0 6.367e-06
18190.0 6.3456e-06
18210.0 6.3245e-06
18230.0 6.3025e-06
18250.0 6.2802e-06
18270.0 6.259e-06
18290.0 6.2374e-06
18310.0 6.2151e-06
18330.0 6.1934e-06
18350.0 6.1721e-06
18370.0 6.1497e-06
18390.0 6.1275e-06
18410.0 6.1058e-06
18430.0 6.0839e-06
18450.0 6.061e-06
18470.0 6.039e-06
18490.0 6.0173e-06
18510.0 5.9949e-06
18530.0 5.9724e-06
18550.0 5.9508e-06
18570.0 5.9284e-06
18590.0 5.9054e-06
18610.0 5.8832e-06
18630.0 5.8612e-06
18650.0 5.8384e-06
18670.0 5.8156e-06
18690.0 5.7938e-06
18710.0 5.7713e-06
18730.0 5.7484e-06
18750.0 5.7262e-06
18770.0 5.7041e-06
18790.0 5.6808e-06
18810.0 5.658e-06
18830.0 5.6359e-06
18850.0 5.6132e-06
18870.0 5.5901e-06
18890.0 5.5678e-06
18910.0 5.5456e-06
18930.0 5.5225e-06
18950.0 5.4997e-06
18970.0 5.4775e-06
18990.0 5.4548e-06
19010.0 5.4312e-06
19030.0 5.409e-06
19050.0 5.3866e-06
19070.0 5.3635e-06
19090.0 5.3408e-06
19110.0 5.3188e-06
19130.0 5.2957e-06
19150.0 5.2726e-06
19170.0 5.2502e-06
19190.0 5.2277e-06
19210.0 5.2044e-06
19230.0 5.1815e-06
19250.0 5.1595e-06
19270.0 5.1367e-06
19290.0 5.1137e-06
19310.0 5.0914e-06
19330.0 5.069e-06
19350.0 5.0456e-06
19370.0 5.023e-06
19390.0 5.0007e-06
19410.0 4.9779e-06
19430.0 4.9548e-06
19450.0 4.9328e-06
19470.0 4.9104e-06
19490.0 4.8873e-06
19510.0 4.8649e-06
19530.0 4.8428e-06
19550.0 4.8198e-06
19570.0 4.7967e-06
19590.0 4.7747e-06
19610.0 4.7524e-06
19630.0 4.7295e-06
19650.0 4.7072e-06
19670.0 4.6853e-06
19690.0 4.6624e-06
19710.0 4.6398e-06
19730.0 4.6178e-06
19750.0 4.5955e-06
19770.0 4.5724e-06
19790.0 4.5503e-06
19810.0 4.5284e-06
19830.0 4.5057e-06
19850.0 4.483e-06
19870.0 4.4607e-06
19890.0 4.4368e-06
19910.0 4.4108e-06
19930.0 4.3831e-06
19950.0 4.3516e-06
19970.0 4.3133e-06
19990.0 4.2676e-06
20010.0 3.8175e-06
20030.0 3.761e-06
20050.0 3.6952e-06
20070.0 3.6241e-06
20090.0 3.5479e-06
20110.0 3.4618e-06
20130.0 3.3749e-06
20150.0 3.2888e-06
20170.0 3.1997e-06
20190.0 3.1095e-06
20210.0 3.0243e-06
20230.0 2.9413e-06
20250.0 2.8582e-06
20270.0 2.781e-06
20290.0 2.7105e-06
20310.0 2.6435e-06
20330.0 2.5809e-06
20350.0 2.5287e-06
20370.0 2.4823e-06
20390.0 2.4415e-06
20410.0 2.4084e-06
20430.0 2.3826e-06
20450.0 2.362e-06
20470.0 2.3479e-06
20490.0 2.34e-06
20510.0 2.3371e-06
20530.0 2.3392e-06
20550.0 2.3457e-06
20570.0 2.3556e-06
20590.0 2.3692e-06
20610.0 2.386e-06
20630.0 2.4045e-06
20650.0 2.4254e-06
20670.0 2.4495e-06
20690.0 2.474e-06
20710.0 2.4995e-06
20730.0 2.527e-06
20750.0 2.5557e-06
20770.0 2.5839e-06
20790.0 2.6135e-06
20810.0 2.6448e-06
20830.0 2.6759e-06
20850.0 2.7071e-06
20870.0 2.7404e-06
20890.0 2.7743e-06
20910.0 2.8069e-06
20930.0 2.8407e-06
20950.0 2.8756e-06
20970.0 2.9096e-06
20990.0 2.9431e-06
21010.0 2.9783e-06
21030.0 3.0127e-06
21050.0 3.0454e-06
21070.0 3.078e-06
21090.0 3.1108e-06
21110.0 3.1406e-06
21130.0 3.1685e-06
21150.0 3.1955e-06
21170.0 3.22e-06
21190.0 3.2409e-06
21210.0 3.2597e-06
21230.0 3.2753e-06
21250.0 3.2864e-06
21270.0 3.2932e-06
21290.0 3.2956e-06
21310.0 3.2926e-06
21330.0 3.2846e-06
21350.0 3.2707e-06
21370.0 3.2506e-06
21390.0 3.225e-06
21410.0 3.1938e-06
21430.0 3.1544e-06
21450.0 3.1102e-06
21470.0 3.062e-06
21490.0 3.0076e-06
21510.0 2.9479e-06
21530.0 2.8872e-06
21550.0 2.8237e-06
21570.0 2.7559e-06
21590.0 2.6893e-06
21610.0 2.625e-06
21630.0 2.5605e-06
21650.0 2.4975e-06
21670.0 2.4429e-06
21690.0 2.3925e-06
21710.0 2.3471e-06
21730.0 2.3098e-06
21750.0 2.2809e-06
21770.0 2.2588e-06
21790.0 2.2459e-06
21810.0 2.242e-06
21830.0 2.2464e-06
21850.0 2.2597e-06
21870.0 2.2809e-06
21890.0 2.3083e-06
21910.0 2.3436e-06
21930.0 2.3851e-06
21950.0 2.4301e-06
21970.0 2.48e-06
21990.0 2.5361e-06
22010.0 2.5921e-06
22030.0 2.6491e-06
22050.0 2.709e-06
22070.0 2.7692e-06
22090.0 2.8262e-06
22110.0 2.8837e-06
22130.0 2.9412e-06
22150.0 2.9949e-06
22170.0 3.0455e-06
22190.0 3.0956e-06
22210.0 3.1423e-06
22230.0 3.1834e-06
22250.0 3.222e-06
22270.0 3.2576e-06
22290.0 3.288e-06
22310.0 3.314e-06
22330.0 3.3369e-06
22350.0 3.3546e-06
22370.0 3.3669e-06
22390.0 3.3746e-06
22410.0 3.3768e-06
22430.0 3.3733e-06
22450.0 3.3644e-06
22470.0 3.3493e-06
22490.0 3.328e-06
22510.0 3.3017e-06
22530.0 3.268e-06
22550.0 3.2271e-06
22570.0 3.1818e-06
22590.0 3.1308e-06
22610.0 3.0721e-06
