#lamb flux
1010.0 5.3846e-06
1030.0 5.4835e-06
1050.0 5.8942e-06
1070.0 6.3395e-06
1090.0 6.8186e-06
1110.0 7.2498e-06
1130.0 7.6263e-06
1150.0 7.9857e-06
1170.0 8.3223e-06
1190.0 8.5876e-06
1210.0 8.8403e-06
1230.0 9.1005e-06
1250.0 9.3435e-06
1270.0 9.5765e-06
1290.0 9.856e-06
1310.0 1.0158e-05
1330.0 1.0469e-05
1350.0 1.0827e-05
1370.0 1.125e-05
1390.0 1.1717e-05
1410.0 1.2233e-05
1430.0 1.2847e-05
1450.0 1.3544e-05
1470.0 1.4315e-05
1490.0 1.5194e-05
1510.0 1.6217e-05
1530.0 1.7334e-05
1550.0 1.8575e-05
1570.0 1.9983e-05
1590.0 2.1547e-05
1610.0 2.3246e-05
1630.0 2.5138e-05
1650.0 2.7233e-05
1670.0 2.9489e-05
1690.0 3.1924e-05
1710.0 3.4579e-05
1730.0 3.7427e-05
1750.0 4.0393e-05
1770.0 4.3546e-05
1790.0 4.6865e-05
1810.0 5.0269e-05
1830.0 5.3741e-05
1850.0 5.7343e-05
1870.0 6.0934e-05
1890.0 6.4461e-05
1910.0 6.7949e-05
1930.0 7.1365e-05
1950.0 7.4567e-05
1970.0 7.7558e-05
1990.0 8.0376e-05
2010.0 8.2908e-05
2030.0 8.5097e-05
2050.0 8.7022e-05
2070.0 8.8663e-05
2090.0 8.9885e-05
2110.0 9.0773e-05
2130.0 9.1385e-05
2150.0 9.1659e-05
2170.0 9.1582e-05
2190.0 9.1293e-05
2210.0 9.0774e-05
2230.0 8.999e-05
2250.0 8.9024e-05
2270.0 8.7968e-05
2290.0 8.6754e-05
2310.0 8.5406e-05
2330.0 8.4041e-05
2350.0 8.2658e-05
2370.0 8.123e-05
2390.0 7.9845e-05
2410.0 7.8574e-05
2430.0 7.7365e-05
2450.0 7.626e-05
2470.0 7.5357e-05
2490.0 7.4694e-05
2510.0 7.4237e-05
2530.0 7.4214e-05
2550.0 7.4922e-05
2570.0 7.6605e-05
2590.0 7.9602e-05
2610.0 8.4905e-05
2630.0 9.2724e-05
2650.0 0.00010269
2670.0 0.00011513
2690.0 0.00012989
2710.0 0.00014533
2730.0 0.00016077
2750.0 0.00017686
2770.0 0.00019261
2790.0 0.00020773
2810.0 0.00022328
2830.0 0.00024021
2850.0 0.00025725
2870.0 0.00027527
2890.0 0.00029508
2910.0 0.00031613
2930.0 0.00033769
2950.0 0.0003611
2970.0 0.00038621
2990.0 0.000412
3010.0 0.00043891
3030.0 0.00046778
3050.0 0.00049774
3070.0 0.00052721
3090.0 0.00055708
3110.0 0.00058569
3130.0 0.00061069
3150.0 0.0006309
3170.0 0.00064455
3190.0 0.00065087
3210.0 0.00065142
3230.0 0.00064773
3250.0 0.00064297
3270.0 0.00064159
3290.0 0.00064448
3310.0 0.00065192
3330.0 0.00066406
3350.0 0.00067918
3370.0 0.00069715
3390.0 0.00072059
3410.0 0.00074099
3430.0 0.00076097
3450.0 0.00078081
3470.0 0.00080456
3490.0 0.00086365
3510.0 0.0010063
3530.0 0.0012086
3550.0 0.0013957
3570.0 0.001521
3590.0 0.0015836
3610.0 0.0015758
3630.0 0.0015339
3650.0 0.0016509
3670.0 0.0019449
3690.0 0.0021954
3710.0 0.0023524
3730.0 0.0024938
3750.0 0.0026359
3770.0 0.0026012
3790.0 0.0024363
3810.0 0.0022712
3830.0 0.0021232
3850.0 0.0021052
3870.0 0.0022847
3890.0 0.0024811
3910.0 0.0026127
3930.0 0.0027286
3950.0 0.0030125
3970.0 0.0032591
3990.0 0.0031124
4010.0 0.0027248
4030.0 0.0023787
4050.0 0.0022764
4070.0 0.0022999
4090.0 0.0022731
4110.0 0.0022324
4130.0 0.0021991
4150.0 0.0022138
4170.0 0.0023856
4190.0 0.0026125
4210.0 0.0025971
4230.0 0.0024785
4250.0 0.0024346
4270.0 0.0024646
4290.0 0.0026009
4310.0 0.0027346
4330.0 0.0026075
4350.0 0.0022612
4370.0 0.0019778
4390.0 0.0017638
4410.0 0.0015817
4430.0 0.0015688
4450.0 0.0016942
4470.0 0.0018041
4490.0 0.0019449
4510.0 0.0022281
4530.0 0.002845
4550.0 0.0036925
4570.0 0.0042115
4590.0 0.0044995
4610.0 0.0049964
4630.0 0.0053846
4650.0 0.0050621
4670.0 0.004166
4690.0 0.0033885
4710.0 0.0030283
4730.0 0.0029121
4750.0 0.0027035
4770.0 0.0025221
4790.0 0.002655
4810.0 0.002908
4830.0 0.0029517
4850.0 0.0027694
4870.0 0.0027228
4890.0 0.0029257
4910.0 0.0031162
4930.0 0.0031547
4950.0 0.0030596
4970.0 0.0028591
4990.0 0.0025703
5010.0 0.0023173
5030.0 0.0021661
5050.0 0.0020901
5070.0 0.0020284
5090.0 0.0019574
5110.0 0.0019312
5130.0 0.0019346
5150.0 0.0020066
5170.0 0.0022221
5190.0 0.0025141
5210.0 0.0028462
5230.0 0.0030749
5250.0 0.0032014
5270.0 0.0033773
5290.0 0.0035969
5310.0 0.0036899
5330.0 0.0035668
5350.0 0.0033658
5370.0 0.003347
5390.0 0.0035725
5410.0 0.0038951
5430.0 0.004121
5450.0 0.0041973
5470.0 0.0041421
5490.0 0.0040014
5510.0 0.0038883
5530.0 0.003841
5550.0 0.0038329
5570.0 0.003807
5590.0 0.0037163
5610.0 0.0035636
5630.0 0.0033241
5650.0 0.0030393
5670.0 0.0028491
5690.0 0.0027723
5710.0 0.0027407
5730.0 0.0027176
5750.0 0.0026709
5770.0 0.0026191
5790.0 0.0026174
5810.0 0.0026154
5830.0 0.0026254
5850.0 0.0026362
5870.0 0.0025778
5890.0 0.0024703
5910.0 0.0023241
5930.0 0.0020906
5950.0 0.0018781
5970.0 0.0018011
5990.0 0.0018388
6010.0 0.0018716
6030.0 0.0018104
6050.0 0.0017429
6070.0 0.0018084
6090.0 0.0019609
6110.0 0.0020531
6130.0 0.00201
6150.0 0.0019019
6170.0 0.0018246
6190.0 0.0017589
6210.0 0.0016579
6230.0 0.0015324
6250.0 0.0014605
6270.0 0.001476
6290.0 0.0015124
6310.0 0.0015932
6330.0 0.0017363
6350.0 0.0019003
6370.0 0.0019976
6390.0 0.0020321
6410.0 0.002064
6430.0 0.0020915
6450.0 0.0021243
6470.0 0.002171
6490.0 0.0022204
6510.0 0.0022607
6530.0 0.0022708
6550.0 0.0022538
6570.0 0.0021882
6590.0 0.0020762
6610.0 0.0019931
6630.0 0.0019473
6650.0 0.0018852
6670.0 0.0017961
6690.0 0.0017178
6710.0 0.0016788
6730.0 0.0016535
6750.0 0.0016252
6770.0 0.001601
6790.0 0.001578
6810.0 0.0015402
6830.0 0.0015139
6850.0 0.0015466
6870.0 0.001573
6890.0 0.0015541
6910.0 0.0015239
6930.0 0.0014979
6950.0 0.0014635
6970.0 0.0014075
6990.0 0.001354
7010.0 0.0013275
7030.0 0.0013102
7050.0 0.001263
7070.0 0.0011941
7090.0 0.001171
7110.0 0.0012108
7130.0 0.0012899
7150.0 0.0013692
7170.0 0.0014228
7190.0 0.0014204
7210.0 0.0013625
7230.0 0.0013241
7250.0 0.0013318
7270.0 0.0013287
7290.0 0.0013175
7310.0 0.0013328
7330.0 0.0013781
7350.0 0.0014384
7370.0 0.0014759
7390.0 0.0014802
7410.0 0.0014601
7430.0 0.001416
7450.0 0.0013594
7470.0 0.0013041
7490.0 0.0012592
7510.0 0.0012238
7530.0 0.0012101
7550.0 0.0012187
7570.0 0.0012312
7590.0 0.0012473
7610.0 0.0012479
7630.0 0.0012445
7650.0 0.0012685
7670.0 0.0013111
7690.0 0.0013566
7710.0 0.0014009
7730.0 0.0014399
7750.0 0.0014847
7770.0 0.0015247
7790.0 0.0015554
7810.0 0.0015677
7830.0 0.0015562
7850.0 0.0015159
7870.0 0.0014493
7890.0 0.0013809
7910.0 0.0013442
7930.0 0.0013227
7950.0 0.0012962
7970.0 0.0012766
7990.0 0.0012781
8010.0 0.0012152
8030.0 0.0012056
8050.0 0.001193
8070.0 0.0011754
8090.0 0.0011579
8110.0 0.0011574
8130.0 0.0011634
8150.0 0.0011593
8170.0 0.0011507
8190.0 0.0011201
8210.0 0.0010563
8230.0 0.0009906
8250.0 0.00095528
8270.0 0.00092321
8290.0 0.00088078
8310.0 0.000851
8330.0 0.00083693
8350.0 0.00081515
8370.0 0.00081369
8390.0 0.0008508
8410.0 0.00090492
8430.0 0.00096987
8450.0 0.0010419
8470.0 0.0010908
8490.0 0.0011373
8510.0 0.001176
8530.0 0.0012138
8550.0 0.0012477
8570.0 0.0012721
8590.0 0.001293
8610.0 0.0013267
8630.0 0.0013399
8650.0 0.0013156
8670.0 0.0013183
8690.0 0.0013485
8710.0 0.0013825
8730.0 0.0013869
8750.0 0.0013584
8770.0 0.0013504
8790.0 0.0013469
8810.0 0.0013218
8830.0 0.0012323
8850.0 0.0011213
8870.0 0.001042
8890.0 0.0010058
8910.0 0.0009579
8930.0 0.00089152
8950.0 0.00084423
8970.0 0.00083435
8990.0 0.0008442
9010.0 0.00084469
9030.0 0.00083778
9050.0 0.00083173
9070.0 0.00082698
9090.0 0.00082244
9110.0 0.00081797
9130.0 0.00081351
9150.0 0.00080909
9170.0 0.00080469
9190.0 0.00080034
9210.0 0.00079607
9230.0 0.00079173
9250.0 0.00078744
9270.0 0.00078319
9290.0 0.00077897
9310.0 0.00077479
9330.0 0.00077063
9350.0 0.00076652
9370.0 0.00076242
9390.0 0.00075836
9410.0 0.00075432
9430.0 0.00075021
9450.0 0.0007457
9470.0 0.00074137
9490.0 0.00073793
9510.0 0.00073426
9530.0 0.00073059
9550.0 0.00072681
9570.0 0.00072302
9590.0 0.00071928
9610.0 0.00071553
9630.0 0.00071177
9650.0 0.00070804
9670.0 0.0007044
9690.0 0.00070071
9710.0 0.00069703
9730.0 0.00069343
9750.0 0.00068983
9770.0 0.00068618
9790.0 0.00068259
9810.0 0.00067906
9830.0 0.00067546
9850.0 0.00067168
9870.0 0.00066824
9890.0 0.00066481
9910.0 0.00066132
9930.0 0.00065786
9950.0 0.00065431
9970.0 0.00065084
9990.0 0.00064731
10010.0 0.00064355
10030.0 0.00063996
10050.0 0.00063667
10070.0 0.00063337
10090.0 0.00063006
10110.0 0.00062639
10130.0 0.00062149
10150.0 0.00061829
10170.0 0.00061537
10190.0 0.0006121
10210.0 0.00060888
10230.0 0.00060562
10250.0 0.00060211
10270.0 0.00059858
10290.0 0.00059519
10310.0 0.00059162
10330.0 0.00058788
10350.0 0.00058435
10370.0 0.00058082
10390.0 0.0005771
10410.0 0.00057339
10430.0 0.00056988
10450.0 0.00056618
10470.0 0.00056237
10490.0 0.00055869
10510.0 0.00055502
10530.0 0.00055105
10550.0 0.00054718
10570.0 0.00054346
10590.0 0.00053956
10610.0 0.00053555
10630.0 0.00053172
10650.0 0.00052783
10670.0 0.00052369
10690.0 0.00051963
10710.0 0.00051567
10730.0 0.00051152
10750.0 0.00050718
10770.0 0.00050313
10790.0 0.00049899
10810.0 0.00049464
10830.0 0.00049035
10850.0 0.0004862
10870.0 0.00048172
10890.0 0.00047722
10910.0 0.0004729
10930.0 0.00046852
10950.0 0.00046397
10970.0 0.00045955
10990.0 0.00045536
11010.0 0.000434
11030.0 0.0004294
11050.0 0.00042512
11070.0 0.00042095
11090.0 0.0004167
11110.0 0.00041285
11130.0 0.00040924
11150.0 0.00040571
11170.0 0.00040239
11190.0 0.00039945
11210.0 0.00039667
11230.0 0.00039406
11250.0 0.0003918
11270.0 0.0003898
11290.0 0.00038796
11310.0 0.00038633
11330.0 0.00038499
11350.0 0.00038375
11370.0 0.00038262
11390.0 0.0003816
11410.0 0.00038065
11430.0 0.00037965
11450.0 0.00037864
11470.0 0.00037761
11490.0 0.00037645
11510.0 0.00037513
11530.0 0.00037372
11550.0 0.00037215
11570.0 0.00037033
11590.0 0.00036832
11610.0 0.00036616
11630.0 0.00036369
11650.0 0.0003609
11670.0 0.00035796
11690.0 0.00035477
11710.0 0.00035118
11730.0 0.00034733
11750.0 0.00034336
11770.0 0.00033895
11790.0 0.0003342
11810.0 0.00032933
11830.0 0.00032424
11850.0 0.00031866
11870.0 0.00031305
11890.0 0.0003075
11910.0 0.00030169
11930.0 0.00029579
11950.0 0.00029014
11970.0 0.0002845
11990.0 0.00027876
12010.0 0.00027333
12030.0 0.0002682
12050.0 0.00026313
12070.0 0.00025821
12090.0 0.0002538
12110.0 0.00024958
12130.0 0.00024552
12150.0 0.00024181
12170.0 0.00023848
12190.0 0.00023526
12210.0 0.00023239
12230.0 0.00022992
12250.0 0.00022775
12270.0 0.00022587
12290.0 0.00022436
12310.0 0.00022319
12330.0 0.00022229
12350.0 0.00022167
12370.0 0.00022132
12390.0 0.00022117
12410.0 0.00022124
12430.0 0.00022144
12450.0 0.00022175
12470.0 0.00022217
12490.0 0.00022265
12510.0 0.00022313
12530.0 0.00022364
12550.0 0.00022415
12570.0 0.0002246
12590.0 0.00022498
12610.0 0.00022528
12630.0 0.00022546
12650.0 0.00022546
12670.0 0.00022529
12690.0 0.00022492
12710.0 0.00022432
12730.0 0.00022349
12750.0 0.00022238
12770.0 0.00022103
12790.0 0.00021948
12810.0 0.00021768
12830.0 0.00021564
12850.0 0.00021352
12870.0 0.00021129
12890.0 0.0002089
12910.0 0.0002065
12930.0 0.00020415
12950.0 0.00020173
12970.0 0.00019932
12990.0 0.00019708
13010.0 0.0001949
13030.0 0.00019276
13050.0 0.00019073
13070.0 0.00018885
13090.0 0.000187
13110.0 0.00018522
13130.0 0.00018358
13150.0 0.00018201
13170.0 0.00018045
13190.0 0.00017902
13210.0 0.00017769
13230.0 0.0001764
13250.0 0.00017517
13270.0 0.00017404
13290.0 0.00017296
13310.0 0.0001719
13330.0 0.00017089
13350.0 0.00016993
13370.0 0.00016896
13390.0 0.00016797
13410.0 0.00016701
13430.0 0.000166
13450.0 0.00016492
13470.0 0.0001638
13490.0 0.00016264
13510.0 0.00016136
13530.0 0.00016
13550.0 0.00015861
13570.0 0.00015713
13590.0 0.00015554
13610.0 0.00015394
13630.0 0.00015233
13650.0 0.00015062
13670.0 0.00014889
13690.0 0.00014719
13710.0 0.00014547
13730.0 0.00014367
13750.0 0.00014196
13770.0 0.00014029
13790.0 0.00013858
13810.0 0.00013691
13830.0 0.00013532
13850.0 0.00013372
13870.0 0.00013213
13890.0 0.00013063
13910.0 0.0001292
13930.0 0.00012777
13950.0 0.00012642
13970.0 0.0001252
13990.0 0.00012402
14010.0 0.00012289
14030.0 0.00012187
14050.0 0.00012093
14070.0 0.00012001
14090.0 0.00011917
14110.0 0.00011841
14130.0 0.00011768
14150.0 0.00011698
14170.0 0.00011634
14190.0 0.00011573
14210.0 0.00011512
14230.0 0.00011454
14250.0 0.00011398
14270.0 0.00011341
14290.0 0.00011284
14310.0 0.0001123
14330.0 0.00011176
14350.0 0.0001112
14370.0 0.00011066
14390.0 0.00011013
14410.0 0.00010959
14430.0 0.00010905
14450.0 0.00010854
14470.0 0.00010803
14490.0 0.00010751
14510.0 0.00010701
14530.0 0.00010654
14550.0 0.00010605
14570.0 0.00010556
14590.0 0.00010508
14610.0 0.00010457
14630.0 0.00010403
14650.0 0.00010348
14670.0 0.00010293
14690.0 0.00010236
14710.0 0.00010179
14730.0 0.0001013
14750.0 0.00010085
14770.0 0.00010049
14790.0 0.00010027
14810.0 0.00010021
14830.0 0.00010034
14850.0 0.00010071
14870.0 0.00010129
14890.0 0.00010211
14910.0 0.00010315
14930.0 0.00010432
14950.0 0.00010554
14970.0 0.00010681
14990.0 0.00010798
15010.0 0.00010897
15030.0 0.0001098
15050.0 0.00011045
15070.0 0.00011091
15090.0 0.00011124
15110.0 0.00011148
15130.0 0.00011167
15150.0 0.00011183
15170.0 0.00011197
15190.0 0.00011211
15210.0 0.00011225
15230.0 0.0001124
15250.0 0.00011254
15270.0 0.00011269
15290.0 0.00011284
15310.0 0.000113
15330.0 0.00011316
15350.0 0.00011332
15370.0 0.00011349
15390.0 0.00011365
15410.0 0.00011383
15430.0 0.000114
15450.0 0.00011418
15470.0 0.00011436
15490.0 0.00011455
15510.0 0.00011474
15530.0 0.00011493
15550.0 0.00011513
15570.0 0.00011532
15590.0 0.00011552
15610.0 0.00011573
15630.0 0.00011593
15650.0 0.00011614
15670.0 0.00011636
15690.0 0.00011657
15710.0 0.00011679
15730.0 0.00011701
15750.0 0.00011723
15770.0 0.00011746
15790.0 0.00011768
15810.0 0.00011791
15830.0 0.00011814
15850.0 0.00011838
15870.0 0.00011861
15890.0 0.00011885
15910.0 0.00011909
15930.0 0.00011933
15950.0 0.00011958
15970.0 0.00011982
15990.0 0.00012007
16010.0 0.00012032
16030.0 0.00012057
16050.0 0.00012082
16070.0 0.00012108
16090.0 0.00012133
16110.0 0.00012159
16130.0 0.00012185
16150.0 0.00012211
16170.0 0.00012237
16190.0 0.00012263
16210.0 0.00012289
16230.0 0.00012315
16250.0 0.00012342
16270.0 0.00012368
16290.0 0.00012395
16310.0 0.00012421
16330.0 0.00012448
16350.0 0.00012474
16370.0 0.00012501
16390.0 0.00012528
16410.0 0.00012554
16430.0 0.00012581
16450.0 0.00012608
16470.0 0.00012635
16490.0 0.00012661
16510.0 0.00012688
16530.0 0.00012714
16550.0 0.00012741
16570.0 0.00012767
16590.0 0.00012794
16610.0 0.0001282
16630.0 0.00012846
16650.0 0.00012872
16670.0 0.00012899
16690.0 0.00012925
16710.0 0.0001295
16730.0 0.00012976
16750.0 0.00013002
16770.0 0.00013027
16790.0 0.00013052
16810.0 0.00013077
16830.0 0.00013102
16850.0 0.00013127
16870.0 0.00013151
16890.0 0.00013175
16910.0 0.00013199
16930.0 0.00013223
16950.0 0.00013247
16970.0 0.0001327
16990.0 0.00013293
17010.0 0.00013316
17030.0 0.00013338
17050.0 0.00013361
17070.0 0.00013382
17090.0 0.00013404
17110.0 0.00013425
17130.0 0.00013446
17150.0 0.00013467
17170.0 0.00013487
17190.0 0.00013507
17210.0 0.00013527
17230.0 0.00013546
17250.0 0.00013565
17270.0 0.00013583
17290.0 0.00013601
17310.0 0.00013619
17330.0 0.00013636
17350.0 0.00013652
17370.0 0.00013669
17390.0 0.00013685
17410.0 0.000137
17430.0 0.00013715
17450.0 0.0001373
17470.0 0.00013744
17490.0 0.00013757
17510.0 0.0001377
17530.0 0.00013783
17550.0 0.00013794
17570.0 0.00013806
17590.0 0.00013817
17610.0 0.00013827
17630.0 0.00013837
17650.0 0.00013846
17670.0 0.00013855
17690.0 0.00013863
17710.0 0.00013871
17730.0 0.00013878
17750.0 0.00013884
17770.0 0.0001389
17790.0 0.00013895
17810.0 0.000139
17830.0 0.00013904
17850.0 0.00013907
17870.0 0.0001391
17890.0 0.00013912
17910.0 0.00013913
17930.0 0.00013914
17950.0 0.00013914
17970.0 0.00013914
17990.0 0.00013913
18010.0 0.00013911
18030.0 0.00013908
18050.0 0.00013905
18070.0 0.00013901
18090.0 0.00013897
18110.0 0.00013892
18130.0 0.00013886
18150.0 0.00013879
18170.0 0.00013872
18190.0 0.00013864
18210.0 0.00013855
18230.0 0.00013846
18250.0 0.00013836
18270.0 0.00013825
18290.0 0.00013814
18310.0 0.00013801
18330.0 0.00013789
18350.0 0.00013775
18370.0 0.00013761
18390.0 0.00013746
18410.0 0.0001373
18430.0 0.00013713
18450.0 0.00013696
18470.0 0.00013678
18490.0 0.0001366
18510.0 0.0001364
18530.0 0.0001362
18550.0 0.000136
18570.0 0.00013578
18590.0 0.00013556
18610.0 0.00013533
18630.0 0.0001351
18650.0 0.00013485
18670.0 0.0001346
18690.0 0.00013435
18710.0 0.00013408
18730.0 0.00013381
18750.0 0.00013353
18770.0 0.00013325
18790.0 0.00013296
18810.0 0.00013266
18830.0 0.00013236
18850.0 0.00013204
18870.0 0.00013172
18890.0 0.0001314
18910.0 0.00013107
18930.0 0.00013073
18950.0 0.00013039
18970.0 0.00013004
18990.0 0.00012968
19010.0 0.00012931
19030.0 0.00012894
19050.0 0.00012857
19070.0 0.00012819
19090.0 0.0001278
19110.0 0.00012741
19130.0 0.000127
19150.0 0.0001266
19170.0 0.00012619
19190.0 0.00012577
19210.0 0.00012534
19230.0 0.00012492
19250.0 0.00012448
19270.0 0.00012404
19290.0 0.0001236
19310.0 0.00012315
19330.0 0.00012269
19350.0 0.00012223
19370.0 0.00012176
19390.0 0.00012129
19410.0 0.00012082
19430.0 0.00012033
19450.0 0.00011985
19470.0 0.00011936
19490.0 0.00011887
19510.0 0.00011837
19530.0 0.00011786
19550.0 0.00011736
19570.0 0.00011684
19590.0 0.00011633
19610.0 0.00011581
19630.0 0.00011528
19650.0 0.00011476
19670.0 0.00011423
19690.0 0.00011369
19710.0 0.00011315
19730.0 0.00011261
19750.0 0.00011206
19770.0 0.00011151
19790.0 0.00011096
19810.0 0.00011041
19830.0 0.00010985
19850.0 0.00010928
19870.0 0.0001087
19890.0 0.00010811
19910.0 0.00010747
19930.0 0.00010679
19950.0 0.00010603
19970.0 0.00010515
19990.0 0.00010413
20010.0 0.00010299
20030.0 0.00010168
20050.0 0.00010021
20070.0 9.8658e-05
20090.0 9.7029e-05
20110.0 9.5272e-05
20130.0 9.3522e-05
20150.0 9.1807e-05
20170.0 9.0069e-05
20190.0 8.8331e-05
20210.0 8.6672e-05
20230.0 8.5046e-05
20250.0 8.3413e-05
20270.0 8.185e-05
20290.0 8.0362e-05
20310.0 7.8897e-05
20330.0 7.7458e-05
20350.0 7.6142e-05
20370.0 7.4874e-05
20390.0 7.3646e-05
20410.0 7.2499e-05
20430.0 7.1438e-05
20450.0 7.0409e-05
20470.0 6.9452e-05
20490.0 6.8577e-05
20510.0 6.7762e-05
20530.0 6.6996e-05
20550.0 6.6298e-05
20570.0 6.5662e-05
20590.0 6.5067e-05
20610.0 6.4519e-05
20630.0 6.4016e-05
20650.0 6.3547e-05
20670.0 6.3107e-05
20690.0 6.2695e-05
20710.0 6.23e-05
20730.0 6.1919e-05
20750.0 6.1546e-05
20770.0 6.1174e-05
20790.0 6.0799e-05
20810.0 6.0417e-05
20830.0 6.0022e-05
20850.0 5.9612e-05
20870.0 5.9181e-05
20890.0 5.8727e-05
20910.0 5.8251e-05
20930.0 5.7749e-05
20950.0 5.7218e-05
20970.0 5.6663e-05
20990.0 5.6087e-05
21010.0 5.5476e-05
21030.0 5.4843e-05
21050.0 5.4196e-05
21070.0 5.3526e-05
21090.0 5.2827e-05
21110.0 5.2129e-05
21130.0 5.1422e-05
21150.0 5.0695e-05
21170.0 4.9965e-05
21190.0 4.9244e-05
21210.0 4.8508e-05
21230.0 4.7766e-05
21250.0 4.7043e-05
21270.0 4.6326e-05
21290.0 4.5604e-05
21310.0 4.4896e-05
21330.0 4.4214e-05
21350.0 4.3533e-05
21370.0 4.2862e-05
21390.0 4.2217e-05
21410.0 4.1591e-05
21430.0 4.0966e-05
21450.0 4.0372e-05
21470.0 3.9807e-05
21490.0 3.9255e-05
21510.0 3.8722e-05
21530.0 3.822e-05
21550.0 3.7737e-05
21570.0 3.727e-05
21590.0 3.6826e-05
21610.0 3.6406e-05
21630.0 3.5999e-05
21650.0 3.5607e-05
21670.0 3.5235e-05
21690.0 3.4875e-05
21710.0 3.4525e-05
21730.0 3.4184e-05
21750.0 3.3853e-05
21770.0 3.3525e-05
21790.0 3.3201e-05
21810.0 3.2882e-05
21830.0 3.2564e-05
21850.0 3.2245e-05
21870.0 3.1926e-05
21890.0 3.1608e-05
21910.0 3.1286e-05
21930.0 3.0961e-05
21950.0 3.0637e-05
21970.0 3.0308e-05
21990.0 2.9972e-05
22010.0 2.9637e-05
22030.0 2.9299e-05
22050.0 2.8954e-05
22070.0 2.8605e-05
22090.0 2.8257e-05
22110.0 2.7902e-05
22130.0 2.754e-05
22150.0 2.7178e-05
22170.0 2.6813e-05
22190.0 2.6437e-05
22210.0 2.6058e-05
22230.0 2.5682e-05
22250.0 2.5299e-05
22270.0 2.4909e-05
22290.0 2.4522e-05
22310.0 2.4135e-05
22330.0 2.3736e-05
22350.0 2.3339e-05
22370.0 2.2947e-05
22390.0 2.255e-05
22410.0 2.2146e-05
22430.0 2.1753e-05
22450.0 2.1363e-05
22470.0 2.0967e-05
22490.0 2.0577e-05
22510.0 2.0197e-05
22530.0 1.9812e-05
22550.0 1.9429e-05
22570.0 1.906e-05
22590.0 1.8698e-05
22610.0 1.8337e-05
22630.0 1.7987e-05
22650.0 1.7654e-05
22670.0 1.7324e-05
22690.0 1.7002e-05
22710.0 1.6698e-05
22730.0 1.6405e-05
22750.0 1.6116e-05
22770.0 1.5846e-05
22790.0 1.559e-05
22810.0 1.5344e-05
22830.0 1.5109e-05
22850.0 1.4889e-05
22870.0 1.468e-05
22890.0 1.4478e-05
