#lamb flux
1010.0 5.9103e-08
1030.0 6.4672e-08
1050.0 7.1076e-08
1070.0 7.8286e-08
1090.0 8.6476e-08
1110.0 9.4875e-08
1130.0 1.0333e-07
1150.0 1.1218e-07
1170.0 1.2132e-07
1190.0 1.2998e-07
1210.0 1.3876e-07
1230.0 1.4783e-07
1250.0 1.5672e-07
1270.0 1.6535e-07
1290.0 1.7447e-07
1310.0 1.8358e-07
1330.0 1.9232e-07
1350.0 2.0116e-07
1370.0 2.1028e-07
1390.0 2.1918e-07
1410.0 2.2781e-07
1430.0 2.3683e-07
1450.0 2.4585e-07
1470.0 2.5456e-07
1490.0 2.6337e-07
1510.0 2.7268e-07
1530.0 2.8149e-07
1550.0 2.9019e-07
1570.0 2.9918e-07
1590.0 3.0818e-07
1610.0 3.1677e-07
1630.0 3.2563e-07
1650.0 3.3472e-07
1670.0 3.435e-07
1690.0 3.5217e-07
1710.0 3.6117e-07
1730.0 3.7021e-07
1750.0 3.787e-07
1770.0 3.8743e-07
1790.0 3.9632e-07
1810.0 4.0492e-07
1830.0 4.1334e-07
1850.0 4.2227e-07
1870.0 4.3094e-07
1890.0 4.3929e-07
1910.0 4.4777e-07
1930.0 4.5643e-07
1950.0 4.6465e-07
1970.0 4.7271e-07
1990.0 4.8104e-07
2010.0 4.8916e-07
2030.0 4.969e-07
2050.0 5.0482e-07
2070.0 5.1287e-07
2090.0 5.2033e-07
2110.0 5.2765e-07
2130.0 5.3512e-07
2150.0 5.4229e-07
2170.0 5.4897e-07
2190.0 5.558e-07
2210.0 5.6253e-07
2230.0 5.6876e-07
2250.0 5.7478e-07
2270.0 5.8097e-07
2290.0 5.8671e-07
2310.0 5.9193e-07
2330.0 5.9725e-07
2350.0 6.0258e-07
2370.0 6.0767e-07
2390.0 6.1326e-07
2410.0 6.2031e-07
2430.0 6.2881e-07
2450.0 6.3954e-07
2470.0 6.5423e-07
2490.0 6.7366e-07
2510.0 6.9617e-07
2530.0 7.2408e-07
2550.0 7.6012e-07
2570.0 8.0587e-07
2590.0 8.6607e-07
2610.0 9.5707e-07
2630.0 1.086e-06
2650.0 1.2519e-06
2670.0 1.4628e-06
2690.0 1.7171e-06
2710.0 1.9817e-06
2730.0 2.2359e-06
2750.0 2.4792e-06
2770.0 2.6819e-06
2790.0 2.8331e-06
2810.0 2.944e-06
2830.0 3.0214e-06
2850.0 3.0632e-06
2870.0 3.0848e-06
2890.0 3.0949e-06
2910.0 3.0966e-06
2930.0 3.0928e-06
2950.0 3.088e-06
2970.0 3.0831e-06
2990.0 3.0773e-06
3010.0 9.7768e-05
3030.0 9.7603e-05
3050.0 9.7438e-05
3070.0 9.7208e-05
3090.0 9.692e-05
3110.0 9.6471e-05
3130.0 9.5738e-05
3150.0 9.4631e-05
3170.0 9.296e-05
3190.0 9.0756e-05
3210.0 8.8171e-05
3230.0 8.5316e-05
3250.0 8.2393e-05
3270.0 8.0207e-05
3290.0 7.8577e-05
3310.0 7.825e-05
3330.0 7.8831e-05
3350.0 8.0286e-05
3370.0 8.2602e-05
3390.0 8.5667e-05
3410.0 8.9084e-05
3430.0 9.2979e-05
3450.0 9.7509e-05
3470.0 0.0001025
3490.0 0.00010786
3510.0 0.00011397
3530.0 0.00012062
3550.0 0.0001277
3570.0 0.00013544
3590.0 0.00014404
3610.0 0.00015352
3630.0 0.00016291
3650.0 0.00017282
3670.0 0.00018175
3690.0 0.00018836
3710.0 0.00019172
3730.0 0.00018997
3750.0 0.00018335
3770.0 0.00018747
3790.0 0.00018446
3810.0 0.00014809
3830.0 0.00014539
3850.0 0.00020743
3870.0 0.00020682
3890.0 0.00016306
3910.0 0.00015438
3930.0 0.00018705
3950.0 0.00021961
3970.0 0.00023992
3990.0 0.0001648
4010.0 0.00034881
4030.0 0.00035848
4050.0 0.00039485
4070.0 0.0004201
4090.0 0.00039325
4110.0 0.00033836
4130.0 0.00039498
4150.0 0.00051767
4170.0 0.00041985
4190.0 0.00038164
4210.0 0.00042263
4230.0 0.00051136
4250.0 0.00061423
4270.0 0.00066224
4290.0 0.00058675
4310.0 0.00055059
4330.0 0.0005481
4350.0 0.0006893
4370.0 0.00083336
4390.0 0.00067422
4410.0 0.00038679
4430.0 0.00028143
4450.0 0.00026409
4470.0 0.0001635
4490.0 0.00026845
4510.0 0.00057159
4530.0 0.00069487
4550.0 0.00065282
4570.0 0.00059667
4590.0 0.00064005
4610.0 0.0012279
4630.0 0.0017182
4650.0 0.0016466
4670.0 0.0014527
4690.0 0.0014701
4710.0 0.0015371
4730.0 0.0012813
4750.0 0.00084482
4770.0 0.00057855
4790.0 0.00063063
4810.0 0.00066021
4830.0 0.00064855
4850.0 0.00070355
4870.0 0.00093187
4890.0 0.0010808
4910.0 0.00085017
4930.0 0.00082039
4950.0 0.00094208
4970.0 0.0012487
4990.0 0.0016876
5010.0 0.0019544
5030.0 0.0015764
5050.0 0.0009752
5070.0 0.00068785
5090.0 0.00052278
5110.0 0.00049199
5130.0 0.00059142
5150.0 0.00057905
5170.0 0.00054577
5190.0 0.00048581
5210.0 0.00054073
5230.0 0.00066408
5250.0 0.00077086
5270.0 0.00072039
5290.0 0.00077725
5310.0 0.0010357
5330.0 0.0011169
5350.0 0.0011014
5370.0 0.0012309
5390.0 0.0015284
5410.0 0.0013245
5430.0 0.0010289
5450.0 0.0010307
5470.0 0.0011901
5490.0 0.0014857
5510.0 0.0018104
5530.0 0.0020996
5550.0 0.0019061
5570.0 0.0017115
5590.0 0.0014115
5610.0 0.0014224
5630.0 0.0015842
5650.0 0.0014605
5670.0 0.001345
5690.0 0.001093
5710.0 0.0011213
5730.0 0.0010862
5750.0 0.00060082
5770.0 0.0004303
5790.0 0.00053061
5810.0 0.00056046
5830.0 0.00086306
5850.0 0.0011238
5870.0 0.0012117
5890.0 0.0011612
5910.0 0.001131
5930.0 0.0010866
5950.0 0.0011201
5970.0 0.0013859
5990.0 0.0011478
6010.0 0.00088818
6030.0 0.00072642
6050.0 0.0006476
6070.0 0.0007641
6090.0 0.00085716
6110.0 0.00087847
6130.0 0.0008151
6150.0 0.00064425
6170.0 0.00050159
6190.0 0.00060786
6210.0 0.0009565
6230.0 0.0014082
6250.0 0.0015196
6270.0 0.0011693
6290.0 0.0010009
6310.0 0.00076423
6330.0 0.000558
6350.0 0.00054597
6370.0 0.00057319
6390.0 0.00068429
6410.0 0.00088466
6430.0 0.0010639
6450.0 0.0013019
6470.0 0.0013781
6490.0 0.0016506
6510.0 0.0018513
6530.0 0.0018881
6550.0 0.0017365
6570.0 0.0013937
6590.0 0.0013233
6610.0 0.0010972
6630.0 0.0011359
6650.0 0.0011034
6670.0 0.00096589
6690.0 0.00075031
6710.0 0.00073203
6730.0 0.00032092
6750.0 0.00043081
6770.0 0.00067601
6790.0 0.00089412
6810.0 0.00063825
6830.0 0.00065173
6850.0 0.00054287
6870.0 0.00050788
6890.0 0.00042925
6910.0 0.00052224
6930.0 0.00049164
6950.0 0.00058767
6970.0 0.00061054
6990.0 0.00067778
7010.0 0.00065473
7030.0 0.00074948
7050.0 0.00064961
7070.0 0.00054189
7090.0 0.0005812
7110.0 0.00061666
7130.0 0.00070968
7150.0 0.00080429
7170.0 0.00090174
7190.0 0.00096294
7210.0 0.00085845
7230.0 0.00086938
7250.0 0.00093181
7270.0 0.0010002
7290.0 0.0012323
7310.0 0.0013027
7330.0 0.0012186
7350.0 0.0010914
7370.0 0.00080953
7390.0 0.00083496
7410.0 0.0010227
7430.0 0.0011654
7450.0 0.0012556
7470.0 0.0011489
7490.0 0.00091742
7510.0 0.001479
7530.0 0.0013477
7550.0 0.0012712
7570.0 0.00086365
7590.0 0.0003833
7610.0 0.0002706
7630.0 0.00041081
7650.0 0.00055237
7670.0 0.00087927
7690.0 0.00097969
7710.0 0.00088532
7730.0 0.00087876
7750.0 0.0011536
7770.0 0.0011856
7790.0 0.0010841
7810.0 0.00087637
7830.0 0.00094958
7850.0 0.0010407
7870.0 0.0010176
7890.0 0.0007954
7910.0 0.00053464
7930.0 0.00055392
7950.0 0.00050037
7970.0 0.00042151
7990.0 0.00038108
8010.0 0.00020022
8030.0 0.00018272
8050.0 0.00019839
8070.0 0.00022486
8090.0 0.00027611
8110.0 0.00025896
8130.0 0.00015153
8150.0 0.00015786
8170.0 8.5835e-05
8190.0 4.9557e-05
8210.0 0.0001401
8230.0 0.00017021
8250.0 6.2341e-05
8270.0 4.8081e-05
8290.0 0.00010054
8310.0 8.9571e-05
8330.0 5.4657e-05
8350.0 4.4156e-05
8370.0 9.0962e-06
8390.0 4.7169e-05
8410.0 5.4421e-05
8430.0 6.7651e-05
8450.0 7.6159e-05
8470.0 0.00013002
8490.0 0.00010502
8510.0 7.9448e-05
8530.0 3.6664e-05
8550.0 0.00014407
8570.0 0.00022674
8590.0 0.00015421
8610.0 0.00023448
8630.0 0.00025393
8650.0 0.00012926
8670.0 0.00019754
8690.0 0.00031604
8710.0 0.00026997
8730.0 0.0002925
8750.0 0.0002281
8770.0 0.00020189
8790.0 0.00022565
8810.0 0.00024634
8830.0 0.00013342
8850.0 5.3778e-05
8870.0 3.7371e-05
8890.0 0.00010382
8910.0 0.00016751
8930.0 0.00022332
8950.0 0.00024941
8970.0 0.00023978
8990.0 0.00017774
9010.0 0.00016906
9030.0 0.00012763
9050.0 0.00013269
9070.0 0.00013798
9090.0 0.00014228
9110.0 0.0001475
9130.0 0.00015126
9150.0 0.00015395
9170.0 0.0001568
9190.0 0.00015986
9210.0 0.00016307
9230.0 0.00016646
9250.0 0.00016988
9270.0 0.00017342
9290.0 0.00017704
9310.0 0.00018066
9330.0 0.00018432
9350.0 0.00018811
9370.0 0.00019192
9390.0 0.00019573
9410.0 0.00019965
9430.0 0.00020367
9450.0 0.00020764
9470.0 0.00021169
9490.0 0.00021584
9510.0 0.00022002
9530.0 0.0002242
9550.0 0.00022853
9570.0 0.00023292
9590.0 0.0002373
9610.0 0.00024175
9630.0 0.00024632
9650.0 0.00025091
9670.0 0.00025549
9690.0 0.00026019
9710.0 0.00026497
9730.0 0.00026974
9750.0 0.00027457
9770.0 0.00027957
9790.0 0.00028452
9810.0 0.0002895
9830.0 0.00029459
9850.0 0.00029975
9870.0 0.00030487
9890.0 0.00031007
9910.0 0.00031538
9930.0 0.00032068
9950.0 0.00032599
9970.0 0.00033142
9990.0 0.00033691
10010.0 0.00030014
10030.0 0.00030494
10050.0 0.00030981
10070.0 0.00031462
10090.0 0.00031947
10110.0 0.00032444
10130.0 0.0003294
10150.0 0.00033432
10170.0 0.00033929
10190.0 0.00034432
10210.0 0.00034929
10230.0 0.00035425
10250.0 0.00035928
10270.0 0.00036429
10290.0 0.00036924
10310.0 0.00037425
10330.0 0.00037931
10350.0 0.00038427
10370.0 0.00038922
10390.0 0.00039421
10410.0 0.00039917
10430.0 0.00040403
10450.0 0.00040893
10470.0 0.00041384
10490.0 0.00041866
10510.0 0.00042343
10530.0 0.00042827
10550.0 0.00043302
10570.0 0.00043766
10590.0 0.00044231
10610.0 0.00044695
10630.0 0.00045146
10650.0 0.00045592
10670.0 0.00046041
10690.0 0.0004648
10710.0 0.00046907
10730.0 0.00047335
10750.0 0.00047761
10770.0 0.00048168
10790.0 0.0004857
10810.0 0.0004897
10830.0 0.00049356
10850.0 0.00049723
10870.0 0.00050081
10890.0 0.00050405
10910.0 0.0005067
10930.0 0.00050856
10950.0 0.00050919
10970.0 0.00050819
10990.0 0.00050537
11010.0 0.00050243
11030.0 0.00049478
11050.0 0.00048518
11070.0 0.00047354
11090.0 0.00045944
11110.0 0.00044481
11130.0 0.00042954
11150.0 0.00041315
11170.0 0.00039633
11190.0 0.00038007
11210.0 0.00036339
11230.0 0.00034639
11250.0 0.00033023
11270.0 0.00031479
11290.0 0.0002994
11310.0 0.00028486
11330.0 0.00027204
11350.0 0.00025992
11370.0 0.00024869
11390.0 0.00023888
11410.0 0.0002302
11430.0 0.00022203
11450.0 0.00021485
11470.0 0.0002085
11490.0 0.00020248
11510.0 0.0001966
11530.0 0.00019106
11550.0 0.00018555
11570.0 0.0001797
11590.0 0.00017371
11610.0 0.00016765
11630.0 0.00016116
11650.0 0.00015431
11670.0 0.00014759
11690.0 0.00014084
11710.0 0.00013392
11730.0 0.00012724
11750.0 0.00012104
11770.0 0.00011496
11790.0 0.00010924
11810.0 0.00010415
11830.0 9.9552e-05
11850.0 9.5264e-05
11870.0 9.1594e-05
11890.0 8.846e-05
11910.0 8.5638e-05
11930.0 8.3141e-05
11950.0 8.0988e-05
11970.0 7.9016e-05
11990.0 7.7129e-05
12010.0 7.5363e-05
12030.0 7.366e-05
12050.0 7.1923e-05
12070.0 7.0143e-05
12090.0 6.8427e-05
12110.0 6.6693e-05
12130.0 6.495e-05
12150.0 6.3303e-05
12170.0 6.18e-05
12190.0 6.0402e-05
12210.0 5.9246e-05
12230.0 5.8388e-05
12250.0 5.7836e-05
12270.0 5.7654e-05
12290.0 5.7856e-05
12310.0 5.8414e-05
12330.0 5.9411e-05
12350.0 6.0801e-05
12370.0 6.2473e-05
12390.0 6.4481e-05
12410.0 6.6913e-05
12430.0 6.9405e-05
12450.0 7.2005e-05
12470.0 7.4793e-05
12490.0 7.7595e-05
12510.0 8.0201e-05
12530.0 8.2789e-05
12550.0 8.5272e-05
12570.0 8.7425e-05
12590.0 8.9274e-05
12610.0 9.0892e-05
12630.0 9.2122e-05
12650.0 9.288e-05
12670.0 9.3285e-05
12690.0 9.3285e-05
12710.0 9.2863e-05
12730.0 9.2066e-05
12750.0 9.0867e-05
12770.0 8.9324e-05
12790.0 8.7514e-05
12810.0 8.5413e-05
12830.0 8.3034e-05
12850.0 8.0567e-05
12870.0 7.7987e-05
12890.0 7.5232e-05
12910.0 7.2452e-05
12930.0 6.9724e-05
12950.0 6.6904e-05
12970.0 6.4055e-05
12990.0 6.1362e-05
13010.0 5.8712e-05
13030.0 5.6045e-05
13050.0 5.3482e-05
13070.0 5.1074e-05
13090.0 4.8659e-05
13110.0 4.6316e-05
13130.0 4.414e-05
13150.0 4.2066e-05
13170.0 4.0024e-05
13190.0 3.8181e-05
13210.0 3.6532e-05
13230.0 3.4999e-05
13250.0 3.3642e-05
13270.0 3.2524e-05
13290.0 3.1599e-05
13310.0 3.0881e-05
13330.0 3.0425e-05
13350.0 3.0213e-05
13370.0 3.0254e-05
13390.0 3.0566e-05
13410.0 3.1089e-05
13430.0 3.1844e-05
13450.0 3.2839e-05
13470.0 3.3988e-05
13490.0 3.524e-05
13510.0 3.6694e-05
13530.0 3.8202e-05
13550.0 3.9671e-05
13570.0 4.1148e-05
13590.0 4.2618e-05
13610.0 4.3948e-05
13630.0 4.5129e-05
13650.0 4.6232e-05
13670.0 4.7168e-05
13690.0 4.791e-05
13710.0 4.8504e-05
13730.0 4.8955e-05
13750.0 4.9206e-05
13770.0 4.9306e-05
13790.0 4.9266e-05
13810.0 4.9083e-05
13830.0 4.878e-05
13850.0 4.8355e-05
13870.0 4.7808e-05
13890.0 4.7174e-05
13910.0 4.6456e-05
13930.0 4.5626e-05
13950.0 4.472e-05
13970.0 4.3796e-05
13990.0 4.2795e-05
14010.0 4.1735e-05
14030.0 4.0682e-05
14050.0 3.9625e-05
14070.0 3.8514e-05
14090.0 3.7451e-05
14110.0 3.6453e-05
14130.0 3.5486e-05
14150.0 3.4573e-05
14170.0 3.3789e-05
14190.0 3.3105e-05
14210.0 3.2517e-05
14230.0 3.2069e-05
14250.0 3.1766e-05
14270.0 3.1595e-05
14290.0 3.158e-05
14310.0 3.1709e-05
14330.0 3.1977e-05
14350.0 3.2392e-05
14370.0 3.2927e-05
14390.0 3.3549e-05
14410.0 3.4296e-05
14430.0 3.5131e-05
14450.0 3.6001e-05
14470.0 3.6918e-05
14490.0 3.7912e-05
14510.0 3.888e-05
14530.0 3.9817e-05
14550.0 4.0771e-05
14570.0 4.1704e-05
14590.0 4.257e-05
14610.0 4.3421e-05
14630.0 4.4275e-05
14650.0 4.5081e-05
14670.0 4.5866e-05
14690.0 4.6686e-05
14710.0 4.7546e-05
14730.0 4.8404e-05
14750.0 4.9346e-05
14770.0 5.0405e-05
14790.0 5.1544e-05
14810.0 5.2771e-05
14830.0 5.4211e-05
14850.0 5.5769e-05
14870.0 5.7391e-05
14890.0 5.9136e-05
14910.0 6.0984e-05
14930.0 6.2766e-05
14950.0 6.4437e-05
14970.0 6.6025e-05
14990.0 6.7372e-05
15010.0 6.8424e-05
15030.0 6.9229e-05
15050.0 6.9793e-05
15070.0 7.0117e-05
15090.0 7.0294e-05
15110.0 7.0367e-05
15130.0 7.0374e-05
15150.0 7.0352e-05
15170.0 7.0309e-05
15190.0 7.0256e-05
15210.0 7.0206e-05
15230.0 7.0157e-05
15250.0 7.0103e-05
15270.0 7.0052e-05
15290.0 7.001e-05
15310.0 6.9963e-05
15330.0 6.9916e-05
15350.0 6.9875e-05
15370.0 6.9837e-05
15390.0 6.979e-05
15410.0 6.9749e-05
15430.0 6.9713e-05
15450.0 6.9674e-05
15470.0 6.9632e-05
15490.0 6.9598e-05
15510.0 6.9565e-05
15530.0 6.9527e-05
15550.0 6.9492e-05
15570.0 6.9462e-05
15590.0 6.9425e-05
15610.0 6.9386e-05
15630.0 6.9356e-05
15650.0 6.9325e-05
15670.0 6.9288e-05
15690.0 6.9255e-05
15710.0 6.9228e-05
15730.0 6.9193e-05
15750.0 6.9157e-05
15770.0 6.9127e-05
15790.0 6.9095e-05
15810.0 6.9055e-05
15830.0 6.9022e-05
15850.0 6.8992e-05
15870.0 6.8956e-05
15890.0 6.8919e-05
15910.0 6.8888e-05
15930.0 6.8852e-05
15950.0 6.881e-05
15970.0 6.8774e-05
15990.0 6.8739e-05
16010.0 6.8697e-05
16030.0 6.8653e-05
16050.0 6.8617e-05
16070.0 6.8577e-05
16090.0 6.8531e-05
16110.0 6.8489e-05
16130.0 6.8449e-05
16150.0 6.8398e-05
16170.0 6.8348e-05
16190.0 6.8304e-05
16210.0 6.8255e-05
16230.0 6.82e-05
16250.0 6.815e-05
16270.0 6.8101e-05
16290.0 6.8043e-05
16310.0 6.7986e-05
16330.0 6.7932e-05
16350.0 6.7873e-05
16370.0 6.7805e-05
16390.0 6.7746e-05
16410.0 6.7685e-05
16430.0 6.7617e-05
16450.0 6.7549e-05
16470.0 6.7486e-05
16490.0 6.7414e-05
16510.0 6.7338e-05
16530.0 6.7266e-05
16550.0 6.7193e-05
16570.0 6.711e-05
16590.0 6.7028e-05
16610.0 6.6953e-05
16630.0 6.6869e-05
16650.0 6.6781e-05
16670.0 6.6698e-05
16690.0 6.6613e-05
16710.0 6.6515e-05
16730.0 6.6422e-05
16750.0 6.6331e-05
16770.0 6.6233e-05
16790.0 6.6129e-05
16810.0 6.6033e-05
16830.0 6.5933e-05
16850.0 6.5824e-05
16870.0 6.5718e-05
16890.0 6.5614e-05
16910.0 6.5499e-05
16930.0 6.5381e-05
16950.0 6.527e-05
16970.0 6.5154e-05
16990.0 6.5031e-05
17010.0 6.491e-05
17030.0 6.4793e-05
17050.0 6.4664e-05
17070.0 6.4534e-05
17090.0 6.4408e-05
17110.0 6.4277e-05
17130.0 6.4136e-05
17150.0 6.4001e-05
17170.0 6.3868e-05
17190.0 6.3726e-05
17210.0 6.3582e-05
17230.0 6.3443e-05
17250.0 6.3297e-05
17270.0 6.3143e-05
17290.0 6.2994e-05
17310.0 6.2846e-05
17330.0 6.2688e-05
17350.0 6.2528e-05
17370.0 6.2376e-05
17390.0 6.2217e-05
17410.0 6.2051e-05
17430.0 6.1889e-05
17450.0 6.1728e-05
17470.0 6.1554e-05
17490.0 6.1382e-05
17510.0 6.1215e-05
17530.0 6.1041e-05
17550.0 6.0862e-05
17570.0 6.0688e-05
17590.0 6.0514e-05
17610.0 6.0329e-05
17630.0 6.0146e-05
17650.0 5.9966e-05
17670.0 5.978e-05
17690.0 5.9584e-05
17710.0 5.94e-05
17730.0 5.9212e-05
17750.0 5.9017e-05
17770.0 5.8822e-05
17790.0 5.8634e-05
17810.0 5.8434e-05
17830.0 5.8232e-05
17850.0 5.8035e-05
17870.0 5.7836e-05
17890.0 5.7628e-05
17910.0 5.7421e-05
17930.0 5.7222e-05
17950.0 5.7014e-05
17970.0 5.6803e-05
17990.0 5.6598e-05
18010.0 5.639e-05
18030.0 5.617e-05
18050.0 5.5957e-05
18070.0 5.5747e-05
18090.0 5.5529e-05
18110.0 5.5308e-05
18130.0 5.5095e-05
18150.0 5.4879e-05
18170.0 5.4655e-05
18190.0 5.4434e-05
18210.0 5.4217e-05
18230.0 5.399e-05
18250.0 5.3761e-05
18270.0 5.3541e-05
18290.0 5.3316e-05
18310.0 5.3086e-05
18330.0 5.2859e-05
18350.0 5.2637e-05
18370.0 5.2404e-05
18390.0 5.2171e-05
18410.0 5.1945e-05
18430.0 5.1715e-05
18450.0 5.1475e-05
18470.0 5.1244e-05
18490.0 5.1016e-05
18510.0 5.078e-05
18530.0 5.0543e-05
18550.0 5.0314e-05
18570.0 5.0079e-05
18590.0 4.9837e-05
18610.0 4.9602e-05
18630.0 4.9369e-05
18650.0 4.9128e-05
18670.0 4.8886e-05
18690.0 4.8655e-05
18710.0 4.8417e-05
18730.0 4.8175e-05
18750.0 4.7938e-05
18770.0 4.7704e-05
18790.0 4.7457e-05
18810.0 4.7215e-05
18830.0 4.698e-05
18850.0 4.674e-05
18870.0 4.6495e-05
18890.0 4.6258e-05
18910.0 4.6022e-05
18930.0 4.5777e-05
18950.0 4.5536e-05
18970.0 4.53e-05
18990.0 4.5058e-05
19010.0 4.4809e-05
19030.0 4.4573e-05
19050.0 4.4336e-05
19070.0 4.4092e-05
19090.0 4.3851e-05
19110.0 4.3617e-05
19130.0 4.3373e-05
19150.0 4.3129e-05
19170.0 4.2892e-05
19190.0 4.2654e-05
19210.0 4.241e-05
19230.0 4.2169e-05
19250.0 4.1936e-05
19270.0 4.1695e-05
19290.0 4.1454e-05
19310.0 4.1219e-05
19330.0 4.0984e-05
19350.0 4.0738e-05
19370.0 4.0501e-05
19390.0 4.0268e-05
19410.0 4.0029e-05
19430.0 3.9788e-05
19450.0 3.9557e-05
19470.0 3.9323e-05
19490.0 3.9083e-05
19510.0 3.8849e-05
19530.0 3.8619e-05
19550.0 3.8381e-05
19570.0 3.8142e-05
19590.0 3.7913e-05
19610.0 3.7681e-05
19630.0 3.7445e-05
19650.0 3.7215e-05
19670.0 3.6989e-05
19690.0 3.6753e-05
19710.0 3.6521e-05
19730.0 3.6294e-05
19750.0 3.6066e-05
19770.0 3.583e-05
19790.0 3.5603e-05
19810.0 3.538e-05
19830.0 3.5149e-05
19850.0 3.4918e-05
19870.0 3.4693e-05
19890.0 3.4454e-05
19910.0 3.4199e-05
19930.0 3.3933e-05
19950.0 3.3639e-05
19970.0 3.3293e-05
19990.0 3.2891e-05
20010.0 3.0319e-05
20030.0 2.9828e-05
20050.0 2.9266e-05
20070.0 2.8667e-05
20090.0 2.8031e-05
20110.0 2.7321e-05
20130.0 2.6609e-05
20150.0 2.5909e-05
20170.0 2.5188e-05
20190.0 2.4462e-05
20210.0 2.3779e-05
20230.0 2.3115e-05
20250.0 2.2452e-05
20270.0 2.1836e-05
20290.0 2.1273e-05
20310.0 2.0737e-05
20330.0 2.0234e-05
20350.0 1.9811e-05
20370.0 1.9431e-05
20390.0 1.9094e-05
20410.0 1.8814e-05
20430.0 1.8591e-05
20450.0 1.8406e-05
20470.0 1.8271e-05
20490.0 1.8185e-05
20510.0 1.8138e-05
20530.0 1.8131e-05
20550.0 1.816e-05
20570.0 1.8217e-05
20590.0 1.8306e-05
20610.0 1.8422e-05
20630.0 1.8555e-05
20650.0 1.8708e-05
20670.0 1.8889e-05
20690.0 1.9075e-05
20710.0 1.9269e-05
20730.0 1.948e-05
20750.0 1.9701e-05
20770.0 1.9917e-05
20790.0 2.0143e-05
20810.0 2.0382e-05
20830.0 2.0616e-05
20850.0 2.0849e-05
20870.0 2.1097e-05
20890.0 2.1347e-05
20910.0 2.1584e-05
20930.0 2.1828e-05
20950.0 2.208e-05
20970.0 2.2323e-05
20990.0 2.256e-05
21010.0 2.2809e-05
21030.0 2.3051e-05
21050.0 2.3279e-05
21070.0 2.3507e-05
21090.0 2.3735e-05
21110.0 2.3941e-05
21130.0 2.4133e-05
21150.0 2.432e-05
21170.0 2.4489e-05
21190.0 2.4633e-05
21210.0 2.4763e-05
21230.0 2.4872e-05
21250.0 2.4948e-05
21270.0 2.4996e-05
21290.0 2.5013e-05
21310.0 2.4993e-05
21330.0 2.4937e-05
21350.0 2.484e-05
21370.0 2.4699e-05
21390.0 2.4518e-05
21410.0 2.4296e-05
21430.0 2.4016e-05
21450.0 2.3698e-05
21470.0 2.3351e-05
21490.0 2.2957e-05
21510.0 2.2523e-05
21530.0 2.2079e-05
21550.0 2.1612e-05
21570.0 2.1113e-05
21590.0 2.0619e-05
21610.0 2.0138e-05
21630.0 1.9655e-05
21650.0 1.9179e-05
21670.0 1.8762e-05
21690.0 1.8373e-05
21710.0 1.8018e-05
21730.0 1.7719e-05
21750.0 1.748e-05
21770.0 1.7288e-05
21790.0 1.716e-05
21810.0 1.7096e-05
21830.0 1.7092e-05
21850.0 1.715e-05
21870.0 1.7265e-05
21890.0 1.7426e-05
21910.0 1.7643e-05
21930.0 1.7905e-05
21950.0 1.8194e-05
21970.0 1.852e-05
21990.0 1.8892e-05
22010.0 1.9266e-05
22030.0 1.9651e-05
22050.0 2.0058e-05
22070.0 2.0471e-05
22090.0 2.0865e-05
22110.0 2.1265e-05
22130.0 2.1668e-05
22150.0 2.2046e-05
22170.0 2.2405e-05
22190.0 2.2763e-05
22210.0 2.3099e-05
22230.0 2.3394e-05
22250.0 2.3673e-05
22270.0 2.3932e-05
22290.0 2.4152e-05
22310.0 2.4342e-05
22330.0 2.4509e-05
22350.0 2.4637e-05
22370.0 2.4727e-05
22390.0 2.4782e-05
22410.0 2.4798e-05
22430.0 2.4772e-05
22450.0 2.4706e-05
22470.0 2.4595e-05
22490.0 2.444e-05
22510.0 2.4248e-05
22530.0 2.4004e-05
22550.0 2.3708e-05
22570.0 2.338e-05
22590.0 2.301e-05
22610.0 2.2586e-05
22630.0 2.2128e-05
22650.0 2.1653e-05
22670.0 2.1129e-05
22690.0 2.0569e-05
