#lamb flux
1010.0 9.2707e-08
1030.0 1.0163e-07
1050.0 1.119e-07
1070.0 1.2345e-07
1090.0 1.3658e-07
1110.0 1.5004e-07
1130.0 1.6359e-07
1150.0 1.7779e-07
1170.0 1.9243e-07
1190.0 2.0631e-07
1210.0 2.2038e-07
1230.0 2.3492e-07
1250.0 2.4917e-07
1270.0 2.63e-07
1290.0 2.7762e-07
1310.0 2.9223e-07
1330.0 3.0623e-07
1350.0 3.204e-07
1370.0 3.3502e-07
1390.0 3.4928e-07
1410.0 3.6311e-07
1430.0 3.7757e-07
1450.0 3.9202e-07
1470.0 4.0599e-07
1490.0 4.2011e-07
1510.0 4.3502e-07
1530.0 4.4914e-07
1550.0 4.6307e-07
1570.0 4.7748e-07
1590.0 4.919e-07
1610.0 5.0566e-07
1630.0 5.1985e-07
1650.0 5.344e-07
1670.0 5.4847e-07
1690.0 5.6234e-07
1710.0 5.7673e-07
1730.0 5.9119e-07
1750.0 6.0476e-07
1770.0 6.1871e-07
1790.0 6.3292e-07
1810.0 6.4663e-07
1830.0 6.6006e-07
1850.0 6.7429e-07
1870.0 6.8809e-07
1890.0 7.0136e-07
1910.0 7.1483e-07
1930.0 7.2856e-07
1950.0 7.4155e-07
1970.0 7.5427e-07
1990.0 7.674e-07
2010.0 7.8017e-07
2030.0 7.9229e-07
2050.0 8.0467e-07
2070.0 8.1722e-07
2090.0 8.2877e-07
2110.0 8.4007e-07
2130.0 8.5154e-07
2150.0 8.625e-07
2170.0 8.7261e-07
2190.0 8.8291e-07
2210.0 8.9299e-07
2230.0 9.0219e-07
2250.0 9.1099e-07
2270.0 9.2e-07
2290.0 9.2821e-07
2310.0 9.355e-07
2330.0 9.4287e-07
2350.0 9.5014e-07
2370.0 9.569e-07
2390.0 9.6427e-07
2410.0 9.737e-07
2430.0 9.8505e-07
2450.0 9.9948e-07
2470.0 1.0196e-06
2490.0 1.0464e-06
2510.0 1.0776e-06
2530.0 1.1167e-06
2550.0 1.1679e-06
2570.0 1.234e-06
2590.0 1.3221e-06
2610.0 1.4566e-06
2630.0 1.6478e-06
2650.0 1.8929e-06
2670.0 2.2033e-06
2690.0 2.575e-06
2710.0 2.9587e-06
2730.0 3.3236e-06
2750.0 3.6692e-06
2770.0 3.9529e-06
2790.0 4.16e-06
2810.0 4.3073e-06
2830.0 4.4056e-06
2850.0 4.4524e-06
2870.0 4.4703e-06
2890.0 4.4717e-06
2910.0 4.4615e-06
2930.0 4.4435e-06
2950.0 4.4244e-06
2970.0 4.4053e-06
2990.0 4.3853e-06
3010.0 0.0001399
3030.0 0.00013933
3050.0 0.00013876
3070.0 0.00013812
3090.0 0.0001374
3110.0 0.00013647
3130.0 0.00013515
3150.0 0.00013333
3170.0 0.00013073
3190.0 0.00012741
3210.0 0.00012358
3230.0 0.00011941
3250.0 0.00011514
3270.0 0.00011195
3290.0 0.00010951
3310.0 0.00010894
3330.0 0.00010963
3350.0 0.00011154
3370.0 0.00011465
3390.0 0.00011881
3410.0 0.00012348
3430.0 0.00012882
3450.0 0.00013505
3470.0 0.00014193
3490.0 0.00014933
3510.0 0.00015778
3530.0 0.00016702
3550.0 0.00017693
3570.0 0.00018788
3590.0 0.00020012
3610.0 0.00021378
3630.0 0.00022736
3650.0 0.00024175
3670.0 0.00025472
3690.0 0.00026436
3710.0 0.00026918
3730.0 0.00026628
3750.0 0.00025585
3770.0 0.00026172
3790.0 0.00025569
3810.0 0.00019712
3830.0 0.00018936
3850.0 0.0002791
3870.0 0.00026934
3890.0 0.0002038
3910.0 0.00019811
3930.0 0.00025298
3950.0 0.00030273
3970.0 0.0003441
3990.0 0.0002367
4010.0 0.00044292
4030.0 0.00042728
4050.0 0.00045084
4070.0 0.00051124
4090.0 0.0004843
4110.0 0.00042712
4130.0 0.00052651
4150.0 0.00070593
4170.0 0.00055873
4190.0 0.00049269
4210.0 0.00055574
4230.0 0.00068952
4250.0 0.0008245
4270.0 0.00089653
4290.0 0.00079624
4310.0 0.00073526
4330.0 0.00072763
4350.0 0.00093317
4370.0 0.0011358
4390.0 0.00090122
4410.0 0.00050111
4430.0 0.00035381
4450.0 0.00033057
4470.0 0.00020388
4490.0 0.00036127
4510.0 0.00077914
4530.0 0.00095076
4550.0 0.00089608
4570.0 0.00080149
4590.0 0.00085746
4610.0 0.0017067
4630.0 0.0023961
4650.0 0.0022582
4670.0 0.0019834
4690.0 0.0020396
4710.0 0.0021353
4730.0 0.0017388
4750.0 0.0011184
4770.0 0.00076642
4790.0 0.00085797
4810.0 0.00090487
4830.0 0.00089698
4850.0 0.00097477
4870.0 0.0012915
4890.0 0.0014964
4910.0 0.0011568
4930.0 0.0011243
4950.0 0.0012978
4970.0 0.0017343
4990.0 0.0023401
5010.0 0.0027011
5030.0 0.002147
5050.0 0.0013035
5070.0 0.00092941
5090.0 0.0007076
5110.0 0.00065986
5130.0 0.00079209
5150.0 0.0007618
5170.0 0.00071422
5190.0 0.00063404
5210.0 0.00070619
5230.0 0.00088634
5250.0 0.0010384
5270.0 0.00095496
5290.0 0.001031
5310.0 0.0013949
5330.0 0.0014893
5350.0 0.0014667
5370.0 0.0016571
5390.0 0.0020727
5410.0 0.0017612
5430.0 0.0013359
5450.0 0.0013545
5470.0 0.0015879
5490.0 0.0019966
5510.0 0.0024337
5530.0 0.0028232
5550.0 0.0025395
5570.0 0.0022728
5590.0 0.0018614
5610.0 0.0019003
5630.0 0.0021494
5650.0 0.0019843
5670.0 0.0018252
5690.0 0.0014677
5710.0 0.0015131
5730.0 0.0014762
5750.0 0.00078519
5770.0 0.00056022
5790.0 0.00070072
5810.0 0.00073973
5830.0 0.0011688
5850.0 0.0015314
5870.0 0.0016371
5890.0 0.0015513
5910.0 0.0015062
5930.0 0.0014543
5950.0 0.0015042
5970.0 0.0018755
5990.0 0.0015292
6010.0 0.0011688
6030.0 0.00094946
6050.0 0.00084837
6070.0 0.0010254
6090.0 0.0011598
6110.0 0.001176
6130.0 0.0010726
6150.0 0.00083919
6170.0 0.0006544
6190.0 0.00081017
6210.0 0.0012961
6230.0 0.0019174
6250.0 0.0020563
6270.0 0.0015587
6290.0 0.0013351
6310.0 0.0010173
6330.0 0.00073933
6350.0 0.00073158
6370.0 0.00076836
6390.0 0.00092452
6410.0 0.0011968
6430.0 0.0014441
6450.0 0.0017829
6470.0 0.0018785
6490.0 0.0022541
6510.0 0.0025303
6530.0 0.0025781
6550.0 0.0023761
6570.0 0.0019154
6590.0 0.0018397
6610.0 0.0015209
6630.0 0.0015923
6650.0 0.0015447
6670.0 0.0013485
6690.0 0.0010429
6710.0 0.0010217
6730.0 0.0004408
6750.0 0.00059918
6770.0 0.00095631
6790.0 0.0012776
6810.0 0.0009034
6830.0 0.00092228
6850.0 0.00076556
6870.0 0.00072148
6890.0 0.00060527
6910.0 0.00073606
6930.0 0.00069213
6950.0 0.00083747
6970.0 0.00086416
6990.0 0.00095681
7010.0 0.00092825
7030.0 0.0010611
7050.0 0.00091224
7070.0 0.00075652
7090.0 0.0008105
7110.0 0.00085437
7130.0 0.00098489
7150.0 0.0011239
7170.0 0.0012588
7190.0 0.0013322
7210.0 0.0011744
7230.0 0.0011866
7250.0 0.0012777
7270.0 0.0013792
7290.0 0.0016944
7310.0 0.001772
7330.0 0.0016399
7350.0 0.001465
7370.0 0.0010697
7390.0 0.0011169
7410.0 0.0013917
7430.0 0.0015873
7450.0 0.0017074
7470.0 0.0015609
7490.0 0.0012594
7510.0 0.0020846
7530.0 0.0018752
7550.0 0.0017625
7570.0 0.0011798
7590.0 0.00049753
7610.0 0.00034101
7630.0 0.00053887
7650.0 0.00073452
7670.0 0.001196
7690.0 0.0013385
7710.0 0.0011928
7730.0 0.0011719
7750.0 0.0015572
7770.0 0.0015991
7790.0 0.0014653
7810.0 0.0011771
7830.0 0.0012766
7850.0 0.0014098
7870.0 0.001386
7890.0 0.0010798
7910.0 0.00071186
7930.0 0.00073882
7950.0 0.0006656
7970.0 0.00055621
7990.0 0.00049751
8010.0 0.00033831
8030.0 0.00031277
8050.0 0.00033696
8070.0 0.00037423
8090.0 0.00044961
8110.0 0.00042103
8130.0 0.00025872
8150.0 0.00026416
8170.0 0.0001564
8190.0 0.00010243
8210.0 0.00023594
8230.0 0.00028193
8250.0 0.00012185
8270.0 9.7646e-05
8290.0 0.00016921
8310.0 0.00014526
8330.0 8.8894e-05
8350.0 7.1473e-05
8370.0 2.0262e-05
8390.0 7.6967e-05
8410.0 9.0148e-05
8430.0 0.00011224
8450.0 0.00012606
8470.0 0.00020578
8490.0 0.00016853
8510.0 0.0001314
8530.0 6.8895e-05
8550.0 0.00022769
8570.0 0.0003531
8590.0 0.00025106
8610.0 0.00037282
8630.0 0.00040535
8650.0 0.00022463
8670.0 0.00032418
8690.0 0.00049715
8710.0 0.00042895
8730.0 0.00046093
8750.0 0.00036483
8770.0 0.00032568
8790.0 0.00036079
8810.0 0.00038932
8830.0 0.00021995
8850.0 0.00010059
8870.0 7.29e-05
8890.0 0.00017004
8910.0 0.00026476
8930.0 0.00034705
8950.0 0.00039007
8970.0 0.00037683
8990.0 0.00028696
9010.0 0.00022677
9030.0 0.00017353
9050.0 0.00018092
9070.0 0.00018836
9090.0 0.00019435
9110.0 0.0002015
9130.0 0.00020668
9150.0 0.00021039
9170.0 0.00021434
9190.0 0.00021856
9210.0 0.00022299
9230.0 0.00022768
9250.0 0.00023243
9270.0 0.00023733
9290.0 0.00024236
9310.0 0.00024738
9330.0 0.00025249
9350.0 0.00025776
9370.0 0.00026306
9390.0 0.00026839
9410.0 0.00027385
9430.0 0.00027947
9450.0 0.00028503
9470.0 0.00029069
9490.0 0.00029651
9510.0 0.00030237
9530.0 0.00030823
9550.0 0.00031431
9570.0 0.00032046
9590.0 0.00032662
9610.0 0.00033287
9630.0 0.00033929
9650.0 0.00034574
9670.0 0.00035219
9690.0 0.00035881
9710.0 0.00036553
9730.0 0.00037225
9750.0 0.00037906
9770.0 0.00038609
9790.0 0.00039307
9810.0 0.0004001
9830.0 0.00040727
9850.0 0.00041453
9870.0 0.00042175
9890.0 0.00042908
9910.0 0.00043656
9930.0 0.00044403
9950.0 0.00045152
9970.0 0.00045917
9990.0 0.00046689
10010.0 0.00042053
10030.0 0.00042733
10050.0 0.00043422
10070.0 0.00044103
10090.0 0.00044792
10110.0 0.00045495
10130.0 0.00046198
10150.0 0.00046895
10170.0 0.00047598
10190.0 0.00048309
10210.0 0.00049013
10230.0 0.00049713
10250.0 0.00050423
10270.0 0.00051131
10290.0 0.00051831
10310.0 0.00052537
10330.0 0.00053249
10350.0 0.00053949
10370.0 0.00054645
10390.0 0.00055347
10410.0 0.00056044
10430.0 0.00056728
10450.0 0.00057416
10470.0 0.00058103
10490.0 0.00058778
10510.0 0.00059446
10530.0 0.00060122
10550.0 0.00060785
10570.0 0.00061433
10590.0 0.00062082
10610.0 0.00062726
10630.0 0.00063353
10650.0 0.00063973
10670.0 0.00064595
10690.0 0.00065202
10710.0 0.00065794
10730.0 0.00066383
10750.0 0.00066969
10770.0 0.00067529
10790.0 0.00068081
10810.0 0.00068628
10830.0 0.00069156
10850.0 0.00069657
10870.0 0.00070143
10890.0 0.00070581
10910.0 0.00070939
10930.0 0.00071187
10950.0 0.00071264
10970.0 0.00071116
10990.0 0.00070718
11010.0 0.00071737
11030.0 0.00070655
11050.0 0.00069296
11070.0 0.00067646
11090.0 0.00065645
11110.0 0.00063567
11130.0 0.00061398
11150.0 0.00059067
11170.0 0.00056674
11190.0 0.00054363
11210.0 0.00051991
11230.0 0.00049577
11250.0 0.00047285
11270.0 0.00045096
11290.0 0.00042917
11310.0 0.00040862
11330.0 0.00039053
11350.0 0.00037344
11370.0 0.0003576
11390.0 0.00034377
11410.0 0.00033153
11430.0 0.00031999
11450.0 0.00030982
11470.0 0.0003008
11490.0 0.00029221
11510.0 0.00028378
11530.0 0.00027581
11550.0 0.00026785
11570.0 0.0002594
11590.0 0.00025072
11610.0 0.00024195
11630.0 0.00023256
11650.0 0.00022264
11670.0 0.00021294
11690.0 0.00020319
11710.0 0.00019322
11730.0 0.00018359
11750.0 0.00017467
11770.0 0.00016593
11790.0 0.0001577
11810.0 0.00015039
11830.0 0.00014377
11850.0 0.0001376
11870.0 0.00013231
11890.0 0.00012778
11910.0 0.00012369
11930.0 0.00012006
11950.0 0.0001169
11970.0 0.000114
11990.0 0.00011121
12010.0 0.00010858
12030.0 0.00010603
12050.0 0.00010342
12070.0 0.00010074
12090.0 9.8155e-05
12110.0 9.5533e-05
12130.0 9.2889e-05
12150.0 9.038e-05
12170.0 8.8074e-05
12190.0 8.5906e-05
12210.0 8.4078e-05
12230.0 8.2674e-05
12250.0 8.1698e-05
12270.0 8.1233e-05
12290.0 8.1312e-05
12310.0 8.1892e-05
12330.0 8.3078e-05
12350.0 8.4812e-05
12370.0 8.6942e-05
12390.0 8.9536e-05
12410.0 9.2708e-05
12430.0 9.5971e-05
12450.0 9.938e-05
12470.0 0.00010304
12490.0 0.00010672
12510.0 0.00011013
12530.0 0.00011352
12550.0 0.00011675
12570.0 0.00011954
12590.0 0.00012191
12610.0 0.00012397
12630.0 0.00012551
12650.0 0.00012642
12670.0 0.00012686
12690.0 0.00012676
12710.0 0.00012611
12730.0 0.00012496
12750.0 0.00012329
12770.0 0.00012116
12790.0 0.00011869
12810.0 0.00011584
12830.0 0.00011263
12850.0 0.00010931
12870.0 0.00010585
12890.0 0.00010215
12910.0 9.8425e-05
12930.0 9.4766e-05
12950.0 9.0987e-05
12970.0 8.7165e-05
12990.0 8.3544e-05
13010.0 7.9976e-05
13030.0 7.638e-05
13050.0 7.2915e-05
13070.0 6.9652e-05
13090.0 6.6373e-05
13110.0 6.3185e-05
13130.0 6.0216e-05
13150.0 5.738e-05
13170.0 5.4583e-05
13190.0 5.2053e-05
13210.0 4.9783e-05
13230.0 4.7669e-05
13250.0 4.5791e-05
13270.0 4.4236e-05
13290.0 4.294e-05
13310.0 4.192e-05
13330.0 4.1251e-05
13350.0 4.0909e-05
13370.0 4.0901e-05
13390.0 4.1253e-05
13410.0 4.1885e-05
13430.0 4.2822e-05
13450.0 4.4074e-05
13470.0 4.553e-05
13490.0 4.7124e-05
13510.0 4.8984e-05
13530.0 5.0916e-05
13550.0 5.2802e-05
13570.0 5.4703e-05
13590.0 5.6598e-05
13610.0 5.8314e-05
13630.0 5.9839e-05
13650.0 6.1266e-05
13670.0 6.2478e-05
13690.0 6.3435e-05
13710.0 6.42e-05
13730.0 6.4778e-05
13750.0 6.5093e-05
13770.0 6.521e-05
13790.0 6.5143e-05
13810.0 6.4889e-05
13830.0 6.4477e-05
13850.0 6.3907e-05
13870.0 6.3178e-05
13890.0 6.2338e-05
13910.0 6.1391e-05
13930.0 6.0302e-05
13950.0 5.912e-05
13970.0 5.7916e-05
13990.0 5.6617e-05
14010.0 5.5248e-05
14030.0 5.389e-05
14050.0 5.2531e-05
14070.0 5.1107e-05
14090.0 4.9747e-05
14110.0 4.8472e-05
14130.0 4.7238e-05
14150.0 4.6075e-05
14170.0 4.5076e-05
14190.0 4.4205e-05
14210.0 4.3456e-05
14230.0 4.2885e-05
14250.0 4.2495e-05
14270.0 4.2275e-05
14290.0 4.225e-05
14310.0 4.2409e-05
14330.0 4.2742e-05
14350.0 4.3265e-05
14370.0 4.3941e-05
14390.0 4.473e-05
14410.0 4.568e-05
14430.0 4.6747e-05
14450.0 4.7863e-05
14470.0 4.9046e-05
14490.0 5.0333e-05
14510.0 5.1596e-05
14530.0 5.2827e-05
14550.0 5.409e-05
14570.0 5.5337e-05
14590.0 5.6507e-05
14610.0 5.7671e-05
14630.0 5.8853e-05
14650.0 5.9983e-05
14670.0 6.1096e-05
14690.0 6.2267e-05
14710.0 6.3501e-05
14730.0 6.4735e-05
14750.0 6.6086e-05
14770.0 6.7596e-05
14790.0 6.9208e-05
14810.0 7.0931e-05
14830.0 7.2934e-05
14850.0 7.5082e-05
14870.0 7.7299e-05
14890.0 7.9667e-05
14910.0 8.216e-05
14930.0 8.4549e-05
14950.0 8.6782e-05
14970.0 8.8897e-05
14990.0 9.0688e-05
15010.0 9.2087e-05
15030.0 9.3158e-05
15050.0 9.3913e-05
15070.0 9.4353e-05
15090.0 9.4599e-05
15110.0 9.4711e-05
15130.0 9.4737e-05
15150.0 9.4725e-05
15170.0 9.4685e-05
15190.0 9.4633e-05
15210.0 9.4585e-05
15230.0 9.454e-05
15250.0 9.4487e-05
15270.0 9.4437e-05
15290.0 9.4401e-05
15310.0 9.4359e-05
15330.0 9.4316e-05
15350.0 9.4282e-05
15370.0 9.425e-05
15390.0 9.4208e-05
15410.0 9.4173e-05
15430.0 9.4146e-05
15450.0 9.4114e-05
15470.0 9.4078e-05
15490.0 9.4054e-05
15510.0 9.403e-05
15530.0 9.3998e-05
15550.0 9.3972e-05
15570.0 9.3952e-05
15590.0 9.3923e-05
15610.0 9.3891e-05
15630.0 9.3871e-05
15650.0 9.3849e-05
15670.0 9.3819e-05
15690.0 9.3795e-05
15710.0 9.3778e-05
15730.0 9.375e-05
15750.0 9.3721e-05
15770.0 9.3699e-05
15790.0 9.3676e-05
15810.0 9.364e-05
15830.0 9.3614e-05
15850.0 9.3592e-05
15870.0 9.3561e-05
15890.0 9.3528e-05
15910.0 9.3504e-05
15930.0 9.3473e-05
15950.0 9.3433e-05
15970.0 9.34e-05
15990.0 9.337e-05
16010.0 9.3329e-05
16030.0 9.3285e-05
16050.0 9.3253e-05
16070.0 9.3213e-05
16090.0 9.3165e-05
16110.0 9.3123e-05
16130.0 9.3083e-05
16150.0 9.3027e-05
16170.0 9.2973e-05
16190.0 9.2926e-05
16210.0 9.2872e-05
16230.0 9.281e-05
16250.0 9.2754e-05
16270.0 9.2699e-05
16290.0 9.2632e-05
16310.0 9.2564e-05
16330.0 9.2502e-05
16350.0 9.2432e-05
16370.0 9.2348e-05
16390.0 9.2277e-05
16410.0 9.2203e-05
16430.0 9.2119e-05
16450.0 9.2034e-05
16470.0 9.1956e-05
16490.0 9.1865e-05
16510.0 9.1768e-05
16530.0 9.1676e-05
16550.0 9.1583e-05
16570.0 9.1475e-05
16590.0 9.1369e-05
16610.0 9.1271e-05
16630.0 9.1161e-05
16650.0 9.1044e-05
16670.0 9.0934e-05
16690.0 9.082e-05
16710.0 9.0689e-05
16730.0 9.0564e-05
16750.0 9.0442e-05
16770.0 9.0309e-05
16790.0 9.0168e-05
16810.0 9.0037e-05
16830.0 8.99e-05
16850.0 8.9751e-05
16870.0 8.9605e-05
16890.0 8.9461e-05
16910.0 8.9303e-05
16930.0 8.9138e-05
16950.0 8.8984e-05
16970.0 8.8824e-05
16990.0 8.8651e-05
17010.0 8.8483e-05
17030.0 8.8318e-05
17050.0 8.8137e-05
17070.0 8.7953e-05
17090.0 8.7776e-05
17110.0 8.7592e-05
17130.0 8.7392e-05
17150.0 8.7201e-05
17170.0 8.7012e-05
17190.0 8.681e-05
17210.0 8.6605e-05
17230.0 8.6408e-05
17250.0 8.62e-05
17270.0 8.598e-05
17290.0 8.5767e-05
17310.0 8.5554e-05
17330.0 8.5329e-05
17350.0 8.5099e-05
17370.0 8.4881e-05
17390.0 8.4652e-05
17410.0 8.4414e-05
17430.0 8.4181e-05
17450.0 8.3949e-05
17470.0 8.3698e-05
17490.0 8.345e-05
17510.0 8.3209e-05
17530.0 8.2958e-05
17550.0 8.2699e-05
17570.0 8.2447e-05
17590.0 8.2195e-05
17610.0 8.1928e-05
17630.0 8.1663e-05
17650.0 8.1403e-05
17670.0 8.1133e-05
17690.0 8.0849e-05
17710.0 8.0581e-05
17730.0 8.0309e-05
17750.0 8.0026e-05
17770.0 7.9743e-05
17790.0 7.9469e-05
17810.0 7.9179e-05
17830.0 7.8885e-05
17850.0 7.8598e-05
17870.0 7.8309e-05
17890.0 7.8007e-05
17910.0 7.7707e-05
17930.0 7.7417e-05
17950.0 7.7114e-05
17970.0 7.6807e-05
17990.0 7.6508e-05
18010.0 7.6205e-05
18030.0 7.5886e-05
18050.0 7.5575e-05
18070.0 7.5269e-05
18090.0 7.4953e-05
18110.0 7.4631e-05
18130.0 7.432e-05
18150.0 7.4005e-05
18170.0 7.3679e-05
18190.0 7.3358e-05
18210.0 7.3041e-05
18230.0 7.2711e-05
18250.0 7.2377e-05
18270.0 7.2056e-05
18290.0 7.173e-05
18310.0 7.1394e-05
18330.0 7.1065e-05
18350.0 7.074e-05
18370.0 7.0402e-05
18390.0 7.0063e-05
18410.0 6.9733e-05
18430.0 6.9398e-05
18450.0 6.9051e-05
18470.0 6.8715e-05
18490.0 6.8382e-05
18510.0 6.8039e-05
18530.0 6.7695e-05
18550.0 6.7362e-05
18570.0 6.702e-05
18590.0 6.6668e-05
18610.0 6.6327e-05
18630.0 6.5988e-05
18650.0 6.5639e-05
18670.0 6.5288e-05
18690.0 6.4952e-05
18710.0 6.4607e-05
18730.0 6.4255e-05
18750.0 6.3912e-05
18770.0 6.3572e-05
18790.0 6.3215e-05
18810.0 6.2865e-05
18830.0 6.2524e-05
18850.0 6.2175e-05
18870.0 6.1822e-05
18890.0 6.1478e-05
18910.0 6.1136e-05
18930.0 6.0782e-05
18950.0 6.0433e-05
18970.0 6.0091e-05
18990.0 5.9742e-05
19010.0 5.9383e-05
19030.0 5.9042e-05
19050.0 5.8699e-05
19070.0 5.8347e-05
19090.0 5.8e-05
19110.0 5.7662e-05
19130.0 5.7311e-05
19150.0 5.6959e-05
19170.0 5.6618e-05
19190.0 5.6275e-05
19210.0 5.5923e-05
19230.0 5.5576e-05
19250.0 5.524e-05
19270.0 5.4895e-05
19290.0 5.4548e-05
19310.0 5.4211e-05
19330.0 5.3872e-05
19350.0 5.352e-05
19370.0 5.318e-05
19390.0 5.2845e-05
19410.0 5.2502e-05
19430.0 5.2158e-05
19450.0 5.1826e-05
19470.0 5.1491e-05
19490.0 5.1149e-05
19510.0 5.0814e-05
19530.0 5.0484e-05
19550.0 5.0144e-05
19570.0 4.9803e-05
19590.0 4.9476e-05
19610.0 4.9145e-05
19630.0 4.8808e-05
19650.0 4.848e-05
19670.0 4.8157e-05
19690.0 4.7822e-05
19710.0 4.7491e-05
19730.0 4.7169e-05
19750.0 4.6843e-05
19770.0 4.6509e-05
19790.0 4.6187e-05
19810.0 4.5868e-05
19830.0 4.5541e-05
19850.0 4.5215e-05
19870.0 4.4895e-05
19890.0 4.4559e-05
19910.0 4.4201e-05
19930.0 4.3829e-05
19950.0 4.3423e-05
19970.0 4.2949e-05
19990.0 4.2404e-05
20010.0 3.9738e-05
20030.0 3.9073e-05
20050.0 3.8316e-05
20070.0 3.7512e-05
20090.0 3.6663e-05
20110.0 3.572e-05
20130.0 3.4776e-05
20150.0 3.385e-05
20170.0 3.29e-05
20190.0 3.1946e-05
20210.0 3.1048e-05
20230.0 3.0177e-05
20250.0 2.9308e-05
20270.0 2.8501e-05
20290.0 2.7763e-05
20310.0 2.7059e-05
20330.0 2.6398e-05
20350.0 2.5842e-05
20370.0 2.534e-05
20390.0 2.4893e-05
20410.0 2.452e-05
20430.0 2.4221e-05
20450.0 2.3971e-05
20470.0 2.3787e-05
20490.0 2.3665e-05
20510.0 2.3595e-05
20530.0 2.3578e-05
20550.0 2.3608e-05
20570.0 2.3677e-05
20590.0 2.3787e-05
20610.0 2.3934e-05
20630.0 2.4103e-05
20650.0 2.43e-05
20670.0 2.4534e-05
20690.0 2.4775e-05
20710.0 2.5028e-05
20730.0 2.5303e-05
20750.0 2.559e-05
20770.0 2.5871e-05
20790.0 2.6164e-05
20810.0 2.6473e-05
20830.0 2.6776e-05
20850.0 2.7076e-05
20870.0 2.7394e-05
20890.0 2.7714e-05
20910.0 2.8016e-05
20930.0 2.8328e-05
20950.0 2.8647e-05
20970.0 2.8955e-05
20990.0 2.9255e-05
21010.0 2.957e-05
21030.0 2.9875e-05
21050.0 3.0163e-05
21070.0 3.0451e-05
21090.0 3.0739e-05
21110.0 3.1e-05
21130.0 3.1244e-05
21150.0 3.1482e-05
21170.0 3.1697e-05
21190.0 3.1882e-05
21210.0 3.2051e-05
21230.0 3.2195e-05
21250.0 3.2298e-05
21270.0 3.2367e-05
21290.0 3.2399e-05
21310.0 3.2386e-05
21330.0 3.2326e-05
21350.0 3.2218e-05
21370.0 3.2054e-05
21390.0 3.1839e-05
21410.0 3.1573e-05
21430.0 3.1233e-05
21450.0 3.0844e-05
21470.0 3.0416e-05
21490.0 2.9927e-05
21510.0 2.9385e-05
21530.0 2.8828e-05
21550.0 2.8239e-05
21570.0 2.7606e-05
21590.0 2.6976e-05
21610.0 2.636e-05
21630.0 2.5736e-05
21650.0 2.5118e-05
21670.0 2.4571e-05
21690.0 2.4057e-05
21710.0 2.3582e-05
21730.0 2.3176e-05
21750.0 2.2845e-05
21770.0 2.2568e-05
21790.0 2.2372e-05
21810.0 2.2257e-05
21830.0 2.2216e-05
21850.0 2.2253e-05
21870.0 2.2362e-05
21890.0 2.2531e-05
21910.0 2.2771e-05
21930.0 2.307e-05
21950.0 2.3406e-05
21970.0 2.379e-05
21990.0 2.4233e-05
22010.0 2.4685e-05
22030.0 2.5152e-05
22050.0 2.5652e-05
22070.0 2.6162e-05
22090.0 2.6652e-05
22110.0 2.7153e-05
22130.0 2.7661e-05
22150.0 2.8141e-05
22170.0 2.8598e-05
22190.0 2.9058e-05
22210.0 2.949e-05
22230.0 2.9873e-05
22250.0 3.0238e-05
22270.0 3.0576e-05
22290.0 3.0866e-05
22310.0 3.1116e-05
22330.0 3.1339e-05
22350.0 3.1511e-05
22370.0 3.1633e-05
22390.0 3.171e-05
22410.0 3.1737e-05
22430.0 3.1709e-05
22450.0 3.1629e-05
22470.0 3.1491e-05
22490.0 3.1297e-05
22510.0 3.1054e-05
22530.0 3.0745e-05
22550.0 3.037e-05
22570.0 2.9953e-05
22590.0 2.9483e-05
22610.0 2.8944e-05
22630.0 2.8359e-05
22650.0 2.7754e-05
22670.0 2.7085e-05
22690.0 2.6371e-05
22710.0 2.5648e-05
22730.0 2.4901e-05
22750.0 2.4092e-05
