#lamb flux
1010.0 9.5242e-07
1030.0 1.0669e-06
1050.0 1.1806e-06
1070.0 1.309e-06
1090.0 1.4607e-06
1110.0 1.6162e-06
1130.0 1.7731e-06
1150.0 1.9384e-06
1170.0 2.1106e-06
1190.0 2.2772e-06
1210.0 2.4496e-06
1230.0 2.6323e-06
1250.0 2.8162e-06
1270.0 3.0019e-06
1290.0 3.204e-06
1310.0 3.4137e-06
1330.0 3.6239e-06
1350.0 3.8432e-06
1370.0 4.0752e-06
1390.0 4.3086e-06
1410.0 4.5416e-06
1430.0 4.7865e-06
1450.0 5.0342e-06
1470.0 5.2769e-06
1490.0 5.5217e-06
1510.0 5.7762e-06
1530.0 6.0179e-06
1550.0 6.2535e-06
1570.0 6.4913e-06
1590.0 6.7237e-06
1610.0 6.9401e-06
1630.0 7.1529e-06
1650.0 7.3623e-06
1670.0 7.5557e-06
1690.0 7.7366e-06
1710.0 7.9146e-06
1730.0 8.083e-06
1750.0 8.2285e-06
1770.0 8.3691e-06
1790.0 8.5035e-06
1810.0 8.6219e-06
1830.0 8.7285e-06
1850.0 8.8387e-06
1870.0 8.9373e-06
1890.0 9.0244e-06
1910.0 9.1113e-06
1930.0 9.1997e-06
1950.0 9.2782e-06
1970.0 9.354e-06
1990.0 9.4362e-06
2010.0 9.5158e-06
2030.0 9.5895e-06
2050.0 9.6684e-06
2070.0 9.7507e-06
2090.0 9.8216e-06
2110.0 9.8893e-06
2130.0 9.9575e-06
2150.0 1.0017e-05
2170.0 1.0062e-05
2190.0 1.0104e-05
2210.0 1.0137e-05
2230.0 1.0151e-05
2250.0 1.0153e-05
2270.0 1.0147e-05
2290.0 1.0122e-05
2310.0 1.0077e-05
2330.0 1.0022e-05
2350.0 9.9518e-06
2370.0 9.8615e-06
2390.0 9.7574e-06
2410.0 9.6433e-06
2430.0 9.5084e-06
2450.0 9.3532e-06
2470.0 9.182e-06
2490.0 8.9931e-06
2510.0 8.7876e-06
2530.0 8.5866e-06
2550.0 8.421e-06
2570.0 8.3284e-06
2590.0 8.35e-06
2610.0 8.5738e-06
2630.0 9.0257e-06
2650.0 9.6629e-06
2670.0 1.0487e-05
2690.0 1.1445e-05
2710.0 1.2346e-05
2730.0 1.3079e-05
2750.0 1.3614e-05
2770.0 1.38e-05
2790.0 1.3597e-05
2810.0 1.3027e-05
2830.0 1.2076e-05
2850.0 1.0851e-05
2870.0 9.4169e-06
2890.0 7.7845e-06
2910.0 6.0365e-06
2930.0 4.2699e-06
2950.0 2.4062e-06
2970.0 6.5392e-07
2990.0 6.5392e-07
3010.0 1.3279e-06
3030.0 1.3279e-06
3050.0 1.3279e-06
3070.0 1.3279e-06
3090.0 1.3279e-06
3110.0 1.3279e-06
3130.0 1.3279e-06
3150.0 1.3279e-06
3170.0 1.3279e-06
3190.0 1.3279e-06
3210.0 1.3279e-06
3230.0 5.3979e-05
3250.0 9.6157e-05
3270.0 9.0199e-05
3290.0 8.4198e-05
3310.0 6.4001e-05
3330.0 6.2115e-05
3350.0 6.8599e-05
3370.0 7.827e-05
3390.0 8.8915e-05
3410.0 0.00010033
3430.0 0.00011538
3450.0 0.00013011
3470.0 0.00014537
3490.0 0.00015096
3510.0 0.00013712
3530.0 0.00013188
3550.0 0.00014592
3570.0 0.0001567
3590.0 0.00016983
3610.0 0.00016582
3630.0 0.00020088
3650.0 0.00021932
3670.0 0.00023162
3690.0 0.00023013
3710.0 0.00020834
3730.0 0.00020573
3750.0 0.00019543
3770.0 0.00018876
3790.0 0.00017777
3810.0 0.00016907
3830.0 0.00017447
3850.0 9.2451e-05
3870.0 0.00012402
3890.0 0.00014379
3910.0 0.00017676
3930.0 0.00022688
3950.0 0.00024594
3970.0 0.00027475
3990.0 0.00032913
4010.0 0.00027907
4030.0 0.00024009
4050.0 0.00017339
4070.0 0.00016341
4090.0 0.00024084
4110.0 0.00024085
4130.0 0.00026216
4150.0 0.00025125
4170.0 0.00023792
4190.0 0.00021593
4210.0 0.00029093
4230.0 0.00030723
4250.0 0.00033483
4270.0 0.00031878
4290.0 0.00031426
4310.0 0.00034137
4330.0 0.00040095
4350.0 0.00041849
4370.0 0.00041599
4390.0 0.00037955
4410.0 0.00035018
4430.0 0.00027298
4450.0 0.00022228
4470.0 0.00024001
4490.0 0.00028143
4510.0 0.00029297
4530.0 0.00029528
4550.0 0.00029872
4570.0 0.00042563
4590.0 0.00063708
4610.0 0.00074856
4630.0 0.00075825
4650.0 0.00081765
4670.0 0.00095333
4690.0 0.0010334
4710.0 0.00086146
4730.0 0.0006571
4750.0 0.00051473
4770.0 0.00044381
4790.0 0.00040595
4810.0 0.00038486
4830.0 0.00042657
4850.0 0.00050406
4870.0 0.00055272
4890.0 0.00057727
4910.0 0.00054369
4930.0 0.00058783
4950.0 0.00071744
4970.0 0.00083582
4990.0 0.00086681
5010.0 0.00079819
5030.0 0.00066289
5050.0 0.00051058
5070.0 0.00040722
5090.0 0.00036776
5110.0 0.00036201
5130.0 0.00036869
5150.0 0.00036609
5170.0 0.00034425
5190.0 0.00032295
5210.0 0.00031845
5230.0 0.00036359
5250.0 0.00043672
5270.0 0.00052639
5290.0 0.00060503
5310.0 0.00065258
5330.0 0.00072578
5350.0 0.00081252
5370.0 0.00084945
5390.0 0.00077676
5410.0 0.0006967
5430.0 0.0006886
5450.0 0.00081048
5470.0 0.0010097
5490.0 0.0011855
5510.0 0.0012726
5530.0 0.0012679
5550.0 0.0012251
5570.0 0.0011983
5590.0 0.0011682
5610.0 0.0011612
5630.0 0.0011708
5650.0 0.0011891
5670.0 0.001182
5690.0 0.0010859
5710.0 0.00092947
5730.0 0.00084358
5750.0 0.00082075
5770.0 0.00085197
5790.0 0.00089182
5810.0 0.00093754
5830.0 0.00096569
5850.0 0.0009356
5870.0 0.00089705
5890.0 0.00088777
5910.0 0.0009334
5930.0 0.00098601
5950.0 0.00094285
5970.0 0.00084527
5990.0 0.00071006
6010.0 0.0005803
6030.0 0.0005358
6050.0 0.00058028
6070.0 0.00061685
6090.0 0.00058807
6110.0 0.00051904
6130.0 0.00053114
6150.0 0.00061796
6170.0 0.00071044
6190.0 0.00077984
6210.0 0.00079108
6230.0 0.00077864
6250.0 0.00071105
6270.0 0.00059434
6290.0 0.00049069
6310.0 0.00043549
6330.0 0.00042548
6350.0 0.00043311
6370.0 0.000439
6390.0 0.00049373
6410.0 0.00061583
6430.0 0.00076002
6450.0 0.0008527
6470.0 0.00087907
6490.0 0.00087306
6510.0 0.00089114
6530.0 0.00091841
6550.0 0.00091393
6570.0 0.00094837
6590.0 0.00097236
6610.0 0.00098892
6630.0 0.00097238
6650.0 0.00090809
6670.0 0.00082854
6690.0 0.00075342
6710.0 0.00071305
6730.0 0.0007043
6750.0 0.00071705
6770.0 0.00073671
6790.0 0.00076063
6810.0 0.00077678
6830.0 0.00076196
6850.0 0.00072515
6870.0 0.00067935
6890.0 0.00066407
6910.0 0.00064406
6930.0 0.00066656
6950.0 0.00070627
6970.0 0.00072496
6990.0 0.00073841
7010.0 0.00071729
7030.0 0.00065957
7050.0 0.00058358
7070.0 0.00052073
7090.0 0.00048729
7110.0 0.00048307
7130.0 0.00047147
7150.0 0.00042141
7170.0 0.00039982
7190.0 0.00043742
7210.0 0.00050582
7230.0 0.00058327
7250.0 0.00061744
7270.0 0.0006103
7290.0 0.00056289
7310.0 0.00051959
7330.0 0.0004986
7350.0 0.0005
7370.0 0.00050944
7390.0 0.00053364
7410.0 0.00059129
7430.0 0.00068334
7450.0 0.00077151
7470.0 0.00081378
7490.0 0.00079482
7510.0 0.00073777
7530.0 0.00063716
7550.0 0.00057508
7570.0 0.00050998
7590.0 0.00047675
7610.0 0.00048585
7630.0 0.00052154
7650.0 0.00057273
7670.0 0.00062387
7690.0 0.00065811
7710.0 0.0006936
7730.0 0.00072974
7750.0 0.00075904
7770.0 0.00074712
7790.0 0.00074645
7810.0 0.00075405
7830.0 0.0007456
7850.0 0.00071627
7870.0 0.00068879
7890.0 0.00068803
7910.0 0.00066477
7930.0 0.00065044
7950.0 0.00061249
7970.0 0.00059138
7990.0 0.00056634
8010.0 0.00057086
8030.0 0.00057172
8050.0 0.00057202
8070.0 0.00056203
8090.0 0.00055495
8110.0 0.00053198
8130.0 0.000528
8150.0 0.00051816
8170.0 0.00050198
8190.0 0.00048849
8210.0 0.00048371
8230.0 0.00046913
8250.0 0.00045695
8270.0 0.00041183
8290.0 0.00033475
8310.0 0.00025048
8330.0 0.00019269
8350.0 0.00017938
8370.0 0.00021292
8390.0 0.00025698
8410.0 0.00027638
8430.0 0.00028227
8450.0 0.00029546
8470.0 0.0003151
8490.0 0.00035138
8510.0 0.0003992
8530.0 0.00045635
8550.0 0.00050924
8570.0 0.00055206
8590.0 0.00058404
8610.0 0.000601
8630.0 0.00059942
8650.0 0.00059097
8670.0 0.00058842
8690.0 0.00061526
8710.0 0.0006517
8730.0 0.00067498
8750.0 0.00066958
8770.0 0.00067594
8790.0 0.00067048
8810.0 0.0006271
8830.0 0.00058838
8850.0 0.0005381
8870.0 0.00049742
8890.0 0.00048284
8910.0 0.00048165
8930.0 0.00045329
8950.0 0.00042148
8970.0 0.00040744
8990.0 0.00040244
9010.0 0.00038635
9030.0 0.00037767
9050.0 0.00037448
9070.0 0.00037301
9090.0 0.00037174
9110.0 0.00037052
9130.0 0.00036929
9150.0 0.00036808
9170.0 0.00036671
9190.0 0.00036572
9210.0 0.00036617
9230.0 0.00036432
9250.0 0.00036278
9270.0 0.00036142
9290.0 0.00036018
9310.0 0.00035898
9330.0 0.00035783
9350.0 0.00035677
9370.0 0.00035571
9390.0 0.00035462
9410.0 0.00035358
9430.0 0.00035251
9450.0 0.00035099
9470.0 0.00034963
9490.0 0.00034907
9510.0 0.00034827
9530.0 0.00034741
9550.0 0.00034653
9570.0 0.00034561
9590.0 0.00034467
9610.0 0.00034373
9630.0 0.0003428
9650.0 0.00034186
9670.0 0.00034093
9690.0 0.00034
9710.0 0.00033908
9730.0 0.00033816
9750.0 0.00033724
9770.0 0.00033633
9790.0 0.00033541
9810.0 0.00033449
9830.0 0.00033358
9850.0 0.00033266
9870.0 0.00033174
9890.0 0.00033081
9910.0 0.00032989
9930.0 0.00032892
9950.0 0.00032543
9970.0 0.00032524
9990.0 0.0003249
10010.0 0.00032447
10030.0 0.00032382
10050.0 0.00032299
10070.0 0.00032212
10090.0 0.00032125
10110.0 0.0003202
10130.0 0.0003192
10150.0 0.00031821
10170.0 0.00031714
10190.0 0.00031597
10210.0 0.0003149
10230.0 0.00031385
10250.0 0.00031268
10270.0 0.00031151
10290.0 0.00031042
10310.0 0.00030921
10330.0 0.0003079
10350.0 0.00030669
10370.0 0.00030548
10390.0 0.00030413
10410.0 0.00030278
10430.0 0.00030153
10450.0 0.00030015
10470.0 0.00029869
10490.0 0.0002973
10510.0 0.00029589
10530.0 0.00029429
10550.0 0.00029273
10570.0 0.00029125
10590.0 0.00028964
10610.0 0.00028796
10630.0 0.00028636
10650.0 0.00028471
10670.0 0.00028289
10690.0 0.00028111
10710.0 0.00027936
10730.0 0.00027749
10750.0 0.00027549
10770.0 0.00027364
10790.0 0.00027172
10810.0 0.00026966
10830.0 0.00026762
10850.0 0.00026564
10870.0 0.00026343
10890.0 0.00026117
10910.0 0.00025898
10930.0 0.00025668
10950.0 0.00025418
10970.0 0.00025165
10990.0 0.00024914
11010.0 0.00026289
11030.0 0.00025986
11050.0 0.00025691
11070.0 0.00025391
11090.0 0.00025071
11110.0 0.00024776
11130.0 0.00024492
11150.0 0.00024203
11170.0 0.00023919
11190.0 0.00023656
11210.0 0.00023388
11230.0 0.00023115
11250.0 0.00022856
11270.0 0.00022602
11290.0 0.00022338
11310.0 0.00022074
11330.0 0.00021828
11350.0 0.00021573
11370.0 0.0002131
11390.0 0.00021052
11410.0 0.00020792
11430.0 0.00020508
11450.0 0.00020218
11470.0 0.00019925
11490.0 0.0001961
11510.0 0.00019269
11530.0 0.00018927
11550.0 0.00018573
11570.0 0.0001819
11590.0 0.00017798
11610.0 0.00017409
11630.0 0.00016997
11650.0 0.0001657
11670.0 0.00016162
11690.0 0.00015755
11710.0 0.0001534
11730.0 0.00014936
11750.0 0.00014558
11770.0 0.00014175
11790.0 0.00013801
11810.0 0.00013451
11830.0 0.00013114
11850.0 0.00012774
11870.0 0.00012456
11890.0 0.0001216
11910.0 0.00011866
11930.0 0.00011581
11950.0 0.00011316
11970.0 0.00011058
11990.0 0.00010801
12010.0 0.00010561
12030.0 0.00010335
12050.0 0.00010114
12070.0 9.9015e-05
12090.0 9.7131e-05
12110.0 9.5355e-05
12130.0 9.3689e-05
12150.0 9.222e-05
12170.0 9.0951e-05
12190.0 8.9808e-05
12210.0 8.8876e-05
12230.0 8.8164e-05
12250.0 8.7641e-05
12270.0 8.7321e-05
12290.0 8.7205e-05
12310.0 8.7268e-05
12330.0 8.7534e-05
12350.0 8.7984e-05
12370.0 8.8572e-05
12390.0 8.9323e-05
12410.0 9.0286e-05
12430.0 9.131e-05
12450.0 9.2423e-05
12470.0 9.3675e-05
12490.0 9.4998e-05
12510.0 9.6288e-05
12530.0 9.7642e-05
12550.0 9.9025e-05
12570.0 0.0001003
12590.0 0.00010148
12610.0 0.00010261
12630.0 0.00010357
12650.0 0.00010429
12670.0 0.00010483
12690.0 0.00010516
12710.0 0.00010522
12730.0 0.00010504
12750.0 0.00010461
12770.0 0.00010394
12790.0 0.00010305
12810.0 0.00010196
12830.0 0.00010067
12850.0 9.928e-05
12870.0 9.7799e-05
12890.0 9.6205e-05
12910.0 9.4588e-05
12930.0 9.3001e-05
12950.0 9.138e-05
12970.0 8.9767e-05
12990.0 8.8261e-05
13010.0 8.6805e-05
13030.0 8.537e-05
13050.0 8.4009e-05
13070.0 8.2735e-05
13090.0 8.1467e-05
13110.0 8.023e-05
13130.0 7.9054e-05
13150.0 7.7901e-05
13170.0 7.6724e-05
13190.0 7.5594e-05
13210.0 7.4508e-05
13230.0 7.3414e-05
13250.0 7.2341e-05
13270.0 7.1336e-05
13290.0 7.0366e-05
13310.0 6.9428e-05
13330.0 6.8585e-05
13350.0 6.7836e-05
13370.0 6.7164e-05
13390.0 6.6589e-05
13410.0 6.6133e-05
13430.0 6.5763e-05
13450.0 6.5473e-05
13470.0 6.5252e-05
13490.0 6.5074e-05
13510.0 6.4918e-05
13530.0 6.4755e-05
13550.0 6.4562e-05
13570.0 6.4317e-05
13590.0 6.3995e-05
13610.0 6.3593e-05
13630.0 6.3112e-05
13650.0 6.2528e-05
13670.0 6.1861e-05
13690.0 6.1142e-05
13710.0 6.0359e-05
13730.0 5.9505e-05
13750.0 5.8674e-05
13770.0 5.7854e-05
13790.0 5.7033e-05
13810.0 5.6254e-05
13830.0 5.5552e-05
13850.0 5.4887e-05
13870.0 5.4278e-05
13890.0 5.3751e-05
13910.0 5.3287e-05
13930.0 5.2867e-05
13950.0 5.2502e-05
13970.0 5.2191e-05
13990.0 5.1903e-05
14010.0 5.1634e-05
14030.0 5.1382e-05
14050.0 5.1134e-05
14070.0 5.0869e-05
14090.0 5.0593e-05
14110.0 5.0301e-05
14130.0 4.9977e-05
14150.0 4.9615e-05
14170.0 4.9237e-05
14190.0 4.8831e-05
14210.0 4.8386e-05
14230.0 4.7927e-05
14250.0 4.7469e-05
14270.0 4.699e-05
14290.0 4.651e-05
14310.0 4.607e-05
14330.0 4.5653e-05
14350.0 4.526e-05
14370.0 4.4919e-05
14390.0 4.4634e-05
14410.0 4.4388e-05
14430.0 4.4195e-05
14450.0 4.4056e-05
14470.0 4.3961e-05
14490.0 4.3905e-05
14510.0 4.3888e-05
14530.0 4.3902e-05
14550.0 4.3944e-05
14570.0 4.4015e-05
14590.0 4.4108e-05
14610.0 4.4232e-05
14630.0 4.4393e-05
14650.0 4.4588e-05
14670.0 4.4821e-05
14690.0 4.5108e-05
14710.0 4.5454e-05
14730.0 4.5833e-05
14750.0 4.6275e-05
14770.0 4.6789e-05
14790.0 4.7353e-05
14810.0 4.7964e-05
14830.0 4.8683e-05
14850.0 4.9466e-05
14870.0 5.029e-05
14890.0 5.1192e-05
14910.0 5.2169e-05
14930.0 5.3139e-05
14950.0 5.4078e-05
14970.0 5.5003e-05
14990.0 5.5823e-05
15010.0 5.6499e-05
15030.0 5.7051e-05
15050.0 5.7481e-05
15070.0 5.7775e-05
15090.0 5.7986e-05
15110.0 5.8141e-05
15130.0 5.8258e-05
15150.0 5.8356e-05
15170.0 5.8445e-05
15190.0 5.853e-05
15210.0 5.8616e-05
15230.0 5.8702e-05
15250.0 5.879e-05
15270.0 5.888e-05
15290.0 5.8973e-05
15310.0 5.9067e-05
15330.0 5.9162e-05
15350.0 5.926e-05
15370.0 5.936e-05
15390.0 5.946e-05
15410.0 5.9562e-05
15430.0 5.9667e-05
15450.0 5.9773e-05
15470.0 5.988e-05
15490.0 5.9989e-05
15510.0 6.0099e-05
15530.0 6.0211e-05
15550.0 6.0324e-05
15570.0 6.0439e-05
15590.0 6.0554e-05
15610.0 6.067e-05
15630.0 6.0788e-05
15650.0 6.0908e-05
15670.0 6.1027e-05
15690.0 6.1149e-05
15710.0 6.1271e-05
15730.0 6.1394e-05
15750.0 6.1517e-05
15770.0 6.1642e-05
15790.0 6.1768e-05
15810.0 6.1894e-05
15830.0 6.202e-05
15850.0 6.2148e-05
15870.0 6.2276e-05
15890.0 6.2404e-05
15910.0 6.2534e-05
15930.0 6.2663e-05
15950.0 6.2792e-05
15970.0 6.2922e-05
15990.0 6.3052e-05
16010.0 6.3182e-05
16030.0 6.3312e-05
16050.0 6.3443e-05
16070.0 6.3573e-05
16090.0 6.3703e-05
16110.0 6.3833e-05
16130.0 6.3964e-05
16150.0 6.4093e-05
16170.0 6.4222e-05
16190.0 6.4351e-05
16210.0 6.4479e-05
16230.0 6.4607e-05
16250.0 6.4735e-05
16270.0 6.4862e-05
16290.0 6.4987e-05
16310.0 6.5112e-05
16330.0 6.5237e-05
16350.0 6.5361e-05
16370.0 6.5482e-05
16390.0 6.5604e-05
16410.0 6.5725e-05
16430.0 6.5844e-05
16450.0 6.5962e-05
16470.0 6.6079e-05
16490.0 6.6195e-05
16510.0 6.6308e-05
16530.0 6.6421e-05
16550.0 6.6532e-05
16570.0 6.6641e-05
16590.0 6.6748e-05
16610.0 6.6855e-05
16630.0 6.6959e-05
16650.0 6.706e-05
16670.0 6.7161e-05
16690.0 6.726e-05
16710.0 6.7355e-05
16730.0 6.7449e-05
16750.0 6.7541e-05
16770.0 6.7631e-05
16790.0 6.7718e-05
16810.0 6.7803e-05
16830.0 6.7886e-05
16850.0 6.7965e-05
16870.0 6.8043e-05
16890.0 6.8118e-05
16910.0 6.819e-05
16930.0 6.8259e-05
16950.0 6.8326e-05
16970.0 6.839e-05
16990.0 6.845e-05
17010.0 6.8508e-05
17030.0 6.8564e-05
17050.0 6.8616e-05
17070.0 6.8664e-05
17090.0 6.871e-05
17110.0 6.8753e-05
17130.0 6.8791e-05
17150.0 6.8827e-05
17170.0 6.886e-05
17190.0 6.889e-05
17210.0 6.8915e-05
17230.0 6.8938e-05
17250.0 6.8957e-05
17270.0 6.8972e-05
17290.0 6.8984e-05
17310.0 6.8993e-05
17330.0 6.8997e-05
17350.0 6.8997e-05
17370.0 6.8995e-05
17390.0 6.8989e-05
17410.0 6.8979e-05
17430.0 6.8965e-05
17450.0 6.8948e-05
17470.0 6.8926e-05
17490.0 6.89e-05
17510.0 6.8872e-05
17530.0 6.8839e-05
17550.0 6.8801e-05
17570.0 6.8761e-05
17590.0 6.8717e-05
17610.0 6.8668e-05
17630.0 6.8616e-05
17650.0 6.856e-05
17670.0 6.85e-05
17690.0 6.8435e-05
17710.0 6.8367e-05
17730.0 6.8296e-05
17750.0 6.822e-05
17770.0 6.814e-05
17790.0 6.8058e-05
17810.0 6.797e-05
17830.0 6.7878e-05
17850.0 6.7784e-05
17870.0 6.7685e-05
17890.0 6.7582e-05
17910.0 6.7475e-05
17930.0 6.7366e-05
17950.0 6.7252e-05
17970.0 6.7134e-05
17990.0 6.7013e-05
18010.0 6.6888e-05
18030.0 6.6759e-05
18050.0 6.6627e-05
18070.0 6.6491e-05
18090.0 6.6352e-05
18110.0 6.6209e-05
18130.0 6.6063e-05
18150.0 6.5913e-05
18170.0 6.576e-05
18190.0 6.5603e-05
18210.0 6.5444e-05
18230.0 6.528e-05
18250.0 6.5114e-05
18270.0 6.4945e-05
18290.0 6.4772e-05
18310.0 6.4596e-05
18330.0 6.4417e-05
18350.0 6.4236e-05
18370.0 6.4051e-05
18390.0 6.3863e-05
18410.0 6.3673e-05
18430.0 6.348e-05
18450.0 6.3283e-05
18470.0 6.3085e-05
18490.0 6.2884e-05
18510.0 6.268e-05
18530.0 6.2474e-05
18550.0 6.2265e-05
18570.0 6.2054e-05
18590.0 6.184e-05
18610.0 6.1625e-05
18630.0 6.1407e-05
18650.0 6.1186e-05
18670.0 6.0964e-05
18690.0 6.074e-05
18710.0 6.0514e-05
18730.0 6.0285e-05
18750.0 6.0056e-05
18770.0 5.9824e-05
18790.0 5.959e-05
18810.0 5.9354e-05
18830.0 5.9118e-05
18850.0 5.888e-05
18870.0 5.8639e-05
18890.0 5.8398e-05
18910.0 5.8156e-05
18930.0 5.7911e-05
18950.0 5.7666e-05
18970.0 5.742e-05
18990.0 5.7172e-05
19010.0 5.6923e-05
19030.0 5.6674e-05
19050.0 5.6423e-05
19070.0 5.6172e-05
19090.0 5.5919e-05
19110.0 5.5667e-05
19130.0 5.5413e-05
19150.0 5.5158e-05
19170.0 5.4903e-05
19190.0 5.4647e-05
19210.0 5.4391e-05
19230.0 5.4134e-05
19250.0 5.3878e-05
19270.0 5.362e-05
19290.0 5.3362e-05
19310.0 5.3105e-05
19330.0 5.2847e-05
19350.0 5.2588e-05
19370.0 5.233e-05
19390.0 5.2072e-05
19410.0 5.1814e-05
19430.0 5.1555e-05
19450.0 5.1298e-05
19470.0 5.104e-05
19490.0 5.0782e-05
19510.0 5.0524e-05
19530.0 5.0268e-05
19550.0 5.0011e-05
19570.0 4.9754e-05
19590.0 4.9498e-05
19610.0 4.9243e-05
19630.0 4.8987e-05
19650.0 4.8733e-05
19670.0 4.8479e-05
19690.0 4.8226e-05
19710.0 4.7973e-05
19730.0 4.7721e-05
19750.0 4.747e-05
19770.0 4.7219e-05
19790.0 4.6969e-05
19810.0 4.672e-05
19830.0 4.647e-05
19850.0 4.622e-05
19870.0 4.5966e-05
19890.0 4.5704e-05
19910.0 4.5424e-05
19930.0 4.5119e-05
19950.0 4.4774e-05
19970.0 4.4368e-05
19990.0 4.3887e-05
20010.0 4.3343e-05
20030.0 4.2708e-05
20050.0 4.1988e-05
20070.0 4.1223e-05
20090.0 4.042e-05
20110.0 3.9552e-05
20130.0 3.8693e-05
20150.0 3.786e-05
20170.0 3.7022e-05
20190.0 3.6193e-05
20210.0 3.5416e-05
20230.0 3.4664e-05
20250.0 3.3918e-05
20270.0 3.3215e-05
20290.0 3.2557e-05
20310.0 3.1915e-05
20330.0 3.129e-05
20350.0 3.0725e-05
20370.0 3.0183e-05
20390.0 2.9657e-05
20410.0 2.9167e-05
20430.0 2.8713e-05
20450.0 2.8268e-05
20470.0 2.7851e-05
20490.0 2.7469e-05
20510.0 2.711e-05
20530.0 2.6769e-05
20550.0 2.6458e-05
20570.0 2.6176e-05
20590.0 2.5911e-05
20610.0 2.567e-05
20630.0 2.5454e-05
20650.0 2.5257e-05
20670.0 2.5078e-05
20690.0 2.492e-05
20710.0 2.4779e-05
20730.0 2.4652e-05
20750.0 2.4538e-05
20770.0 2.4435e-05
20790.0 2.4341e-05
20810.0 2.4255e-05
20830.0 2.4173e-05
20850.0 2.4092e-05
20870.0 2.4015e-05
20890.0 2.3935e-05
20910.0 2.3851e-05
20930.0 2.3763e-05
20950.0 2.3668e-05
20970.0 2.3565e-05
20990.0 2.3453e-05
21010.0 2.3331e-05
21030.0 2.3198e-05
21050.0 2.3055e-05
21070.0 2.2901e-05
21090.0 2.2732e-05
21110.0 2.2556e-05
21130.0 2.2371e-05
21150.0 2.2173e-05
21170.0 2.1967e-05
21190.0 2.1757e-05
21210.0 2.1537e-05
21230.0 2.1306e-05
21250.0 2.1077e-05
21270.0 2.0844e-05
21290.0 2.0604e-05
21310.0 2.0363e-05
21330.0 2.0129e-05
21350.0 1.9891e-05
21370.0 1.9653e-05
21390.0 1.9423e-05
21410.0 1.9199e-05
21430.0 1.8973e-05
21450.0 1.8761e-05
21470.0 1.8561e-05
21490.0 1.8368e-05
21510.0 1.8186e-05
21530.0 1.8021e-05
21550.0 1.7868e-05
21570.0 1.7728e-05
21590.0 1.7604e-05
21610.0 1.7496e-05
21630.0 1.7403e-05
21650.0 1.7325e-05
21670.0 1.7262e-05
21690.0 1.7213e-05
21710.0 1.7178e-05
21730.0 1.7154e-05
21750.0 1.7139e-05
21770.0 1.7136e-05
21790.0 1.7141e-05
21810.0 1.7148e-05
21830.0 1.7161e-05
21850.0 1.7178e-05
21870.0 1.7194e-05
21890.0 1.7206e-05
21910.0 1.7219e-05
21930.0 1.7228e-05
21950.0 1.723e-05
21970.0 1.7227e-05
21990.0 1.7221e-05
22010.0 1.7205e-05
22030.0 1.7182e-05
22050.0 1.7153e-05
22070.0 1.7118e-05
22090.0 1.7075e-05
22110.0 1.7026e-05
22130.0 1.6973e-05
22150.0 1.6914e-05
22170.0 1.6851e-05
22190.0 1.6783e-05
22210.0 1.6712e-05
22230.0 1.6637e-05
22250.0 1.6559e-05
22270.0 1.6477e-05
22290.0 1.6392e-05
22310.0 1.6303e-05
22330.0 1.6208e-05
22350.0 1.6108e-05
22370.0 1.6003e-05
22390.0 1.589e-05
22410.0 1.5768e-05
22430.0 1.564e-05
22450.0 1.5503e-05
22470.0 1.5354e-05
22490.0 1.5196e-05
22510.0 1.5032e-05
22530.0 1.4853e-05
22550.0 1.4661e-05
22570.0 1.4467e-05
22590.0 1.4265e-05
22610.0 1.4052e-05
22630.0 1.3835e-05
