#lamb flux
1010.0 1.7041e-06
1030.0 1.9197e-06
1050.0 2.1676e-06
1070.0 2.4467e-06
1090.0 2.7637e-06
1110.0 3.0889e-06
1130.0 3.4161e-06
1150.0 3.7589e-06
1170.0 4.1126e-06
1190.0 4.4479e-06
1210.0 4.7877e-06
1230.0 5.1389e-06
1250.0 5.4829e-06
1270.0 5.8171e-06
1290.0 6.1701e-06
1310.0 6.5229e-06
1330.0 6.8612e-06
1350.0 7.2034e-06
1370.0 7.5566e-06
1390.0 7.9009e-06
1410.0 8.235e-06
1430.0 8.5843e-06
1450.0 8.9334e-06
1470.0 9.2708e-06
1490.0 9.6118e-06
1510.0 9.9719e-06
1530.0 1.0313e-05
1550.0 1.0649e-05
1570.0 1.0997e-05
1590.0 1.1345e-05
1610.0 1.1678e-05
1630.0 1.202e-05
1650.0 1.2371e-05
1670.0 1.2711e-05
1690.0 1.3045e-05
1710.0 1.3392e-05
1730.0 1.374e-05
1750.0 1.4067e-05
1770.0 1.4403e-05
1790.0 1.4745e-05
1810.0 1.5074e-05
1830.0 1.5396e-05
1850.0 1.5737e-05
1870.0 1.6068e-05
1890.0 1.6385e-05
1910.0 1.6706e-05
1930.0 1.7033e-05
1950.0 1.7341e-05
1970.0 1.7643e-05
1990.0 1.7953e-05
2010.0 1.8253e-05
2030.0 1.8537e-05
2050.0 1.8826e-05
2070.0 1.9118e-05
2090.0 1.9384e-05
2110.0 1.9643e-05
2130.0 1.9904e-05
2150.0 2.0152e-05
2170.0 2.0377e-05
2190.0 2.0604e-05
2210.0 2.0825e-05
2230.0 2.1022e-05
2250.0 2.1207e-05
2270.0 2.1394e-05
2290.0 2.156e-05
2310.0 2.17e-05
2330.0 2.1838e-05
2350.0 2.1965e-05
2370.0 2.2069e-05
2390.0 2.2167e-05
2410.0 2.2277e-05
2430.0 2.2381e-05
2450.0 2.2489e-05
2470.0 2.2632e-05
2490.0 2.2823e-05
2510.0 2.3043e-05
2530.0 2.3368e-05
2550.0 2.3903e-05
2570.0 2.4744e-05
2590.0 2.6034e-05
2610.0 2.8178e-05
2630.0 3.1289e-05
2650.0 3.5217e-05
2670.0 4.0028e-05
2690.0 4.554e-05
2710.0 5.0922e-05
2730.0 5.574e-05
2750.0 6.0029e-05
2770.0 6.328e-05
2790.0 6.5419e-05
2810.0 6.6762e-05
2830.0 6.752e-05
2850.0 6.7694e-05
2870.0 6.7573e-05
2890.0 6.7314e-05
2910.0 6.6953e-05
2930.0 6.6509e-05
2950.0 6.6078e-05
2970.0 6.5661e-05
2990.0 6.5226e-05
3010.0 0.0015242
3030.0 0.0015141
3050.0 0.001504
3070.0 0.0014929
3090.0 0.0014813
3110.0 0.0014677
3130.0 0.0014503
3150.0 0.0014282
3170.0 0.0013996
3190.0 0.0013652
3210.0 0.0013276
3230.0 0.0012894
3250.0 0.0012558
3270.0 0.0012326
3290.0 0.0012227
3310.0 0.0012284
3330.0 0.0012501
3350.0 0.0012848
3370.0 0.001333
3390.0 0.0013933
3410.0 0.0014587
3430.0 0.0015325
3450.0 0.0016174
3470.0 0.0017098
3490.0 0.0018075
3510.0 0.0019171
3530.0 0.0020343
3550.0 0.0021536
3570.0 0.00228
3590.0 0.0024214
3610.0 0.0025707
3630.0 0.0027266
3650.0 0.0028904
3670.0 0.0030436
3690.0 0.0031627
3710.0 0.003234
3730.0 0.0032367
3750.0 0.0031692
3770.0 0.002968
3790.0 0.0027111
3810.0 0.0024425
3830.0 0.0021637
3850.0 0.001809
3870.0 0.0012937
3890.0 0.0018733
3910.0 0.0029725
3930.0 0.0036319
3950.0 0.0035997
3970.0 0.0038062
3990.0 0.0042546
4010.0 0.0056612
4030.0 0.0056033
4050.0 0.0049367
4070.0 0.0045707
4090.0 0.0043462
4110.0 0.0051445
4130.0 0.0055309
4150.0 0.0056887
4170.0 0.0055318
4190.0 0.0055154
4210.0 0.0055359
4230.0 0.0062762
4250.0 0.0069259
4270.0 0.0071108
4290.0 0.0070843
4310.0 0.0071113
4330.0 0.0077474
4350.0 0.009113
4370.0 0.010445
4390.0 0.0096302
4410.0 0.007527
4430.0 0.0062241
4450.0 0.0053747
4470.0 0.0050951
4490.0 0.005798
4510.0 0.0069784
4530.0 0.007846
4550.0 0.0088612
4570.0 0.010105
4590.0 0.012063
4610.0 0.016364
4630.0 0.020383
4650.0 0.02062
4670.0 0.019516
4690.0 0.020791
4710.0 0.022086
4730.0 0.018569
4750.0 0.012956
4770.0 0.010378
4790.0 0.010254
4810.0 0.0096508
4830.0 0.009141
4850.0 0.010381
4870.0 0.013522
4890.0 0.015683
4910.0 0.013052
4930.0 0.011596
4950.0 0.012994
4970.0 0.017494
4990.0 0.022964
5010.0 0.024851
5030.0 0.020411
5050.0 0.012903
5070.0 0.0088767
5090.0 0.0077605
5110.0 0.008024
5130.0 0.0087329
5150.0 0.0090707
5170.0 0.0090062
5190.0 0.0087351
5210.0 0.008543
5230.0 0.0089787
5250.0 0.0097147
5270.0 0.010819
5290.0 0.012417
5310.0 0.014075
5330.0 0.014473
5350.0 0.014478
5370.0 0.015821
5390.0 0.017559
5410.0 0.016788
5430.0 0.014178
5450.0 0.013119
5470.0 0.01474
5490.0 0.018915
5510.0 0.024178
5530.0 0.027131
5550.0 0.025971
5570.0 0.023409
5590.0 0.020588
5610.0 0.019253
5630.0 0.018673
5650.0 0.018854
5670.0 0.01826
5690.0 0.01658
5710.0 0.015887
5730.0 0.014642
5750.0 0.0099587
5770.0 0.008477
5790.0 0.009665
5810.0 0.011597
5830.0 0.013701
5850.0 0.015452
5870.0 0.016009
5890.0 0.015441
5910.0 0.01479
5930.0 0.014752
5950.0 0.01542
5970.0 0.0169
5990.0 0.015713
6010.0 0.013038
6030.0 0.010796
6050.0 0.0093657
6070.0 0.0095245
6090.0 0.010787
6110.0 0.011795
6130.0 0.011286
6150.0 0.010139
6170.0 0.010663
6190.0 0.012918
6210.0 0.016254
6230.0 0.019411
6250.0 0.019645
6270.0 0.017209
6290.0 0.014297
6310.0 0.011288
6330.0 0.0088549
6350.0 0.0080039
6370.0 0.0085905
6390.0 0.010231
6410.0 0.012004
6430.0 0.014002
6450.0 0.016431
6470.0 0.019654
6490.0 0.024211
6510.0 0.026943
6530.0 0.025265
6550.0 0.02314
6570.0 0.021936
6590.0 0.021123
6610.0 0.018584
6630.0 0.017014
6650.0 0.015682
6670.0 0.015976
6690.0 0.015412
6710.0 0.013817
6730.0 0.011884
6750.0 0.010915
6770.0 0.011054
6790.0 0.012602
6810.0 0.012339
6830.0 0.012683
6850.0 0.012245
6870.0 0.0117
6890.0 0.011285
6910.0 0.011112
6930.0 0.010397
6950.0 0.010808
6970.0 0.010925
6990.0 0.01221
7010.0 0.012945
7030.0 0.012127
7050.0 0.011287
7070.0 0.010883
7090.0 0.010187
7110.0 0.0096602
7130.0 0.010004
7150.0 0.010676
7170.0 0.011435
7190.0 0.011594
7210.0 0.011248
7230.0 0.011601
7250.0 0.013186
7270.0 0.015336
7290.0 0.016929
7310.0 0.016701
7330.0 0.014901
7350.0 0.013317
7370.0 0.012345
7390.0 0.012503
7410.0 0.013379
7430.0 0.014668
7450.0 0.015866
7470.0 0.017052
7490.0 0.018516
7510.0 0.01956
7530.0 0.01825
7550.0 0.015367
7570.0 0.012081
7590.0 0.0088973
7610.0 0.0079011
7630.0 0.0085499
7650.0 0.0099025
7670.0 0.011489
7690.0 0.01303
7710.0 0.013915
7730.0 0.014298
7750.0 0.014941
7770.0 0.01489
7790.0 0.014334
7810.0 0.014293
7830.0 0.014023
7850.0 0.012806
7870.0 0.011639
7890.0 0.010447
7910.0 0.0089148
7930.0 0.0077848
7950.0 0.0070566
7970.0 0.0068655
7990.0 0.0070483
8010.0 0.0074302
8030.0 0.0074455
8050.0 0.0074996
8070.0 0.0073773
8090.0 0.0075573
8110.0 0.0071285
8130.0 0.0062389
8150.0 0.0058615
8170.0 0.0054022
8190.0 0.0053468
8210.0 0.0057321
8230.0 0.0061322
8250.0 0.0056829
8270.0 0.0050658
8290.0 0.0041621
8310.0 0.0028686
8330.0 0.0018618
8350.0 0.0013561
8370.0 0.0014414
8390.0 0.001707
8410.0 0.0021684
8430.0 0.0026497
8450.0 0.0029256
8470.0 0.0032459
8490.0 0.0031909
8510.0 0.0032073
8530.0 0.0033497
8550.0 0.0040551
8570.0 0.0049955
8590.0 0.0057079
8610.0 0.0068993
8630.0 0.0079975
8650.0 0.0084149
8670.0 0.0085546
8690.0 0.0085035
8710.0 0.0079514
8730.0 0.0076323
8750.0 0.007063
8770.0 0.0067821
8790.0 0.0067285
8810.0 0.0064145
8830.0 0.0053957
8850.0 0.0044464
8870.0 0.003708
8890.0 0.0036244
8910.0 0.0039146
8930.0 0.0041546
8950.0 0.0046627
8970.0 0.004736
8990.0 0.0046625
9010.0 0.0044836
9030.0 0.0044365
9050.0 0.0044801
9070.0 0.0045146
9090.0 0.0045406
9110.0 0.0045638
9130.0 0.0045844
9150.0 0.0046039
9170.0 0.0046245
9190.0 0.0046463
9210.0 0.00467
9230.0 0.0046942
9250.0 0.0047201
9270.0 0.004747
9290.0 0.0047749
9310.0 0.0048044
9330.0 0.004835
9350.0 0.0048664
9370.0 0.0048991
9390.0 0.0049331
9410.0 0.0049681
9430.0 0.0050039
9450.0 0.0050412
9470.0 0.0050795
9490.0 0.0051186
9510.0 0.0051589
9530.0 0.0052005
9550.0 0.0052426
9570.0 0.0052857
9590.0 0.00533
9610.0 0.0053752
9630.0 0.0054211
9650.0 0.005468
9670.0 0.005516
9690.0 0.0055646
9710.0 0.0056139
9730.0 0.0056643
9750.0 0.0057154
9770.0 0.0057668
9790.0 0.0058192
9810.0 0.0058724
9830.0 0.005926
9850.0 0.0059801
9870.0 0.0060352
9890.0 0.0060906
9910.0 0.0061462
9930.0 0.0062026
9950.0 0.0062594
9970.0 0.0063163
9990.0 0.0063733
10010.0 0.0061376
10030.0 0.0061915
10050.0 0.0062454
10070.0 0.0062991
10090.0 0.0063539
10110.0 0.0064081
10130.0 0.0064624
10150.0 0.006517
10170.0 0.0065713
10190.0 0.0066249
10210.0 0.0066789
10230.0 0.0067327
10250.0 0.0067858
10270.0 0.0068387
10290.0 0.0068916
10310.0 0.0069436
10330.0 0.0069948
10350.0 0.007046
10370.0 0.0070967
10390.0 0.0071462
10410.0 0.0071952
10430.0 0.0072441
10450.0 0.0072917
10470.0 0.0073382
10490.0 0.0073843
10510.0 0.0074296
10530.0 0.0074731
10550.0 0.007516
10570.0 0.0075584
10590.0 0.0075992
10610.0 0.0076386
10630.0 0.0076775
10650.0 0.0077151
10670.0 0.0077508
10690.0 0.0077855
10710.0 0.0078194
10730.0 0.0078514
10750.0 0.0078815
10770.0 0.0079112
10790.0 0.0079393
10810.0 0.0079653
10830.0 0.0079897
10850.0 0.0080126
10870.0 0.0080315
10890.0 0.0080456
10910.0 0.0080536
10930.0 0.0080507
10950.0 0.0080303
10970.0 0.0079896
10990.0 0.0079267
11010.0 0.0076982
11030.0 0.0075744
11050.0 0.0074276
11070.0 0.0072535
11090.0 0.0070444
11110.0 0.0068288
11130.0 0.0066039
11150.0 0.0063619
11170.0 0.0061136
11190.0 0.0058753
11210.0 0.005632
11230.0 0.0053866
11250.0 0.0051569
11270.0 0.0049411
11290.0 0.0047298
11310.0 0.0045344
11330.0 0.0043663
11350.0 0.0042104
11370.0 0.0040685
11390.0 0.0039468
11410.0 0.00384
11430.0 0.0037391
11450.0 0.0036492
11470.0 0.0035674
11490.0 0.0034866
11510.0 0.0034032
11530.0 0.003321
11550.0 0.0032356
11570.0 0.0031417
11590.0 0.0030432
11610.0 0.0029428
11630.0 0.0028344
11650.0 0.0027202
11670.0 0.0026095
11690.0 0.0024994
11710.0 0.0023881
11730.0 0.0022824
11750.0 0.0021862
11770.0 0.0020934
11790.0 0.0020078
11810.0 0.001933
11830.0 0.0018665
11850.0 0.0018052
11870.0 0.0017531
11890.0 0.0017086
11910.0 0.0016679
11930.0 0.0016307
11950.0 0.0015971
11970.0 0.0015646
11990.0 0.0015312
12010.0 0.0014979
12030.0 0.0014641
12050.0 0.0014281
12070.0 0.0013901
12090.0 0.001353
12110.0 0.0013153
12130.0 0.0012772
12150.0 0.0012414
12170.0 0.0012089
12190.0 0.0011786
12210.0 0.0011535
12230.0 0.0011347
12250.0 0.001122
12270.0 0.0011163
12290.0 0.0011179
12310.0 0.0011262
12330.0 0.0011421
12350.0 0.0011648
12370.0 0.0011922
12390.0 0.0012249
12410.0 0.0012641
12430.0 0.0013037
12450.0 0.0013444
12470.0 0.0013872
12490.0 0.0014293
12510.0 0.0014673
12530.0 0.001504
12550.0 0.0015378
12570.0 0.0015657
12590.0 0.0015883
12610.0 0.0016064
12630.0 0.0016184
12650.0 0.0016234
12670.0 0.0016233
12690.0 0.0016175
12710.0 0.0016064
12730.0 0.0015907
12750.0 0.0015701
12770.0 0.0015457
12790.0 0.0015187
12810.0 0.0014884
12830.0 0.001455
12850.0 0.001421
12870.0 0.0013855
12890.0 0.0013477
12910.0 0.0013092
12930.0 0.001271
12950.0 0.0012308
12970.0 0.0011893
12990.0 0.0011491
13010.0 0.0011086
13030.0 0.0010669
13050.0 0.0010259
13070.0 0.00098671
13090.0 0.00094686
13110.0 0.00090782
13130.0 0.0008714
13150.0 0.00083672
13170.0 0.00080286
13190.0 0.00077276
13210.0 0.00074641
13230.0 0.0007227
13250.0 0.00070267
13270.0 0.00068716
13290.0 0.00067547
13310.0 0.00066784
13330.0 0.00066468
13350.0 0.00066547
13370.0 0.00067032
13390.0 0.00067915
13410.0 0.0006904
13430.0 0.00070451
13450.0 0.00072136
13470.0 0.00073936
13490.0 0.00075776
13510.0 0.00077799
13530.0 0.00079782
13550.0 0.00081615
13570.0 0.00083372
13590.0 0.00085036
13610.0 0.00086458
13630.0 0.00087644
13650.0 0.0008868
13670.0 0.00089474
13690.0 0.00090013
13710.0 0.00090349
13730.0 0.00090484
13750.0 0.00090391
13770.0 0.00090118
13790.0 0.00089672
13810.0 0.00089066
13830.0 0.00088342
13850.0 0.00087477
13870.0 0.0008648
13890.0 0.00085408
13910.0 0.00084257
13930.0 0.00082986
13950.0 0.0008165
13970.0 0.00080322
13990.0 0.00078921
14010.0 0.00077473
14030.0 0.00076062
14050.0 0.00074673
14070.0 0.00073247
14090.0 0.0007191
14110.0 0.0007068
14130.0 0.00069519
14150.0 0.00068457
14170.0 0.00067575
14190.0 0.00066839
14210.0 0.00066248
14230.0 0.00065844
14250.0 0.00065623
14270.0 0.00065582
14290.0 0.00065737
14310.0 0.00066056
14330.0 0.00066536
14350.0 0.0006719
14370.0 0.00067968
14390.0 0.00068828
14410.0 0.00069826
14430.0 0.00070913
14450.0 0.00072022
14470.0 0.00073183
14490.0 0.00074444
14510.0 0.00075692
14530.0 0.00076934
14550.0 0.00078256
14570.0 0.00079633
14590.0 0.00081011
14610.0 0.00082488
14630.0 0.00084124
14650.0 0.00085826
14670.0 0.00087628
14690.0 0.00089645
14710.0 0.00091865
14730.0 0.00094118
14750.0 0.0009658
14770.0 0.00099271
14790.0 0.0010203
14810.0 0.0010484
14830.0 0.0010791
14850.0 0.0011098
14870.0 0.0011393
14890.0 0.0011687
14910.0 0.0011976
14930.0 0.0012235
14950.0 0.0012462
14970.0 0.0012665
14990.0 0.0012825
15010.0 0.0012941
15030.0 0.0013022
15050.0 0.001307
15070.0 0.0013089
15090.0 0.001309
15110.0 0.0013079
15130.0 0.001306
15150.0 0.0013038
15170.0 0.0013014
15190.0 0.0012988
15210.0 0.0012963
15230.0 0.0012938
15250.0 0.0012912
15270.0 0.0012887
15290.0 0.0012863
15310.0 0.0012839
15330.0 0.0012814
15350.0 0.001279
15370.0 0.0012767
15390.0 0.0012742
15410.0 0.0012718
15430.0 0.0012695
15450.0 0.0012671
15470.0 0.0012646
15490.0 0.0012624
15510.0 0.0012601
15530.0 0.0012577
15550.0 0.0012553
15570.0 0.0012531
15590.0 0.0012507
15610.0 0.0012483
15630.0 0.001246
15650.0 0.0012437
15670.0 0.0012413
15690.0 0.0012389
15710.0 0.0012367
15730.0 0.0012343
15750.0 0.0012319
15770.0 0.0012296
15790.0 0.0012272
15810.0 0.0012247
15830.0 0.0012223
15850.0 0.00122
15870.0 0.0012176
15890.0 0.0012151
15910.0 0.0012127
15930.0 0.0012103
15950.0 0.0012077
15970.0 0.0012052
15990.0 0.0012028
16010.0 0.0012002
16030.0 0.0011976
16050.0 0.0011951
16070.0 0.0011926
16090.0 0.0011899
16110.0 0.0011873
16130.0 0.0011848
16150.0 0.001182
16170.0 0.0011793
16190.0 0.0011766
16210.0 0.0011739
16230.0 0.0011711
16250.0 0.0011683
16270.0 0.0011656
16290.0 0.0011628
16310.0 0.0011599
16330.0 0.0011571
16350.0 0.0011542
16370.0 0.0011511
16390.0 0.0011482
16410.0 0.0011453
16430.0 0.0011423
16450.0 0.0011392
16470.0 0.0011363
16490.0 0.0011332
16510.0 0.00113
16530.0 0.0011269
16550.0 0.0011238
16570.0 0.0011205
16590.0 0.0011173
16610.0 0.0011141
16630.0 0.0011108
16650.0 0.0011075
16670.0 0.0011042
16690.0 0.0011009
16710.0 0.0010974
16730.0 0.001094
16750.0 0.0010907
16770.0 0.0010872
16790.0 0.0010836
16810.0 0.0010801
16830.0 0.0010766
16850.0 0.001073
16870.0 0.0010694
16890.0 0.0010659
16910.0 0.0010621
16930.0 0.0010583
16950.0 0.0010547
16970.0 0.001051
16990.0 0.0010472
17010.0 0.0010434
17030.0 0.0010397
17050.0 0.0010358
17070.0 0.0010319
17090.0 0.001028
17110.0 0.0010242
17130.0 0.0010201
17150.0 0.0010161
17170.0 0.0010122
17190.0 0.0010082
17210.0 0.0010041
17230.0 0.0010001
17250.0 0.00099607
17270.0 0.00099185
17290.0 0.00098775
17310.0 0.00098366
17330.0 0.00097943
17350.0 0.00097516
17370.0 0.00097107
17390.0 0.00096685
17410.0 0.00096253
17430.0 0.0009583
17450.0 0.00095411
17470.0 0.00094968
17490.0 0.00094531
17510.0 0.00094105
17530.0 0.00093669
17550.0 0.00093223
17570.0 0.00092789
17590.0 0.00092357
17610.0 0.00091907
17630.0 0.00091461
17650.0 0.00091024
17670.0 0.00090577
17690.0 0.00090113
17710.0 0.00089672
17730.0 0.00089227
17750.0 0.0008877
17770.0 0.00088315
17790.0 0.00087874
17810.0 0.00087414
17830.0 0.0008695
17850.0 0.00086498
17870.0 0.00086044
17890.0 0.00085576
17910.0 0.00085113
17930.0 0.00084664
17950.0 0.00084201
17970.0 0.00083734
17990.0 0.00083278
18010.0 0.00082821
18030.0 0.00082344
18050.0 0.0008188
18070.0 0.00081423
18090.0 0.00080954
18110.0 0.00080481
18130.0 0.00080024
18150.0 0.00079563
18170.0 0.00079089
18190.0 0.00078624
18210.0 0.00078166
18230.0 0.00077693
18250.0 0.00077217
18270.0 0.00076758
18290.0 0.00076294
18310.0 0.00075821
18330.0 0.00075356
18350.0 0.000749
18370.0 0.00074427
18390.0 0.00073957
18410.0 0.00073498
18430.0 0.00073034
18450.0 0.00072557
18470.0 0.00072095
18490.0 0.00071639
18510.0 0.00071171
18530.0 0.00070705
18550.0 0.00070252
18570.0 0.00069789
18590.0 0.00069318
18610.0 0.0006886
18630.0 0.00068405
18650.0 0.00067939
18670.0 0.00067474
18690.0 0.00067027
18710.0 0.0006657
18730.0 0.00066108
18750.0 0.00065656
18770.0 0.0006521
18790.0 0.00064743
18810.0 0.00064287
18830.0 0.00063843
18850.0 0.00063392
18870.0 0.00062935
18890.0 0.00062491
18910.0 0.0006205
18930.0 0.00061596
18950.0 0.00061149
18970.0 0.00060712
18990.0 0.00060268
19010.0 0.00059812
19030.0 0.00059379
19050.0 0.00058944
19070.0 0.000585
19090.0 0.00058062
19110.0 0.00057637
19130.0 0.00057197
19150.0 0.00056757
19170.0 0.0005633
19190.0 0.00055902
19210.0 0.00055464
19230.0 0.00055034
19250.0 0.00054618
19270.0 0.0005419
19290.0 0.00053762
19310.0 0.00053347
19330.0 0.0005293
19350.0 0.00052498
19370.0 0.00052081
19390.0 0.00051671
19410.0 0.00051253
19430.0 0.00050833
19450.0 0.00050429
19470.0 0.00050022
19490.0 0.00049606
19510.0 0.00049201
19530.0 0.00048802
19550.0 0.00048391
19570.0 0.0004798
19590.0 0.00047587
19610.0 0.00047189
19630.0 0.00046785
19650.0 0.00046391
19670.0 0.00046004
19690.0 0.00045604
19710.0 0.00045209
19730.0 0.00044825
19750.0 0.00044437
19770.0 0.00044039
19790.0 0.00043657
19810.0 0.00043279
19830.0 0.00042892
19850.0 0.00042506
19870.0 0.00042129
19890.0 0.00041736
19910.0 0.00041322
19930.0 0.00040898
19950.0 0.00040443
19970.0 0.00039925
19990.0 0.00039345
20010.0 0.000395
20030.0 0.00038776
20050.0 0.00037969
20070.0 0.0003713
20090.0 0.00036258
20110.0 0.00035308
20130.0 0.00034374
20150.0 0.00033472
20170.0 0.0003256
20190.0 0.00031658
20210.0 0.00030819
20230.0 0.00030014
20250.0 0.00029221
20270.0 0.00028492
20290.0 0.00027832
20310.0 0.00027211
20330.0 0.00026635
20350.0 0.00026158
20370.0 0.00025737
20390.0 0.00025373
20410.0 0.00025082
20430.0 0.00024862
20450.0 0.00024697
20470.0 0.00024597
20490.0 0.00024557
20510.0 0.0002457
20530.0 0.00024638
20550.0 0.0002475
20570.0 0.00024895
20590.0 0.00025083
20610.0 0.00025304
20630.0 0.0002554
20650.0 0.00025801
20670.0 0.00026096
20690.0 0.0002639
20710.0 0.00026688
20730.0 0.00027006
20750.0 0.00027331
20770.0 0.00027643
20790.0 0.00027966
20810.0 0.00028303
20830.0 0.00028631
20850.0 0.00028956
20870.0 0.00029301
20890.0 0.00029651
20910.0 0.00029984
20930.0 0.0003033
20950.0 0.0003069
20970.0 0.0003104
20990.0 0.00031386
21010.0 0.00031755
21030.0 0.00032116
21050.0 0.00032463
21070.0 0.00032811
21090.0 0.00033166
21110.0 0.0003349
21130.0 0.00033799
21150.0 0.00034103
21170.0 0.00034386
21190.0 0.00034635
21210.0 0.00034871
21230.0 0.00035085
21250.0 0.00035257
21270.0 0.00035396
21290.0 0.00035505
21310.0 0.00035571
21330.0 0.00035592
21350.0 0.00035571
21370.0 0.000355
21390.0 0.00035379
21410.0 0.00035208
21430.0 0.0003497
21450.0 0.00034681
21470.0 0.00034345
21490.0 0.00033947
21510.0 0.00033491
21530.0 0.00033005
21550.0 0.00032477
21570.0 0.00031892
21590.0 0.00031292
21610.0 0.00030689
21630.0 0.0003006
21650.0 0.00029416
21670.0 0.00028826
21690.0 0.0002825
21710.0 0.00027692
21730.0 0.0002719
21750.0 0.00026751
21770.0 0.00026348
21790.0 0.00026016
21810.0 0.00025763
21830.0 0.00025578
21850.0 0.00025465
21870.0 0.00025429
21890.0 0.00025464
21910.0 0.00025571
21930.0 0.00025747
21950.0 0.00025978
21970.0 0.0002627
21990.0 0.00026636
22010.0 0.00027033
22030.0 0.00027465
22050.0 0.00027949
22070.0 0.00028466
22090.0 0.0002898
22110.0 0.00029526
22130.0 0.00030097
22150.0 0.00030654
22170.0 0.000312
22190.0 0.00031762
22210.0 0.00032305
22230.0 0.00032796
22250.0 0.00033271
22270.0 0.00033719
22290.0 0.0003411
22310.0 0.0003445
22330.0 0.00034755
22350.0 0.00034995
22370.0 0.00035167
22390.0 0.0003528
22410.0 0.00035325
22430.0 0.00035299
22450.0 0.00035206
22470.0 0.00035038
22490.0 0.000348
22510.0 0.00034503
22530.0 0.00034126
22550.0 0.00033671
22570.0 0.00033169
22590.0 0.00032608
22610.0 0.00031966
22630.0 0.00031276
22650.0 0.00030566
22670.0 0.00029783
22690.0 0.00028948
22710.0 0.00028107
22730.0 0.00027241
22750.0 0.000263
22770.0 0.0002538
22790.0 0.00024479
22810.0 0.00023554
22830.0 0.0002263
22850.0 0.00021764
22870.0 0.00020917
22890.0 0.00020075
22910.0 0.00019304
22930.0 0.00018602
22950.0 0.00017941
22970.0 0.0001734
22990.0 0.00016854
23010.0 0.00016437
23030.0 0.00016097
23050.0 0.00015857
23070.0 0.00015711
23090.0 0.00015652
23110.0 0.0001569
23130.0 0.00015817
23150.0 0.00016029
23170.0 0.00016333
23190.0 0.00016703
23210.0 0.00017127
23230.0 0.00017626
23250.0 0.00018172
23270.0 0.00018736
23290.0 0.00019334
23310.0 0.00019976
23330.0 0.00020589
23350.0 0.00021186
23370.0 0.00021784
23390.0 0.00022349
23410.0 0.00022852
23430.0 0.00023323
23450.0 0.00023747
