#lamb flux
1010.0 1.4215e-05
1030.0 1.5668e-05
1050.0 1.7705e-05
1070.0 2.0847e-05
1090.0 2.4776e-05
1110.0 2.8921e-05
1130.0 3.3199e-05
1150.0 3.7749e-05
1170.0 4.2441e-05
1190.0 4.6793e-05
1210.0 5.0985e-05
1230.0 5.4965e-05
1250.0 5.8817e-05
1270.0 6.1974e-05
1290.0 6.4623e-05
1310.0 6.6484e-05
1330.0 6.7391e-05
1350.0 6.755e-05
1370.0 6.7065e-05
1390.0 6.5839e-05
1410.0 6.3986e-05
1430.0 6.1808e-05
1450.0 5.9294e-05
1470.0 5.6495e-05
1490.0 5.3611e-05
1510.0 5.0786e-05
1530.0 4.7912e-05
1550.0 4.5125e-05
1570.0 4.2521e-05
1590.0 4.0084e-05
1610.0 3.7958e-05
1630.0 3.6797e-05
1650.0 3.5977e-05
1670.0 3.5484e-05
1690.0 3.5363e-05
1710.0 3.568e-05
1730.0 3.6422e-05
1750.0 3.7549e-05
1770.0 3.9174e-05
1790.0 4.132e-05
1810.0 4.3965e-05
1830.0 4.7153e-05
1850.0 5.1003e-05
1870.0 5.5453e-05
1890.0 6.0513e-05
1910.0 6.6269e-05
1930.0 7.2748e-05
1950.0 7.9844e-05
1970.0 8.7589e-05
1990.0 9.6047e-05
2010.0 0.00010509
2030.0 0.00011462
2050.0 0.0001247
2070.0 0.00013526
2090.0 0.000146
2110.0 0.00015696
2130.0 0.00016813
2150.0 0.00017928
2170.0 0.00019022
2190.0 0.00020111
2210.0 0.00021178
2230.0 0.00022202
2250.0 0.00023187
2270.0 0.00024149
2290.0 0.00025059
2310.0 0.00025913
2330.0 0.00026739
2350.0 0.00027537
2370.0 0.00028294
2390.0 0.00029046
2410.0 0.00029832
2430.0 0.00030649
2450.0 0.00031528
2470.0 0.00032542
2490.0 0.00033729
2510.0 0.00035042
2530.0 0.00036586
2550.0 0.00038474
2570.0 0.00040736
2590.0 0.00043485
2610.0 0.00047176
2630.0 0.00051869
2650.0 0.00057413
2670.0 0.00063983
2690.0 0.00071497
2710.0 0.00079181
2730.0 0.00086689
2750.0 0.00094244
2770.0 0.0010141
2790.0 0.0010814
2810.0 0.0011494
2830.0 0.0012229
2850.0 0.0012977
2870.0 0.0013773
2890.0 0.0014648
2910.0 0.0015575
2930.0 0.0016518
2950.0 0.0017529
2970.0 0.0018598
2990.0 0.0019679
3010.0 0.0020791
3030.0 0.002197
3050.0 0.0023181
3070.0 0.0024366
3090.0 0.0025572
3110.0 0.0026752
3130.0 0.0027825
3150.0 0.0028763
3170.0 0.0029532
3190.0 0.0030079
3210.0 0.0030444
3230.0 0.0030657
3250.0 0.0030742
3270.0 0.003079
3290.0 0.0030846
3310.0 0.0030925
3330.0 0.0031052
3350.0 0.0031217
3370.0 0.0031401
3390.0 0.0031282
3410.0 0.0031235
3430.0 0.0031507
3450.0 0.0031705
3470.0 0.0031586
3490.0 0.0033285
3510.0 0.0039774
3530.0 0.0049201
3550.0 0.005556
3570.0 0.0061318
3590.0 0.006902
3610.0 0.006897
3630.0 0.0063461
3650.0 0.0065279
3670.0 0.0075795
3690.0 0.0085405
3710.0 0.008889
3730.0 0.0089389
3750.0 0.0094366
3770.0 0.0094722
3790.0 0.0090593
3810.0 0.0085659
3830.0 0.008113
3850.0 0.0081313
3870.0 0.0084846
3890.0 0.0087303
3910.0 0.0088031
3930.0 0.0088026
3950.0 0.0094318
3970.0 0.010155
3990.0 0.0099196
4010.0 0.0088804
4030.0 0.0080325
4050.0 0.0080271
4070.0 0.0083811
4090.0 0.0082951
4110.0 0.0080033
4130.0 0.0079742
4150.0 0.0083588
4170.0 0.0091683
4190.0 0.0095028
4210.0 0.0088803
4230.0 0.0081198
4250.0 0.0076107
4270.0 0.0072972
4290.0 0.0072978
4310.0 0.0074513
4330.0 0.0071288
4350.0 0.0063935
4370.0 0.0057707
4390.0 0.0053431
4410.0 0.0051355
4430.0 0.0053144
4450.0 0.0058381
4470.0 0.0064034
4490.0 0.0068106
4510.0 0.0074414
4530.0 0.0085495
4550.0 0.0096895
4570.0 0.010409
4590.0 0.011034
4610.0 0.011522
4630.0 0.011526
4650.0 0.010742
4670.0 0.0095216
4690.0 0.008546
4710.0 0.0081916
4730.0 0.0078023
4750.0 0.0068715
4770.0 0.0061607
4790.0 0.0063146
4810.0 0.0067886
4830.0 0.0066274
4850.0 0.0059143
4870.0 0.0059703
4890.0 0.0060919
4910.0 0.0061479
4930.0 0.0060316
4950.0 0.0059036
4970.0 0.0056254
4990.0 0.0052089
5010.0 0.0049519
5030.0 0.0049292
5050.0 0.0049626
5070.0 0.0050039
5090.0 0.0050316
5110.0 0.0050497
5130.0 0.00516
5150.0 0.0053911
5170.0 0.005816
5190.0 0.0063755
5210.0 0.0067968
5230.0 0.0070456
5250.0 0.0071918
5270.0 0.0073534
5290.0 0.0074439
5310.0 0.007347
5330.0 0.0070958
5350.0 0.006863
5370.0 0.0068606
5390.0 0.006967
5410.0 0.007016
5430.0 0.006918
5450.0 0.0068093
5470.0 0.0066961
5490.0 0.0065967
5510.0 0.0065607
5530.0 0.0065747
5550.0 0.0066097
5570.0 0.0066099
5590.0 0.0064695
5610.0 0.0062113
5630.0 0.0059423
5650.0 0.0056565
5670.0 0.0054359
5690.0 0.0052436
5710.0 0.0051571
5730.0 0.005146
5750.0 0.0050617
5770.0 0.0049747
5790.0 0.0050304
5810.0 0.0051716
5830.0 0.0052816
5850.0 0.0053136
5870.0 0.0051865
5890.0 0.0049959
5910.0 0.0048527
5930.0 0.004661
5950.0 0.0044829
5970.0 0.0045014
5990.0 0.0045897
6010.0 0.0045715
6030.0 0.0044372
6050.0 0.0044124
6070.0 0.0045364
6090.0 0.0046659
6110.0 0.0046329
6130.0 0.0043805
6150.0 0.0040621
6170.0 0.0038884
6190.0 0.0038273
6210.0 0.0037812
6230.0 0.0037224
6250.0 0.0037313
6270.0 0.0038402
6290.0 0.0039832
6310.0 0.0041433
6330.0 0.0043078
6350.0 0.0043917
6370.0 0.0043855
6390.0 0.0043491
6410.0 0.0043662
6430.0 0.0044065
6450.0 0.0043983
6470.0 0.0043868
6490.0 0.00439
6510.0 0.0043838
6530.0 0.0043399
6550.0 0.0042525
6570.0 0.0041261
6590.0 0.0039958
6610.0 0.0038944
6630.0 0.0038143
6650.0 0.0036964
6670.0 0.0035702
6690.0 0.0034714
6710.0 0.0034137
6730.0 0.0033698
6750.0 0.0033388
6770.0 0.0033042
6790.0 0.0032436
6810.0 0.0031714
6830.0 0.0031354
6850.0 0.003119
6870.0 0.003105
6890.0 0.0031028
6910.0 0.0030738
6930.0 0.0030371
6950.0 0.0030232
6970.0 0.0029958
6990.0 0.0029496
7010.0 0.0029012
7030.0 0.0028488
7050.0 0.0027942
7070.0 0.0027262
7090.0 0.0026716
7110.0 0.0027155
7130.0 0.0027844
7150.0 0.0028234
7170.0 0.0028468
7190.0 0.0028463
7210.0 0.0028091
7230.0 0.0027556
7250.0 0.0027333
7270.0 0.002682
7290.0 0.0026418
7310.0 0.0026217
7330.0 0.0026358
7350.0 0.0026314
7370.0 0.0026121
7390.0 0.0025901
7410.0 0.0025603
7430.0 0.0025242
7450.0 0.0024841
7470.0 0.0024422
7490.0 0.0023778
7510.0 0.0022898
7530.0 0.0022092
7550.0 0.0021575
7570.0 0.002173
7590.0 0.0021652
7610.0 0.0021401
7630.0 0.0021147
7650.0 0.0021362
7670.0 0.0021881
7690.0 0.002266
7710.0 0.0023123
7730.0 0.0023992
7750.0 0.0024583
7770.0 0.0025129
7790.0 0.0025355
7810.0 0.0025008
7830.0 0.002493
7850.0 0.0024585
7870.0 0.0023996
7890.0 0.0023193
7910.0 0.002255
7930.0 0.0022177
7950.0 0.0021948
7970.0 0.002197
7990.0 0.0022035
8010.0 0.0021845
8030.0 0.0021634
8050.0 0.0021234
8070.0 0.0020876
8090.0 0.0020458
8110.0 0.002056
8130.0 0.0020738
8150.0 0.0020815
8170.0 0.0020621
8190.0 0.0020435
8210.0 0.0019756
8230.0 0.0018521
8250.0 0.0017785
8270.0 0.0017368
8290.0 0.0017163
8310.0 0.0017169
8330.0 0.0017561
8350.0 0.0017287
8370.0 0.0016967
8390.0 0.0017205
8410.0 0.0017625
8430.0 0.0018413
8450.0 0.0019118
8470.0 0.0019265
8490.0 0.0019412
8510.0 0.0019251
8530.0 0.0019038
8550.0 0.0019172
8570.0 0.0019186
8590.0 0.0019038
8610.0 0.0019549
8630.0 0.0019637
8650.0 0.0019207
8670.0 0.0019153
8690.0 0.0019207
8710.0 0.0018846
8730.0 0.0018727
8750.0 0.0018139
8770.0 0.0017907
8790.0 0.0017673
8810.0 0.0017505
8830.0 0.0016869
8850.0 0.0015719
8870.0 0.0014796
8890.0 0.0014326
8910.0 0.0013443
8930.0 0.0012503
8950.0 0.0012244
8970.0 0.0012117
8990.0 0.001211
9010.0 0.0012014
9030.0 0.0011928
9050.0 0.0011848
9070.0 0.0011769
9090.0 0.001169
9110.0 0.001161
9130.0 0.0011531
9150.0 0.0011452
9170.0 0.0011373
9190.0 0.0011294
9210.0 0.0011215
9230.0 0.0011136
9250.0 0.0011058
9270.0 0.0010979
9290.0 0.0010901
9310.0 0.0010823
9330.0 0.0010745
9350.0 0.0010668
9370.0 0.001059
9390.0 0.0010513
9410.0 0.0010437
9430.0 0.001036
9450.0 0.0010283
9470.0 0.0010209
9490.0 0.0010135
9510.0 0.0010059
9530.0 0.00099834
9550.0 0.00099085
9570.0 0.00098343
9590.0 0.00097605
9610.0 0.00096872
9630.0 0.00096144
9650.0 0.00095419
9670.0 0.00094699
9690.0 0.00093984
9710.0 0.00093273
9730.0 0.00092566
9750.0 0.00091863
9770.0 0.00091167
9790.0 0.00090474
9810.0 0.00089785
9830.0 0.00089083
9850.0 0.00088273
9870.0 0.00087619
9890.0 0.00087001
9910.0 0.0008637
9930.0 0.00085685
9950.0 0.00085046
9970.0 0.00084417
9990.0 0.00083774
10010.0 0.00083071
10030.0 0.00082413
10050.0 0.00081822
10070.0 0.00081228
10090.0 0.00080635
10110.0 0.00080012
10130.0 0.00079347
10150.0 0.00078757
10170.0 0.00078176
10190.0 0.00077577
10210.0 0.00076996
10230.0 0.00076422
10250.0 0.00075832
10270.0 0.00075249
10290.0 0.00074685
10310.0 0.00074109
10330.0 0.00073524
10350.0 0.00072964
10370.0 0.0007241
10390.0 0.00071844
10410.0 0.00071284
10430.0 0.00070749
10450.0 0.00070202
10470.0 0.0006965
10490.0 0.00069117
10510.0 0.0006859
10530.0 0.00068041
10550.0 0.00067508
10570.0 0.00066995
10590.0 0.00066471
10610.0 0.00065942
10630.0 0.00065436
10650.0 0.0006493
10670.0 0.00064407
10690.0 0.00063899
10710.0 0.00063404
10730.0 0.00062898
10750.0 0.00062382
10770.0 0.00061897
10790.0 0.00061408
10810.0 0.00060908
10830.0 0.0006042
10850.0 0.00059949
10870.0 0.00059455
10890.0 0.00058967
10910.0 0.00058502
10930.0 0.00058042
10950.0 0.00057579
10970.0 0.00057141
10990.0 0.00056733
11010.0 0.0005463
11030.0 0.00054269
11050.0 0.00053937
11070.0 0.00053615
11090.0 0.00053286
11110.0 0.00052975
11130.0 0.00052666
11150.0 0.00052344
11170.0 0.00052016
11190.0 0.00051696
11210.0 0.00051365
11230.0 0.00051023
11250.0 0.00050689
11270.0 0.00050363
11290.0 0.00050028
11310.0 0.00049701
11330.0 0.000494
11350.0 0.00049103
11370.0 0.00048812
11390.0 0.00048542
11410.0 0.00048287
11430.0 0.00048029
11450.0 0.00047786
11470.0 0.00047556
11490.0 0.00047326
11510.0 0.00047091
11530.0 0.00046865
11550.0 0.00046639
11570.0 0.00046398
11590.0 0.00046154
11610.0 0.00045911
11630.0 0.00045652
11650.0 0.00045377
11670.0 0.00045111
11690.0 0.0004484
11710.0 0.00044556
11730.0 0.00044275
11750.0 0.00044008
11770.0 0.00043732
11790.0 0.00043457
11810.0 0.00043199
11830.0 0.00042948
11850.0 0.00042691
11870.0 0.00042452
11890.0 0.00042232
11910.0 0.00042014
11930.0 0.00041806
11950.0 0.0004162
11970.0 0.00041446
11990.0 0.00041278
12010.0 0.00041135
12030.0 0.00041014
12050.0 0.00040909
12070.0 0.00040825
12090.0 0.00040773
12110.0 0.00040744
12130.0 0.00040739
12150.0 0.00040761
12170.0 0.00040809
12190.0 0.00040882
12210.0 0.00040979
12230.0 0.00041098
12250.0 0.00041236
12270.0 0.00041394
12290.0 0.00041565
12310.0 0.00041743
12330.0 0.00041933
12350.0 0.00042128
12370.0 0.00042318
12390.0 0.00042506
12410.0 0.00042691
12430.0 0.00042857
12450.0 0.00043007
12470.0 0.00043139
12490.0 0.00043245
12510.0 0.00043324
12530.0 0.00043373
12550.0 0.00043386
12570.0 0.00043366
12590.0 0.00043312
12610.0 0.00043213
12630.0 0.00043075
12650.0 0.00042913
12670.0 0.00042711
12690.0 0.00042469
12710.0 0.0004221
12730.0 0.00041929
12750.0 0.00041606
12770.0 0.00041274
12790.0 0.0004094
12810.0 0.00040588
12830.0 0.0004022
12850.0 0.00039869
12870.0 0.00039522
12890.0 0.00039164
12910.0 0.00038817
12930.0 0.00038491
12950.0 0.00038157
12970.0 0.00037826
12990.0 0.00037522
13010.0 0.00037228
13030.0 0.00036932
13050.0 0.00036652
13070.0 0.00036396
13090.0 0.00036138
13110.0 0.0003589
13130.0 0.00035666
13150.0 0.00035455
13170.0 0.00035245
13190.0 0.00035059
13210.0 0.00034895
13230.0 0.00034736
13250.0 0.00034588
13270.0 0.00034458
13290.0 0.00034334
13310.0 0.00034209
13330.0 0.00034093
13350.0 0.00033982
13370.0 0.00033865
13390.0 0.00033741
13410.0 0.00033623
13430.0 0.00033496
13450.0 0.00033356
13470.0 0.00033213
13490.0 0.00033067
13510.0 0.000329
13530.0 0.00032726
13550.0 0.00032553
13570.0 0.00032369
13590.0 0.00032171
13610.0 0.00031973
13630.0 0.00031776
13650.0 0.00031564
13670.0 0.00031348
13690.0 0.00031137
13710.0 0.00030918
13730.0 0.00030684
13750.0 0.00030462
13770.0 0.00030239
13790.0 0.00030006
13810.0 0.0002977
13830.0 0.00029543
13850.0 0.00029304
13870.0 0.00029056
13890.0 0.00028813
13910.0 0.00028568
13930.0 0.00028306
13950.0 0.00028041
13970.0 0.00027786
13990.0 0.00027517
14010.0 0.00027239
14030.0 0.00026968
14050.0 0.00026696
14070.0 0.00026408
14090.0 0.00026128
14110.0 0.00025859
14130.0 0.00025587
14150.0 0.00025315
14170.0 0.00025064
14190.0 0.00024821
14210.0 0.00024578
14230.0 0.00024348
14250.0 0.00024134
14270.0 0.00023918
14290.0 0.00023705
14310.0 0.00023508
14330.0 0.00023313
14350.0 0.00023114
14370.0 0.0002292
14390.0 0.00022732
14410.0 0.00022538
14430.0 0.00022343
14450.0 0.00022156
14470.0 0.00021971
14490.0 0.00021782
14510.0 0.00021604
14530.0 0.00021437
14550.0 0.0002127
14570.0 0.0002111
14590.0 0.00020962
14610.0 0.00020818
14630.0 0.00020675
14650.0 0.00020542
14670.0 0.00020416
14690.0 0.0002029
14710.0 0.00020167
14730.0 0.00020055
14750.0 0.00019944
14770.0 0.00019835
14790.0 0.00019735
14810.0 0.00019641
14830.0 0.0001955
14850.0 0.00019467
14870.0 0.00019395
14890.0 0.0001933
14910.0 0.00019272
14930.0 0.00019222
14950.0 0.00019177
14970.0 0.00019135
14990.0 0.00019095
15010.0 0.00019055
15030.0 0.00019012
15050.0 0.00018966
15070.0 0.00018918
15090.0 0.00018868
15110.0 0.00018815
15130.0 0.00018761
15150.0 0.00018707
15170.0 0.00018651
15190.0 0.00018594
15210.0 0.00018538
15230.0 0.00018481
15250.0 0.00018423
15270.0 0.00018364
15290.0 0.00018307
15310.0 0.00018248
15330.0 0.00018189
15350.0 0.0001813
15370.0 0.00018071
15390.0 0.00018011
15410.0 0.0001795
15430.0 0.00017891
15450.0 0.0001783
15470.0 0.00017769
15490.0 0.00017708
15510.0 0.00017648
15530.0 0.00017586
15550.0 0.00017524
15570.0 0.00017463
15590.0 0.00017401
15610.0 0.00017338
15630.0 0.00017276
15650.0 0.00017214
15670.0 0.00017151
15690.0 0.00017089
15710.0 0.00017027
15730.0 0.00016964
15750.0 0.00016901
15770.0 0.00016839
15790.0 0.00016777
15810.0 0.00016713
15830.0 0.0001665
15850.0 0.00016588
15870.0 0.00016525
15890.0 0.00016462
15910.0 0.000164
15930.0 0.00016337
15950.0 0.00016274
15970.0 0.00016211
15990.0 0.00016149
16010.0 0.00016087
16030.0 0.00016023
16050.0 0.00015962
16070.0 0.000159
16090.0 0.00015838
16110.0 0.00015776
16130.0 0.00015715
16150.0 0.00015652
16170.0 0.0001559
16190.0 0.0001553
16210.0 0.00015469
16230.0 0.00015407
16250.0 0.00015346
16270.0 0.00015286
16290.0 0.00015225
16310.0 0.00015165
16330.0 0.00015105
16350.0 0.00015046
16370.0 0.00014985
16390.0 0.00014926
16410.0 0.00014867
16430.0 0.00014808
16450.0 0.00014749
16470.0 0.00014691
16490.0 0.00014633
16510.0 0.00014574
16530.0 0.00014517
16550.0 0.0001446
16570.0 0.00014402
16590.0 0.00014344
16610.0 0.00014289
16630.0 0.00014232
16650.0 0.00014175
16670.0 0.0001412
16690.0 0.00014065
16710.0 0.00014009
16730.0 0.00013954
16750.0 0.00013899
16770.0 0.00013845
16790.0 0.0001379
16810.0 0.00013737
16830.0 0.00013684
16850.0 0.0001363
16870.0 0.00013577
16890.0 0.00013525
16910.0 0.00013472
16930.0 0.00013419
16950.0 0.00013368
16970.0 0.00013317
16990.0 0.00013265
17010.0 0.00013215
17030.0 0.00013165
17050.0 0.00013114
17070.0 0.00013064
17090.0 0.00013015
17110.0 0.00012965
17130.0 0.00012916
17150.0 0.00012867
17170.0 0.00012819
17190.0 0.00012771
17210.0 0.00012723
17230.0 0.00012676
17250.0 0.00012628
17270.0 0.00012581
17290.0 0.00012534
17310.0 0.00012488
17330.0 0.00012442
17350.0 0.00012395
17370.0 0.00012351
17390.0 0.00012306
17410.0 0.0001226
17430.0 0.00012216
17450.0 0.00012172
17470.0 0.00012127
17490.0 0.00012083
17510.0 0.0001204
17530.0 0.00011996
17550.0 0.00011953
17570.0 0.0001191
17590.0 0.00011868
17610.0 0.00011825
17630.0 0.00011783
17650.0 0.00011742
17670.0 0.000117
17690.0 0.00011658
17710.0 0.00011618
17730.0 0.00011577
17750.0 0.00011536
17770.0 0.00011496
17790.0 0.00011456
17810.0 0.00011416
17830.0 0.00011376
17850.0 0.00011337
17870.0 0.00011298
17890.0 0.00011258
17910.0 0.00011219
17930.0 0.00011182
17950.0 0.00011143
17970.0 0.00011105
17990.0 0.00011067
18010.0 0.0001103
18030.0 0.00010991
18050.0 0.00010954
18070.0 0.00010917
18090.0 0.0001088
18110.0 0.00010843
18130.0 0.00010807
18150.0 0.00010771
18170.0 0.00010734
18190.0 0.00010698
18210.0 0.00010663
18230.0 0.00010627
18250.0 0.00010591
18270.0 0.00010556
18290.0 0.00010521
18310.0 0.00010485
18330.0 0.0001045
18350.0 0.00010416
18370.0 0.00010381
18390.0 0.00010347
18410.0 0.00010313
18430.0 0.00010279
18450.0 0.00010244
18470.0 0.00010211
18490.0 0.00010177
18510.0 0.00010144
18530.0 0.0001011
18550.0 0.00010078
18570.0 0.00010044
18590.0 0.00010011
18610.0 9.9783e-05
18630.0 9.9459e-05
18650.0 9.913e-05
18670.0 9.8802e-05
18690.0 9.8486e-05
18710.0 9.8165e-05
18730.0 9.7841e-05
18750.0 9.7524e-05
18770.0 9.7212e-05
18790.0 9.6887e-05
18810.0 9.657e-05
18830.0 9.6261e-05
18850.0 9.5948e-05
18870.0 9.5632e-05
18890.0 9.5325e-05
18910.0 9.502e-05
18930.0 9.4707e-05
18950.0 9.4399e-05
18970.0 9.4098e-05
18990.0 9.3793e-05
19010.0 9.3481e-05
19030.0 9.3184e-05
19050.0 9.2886e-05
19070.0 9.2582e-05
19090.0 9.2283e-05
19110.0 9.1992e-05
19130.0 9.1693e-05
19150.0 9.1393e-05
19170.0 9.1102e-05
19190.0 9.0811e-05
19210.0 9.0514e-05
19230.0 9.0222e-05
19250.0 8.9939e-05
19270.0 8.9649e-05
19290.0 8.9359e-05
19310.0 8.9077e-05
19330.0 8.8795e-05
19350.0 8.8504e-05
19370.0 8.8222e-05
19390.0 8.7945e-05
19410.0 8.7663e-05
19430.0 8.738e-05
19450.0 8.7107e-05
19470.0 8.6833e-05
19490.0 8.6554e-05
19510.0 8.6281e-05
19530.0 8.6013e-05
19550.0 8.5737e-05
19570.0 8.5462e-05
19590.0 8.5198e-05
19610.0 8.4932e-05
19630.0 8.4661e-05
19650.0 8.4398e-05
19670.0 8.414e-05
19690.0 8.3873e-05
19710.0 8.361e-05
19730.0 8.3354e-05
19750.0 8.3097e-05
19770.0 8.2833e-05
19790.0 8.2579e-05
19810.0 8.233e-05
19830.0 8.2073e-05
19850.0 8.1818e-05
19870.0 8.1569e-05
19890.0 8.1307e-05
19910.0 8.1029e-05
19930.0 8.074e-05
19950.0 8.0423e-05
19970.0 8.0052e-05
19990.0 7.9625e-05
20010.0 7.9155e-05
20030.0 7.8605e-05
20050.0 7.7979e-05
20070.0 7.7315e-05
20090.0 7.6613e-05
20110.0 7.5836e-05
20130.0 7.5061e-05
20150.0 7.4302e-05
20170.0 7.3526e-05
20190.0 7.2745e-05
20210.0 7.2011e-05
20230.0 7.1296e-05
20250.0 7.0576e-05
20270.0 6.9899e-05
20290.0 6.9268e-05
20310.0 6.8651e-05
20330.0 6.8048e-05
20350.0 6.7518e-05
20370.0 6.7012e-05
20390.0 6.6524e-05
20410.0 6.6078e-05
20430.0 6.5677e-05
20450.0 6.5284e-05
20470.0 6.4924e-05
20490.0 6.4606e-05
20510.0 6.4313e-05
20530.0 6.4038e-05
20550.0 6.3797e-05
20570.0 6.3591e-05
20590.0 6.3401e-05
20610.0 6.3234e-05
20630.0 6.3096e-05
20650.0 6.2977e-05
20670.0 6.2871e-05
20690.0 6.2787e-05
20710.0 6.2717e-05
20730.0 6.2654e-05
20750.0 6.2598e-05
20770.0 6.2547e-05
20790.0 6.2494e-05
20810.0 6.2431e-05
20830.0 6.2361e-05
20850.0 6.228e-05
20870.0 6.2174e-05
20890.0 6.2046e-05
20910.0 6.1903e-05
20930.0 6.1732e-05
20950.0 6.1529e-05
20970.0 6.1306e-05
20990.0 6.1064e-05
21010.0 6.0782e-05
21030.0 6.048e-05
21050.0 6.0171e-05
21070.0 5.9836e-05
21090.0 5.9473e-05
21110.0 5.9118e-05
21130.0 5.876e-05
21150.0 5.838e-05
21170.0 5.8001e-05
21190.0 5.7638e-05
21210.0 5.726e-05
21230.0 5.6876e-05
21250.0 5.6517e-05
21270.0 5.6166e-05
21290.0 5.5809e-05
21310.0 5.5465e-05
21330.0 5.5151e-05
21350.0 5.4832e-05
21370.0 5.4518e-05
21390.0 5.4229e-05
21410.0 5.3951e-05
21430.0 5.3662e-05
21450.0 5.3395e-05
21470.0 5.3147e-05
21490.0 5.2897e-05
21510.0 5.2648e-05
21530.0 5.242e-05
21550.0 5.2194e-05
21570.0 5.1959e-05
21590.0 5.1735e-05
21610.0 5.1521e-05
21630.0 5.1299e-05
21650.0 5.1067e-05
21670.0 5.0859e-05
21690.0 5.0645e-05
21710.0 5.0421e-05
21730.0 5.0202e-05
21750.0 4.9993e-05
21770.0 4.9762e-05
21790.0 4.9531e-05
21810.0 4.9311e-05
21830.0 4.9085e-05
21850.0 4.8844e-05
21870.0 4.861e-05
21890.0 4.8385e-05
21910.0 4.8142e-05
21930.0 4.7897e-05
21950.0 4.7664e-05
21970.0 4.7423e-05
21990.0 4.7161e-05
22010.0 4.6918e-05
22030.0 4.6678e-05
22050.0 4.6426e-05
22070.0 4.6174e-05
22090.0 4.5942e-05
22110.0 4.5702e-05
22130.0 4.5456e-05
22150.0 4.5226e-05
22170.0 4.5007e-05
22190.0 4.4778e-05
22210.0 4.456e-05
22230.0 4.4368e-05
22250.0 4.4178e-05
22270.0 4.3991e-05
22290.0 4.3827e-05
22310.0 4.3678e-05
22330.0 4.3525e-05
22350.0 4.3389e-05
22370.0 4.3274e-05
22390.0 4.3164e-05
22410.0 4.3056e-05
22430.0 4.2972e-05
22450.0 4.2898e-05
22470.0 4.2825e-05
22490.0 4.2763e-05
22510.0 4.2716e-05
22530.0 4.2668e-05
22550.0 4.2625e-05
22570.0 4.2597e-05
22590.0 4.2577e-05
22610.0 4.2558e-05
22630.0 4.2548e-05
22650.0 4.2554e-05
22670.0 4.2561e-05
22690.0 4.2575e-05
22710.0 4.2603e-05
22730.0 4.2639e-05
22750.0 4.2676e-05
22770.0 4.2729e-05
22790.0 4.2796e-05
22810.0 4.2869e-05
22830.0 4.2953e-05
22850.0 4.3053e-05
22870.0 4.3164e-05
22890.0 4.3286e-05
22910.0 4.3426e-05
22930.0 4.3582e-05
22950.0 4.3753e-05
22970.0 4.3944e-05
