#lamb flux
1010.0 2.3034e-06
1030.0 2.5212e-06
1050.0 2.7467e-06
1070.0 3.0007e-06
1090.0 3.2964e-06
1110.0 3.5983e-06
1130.0 3.9014e-06
1150.0 4.2186e-06
1170.0 4.5464e-06
1190.0 4.859e-06
1210.0 5.1786e-06
1230.0 5.5128e-06
1250.0 5.8437e-06
1270.0 6.1712e-06
1290.0 6.523e-06
1310.0 6.8816e-06
1330.0 7.2334e-06
1350.0 7.5949e-06
1370.0 7.9725e-06
1390.0 8.346e-06
1410.0 8.7122e-06
1430.0 9.0946e-06
1450.0 9.4767e-06
1470.0 9.8454e-06
1490.0 1.0214e-05
1510.0 1.0597e-05
1530.0 1.0956e-05
1550.0 1.1302e-05
1570.0 1.1652e-05
1590.0 1.1993e-05
1610.0 1.2307e-05
1630.0 1.2619e-05
1650.0 1.2928e-05
1670.0 1.3214e-05
1690.0 1.3484e-05
1710.0 1.3756e-05
1730.0 1.4019e-05
1750.0 1.4252e-05
1770.0 1.4485e-05
1790.0 1.4718e-05
1810.0 1.4936e-05
1830.0 1.5144e-05
1850.0 1.5372e-05
1870.0 1.5592e-05
1890.0 1.5805e-05
1910.0 1.6032e-05
1930.0 1.6275e-05
1950.0 1.6514e-05
1970.0 1.6763e-05
1990.0 1.7036e-05
2010.0 1.7319e-05
2030.0 1.7605e-05
2050.0 1.7914e-05
2070.0 1.8243e-05
2090.0 1.8565e-05
2110.0 1.8896e-05
2130.0 1.9241e-05
2150.0 1.9585e-05
2170.0 1.9916e-05
2190.0 2.0256e-05
2210.0 2.0593e-05
2230.0 2.091e-05
2250.0 2.1215e-05
2270.0 2.1521e-05
2290.0 2.1803e-05
2310.0 2.2057e-05
2330.0 2.2303e-05
2350.0 2.2534e-05
2370.0 2.2734e-05
2390.0 2.292e-05
2410.0 2.3101e-05
2430.0 2.3254e-05
2450.0 2.3384e-05
2470.0 2.3506e-05
2490.0 2.362e-05
2510.0 2.3722e-05
2530.0 2.3873e-05
2550.0 2.4164e-05
2570.0 2.4697e-05
2590.0 2.56e-05
2610.0 2.7185e-05
2630.0 2.9555e-05
2650.0 3.2595e-05
2670.0 3.6353e-05
2690.0 4.0683e-05
2710.0 4.4923e-05
2730.0 4.8676e-05
2750.0 5.1823e-05
2770.0 5.3815e-05
2790.0 5.4492e-05
2810.0 5.3945e-05
2830.0 5.2148e-05
2850.0 4.9463e-05
2870.0 4.6134e-05
2890.0 4.2217e-05
2910.0 3.7985e-05
2930.0 3.373e-05
2950.0 2.9221e-05
2970.0 2.4539e-05
2990.0 1.9936e-05
3010.0 2.4228e-05
3030.0 1.6615e-05
3050.0 8.962e-06
3070.0 2.6796e-06
3090.0 2.6796e-06
3110.0 2.6796e-06
3130.0 2.6796e-06
3150.0 2.6796e-06
3170.0 2.6796e-06
3190.0 2.6796e-06
3210.0 8.4599e-05
3230.0 0.00023531
3250.0 0.00032013
3270.0 0.00028092
3290.0 0.00021293
3310.0 0.00016868
3330.0 0.00015735
3350.0 0.00016504
3370.0 0.00017855
3390.0 0.00019267
3410.0 0.00020747
3430.0 0.00022554
3450.0 0.00024283
3470.0 0.00026078
3490.0 0.00026412
3510.0 0.00023036
3530.0 0.00021568
3550.0 0.00027582
3570.0 0.00035123
3590.0 0.00039091
3610.0 0.00040469
3630.0 0.00042901
3650.0 0.0004294
3670.0 0.00044743
3690.0 0.00052621
3710.0 0.00061164
3730.0 0.00066777
3750.0 0.00070242
3770.0 0.00071359
3790.0 0.00069203
3810.0 0.00064159
3830.0 0.00056164
3850.0 0.0004419
3870.0 0.00039289
3890.0 0.00044258
3910.0 0.00058628
3930.0 0.00073285
3950.0 0.00080119
3970.0 0.00082929
3990.0 0.00089432
4010.0 0.00092471
4030.0 0.00083605
4050.0 0.00063029
4070.0 0.00053325
4090.0 0.00059719
4110.0 0.00066292
4130.0 0.00070804
4150.0 0.00070846
4170.0 0.0006812
4190.0 0.00065067
4210.0 0.00069279
4230.0 0.00074405
4250.0 0.00078855
4270.0 0.00079067
4290.0 0.00076579
4310.0 0.00076952
4330.0 0.00084591
4350.0 0.0009312
4370.0 0.00094334
4390.0 0.00087968
4410.0 0.000782
4430.0 0.0006338
4450.0 0.00052357
4470.0 0.00052119
4490.0 0.00057841
4510.0 0.00063034
4530.0 0.0006627
4550.0 0.00071482
4570.0 0.00092936
4590.0 0.0012771
4610.0 0.0015176
4630.0 0.001612
4650.0 0.001753
4670.0 0.001952
4690.0 0.001987
4710.0 0.0017214
4730.0 0.0013507
4750.0 0.0010602
4770.0 0.00089179
4790.0 0.00081273
4810.0 0.00078966
4830.0 0.00085813
4850.0 0.0010116
4870.0 0.0011297
4890.0 0.0011589
4910.0 0.0011645
4930.0 0.0012868
4950.0 0.001483
4970.0 0.00161
4990.0 0.0015982
5010.0 0.0014396
5030.0 0.0011916
5050.0 0.00096625
5070.0 0.00082523
5090.0 0.00077193
5110.0 0.00077273
5130.0 0.00078288
5150.0 0.00077297
5170.0 0.00073573
5190.0 0.00071839
5210.0 0.00075136
5230.0 0.00085113
5250.0 0.0010176
5270.0 0.0011921
5290.0 0.0013067
5310.0 0.0013985
5330.0 0.001534
5350.0 0.001649
5370.0 0.0016368
5390.0 0.0015111
5410.0 0.0013981
5430.0 0.0014189
5450.0 0.0016151
5470.0 0.0018789
5490.0 0.0020738
5510.0 0.002141
5530.0 0.0021082
5550.0 0.0020255
5570.0 0.0019347
5590.0 0.0018479
5610.0 0.001789
5630.0 0.0017725
5650.0 0.0017527
5670.0 0.0016522
5690.0 0.0014758
5710.0 0.0013002
5730.0 0.0011852
5750.0 0.0011459
5770.0 0.0011705
5790.0 0.0011982
5810.0 0.001208
5830.0 0.0012029
5850.0 0.0011629
5870.0 0.001113
5890.0 0.0010984
5910.0 0.0011177
5930.0 0.0011112
5950.0 0.0010334
5970.0 0.00090018
5990.0 0.00074207
6010.0 0.00062431
6030.0 0.00059444
6050.0 0.00063833
6070.0 0.00067068
6090.0 0.00063504
6110.0 0.00058281
6130.0 0.00059918
6150.0 0.00067011
6170.0 0.00073546
6190.0 0.00077527
6210.0 0.00078941
6230.0 0.00077485
6250.0 0.00070465
6270.0 0.00059418
6290.0 0.00050176
6310.0 0.00046344
6330.0 0.00046867
6350.0 0.00048471
6370.0 0.00051084
6390.0 0.0005849
6410.0 0.00070479
6430.0 0.00081123
6450.0 0.00086497
6470.0 0.00088878
6490.0 0.00090226
6510.0 0.00091023
6530.0 0.00091809
6550.0 0.00092832
6570.0 0.0009517
6590.0 0.00097259
6610.0 0.00097003
6630.0 0.00092895
6650.0 0.00085906
6670.0 0.00079149
6690.0 0.00074602
6710.0 0.00071413
6730.0 0.00068443
6750.0 0.00067303
6770.0 0.00069088
6790.0 0.00071664
6810.0 0.00072842
6830.0 0.00071709
6850.0 0.00068257
6870.0 0.00064643
6890.0 0.00063049
6910.0 0.00063019
6930.0 0.00064558
6950.0 0.00066231
6970.0 0.00067517
6990.0 0.00067771
7010.0 0.0006556
7030.0 0.00060609
7050.0 0.00054346
7070.0 0.00050089
7090.0 0.00049208
7110.0 0.00049639
7130.0 0.00047337
7150.0 0.00042785
7170.0 0.00041769
7190.0 0.00046169
7210.0 0.00052909
7230.0 0.00058686
7250.0 0.00060818
7270.0 0.00059422
7290.0 0.00055813
7310.0 0.00052816
7330.0 0.00052312
7350.0 0.00053215
7370.0 0.00054132
7390.0 0.0005674
7410.0 0.00062323
7430.0 0.00069355
7450.0 0.00075218
7470.0 0.00077228
7490.0 0.00073682
7510.0 0.00068297
7530.0 0.00064434
7550.0 0.00060746
7570.0 0.00056709
7590.0 0.00054741
7610.0 0.00055236
7630.0 0.00058019
7650.0 0.00062883
7670.0 0.00068804
7690.0 0.00074043
7710.0 0.00078173
7730.0 0.00081818
7750.0 0.00084838
7770.0 0.00085744
7790.0 0.00087086
7810.0 0.00087605
7830.0 0.000854
7850.0 0.00082684
7870.0 0.00081308
7890.0 0.00082187
7910.0 0.00082406
7930.0 0.00080801
7950.0 0.00077931
7970.0 0.00075344
7990.0 0.00072859
8010.0 0.00070523
8030.0 0.00071007
8050.0 0.00071226
8070.0 0.00070482
8090.0 0.00070036
8110.0 0.00068795
8130.0 0.00069028
8150.0 0.00068643
8170.0 0.00067458
8190.0 0.00065829
8210.0 0.00064366
8230.0 0.00062775
8250.0 0.0006228
8270.0 0.00058331
8290.0 0.00049844
8310.0 0.00040219
8330.0 0.00033645
8350.0 0.00032208
8370.0 0.00036666
8390.0 0.00042781
8410.0 0.00045793
8430.0 0.00047284
8450.0 0.0005043
8470.0 0.00054633
8490.0 0.00060739
8510.0 0.00068098
8530.0 0.00076017
8550.0 0.00082524
8570.0 0.00087473
8590.0 0.00091233
8610.0 0.00093307
8630.0 0.00093097
8650.0 0.00091789
8670.0 0.00092077
8690.0 0.00097218
8710.0 0.0010418
8730.0 0.0010793
8750.0 0.0010756
8770.0 0.0010911
8790.0 0.0010932
8810.0 0.0010417
8830.0 0.00097071
8850.0 0.00087986
8870.0 0.00080969
8890.0 0.00078971
8910.0 0.00078207
8930.0 0.00073529
8950.0 0.00068146
8970.0 0.00065953
8990.0 0.00066063
9010.0 0.00064521
9030.0 0.00063251
9050.0 0.00062659
9070.0 0.00062363
9090.0 0.00062106
9110.0 0.00061858
9130.0 0.00061611
9150.0 0.0006137
9170.0 0.00061117
9190.0 0.00060922
9210.0 0.00060845
9230.0 0.0006054
9250.0 0.00060271
9270.0 0.00060024
9290.0 0.00059793
9310.0 0.00059567
9330.0 0.00059349
9350.0 0.00059142
9370.0 0.00058938
9390.0 0.00058732
9410.0 0.00058533
9430.0 0.00058325
9450.0 0.00058035
9470.0 0.00057776
9490.0 0.00057673
9510.0 0.00057527
9530.0 0.00057372
9550.0 0.00057206
9570.0 0.00057035
9590.0 0.00056865
9610.0 0.00056694
9630.0 0.00056521
9650.0 0.00056351
9670.0 0.00056185
9690.0 0.00056017
9710.0 0.0005585
9730.0 0.00055688
9750.0 0.00055525
9770.0 0.00055359
9790.0 0.00055198
9810.0 0.00055039
9830.0 0.00054877
9850.0 0.00054715
9870.0 0.00054557
9890.0 0.00054398
9910.0 0.00054236
9930.0 0.00054072
9950.0 0.00053651
9970.0 0.00053564
9990.0 0.00053461
10010.0 0.00053355
10030.0 0.00053224
10050.0 0.00053071
10070.0 0.00052917
10090.0 0.00052764
10110.0 0.0005258
10130.0 0.00052367
10150.0 0.00052205
10170.0 0.00052042
10190.0 0.00051856
10210.0 0.00051683
10230.0 0.0005151
10250.0 0.00051316
10270.0 0.00051121
10290.0 0.00050938
10310.0 0.00050735
10330.0 0.00050516
10350.0 0.00050313
10370.0 0.00050108
10390.0 0.00049882
10410.0 0.00049655
10430.0 0.00049445
10450.0 0.00049213
10470.0 0.00048968
10490.0 0.00048733
10510.0 0.00048496
10530.0 0.00048227
10550.0 0.00047965
10570.0 0.00047714
10590.0 0.00047444
10610.0 0.00047159
10630.0 0.00046889
10650.0 0.00046611
10670.0 0.00046303
10690.0 0.00046002
10710.0 0.00045707
10730.0 0.0004539
10750.0 0.00045052
10770.0 0.00044739
10790.0 0.00044413
10810.0 0.00044064
10830.0 0.00043717
10850.0 0.00043381
10870.0 0.00043007
10890.0 0.00042627
10910.0 0.00042258
10930.0 0.00041876
10950.0 0.00041465
10970.0 0.00041055
10990.0 0.00040656
11010.0 0.00044001
11030.0 0.00043551
11050.0 0.00043115
11070.0 0.0004267
11090.0 0.00042191
11110.0 0.00041744
11130.0 0.00041307
11150.0 0.00040853
11170.0 0.000404
11190.0 0.00039973
11210.0 0.00039536
11230.0 0.00039087
11250.0 0.00038658
11270.0 0.00038241
11290.0 0.00037809
11310.0 0.00037382
11330.0 0.00036986
11350.0 0.00036582
11370.0 0.00036169
11390.0 0.00035768
11410.0 0.00035368
11430.0 0.00034933
11450.0 0.00034491
11470.0 0.00034045
11490.0 0.00033566
11510.0 0.00033045
11530.0 0.0003252
11550.0 0.00031973
11570.0 0.00031378
11590.0 0.00030765
11610.0 0.00030153
11630.0 0.00029503
11650.0 0.00028825
11670.0 0.00028171
11690.0 0.00027516
11710.0 0.00026841
11730.0 0.0002618
11750.0 0.00025552
11770.0 0.00024912
11790.0 0.00024276
11810.0 0.00023672
11830.0 0.00023081
11850.0 0.00022475
11870.0 0.00021898
11890.0 0.00021351
11910.0 0.00020802
11930.0 0.00020261
11950.0 0.00019753
11970.0 0.00019257
11990.0 0.0001876
12010.0 0.00018294
12030.0 0.00017856
12050.0 0.00017429
12070.0 0.00017021
12090.0 0.00016658
12110.0 0.00016318
12130.0 0.00016001
12150.0 0.00015721
12170.0 0.0001548
12190.0 0.00015264
12210.0 0.00015087
12230.0 0.00014951
12250.0 0.0001485
12270.0 0.00014787
12290.0 0.00014761
12310.0 0.00014764
12330.0 0.00014804
12350.0 0.00014872
12370.0 0.00014961
12390.0 0.00015072
12410.0 0.00015213
12430.0 0.00015357
12450.0 0.00015506
12470.0 0.00015669
12490.0 0.00015834
12510.0 0.00015985
12530.0 0.00016138
12550.0 0.00016288
12570.0 0.00016416
12590.0 0.00016525
12610.0 0.00016622
12630.0 0.00016693
12650.0 0.00016727
12670.0 0.00016737
12690.0 0.00016716
12710.0 0.00016659
12730.0 0.00016569
12750.0 0.00016446
12770.0 0.00016289
12790.0 0.00016105
12810.0 0.00015893
12830.0 0.00015654
12850.0 0.00015402
12870.0 0.00015138
12890.0 0.00014857
12910.0 0.00014574
12930.0 0.00014294
12950.0 0.00014009
12970.0 0.00013724
12990.0 0.00013454
13010.0 0.00013192
13030.0 0.00012932
13050.0 0.00012683
13070.0 0.00012449
13090.0 0.00012217
13110.0 0.00011991
13130.0 0.00011778
13150.0 0.00011571
13170.0 0.00011364
13190.0 0.00011169
13210.0 0.00010983
13230.0 0.00010799
13250.0 0.00010621
13270.0 0.00010454
13290.0 0.00010292
13310.0 0.00010133
13330.0 9.9841e-05
13350.0 9.8452e-05
13370.0 9.7117e-05
13390.0 9.5857e-05
13410.0 9.4724e-05
13430.0 9.366e-05
13450.0 9.2659e-05
13470.0 9.1743e-05
13490.0 9.0899e-05
13510.0 9.0082e-05
13530.0 8.9308e-05
13550.0 8.8571e-05
13570.0 8.784e-05
13590.0 8.7097e-05
13610.0 8.6354e-05
13630.0 8.5605e-05
13650.0 8.4818e-05
13670.0 8.4011e-05
13690.0 8.3201e-05
13710.0 8.2369e-05
13730.0 8.1502e-05
13750.0 8.0667e-05
13770.0 7.9845e-05
13790.0 7.9022e-05
13810.0 7.8227e-05
13830.0 7.7483e-05
13850.0 7.6756e-05
13870.0 7.6057e-05
13890.0 7.541e-05
13910.0 7.48e-05
13930.0 7.4206e-05
13950.0 7.3639e-05
13970.0 7.3111e-05
13990.0 7.2583e-05
14010.0 7.2053e-05
14030.0 7.1531e-05
14050.0 7.1003e-05
14070.0 7.0435e-05
14090.0 6.9855e-05
14110.0 6.9266e-05
14130.0 6.8642e-05
14150.0 6.7981e-05
14170.0 6.7329e-05
14190.0 6.6669e-05
14210.0 6.5985e-05
14230.0 6.5319e-05
14250.0 6.4688e-05
14270.0 6.4063e-05
14290.0 6.3469e-05
14310.0 6.2951e-05
14330.0 6.2483e-05
14350.0 6.2063e-05
14370.0 6.1715e-05
14390.0 6.1436e-05
14410.0 6.1205e-05
14430.0 6.1028e-05
14450.0 6.0905e-05
14470.0 6.0819e-05
14490.0 6.0762e-05
14510.0 6.0735e-05
14530.0 6.0729e-05
14550.0 6.074e-05
14570.0 6.0771e-05
14590.0 6.0824e-05
14610.0 6.0905e-05
14630.0 6.1027e-05
14650.0 6.1197e-05
14670.0 6.1426e-05
14690.0 6.1735e-05
14710.0 6.214e-05
14730.0 6.2627e-05
14750.0 6.323e-05
14770.0 6.3972e-05
14790.0 6.4832e-05
14810.0 6.5807e-05
14830.0 6.6989e-05
14850.0 6.8314e-05
14870.0 6.974e-05
14890.0 7.1315e-05
14910.0 7.3034e-05
14930.0 7.4751e-05
14950.0 7.6425e-05
14970.0 7.8078e-05
14990.0 7.956e-05
15010.0 8.0806e-05
15030.0 8.1852e-05
15050.0 8.2702e-05
15070.0 8.333e-05
15090.0 8.3827e-05
15110.0 8.4236e-05
15130.0 8.4587e-05
15150.0 8.4908e-05
15170.0 8.5218e-05
15190.0 8.5527e-05
15210.0 8.5838e-05
15230.0 8.6155e-05
15250.0 8.6477e-05
15270.0 8.6805e-05
15290.0 8.7141e-05
15310.0 8.7482e-05
15330.0 8.7829e-05
15350.0 8.8183e-05
15370.0 8.8543e-05
15390.0 8.8907e-05
15410.0 8.9278e-05
15430.0 8.9655e-05
15450.0 9.0037e-05
15470.0 9.0424e-05
15490.0 9.0818e-05
15510.0 9.1216e-05
15530.0 9.1619e-05
15550.0 9.2028e-05
15570.0 9.2442e-05
15590.0 9.2859e-05
15610.0 9.3282e-05
15630.0 9.371e-05
15650.0 9.4142e-05
15670.0 9.4578e-05
15690.0 9.5019e-05
15710.0 9.5464e-05
15730.0 9.5912e-05
15750.0 9.6365e-05
15770.0 9.6821e-05
15790.0 9.7281e-05
15810.0 9.7744e-05
15830.0 9.821e-05
15850.0 9.8681e-05
15870.0 9.9153e-05
15890.0 9.9629e-05
15910.0 0.00010011
15930.0 0.00010059
15950.0 0.00010107
15970.0 0.00010156
15990.0 0.00010205
16010.0 0.00010253
16030.0 0.00010303
16050.0 0.00010352
16070.0 0.00010401
16090.0 0.00010451
16110.0 0.00010501
16130.0 0.0001055
16150.0 0.000106
16170.0 0.0001065
16190.0 0.000107
16210.0 0.0001075
16230.0 0.000108
16250.0 0.0001085
16270.0 0.000109
16290.0 0.0001095
16310.0 0.00011
16330.0 0.00011049
16350.0 0.00011099
16370.0 0.00011148
16390.0 0.00011198
16410.0 0.00011247
16430.0 0.00011296
16450.0 0.00011345
16470.0 0.00011393
16490.0 0.00011442
16510.0 0.0001149
16530.0 0.00011537
16550.0 0.00011585
16570.0 0.00011632
16590.0 0.00011679
16610.0 0.00011725
16630.0 0.00011771
16650.0 0.00011817
16670.0 0.00011862
16690.0 0.00011907
16710.0 0.00011951
16730.0 0.00011995
16750.0 0.00012038
16770.0 0.00012081
16790.0 0.00012123
16810.0 0.00012165
16830.0 0.00012206
16850.0 0.00012247
16870.0 0.00012286
16890.0 0.00012326
16910.0 0.00012364
16930.0 0.00012402
16950.0 0.00012439
16970.0 0.00012476
16990.0 0.00012512
17010.0 0.00012547
17030.0 0.00012581
17050.0 0.00012615
17070.0 0.00012647
17090.0 0.00012679
17110.0 0.0001271
17130.0 0.00012741
17150.0 0.0001277
17170.0 0.00012799
17190.0 0.00012826
17210.0 0.00012853
17230.0 0.00012879
17250.0 0.00012904
17270.0 0.00012928
17290.0 0.00012951
17310.0 0.00012973
17330.0 0.00012994
17350.0 0.00013014
17370.0 0.00013034
17390.0 0.00013052
17410.0 0.00013069
17430.0 0.00013085
17450.0 0.000131
17470.0 0.00013114
17490.0 0.00013127
17510.0 0.00013139
17530.0 0.0001315
17550.0 0.0001316
17570.0 0.00013169
17590.0 0.00013176
17610.0 0.00013183
17630.0 0.00013188
17650.0 0.00013193
17670.0 0.00013196
17690.0 0.00013198
17710.0 0.000132
17730.0 0.000132
17750.0 0.00013199
17770.0 0.00013196
17790.0 0.00013193
17810.0 0.00013189
17830.0 0.00013184
17850.0 0.00013177
17870.0 0.00013169
17890.0 0.00013161
17910.0 0.00013151
17930.0 0.0001314
17950.0 0.00013128
17970.0 0.00013115
17990.0 0.00013101
18010.0 0.00013086
18030.0 0.0001307
18050.0 0.00013052
18070.0 0.00013034
18090.0 0.00013015
18110.0 0.00012994
18130.0 0.00012973
18150.0 0.00012951
18170.0 0.00012927
18190.0 0.00012903
18210.0 0.00012878
18230.0 0.00012851
18250.0 0.00012824
18270.0 0.00012796
18290.0 0.00012766
18310.0 0.00012736
18330.0 0.00012705
18350.0 0.00012673
18370.0 0.0001264
18390.0 0.00012607
18410.0 0.00012572
18430.0 0.00012537
18450.0 0.000125
18470.0 0.00012463
18490.0 0.00012425
18510.0 0.00012386
18530.0 0.00012347
18550.0 0.00012307
18570.0 0.00012266
18590.0 0.00012224
18610.0 0.00012181
18630.0 0.00012138
18650.0 0.00012094
18670.0 0.0001205
18690.0 0.00012004
18710.0 0.00011959
18730.0 0.00011912
18750.0 0.00011865
18770.0 0.00011817
18790.0 0.00011769
18810.0 0.0001172
18830.0 0.00011671
18850.0 0.00011621
18870.0 0.0001157
18890.0 0.00011519
18910.0 0.00011468
18930.0 0.00011416
18950.0 0.00011364
18970.0 0.00011311
18990.0 0.00011258
19010.0 0.00011204
19030.0 0.0001115
19050.0 0.00011096
19070.0 0.00011041
19090.0 0.00010986
19110.0 0.00010931
19130.0 0.00010875
19150.0 0.00010819
19170.0 0.00010763
19190.0 0.00010707
19210.0 0.0001065
19230.0 0.00010593
19250.0 0.00010536
19270.0 0.00010479
19290.0 0.00010421
19310.0 0.00010363
19330.0 0.00010306
19350.0 0.00010248
19370.0 0.0001019
19390.0 0.00010131
19410.0 0.00010073
19430.0 0.00010015
19450.0 9.9563e-05
19470.0 9.8978e-05
19490.0 9.8393e-05
19510.0 9.7807e-05
19530.0 9.7222e-05
19550.0 9.6636e-05
19570.0 9.605e-05
19590.0 9.5465e-05
19610.0 9.488e-05
19630.0 9.4295e-05
19650.0 9.3711e-05
19670.0 9.3128e-05
19690.0 9.2544e-05
19710.0 9.1962e-05
19730.0 9.1382e-05
19750.0 9.0802e-05
19770.0 9.0223e-05
19790.0 8.9645e-05
19810.0 8.9069e-05
19830.0 8.8492e-05
19850.0 8.7912e-05
19870.0 8.7327e-05
19890.0 8.6725e-05
19910.0 8.6091e-05
19930.0 8.5409e-05
19950.0 8.4654e-05
19970.0 8.3783e-05
19990.0 8.2776e-05
20010.0 8.165e-05
20030.0 8.0358e-05
20050.0 7.891e-05
20070.0 7.738e-05
20090.0 7.5783e-05
20110.0 7.4067e-05
20130.0 7.2369e-05
20150.0 7.0718e-05
20170.0 6.9059e-05
20190.0 6.7417e-05
20210.0 6.5871e-05
20230.0 6.4374e-05
20250.0 6.2892e-05
20270.0 6.1496e-05
20290.0 6.019e-05
20310.0 5.8925e-05
20330.0 5.7705e-05
20350.0 5.6609e-05
20370.0 5.5571e-05
20390.0 5.4582e-05
20410.0 5.3674e-05
20430.0 5.2845e-05
20450.0 5.2053e-05
20470.0 5.1325e-05
20490.0 5.0666e-05
20510.0 5.0057e-05
20530.0 4.9488e-05
20550.0 4.8971e-05
20570.0 4.8499e-05
20590.0 4.8056e-05
20610.0 4.7645e-05
20630.0 4.7264e-05
20650.0 4.6904e-05
20670.0 4.656e-05
20690.0 4.6231e-05
20710.0 4.5911e-05
20730.0 4.5596e-05
20750.0 4.5282e-05
20770.0 4.4966e-05
20790.0 4.4645e-05
20810.0 4.4315e-05
20830.0 4.3976e-05
20850.0 4.3627e-05
20870.0 4.3261e-05
20890.0 4.2881e-05
20910.0 4.2492e-05
20930.0 4.2088e-05
20950.0 4.1667e-05
20970.0 4.1239e-05
20990.0 4.0804e-05
21010.0 4.0351e-05
21030.0 3.9892e-05
21050.0 3.9434e-05
21070.0 3.8968e-05
21090.0 3.8492e-05
21110.0 3.8027e-05
21130.0 3.7564e-05
21150.0 3.7096e-05
21170.0 3.6634e-05
21190.0 3.6185e-05
21210.0 3.5734e-05
21230.0 3.5285e-05
21250.0 3.4854e-05
21270.0 3.4432e-05
21290.0 3.4012e-05
21310.0 3.3605e-05
21330.0 3.3218e-05
21350.0 3.2835e-05
21370.0 3.2463e-05
21390.0 3.211e-05
21410.0 3.177e-05
21430.0 3.1436e-05
21450.0 3.1123e-05
21470.0 3.0827e-05
21490.0 3.0543e-05
21510.0 3.0272e-05
21530.0 3.002e-05
21550.0 2.9781e-05
21570.0 2.9554e-05
21590.0 2.9342e-05
21610.0 2.9142e-05
21630.0 2.8953e-05
21650.0 2.8775e-05
21670.0 2.8608e-05
21690.0 2.8449e-05
21710.0 2.8298e-05
21730.0 2.8155e-05
21750.0 2.8017e-05
21770.0 2.7886e-05
21790.0 2.776e-05
21810.0 2.7636e-05
21830.0 2.7517e-05
21850.0 2.7402e-05
21870.0 2.7287e-05
21890.0 2.7173e-05
21910.0 2.7062e-05
21930.0 2.695e-05
21950.0 2.6837e-05
21970.0 2.6723e-05
21990.0 2.6609e-05
22010.0 2.6491e-05
22030.0 2.6371e-05
22050.0 2.6247e-05
22070.0 2.6121e-05
22090.0 2.599e-05
22110.0 2.5856e-05
22130.0 2.5718e-05
22150.0 2.5576e-05
22170.0 2.5431e-05
22190.0 2.5281e-05
22210.0 2.5127e-05
22230.0 2.4972e-05
22250.0 2.4812e-05
22270.0 2.4646e-05
22290.0 2.4479e-05
22310.0 2.4307e-05
22330.0 2.4127e-05
22350.0 2.3942e-05
22370.0 2.3752e-05
22390.0 2.3553e-05
22410.0 2.3341e-05
22430.0 2.3125e-05
22450.0 2.2899e-05
22470.0 2.2658e-05
22490.0 2.2406e-05
22510.0 2.2149e-05
22530.0 2.1874e-05
22550.0 2.1583e-05
22570.0 2.1291e-05
22590.0 2.0991e-05
22610.0 2.0675e-05
22630.0 2.0357e-05
22650.0 2.0044e-05
22670.0 1.9721e-05
22690.0 1.9396e-05
