#lamb flux
1010.0 3.7226e-09
1030.0 4.0758e-09
1050.0 4.482e-09
1070.0 4.9392e-09
1090.0 5.4586e-09
1110.0 5.9913e-09
1130.0 6.5274e-09
1150.0 7.089e-09
1170.0 7.6683e-09
1190.0 8.2176e-09
1210.0 8.7743e-09
1230.0 9.3496e-09
1250.0 9.9133e-09
1270.0 1.0461e-08
1290.0 1.1039e-08
1310.0 1.1617e-08
1330.0 1.2171e-08
1350.0 1.2732e-08
1370.0 1.331e-08
1390.0 1.3874e-08
1410.0 1.4422e-08
1430.0 1.4994e-08
1450.0 1.5566e-08
1470.0 1.6119e-08
1490.0 1.6678e-08
1510.0 1.7268e-08
1530.0 1.7827e-08
1550.0 1.8379e-08
1570.0 1.8949e-08
1590.0 1.952e-08
1610.0 2.0066e-08
1630.0 2.0628e-08
1650.0 2.1205e-08
1670.0 2.1764e-08
1690.0 2.2314e-08
1710.0 2.2886e-08
1730.0 2.3461e-08
1750.0 2.4001e-08
1770.0 2.4557e-08
1790.0 2.5124e-08
1810.0 2.5672e-08
1830.0 2.621e-08
1850.0 2.678e-08
1870.0 2.7335e-08
1890.0 2.787e-08
1910.0 2.8414e-08
1930.0 2.8971e-08
1950.0 2.95e-08
1970.0 3.0021e-08
1990.0 3.056e-08
2010.0 3.1087e-08
2030.0 3.1592e-08
2050.0 3.211e-08
2070.0 3.2638e-08
2090.0 3.313e-08
2110.0 3.3616e-08
2130.0 3.4113e-08
2150.0 3.4595e-08
2170.0 3.5047e-08
2190.0 3.5512e-08
2210.0 3.5974e-08
2230.0 3.6407e-08
2250.0 3.6829e-08
2270.0 3.7267e-08
2290.0 3.7679e-08
2310.0 3.8062e-08
2330.0 3.8455e-08
2350.0 3.8854e-08
2370.0 3.9242e-08
2390.0 3.9667e-08
2410.0 4.0194e-08
2430.0 4.0823e-08
2450.0 4.1606e-08
2470.0 4.2659e-08
2490.0 4.4032e-08
2510.0 4.5616e-08
2530.0 4.756e-08
2550.0 5.0042e-08
2570.0 5.3161e-08
2590.0 5.7236e-08
2610.0 6.3356e-08
2630.0 7.2031e-08
2650.0 8.3234e-08
2670.0 9.7546e-08
2690.0 1.149e-07
2710.0 1.3312e-07
2730.0 1.5077e-07
2750.0 1.6784e-07
2770.0 1.8226e-07
2790.0 1.9325e-07
2810.0 2.0154e-07
2830.0 2.0756e-07
2850.0 2.1114e-07
2870.0 2.1332e-07
2890.0 2.1471e-07
2910.0 2.155e-07
2930.0 2.159e-07
2950.0 2.1622e-07
2970.0 2.1652e-07
2990.0 2.1676e-07
3010.0 6.7325e-06
3030.0 6.7392e-06
3050.0 6.7454e-06
3070.0 6.7465e-06
3090.0 6.743e-06
3110.0 6.7276e-06
3130.0 6.6916e-06
3150.0 6.6285e-06
3170.0 6.5252e-06
3190.0 6.3833e-06
3210.0 6.2134e-06
3230.0 6.0237e-06
3250.0 5.8305e-06
3270.0 5.6866e-06
3290.0 5.5846e-06
3310.0 5.5702e-06
3330.0 5.6218e-06
3350.0 5.735e-06
3370.0 5.9092e-06
3390.0 6.1363e-06
3410.0 6.3876e-06
3430.0 6.6727e-06
3450.0 7.0033e-06
3470.0 7.3667e-06
3490.0 7.7552e-06
3510.0 8.1967e-06
3530.0 8.6754e-06
3550.0 9.1778e-06
3570.0 9.7205e-06
3590.0 1.0319e-05
3610.0 1.0968e-05
3630.0 1.1609e-05
3650.0 1.2284e-05
3670.0 1.2892e-05
3690.0 1.3344e-05
3710.0 1.3579e-05
3730.0 1.349e-05
3750.0 1.31e-05
3770.0 1.3318e-05
3790.0 1.3167e-05
3810.0 1.118e-05
3830.0 1.1185e-05
3850.0 1.4983e-05
3870.0 1.5303e-05
3890.0 1.2871e-05
3910.0 1.2248e-05
3930.0 1.401e-05
3950.0 1.5841e-05
3970.0 1.6452e-05
3990.0 1.1791e-05
4010.0 2.8158e-05
4030.0 3.0814e-05
4050.0 3.4769e-05
4070.0 3.4446e-05
4090.0 3.1867e-05
4110.0 2.7331e-05
4130.0 2.9676e-05
4150.0 3.7072e-05
4170.0 3.1476e-05
4190.0 2.9931e-05
4210.0 3.2146e-05
4230.0 3.7503e-05
4250.0 4.5014e-05
4270.0 4.7816e-05
4290.0 4.261e-05
4310.0 4.1027e-05
4330.0 4.1477e-05
4350.0 5.0595e-05
4370.0 6.0327e-05
4390.0 5.0603e-05
4410.0 3.1059e-05
4430.0 2.3731e-05
4450.0 2.218e-05
4470.0 1.4602e-05
4490.0 2.087e-05
4510.0 4.1258e-05
4530.0 4.9623e-05
4550.0 4.7124e-05
4570.0 4.5251e-05
4590.0 4.9223e-05
4610.0 8.6871e-05
4630.0 0.00011991
4650.0 0.00011818
4670.0 0.00010538
4690.0 0.00010478
4710.0 0.00010969
4730.0 9.4498e-05
4750.0 6.456e-05
4770.0 4.4854e-05
4790.0 4.682e-05
4810.0 4.8e-05
4830.0 4.6378e-05
4850.0 5.0373e-05
4870.0 6.6675e-05
4890.0 7.7584e-05
4910.0 6.2755e-05
4930.0 5.9411e-05
4950.0 6.754e-05
4970.0 8.8682e-05
4990.0 0.00011998
5010.0 0.00013899
5030.0 0.00011462
5050.0 7.2689e-05
5070.0 5.0392e-05
5090.0 3.8695e-05
5110.0 3.7205e-05
5130.0 4.4385e-05
5150.0 4.4697e-05
5170.0 4.2622e-05
5190.0 3.8395e-05
5210.0 4.2132e-05
5230.0 4.9672e-05
5250.0 5.6633e-05
5270.0 5.4794e-05
5290.0 5.943e-05
5310.0 7.6593e-05
5330.0 8.3362e-05
5350.0 8.2373e-05
5370.0 9.0576e-05
5390.0 0.00011053
5410.0 9.9141e-05
5430.0 7.9833e-05
5450.0 7.8192e-05
5470.0 8.8288e-05
5490.0 0.00010944
5510.0 0.00013397
5530.0 0.00015502
5550.0 0.00014299
5570.0 0.00012888
5590.0 0.00010775
5610.0 0.00010611
5630.0 0.00011447
5650.0 0.00010607
5670.0 9.8243e-05
5690.0 8.1654e-05
5710.0 8.2784e-05
5730.0 7.9197e-05
5750.0 4.6735e-05
5770.0 3.4172e-05
5790.0 4.1114e-05
5810.0 4.4088e-05
5830.0 6.403e-05
5850.0 8.1755e-05
5870.0 8.8937e-05
5890.0 8.6597e-05
5910.0 8.458e-05
5930.0 8.0948e-05
5950.0 8.3137e-05
5970.0 0.00010098
5990.0 8.621e-05
6010.0 6.8148e-05
6030.0 5.6272e-05
6050.0 4.9876e-05
6070.0 5.6341e-05
6090.0 6.2587e-05
6110.0 6.5484e-05
6130.0 6.2298e-05
6150.0 5.0342e-05
6170.0 4.029e-05
6190.0 4.7586e-05
6210.0 7.1627e-05
6230.0 0.00010292
6250.0 0.00011143
6270.0 8.8431e-05
6290.0 7.5413e-05
6310.0 5.7892e-05
6330.0 4.2776e-05
6350.0 4.0888e-05
6370.0 4.2938e-05
6390.0 5.0768e-05
6410.0 6.501e-05
6430.0 7.7651e-05
6450.0 9.3532e-05
6470.0 0.00010061
6490.0 0.00012059
6510.0 0.00013511
6530.0 0.0001369
6550.0 0.00012541
6570.0 0.00010149
6590.0 9.4978e-05
6610.0 7.9427e-05
6630.0 7.9918e-05
6650.0 7.7347e-05
6670.0 6.899e-05
6690.0 5.5241e-05
6710.0 5.3065e-05
6730.0 2.625e-05
6750.0 3.2536e-05
6770.0 4.724e-05
6790.0 6.0829e-05
6810.0 4.5422e-05
6830.0 4.6454e-05
6850.0 3.9616e-05
6870.0 3.6768e-05
6890.0 3.2007e-05
6910.0 3.7902e-05
6930.0 3.5668e-05
6950.0 4.125e-05
6970.0 4.3088e-05
6990.0 4.8077e-05
7010.0 4.6704e-05
7030.0 5.24e-05
7050.0 4.6341e-05
7070.0 3.973e-05
7090.0 4.2082e-05
7110.0 4.4529e-05
7130.0 5.0605e-05
7150.0 5.6547e-05
7170.0 6.3262e-05
7190.0 6.8158e-05
7210.0 6.2098e-05
7230.0 6.3126e-05
7250.0 6.7553e-05
7270.0 7.253e-05
7290.0 8.887e-05
7310.0 9.4834e-05
7330.0 8.9665e-05
7350.0 8.0541e-05
7370.0 6.2055e-05
7390.0 6.2888e-05
7410.0 7.4427e-05
7430.0 8.4413e-05
7450.0 9.1186e-05
7470.0 8.4694e-05
7490.0 6.9128e-05
7510.0 0.00010312
7530.0 9.5839e-05
7550.0 8.9826e-05
7570.0 6.2953e-05
7590.0 3.1365e-05
7610.0 2.3593e-05
7630.0 3.2722e-05
7650.0 4.2513e-05
7670.0 6.3865e-05
7690.0 7.0861e-05
7710.0 6.6167e-05
7730.0 6.6723e-05
7750.0 8.454e-05
7770.0 8.6735e-05
7790.0 7.9307e-05
7810.0 6.5787e-05
7830.0 7.0568e-05
7850.0 7.5412e-05
7870.0 7.2759e-05
7890.0 5.767e-05
7910.0 4.0522e-05
7930.0 4.1282e-05
7950.0 3.7396e-05
7970.0 3.2207e-05
7990.0 2.9843e-05
8010.0 1.1439e-05
8030.0 1.0365e-05
8050.0 1.1275e-05
8070.0 1.2934e-05
8090.0 1.608e-05
8110.0 1.5124e-05
8130.0 8.6346e-06
8150.0 9.1195e-06
8170.0 4.7441e-06
8190.0 2.5428e-06
8210.0 8.1252e-06
8230.0 9.9542e-06
8250.0 3.3963e-06
8270.0 2.5597e-06
8290.0 5.883e-06
8310.0 5.3461e-06
8330.0 3.2734e-06
8350.0 2.6341e-06
8370.0 4.5749e-07
8390.0 2.8149e-06
8410.0 3.2139e-06
8430.0 3.9853e-06
8450.0 4.5018e-06
8470.0 7.8181e-06
8490.0 6.3125e-06
8510.0 4.7425e-06
8530.0 2.1457e-06
8550.0 8.7629e-06
8570.0 1.3761e-05
8590.0 9.2763e-06
8610.0 1.4199e-05
8630.0 1.5418e-05
8650.0 7.8227e-06
8670.0 1.2043e-05
8690.0 1.9275e-05
8710.0 1.6397e-05
8730.0 1.7737e-05
8750.0 1.3773e-05
8770.0 1.2159e-05
8790.0 1.3583e-05
8810.0 1.4864e-05
8830.0 7.9729e-06
8850.0 3.0615e-06
8870.0 2.075e-06
8890.0 6.1184e-06
8910.0 9.9927e-06
8930.0 1.3418e-05
8950.0 1.4878e-05
8970.0 1.4268e-05
8990.0 1.0425e-05
9010.0 1.3355e-05
9030.0 1.0351e-05
9050.0 1.0675e-05
9070.0 1.1028e-05
9090.0 1.1319e-05
9110.0 1.1674e-05
9130.0 1.193e-05
9150.0 1.2114e-05
9170.0 1.2309e-05
9190.0 1.2518e-05
9210.0 1.2737e-05
9230.0 1.2969e-05
9250.0 1.3202e-05
9270.0 1.3444e-05
9290.0 1.3691e-05
9310.0 1.3938e-05
9330.0 1.4188e-05
9350.0 1.4446e-05
9370.0 1.4706e-05
9390.0 1.4965e-05
9410.0 1.5232e-05
9430.0 1.5506e-05
9450.0 1.5777e-05
9470.0 1.6052e-05
9490.0 1.6335e-05
9510.0 1.662e-05
9530.0 1.6904e-05
9550.0 1.7198e-05
9570.0 1.7497e-05
9590.0 1.7795e-05
9610.0 1.8097e-05
9630.0 1.8408e-05
9650.0 1.872e-05
9670.0 1.9031e-05
9690.0 1.9351e-05
9710.0 1.9676e-05
9730.0 2e-05
9750.0 2.0328e-05
9770.0 2.0668e-05
9790.0 2.1005e-05
9810.0 2.1343e-05
9830.0 2.1689e-05
9850.0 2.2039e-05
9870.0 2.2387e-05
9890.0 2.274e-05
9910.0 2.3101e-05
9930.0 2.3461e-05
9950.0 2.3822e-05
9970.0 2.4191e-05
9990.0 2.4564e-05
10010.0 2.169e-05
10030.0 2.2015e-05
10050.0 2.2344e-05
10070.0 2.2672e-05
10090.0 2.2999e-05
10110.0 2.3335e-05
10130.0 2.3671e-05
10150.0 2.4003e-05
10170.0 2.4339e-05
10190.0 2.4681e-05
10210.0 2.5018e-05
10230.0 2.5353e-05
10250.0 2.5694e-05
10270.0 2.6034e-05
10290.0 2.637e-05
10310.0 2.671e-05
10330.0 2.7054e-05
10350.0 2.7391e-05
10370.0 2.7727e-05
10390.0 2.8067e-05
10410.0 2.8404e-05
10430.0 2.8735e-05
10450.0 2.9069e-05
10470.0 2.9403e-05
10490.0 2.9732e-05
10510.0 3.0057e-05
10530.0 3.0388e-05
10550.0 3.0713e-05
10570.0 3.103e-05
10590.0 3.1349e-05
10610.0 3.1667e-05
10630.0 3.1976e-05
10650.0 3.2282e-05
10670.0 3.2591e-05
10690.0 3.2893e-05
10710.0 3.3188e-05
10730.0 3.3482e-05
10750.0 3.3777e-05
10770.0 3.4058e-05
10790.0 3.4337e-05
10810.0 3.4614e-05
10830.0 3.4882e-05
10850.0 3.5137e-05
10870.0 3.5387e-05
10890.0 3.5612e-05
10910.0 3.5797e-05
10930.0 3.5926e-05
10950.0 3.5968e-05
10970.0 3.5894e-05
10990.0 3.5691e-05
11010.0 3.4489e-05
11030.0 3.3958e-05
11050.0 3.3295e-05
11070.0 3.2492e-05
11090.0 3.1523e-05
11110.0 3.0517e-05
11130.0 2.9468e-05
11150.0 2.8342e-05
11170.0 2.7185e-05
11190.0 2.6067e-05
11210.0 2.4919e-05
11230.0 2.3747e-05
11250.0 2.2631e-05
11270.0 2.1564e-05
11290.0 2.0498e-05
11310.0 1.9491e-05
11330.0 1.8603e-05
11350.0 1.7763e-05
11370.0 1.6984e-05
11390.0 1.6305e-05
11410.0 1.5706e-05
11430.0 1.5143e-05
11450.0 1.4651e-05
11470.0 1.4217e-05
11490.0 1.3808e-05
11510.0 1.341e-05
11530.0 1.3037e-05
11550.0 1.2665e-05
11570.0 1.2272e-05
11590.0 1.1868e-05
11610.0 1.146e-05
11630.0 1.1022e-05
11650.0 1.0557e-05
11670.0 1.0102e-05
11690.0 9.6429e-06
11710.0 9.1722e-06
11730.0 8.7169e-06
11750.0 8.2947e-06
11770.0 7.8807e-06
11790.0 7.4912e-06
11810.0 7.1454e-06
11830.0 6.8331e-06
11850.0 6.5427e-06
11870.0 6.2952e-06
11890.0 6.0849e-06
11910.0 5.8965e-06
11930.0 5.7307e-06
11950.0 5.5888e-06
11970.0 5.4596e-06
11990.0 5.3365e-06
12010.0 5.2218e-06
12030.0 5.1115e-06
12050.0 4.9989e-06
12070.0 4.8836e-06
12090.0 4.7725e-06
12110.0 4.6604e-06
12130.0 4.5479e-06
12150.0 4.4423e-06
12170.0 4.3468e-06
12190.0 4.2593e-06
12210.0 4.1892e-06
12230.0 4.1401e-06
12250.0 4.1131e-06
12270.0 4.1128e-06
12290.0 4.14e-06
12310.0 4.1925e-06
12330.0 4.277e-06
12350.0 4.3898e-06
12370.0 4.5227e-06
12390.0 4.6801e-06
12410.0 4.8686e-06
12430.0 5.0611e-06
12450.0 5.2615e-06
12470.0 5.4759e-06
12490.0 5.6912e-06
12510.0 5.8921e-06
12530.0 6.0919e-06
12550.0 6.2839e-06
12570.0 6.4514e-06
12590.0 6.5965e-06
12610.0 6.7242e-06
12630.0 6.823e-06
12650.0 6.8864e-06
12670.0 6.9232e-06
12690.0 6.9295e-06
12710.0 6.9038e-06
12730.0 6.8498e-06
12750.0 6.7651e-06
12770.0 6.6543e-06
12790.0 6.5231e-06
12810.0 6.3696e-06
12830.0 6.1947e-06
12850.0 6.013e-06
12870.0 5.8223e-06
12890.0 5.6181e-06
12910.0 5.4117e-06
12930.0 5.209e-06
12950.0 4.9992e-06
12970.0 4.7868e-06
12990.0 4.5863e-06
13010.0 4.3889e-06
13030.0 4.1902e-06
13050.0 3.9995e-06
13070.0 3.8207e-06
13090.0 3.6414e-06
13110.0 3.4677e-06
13130.0 3.3068e-06
13150.0 3.1539e-06
13170.0 3.0035e-06
13190.0 2.8683e-06
13210.0 2.7479e-06
13230.0 2.6364e-06
13250.0 2.5384e-06
13270.0 2.4585e-06
13290.0 2.3933e-06
13310.0 2.344e-06
13330.0 2.3145e-06
13350.0 2.3037e-06
13370.0 2.3121e-06
13390.0 2.3412e-06
13410.0 2.3861e-06
13430.0 2.4486e-06
13450.0 2.5293e-06
13470.0 2.6214e-06
13490.0 2.7209e-06
13510.0 2.8356e-06
13530.0 2.9537e-06
13550.0 3.0683e-06
13570.0 3.183e-06
13590.0 3.2965e-06
13610.0 3.3988e-06
13630.0 3.4893e-06
13650.0 3.5734e-06
13670.0 3.6444e-06
13690.0 3.7005e-06
13710.0 3.7452e-06
13730.0 3.7787e-06
13750.0 3.7972e-06
13770.0 3.8043e-06
13790.0 3.8007e-06
13810.0 3.7863e-06
13830.0 3.763e-06
13850.0 3.7302e-06
13870.0 3.6881e-06
13890.0 3.6393e-06
13910.0 3.5841e-06
13930.0 3.52e-06
13950.0 3.4501e-06
13970.0 3.3785e-06
13990.0 3.3008e-06
14010.0 3.2184e-06
14030.0 3.1363e-06
14050.0 3.0537e-06
14070.0 2.9668e-06
14090.0 2.8836e-06
14110.0 2.8054e-06
14130.0 2.7295e-06
14150.0 2.6579e-06
14170.0 2.5965e-06
14190.0 2.543e-06
14210.0 2.4972e-06
14230.0 2.4626e-06
14250.0 2.4393e-06
14270.0 2.4267e-06
14290.0 2.4264e-06
14310.0 2.4374e-06
14330.0 2.4593e-06
14350.0 2.4929e-06
14370.0 2.5356e-06
14390.0 2.585e-06
14410.0 2.6439e-06
14430.0 2.7095e-06
14450.0 2.7774e-06
14470.0 2.8486e-06
14490.0 2.9253e-06
14510.0 2.9995e-06
14530.0 3.0709e-06
14550.0 3.1431e-06
14570.0 3.2131e-06
14590.0 3.2775e-06
14610.0 3.3404e-06
14630.0 3.403e-06
14650.0 3.4616e-06
14670.0 3.5183e-06
14690.0 3.5773e-06
14710.0 3.6391e-06
14730.0 3.7007e-06
14750.0 3.7685e-06
14770.0 3.8451e-06
14790.0 3.9279e-06
14810.0 4.0175e-06
14830.0 4.1233e-06
14850.0 4.2383e-06
14870.0 4.3584e-06
14890.0 4.4881e-06
14910.0 4.626e-06
14930.0 4.7591e-06
14950.0 4.884e-06
14970.0 5.0028e-06
14990.0 5.1035e-06
15010.0 5.1817e-06
15030.0 5.2412e-06
15050.0 5.2824e-06
15070.0 5.3052e-06
15090.0 5.3168e-06
15110.0 5.3205e-06
15130.0 5.3192e-06
15150.0 5.3156e-06
15170.0 5.3104e-06
15190.0 5.3044e-06
15210.0 5.2986e-06
15230.0 5.2929e-06
15250.0 5.2868e-06
15270.0 5.2809e-06
15290.0 5.2756e-06
15310.0 5.27e-06
15330.0 5.2644e-06
15350.0 5.2592e-06
15370.0 5.2542e-06
15390.0 5.2486e-06
15410.0 5.2434e-06
15430.0 5.2385e-06
15450.0 5.2334e-06
15470.0 5.2282e-06
15490.0 5.2235e-06
15510.0 5.2189e-06
15530.0 5.2138e-06
15550.0 5.2091e-06
15570.0 5.2047e-06
15590.0 5.1998e-06
15610.0 5.1948e-06
15630.0 5.1904e-06
15650.0 5.1859e-06
15670.0 5.1811e-06
15690.0 5.1765e-06
15710.0 5.1724e-06
15730.0 5.1677e-06
15750.0 5.1629e-06
15770.0 5.1586e-06
15790.0 5.1542e-06
15810.0 5.1492e-06
15830.0 5.1447e-06
15850.0 5.1404e-06
15870.0 5.1357e-06
15890.0 5.131e-06
15910.0 5.1267e-06
15930.0 5.1221e-06
15950.0 5.1171e-06
15970.0 5.1125e-06
15990.0 5.108e-06
16010.0 5.103e-06
16030.0 5.0979e-06
16050.0 5.0934e-06
16070.0 5.0886e-06
16090.0 5.0834e-06
16110.0 5.0785e-06
16130.0 5.0739e-06
16150.0 5.0683e-06
16170.0 5.063e-06
16190.0 5.058e-06
16210.0 5.0528e-06
16230.0 5.0471e-06
16250.0 5.0418e-06
16270.0 5.0366e-06
16290.0 5.0308e-06
16310.0 5.0251e-06
16330.0 5.0196e-06
16350.0 5.0138e-06
16370.0 5.0073e-06
16390.0 5.0016e-06
16410.0 4.9958e-06
16430.0 4.9894e-06
16450.0 4.9831e-06
16470.0 4.9772e-06
16490.0 4.9706e-06
16510.0 4.9638e-06
16530.0 4.9573e-06
16550.0 4.9508e-06
16570.0 4.9436e-06
16590.0 4.9365e-06
16610.0 4.9299e-06
16630.0 4.9227e-06
16650.0 4.9153e-06
16670.0 4.9082e-06
16690.0 4.9009e-06
16710.0 4.8929e-06
16730.0 4.8852e-06
16750.0 4.8777e-06
16770.0 4.8697e-06
16790.0 4.8613e-06
16810.0 4.8535e-06
16830.0 4.8454e-06
16850.0 4.8368e-06
16870.0 4.8283e-06
16890.0 4.8201e-06
16910.0 4.8111e-06
16930.0 4.8019e-06
16950.0 4.7933e-06
16970.0 4.7843e-06
16990.0 4.7748e-06
17010.0 4.7656e-06
17030.0 4.7566e-06
17050.0 4.7468e-06
17070.0 4.7369e-06
17090.0 4.7274e-06
17110.0 4.7176e-06
17130.0 4.707e-06
17150.0 4.697e-06
17170.0 4.687e-06
17190.0 4.6765e-06
17210.0 4.6659e-06
17230.0 4.6556e-06
17250.0 4.6449e-06
17270.0 4.6336e-06
17290.0 4.6228e-06
17310.0 4.6119e-06
17330.0 4.6005e-06
17350.0 4.5889e-06
17370.0 4.5779e-06
17390.0 4.5664e-06
17410.0 4.5545e-06
17430.0 4.5428e-06
17450.0 4.5313e-06
17470.0 4.5188e-06
17490.0 4.5065e-06
17510.0 4.4947e-06
17530.0 4.4823e-06
17550.0 4.4696e-06
17570.0 4.4572e-06
17590.0 4.4449e-06
17610.0 4.4319e-06
17630.0 4.419e-06
17650.0 4.4063e-06
17670.0 4.3933e-06
17690.0 4.3795e-06
17710.0 4.3666e-06
17730.0 4.3535e-06
17750.0 4.3398e-06
17770.0 4.3262e-06
17790.0 4.3131e-06
17810.0 4.2992e-06
17830.0 4.285e-06
17850.0 4.2713e-06
17870.0 4.2575e-06
17890.0 4.2431e-06
17910.0 4.2288e-06
17930.0 4.215e-06
17950.0 4.2006e-06
17970.0 4.186e-06
17990.0 4.1718e-06
18010.0 4.1575e-06
18030.0 4.1424e-06
18050.0 4.1277e-06
18070.0 4.1132e-06
18090.0 4.0982e-06
18110.0 4.083e-06
18130.0 4.0684e-06
18150.0 4.0535e-06
18170.0 4.0381e-06
18190.0 4.023e-06
18210.0 4.0081e-06
18230.0 3.9925e-06
18250.0 3.9768e-06
18270.0 3.9617e-06
18290.0 3.9464e-06
18310.0 3.9306e-06
18330.0 3.9151e-06
18350.0 3.8999e-06
18370.0 3.884e-06
18390.0 3.868e-06
18410.0 3.8526e-06
18430.0 3.8368e-06
18450.0 3.8205e-06
18470.0 3.8047e-06
18490.0 3.7891e-06
18510.0 3.773e-06
18530.0 3.7569e-06
18550.0 3.7412e-06
18570.0 3.7252e-06
18590.0 3.7086e-06
18610.0 3.6926e-06
18630.0 3.6767e-06
18650.0 3.6603e-06
18670.0 3.6438e-06
18690.0 3.628e-06
18710.0 3.6118e-06
18730.0 3.5952e-06
18750.0 3.5791e-06
18770.0 3.5631e-06
18790.0 3.5463e-06
18810.0 3.5298e-06
18830.0 3.5138e-06
18850.0 3.4974e-06
18870.0 3.4806e-06
18890.0 3.4645e-06
18910.0 3.4484e-06
18930.0 3.4316e-06
18950.0 3.4152e-06
18970.0 3.399e-06
18990.0 3.3825e-06
19010.0 3.3655e-06
19030.0 3.3494e-06
19050.0 3.3332e-06
19070.0 3.3165e-06
19090.0 3.3e-06
19110.0 3.284e-06
19130.0 3.2674e-06
19150.0 3.2506e-06
19170.0 3.2344e-06
19190.0 3.2181e-06
19210.0 3.2013e-06
19230.0 3.1848e-06
19250.0 3.1689e-06
19270.0 3.1524e-06
19290.0 3.1358e-06
19310.0 3.1198e-06
19330.0 3.1036e-06
19350.0 3.0867e-06
19370.0 3.0704e-06
19390.0 3.0544e-06
19410.0 3.038e-06
19430.0 3.0214e-06
19450.0 3.0055e-06
19470.0 2.9894e-06
19490.0 2.9729e-06
19510.0 2.9568e-06
19530.0 2.9409e-06
19550.0 2.9245e-06
19570.0 2.908e-06
19590.0 2.8922e-06
19610.0 2.8762e-06
19630.0 2.8599e-06
19650.0 2.844e-06
19670.0 2.8284e-06
19690.0 2.8121e-06
19710.0 2.796e-06
19730.0 2.7803e-06
19750.0 2.7645e-06
19770.0 2.7481e-06
19790.0 2.7324e-06
19810.0 2.7169e-06
19830.0 2.7009e-06
19850.0 2.6848e-06
19870.0 2.6691e-06
19890.0 2.6524e-06
19910.0 2.6345e-06
19930.0 2.6156e-06
19950.0 2.5945e-06
19970.0 2.5694e-06
19990.0 2.54e-06
20010.0 2.3095e-06
20030.0 2.2734e-06
20050.0 2.2319e-06
20070.0 2.1873e-06
20090.0 2.1398e-06
20110.0 2.0865e-06
20130.0 2.033e-06
20150.0 1.9801e-06
20170.0 1.9256e-06
20190.0 1.8706e-06
20210.0 1.8187e-06
20230.0 1.7683e-06
20250.0 1.7178e-06
20270.0 1.671e-06
20290.0 1.6282e-06
20310.0 1.5875e-06
20330.0 1.5493e-06
20350.0 1.5173e-06
20370.0 1.4887e-06
20390.0 1.4634e-06
20410.0 1.4426e-06
20430.0 1.4261e-06
20450.0 1.4126e-06
20470.0 1.403e-06
20490.0 1.3971e-06
20510.0 1.3942e-06
20530.0 1.3944e-06
20550.0 1.3972e-06
20570.0 1.4022e-06
20590.0 1.4095e-06
20610.0 1.4188e-06
20630.0 1.4293e-06
20650.0 1.4413e-06
20670.0 1.4553e-06
20690.0 1.4698e-06
20710.0 1.4848e-06
20730.0 1.501e-06
20750.0 1.5181e-06
20770.0 1.5348e-06
20790.0 1.5523e-06
20810.0 1.5707e-06
20830.0 1.5889e-06
20850.0 1.6071e-06
20870.0 1.6264e-06
20890.0 1.646e-06
20910.0 1.6647e-06
20930.0 1.684e-06
20950.0 1.7039e-06
20970.0 1.7232e-06
20990.0 1.7421e-06
21010.0 1.762e-06
21030.0 1.7813e-06
21050.0 1.7996e-06
21070.0 1.8178e-06
21090.0 1.836e-06
21110.0 1.8526e-06
21130.0 1.868e-06
21150.0 1.883e-06
21170.0 1.8965e-06
21190.0 1.908e-06
21210.0 1.9184e-06
21230.0 1.9269e-06
21250.0 1.9329e-06
21270.0 1.9366e-06
21290.0 1.9377e-06
21310.0 1.9359e-06
21330.0 1.9312e-06
21350.0 1.9232e-06
21370.0 1.9116e-06
21390.0 1.8969e-06
21410.0 1.879e-06
21430.0 1.8564e-06
21450.0 1.831e-06
21470.0 1.8032e-06
21490.0 1.7719e-06
21510.0 1.7374e-06
21530.0 1.7024e-06
21550.0 1.6656e-06
21570.0 1.6263e-06
21590.0 1.5876e-06
21610.0 1.5501e-06
21630.0 1.5125e-06
21650.0 1.4757e-06
21670.0 1.4435e-06
21690.0 1.4137e-06
21710.0 1.3867e-06
21730.0 1.3643e-06
21750.0 1.3467e-06
21770.0 1.3328e-06
21790.0 1.3242e-06
21810.0 1.3206e-06
21830.0 1.3218e-06
21850.0 1.328e-06
21870.0 1.3387e-06
21890.0 1.3529e-06
21910.0 1.3717e-06
21930.0 1.3939e-06
21950.0 1.4183e-06
21970.0 1.4454e-06
21990.0 1.4761e-06
22010.0 1.5069e-06
22030.0 1.5383e-06
22050.0 1.5715e-06
22070.0 1.6049e-06
22090.0 1.6367e-06
22110.0 1.6688e-06
22130.0 1.701e-06
22150.0 1.7312e-06
22170.0 1.7597e-06
22190.0 1.788e-06
22210.0 1.8144e-06
22230.0 1.8377e-06
22250.0 1.8596e-06
22270.0 1.8798e-06
22290.0 1.897e-06
22310.0 1.9117e-06
22330.0 1.9247e-06
22350.0 1.9347e-06
22370.0 1.9416e-06
22390.0 1.9458e-06
22410.0 1.947e-06
22430.0 1.9448e-06
22450.0 1.9396e-06
22470.0 1.9308e-06
22490.0 1.9185e-06
22510.0 1.9033e-06
22530.0 1.884e-06
22550.0 1.8606e-06
22570.0 1.8346e-06
22590.0 1.8054e-06
22610.0 1.7719e-06
22630.0 1.7357e-06
