#lamb flux
1010.0 2.0452e-07
1030.0 2.265e-07
1050.0 2.5179e-07
1070.0 2.8026e-07
1090.0 3.1259e-07
1110.0 3.4575e-07
1130.0 3.7913e-07
1150.0 4.1409e-07
1170.0 4.5016e-07
1190.0 4.8435e-07
1210.0 5.1901e-07
1230.0 5.5483e-07
1250.0 5.8992e-07
1270.0 6.24e-07
1290.0 6.6e-07
1310.0 6.9598e-07
1330.0 7.3049e-07
1350.0 7.6538e-07
1370.0 8.014e-07
1390.0 8.3651e-07
1410.0 8.7059e-07
1430.0 9.062e-07
1450.0 9.4181e-07
1470.0 9.7622e-07
1490.0 1.011e-06
1510.0 1.0477e-06
1530.0 1.0825e-06
1550.0 1.1168e-06
1570.0 1.1523e-06
1590.0 1.1878e-06
1610.0 1.2217e-06
1630.0 1.2566e-06
1650.0 1.2924e-06
1670.0 1.327e-06
1690.0 1.3611e-06
1710.0 1.3965e-06
1730.0 1.432e-06
1750.0 1.4654e-06
1770.0 1.4996e-06
1790.0 1.5345e-06
1810.0 1.5681e-06
1830.0 1.601e-06
1850.0 1.6358e-06
1870.0 1.6695e-06
1890.0 1.7019e-06
1910.0 1.7347e-06
1930.0 1.7682e-06
1950.0 1.7997e-06
1970.0 1.8305e-06
1990.0 1.8622e-06
2010.0 1.893e-06
2030.0 1.9221e-06
2050.0 1.9517e-06
2070.0 1.9817e-06
2090.0 2.009e-06
2110.0 2.0357e-06
2130.0 2.0626e-06
2150.0 2.0881e-06
2170.0 2.1114e-06
2190.0 2.1349e-06
2210.0 2.1578e-06
2230.0 2.1783e-06
2250.0 2.1977e-06
2270.0 2.2173e-06
2290.0 2.2348e-06
2310.0 2.2498e-06
2330.0 2.2646e-06
2350.0 2.2788e-06
2370.0 2.2911e-06
2390.0 2.304e-06
2410.0 2.3201e-06
2430.0 2.3386e-06
2450.0 2.3616e-06
2470.0 2.3938e-06
2490.0 2.4373e-06
2510.0 2.4877e-06
2530.0 2.5532e-06
2550.0 2.6436e-06
2570.0 2.7666e-06
2590.0 2.938e-06
2610.0 3.2087e-06
2630.0 3.5977e-06
2650.0 4.0955e-06
2670.0 4.7202e-06
2690.0 5.4586e-06
2710.0 6.2069e-06
2730.0 6.9039e-06
2750.0 7.5499e-06
2770.0 8.0645e-06
2790.0 8.4242e-06
2810.0 8.6659e-06
2830.0 8.8132e-06
2850.0 8.8639e-06
2870.0 8.8615e-06
2890.0 8.8301e-06
2910.0 8.7779e-06
2930.0 8.7122e-06
2950.0 8.6453e-06
2970.0 8.5792e-06
2990.0 8.5117e-06
3010.0 0.00025561
3030.0 0.00025377
3050.0 0.00025196
3070.0 0.00025002
3090.0 0.00024798
3110.0 0.00024559
3130.0 0.00024255
3150.0 0.00023867
3170.0 0.00023353
3190.0 0.00022722
3210.0 0.00022015
3230.0 0.00021262
3250.0 0.00020515
3270.0 0.0001996
3290.0 0.00019557
3310.0 0.00019476
3330.0 0.00019624
3350.0 0.00019988
3370.0 0.0002057
3390.0 0.00021341
3410.0 0.00022203
3430.0 0.0002319
3450.0 0.00024342
3470.0 0.00025615
3490.0 0.00026982
3510.0 0.00028539
3530.0 0.00030239
3550.0 0.00032057
3570.0 0.00034063
3590.0 0.00036325
3610.0 0.00038845
3630.0 0.00041397
3650.0 0.00044111
3670.0 0.00046584
3690.0 0.00048446
3710.0 0.00049409
3730.0 0.00048937
3750.0 0.00047009
3770.0 0.00047078
3790.0 0.00045001
3810.0 0.00034956
3830.0 0.0003224
3850.0 0.00043014
3870.0 0.00037646
3890.0 0.00030818
3910.0 0.0003604
3930.0 0.00047441
3950.0 0.00054144
3970.0 0.00062855
3990.0 0.00050376
4010.0 0.00077982
4030.0 0.00071634
4050.0 0.00067413
4070.0 0.00076701
4090.0 0.00073648
4110.0 0.00073204
4130.0 0.00090245
4150.0 0.0011481
4170.0 0.00094123
4190.0 0.00084118
4210.0 0.0009283
4230.0 0.0011485
4250.0 0.0013377
4270.0 0.0014434
4290.0 0.0013245
4310.0 0.0012336
4330.0 0.0012518
4350.0 0.001591
4370.0 0.0019124
4390.0 0.0015593
4410.0 0.00095124
4430.0 0.00070264
4450.0 0.00063388
4470.0 0.00047924
4490.0 0.00072503
4510.0 0.0013005
4530.0 0.0015595
4550.0 0.001549
4570.0 0.0014711
4590.0 0.00163
4610.0 0.0029457
4630.0 0.0040226
4650.0 0.0038134
4670.0 0.0033978
4690.0 0.0035743
4710.0 0.0037738
4730.0 0.0030501
4750.0 0.0019678
4770.0 0.0014234
4790.0 0.0015592
4810.0 0.0015923
4830.0 0.0015652
4850.0 0.0017235
4870.0 0.002279
4890.0 0.0026499
4910.0 0.0020636
4930.0 0.0019539
4950.0 0.002241
4970.0 0.0030238
4990.0 0.0040565
5010.0 0.0046019
5030.0 0.0036522
5050.0 0.002201
5070.0 0.0015629
5090.0 0.0012431
5110.0 0.001192
5130.0 0.0013842
5150.0 0.0013471
5170.0 0.0012836
5190.0 0.0011744
5210.0 0.0012471
5230.0 0.001504
5250.0 0.0017338
5270.0 0.0016639
5290.0 0.0018351
5310.0 0.0023797
5330.0 0.0024923
5350.0 0.0024581
5370.0 0.0027719
5390.0 0.0033839
5410.0 0.0029292
5430.0 0.0022474
5450.0 0.0022303
5470.0 0.002608
5490.0 0.0033185
5510.0 0.0041127
5530.0 0.0047342
5550.0 0.0043001
5570.0 0.0038394
5590.0 0.0031908
5610.0 0.0032016
5630.0 0.0035065
5650.0 0.0033194
5670.0 0.0030938
5690.0 0.0025542
5710.0 0.0025869
5730.0 0.0025027
5750.0 0.0013829
5770.0 0.0010466
5790.0 0.0012802
5810.0 0.0014197
5830.0 0.0020675
5850.0 0.0026093
5870.0 0.0027499
5890.0 0.002599
5910.0 0.0025062
5930.0 0.0024499
5950.0 0.0025461
5970.0 0.003089
5990.0 0.0025862
6010.0 0.0020067
6030.0 0.0016318
6050.0 0.0014443
6070.0 0.0016866
6090.0 0.0019232
6110.0 0.0019828
6130.0 0.0018123
6150.0 0.0014658
6170.0 0.0012742
6190.0 0.0015872
6210.0 0.00236
6230.0 0.0032878
6250.0 0.0034544
6270.0 0.0027049
6290.0 0.0022949
6310.0 0.0017642
6330.0 0.0013079
6350.0 0.0012623
6370.0 0.0013314
6390.0 0.0016097
6410.0 0.0020277
6430.0 0.0024301
6450.0 0.002977
6470.0 0.0032361
6490.0 0.0039258
6510.0 0.0044068
6530.0 0.0043729
6550.0 0.004024
6570.0 0.00341
6590.0 0.0033049
6610.0 0.0027716
6630.0 0.0028046
6650.0 0.0026726
6670.0 0.0024413
6690.0 0.0020295
6710.0 0.0019322
6730.0 0.0011043
6750.0 0.0012615
6770.0 0.0017279
6790.0 0.0022318
6810.0 0.001726
6830.0 0.0017677
6850.0 0.0015463
6870.0 0.0014701
6890.0 0.0012979
6910.0 0.0014582
6930.0 0.0013645
6950.0 0.0015828
6970.0 0.0016104
6990.0 0.0017872
7010.0 0.0017954
7030.0 0.0019223
7050.0 0.0016878
7070.0 0.0014757
7090.0 0.0015131
7110.0 0.0015344
7130.0 0.0017136
7150.0 0.0019326
7170.0 0.0021387
7190.0 0.0022237
7210.0 0.0019915
7230.0 0.0020159
7250.0 0.0022114
7270.0 0.0024542
7290.0 0.0029182
7310.0 0.0029809
7330.0 0.0027072
7350.0 0.0024123
7370.0 0.0018664
7390.0 0.0019463
7410.0 0.0023471
7430.0 0.002646
7450.0 0.0028477
7470.0 0.0027285
7490.0 0.0024694
7510.0 0.0036305
7530.0 0.0032621
7550.0 0.0029568
7570.0 0.0020384
7590.0 0.0010088
7610.0 0.00076444
7630.0 0.0010438
7650.0 0.0013471
7670.0 0.0020062
7690.0 0.002264
7710.0 0.0021052
7730.0 0.00208
7750.0 0.0025926
7770.0 0.0026359
7790.0 0.0024462
7810.0 0.0020858
7830.0 0.0021934
7850.0 0.0023052
7870.0 0.0022278
7890.0 0.0017931
7910.0 0.0012557
7930.0 0.0012363
7950.0 0.001111
7970.0 0.0009673
7990.0 0.00089955
8010.0 0.00083589
8030.0 0.00080065
8050.0 0.00084
8070.0 0.00088372
8090.0 0.00099631
8110.0 0.0009332
8130.0 0.00066299
8150.0 0.00064684
8170.0 0.00047416
8190.0 0.0003937
8210.0 0.0005976
8230.0 0.00068129
8250.0 0.00043731
8270.0 0.00037418
8290.0 0.00043347
8310.0 0.00033626
8330.0 0.00021007
8350.0 0.00016365
8370.0 9.2372e-05
8390.0 0.00018429
8410.0 0.00022409
8430.0 0.00027841
8450.0 0.00031133
8470.0 0.00043687
8490.0 0.00038108
8510.0 0.00033047
8530.0 0.00024724
8550.0 0.00049737
8570.0 0.00071467
8590.0 0.00060651
8610.0 0.00082812
8630.0 0.00092216
8650.0 0.00068857
8670.0 0.00083264
8690.0 0.0010714
8710.0 0.00095572
8730.0 0.00098571
8750.0 0.00082576
8770.0 0.00075977
8790.0 0.00080856
8810.0 0.00083342
8830.0 0.00055081
8850.0 0.00034426
8870.0 0.00026961
8890.0 0.00040285
8910.0 0.0005498
8930.0 0.0006753
8950.0 0.00076628
8970.0 0.00075302
8990.0 0.00062689
9010.0 0.00047544
9030.0 0.00041179
9050.0 0.00042408
9070.0 0.00043551
9090.0 0.0004445
9110.0 0.00045473
9130.0 0.00046229
9150.0 0.00046795
9170.0 0.00047396
9190.0 0.00048039
9210.0 0.00048713
9230.0 0.00049427
9250.0 0.00050157
9270.0 0.00050912
9290.0 0.00051688
9310.0 0.00052473
9330.0 0.00053274
9350.0 0.000541
9370.0 0.00054937
9390.0 0.00055785
9410.0 0.00056655
9430.0 0.00057548
9450.0 0.00058444
9470.0 0.00059358
9490.0 0.00060294
9510.0 0.00061243
9530.0 0.00062201
9550.0 0.00063187
9570.0 0.00064188
9590.0 0.00065197
9610.0 0.00066224
9630.0 0.00067273
9650.0 0.00068333
9670.0 0.000694
9690.0 0.00070491
9710.0 0.00071598
9730.0 0.00072711
9750.0 0.0007384
9770.0 0.00074996
9790.0 0.00076154
9810.0 0.00077322
9830.0 0.00078509
9850.0 0.00079711
9870.0 0.00080913
9890.0 0.00082132
9910.0 0.00083369
9930.0 0.00084609
9950.0 0.00085857
9970.0 0.00087122
9990.0 0.00088397
10010.0 0.0008174
10030.0 0.00082888
10050.0 0.00084045
10070.0 0.00085192
10090.0 0.00086356
10110.0 0.00087534
10130.0 0.00088712
10150.0 0.00089885
10170.0 0.00091063
10190.0 0.00092248
10210.0 0.00093425
10230.0 0.00094599
10250.0 0.00095779
10270.0 0.00096955
10290.0 0.00098122
10310.0 0.00099292
10330.0 0.0010046
10350.0 0.0010162
10370.0 0.0010277
10390.0 0.0010392
10410.0 0.0010506
10430.0 0.0010618
10450.0 0.0010731
10470.0 0.0010842
10490.0 0.0010952
10510.0 0.001106
10530.0 0.0011168
10550.0 0.0011274
10570.0 0.0011379
10590.0 0.0011482
10610.0 0.0011584
10630.0 0.0011683
10650.0 0.0011781
10670.0 0.0011878
10690.0 0.0011973
10710.0 0.0012065
10730.0 0.0012156
10750.0 0.0012245
10770.0 0.0012331
10790.0 0.0012415
10810.0 0.0012497
10830.0 0.0012575
10850.0 0.001265
10870.0 0.001272
10890.0 0.0012782
10910.0 0.0012832
10930.0 0.0012862
10950.0 0.0012863
10970.0 0.0012825
10990.0 0.0012747
11010.0 0.0012936
11030.0 0.0012741
11050.0 0.00125
11070.0 0.0012208
11090.0 0.0011855
11110.0 0.0011487
11130.0 0.0011103
11150.0 0.001069
11170.0 0.0010264
11190.0 0.00098533
11210.0 0.00094315
11230.0 0.00090025
11250.0 0.00085962
11270.0 0.00082095
11290.0 0.00078258
11310.0 0.00074654
11330.0 0.00071498
11350.0 0.0006853
11370.0 0.00065791
11390.0 0.0006341
11410.0 0.00061308
11430.0 0.00059327
11450.0 0.00057579
11470.0 0.0005602
11490.0 0.00054524
11510.0 0.00053039
11530.0 0.0005162
11550.0 0.00050186
11570.0 0.00048649
11590.0 0.00047057
11610.0 0.00045443
11630.0 0.00043708
11650.0 0.00041874
11670.0 0.00040082
11690.0 0.00038284
11710.0 0.00036449
11730.0 0.00034683
11750.0 0.00033053
11770.0 0.00031461
11790.0 0.0002997
11810.0 0.0002865
11830.0 0.0002746
11850.0 0.00026354
11870.0 0.00025409
11890.0 0.000246
11910.0 0.00023868
11930.0 0.00023214
11950.0 0.00022641
11970.0 0.00022107
11990.0 0.00021584
12010.0 0.00021083
12030.0 0.0002059
12050.0 0.00020077
12070.0 0.00019544
12090.0 0.00019025
12110.0 0.00018496
12130.0 0.0001796
12150.0 0.00017449
12170.0 0.00016978
12190.0 0.0001653
12210.0 0.00016149
12230.0 0.0001585
12250.0 0.00015632
12270.0 0.0001551
12290.0 0.00015491
12310.0 0.00015569
12330.0 0.00015757
12350.0 0.00016047
12370.0 0.00016412
12390.0 0.00016861
12410.0 0.00017413
12430.0 0.00017982
12450.0 0.00018576
12470.0 0.00019212
12490.0 0.00019849
12510.0 0.00020436
12530.0 0.00021015
12550.0 0.00021563
12570.0 0.00022029
12590.0 0.0002242
12610.0 0.00022754
12630.0 0.00022995
12650.0 0.00023127
12670.0 0.00023178
12690.0 0.00023138
12710.0 0.00023006
12730.0 0.00022792
12750.0 0.00022493
12770.0 0.00022121
12790.0 0.00021695
12810.0 0.00021208
12830.0 0.00020664
12850.0 0.00020102
12870.0 0.00019515
12890.0 0.0001889
12910.0 0.00018258
12930.0 0.00017633
12950.0 0.00016986
12970.0 0.00016326
12990.0 0.00015695
13010.0 0.00015069
13030.0 0.00014433
13050.0 0.00013815
13070.0 0.00013228
13090.0 0.00012636
13110.0 0.00012056
13130.0 0.00011515
13150.0 0.00010996
13170.0 0.00010485
13190.0 0.00010023
13210.0 9.61e-05
13230.0 9.227e-05
13250.0 8.8896e-05
13270.0 8.6128e-05
13290.0 8.3852e-05
13310.0 8.2098e-05
13330.0 8.0984e-05
13350.0 8.0458e-05
13370.0 8.0527e-05
13390.0 8.122e-05
13410.0 8.2378e-05
13430.0 8.4042e-05
13450.0 8.622e-05
13470.0 8.8708e-05
13490.0 9.1392e-05
13510.0 9.4488e-05
13530.0 9.7666e-05
13550.0 0.00010073
13570.0 0.00010379
13590.0 0.00010681
13610.0 0.00010951
13630.0 0.00011187
13650.0 0.00011406
13670.0 0.00011588
13690.0 0.00011727
13710.0 0.00011834
13730.0 0.00011909
13750.0 0.00011941
13770.0 0.00011941
13790.0 0.0001191
13810.0 0.00011849
13830.0 0.00011764
13850.0 0.00011653
13870.0 0.00011517
13890.0 0.00011365
13910.0 0.00011197
13930.0 0.00011007
13950.0 0.00010804
13970.0 0.00010599
13990.0 0.0001038
14010.0 0.00010152
14030.0 9.9265e-05
14050.0 9.7027e-05
14070.0 9.4701e-05
14090.0 9.2493e-05
14110.0 9.0436e-05
14130.0 8.8459e-05
14150.0 8.6611e-05
14170.0 8.5036e-05
14190.0 8.3676e-05
14210.0 8.2521e-05
14230.0 8.1657e-05
14250.0 8.1087e-05
14270.0 8.0792e-05
14290.0 8.0812e-05
14310.0 8.1121e-05
14330.0 8.1707e-05
14350.0 8.2593e-05
14370.0 8.3716e-05
14390.0 8.5013e-05
14410.0 8.6566e-05
14430.0 8.8305e-05
14450.0 9.0119e-05
14470.0 9.2046e-05
14490.0 9.4155e-05
14510.0 9.6241e-05
14530.0 9.83e-05
14550.0 0.00010045
14570.0 0.00010262
14590.0 0.00010471
14610.0 0.00010685
14630.0 0.0001091
14650.0 0.00011132
14670.0 0.00011358
14690.0 0.00011602
14710.0 0.00011864
14730.0 0.00012127
14750.0 0.00012414
14770.0 0.00012731
14790.0 0.00013064
14810.0 0.00013412
14830.0 0.00013806
14850.0 0.00014217
14870.0 0.0001463
14890.0 0.0001506
14910.0 0.00015502
14930.0 0.00015917
14950.0 0.00016298
14970.0 0.00016652
14990.0 0.00016948
15010.0 0.00017174
15030.0 0.00017345
15050.0 0.00017461
15070.0 0.00017527
15090.0 0.0001756
15110.0 0.00017571
15130.0 0.00017568
15150.0 0.0001756
15170.0 0.00017546
15190.0 0.00017531
15210.0 0.00017517
15230.0 0.00017503
15250.0 0.00017487
15270.0 0.00017472
15290.0 0.0001746
15310.0 0.00017447
15330.0 0.00017433
15350.0 0.00017421
15370.0 0.0001741
15390.0 0.00017396
15410.0 0.00017384
15430.0 0.00017373
15450.0 0.00017361
15470.0 0.00017349
15490.0 0.00017338
15510.0 0.00017328
15530.0 0.00017316
15550.0 0.00017305
15570.0 0.00017296
15590.0 0.00017284
15610.0 0.00017272
15630.0 0.00017262
15650.0 0.00017252
15670.0 0.0001724
15690.0 0.0001723
15710.0 0.0001722
15730.0 0.00017209
15750.0 0.00017197
15770.0 0.00017186
15790.0 0.00017176
15810.0 0.00017162
15830.0 0.00017151
15850.0 0.0001714
15870.0 0.00017128
15890.0 0.00017115
15910.0 0.00017104
15930.0 0.00017092
15950.0 0.00017078
15970.0 0.00017065
15990.0 0.00017052
16010.0 0.00017038
16030.0 0.00017023
16050.0 0.0001701
16070.0 0.00016996
16090.0 0.0001698
16110.0 0.00016965
16130.0 0.0001695
16150.0 0.00016933
16170.0 0.00016916
16190.0 0.000169
16210.0 0.00016883
16230.0 0.00016864
16250.0 0.00016846
16270.0 0.00016829
16290.0 0.00016809
16310.0 0.00016789
16330.0 0.0001677
16350.0 0.0001675
16370.0 0.00016727
16390.0 0.00016706
16410.0 0.00016685
16430.0 0.00016662
16450.0 0.00016639
16470.0 0.00016617
16490.0 0.00016593
16510.0 0.00016567
16530.0 0.00016543
16550.0 0.00016518
16570.0 0.00016491
16590.0 0.00016463
16610.0 0.00016438
16630.0 0.0001641
16650.0 0.0001638
16670.0 0.00016352
16690.0 0.00016324
16710.0 0.00016292
16730.0 0.00016261
16750.0 0.00016231
16770.0 0.00016199
16790.0 0.00016165
16810.0 0.00016133
16830.0 0.000161
16850.0 0.00016065
16870.0 0.00016031
16890.0 0.00015997
16910.0 0.0001596
16930.0 0.00015922
16950.0 0.00015886
16970.0 0.00015849
16990.0 0.00015809
17010.0 0.00015771
17030.0 0.00015733
17050.0 0.00015692
17070.0 0.00015651
17090.0 0.0001561
17110.0 0.00015569
17130.0 0.00015525
17150.0 0.00015482
17170.0 0.0001544
17190.0 0.00015395
17210.0 0.0001535
17230.0 0.00015307
17250.0 0.00015261
17270.0 0.00015213
17290.0 0.00015167
17310.0 0.00015121
17330.0 0.00015072
17350.0 0.00015022
17370.0 0.00014975
17390.0 0.00014926
17410.0 0.00014875
17430.0 0.00014825
17450.0 0.00014776
17470.0 0.00014723
17490.0 0.0001467
17510.0 0.00014619
17530.0 0.00014566
17550.0 0.00014512
17570.0 0.00014459
17590.0 0.00014406
17610.0 0.0001435
17630.0 0.00014295
17650.0 0.00014241
17670.0 0.00014185
17690.0 0.00014126
17710.0 0.00014071
17730.0 0.00014015
17750.0 0.00013956
17770.0 0.00013898
17790.0 0.00013842
17810.0 0.00013783
17830.0 0.00013723
17850.0 0.00013664
17870.0 0.00013605
17890.0 0.00013544
17910.0 0.00013483
17930.0 0.00013424
17950.0 0.00013363
17970.0 0.00013301
17990.0 0.0001324
18010.0 0.00013179
18030.0 0.00013115
18050.0 0.00013053
18070.0 0.00012992
18090.0 0.00012928
18110.0 0.00012864
18130.0 0.00012802
18150.0 0.00012739
18170.0 0.00012674
18190.0 0.00012611
18210.0 0.00012548
18230.0 0.00012483
18250.0 0.00012417
18270.0 0.00012353
18290.0 0.00012289
18310.0 0.00012223
18330.0 0.00012158
18350.0 0.00012094
18370.0 0.00012028
18390.0 0.00011962
18410.0 0.00011897
18430.0 0.00011831
18450.0 0.00011764
18470.0 0.00011698
18490.0 0.00011633
18510.0 0.00011567
18530.0 0.000115
18550.0 0.00011435
18570.0 0.00011369
18590.0 0.00011301
18610.0 0.00011235
18630.0 0.00011169
18650.0 0.00011102
18670.0 0.00011035
18690.0 0.0001097
18710.0 0.00010904
18730.0 0.00010836
18750.0 0.0001077
18770.0 0.00010705
18790.0 0.00010637
18810.0 0.0001057
18830.0 0.00010505
18850.0 0.00010438
18870.0 0.00010371
18890.0 0.00010306
18910.0 0.0001024
18930.0 0.00010173
18950.0 0.00010107
18970.0 0.00010042
18990.0 9.976e-05
19010.0 9.9081e-05
19030.0 9.8436e-05
19050.0 9.7787e-05
19070.0 9.7123e-05
19090.0 9.6469e-05
19110.0 9.5832e-05
19130.0 9.5172e-05
19150.0 9.4512e-05
19170.0 9.3869e-05
19190.0 9.3226e-05
19210.0 9.2567e-05
19230.0 9.1918e-05
19250.0 9.1289e-05
19270.0 9.0643e-05
19290.0 8.9996e-05
19310.0 8.9366e-05
19330.0 8.8735e-05
19350.0 8.808e-05
19370.0 8.7447e-05
19390.0 8.6823e-05
19410.0 8.6187e-05
19430.0 8.5549e-05
19450.0 8.4933e-05
19470.0 8.4312e-05
19490.0 8.3678e-05
19510.0 8.3058e-05
19530.0 8.2449e-05
19550.0 8.1821e-05
19570.0 8.1193e-05
19590.0 8.059e-05
19610.0 7.998e-05
19630.0 7.936e-05
19650.0 7.8756e-05
19670.0 7.8162e-05
19690.0 7.7549e-05
19710.0 7.6941e-05
19730.0 7.635e-05
19750.0 7.5753e-05
19770.0 7.5142e-05
19790.0 7.4553e-05
19810.0 7.3971e-05
19830.0 7.3375e-05
19850.0 7.2779e-05
19870.0 7.2197e-05
19890.0 7.1588e-05
19910.0 7.0945e-05
19930.0 7.0281e-05
19950.0 6.9563e-05
19970.0 6.8737e-05
19990.0 6.7801e-05
20010.0 6.5861e-05
20030.0 6.4702e-05
20050.0 6.3397e-05
20070.0 6.2022e-05
20090.0 6.0579e-05
20110.0 5.899e-05
20130.0 5.7409e-05
20150.0 5.5865e-05
20170.0 5.429e-05
20190.0 5.2714e-05
20210.0 5.1236e-05
20230.0 4.9805e-05
20250.0 4.8382e-05
20270.0 4.7062e-05
20290.0 4.5855e-05
20310.0 4.4706e-05
20330.0 4.3627e-05
20350.0 4.2716e-05
20370.0 4.1897e-05
20390.0 4.1167e-05
20410.0 4.0559e-05
20430.0 4.0071e-05
20450.0 3.9666e-05
20470.0 3.937e-05
20490.0 3.9177e-05
20510.0 3.9072e-05
20530.0 3.9054e-05
20550.0 3.9116e-05
20570.0 3.9241e-05
20590.0 3.9437e-05
20610.0 3.9694e-05
20630.0 3.9987e-05
20650.0 4.0326e-05
20670.0 4.0727e-05
20690.0 4.1139e-05
20710.0 4.1566e-05
20730.0 4.2031e-05
20750.0 4.2516e-05
20770.0 4.2986e-05
20790.0 4.3477e-05
20810.0 4.3992e-05
20830.0 4.4494e-05
20850.0 4.4991e-05
20870.0 4.5517e-05
20890.0 4.6046e-05
20910.0 4.6545e-05
20930.0 4.7058e-05
20950.0 4.7586e-05
20970.0 4.8094e-05
20990.0 4.859e-05
21010.0 4.9113e-05
21030.0 4.9621e-05
21050.0 5.0102e-05
21070.0 5.0585e-05
21090.0 5.1073e-05
21110.0 5.1517e-05
21130.0 5.1936e-05
21150.0 5.2351e-05
21170.0 5.2733e-05
21190.0 5.3067e-05
21210.0 5.3382e-05
21230.0 5.3663e-05
21250.0 5.3882e-05
21270.0 5.4049e-05
21290.0 5.4167e-05
21310.0 5.4216e-05
21330.0 5.4192e-05
21350.0 5.4097e-05
21370.0 5.3917e-05
21390.0 5.3656e-05
21410.0 5.3311e-05
21430.0 5.2852e-05
21450.0 5.231e-05
21470.0 5.1695e-05
21490.0 5.0979e-05
21510.0 5.0169e-05
21530.0 4.932e-05
21550.0 4.8408e-05
21570.0 4.7411e-05
21590.0 4.6402e-05
21610.0 4.54e-05
21630.0 4.4368e-05
21650.0 4.3327e-05
21670.0 4.2386e-05
21690.0 4.1482e-05
21710.0 4.0624e-05
21730.0 3.9866e-05
21750.0 3.922e-05
21770.0 3.8646e-05
21790.0 3.8194e-05
21810.0 3.7872e-05
21830.0 3.7665e-05
21850.0 3.7578e-05
21870.0 3.7612e-05
21890.0 3.775e-05
21910.0 3.8003e-05
21930.0 3.8359e-05
21950.0 3.8789e-05
21970.0 3.9305e-05
21990.0 3.9927e-05
22010.0 4.0581e-05
22030.0 4.1275e-05
22050.0 4.2036e-05
22070.0 4.2832e-05
22090.0 4.3609e-05
22110.0 4.442e-05
22130.0 4.5257e-05
22150.0 4.6062e-05
22170.0 4.6841e-05
22190.0 4.7636e-05
22210.0 4.8396e-05
22230.0 4.9078e-05
22250.0 4.9734e-05
22270.0 5.0352e-05
22290.0 5.0889e-05
22310.0 5.1358e-05
22330.0 5.1782e-05
22350.0 5.2118e-05
22370.0 5.2363e-05
22390.0 5.2532e-05
22410.0 5.2612e-05
22430.0 5.2593e-05
22450.0 5.2484e-05
22470.0 5.2275e-05
22490.0 5.1968e-05
22510.0 5.1576e-05
22530.0 5.1071e-05
22550.0 5.0453e-05
22570.0 4.9764e-05
22590.0 4.8984e-05
22610.0 4.8087e-05
22630.0 4.7112e-05
22650.0 4.6101e-05
22670.0 4.4981e-05
22690.0 4.3781e-05
22710.0 4.2563e-05
22730.0 4.1304e-05
22750.0 3.9933e-05
22770.0 3.8585e-05
22790.0 3.7262e-05
22810.0 3.5898e-05
22830.0 3.4532e-05
22850.0 3.3246e-05
22870.0 3.1982e-05
22890.0 3.0721e-05
