#lamb flux
1010.0 6.4039e-06
1030.0 7.0139e-06
1050.0 7.7155e-06
1070.0 8.5055e-06
1090.0 9.4028e-06
1110.0 1.0323e-05
1130.0 1.125e-05
1150.0 1.222e-05
1170.0 1.3222e-05
1190.0 1.4171e-05
1210.0 1.5134e-05
1230.0 1.6129e-05
1250.0 1.7104e-05
1270.0 1.8051e-05
1290.0 1.9052e-05
1310.0 2.0052e-05
1330.0 2.1012e-05
1350.0 2.1983e-05
1370.0 2.2985e-05
1390.0 2.3963e-05
1410.0 2.4911e-05
1430.0 2.5903e-05
1450.0 2.6896e-05
1470.0 2.7855e-05
1490.0 2.8824e-05
1510.0 2.9849e-05
1530.0 3.0819e-05
1550.0 3.1777e-05
1570.0 3.2767e-05
1590.0 3.3759e-05
1610.0 3.4706e-05
1630.0 3.5682e-05
1650.0 3.6683e-05
1670.0 3.7651e-05
1690.0 3.8605e-05
1710.0 3.9596e-05
1730.0 4.059e-05
1750.0 4.1524e-05
1770.0 4.2483e-05
1790.0 4.3459e-05
1810.0 4.4402e-05
1830.0 4.5324e-05
1850.0 4.6302e-05
1870.0 4.7249e-05
1890.0 4.8158e-05
1910.0 4.9082e-05
1930.0 5.0023e-05
1950.0 5.0912e-05
1970.0 5.1783e-05
1990.0 5.2681e-05
2010.0 5.3554e-05
2030.0 5.4382e-05
2050.0 5.5228e-05
2070.0 5.6085e-05
2090.0 5.6874e-05
2110.0 5.7645e-05
2130.0 5.8428e-05
2150.0 5.9176e-05
2170.0 5.9866e-05
2190.0 6.057e-05
2210.0 6.1259e-05
2230.0 6.1889e-05
2250.0 6.2492e-05
2270.0 6.3109e-05
2290.0 6.3671e-05
2310.0 6.417e-05
2330.0 6.4667e-05
2350.0 6.5144e-05
2370.0 6.5556e-05
2390.0 6.5951e-05
2410.0 6.6368e-05
2430.0 6.6748e-05
2450.0 6.7114e-05
2470.0 6.7544e-05
2490.0 6.8091e-05
2510.0 6.8773e-05
2530.0 6.989e-05
2550.0 7.1904e-05
2570.0 7.5257e-05
2590.0 8.046e-05
2610.0 8.8911e-05
2630.0 0.00010082
2650.0 0.0001154
2670.0 0.00013271
2690.0 0.00015195
2710.0 0.00017032
2730.0 0.00018652
2750.0 0.00020087
2770.0 0.00021197
2790.0 0.00021982
2810.0 0.00022562
2830.0 0.00023021
2850.0 0.00023346
2870.0 0.00023621
2890.0 0.00023898
2910.0 0.00024166
2930.0 0.00024403
2950.0 0.0002466
2970.0 0.00024926
2990.0 0.00025168
3010.0 0.0023116
3030.0 0.0023341
3050.0 0.0023555
3070.0 0.0023716
3090.0 0.0023847
3110.0 0.0023901
3130.0 0.0023821
3150.0 0.0023579
3170.0 0.0023119
3190.0 0.0022447
3210.0 0.0021623
3230.0 0.0020744
3250.0 0.0020662
3270.0 0.0020001
3290.0 0.0020788
3310.0 0.0020037
3330.0 0.0020422
3350.0 0.002111
3370.0 0.0022011
3390.0 0.0023079
3410.0 0.0024185
3430.0 0.0025368
3450.0 0.002664
3470.0 0.002792
3490.0 0.0029151
3510.0 0.0030707
3530.0 0.0032567
3550.0 0.0033742
3570.0 0.003461
3590.0 0.0036887
3610.0 0.0037455
3630.0 0.0040266
3650.0 0.0042338
3670.0 0.0044535
3690.0 0.0044882
3710.0 0.0043634
3730.0 0.0044274
3750.0 0.0044279
3770.0 0.0046103
3790.0 0.0048823
3810.0 0.0054311
3830.0 0.0065715
3850.0 0.007827
3870.0 0.0090117
3890.0 0.0097912
3910.0 0.010155
3930.0 0.010563
3950.0 0.01098
3970.0 0.0096286
3990.0 0.00654
4010.0 0.0056553
4030.0 0.0077269
4050.0 0.0097415
4070.0 0.0086584
4090.0 0.0053376
4110.0 0.0051932
4130.0 0.007385
4150.0 0.0083717
4170.0 0.0070479
4190.0 0.0060134
4210.0 0.0078893
4230.0 0.0082852
4250.0 0.0078694
4270.0 0.0079281
4290.0 0.0072288
4310.0 0.008115
4330.0 0.0094579
4350.0 0.010864
4370.0 0.010817
4390.0 0.010544
4410.0 0.0093067
4430.0 0.0073412
4450.0 0.0055879
4470.0 0.0060619
4490.0 0.0065614
4510.0 0.0089876
4530.0 0.0093722
4550.0 0.009226
4570.0 0.010719
4590.0 0.01367
4610.0 0.018702
4630.0 0.02294
4650.0 0.02316
4670.0 0.02391
4690.0 0.025769
4710.0 0.025235
4730.0 0.02034
4750.0 0.014501
4770.0 0.012109
4790.0 0.010677
4810.0 0.010119
4830.0 0.011057
4850.0 0.012418
4870.0 0.014578
4890.0 0.016007
4910.0 0.01425
4930.0 0.01483
4950.0 0.018438
4970.0 0.022839
4990.0 0.026246
5010.0 0.026236
5030.0 0.022218
5050.0 0.016086
5070.0 0.011786
5090.0 0.010195
5110.0 0.010464
5130.0 0.011398
5150.0 0.010731
5170.0 0.01069
5190.0 0.010644
5210.0 0.010837
5230.0 0.011725
5250.0 0.012102
5270.0 0.013036
5290.0 0.015641
5310.0 0.017726
5330.0 0.018719
5350.0 0.019091
5370.0 0.020385
5390.0 0.021195
5410.0 0.019477
5430.0 0.017739
5450.0 0.01812
5470.0 0.021461
5490.0 0.027512
5510.0 0.03305
5530.0 0.034784
5550.0 0.03376
5570.0 0.031899
5590.0 0.029854
5610.0 0.028547
5630.0 0.029029
5650.0 0.02997
5670.0 0.028998
5690.0 0.027289
5710.0 0.026612
5730.0 0.023529
5750.0 0.018774
5770.0 0.01709
5790.0 0.019244
5810.0 0.021411
5830.0 0.023895
5850.0 0.024543
5870.0 0.023887
5890.0 0.022625
5910.0 0.021073
5930.0 0.021011
5950.0 0.022175
5970.0 0.022637
5990.0 0.019988
6010.0 0.016275
6030.0 0.013182
6050.0 0.011928
6070.0 0.012645
6090.0 0.014201
6110.0 0.014551
6130.0 0.013629
6150.0 0.013509
6170.0 0.014933
6190.0 0.017428
6210.0 0.020875
6230.0 0.023566
6250.0 0.022357
6270.0 0.01952
6290.0 0.016302
6310.0 0.012928
6330.0 0.010951
6350.0 0.010813
6370.0 0.011868
6390.0 0.013093
6410.0 0.015318
6430.0 0.018851
6450.0 0.02321
6470.0 0.027232
6490.0 0.030782
6510.0 0.032624
6530.0 0.031478
6550.0 0.030239
6570.0 0.030383
6590.0 0.030205
6610.0 0.028748
6630.0 0.027077
6650.0 0.025191
6670.0 0.024953
6690.0 0.024324
6710.0 0.022491
6730.0 0.019568
6750.0 0.017439
6770.0 0.017988
6790.0 0.019204
6810.0 0.020866
6830.0 0.021272
6850.0 0.019992
6870.0 0.019404
6890.0 0.019013
6910.0 0.017966
6930.0 0.01735
6950.0 0.017481
6970.0 0.017855
6990.0 0.018882
7010.0 0.020327
7030.0 0.019927
7050.0 0.018059
7070.0 0.016225
7090.0 0.013865
7110.0 0.012349
7130.0 0.012977
7150.0 0.014059
7170.0 0.014325
7190.0 0.013998
7210.0 0.013852
7230.0 0.015553
7250.0 0.017714
7270.0 0.019065
7290.0 0.01924
7310.0 0.018298
7330.0 0.016806
7350.0 0.015543
7370.0 0.014762
7390.0 0.014599
7410.0 0.015606
7430.0 0.017977
7450.0 0.020071
7470.0 0.022594
7490.0 0.025831
7510.0 0.024703
7530.0 0.020818
7550.0 0.017563
7570.0 0.014613
7590.0 0.012099
7610.0 0.011721
7630.0 0.012318
7650.0 0.013603
7670.0 0.015594
7690.0 0.01718
7710.0 0.01939
7730.0 0.020282
7750.0 0.020997
7770.0 0.022224
7790.0 0.022451
7810.0 0.02213
7830.0 0.020972
7850.0 0.020509
7870.0 0.019858
7890.0 0.018261
7910.0 0.016653
7930.0 0.015151
7950.0 0.013018
7970.0 0.012385
7990.0 0.012801
8010.0 0.014844
8030.0 0.01494
8050.0 0.015522
8070.0 0.015272
8090.0 0.015279
8110.0 0.014909
8130.0 0.014084
8150.0 0.013098
8170.0 0.012992
8190.0 0.013171
8210.0 0.013316
8230.0 0.012477
8250.0 0.01173
8270.0 0.010331
8290.0 0.008493
8310.0 0.0067268
8330.0 0.0048199
8350.0 0.0036248
8370.0 0.003408
8390.0 0.0037609
8410.0 0.0044412
8430.0 0.005575
8450.0 0.0061597
8470.0 0.0066043
8490.0 0.0072636
8510.0 0.0077928
8530.0 0.0086491
8550.0 0.010221
8570.0 0.01167
8590.0 0.012798
8610.0 0.01473
8630.0 0.017045
8650.0 0.017964
8670.0 0.018237
8690.0 0.018157
8710.0 0.017537
8730.0 0.016819
8750.0 0.015777
8770.0 0.015512
8790.0 0.015007
8810.0 0.013884
8830.0 0.013125
8850.0 0.011442
8870.0 0.010487
8890.0 0.0096583
8910.0 0.010597
8930.0 0.010029
8950.0 0.010214
8970.0 0.01041
8990.0 0.010345
9010.0 0.01048
9030.0 0.010113
9050.0 0.010087
9070.0 0.010097
9090.0 0.010107
9110.0 0.010122
9130.0 0.010132
9150.0 0.010142
9170.0 0.010137
9190.0 0.010113
9210.0 0.010219
9230.0 0.010209
9250.0 0.010212
9270.0 0.010218
9290.0 0.010226
9310.0 0.010237
9330.0 0.010249
9350.0 0.010262
9370.0 0.010276
9390.0 0.01029
9410.0 0.010304
9430.0 0.01032
9450.0 0.010335
9470.0 0.010351
9490.0 0.010367
9510.0 0.010384
9530.0 0.010401
9550.0 0.010419
9570.0 0.010438
9590.0 0.010457
9610.0 0.010476
9630.0 0.010496
9650.0 0.010516
9670.0 0.010537
9690.0 0.010559
9710.0 0.010581
9730.0 0.010603
9750.0 0.010626
9770.0 0.01065
9790.0 0.010674
9810.0 0.010698
9830.0 0.010723
9850.0 0.010749
9870.0 0.010775
9890.0 0.010801
9910.0 0.010828
9930.0 0.010855
9950.0 0.010876
9970.0 0.010906
9990.0 0.010936
10010.0 0.010964
10030.0 0.010993
10050.0 0.011019
10070.0 0.011024
10090.0 0.011062
10110.0 0.011099
10130.0 0.011134
10150.0 0.011168
10170.0 0.0112
10190.0 0.011231
10210.0 0.011261
10230.0 0.011292
10250.0 0.011322
10270.0 0.011352
10290.0 0.011382
10310.0 0.011411
10330.0 0.01144
10350.0 0.011469
10370.0 0.011498
10390.0 0.011526
10410.0 0.011554
10430.0 0.011583
10450.0 0.01161
10470.0 0.011636
10490.0 0.011663
10510.0 0.011689
10530.0 0.011713
10550.0 0.011737
10570.0 0.011762
10590.0 0.011785
10610.0 0.011807
10630.0 0.011829
10650.0 0.01185
10670.0 0.01187
10690.0 0.011889
10710.0 0.011908
10730.0 0.011925
10750.0 0.011941
10770.0 0.011958
10790.0 0.011973
10810.0 0.011986
10830.0 0.011998
10850.0 0.012009
10870.0 0.012015
10890.0 0.012015
10910.0 0.012005
10930.0 0.011979
10950.0 0.011925
10970.0 0.011838
10990.0 0.011716
11010.0 0.011801
11030.0 0.011556
11050.0 0.011275
11070.0 0.010954
11090.0 0.010583
11110.0 0.010215
11130.0 0.0098476
11150.0 0.009472
11170.0 0.0091085
11190.0 0.0087801
11210.0 0.0084664
11230.0 0.0081724
11250.0 0.0079177
11270.0 0.0076959
11290.0 0.0074949
11310.0 0.0073224
11330.0 0.0071823
11350.0 0.0070567
11370.0 0.0069424
11390.0 0.0068398
11410.0 0.0067414
11430.0 0.0066355
11450.0 0.0065251
11470.0 0.006409
11490.0 0.0062795
11510.0 0.0061338
11530.0 0.0059828
11550.0 0.0058238
11570.0 0.0056509
11590.0 0.0054745
11610.0 0.0053016
11630.0 0.0051233
11650.0 0.0049444
11670.0 0.0047791
11690.0 0.0046212
11710.0 0.0044672
11730.0 0.0043247
11750.0 0.0041967
11770.0 0.0040733
11790.0 0.0039573
11810.0 0.0038524
11830.0 0.0037536
11850.0 0.0036553
11870.0 0.0035632
11890.0 0.0034758
11910.0 0.0033869
11930.0 0.0032968
11950.0 0.0032092
11970.0 0.0031197
11990.0 0.0030253
12010.0 0.0029321
12030.0 0.0028404
12050.0 0.0027465
12070.0 0.0026526
12090.0 0.002567
12110.0 0.002485
12130.0 0.0024074
12150.0 0.0023397
12170.0 0.002283
12190.0 0.002235
12210.0 0.0022007
12230.0 0.0021808
12250.0 0.0021746
12270.0 0.0021837
12290.0 0.0022067
12310.0 0.0022417
12330.0 0.0022909
12350.0 0.0023512
12370.0 0.0024177
12390.0 0.0024915
12410.0 0.0025742
12430.0 0.0026533
12450.0 0.0027304
12470.0 0.0028069
12490.0 0.0028777
12510.0 0.002938
12530.0 0.0029921
12550.0 0.003038
12570.0 0.0030718
12590.0 0.0030951
12610.0 0.0031093
12630.0 0.0031128
12650.0 0.0031062
12670.0 0.0030914
12690.0 0.0030682
12710.0 0.0030384
12730.0 0.003003
12750.0 0.0029608
12770.0 0.0029147
12790.0 0.0028661
12810.0 0.0028136
12830.0 0.0027573
12850.0 0.0027008
12870.0 0.0026423
12890.0 0.0025799
12910.0 0.0025157
12930.0 0.0024509
12950.0 0.0023814
12970.0 0.0023079
12990.0 0.002235
13010.0 0.0021599
13030.0 0.0020811
13050.0 0.0020025
13070.0 0.0019269
13090.0 0.0018498
13110.0 0.0017747
13130.0 0.0017057
13150.0 0.0016414
13170.0 0.0015804
13190.0 0.0015286
13210.0 0.0014854
13230.0 0.001449
13250.0 0.0014208
13270.0 0.0014012
13290.0 0.0013887
13310.0 0.0013832
13330.0 0.0013838
13350.0 0.0013892
13370.0 0.0013989
13390.0 0.0014118
13410.0 0.0014251
13430.0 0.0014393
13450.0 0.0014536
13470.0 0.0014663
13490.0 0.0014769
13510.0 0.0014865
13530.0 0.0014936
13550.0 0.0014983
13570.0 0.0015014
13590.0 0.001503
13610.0 0.0015034
13630.0 0.0015029
13650.0 0.0015021
13670.0 0.0015012
13690.0 0.0015003
13710.0 0.0014995
13730.0 0.0014991
13750.0 0.0014984
13770.0 0.0014976
13790.0 0.0014965
13810.0 0.0014947
13830.0 0.0014919
13850.0 0.0014878
13870.0 0.0014822
13890.0 0.0014749
13910.0 0.001466
13930.0 0.0014551
13950.0 0.0014425
13970.0 0.0014292
13990.0 0.0014147
14010.0 0.0013995
14030.0 0.0013847
14050.0 0.0013703
14070.0 0.001356
14090.0 0.0013432
14110.0 0.0013319
14130.0 0.0013218
14150.0 0.0013131
14170.0 0.0013062
14190.0 0.0013007
14210.0 0.0012965
14230.0 0.0012938
14250.0 0.0012925
14270.0 0.0012927
14290.0 0.0012947
14310.0 0.001298
14330.0 0.001303
14350.0 0.0013099
14370.0 0.0013184
14390.0 0.001328
14410.0 0.0013396
14430.0 0.0013525
14450.0 0.001366
14470.0 0.0013805
14490.0 0.0013968
14510.0 0.0014134
14530.0 0.0014306
14550.0 0.0014497
14570.0 0.0014706
14590.0 0.0014926
14610.0 0.0015174
14630.0 0.0015463
14650.0 0.0015777
14670.0 0.0016121
14690.0 0.0016515
14710.0 0.0016956
14730.0 0.0017405
14750.0 0.0017896
14770.0 0.0018426
14790.0 0.001896
14810.0 0.0019489
14830.0 0.0020052
14850.0 0.0020592
14870.0 0.0021087
14890.0 0.0021556
14910.0 0.0021991
14930.0 0.0022355
14950.0 0.0022654
14970.0 0.00229
14990.0 0.0023077
15010.0 0.0023189
15030.0 0.0023252
15050.0 0.0023271
15070.0 0.0023257
15090.0 0.0023222
15110.0 0.0023172
15130.0 0.0023115
15150.0 0.0023057
15170.0 0.0022995
15190.0 0.0022931
15210.0 0.0022869
15230.0 0.0022808
15250.0 0.0022745
15270.0 0.0022683
15290.0 0.0022624
15310.0 0.0022564
15330.0 0.0022503
15350.0 0.0022445
15370.0 0.0022387
15390.0 0.0022326
15410.0 0.0022268
15430.0 0.0022211
15450.0 0.0022153
15470.0 0.0022094
15490.0 0.0022039
15510.0 0.0021983
15530.0 0.0021925
15550.0 0.0021869
15570.0 0.0021815
15590.0 0.0021758
15610.0 0.00217
15630.0 0.0021646
15650.0 0.0021591
15670.0 0.0021535
15690.0 0.002148
15710.0 0.0021427
15730.0 0.0021371
15750.0 0.0021315
15770.0 0.0021262
15790.0 0.0021208
15810.0 0.0021151
15830.0 0.0021097
15850.0 0.0021044
15870.0 0.0020989
15890.0 0.0020934
15910.0 0.0020881
15930.0 0.0020827
15950.0 0.0020771
15970.0 0.0020716
15990.0 0.0020663
16010.0 0.0020608
16030.0 0.0020551
16050.0 0.0020499
16070.0 0.0020444
16090.0 0.0020388
16110.0 0.0020334
16130.0 0.002028
16150.0 0.0020223
16170.0 0.0020166
16190.0 0.0020112
16210.0 0.0020057
16230.0 0.0019999
16250.0 0.0019944
16270.0 0.0019889
16290.0 0.0019832
16310.0 0.0019775
16330.0 0.0019719
16350.0 0.0019662
16370.0 0.0019602
16390.0 0.0019546
16410.0 0.001949
16430.0 0.0019431
16450.0 0.0019372
16470.0 0.0019316
16490.0 0.0019257
16510.0 0.0019196
16530.0 0.0019138
16550.0 0.001908
16570.0 0.0019018
16590.0 0.0018957
16610.0 0.0018899
16630.0 0.0018839
16650.0 0.0018777
16670.0 0.0018717
16690.0 0.0018657
16710.0 0.0018593
16730.0 0.0018531
16750.0 0.001847
16770.0 0.0018407
16790.0 0.0018342
16810.0 0.0018281
16830.0 0.0018218
16850.0 0.0018153
16870.0 0.0018089
16890.0 0.0018027
16910.0 0.0017961
16930.0 0.0017894
16950.0 0.001783
16970.0 0.0017765
16990.0 0.0017698
17010.0 0.0017632
17030.0 0.0017568
17050.0 0.00175
17070.0 0.0017431
17090.0 0.0017365
17110.0 0.0017298
17130.0 0.0017227
17150.0 0.0017159
17170.0 0.0017093
17190.0 0.0017023
17210.0 0.0016953
17230.0 0.0016885
17250.0 0.0016816
17270.0 0.0016743
17290.0 0.0016673
17310.0 0.0016604
17330.0 0.0016532
17350.0 0.0016459
17370.0 0.001639
17390.0 0.0016318
17410.0 0.0016245
17430.0 0.0016173
17450.0 0.0016102
17470.0 0.0016027
17490.0 0.0015953
17510.0 0.0015881
17530.0 0.0015808
17550.0 0.0015732
17570.0 0.0015659
17590.0 0.0015586
17610.0 0.001551
17630.0 0.0015435
17650.0 0.0015361
17670.0 0.0015286
17690.0 0.0015207
17710.0 0.0015133
17730.0 0.0015058
17750.0 0.0014981
17770.0 0.0014904
17790.0 0.001483
17810.0 0.0014752
17830.0 0.0014674
17850.0 0.0014597
17870.0 0.0014521
17890.0 0.0014442
17910.0 0.0014363
17930.0 0.0014288
17950.0 0.0014209
17970.0 0.001413
17990.0 0.0014053
18010.0 0.0013976
18030.0 0.0013895
18050.0 0.0013816
18070.0 0.0013739
18090.0 0.0013659
18110.0 0.0013578
18130.0 0.0013501
18150.0 0.0013423
18170.0 0.0013342
18190.0 0.0013262
18210.0 0.0013185
18230.0 0.0013104
18250.0 0.0013022
18270.0 0.0012944
18290.0 0.0012864
18310.0 0.0012783
18330.0 0.0012703
18350.0 0.0012625
18370.0 0.0012544
18390.0 0.0012463
18410.0 0.0012384
18430.0 0.0012304
18450.0 0.0012221
18470.0 0.0012141
18490.0 0.0012063
18510.0 0.0011982
18530.0 0.0011901
18550.0 0.0011822
18570.0 0.0011742
18590.0 0.0011659
18610.0 0.001158
18630.0 0.00115
18650.0 0.0011419
18670.0 0.0011337
18690.0 0.0011259
18710.0 0.0011179
18730.0 0.0011097
18750.0 0.0011018
18770.0 0.001094
18790.0 0.0010857
18810.0 0.0010776
18830.0 0.0010698
18850.0 0.0010618
18870.0 0.0010536
18890.0 0.0010458
18910.0 0.0010379
18930.0 0.0010298
18950.0 0.0010218
18970.0 0.001014
18990.0 0.0010061
19010.0 0.00099781
19030.0 0.00099005
19050.0 0.00098224
19070.0 0.00097421
19090.0 0.0009663
19110.0 0.00095864
19130.0 0.00095064
19150.0 0.00094263
19170.0 0.00093488
19190.0 0.0009271
19210.0 0.00091908
19230.0 0.0009112
19250.0 0.00090361
19270.0 0.00089576
19290.0 0.00088788
19310.0 0.00088025
19330.0 0.00087258
19350.0 0.00086456
19370.0 0.00085684
19390.0 0.00084926
19410.0 0.00084148
19430.0 0.00083365
19450.0 0.00082615
19470.0 0.00081856
19490.0 0.00081076
19510.0 0.00080316
19530.0 0.0007957
19550.0 0.00078794
19570.0 0.00078018
19590.0 0.00077278
19610.0 0.00076526
19630.0 0.00075758
19650.0 0.00075011
19670.0 0.00074279
19690.0 0.00073514
19710.0 0.00072758
19730.0 0.00072025
19750.0 0.00071282
19770.0 0.00070515
19790.0 0.0006978
19810.0 0.00069055
19830.0 0.00068306
19850.0 0.00067557
19870.0 0.00066826
19890.0 0.00066054
19910.0 0.00065229
19930.0 0.00064378
19950.0 0.00063451
19970.0 0.00062378
19990.0 0.00061167
20010.0 0.00059872
20030.0 0.00058402
20050.0 0.00056794
20070.0 0.00055169
20090.0 0.00053542
20110.0 0.00051848
20130.0 0.0005028
20150.0 0.00048862
20170.0 0.00047527
20190.0 0.00046309
20210.0 0.00045275
20230.0 0.0004437
20250.0 0.00043565
20270.0 0.00042909
20290.0 0.00042385
20310.0 0.00041961
20330.0 0.0004164
20350.0 0.00041436
20370.0 0.00041321
20390.0 0.00041296
20410.0 0.00041358
20430.0 0.00041497
20450.0 0.0004173
20470.0 0.00042051
20490.0 0.00042441
20510.0 0.00042913
20530.0 0.00043488
20550.0 0.00044127
20570.0 0.00044808
20590.0 0.00045582
20610.0 0.00046414
20630.0 0.00047255
20650.0 0.00048133
20670.0 0.00049074
20690.0 0.00049972
20710.0 0.0005084
20730.0 0.00051714
20750.0 0.00052558
20770.0 0.00053324
20790.0 0.0005407
20810.0 0.00054802
20830.0 0.00055481
20850.0 0.00056128
20870.0 0.00056798
20890.0 0.00057469
20910.0 0.00058116
20930.0 0.00058797
20950.0 0.00059521
20970.0 0.00060244
20990.0 0.00060972
21010.0 0.00061752
21030.0 0.00062516
21050.0 0.00063238
21070.0 0.00063939
21090.0 0.00064611
21110.0 0.0006518
21130.0 0.00065665
21150.0 0.00066076
21170.0 0.00066379
21190.0 0.00066569
21210.0 0.00066662
21230.0 0.00066643
21250.0 0.00066517
21270.0 0.00066295
21290.0 0.00065969
21310.0 0.00065554
21330.0 0.00065079
21350.0 0.00064517
21370.0 0.00063882
21390.0 0.00063212
21410.0 0.00062502
21430.0 0.00061713
21450.0 0.00060922
21470.0 0.00060139
21490.0 0.00059329
21510.0 0.00058514
21530.0 0.00057746
21550.0 0.00056999
21570.0 0.00056261
21590.0 0.00055587
21610.0 0.00054981
21630.0 0.00054423
21650.0 0.00053928
21670.0 0.00053543
21690.0 0.00053234
21710.0 0.0005301
21730.0 0.00052886
21750.0 0.00052855
21770.0 0.00052924
21790.0 0.00053095
21810.0 0.00053353
21830.0 0.00053703
21850.0 0.0005416
21870.0 0.0005469
21890.0 0.00055274
21910.0 0.00055955
21930.0 0.00056701
21950.0 0.00057474
21970.0 0.00058304
21990.0 0.00059216
22010.0 0.00060114
22030.0 0.00061017
22050.0 0.00061961
22070.0 0.00062904
22090.0 0.00063793
22110.0 0.00064683
22130.0 0.00065563
22150.0 0.00066372
22170.0 0.00067117
22190.0 0.0006783
22210.0 0.00068458
22230.0 0.0006897
22250.0 0.00069401
22270.0 0.00069732
22290.0 0.00069938
22310.0 0.00070028
22330.0 0.00069993
22350.0 0.00069823
22370.0 0.00069527
22390.0 0.00069093
22410.0 0.00068504
22430.0 0.00067813
22450.0 0.00067007
22470.0 0.00066051
22490.0 0.00064994
22510.0 0.00063876
22530.0 0.0006262
22550.0 0.00061257
22570.0 0.00059884
22590.0 0.00058457
22610.0 0.00056937
22630.0 0.00055406
22650.0 0.00053922
22670.0 0.00052375
22690.0 0.00050818
22710.0 0.0004933
22730.0 0.00047873
22750.0 0.00046373
22770.0 0.00044979
22790.0 0.00043682
22810.0 0.00042414
22830.0 0.00041211
22850.0 0.00040144
22870.0 0.00039154
22890.0 0.00038232
22910.0 0.00037447
22930.0 0.00036791
22950.0 0.00036236
22970.0 0.00035806
22990.0 0.00035533
23010.0 0.00035384
23030.0 0.00035369
23050.0 0.00035492
23070.0 0.00035735
23090.0 0.00036126
23110.0 0.0003664
23130.0 0.00037245
23150.0 0.00037957
23170.0 0.00038783
23190.0 0.00039655
23210.0 0.00040556
23230.0 0.00041531
23250.0 0.00042521
23270.0 0.00043476
23290.0 0.00044429
23310.0 0.00045384
23330.0 0.00046235
23350.0 0.00047009
23370.0 0.00047724
23390.0 0.00048338
23410.0 0.00048825
23430.0 0.00049219
23450.0 0.00049502
23470.0 0.00049658
23490.0 0.00049702
23510.0 0.00049628
23530.0 0.00049438
23550.0 0.00049156
23570.0 0.00048771
23590.0 0.00048286
23610.0 0.00047739
23630.0 0.0004713
23650.0 0.00046429
23670.0 0.00045696
23690.0 0.00044953
23710.0 0.00044177
23730.0 0.0004338
23750.0 0.00042643
23770.0 0.00041945
23790.0 0.00041283
23810.0 0.00040714
