#lamb flux
1010.0 7.6986e-07
1030.0 8.5319e-07
1050.0 9.4905e-07
1070.0 1.057e-06
1090.0 1.1796e-06
1110.0 1.3053e-06
1130.0 1.4319e-06
1150.0 1.5645e-06
1170.0 1.7013e-06
1190.0 1.831e-06
1210.0 1.9625e-06
1230.0 2.0984e-06
1250.0 2.2316e-06
1270.0 2.361e-06
1290.0 2.4977e-06
1310.0 2.6344e-06
1330.0 2.7655e-06
1350.0 2.8981e-06
1370.0 3.035e-06
1390.0 3.1685e-06
1410.0 3.2981e-06
1430.0 3.4336e-06
1450.0 3.5692e-06
1470.0 3.7002e-06
1490.0 3.8326e-06
1510.0 3.9725e-06
1530.0 4.1051e-06
1550.0 4.2358e-06
1570.0 4.3711e-06
1590.0 4.5065e-06
1610.0 4.6358e-06
1630.0 4.769e-06
1650.0 4.9057e-06
1670.0 5.0378e-06
1690.0 5.168e-06
1710.0 5.3032e-06
1730.0 5.4389e-06
1750.0 5.5662e-06
1770.0 5.6969e-06
1790.0 5.8301e-06
1810.0 5.9584e-06
1830.0 6.0841e-06
1850.0 6.2171e-06
1870.0 6.3459e-06
1890.0 6.4695e-06
1910.0 6.595e-06
1930.0 6.7227e-06
1950.0 6.8432e-06
1970.0 6.9611e-06
1990.0 7.0826e-06
2010.0 7.2004e-06
2030.0 7.3121e-06
2050.0 7.4259e-06
2070.0 7.541e-06
2090.0 7.6466e-06
2110.0 7.7496e-06
2130.0 7.8539e-06
2150.0 7.9533e-06
2170.0 8.0444e-06
2190.0 8.1371e-06
2210.0 8.2274e-06
2230.0 8.3094e-06
2250.0 8.3873e-06
2270.0 8.4669e-06
2290.0 8.5386e-06
2310.0 8.6013e-06
2330.0 8.6636e-06
2350.0 8.7226e-06
2370.0 8.7727e-06
2390.0 8.8205e-06
2410.0 8.8717e-06
2430.0 8.9188e-06
2450.0 8.9657e-06
2470.0 9.0236e-06
2490.0 9.0999e-06
2510.0 9.1953e-06
2530.0 9.3477e-06
2550.0 9.6139e-06
2570.0 1.0045e-05
2590.0 1.0702e-05
2610.0 1.1758e-05
2630.0 1.3233e-05
2650.0 1.5024e-05
2670.0 1.7133e-05
2690.0 1.9455e-05
2710.0 2.1641e-05
2730.0 2.3537e-05
2750.0 2.5178e-05
2770.0 2.6403e-05
2790.0 2.722e-05
2810.0 2.7772e-05
2830.0 2.8161e-05
2850.0 2.8384e-05
2870.0 2.8542e-05
2890.0 2.8692e-05
2910.0 2.883e-05
2930.0 2.894e-05
2950.0 2.907e-05
2970.0 2.9213e-05
2990.0 2.9339e-05
3010.0 0.00038425
3030.0 0.00038499
3050.0 0.00038565
3070.0 0.00038576
3090.0 0.0003856
3110.0 0.00038463
3130.0 0.00038217
3150.0 0.00037793
3170.0 0.00037133
3190.0 0.00036248
3210.0 0.00035221
3230.0 0.00034168
3250.0 0.00033792
3270.0 0.00033147
3290.0 0.00033787
3310.0 0.00033542
3330.0 0.00034388
3350.0 0.00035652
3370.0 0.00037291
3390.0 0.00039247
3410.0 0.00041307
3430.0 0.00043563
3450.0 0.00046078
3470.0 0.00048724
3490.0 0.0005141
3510.0 0.0005452
3530.0 0.00057939
3550.0 0.0006082
3570.0 0.00063491
3590.0 0.0006731
3610.0 0.00069859
3630.0 0.00074083
3650.0 0.00077852
3670.0 0.00081656
3690.0 0.00083802
3710.0 0.00084337
3730.0 0.00085531
3750.0 0.00085547
3770.0 0.00079278
3790.0 0.00072748
3810.0 0.00067942
3830.0 0.000615
3850.0 0.00053488
3870.0 0.00053069
3890.0 0.00068722
3910.0 0.00091993
3930.0 0.0011009
3950.0 0.0011663
3970.0 0.0011422
3990.0 0.0011643
4010.0 0.0013162
4030.0 0.0014111
4050.0 0.0013668
4070.0 0.0012099
4090.0 0.0010685
4110.0 0.001199
4130.0 0.0012982
4150.0 0.0012746
4170.0 0.0012745
4190.0 0.0012687
4210.0 0.0013164
4230.0 0.0014009
4250.0 0.0015123
4270.0 0.0015404
4290.0 0.0015263
4310.0 0.0016071
4330.0 0.0017651
4350.0 0.0020032
4370.0 0.0022355
4390.0 0.0021544
4410.0 0.0018201
4430.0 0.0015151
4450.0 0.0012692
4470.0 0.0012439
4490.0 0.0013609
4510.0 0.0015716
4530.0 0.0017099
4550.0 0.0019212
4570.0 0.002292
4590.0 0.002819
4610.0 0.0036101
4630.0 0.0043445
4650.0 0.004468
4670.0 0.0044554
4690.0 0.0047142
4710.0 0.004803
4730.0 0.0040476
4750.0 0.0029929
4770.0 0.002449
4790.0 0.0023054
4810.0 0.0021857
4830.0 0.0021467
4850.0 0.0024698
4870.0 0.0030473
4890.0 0.003388
4910.0 0.0029685
4930.0 0.0027755
4950.0 0.0031919
4970.0 0.0041451
4990.0 0.0051387
5010.0 0.0052832
5030.0 0.0043561
5050.0 0.002977
5070.0 0.0021186
5090.0 0.0018497
5110.0 0.0018942
5130.0 0.0020388
5150.0 0.0021045
5170.0 0.002089
5190.0 0.0020625
5210.0 0.002026
5230.0 0.0020996
5250.0 0.002252
5270.0 0.002582
5290.0 0.0029784
5310.0 0.0032665
5330.0 0.0033755
5350.0 0.0034628
5370.0 0.0037641
5390.0 0.0039588
5410.0 0.0037478
5430.0 0.0033162
5450.0 0.003196
5470.0 0.0036895
5490.0 0.0046828
5510.0 0.0057816
5530.0 0.0062735
5550.0 0.0061281
5570.0 0.0056718
5590.0 0.0051582
5610.0 0.0048331
5630.0 0.0047271
5650.0 0.0048218
5670.0 0.0047101
5690.0 0.0044251
5710.0 0.0042
5730.0 0.0037387
5750.0 0.0028952
5770.0 0.0025531
5790.0 0.0028179
5810.0 0.0033059
5830.0 0.0037035
5850.0 0.0039241
5870.0 0.0039523
5890.0 0.0037723
5910.0 0.0036061
5930.0 0.0036193
5950.0 0.0037976
5970.0 0.0039297
5990.0 0.003634
6010.0 0.0030518
6030.0 0.0025337
6050.0 0.0022545
6070.0 0.0022877
6090.0 0.0025437
6110.0 0.00269
6130.0 0.00256
6150.0 0.0024619
6170.0 0.0027308
6190.0 0.0032571
6210.0 0.0038823
6230.0 0.0043373
6250.0 0.0042735
6270.0 0.0038064
6290.0 0.003164
6310.0 0.0025353
6330.0 0.0020711
6350.0 0.0019397
6370.0 0.0021322
6390.0 0.0024632
6410.0 0.0028356
6430.0 0.0033056
6450.0 0.0038808
6470.0 0.0047488
6490.0 0.0057305
6510.0 0.0061932
6530.0 0.0058348
6550.0 0.0054733
6570.0 0.0054119
6590.0 0.0052269
6610.0 0.0048226
6630.0 0.0044154
6650.0 0.004138
6670.0 0.0041973
6690.0 0.0041241
6710.0 0.0037141
6730.0 0.003362
6750.0 0.0030135
6770.0 0.0030089
6790.0 0.0032121
6810.0 0.0033908
6830.0 0.0034544
6850.0 0.0033473
6870.0 0.0032226
6890.0 0.0031439
6910.0 0.002975
6930.0 0.0028549
6950.0 0.0028622
6970.0 0.0029441
6990.0 0.0032327
7010.0 0.0034074
7030.0 0.0031739
7050.0 0.0029292
7070.0 0.0027074
7090.0 0.0023785
7110.0 0.0022037
7130.0 0.0022632
7150.0 0.0023485
7170.0 0.002456
7190.0 0.0024414
7210.0 0.0024504
7230.0 0.0026475
7250.0 0.0030444
7270.0 0.0034726
7290.0 0.0036748
7310.0 0.0035224
7330.0 0.0031523
7350.0 0.0028582
7370.0 0.0027949
7390.0 0.0028435
7410.0 0.0029963
7430.0 0.0033231
7450.0 0.0036211
7470.0 0.0039814
7490.0 0.0042669
7510.0 0.0038088
7530.0 0.0036339
7550.0 0.0031546
7570.0 0.0026918
7590.0 0.0022308
7610.0 0.0020721
7630.0 0.0021937
7650.0 0.0025279
7670.0 0.0028135
7690.0 0.0031408
7710.0 0.0034953
7730.0 0.0036858
7750.0 0.0037693
7770.0 0.0037949
7790.0 0.0037917
7810.0 0.0038867
7830.0 0.0037679
7850.0 0.0034917
7870.0 0.0032366
7890.0 0.0030086
7910.0 0.0027048
7930.0 0.0023716
7950.0 0.0021604
7970.0 0.0021203
7990.0 0.002201
8010.0 0.0023488
8030.0 0.0023841
8050.0 0.002393
8070.0 0.0023369
8090.0 0.0023197
8110.0 0.0022259
8130.0 0.002103
8150.0 0.0019824
8170.0 0.0019609
8190.0 0.0020047
8210.0 0.0020005
8230.0 0.0020114
8250.0 0.0019857
8270.0 0.0017653
8290.0 0.0013663
8310.0 0.00097052
8330.0 0.00065574
8350.0 0.00046963
8370.0 0.00052308
8390.0 0.00058955
8410.0 0.00074269
8430.0 0.00090436
8450.0 0.00099002
8470.0 0.0010248
8490.0 0.0010777
8510.0 0.0011383
8530.0 0.0012816
8550.0 0.001439
8570.0 0.0016731
8590.0 0.001999
8610.0 0.0023221
8630.0 0.0027069
8650.0 0.0030114
8670.0 0.0029791
8690.0 0.0028204
8710.0 0.0026791
8730.0 0.0025455
8750.0 0.0024425
8770.0 0.0023804
8790.0 0.0022933
8810.0 0.0021262
8830.0 0.0019591
8850.0 0.0017056
8870.0 0.0014952
8890.0 0.0013522
8910.0 0.0013891
8930.0 0.0013553
8950.0 0.0014211
8970.0 0.0014487
8990.0 0.001494
9010.0 0.0015513
9030.0 0.0015466
9050.0 0.0015473
9070.0 0.001549
9090.0 0.0015505
9110.0 0.0015509
9130.0 0.0015523
9150.0 0.0015546
9170.0 0.0015562
9190.0 0.001557
9210.0 0.0015646
9230.0 0.0015662
9250.0 0.0015688
9270.0 0.0015718
9290.0 0.001575
9310.0 0.0015786
9330.0 0.0015825
9350.0 0.0015865
9370.0 0.0015909
9390.0 0.0015955
9410.0 0.0016002
9430.0 0.0016051
9450.0 0.0016104
9470.0 0.0016158
9490.0 0.0016214
9510.0 0.0016272
9530.0 0.0016332
9550.0 0.0016393
9570.0 0.0016456
9590.0 0.0016522
9610.0 0.0016589
9630.0 0.0016657
9650.0 0.0016727
9670.0 0.00168
9690.0 0.0016873
9710.0 0.0016947
9730.0 0.0017024
9750.0 0.0017102
9770.0 0.0017179
9790.0 0.0017259
9810.0 0.0017341
9830.0 0.0017423
9850.0 0.0017505
9870.0 0.001759
9890.0 0.0017675
9910.0 0.001776
9930.0 0.0017846
9950.0 0.001793
9970.0 0.0018017
9990.0 0.0018105
10010.0 0.0018038
10030.0 0.0018125
10050.0 0.0018209
10070.0 0.0018281
10090.0 0.0018375
10110.0 0.0018465
10130.0 0.0018554
10150.0 0.0018643
10170.0 0.001873
10190.0 0.0018814
10210.0 0.00189
10230.0 0.0018985
10250.0 0.0019067
10270.0 0.0019149
10290.0 0.0019231
10310.0 0.0019311
10330.0 0.0019387
10350.0 0.0019465
10370.0 0.0019542
10390.0 0.0019615
10410.0 0.0019687
10430.0 0.001976
10450.0 0.0019829
10470.0 0.0019895
10490.0 0.0019962
10510.0 0.0020026
10530.0 0.0020085
10550.0 0.0020144
10570.0 0.0020202
10590.0 0.0020256
10610.0 0.0020307
10630.0 0.0020357
10650.0 0.0020405
10670.0 0.0020448
10690.0 0.0020489
10710.0 0.0020529
10730.0 0.0020564
10750.0 0.0020595
10770.0 0.0020627
10790.0 0.0020655
10810.0 0.0020677
10830.0 0.0020697
10850.0 0.0020715
10870.0 0.0020721
10890.0 0.0020716
10910.0 0.0020696
10930.0 0.0020648
10950.0 0.0020554
10970.0 0.0020408
10990.0 0.0020204
11010.0 0.0019826
11030.0 0.0019447
11050.0 0.0019008
11070.0 0.0018501
11090.0 0.0017906
11110.0 0.0017304
11130.0 0.0016691
11150.0 0.0016049
11170.0 0.0015409
11190.0 0.0014813
11210.0 0.0014225
11230.0 0.0013654
11250.0 0.001314
11270.0 0.0012676
11290.0 0.001224
11310.0 0.0011853
11330.0 0.0011532
11350.0 0.0011241
11370.0 0.0010981
11390.0 0.0010757
11410.0 0.0010556
11430.0 0.0010356
11450.0 0.0010163
11470.0 0.00099722
11490.0 0.00097681
11510.0 0.00095429
11530.0 0.00093105
11550.0 0.00090635
11570.0 0.00087908
11590.0 0.00085068
11610.0 0.00082222
11630.0 0.00079221
11650.0 0.00076145
11670.0 0.00073251
11690.0 0.00070453
11710.0 0.00067704
11730.0 0.00065161
11750.0 0.00062898
11770.0 0.00060754
11790.0 0.00058798
11810.0 0.00057097
11830.0 0.00055572
11850.0 0.00054137
11870.0 0.0005287
11890.0 0.00051729
11910.0 0.00050615
11930.0 0.00049519
11950.0 0.00048462
11970.0 0.00047379
11990.0 0.00046221
12010.0 0.00045048
12030.0 0.00043859
12050.0 0.00042608
12070.0 0.00041316
12090.0 0.00040102
12110.0 0.00038906
12130.0 0.00037747
12150.0 0.00036708
12170.0 0.00035814
12190.0 0.00035034
12210.0 0.00034448
12230.0 0.00034075
12250.0 0.00033905
12270.0 0.00033963
12290.0 0.00034235
12310.0 0.00034691
12330.0 0.00035365
12350.0 0.00036215
12370.0 0.00037168
12390.0 0.00038243
12410.0 0.00039466
12430.0 0.00040653
12450.0 0.00041824
12470.0 0.00043006
12490.0 0.00044116
12510.0 0.00045076
12530.0 0.00045953
12550.0 0.0004671
12570.0 0.00047278
12590.0 0.00047679
12610.0 0.00047932
12630.0 0.00048006
12650.0 0.00047906
12670.0 0.00047662
12690.0 0.00047272
12710.0 0.00046763
12730.0 0.00046154
12750.0 0.00045426
12770.0 0.00044629
12790.0 0.00043791
12810.0 0.00042889
12830.0 0.00041927
12850.0 0.00040969
12870.0 0.00039991
12890.0 0.0003896
12910.0 0.00037918
12930.0 0.00036885
12950.0 0.00035797
12970.0 0.00034669
12990.0 0.0003357
13010.0 0.00032458
13030.0 0.00031306
13050.0 0.00030172
13070.0 0.0002909
13090.0 0.00027993
13110.0 0.00026927
13130.0 0.00025948
13150.0 0.00025032
13170.0 0.00024162
13190.0 0.00023415
13210.0 0.0002279
13230.0 0.00022258
13250.0 0.00021846
13270.0 0.00021565
13290.0 0.00021396
13310.0 0.00021345
13330.0 0.00021406
13350.0 0.0002156
13370.0 0.00021809
13390.0 0.00022143
13410.0 0.00022509
13430.0 0.00022922
13450.0 0.00023376
13470.0 0.00023827
13490.0 0.00024259
13510.0 0.00024708
13530.0 0.00025121
13550.0 0.00025481
13570.0 0.00025807
13590.0 0.00026098
13610.0 0.00026331
13630.0 0.00026511
13650.0 0.00026657
13670.0 0.00026757
13690.0 0.0002681
13710.0 0.00026828
13730.0 0.00026812
13750.0 0.00026758
13770.0 0.00026674
13790.0 0.00026559
13810.0 0.00026416
13830.0 0.00026249
13850.0 0.00026053
13870.0 0.00025827
13890.0 0.00025582
13910.0 0.00025315
13930.0 0.00025017
13950.0 0.00024701
13970.0 0.00024383
13990.0 0.00024047
14010.0 0.000237
14030.0 0.00023362
14050.0 0.00023033
14070.0 0.00022699
14090.0 0.00022392
14110.0 0.00022114
14130.0 0.00021859
14150.0 0.00021632
14170.0 0.00021449
14190.0 0.00021303
14210.0 0.00021194
14230.0 0.00021129
14250.0 0.00021106
14270.0 0.00021126
14290.0 0.00021192
14310.0 0.00021294
14330.0 0.00021432
14350.0 0.0002161
14370.0 0.00021814
14390.0 0.00022034
14410.0 0.00022283
14430.0 0.0002255
14450.0 0.00022817
14470.0 0.00023093
14490.0 0.00023391
14510.0 0.00023685
14530.0 0.00023979
14550.0 0.00024298
14570.0 0.0002464
14590.0 0.00024993
14610.0 0.00025388
14630.0 0.00025843
14650.0 0.00026335
14670.0 0.00026873
14690.0 0.00027489
14710.0 0.0002818
14730.0 0.00028887
14750.0 0.00029661
14770.0 0.00030501
14790.0 0.00031353
14810.0 0.00032203
14830.0 0.00033111
14850.0 0.00033991
14870.0 0.00034806
14890.0 0.00035586
14910.0 0.00036317
14930.0 0.00036938
14950.0 0.00037455
14970.0 0.0003789
14990.0 0.00038209
15010.0 0.00038419
15030.0 0.00038544
15050.0 0.00038593
15070.0 0.00038582
15090.0 0.00038535
15110.0 0.00038461
15130.0 0.00038373
15150.0 0.00038281
15170.0 0.00038183
15190.0 0.00038082
15210.0 0.00037984
15230.0 0.00037887
15250.0 0.00037787
15270.0 0.00037688
15290.0 0.00037594
15310.0 0.00037498
15330.0 0.00037401
15350.0 0.00037307
15370.0 0.00037215
15390.0 0.00037117
15410.0 0.00037022
15430.0 0.00036931
15450.0 0.00036838
15470.0 0.00036742
15490.0 0.00036652
15510.0 0.00036561
15530.0 0.00036467
15550.0 0.00036375
15570.0 0.00036287
15590.0 0.00036193
15610.0 0.00036099
15630.0 0.0003601
15650.0 0.0003592
15670.0 0.00035826
15690.0 0.00035736
15710.0 0.00035648
15730.0 0.00035556
15750.0 0.00035463
15770.0 0.00035374
15790.0 0.00035284
15810.0 0.00035188
15830.0 0.00035097
15850.0 0.00035009
15870.0 0.00034916
15890.0 0.00034823
15910.0 0.00034734
15930.0 0.00034642
15950.0 0.00034547
15970.0 0.00034455
15990.0 0.00034364
16010.0 0.00034269
16030.0 0.00034173
16050.0 0.00034083
16070.0 0.00033989
16090.0 0.00033893
16110.0 0.00033799
16130.0 0.00033708
16150.0 0.00033608
16170.0 0.00033511
16190.0 0.00033417
16210.0 0.00033321
16230.0 0.00033221
16250.0 0.00033125
16270.0 0.0003303
16290.0 0.0003293
16310.0 0.0003283
16330.0 0.00032734
16350.0 0.00032634
16370.0 0.00032529
16390.0 0.00032431
16410.0 0.00032332
16430.0 0.00032228
16450.0 0.00032125
16470.0 0.00032027
16490.0 0.00031923
16510.0 0.00031816
16530.0 0.00031714
16550.0 0.00031611
16570.0 0.00031502
16590.0 0.00031395
16610.0 0.00031293
16630.0 0.00031185
16650.0 0.00031076
16670.0 0.00030971
16690.0 0.00030864
16710.0 0.00030751
16730.0 0.00030641
16750.0 0.00030534
16770.0 0.00030422
16790.0 0.00030308
16810.0 0.00030199
16830.0 0.00030089
16850.0 0.00029973
16870.0 0.0002986
16890.0 0.00029749
16910.0 0.00029633
16930.0 0.00029515
16950.0 0.00029402
16970.0 0.00029287
16990.0 0.00029168
17010.0 0.00029051
17030.0 0.00028937
17050.0 0.00028817
17070.0 0.00028697
17090.0 0.0002858
17110.0 0.00028462
17130.0 0.00028337
17150.0 0.00028217
17170.0 0.00028099
17190.0 0.00027976
17210.0 0.00027853
17230.0 0.00027734
17250.0 0.00027612
17270.0 0.00027485
17290.0 0.00027362
17310.0 0.0002724
17330.0 0.00027113
17350.0 0.00026986
17370.0 0.00026864
17390.0 0.00026739
17410.0 0.0002661
17430.0 0.00026485
17450.0 0.00026361
17470.0 0.0002623
17490.0 0.00026101
17510.0 0.00025975
17530.0 0.00025847
17550.0 0.00025716
17570.0 0.00025588
17590.0 0.00025462
17610.0 0.0002533
17630.0 0.00025199
17650.0 0.00025072
17670.0 0.00024941
17690.0 0.00024805
17710.0 0.00024677
17730.0 0.00024548
17750.0 0.00024414
17770.0 0.00024282
17790.0 0.00024154
17810.0 0.00024021
17830.0 0.00023886
17850.0 0.00023755
17870.0 0.00023624
17890.0 0.00023488
17910.0 0.00023354
17930.0 0.00023224
17950.0 0.00023091
17970.0 0.00022955
17990.0 0.00022824
18010.0 0.00022693
18030.0 0.00022555
18050.0 0.00022421
18070.0 0.00022289
18090.0 0.00022154
18110.0 0.00022018
18130.0 0.00021887
18150.0 0.00021754
18170.0 0.00021618
18190.0 0.00021484
18210.0 0.00021353
18230.0 0.00021216
18250.0 0.00021079
18270.0 0.00020948
18290.0 0.00020815
18310.0 0.00020678
18330.0 0.00020545
18350.0 0.00020414
18370.0 0.00020278
18390.0 0.00020143
18410.0 0.00020012
18430.0 0.00019879
18450.0 0.00019741
18470.0 0.00019608
18490.0 0.00019478
18510.0 0.00019343
18530.0 0.00019209
18550.0 0.00019079
18570.0 0.00018946
18590.0 0.0001881
18610.0 0.00018679
18630.0 0.00018548
18650.0 0.00018414
18670.0 0.0001828
18690.0 0.00018152
18710.0 0.0001802
18730.0 0.00017887
18750.0 0.00017757
18770.0 0.00017628
18790.0 0.00017493
18810.0 0.00017362
18830.0 0.00017234
18850.0 0.00017103
18870.0 0.00016971
18890.0 0.00016843
18910.0 0.00016716
18930.0 0.00016584
18950.0 0.00016455
18970.0 0.00016329
18990.0 0.000162
19010.0 0.00016067
19030.0 0.00015942
19050.0 0.00015816
19070.0 0.00015686
19090.0 0.00015559
19110.0 0.00015436
19130.0 0.00015308
19150.0 0.00015179
19170.0 0.00015055
19190.0 0.00014931
19210.0 0.00014802
19230.0 0.00014677
19250.0 0.00014555
19270.0 0.0001443
19290.0 0.00014305
19310.0 0.00014183
19330.0 0.00014061
19350.0 0.00013934
19370.0 0.00013812
19390.0 0.00013691
19410.0 0.00013568
19430.0 0.00013444
19450.0 0.00013326
19470.0 0.00013206
19490.0 0.00013083
19510.0 0.00012963
19530.0 0.00012845
19550.0 0.00012723
19570.0 0.00012601
19590.0 0.00012485
19610.0 0.00012367
19630.0 0.00012246
19650.0 0.00012129
19670.0 0.00012015
19690.0 0.00011895
19710.0 0.00011777
19730.0 0.00011662
19750.0 0.00011546
19770.0 0.00011427
19790.0 0.00011312
19810.0 0.00011199
19830.0 0.00011083
19850.0 0.00010967
19870.0 0.00010854
19890.0 0.00010736
19910.0 0.00010611
19930.0 0.00010484
19950.0 0.00010349
19970.0 0.00010196
19990.0 0.00010027
20010.0 9.8945e-05
20030.0 9.6925e-05
20050.0 9.4716e-05
20070.0 9.2466e-05
20090.0 9.0182e-05
20110.0 8.7757e-05
20130.0 8.5446e-05
20150.0 8.3283e-05
20170.0 8.1168e-05
20190.0 7.9149e-05
20210.0 7.7344e-05
20230.0 7.5678e-05
20250.0 7.4102e-05
20270.0 7.272e-05
20290.0 7.1526e-05
20310.0 7.0463e-05
20330.0 6.9545e-05
20350.0 6.8844e-05
20370.0 6.8291e-05
20390.0 6.7888e-05
20410.0 6.7652e-05
20430.0 6.7566e-05
20450.0 6.7632e-05
20470.0 6.7852e-05
20490.0 6.8196e-05
20510.0 6.867e-05
20530.0 6.929e-05
20550.0 7.0006e-05
20570.0 7.0786e-05
20590.0 7.1684e-05
20610.0 7.2657e-05
20630.0 7.3645e-05
20650.0 7.4685e-05
20670.0 7.5808e-05
20690.0 7.6891e-05
20710.0 7.7954e-05
20730.0 7.9045e-05
20750.0 8.0124e-05
20770.0 8.1131e-05
20790.0 8.2141e-05
20810.0 8.3164e-05
20830.0 8.4143e-05
20850.0 8.5099e-05
20870.0 8.6107e-05
20890.0 8.7126e-05
20910.0 8.8107e-05
20930.0 8.9135e-05
20950.0 9.0216e-05
20970.0 9.1284e-05
20990.0 9.2351e-05
21010.0 9.3489e-05
21030.0 9.4607e-05
21050.0 9.5672e-05
21070.0 9.6728e-05
21090.0 9.7771e-05
21110.0 9.8695e-05
21130.0 9.9531e-05
21150.0 0.00010031
21170.0 0.00010097
21190.0 0.00010149
21210.0 0.00010192
21230.0 0.00010222
21250.0 0.00010237
21270.0 0.0001024
21290.0 0.00010229
21310.0 0.00010204
21330.0 0.00010168
21350.0 0.00010118
21370.0 0.00010054
21390.0 9.9804e-05
21410.0 9.8964e-05
21430.0 9.7962e-05
21450.0 9.689e-05
21470.0 9.5764e-05
21490.0 9.4532e-05
21510.0 9.3219e-05
21530.0 9.1915e-05
21550.0 9.0575e-05
21570.0 8.9172e-05
21590.0 8.7811e-05
21610.0 8.651e-05
21630.0 8.5221e-05
21650.0 8.3972e-05
21670.0 8.2893e-05
21690.0 8.1902e-05
21710.0 8.1011e-05
21730.0 8.0279e-05
21750.0 7.9712e-05
21770.0 7.9278e-05
21790.0 7.9024e-05
21810.0 7.8946e-05
21830.0 7.9036e-05
21850.0 7.9308e-05
21870.0 7.9743e-05
21890.0 8.0316e-05
21910.0 8.1064e-05
21930.0 8.196e-05
21950.0 8.295e-05
21970.0 8.407e-05
21990.0 8.5359e-05
22010.0 8.668e-05
22030.0 8.8055e-05
22050.0 8.9537e-05
22070.0 9.1066e-05
22090.0 9.2549e-05
22110.0 9.4078e-05
22130.0 9.5639e-05
22150.0 9.7122e-05
22170.0 9.854e-05
22190.0 9.9956e-05
22210.0 0.00010128
22230.0 0.00010243
22250.0 0.00010349
22270.0 0.00010443
22290.0 0.00010518
22310.0 0.00010577
22330.0 0.00010619
22350.0 0.00010641
22370.0 0.00010643
22390.0 0.00010624
22410.0 0.00010583
22430.0 0.00010522
22450.0 0.00010442
22470.0 0.00010339
22490.0 0.00010217
22510.0 0.00010081
22530.0 9.9217e-05
22550.0 9.7424e-05
22570.0 9.5559e-05
22590.0 9.3566e-05
22610.0 9.1383e-05
22630.0 8.9125e-05
22650.0 8.6884e-05
22670.0 8.4493e-05
22690.0 8.2028e-05
22710.0 7.962e-05
22730.0 7.7209e-05
22750.0 7.4667e-05
22770.0 7.2252e-05
22790.0 6.9954e-05
22810.0 6.7654e-05
22830.0 6.542e-05
22850.0 6.3386e-05
22870.0 6.145e-05
22890.0 5.9588e-05
22910.0 5.7943e-05
22930.0 5.6505e-05
22950.0 5.5215e-05
22970.0 5.4117e-05
22990.0 5.3309e-05
23010.0 5.2703e-05
