#lamb flux
1010.0 3.1564e-06
1030.0 3.3161e-06
1050.0 3.5011e-06
1070.0 3.7098e-06
1090.0 3.9471e-06
1110.0 4.1914e-06
1130.0 4.4385e-06
1150.0 4.6984e-06
1170.0 4.9679e-06
1190.0 5.2253e-06
1210.0 5.4878e-06
1230.0 5.7606e-06
1250.0 6.0301e-06
1270.0 6.2942e-06
1290.0 6.5748e-06
1310.0 6.8576e-06
1330.0 7.1318e-06
1350.0 7.4116e-06
1370.0 7.7026e-06
1390.0 7.9896e-06
1410.0 8.2717e-06
1430.0 8.5685e-06
1450.0 8.8682e-06
1470.0 9.1618e-06
1490.0 9.4611e-06
1510.0 9.7783e-06
1530.0 1.0083e-05
1550.0 1.0387e-05
1570.0 1.0702e-05
1590.0 1.1019e-05
1610.0 1.1325e-05
1630.0 1.1639e-05
1650.0 1.1962e-05
1670.0 1.2275e-05
1690.0 1.2584e-05
1710.0 1.2901e-05
1730.0 1.3218e-05
1750.0 1.3515e-05
1770.0 1.3816e-05
1790.0 1.4118e-05
1810.0 1.4406e-05
1830.0 1.4683e-05
1850.0 1.4971e-05
1870.0 1.5244e-05
1890.0 1.5499e-05
1910.0 1.5751e-05
1930.0 1.6002e-05
1950.0 1.6231e-05
1970.0 1.6448e-05
1990.0 1.6665e-05
2010.0 1.687e-05
2030.0 1.7056e-05
2050.0 1.7242e-05
2070.0 1.7427e-05
2090.0 1.759e-05
2110.0 1.7746e-05
2130.0 1.7905e-05
2150.0 1.8056e-05
2170.0 1.8194e-05
2190.0 1.834e-05
2210.0 1.8488e-05
2230.0 1.8629e-05
2250.0 1.8772e-05
2270.0 1.8932e-05
2290.0 1.9092e-05
2310.0 1.925e-05
2330.0 1.9427e-05
2350.0 1.9619e-05
2370.0 1.9815e-05
2390.0 2.0029e-05
2410.0 2.0272e-05
2430.0 2.0526e-05
2450.0 2.0796e-05
2470.0 2.1095e-05
2490.0 2.1426e-05
2510.0 2.179e-05
2530.0 2.2245e-05
2550.0 2.2892e-05
2570.0 2.3849e-05
2590.0 2.5267e-05
2610.0 2.7508e-05
2630.0 3.0727e-05
2650.0 3.4836e-05
2670.0 3.9937e-05
2690.0 4.594e-05
2710.0 5.2172e-05
2730.0 5.8278e-05
2750.0 6.4365e-05
2770.0 6.9985e-05
2790.0 7.5023e-05
2810.0 7.9804e-05
2830.0 8.4592e-05
2850.0 8.9177e-05
2870.0 9.3851e-05
2890.0 9.8836e-05
2910.0 0.00010405
2930.0 0.00010936
2950.0 0.00011505
2970.0 0.00012108
2990.0 0.00012723
3010.0 0.00029187
3030.0 0.00030637
3050.0 0.00032089
3070.0 0.00033423
3090.0 0.00034574
3110.0 0.00035253
3130.0 0.00035118
3150.0 0.00033784
3170.0 0.00030475
3190.0 0.00025104
3210.0 0.0001774
3230.0 9.4289e-05
3250.0 0.00018373
3270.0 8.3098e-05
3290.0 0.00029029
3310.0 6.3867e-05
3330.0 6.2299e-05
3350.0 9.0246e-05
3370.0 0.00012289
3390.0 0.00015801
3410.0 0.00019305
3430.0 0.00022985
3450.0 0.00026669
3470.0 0.0003004
3490.0 0.00032274
3510.0 0.00040419
3530.0 0.00055289
3550.0 0.00053871
3570.0 0.000431
3590.0 0.00062198
3610.0 0.00036624
3630.0 0.00064861
3650.0 0.00076084
3670.0 0.00099597
3690.0 0.00092564
3710.0 0.00059984
3730.0 0.00081647
3750.0 0.00084396
3770.0 0.00088716
3790.0 0.00081818
3810.0 0.00076987
3830.0 0.0011962
3850.0 0.0013966
3870.0 0.0017457
3890.0 0.0016473
3910.0 0.0014451
3930.0 0.0014999
3950.0 0.001662
3970.0 0.0020425
3990.0 0.001448
4010.0 0.00081306
4030.0 0.0013045
4050.0 0.0015924
4070.0 0.0018017
4090.0 0.0014249
4110.0 0.00089058
4130.0 0.0013326
4150.0 0.0012718
4170.0 0.0012862
4190.0 0.001236
4210.0 0.0016532
4230.0 0.0011245
4250.0 0.0013119
4270.0 0.0013072
4290.0 0.0012888
4310.0 0.0016371
4330.0 0.0017053
4350.0 0.0013016
4370.0 0.0010821
4390.0 0.0013825
4410.0 0.0014454
4430.0 0.00108
4450.0 0.0010577
4470.0 0.0012803
4490.0 0.00092119
4510.0 0.0012054
4530.0 0.0012762
4550.0 0.001655
4570.0 0.0024307
4590.0 0.0022975
4610.0 0.001483
4630.0 0.002551
4650.0 0.003704
4670.0 0.0034283
4690.0 0.0020284
4710.0 0.002242
4730.0 0.0029087
4750.0 0.0025432
4770.0 0.001905
4790.0 0.0012451
4810.0 0.0018482
4830.0 0.0021643
4850.0 0.0018506
4870.0 0.00050507
4890.0 0.0020201
4910.0 0.0028714
4930.0 0.0030939
4950.0 0.0030289
4970.0 0.0017818
4990.0 0.0021013
5010.0 0.0025704
5030.0 0.0029085
5050.0 0.0028803
5070.0 0.0020406
5090.0 0.001645
5110.0 0.0015487
5130.0 0.0013961
5150.0 0.0015542
5170.0 0.0013436
5190.0 0.0016834
5210.0 0.0016943
5230.0 0.0018804
5250.0 0.0023628
5270.0 0.0019163
5290.0 0.0018982
5310.0 0.0029348
5330.0 0.0034455
5350.0 0.0028301
5370.0 0.0024466
5390.0 0.0028974
5410.0 0.0037154
5430.0 0.0041105
5450.0 0.0043802
5470.0 0.0043398
5490.0 0.0042478
5510.0 0.0050765
5530.0 0.0053046
5550.0 0.0057539
5570.0 0.0061968
5590.0 0.0061777
5610.0 0.0058254
5630.0 0.0056512
5650.0 0.0058407
5670.0 0.005787
5690.0 0.0049082
5710.0 0.004836
5730.0 0.0049964
5750.0 0.0054967
5770.0 0.0047381
5790.0 0.0043698
5810.0 0.0044459
5830.0 0.0047585
5850.0 0.004367
5870.0 0.0044574
5890.0 0.0054368
5910.0 0.0051612
5930.0 0.0041665
5950.0 0.003627
5970.0 0.0040057
5990.0 0.0037188
6010.0 0.0035199
6030.0 0.0036031
6050.0 0.0033361
6070.0 0.0024444
6090.0 0.0022018
6110.0 0.0029516
6130.0 0.0034332
6150.0 0.0035854
6170.0 0.0034285
6190.0 0.0031549
6210.0 0.0031259
6230.0 0.0037787
6250.0 0.0034915
6270.0 0.0031878
6290.0 0.0029493
6310.0 0.0027752
6330.0 0.0026274
6350.0 0.0022873
6370.0 0.0022704
6390.0 0.0026933
6410.0 0.0033733
6430.0 0.0038995
6450.0 0.0036622
6470.0 0.0035618
6490.0 0.004514
6510.0 0.0052635
6530.0 0.0049606
6550.0 0.0047139
6570.0 0.0047892
6590.0 0.0046625
6610.0 0.0050737
6630.0 0.0047281
6650.0 0.0040899
6670.0 0.0036897
6690.0 0.0036461
6710.0 0.0045685
6730.0 0.0041308
6750.0 0.0034105
6770.0 0.0030019
6790.0 0.0031713
6810.0 0.00362
6830.0 0.003559
6850.0 0.0031871
6870.0 0.0033356
6890.0 0.0033087
6910.0 0.0031128
6930.0 0.0035852
6950.0 0.0032838
6970.0 0.0030144
6990.0 0.0029829
7010.0 0.0028973
7030.0 0.0027673
7050.0 0.0026985
7070.0 0.0030033
7090.0 0.002854
7110.0 0.0024273
7130.0 0.0019586
7150.0 0.0018184
7170.0 0.002456
7190.0 0.0026697
7210.0 0.0025298
7230.0 0.0026177
7250.0 0.0024229
7270.0 0.0022971
7290.0 0.0025686
7310.0 0.0029169
7330.0 0.0028748
7350.0 0.0026756
7370.0 0.0025015
7390.0 0.0025702
7410.0 0.0030048
7430.0 0.0033172
7450.0 0.0034993
7470.0 0.003426
7490.0 0.0036415
7510.0 0.0035425
7530.0 0.0034238
7550.0 0.0033722
7570.0 0.0029529
7590.0 0.0028989
7610.0 0.00279
7630.0 0.0025264
7650.0 0.0027246
7670.0 0.0029717
7690.0 0.0032159
7710.0 0.0036285
7730.0 0.0038327
7750.0 0.0039836
7770.0 0.0040259
7790.0 0.0044098
7810.0 0.0044998
7830.0 0.0040501
7850.0 0.0040668
7870.0 0.0038725
7890.0 0.0040504
7910.0 0.0038243
7930.0 0.0038415
7950.0 0.0032872
7970.0 0.0033439
7990.0 0.0031885
8010.0 0.0032963
8030.0 0.0032688
8050.0 0.0034466
8070.0 0.0032932
8090.0 0.0032955
8110.0 0.0032234
8130.0 0.0032076
8150.0 0.0030339
8170.0 0.0029507
8190.0 0.0029155
8210.0 0.0029314
8230.0 0.0025596
8250.0 0.0023286
8270.0 0.0020475
8290.0 0.0017233
8310.0 0.0015092
8330.0 0.0012056
8350.0 0.00099271
8370.0 0.00098539
8390.0 0.00096465
8410.0 0.0010026
8430.0 0.001261
8450.0 0.0013564
8470.0 0.0014426
8490.0 0.0016741
8510.0 0.0018157
8530.0 0.0020741
8550.0 0.0024451
8570.0 0.0026869
8590.0 0.0028348
8610.0 0.0031061
8630.0 0.0034695
8650.0 0.0035288
8670.0 0.0035745
8690.0 0.0037106
8710.0 0.0036382
8730.0 0.0035471
8750.0 0.0032927
8770.0 0.0032871
8790.0 0.0032357
8810.0 0.0029683
8830.0 0.0029729
8850.0 0.0027549
8870.0 0.002633
8890.0 0.0023656
8910.0 0.0025835
8930.0 0.002334
8950.0 0.0023095
8970.0 0.0023313
8990.0 0.0022482
9010.0 0.0023023
9030.0 0.0021944
9050.0 0.0021828
9070.0 0.002182
9090.0 0.0021808
9110.0 0.0021807
9130.0 0.0021787
9150.0 0.0021757
9170.0 0.0021669
9190.0 0.002149
9210.0 0.0021799
9230.0 0.0021688
9250.0 0.0021615
9270.0 0.0021549
9290.0 0.0021486
9310.0 0.0021427
9330.0 0.0021367
9350.0 0.0021307
9370.0 0.0021245
9390.0 0.0021181
9410.0 0.0021115
9430.0 0.0021047
9450.0 0.0020977
9470.0 0.0020905
9490.0 0.0020831
9510.0 0.0020757
9530.0 0.002068
9550.0 0.0020603
9570.0 0.0020524
9590.0 0.0020445
9610.0 0.0020364
9630.0 0.0020283
9650.0 0.0020202
9670.0 0.0020119
9690.0 0.0020037
9710.0 0.0019955
9730.0 0.0019872
9750.0 0.0019789
9770.0 0.0019707
9790.0 0.0019625
9810.0 0.0019542
9830.0 0.0019461
9850.0 0.001938
9870.0 0.0019299
9890.0 0.0019219
9910.0 0.0019141
9930.0 0.0019062
9950.0 0.0018945
9970.0 0.0018881
9990.0 0.0018816
10010.0 0.0018749
10030.0 0.0018681
10050.0 0.0018607
10070.0 0.0018506
10090.0 0.0018449
10110.0 0.0018391
10130.0 0.0018331
10150.0 0.0018272
10170.0 0.0018211
10190.0 0.0018149
10210.0 0.001809
10230.0 0.0018032
10250.0 0.0017974
10270.0 0.0017918
10290.0 0.0017865
10310.0 0.0017812
10330.0 0.001776
10350.0 0.0017711
10370.0 0.0017664
10390.0 0.0017617
10410.0 0.0017572
10430.0 0.001753
10450.0 0.0017489
10470.0 0.0017448
10490.0 0.0017411
10510.0 0.0017375
10530.0 0.0017339
10550.0 0.0017305
10570.0 0.0017275
10590.0 0.0017245
10610.0 0.0017216
10630.0 0.0017189
10650.0 0.0017165
10670.0 0.001714
10690.0 0.0017118
10710.0 0.0017098
10730.0 0.0017078
10750.0 0.0017059
10770.0 0.0017044
10790.0 0.0017029
10810.0 0.0017015
10830.0 0.0017002
10850.0 0.001699
10870.0 0.0016975
10890.0 0.0016954
10910.0 0.0016926
10930.0 0.0016881
10950.0 0.0016805
10970.0 0.0016695
10990.0 0.0016546
11010.0 0.0016615
11030.0 0.0016355
11050.0 0.0016049
11070.0 0.0015694
11090.0 0.0015282
11110.0 0.001487
11130.0 0.0014456
11150.0 0.0014031
11170.0 0.0013614
11190.0 0.0013231
11210.0 0.0012858
11230.0 0.0012496
11250.0 0.0012171
11270.0 0.0011875
11290.0 0.0011592
11310.0 0.0011335
11330.0 0.0011115
11350.0 0.0010908
11370.0 0.0010715
11390.0 0.0010543
11410.0 0.0010383
11430.0 0.001022
11450.0 0.0010064
11470.0 0.00099135
11490.0 0.00097563
11510.0 0.00095885
11530.0 0.00094221
11550.0 0.00092503
11570.0 0.00090629
11590.0 0.00088698
11610.0 0.00086768
11630.0 0.00084698
11650.0 0.00082518
11670.0 0.00080413
11690.0 0.00078295
11710.0 0.000761
11730.0 0.00073955
11750.0 0.00071941
11770.0 0.00069896
11790.0 0.00067893
11810.0 0.00066042
11830.0 0.00064279
11850.0 0.00062507
11870.0 0.00060889
11890.0 0.00059418
11910.0 0.00057976
11930.0 0.00056594
11950.0 0.00055343
11970.0 0.00054137
11990.0 0.00052927
12010.0 0.00051803
12030.0 0.00050749
12050.0 0.00049698
12070.0 0.00048661
12090.0 0.00047742
12110.0 0.00046854
12130.0 0.00045993
12150.0 0.00045226
12170.0 0.00044564
12190.0 0.00043949
12210.0 0.00043461
12230.0 0.00043127
12250.0 0.0004293
12270.0 0.00042888
12290.0 0.00043029
12310.0 0.00043341
12330.0 0.0004384
12350.0 0.00044522
12370.0 0.00045348
12390.0 0.00046326
12410.0 0.00047481
12430.0 0.00048684
12450.0 0.00049938
12470.0 0.00051263
12490.0 0.0005259
12510.0 0.00053845
12530.0 0.00055083
12550.0 0.00056272
12570.0 0.00057343
12590.0 0.00058309
12610.0 0.00059198
12630.0 0.00059971
12650.0 0.0006061
12670.0 0.00061159
12690.0 0.00061611
12710.0 0.00061961
12730.0 0.00062227
12750.0 0.00062407
12770.0 0.00062508
12790.0 0.00062543
12810.0 0.00062503
12830.0 0.00062384
12850.0 0.00062214
12870.0 0.00061982
12890.0 0.00061662
12910.0 0.00061279
12930.0 0.00060848
12950.0 0.00060318
12970.0 0.00059694
12990.0 0.0005904
13010.0 0.00058318
13030.0 0.00057498
13050.0 0.00056635
13070.0 0.00055766
13090.0 0.00054817
13110.0 0.00053834
13130.0 0.00052885
13150.0 0.00051945
13170.0 0.0005098
13190.0 0.00050107
13210.0 0.00049334
13230.0 0.00048615
13250.0 0.00047995
13270.0 0.00047514
13290.0 0.00047137
13310.0 0.00046862
13330.0 0.00046712
13350.0 0.00046664
13370.0 0.00046691
13390.0 0.00046781
13410.0 0.00046906
13430.0 0.00047037
13450.0 0.00047151
13470.0 0.00047224
13490.0 0.0004724
13510.0 0.00047171
13530.0 0.00047015
13550.0 0.00046782
13570.0 0.00046461
13590.0 0.00046051
13610.0 0.00045592
13630.0 0.00045102
13650.0 0.00044558
13670.0 0.00044002
13690.0 0.00043468
13710.0 0.00042937
13730.0 0.00042402
13750.0 0.00041929
13770.0 0.00041488
13790.0 0.00041063
13810.0 0.00040666
13830.0 0.00040308
13850.0 0.00039952
13870.0 0.00039597
13890.0 0.00039258
13910.0 0.00038921
13930.0 0.00038564
13950.0 0.00038204
13970.0 0.00037857
13990.0 0.00037497
14010.0 0.00037135
14030.0 0.00036791
14050.0 0.00036463
14070.0 0.00036139
14090.0 0.00035848
14110.0 0.00035593
14130.0 0.00035365
14150.0 0.0003517
14170.0 0.00035018
14190.0 0.000349
14210.0 0.00034818
14230.0 0.00034774
14250.0 0.00034763
14270.0 0.0003479
14290.0 0.00034855
14310.0 0.00034947
14330.0 0.00035068
14350.0 0.00035225
14370.0 0.000354
14390.0 0.00035584
14410.0 0.00035793
14430.0 0.00036011
14450.0 0.00036218
14470.0 0.00036422
14490.0 0.00036631
14510.0 0.00036817
14530.0 0.00036982
14550.0 0.00037146
14570.0 0.00037304
14590.0 0.00037449
14610.0 0.00037603
14630.0 0.00037783
14650.0 0.00037977
14670.0 0.00038196
14690.0 0.00038468
14710.0 0.00038797
14730.0 0.00039152
14750.0 0.00039573
14770.0 0.0004007
14790.0 0.00040608
14810.0 0.00041181
14830.0 0.00041851
14850.0 0.00042548
14870.0 0.00043236
14890.0 0.00043944
14910.0 0.00044659
14930.0 0.00045298
14950.0 0.00045851
14970.0 0.00046335
14990.0 0.00046688
15010.0 0.00046895
15030.0 0.00046985
15050.0 0.00046965
15070.0 0.00046842
15090.0 0.00046656
15110.0 0.00046426
15130.0 0.00046168
15150.0 0.00045899
15170.0 0.0004562
15190.0 0.00045336
15210.0 0.00045054
15230.0 0.00044772
15250.0 0.00044486
15270.0 0.00044202
15290.0 0.00043922
15310.0 0.0004364
15330.0 0.00043357
15350.0 0.00043077
15370.0 0.00042799
15390.0 0.00042516
15410.0 0.00042237
15430.0 0.00041961
15450.0 0.00041683
15470.0 0.00041405
15490.0 0.00041132
15510.0 0.00040859
15530.0 0.00040584
15550.0 0.00040312
15570.0 0.00040044
15590.0 0.00039773
15610.0 0.00039502
15630.0 0.00039237
15650.0 0.00038972
15670.0 0.00038706
15690.0 0.00038443
15710.0 0.00038183
15730.0 0.00037922
15750.0 0.00037662
15770.0 0.00037406
15790.0 0.00037151
15810.0 0.00036894
15830.0 0.00036642
15850.0 0.00036393
15870.0 0.00036143
15890.0 0.00035894
15910.0 0.0003565
15930.0 0.00035406
15950.0 0.00035161
15970.0 0.0003492
15990.0 0.00034682
16010.0 0.00034443
16030.0 0.00034205
16050.0 0.00033973
16070.0 0.00033741
16090.0 0.00033509
16110.0 0.00033281
16130.0 0.00033056
16150.0 0.00032828
16170.0 0.00032603
16190.0 0.00032383
16210.0 0.00032163
16230.0 0.00031943
16250.0 0.00031728
16270.0 0.00031515
16290.0 0.00031301
16310.0 0.00031089
16330.0 0.00030882
16350.0 0.00030674
16370.0 0.00030466
16390.0 0.00030263
16410.0 0.00030062
16430.0 0.00029861
16450.0 0.00029662
16470.0 0.00029467
16490.0 0.00029272
16510.0 0.00029077
16530.0 0.00028886
16550.0 0.00028697
16570.0 0.00028507
16590.0 0.0002832
16610.0 0.00028138
16630.0 0.00027954
16650.0 0.00027772
16670.0 0.00027594
16690.0 0.00027417
16710.0 0.00027238
16730.0 0.00027063
16750.0 0.00026892
16770.0 0.0002672
16790.0 0.00026548
16810.0 0.00026382
16830.0 0.00026216
16850.0 0.0002605
16870.0 0.00025887
16890.0 0.00025727
16910.0 0.00025565
16930.0 0.00025404
16950.0 0.00025248
16970.0 0.00025093
16990.0 0.00024937
17010.0 0.00024785
17030.0 0.00024636
17050.0 0.00024484
17070.0 0.00024335
17090.0 0.00024189
17110.0 0.00024044
17130.0 0.00023897
17150.0 0.00023754
17170.0 0.00023615
17190.0 0.00023474
17210.0 0.00023334
17230.0 0.00023198
17250.0 0.00023062
17270.0 0.00022925
17290.0 0.00022792
17310.0 0.00022661
17330.0 0.00022528
17350.0 0.00022397
17370.0 0.0002227
17390.0 0.00022143
17410.0 0.00022016
17430.0 0.00021891
17450.0 0.00021769
17470.0 0.00021644
17490.0 0.00021521
17510.0 0.00021403
17530.0 0.00021283
17550.0 0.00021163
17570.0 0.00021047
17590.0 0.00020933
17610.0 0.00020816
17630.0 0.00020702
17650.0 0.0002059
17670.0 0.00020478
17690.0 0.00020365
17710.0 0.00020256
17730.0 0.00020149
17750.0 0.0002004
17770.0 0.00019932
17790.0 0.00019829
17810.0 0.00019723
17830.0 0.00019617
17850.0 0.00019515
17870.0 0.00019414
17890.0 0.00019311
17910.0 0.0001921
17930.0 0.00019112
17950.0 0.00019013
17970.0 0.00018915
17990.0 0.00018819
18010.0 0.00018724
18030.0 0.00018626
18050.0 0.00018532
18070.0 0.0001844
18090.0 0.00018346
18110.0 0.00018253
18130.0 0.00018163
18150.0 0.00018074
18170.0 0.00017983
18190.0 0.00017894
18210.0 0.00017808
18230.0 0.00017719
18250.0 0.0001763
18270.0 0.00017546
18290.0 0.00017461
18310.0 0.00017375
18330.0 0.00017292
18350.0 0.00017211
18370.0 0.00017127
18390.0 0.00017044
18410.0 0.00016964
18430.0 0.00016884
18450.0 0.00016802
18470.0 0.00016723
18490.0 0.00016646
18510.0 0.00016567
18530.0 0.00016489
18550.0 0.00016415
18570.0 0.00016338
18590.0 0.00016261
18610.0 0.00016186
18630.0 0.00016113
18650.0 0.00016038
18670.0 0.00015964
18690.0 0.00015893
18710.0 0.00015821
18730.0 0.00015748
18750.0 0.00015678
18770.0 0.00015609
18790.0 0.00015536
18810.0 0.00015466
18830.0 0.00015399
18850.0 0.0001533
18870.0 0.00015261
18890.0 0.00015194
18910.0 0.00015128
18930.0 0.00015061
18950.0 0.00014994
18970.0 0.0001493
18990.0 0.00014865
19010.0 0.00014797
19030.0 0.00014734
19050.0 0.00014671
19070.0 0.00014607
19090.0 0.00014544
19110.0 0.00014483
19130.0 0.0001442
19150.0 0.00014357
19170.0 0.00014297
19190.0 0.00014237
19210.0 0.00014174
19230.0 0.00014114
19250.0 0.00014056
19270.0 0.00013996
19290.0 0.00013936
19310.0 0.00013879
19330.0 0.00013821
19350.0 0.00013761
19370.0 0.00013704
19390.0 0.00013648
19410.0 0.0001359
19430.0 0.00013532
19450.0 0.00013478
19470.0 0.00013422
19490.0 0.00013366
19510.0 0.00013311
19530.0 0.00013257
19550.0 0.00013201
19570.0 0.00013145
19590.0 0.00013093
19610.0 0.00013039
19630.0 0.00012985
19650.0 0.00012932
19670.0 0.00012881
19690.0 0.00012827
19710.0 0.00012774
19730.0 0.00012723
19750.0 0.00012671
19770.0 0.00012617
19790.0 0.00012567
19810.0 0.00012517
19830.0 0.00012465
19850.0 0.00012413
19870.0 0.00012362
19890.0 0.00012307
19910.0 0.00012245
19930.0 0.00012179
19950.0 0.00012102
19970.0 0.00012005
19990.0 0.00011886
20010.0 0.00011752
20030.0 0.0001159
20050.0 0.00011402
20070.0 0.00011202
20090.0 0.0001099
20110.0 0.00010756
20130.0 0.00010526
20150.0 0.00010305
20170.0 0.00010081
20190.0 9.86e-05
20210.0 9.6571e-05
20230.0 9.464e-05
20250.0 9.275e-05
20270.0 9.1043e-05
20290.0 8.953e-05
20310.0 8.8135e-05
20330.0 8.6883e-05
20350.0 8.5907e-05
20370.0 8.5107e-05
20390.0 8.449e-05
20410.0 8.4099e-05
20430.0 8.3925e-05
20450.0 8.3955e-05
20470.0 8.4209e-05
20490.0 8.4662e-05
20510.0 8.5311e-05
20530.0 8.6177e-05
20550.0 8.7203e-05
20570.0 8.8339e-05
20590.0 8.965e-05
20610.0 9.1076e-05
20630.0 9.2531e-05
20650.0 9.4052e-05
20670.0 9.5671e-05
20690.0 9.7212e-05
20710.0 9.8693e-05
20730.0 0.00010016
20750.0 0.00010153
20770.0 0.00010275
20790.0 0.00010388
20810.0 0.0001049
20830.0 0.00010576
20850.0 0.00010648
20870.0 0.0001071
20890.0 0.00010759
20910.0 0.00010796
20930.0 0.00010823
20950.0 0.00010842
20970.0 0.00010853
20990.0 0.00010856
21010.0 0.00010853
21030.0 0.00010844
21050.0 0.00010828
21070.0 0.00010807
21090.0 0.00010779
21110.0 0.00010746
21130.0 0.00010709
21150.0 0.00010666
21170.0 0.00010618
21190.0 0.0001057
21210.0 0.00010517
21230.0 0.00010461
21250.0 0.00010408
21270.0 0.00010355
21290.0 0.00010303
21310.0 0.00010255
21330.0 0.00010214
21350.0 0.00010176
21370.0 0.00010143
21390.0 0.00010119
21410.0 0.00010101
21430.0 0.00010091
21450.0 0.00010089
21470.0 0.00010094
21490.0 0.00010107
21510.0 0.00010128
21530.0 0.00010155
21550.0 0.00010189
21570.0 0.0001023
21590.0 0.00010276
21610.0 0.00010326
21630.0 0.00010383
21650.0 0.00010447
21670.0 0.00010512
21690.0 0.00010581
21710.0 0.00010658
21730.0 0.00010737
21750.0 0.00010818
21770.0 0.00010909
21790.0 0.00011003
21810.0 0.00011099
21830.0 0.000112
21850.0 0.00011309
21870.0 0.00011419
21890.0 0.0001153
21910.0 0.00011648
21930.0 0.00011769
21950.0 0.00011888
21970.0 0.00012011
21990.0 0.00012139
22010.0 0.00012261
22030.0 0.00012379
22050.0 0.00012497
22070.0 0.00012611
22090.0 0.00012714
22110.0 0.00012812
22130.0 0.00012902
22150.0 0.00012979
22170.0 0.00013043
22190.0 0.00013096
22210.0 0.00013133
22230.0 0.00013152
22250.0 0.00013155
22270.0 0.0001314
22290.0 0.00013107
22310.0 0.00013058
22330.0 0.00012986
22350.0 0.00012897
22370.0 0.00012794
22390.0 0.00012671
22410.0 0.00012528
22430.0 0.00012377
22450.0 0.00012215
22470.0 0.00012035
22490.0 0.00011847
22510.0 0.00011658
22530.0 0.00011456
22550.0 0.00011245
22570.0 0.00011041
22590.0 0.00010837
22610.0 0.00010626
22630.0 0.00010422
22650.0 0.0001023
22670.0 0.00010036
22690.0 9.8469e-05
22710.0 9.6714e-05
22730.0 9.5039e-05
22750.0 9.3356e-05
22770.0 9.183e-05
22790.0 9.0436e-05
22810.0 8.9091e-05
22830.0 8.7829e-05
22850.0 8.6712e-05
22870.0 8.5672e-05
22890.0 8.4688e-05
22910.0 8.3826e-05
22930.0 8.3074e-05
22950.0 8.239e-05
22970.0 8.179e-05
22990.0 8.1325e-05
