#lamb flux
1010.0 9.4672e-10
1030.0 1.0471e-09
1050.0 1.1625e-09
1070.0 1.2925e-09
1090.0 1.4401e-09
1110.0 1.5914e-09
1130.0 1.7438e-09
1150.0 1.9034e-09
1170.0 2.068e-09
1190.0 2.2241e-09
1210.0 2.3824e-09
1230.0 2.5459e-09
1250.0 2.706e-09
1270.0 2.8616e-09
1290.0 3.026e-09
1310.0 3.1903e-09
1330.0 3.3478e-09
1350.0 3.5071e-09
1370.0 3.6715e-09
1390.0 3.8319e-09
1410.0 3.9875e-09
1430.0 4.1502e-09
1450.0 4.3128e-09
1470.0 4.47e-09
1490.0 4.629e-09
1510.0 4.7968e-09
1530.0 4.9559e-09
1550.0 5.1129e-09
1570.0 5.2753e-09
1590.0 5.4379e-09
1610.0 5.5934e-09
1630.0 5.7537e-09
1650.0 5.9182e-09
1670.0 6.0775e-09
1690.0 6.2348e-09
1710.0 6.3984e-09
1730.0 6.5629e-09
1750.0 6.7178e-09
1770.0 6.8774e-09
1790.0 7.0404e-09
1810.0 7.1984e-09
1830.0 7.3539e-09
1850.0 7.5191e-09
1870.0 7.6803e-09
1890.0 7.8365e-09
1910.0 7.996e-09
1930.0 8.1597e-09
1950.0 8.3163e-09
1970.0 8.4713e-09
1990.0 8.6326e-09
2010.0 8.7916e-09
2030.0 8.9452e-09
2050.0 9.1039e-09
2070.0 9.267e-09
2090.0 9.4211e-09
2110.0 9.5752e-09
2130.0 9.7342e-09
2150.0 9.8905e-09
2170.0 1.004e-08
2190.0 1.0196e-08
2210.0 1.0353e-08
2230.0 1.0504e-08
2250.0 1.0654e-08
2270.0 1.0812e-08
2290.0 1.0965e-08
2310.0 1.1111e-08
2330.0 1.1264e-08
2350.0 1.1421e-08
2370.0 1.1577e-08
2390.0 1.1746e-08
2410.0 1.1947e-08
2430.0 1.2177e-08
2450.0 1.2453e-08
2470.0 1.2806e-08
2490.0 1.3251e-08
2510.0 1.3757e-08
2530.0 1.4366e-08
2550.0 1.5128e-08
2570.0 1.6076e-08
2590.0 1.731e-08
2610.0 1.9156e-08
2630.0 2.1793e-08
2650.0 2.524e-08
2670.0 2.9697e-08
2690.0 3.5175e-08
2710.0 4.1021e-08
2730.0 4.6799e-08
2750.0 5.2489e-08
2770.0 5.7439e-08
2790.0 6.1369e-08
2810.0 6.4488e-08
2830.0 6.6925e-08
2850.0 6.8589e-08
2870.0 6.981e-08
2890.0 7.0776e-08
2910.0 7.1548e-08
2930.0 7.2178e-08
2950.0 7.278e-08
2970.0 7.3368e-08
2990.0 7.392e-08
3010.0 2.0894e-06
3030.0 2.105e-06
3050.0 2.1201e-06
3070.0 2.133e-06
3090.0 2.1442e-06
3110.0 2.1511e-06
3130.0 2.1508e-06
3150.0 2.1412e-06
3170.0 2.1183e-06
3190.0 2.0823e-06
3210.0 2.0366e-06
3230.0 1.9843e-06
3250.0 1.9327e-06
3270.0 1.895e-06
3290.0 1.8741e-06
3310.0 1.8775e-06
3330.0 1.9047e-06
3350.0 1.952e-06
3370.0 2.0195e-06
3390.0 2.1047e-06
3410.0 2.1973e-06
3430.0 2.3014e-06
3450.0 2.4211e-06
3470.0 2.5519e-06
3490.0 2.6905e-06
3510.0 2.8472e-06
3530.0 3.0149e-06
3550.0 3.1848e-06
3570.0 3.3619e-06
3590.0 3.5546e-06
3610.0 3.7532e-06
3630.0 3.9511e-06
3650.0 4.1565e-06
3670.0 4.344e-06
3690.0 4.4841e-06
3710.0 4.5644e-06
3730.0 4.5671e-06
3750.0 4.5035e-06
3770.0 4.4786e-06
3790.0 4.4519e-06
3810.0 4.3425e-06
3830.0 4.477e-06
3850.0 5.0058e-06
3870.0 5.296e-06
3890.0 5.2719e-06
3910.0 5.2943e-06
3930.0 5.4337e-06
3950.0 5.5195e-06
3970.0 5.0288e-06
3990.0 4.327e-06
4010.0 1.2969e-05
4030.0 1.5714e-05
4050.0 1.8015e-05
4070.0 1.5631e-05
4090.0 1.4157e-05
4110.0 1.2492e-05
4130.0 1.1497e-05
4150.0 1.223e-05
4170.0 1.2047e-05
4190.0 1.2841e-05
4210.0 1.2724e-05
4230.0 1.3458e-05
4250.0 1.5921e-05
4270.0 1.6109e-05
4290.0 1.4844e-05
4310.0 1.5424e-05
4330.0 1.6406e-05
4350.0 1.8396e-05
4370.0 2.0934e-05
4390.0 1.9645e-05
4410.0 1.4514e-05
4430.0 1.2287e-05
4450.0 1.129e-05
4470.0 8.6658e-06
4490.0 9.3515e-06
4510.0 1.4126e-05
4530.0 1.6291e-05
4550.0 1.6432e-05
4570.0 1.8491e-05
4590.0 2.1063e-05
4610.0 2.8408e-05
4630.0 3.6897e-05
4650.0 4.0014e-05
4670.0 3.7057e-05
4690.0 3.5359e-05
4710.0 3.7377e-05
4730.0 3.5273e-05
4750.0 2.6371e-05
4770.0 1.9344e-05
4790.0 1.8064e-05
4810.0 1.7217e-05
4830.0 1.5762e-05
4850.0 1.7297e-05
4870.0 2.285e-05
4890.0 2.6947e-05
4910.0 2.3643e-05
4930.0 2.092e-05
4950.0 2.2984e-05
4970.0 2.9476e-05
4990.0 3.9947e-05
5010.0 4.5954e-05
5030.0 4.052e-05
5050.0 2.7415e-05
5070.0 1.8067e-05
5090.0 1.4569e-05
5110.0 1.4982e-05
5130.0 1.7292e-05
5150.0 1.8735e-05
5170.0 1.8454e-05
5190.0 1.7244e-05
5210.0 1.8024e-05
5230.0 1.8947e-05
5250.0 2.0419e-05
5270.0 2.2031e-05
5290.0 2.4415e-05
5310.0 2.8418e-05
5330.0 3.1449e-05
5350.0 3.1248e-05
5370.0 3.2823e-05
5390.0 3.7665e-05
5410.0 3.7631e-05
5430.0 3.328e-05
5450.0 3.0576e-05
5470.0 3.2467e-05
5490.0 3.9665e-05
5510.0 4.9595e-05
5530.0 5.6884e-05
5550.0 5.4979e-05
5570.0 4.998e-05
5590.0 4.3458e-05
5610.0 4.0078e-05
5630.0 3.8863e-05
5650.0 3.7014e-05
5670.0 3.5073e-05
5690.0 3.1356e-05
5710.0 3.0572e-05
5730.0 2.8162e-05
5750.0 1.9856e-05
5770.0 1.5491e-05
5790.0 1.7554e-05
5810.0 1.9822e-05
5830.0 2.4324e-05
5850.0 2.8955e-05
5870.0 3.2126e-05
5890.0 3.2671e-05
5910.0 3.2052e-05
5930.0 3.051e-05
5950.0 3.1089e-05
5970.0 3.5438e-05
5990.0 3.3322e-05
6010.0 2.7933e-05
6030.0 2.36e-05
6050.0 2.0552e-05
6070.0 2.044e-05
6090.0 2.2164e-05
6110.0 2.4783e-05
6130.0 2.5162e-05
6150.0 2.165e-05
6170.0 1.9045e-05
6190.0 2.1433e-05
6210.0 2.8334e-05
6230.0 3.7182e-05
6250.0 4.0273e-05
6270.0 3.5193e-05
6290.0 2.961e-05
6310.0 2.3116e-05
6330.0 1.7711e-05
6350.0 1.5798e-05
6370.0 1.6613e-05
6390.0 1.9206e-05
6410.0 2.3681e-05
6430.0 2.7653e-05
6450.0 3.1643e-05
6470.0 3.6231e-05
6490.0 4.3765e-05
6510.0 4.8935e-05
6530.0 4.8008e-05
6550.0 4.3413e-05
6570.0 3.6853e-05
6590.0 3.3232e-05
6610.0 2.8654e-05
6630.0 2.596e-05
6650.0 2.4539e-05
6670.0 2.3839e-05
6690.0 2.154e-05
6710.0 1.958e-05
6730.0 1.4103e-05
6750.0 1.3982e-05
6770.0 1.5198e-05
6790.0 1.7468e-05
6810.0 1.5984e-05
6830.0 1.6459e-05
6850.0 1.5394e-05
6870.0 1.4063e-05
6890.0 1.3502e-05
6910.0 1.4389e-05
6930.0 1.3477e-05
6950.0 1.3866e-05
6970.0 1.4584e-05
6990.0 1.6554e-05
7010.0 1.6695e-05
7030.0 1.696e-05
7050.0 1.6174e-05
7070.0 1.5411e-05
7090.0 1.5456e-05
7110.0 1.5903e-05
7130.0 1.7115e-05
7150.0 1.8177e-05
7170.0 2.0057e-05
7190.0 2.2048e-05
7210.0 2.1665e-05
7230.0 2.2273e-05
7250.0 2.3935e-05
7270.0 2.6084e-05
7290.0 3.0959e-05
7310.0 3.3593e-05
7330.0 3.247e-05
7350.0 2.9368e-05
7370.0 2.5552e-05
7390.0 2.4789e-05
7410.0 2.6343e-05
7430.0 2.9277e-05
7450.0 3.1888e-05
7470.0 3.1595e-05
7490.0 2.8809e-05
7510.0 3.2633e-05
7530.0 3.2276e-05
7550.0 2.901e-05
7570.0 2.2662e-05
7590.0 1.558e-05
7610.0 1.3372e-05
7630.0 1.5193e-05
7650.0 1.7964e-05
7670.0 2.2357e-05
7690.0 2.4602e-05
7710.0 2.5639e-05
7730.0 2.6943e-05
7750.0 3.0247e-05
7770.0 3.0722e-05
7790.0 2.822e-05
7810.0 2.5749e-05
7830.0 2.6553e-05
7850.0 2.5812e-05
7870.0 2.3665e-05
7890.0 1.9883e-05
7910.0 1.6162e-05
7930.0 1.5433e-05
7950.0 1.406e-05
7970.0 1.3015e-05
7990.0 1.2941e-05
8010.0 9.5841e-07
8030.0 9.4595e-07
8050.0 9.332e-07
8070.0 9.4542e-07
8090.0 1.0158e-06
8110.0 9.9852e-07
8130.0 8.2365e-07
8150.0 8.0214e-07
8170.0 6.9093e-07
8190.0 6.548e-07
8210.0 8.5033e-07
8230.0 9.4673e-07
8250.0 8.5328e-07
8270.0 7.4266e-07
8290.0 7.2396e-07
8310.0 5.5719e-07
8330.0 3.7555e-07
8350.0 2.6652e-07
8370.0 1.6792e-07
8390.0 3.0695e-07
8410.0 3.5768e-07
8430.0 4.409e-07
8450.0 5.1774e-07
8470.0 6.4352e-07
8490.0 6.3898e-07
8510.0 6.2853e-07
8530.0 6.5596e-07
8550.0 8.8502e-07
8570.0 1.0477e-06
8590.0 1.1305e-06
8610.0 1.4281e-06
8630.0 1.7203e-06
8650.0 1.7996e-06
8670.0 1.9125e-06
8690.0 1.9232e-06
8710.0 1.7417e-06
8730.0 1.6201e-06
8750.0 1.43e-06
8770.0 1.3569e-06
8790.0 1.333e-06
8810.0 1.2774e-06
8830.0 1.0214e-06
8850.0 7.4777e-07
8870.0 5.7256e-07
8890.0 5.5977e-07
8910.0 6.415e-07
8930.0 7.2966e-07
8950.0 7.4364e-07
8970.0 7.4715e-07
8990.0 6.6637e-07
9010.0 6.9832e-06
9030.0 6.3277e-06
9050.0 6.3582e-06
9070.0 6.4084e-06
9090.0 6.4524e-06
9110.0 6.5068e-06
9130.0 6.5487e-06
9150.0 6.5813e-06
9170.0 6.6161e-06
9190.0 6.6532e-06
9210.0 6.6923e-06
9230.0 6.7335e-06
9250.0 6.7754e-06
9270.0 6.8189e-06
9290.0 6.8637e-06
9310.0 6.9087e-06
9330.0 6.9547e-06
9350.0 7.0024e-06
9370.0 7.0506e-06
9390.0 7.0993e-06
9410.0 7.1494e-06
9430.0 7.201e-06
9450.0 7.2524e-06
9470.0 7.3049e-06
9490.0 7.359e-06
9510.0 7.4136e-06
9530.0 7.4685e-06
9550.0 7.5254e-06
9570.0 7.5832e-06
9590.0 7.6411e-06
9610.0 7.7001e-06
9630.0 7.7607e-06
9650.0 7.8218e-06
9670.0 7.8829e-06
9690.0 7.9458e-06
9710.0 8.0096e-06
9730.0 8.0735e-06
9750.0 8.1384e-06
9770.0 8.2052e-06
9790.0 8.2719e-06
9810.0 8.339e-06
9830.0 8.4074e-06
9850.0 8.4768e-06
9870.0 8.5459e-06
9890.0 8.6161e-06
9910.0 8.6876e-06
9930.0 8.7591e-06
9950.0 8.831e-06
9970.0 8.9042e-06
9990.0 8.9782e-06
10010.0 7.7907e-06
10030.0 7.8547e-06
10050.0 7.92e-06
10070.0 7.9874e-06
10090.0 8.0511e-06
10110.0 8.1163e-06
10130.0 8.1817e-06
10150.0 8.247e-06
10170.0 8.313e-06
10190.0 8.3802e-06
10210.0 8.4465e-06
10230.0 8.5127e-06
10250.0 8.58e-06
10270.0 8.6472e-06
10290.0 8.7136e-06
10310.0 8.7808e-06
10330.0 8.8487e-06
10350.0 8.9154e-06
10370.0 8.9819e-06
10390.0 9.0492e-06
10410.0 9.1161e-06
10430.0 9.1817e-06
10450.0 9.248e-06
10470.0 9.3145e-06
10490.0 9.3799e-06
10510.0 9.4447e-06
10530.0 9.5107e-06
10550.0 9.5756e-06
10570.0 9.6391e-06
10590.0 9.703e-06
10610.0 9.7668e-06
10630.0 9.829e-06
10650.0 9.8907e-06
10670.0 9.9531e-06
10690.0 1.0014e-05
10710.0 1.0074e-05
10730.0 1.0134e-05
10750.0 1.0194e-05
10770.0 1.0252e-05
10790.0 1.0309e-05
10810.0 1.0366e-05
10830.0 1.0421e-05
10850.0 1.0474e-05
10870.0 1.0525e-05
10890.0 1.0569e-05
10910.0 1.0604e-05
10930.0 1.0623e-05
10950.0 1.0619e-05
10970.0 1.0583e-05
10990.0 1.0512e-05
11010.0 1.0394e-05
11030.0 1.0229e-05
11050.0 1.0027e-05
11070.0 9.7862e-06
11090.0 9.4967e-06
11110.0 9.1972e-06
11130.0 8.8848e-06
11150.0 8.5484e-06
11170.0 8.2017e-06
11190.0 7.8654e-06
11210.0 7.5181e-06
11230.0 7.1619e-06
11250.0 6.8216e-06
11270.0 6.4948e-06
11290.0 6.1673e-06
11310.0 5.8572e-06
11330.0 5.584e-06
11350.0 5.326e-06
11370.0 5.0875e-06
11390.0 4.8812e-06
11410.0 4.7008e-06
11430.0 4.5331e-06
11450.0 4.3886e-06
11470.0 4.2636e-06
11490.0 4.1474e-06
11510.0 4.0354e-06
11530.0 3.9314e-06
11550.0 3.8282e-06
11570.0 3.718e-06
11590.0 3.6039e-06
11610.0 3.4878e-06
11630.0 3.3614e-06
11650.0 3.2261e-06
11670.0 3.0927e-06
11690.0 2.9575e-06
11710.0 2.818e-06
11730.0 2.6828e-06
11750.0 2.5577e-06
11770.0 2.435e-06
11790.0 2.32e-06
11810.0 2.2188e-06
11830.0 2.1282e-06
11850.0 2.0448e-06
11870.0 1.9751e-06
11890.0 1.9171e-06
11910.0 1.8661e-06
11930.0 1.8224e-06
11950.0 1.7859e-06
11970.0 1.7533e-06
11990.0 1.7225e-06
12010.0 1.694e-06
12030.0 1.6666e-06
12050.0 1.6382e-06
12070.0 1.6086e-06
12090.0 1.5802e-06
12110.0 1.5513e-06
12130.0 1.5223e-06
12150.0 1.4956e-06
12170.0 1.4723e-06
12190.0 1.4522e-06
12210.0 1.4381e-06
12230.0 1.4313e-06
12250.0 1.4324e-06
12270.0 1.4432e-06
12290.0 1.4637e-06
12310.0 1.4929e-06
12330.0 1.5339e-06
12350.0 1.5851e-06
12370.0 1.6433e-06
12390.0 1.7104e-06
12410.0 1.7891e-06
12430.0 1.869e-06
12450.0 1.9518e-06
12470.0 2.0399e-06
12490.0 2.1283e-06
12510.0 2.2112e-06
12530.0 2.2938e-06
12550.0 2.3734e-06
12570.0 2.4436e-06
12590.0 2.5053e-06
12610.0 2.5603e-06
12630.0 2.6041e-06
12650.0 2.6344e-06
12670.0 2.6543e-06
12690.0 2.6622e-06
12710.0 2.6579e-06
12730.0 2.6424e-06
12750.0 2.6149e-06
12770.0 2.5772e-06
12790.0 2.5315e-06
12810.0 2.4769e-06
12830.0 2.4137e-06
12850.0 2.3476e-06
12870.0 2.2777e-06
12890.0 2.2021e-06
12910.0 2.1252e-06
12930.0 2.0495e-06
12950.0 1.9704e-06
12970.0 1.8899e-06
12990.0 1.8138e-06
13010.0 1.7386e-06
13030.0 1.6626e-06
13050.0 1.5896e-06
13070.0 1.5212e-06
13090.0 1.4526e-06
13110.0 1.3861e-06
13130.0 1.3249e-06
13150.0 1.2669e-06
13170.0 1.2102e-06
13190.0 1.1597e-06
13210.0 1.1152e-06
13230.0 1.0745e-06
13250.0 1.0396e-06
13270.0 1.0119e-06
13290.0 9.9047e-07
13310.0 9.7568e-07
13330.0 9.6895e-07
13350.0 9.6973e-07
13370.0 9.7842e-07
13390.0 9.9551e-07
13410.0 1.0186e-06
13430.0 1.0486e-06
13450.0 1.0857e-06
13470.0 1.1269e-06
13490.0 1.1704e-06
13510.0 1.2196e-06
13530.0 1.2695e-06
13550.0 1.3172e-06
13570.0 1.3642e-06
13590.0 1.4101e-06
13610.0 1.4508e-06
13630.0 1.4864e-06
13650.0 1.5189e-06
13670.0 1.5459e-06
13690.0 1.5668e-06
13710.0 1.5829e-06
13730.0 1.5945e-06
13750.0 1.6002e-06
13770.0 1.6015e-06
13790.0 1.5986e-06
13810.0 1.5916e-06
13830.0 1.5811e-06
13850.0 1.567e-06
13870.0 1.5492e-06
13890.0 1.5288e-06
13910.0 1.5059e-06
13930.0 1.4793e-06
13950.0 1.4503e-06
13970.0 1.4206e-06
13990.0 1.3883e-06
14010.0 1.3539e-06
14030.0 1.3196e-06
14050.0 1.2851e-06
14070.0 1.2486e-06
14090.0 1.2137e-06
14110.0 1.1808e-06
14130.0 1.149e-06
14150.0 1.119e-06
14170.0 1.0935e-06
14190.0 1.0714e-06
14210.0 1.0526e-06
14230.0 1.0387e-06
14250.0 1.0297e-06
14270.0 1.0254e-06
14290.0 1.0263e-06
14310.0 1.032e-06
14330.0 1.0423e-06
14350.0 1.0574e-06
14370.0 1.0762e-06
14390.0 1.0976e-06
14410.0 1.1228e-06
14430.0 1.1505e-06
14450.0 1.1787e-06
14470.0 1.2081e-06
14490.0 1.2392e-06
14510.0 1.269e-06
14530.0 1.2973e-06
14550.0 1.3256e-06
14570.0 1.3528e-06
14590.0 1.3775e-06
14610.0 1.4015e-06
14630.0 1.4251e-06
14650.0 1.4472e-06
14670.0 1.4685e-06
14690.0 1.4907e-06
14710.0 1.514e-06
14730.0 1.5373e-06
14750.0 1.5632e-06
14770.0 1.5925e-06
14790.0 1.6243e-06
14810.0 1.6588e-06
14830.0 1.6996e-06
14850.0 1.744e-06
14870.0 1.7902e-06
14890.0 1.8402e-06
14910.0 1.8932e-06
14930.0 1.9442e-06
14950.0 1.9919e-06
14970.0 2.037e-06
14990.0 2.0748e-06
15010.0 2.1037e-06
15030.0 2.1252e-06
15050.0 2.1393e-06
15070.0 2.1463e-06
15090.0 2.1487e-06
15110.0 2.148e-06
15130.0 2.1453e-06
15150.0 2.1417e-06
15170.0 2.1374e-06
15190.0 2.1328e-06
15210.0 2.1282e-06
15230.0 2.1237e-06
15250.0 2.119e-06
15270.0 2.1144e-06
15290.0 2.11e-06
15310.0 2.1055e-06
15330.0 2.1009e-06
15350.0 2.0965e-06
15370.0 2.0922e-06
15390.0 2.0876e-06
15410.0 2.0832e-06
15430.0 2.0789e-06
15450.0 2.0746e-06
15470.0 2.0701e-06
15490.0 2.0659e-06
15510.0 2.0617e-06
15530.0 2.0573e-06
15550.0 2.0531e-06
15570.0 2.049e-06
15590.0 2.0447e-06
15610.0 2.0403e-06
15630.0 2.0362e-06
15650.0 2.0321e-06
15670.0 2.0279e-06
15690.0 2.0237e-06
15710.0 2.0197e-06
15730.0 2.0155e-06
15750.0 2.0113e-06
15770.0 2.0073e-06
15790.0 2.0033e-06
15810.0 1.999e-06
15830.0 1.995e-06
15850.0 1.991e-06
15870.0 1.9869e-06
15890.0 1.9828e-06
15910.0 1.9789e-06
15930.0 1.9749e-06
15950.0 1.9707e-06
15970.0 1.9667e-06
15990.0 1.9628e-06
16010.0 1.9587e-06
16030.0 1.9546e-06
16050.0 1.9507e-06
16070.0 1.9467e-06
16090.0 1.9427e-06
16110.0 1.9387e-06
16130.0 1.9348e-06
16150.0 1.9307e-06
16170.0 1.9266e-06
16190.0 1.9227e-06
16210.0 1.9188e-06
16230.0 1.9147e-06
16250.0 1.9107e-06
16270.0 1.9068e-06
16290.0 1.9028e-06
16310.0 1.8987e-06
16330.0 1.8948e-06
16350.0 1.8908e-06
16370.0 1.8866e-06
16390.0 1.8827e-06
16410.0 1.8788e-06
16430.0 1.8747e-06
16450.0 1.8706e-06
16470.0 1.8668e-06
16490.0 1.8627e-06
16510.0 1.8586e-06
16530.0 1.8546e-06
16550.0 1.8506e-06
16570.0 1.8464e-06
16590.0 1.8423e-06
16610.0 1.8384e-06
16630.0 1.8343e-06
16650.0 1.8301e-06
16670.0 1.8261e-06
16690.0 1.8221e-06
16710.0 1.8179e-06
16730.0 1.8137e-06
16750.0 1.8097e-06
16770.0 1.8055e-06
16790.0 1.8013e-06
16810.0 1.7973e-06
16830.0 1.7932e-06
16850.0 1.7889e-06
16870.0 1.7847e-06
16890.0 1.7807e-06
16910.0 1.7764e-06
16930.0 1.7721e-06
16950.0 1.768e-06
16970.0 1.7638e-06
16990.0 1.7594e-06
17010.0 1.7552e-06
17030.0 1.7511e-06
17050.0 1.7468e-06
17070.0 1.7424e-06
17090.0 1.7382e-06
17110.0 1.734e-06
17130.0 1.7295e-06
17150.0 1.7252e-06
17170.0 1.721e-06
17190.0 1.7166e-06
17210.0 1.7122e-06
17230.0 1.7079e-06
17250.0 1.7036e-06
17270.0 1.699e-06
17290.0 1.6947e-06
17310.0 1.6904e-06
17330.0 1.6859e-06
17350.0 1.6813e-06
17370.0 1.677e-06
17390.0 1.6726e-06
17410.0 1.668e-06
17430.0 1.6636e-06
17450.0 1.6593e-06
17470.0 1.6546e-06
17490.0 1.65e-06
17510.0 1.6456e-06
17530.0 1.6411e-06
17550.0 1.6364e-06
17570.0 1.6319e-06
17590.0 1.6275e-06
17610.0 1.6228e-06
17630.0 1.6182e-06
17650.0 1.6137e-06
17670.0 1.6091e-06
17690.0 1.6043e-06
17710.0 1.5998e-06
17730.0 1.5952e-06
17750.0 1.5905e-06
17770.0 1.5858e-06
17790.0 1.5813e-06
17810.0 1.5766e-06
17830.0 1.5718e-06
17850.0 1.5671e-06
17870.0 1.5625e-06
17890.0 1.5577e-06
17910.0 1.5529e-06
17930.0 1.5483e-06
17950.0 1.5435e-06
17970.0 1.5387e-06
17990.0 1.5341e-06
18010.0 1.5294e-06
18030.0 1.5244e-06
18050.0 1.5196e-06
18070.0 1.5149e-06
18090.0 1.5101e-06
18110.0 1.5052e-06
18130.0 1.5005e-06
18150.0 1.4957e-06
18170.0 1.4908e-06
18190.0 1.486e-06
18210.0 1.4812e-06
18230.0 1.4763e-06
18250.0 1.4713e-06
18270.0 1.4666e-06
18290.0 1.4617e-06
18310.0 1.4567e-06
18330.0 1.4519e-06
18350.0 1.4471e-06
18370.0 1.4422e-06
18390.0 1.4372e-06
18410.0 1.4324e-06
18430.0 1.4275e-06
18450.0 1.4224e-06
18470.0 1.4175e-06
18490.0 1.4127e-06
18510.0 1.4077e-06
18530.0 1.4027e-06
18550.0 1.3979e-06
18570.0 1.393e-06
18590.0 1.3879e-06
18610.0 1.383e-06
18630.0 1.3781e-06
18650.0 1.3731e-06
18670.0 1.368e-06
18690.0 1.3632e-06
18710.0 1.3582e-06
18730.0 1.3532e-06
18750.0 1.3483e-06
18770.0 1.3434e-06
18790.0 1.3382e-06
18810.0 1.3332e-06
18830.0 1.3283e-06
18850.0 1.3233e-06
18870.0 1.3183e-06
18890.0 1.3133e-06
18910.0 1.3085e-06
18930.0 1.3034e-06
18950.0 1.2983e-06
18970.0 1.2934e-06
18990.0 1.2884e-06
19010.0 1.2832e-06
19030.0 1.2783e-06
19050.0 1.2734e-06
19070.0 1.2683e-06
19090.0 1.2633e-06
19110.0 1.2585e-06
19130.0 1.2534e-06
19150.0 1.2483e-06
19170.0 1.2434e-06
19190.0 1.2384e-06
19210.0 1.2333e-06
19230.0 1.2282e-06
19250.0 1.2234e-06
19270.0 1.2183e-06
19290.0 1.2133e-06
19310.0 1.2084e-06
19330.0 1.2034e-06
19350.0 1.1982e-06
19370.0 1.1933e-06
19390.0 1.1884e-06
19410.0 1.1833e-06
19430.0 1.1782e-06
19450.0 1.1734e-06
19470.0 1.1684e-06
19490.0 1.1633e-06
19510.0 1.1583e-06
19530.0 1.1535e-06
19550.0 1.1484e-06
19570.0 1.1433e-06
19590.0 1.1384e-06
19610.0 1.1335e-06
19630.0 1.1284e-06
19650.0 1.1235e-06
19670.0 1.1186e-06
19690.0 1.1135e-06
19710.0 1.1085e-06
19730.0 1.1036e-06
19750.0 1.0987e-06
19770.0 1.0936e-06
19790.0 1.0886e-06
19810.0 1.0838e-06
19830.0 1.0787e-06
19850.0 1.0737e-06
19870.0 1.0687e-06
19890.0 1.0634e-06
19910.0 1.0575e-06
19930.0 1.0512e-06
19950.0 1.0441e-06
19970.0 1.0352e-06
19990.0 1.0246e-06
20010.0 9.1156e-07
20030.0 8.9837e-07
20050.0 8.8293e-07
20070.0 8.662e-07
20090.0 8.482e-07
20110.0 8.2785e-07
20130.0 8.0724e-07
20150.0 7.8681e-07
20170.0 7.6564e-07
20190.0 7.4416e-07
20210.0 7.2387e-07
20230.0 7.0409e-07
20250.0 6.8426e-07
20270.0 6.6585e-07
20290.0 6.4905e-07
20310.0 6.3309e-07
20330.0 6.1817e-07
20350.0 6.0578e-07
20370.0 5.9479e-07
20390.0 5.8514e-07
20410.0 5.7736e-07
20430.0 5.7135e-07
20450.0 5.666e-07
20470.0 5.6341e-07
20490.0 5.617e-07
20510.0 5.6121e-07
20530.0 5.619e-07
20550.0 5.6364e-07
20570.0 5.6616e-07
20590.0 5.6958e-07
20610.0 5.7372e-07
20630.0 5.7827e-07
20650.0 5.8337e-07
20670.0 5.892e-07
20690.0 5.9514e-07
20710.0 6.0129e-07
20730.0 6.0791e-07
20750.0 6.1483e-07
20770.0 6.2163e-07
20790.0 6.2878e-07
20810.0 6.3633e-07
20830.0 6.4386e-07
20850.0 6.5141e-07
20870.0 6.595e-07
20890.0 6.6774e-07
20910.0 6.757e-07
20930.0 6.8395e-07
20950.0 6.925e-07
20970.0 7.0084e-07
20990.0 7.0907e-07
21010.0 7.1772e-07
21030.0 7.2618e-07
21050.0 7.3425e-07
21070.0 7.4231e-07
21090.0 7.5039e-07
21110.0 7.5776e-07
21130.0 7.6469e-07
21150.0 7.714e-07
21170.0 7.7747e-07
21190.0 7.827e-07
21210.0 7.874e-07
21230.0 7.9131e-07
21250.0 7.941e-07
21270.0 7.9587e-07
21290.0 7.9653e-07
21310.0 7.9589e-07
21330.0 7.9402e-07
21350.0 7.9072e-07
21370.0 7.8588e-07
21390.0 7.7972e-07
21410.0 7.7219e-07
21430.0 7.6264e-07
21450.0 7.5193e-07
21470.0 7.4027e-07
21490.0 7.2707e-07
21510.0 7.126e-07
21530.0 6.9789e-07
21550.0 6.8248e-07
21570.0 6.6605e-07
21590.0 6.4989e-07
21610.0 6.3428e-07
21630.0 6.1865e-07
21650.0 6.0338e-07
21670.0 5.9014e-07
21690.0 5.7794e-07
21710.0 5.6694e-07
21730.0 5.5794e-07
21750.0 5.5099e-07
21770.0 5.457e-07
21790.0 5.4265e-07
21810.0 5.4181e-07
21830.0 5.4301e-07
21850.0 5.464e-07
21870.0 5.517e-07
21890.0 5.5854e-07
21910.0 5.6731e-07
21930.0 5.7759e-07
21950.0 5.8874e-07
21970.0 6.0108e-07
21990.0 6.1494e-07
22010.0 6.2879e-07
22030.0 6.4285e-07
22050.0 6.5762e-07
22070.0 6.7247e-07
22090.0 6.8654e-07
22110.0 7.0071e-07
22130.0 7.1487e-07
22150.0 7.2809e-07
22170.0 7.4055e-07
22190.0 7.529e-07
22210.0 7.6439e-07
22230.0 7.7451e-07
22250.0 7.8403e-07
22270.0 7.928e-07
22290.0 8.003e-07
22310.0 8.0673e-07
22330.0 8.1239e-07
22350.0 8.1677e-07
22370.0 8.1986e-07
22390.0 8.2179e-07
22410.0 8.2241e-07
22430.0 8.2162e-07
22450.0 8.195e-07
22470.0 8.1585e-07
22490.0 8.1071e-07
22510.0 8.0431e-07
22530.0 7.9611e-07
22550.0 7.8615e-07
22570.0 7.7509e-07
22590.0 7.6263e-07
22610.0 7.4829e-07
22630.0 7.3276e-07
