#lamb flux
1010.0 3.8771e-10
1030.0 5.1374e-10
1050.0 6.7813e-10
1070.0 8.8836e-10
1090.0 1.1574e-09
1110.0 1.4779e-09
1130.0 1.8498e-09
1150.0 2.286e-09
1170.0 2.7857e-09
1190.0 3.3219e-09
1210.0 3.9052e-09
1230.0 4.5347e-09
1250.0 5.1794e-09
1270.0 5.8179e-09
1290.0 6.4644e-09
1310.0 7.0783e-09
1330.0 7.6211e-09
1350.0 8.0957e-09
1370.0 8.4951e-09
1390.0 8.7817e-09
1410.0 8.9466e-09
1430.0 9.0173e-09
1450.0 8.9766e-09
1470.0 8.8195e-09
1490.0 8.574e-09
1510.0 8.2656e-09
1530.0 7.8744e-09
1550.0 7.4327e-09
1570.0 6.9699e-09
1590.0 6.4888e-09
1610.0 5.9946e-09
1630.0 5.5143e-09
1650.0 5.0539e-09
1670.0 4.6114e-09
1690.0 4.1964e-09
1710.0 3.8178e-09
1730.0 3.4729e-09
1750.0 3.1576e-09
1770.0 2.8799e-09
1790.0 2.6375e-09
1810.0 2.426e-09
1830.0 2.2455e-09
1850.0 2.2244e-09
1870.0 2.3314e-09
1890.0 2.4278e-09
1910.0 2.5168e-09
1930.0 2.5993e-09
1950.0 2.6584e-09
1970.0 2.7095e-09
1990.0 2.764e-09
2010.0 2.819e-09
2030.0 2.8734e-09
2050.0 2.9309e-09
2070.0 2.97e-09
2090.0 2.9975e-09
2110.0 3.0199e-09
2130.0 3.0391e-09
2150.0 3.0528e-09
2170.0 3.0603e-09
2190.0 3.0659e-09
2210.0 3.1603e-09
2230.0 3.3661e-09
2250.0 3.5806e-09
2270.0 3.8054e-09
2290.0 4.0352e-09
2310.0 4.2678e-09
2330.0 4.5061e-09
2350.0 4.7476e-09
2370.0 4.9872e-09
2390.0 5.2269e-09
2410.0 5.4678e-09
2430.0 5.7028e-09
2450.0 5.9316e-09
2470.0 6.1581e-09
2490.0 6.3835e-09
2510.0 6.6063e-09
2530.0 6.8425e-09
2550.0 7.1144e-09
2570.0 7.4418e-09
2590.0 7.8528e-09
2610.0 8.4288e-09
2630.0 9.2098e-09
2650.0 1.02e-08
2670.0 1.1472e-08
2690.0 1.3082e-08
2710.0 1.4919e-08
2730.0 1.6909e-08
2750.0 1.9115e-08
2770.0 2.1323e-08
2790.0 2.3341e-08
2810.0 2.5177e-08
2830.0 2.6821e-08
2850.0 2.805e-08
2870.0 2.8999e-08
2890.0 2.977e-08
2910.0 3.0368e-08
2930.0 3.0807e-08
2950.0 3.121e-08
2970.0 3.1589e-08
2990.0 3.1912e-08
3010.0 3.2218e-08
3030.0 3.2563e-08
3050.0 3.2923e-08
3070.0 3.3254e-08
3090.0 3.3642e-08
3110.0 3.4094e-08
3130.0 3.4613e-08
3150.0 3.4544e-08
3170.0 3.4935e-08
3190.0 3.5642e-08
3210.0 3.691e-08
3230.0 3.9256e-08
3250.0 4.4023e-08
3270.0 5.1022e-08
3290.0 5.8069e-08
3310.0 6.4355e-08
3330.0 6.753e-08
3350.0 6.9814e-08
3370.0 7.2167e-08
3390.0 7.4502e-08
3410.0 7.6526e-08
3430.0 7.83e-08
3450.0 7.9999e-08
3470.0 8.18e-08
3490.0 8.306e-08
3510.0 8.2134e-08
3530.0 7.9151e-08
3550.0 7.7415e-08
3570.0 8.1892e-08
3590.0 9.5838e-08
3610.0 1.0775e-07
3630.0 1.2291e-07
3650.0 1.2169e-07
3670.0 1.074e-07
3690.0 9.4227e-08
3710.0 8.978e-08
3730.0 9.2721e-08
3750.0 9.4944e-08
3770.0 9.813e-08
3790.0 1.0153e-07
3810.0 1.0431e-07
3830.0 9.6545e-08
3850.0 8.6612e-08
3870.0 8.1409e-08
3890.0 8.4226e-08
3910.0 8.5327e-08
3930.0 8.458e-08
3950.0 8.8196e-08
3970.0 9.2343e-08
3990.0 9.1819e-08
4010.0 9.0947e-08
4030.0 8.5979e-08
4050.0 8.1959e-08
4070.0 7.8586e-08
4090.0 7.7133e-08
4110.0 7.598e-08
4130.0 7.2155e-08
4150.0 6.7348e-08
4170.0 6.443e-08
4190.0 6.1707e-08
4210.0 5.5381e-08
4230.0 4.938e-08
4250.0 4.2935e-08
4270.0 3.7213e-08
4290.0 3.5008e-08
4310.0 3.3419e-08
4330.0 3.3225e-08
4350.0 3.6389e-08
4370.0 3.6686e-08
4390.0 3.989e-08
4410.0 4.1961e-08
4430.0 4.2481e-08
4450.0 3.7798e-08
4470.0 3.2785e-08
4490.0 3.0958e-08
4510.0 2.9208e-08
4530.0 2.814e-08
4550.0 2.7024e-08
4570.0 2.6714e-08
4590.0 2.7122e-08
4610.0 2.6212e-08
4630.0 2.5643e-08
4650.0 2.4648e-08
4670.0 2.4094e-08
4690.0 2.1807e-08
4710.0 1.9994e-08
4730.0 1.8115e-08
4750.0 1.7098e-08
4770.0 1.7707e-08
4790.0 1.7585e-08
4810.0 1.7255e-08
4830.0 1.8144e-08
4850.0 1.8348e-08
4870.0 1.8783e-08
4890.0 1.8579e-08
4910.0 1.7377e-08
4930.0 1.6196e-08
4950.0 1.56e-08
4970.0 1.4456e-08
4990.0 1.3514e-08
5010.0 1.3493e-08
5030.0 1.3899e-08
5050.0 1.4137e-08
5070.0 1.4719e-08
5090.0 1.5579e-08
5110.0 1.5707e-08
5130.0 1.5907e-08
5150.0 1.6005e-08
5170.0 1.6523e-08
5190.0 1.6909e-08
5210.0 1.6907e-08
5230.0 1.6842e-08
5250.0 1.6681e-08
5270.0 1.6685e-08
5290.0 1.6623e-08
5310.0 1.6579e-08
5330.0 1.6172e-08
5350.0 1.6359e-08
5370.0 1.6088e-08
5390.0 1.564e-08
5410.0 1.5557e-08
5430.0 1.527e-08
5450.0 1.5838e-08
5470.0 1.6145e-08
5490.0 1.7809e-08
5510.0 1.8221e-08
5530.0 1.852e-08
5550.0 1.8376e-08
5570.0 1.9235e-08
5590.0 1.9981e-08
5610.0 1.994e-08
5630.0 1.9631e-08
5650.0 1.9565e-08
5670.0 1.9173e-08
5690.0 1.908e-08
5710.0 1.824e-08
5730.0 1.8842e-08
5750.0 1.8218e-08
5770.0 1.7137e-08
5790.0 1.7048e-08
5810.0 1.6112e-08
5830.0 1.649e-08
5850.0 1.6411e-08
5870.0 1.597e-08
5890.0 1.5976e-08
5910.0 1.6979e-08
5930.0 1.6621e-08
5950.0 1.6774e-08
5970.0 1.667e-08
5990.0 1.6941e-08
6010.0 1.6268e-08
6030.0 1.6029e-08
6050.0 1.5707e-08
6070.0 1.4883e-08
6090.0 1.5176e-08
6110.0 1.5033e-08
6130.0 1.4225e-08
6150.0 1.3849e-08
6170.0 1.3595e-08
6190.0 1.1834e-08
6210.0 1.1642e-08
6230.0 1.1893e-08
6250.0 1.1636e-08
6270.0 1.1405e-08
6290.0 1.1832e-08
6310.0 1.2415e-08
6330.0 1.2319e-08
6350.0 1.1865e-08
6370.0 1.1922e-08
6390.0 1.1027e-08
6410.0 1.1055e-08
6430.0 1.0479e-08
6450.0 1.0495e-08
6470.0 1.0535e-08
6490.0 1.0551e-08
6510.0 9.7671e-09
6530.0 9.7316e-09
6550.0 9.5364e-09
6570.0 9.0477e-09
6590.0 9.4334e-09
6610.0 9.4344e-09
6630.0 9.2697e-09
6650.0 8.7267e-09
6670.0 8.4445e-09
6690.0 8.2137e-09
6710.0 7.885e-09
6730.0 7.6872e-09
6750.0 7.7455e-09
6770.0 7.6588e-09
6790.0 6.8542e-09
6810.0 6.8639e-09
6830.0 7.2596e-09
6850.0 6.6377e-09
6870.0 6.5548e-09
6890.0 6.4985e-09
6910.0 6.481e-09
6930.0 6.3398e-09
6950.0 6.6005e-09
6970.0 6.4128e-09
6990.0 6.3584e-09
7010.0 6.3964e-09
7030.0 6.6758e-09
7050.0 6.604e-09
7070.0 5.8551e-09
7090.0 5.266e-09
7110.0 5.4611e-09
7130.0 5.4619e-09
7150.0 5.6208e-09
7170.0 5.6344e-09
7190.0 5.6511e-09
7210.0 5.9952e-09
7230.0 6.6096e-09
7250.0 6.6263e-09
7270.0 6.7629e-09
7290.0 7.1126e-09
7310.0 6.7597e-09
7330.0 6.6008e-09
7350.0 6.3702e-09
7370.0 6.7243e-09
7390.0 7.2497e-09
7410.0 6.4703e-09
7430.0 6.6706e-09
7450.0 6.6633e-09
7470.0 7.2437e-09
7490.0 7.3368e-09
7510.0 6.8747e-09
7530.0 7.2444e-09
7550.0 6.3281e-09
7570.0 6.4098e-09
7590.0 6.2833e-09
7610.0 6.9348e-09
7630.0 6.8213e-09
7650.0 7.3484e-09
7670.0 6.4424e-09
7690.0 6.948e-09
7710.0 7.0448e-09
7730.0 7.3401e-09
7750.0 7.4887e-09
7770.0 7.7555e-09
7790.0 7.9938e-09
7810.0 7.8074e-09
7830.0 8.5848e-09
7850.0 7.9682e-09
7870.0 8.779e-09
7890.0 8.4083e-09
7910.0 8.3803e-09
7930.0 8.2126e-09
7950.0 8.7882e-09
7970.0 8.6354e-09
7990.0 8.1315e-09
8010.0 1e-99
8030.0 3.0771e-10
8050.0 7.1799e-10
8070.0 1e-99
8090.0 1e-99
8110.0 1e-99
8130.0 1e-99
8150.0 1e-99
8170.0 1e-99
8190.0 1e-99
8210.0 1e-99
8230.0 4.2548e-10
8250.0 8.8256e-10
8270.0 1e-99
8290.0 1e-99
8310.0 1e-99
8330.0 1.1945e-09
8350.0 1.2976e-09
8370.0 7.1566e-10
8390.0 5.4305e-10
8410.0 6.482e-10
8430.0 3.7007e-10
8450.0 1.1575e-09
8470.0 1.1825e-09
8490.0 1.1844e-09
8510.0 1.1737e-09
8530.0 1.2924e-10
8550.0 1e-99
8570.0 2.9991e-10
8590.0 2.8007e-10
8610.0 1.0153e-09
8630.0 6.024e-10
8650.0 6.8916e-10
8670.0 1.4983e-10
8690.0 1.8522e-10
8710.0 1e-99
8730.0 1e-99
8750.0 4.8002e-10
8770.0 7.8435e-10
8790.0 1e-99
8810.0 7.6229e-10
8830.0 1.2583e-09
8850.0 1.0067e-09
8870.0 8.5469e-10
8890.0 1.2145e-09
8910.0 1.121e-09
8930.0 4.5889e-11
8950.0 7.2149e-10
8970.0 1.0654e-09
8990.0 9.0626e-10
9010.0 9.2504e-10
9030.0 8.7047e-10
9050.0 8.3751e-10
9070.0 8.066e-10
9090.0 7.7552e-10
9110.0 7.439e-10
9130.0 7.1252e-10
9150.0 6.818e-10
9170.0 6.51e-10
9190.0 6.2024e-10
9210.0 5.8949e-10
9230.0 5.5889e-10
9250.0 5.2849e-10
9270.0 4.9828e-10
9290.0 4.6826e-10
9310.0 4.3177e-10
9330.0 3.852e-10
9350.0 3.3887e-10
9370.0 2.9323e-10
9390.0 2.4837e-10
9410.0 2.0392e-10
9430.0 1.5987e-10
9450.0 1.1689e-10
9470.0 7.1383e-11
9490.0 2.7966e-11
9510.0 1e-99
9530.0 1e-99
9550.0 1e-99
9570.0 1e-99
9590.0 1e-99
9610.0 1e-99
9630.0 1e-99
9650.0 1e-99
9670.0 1e-99
9690.0 1e-99
9710.0 1e-99
9730.0 1e-99
9750.0 1e-99
9770.0 1e-99
9790.0 1e-99
9810.0 1e-99
9830.0 1e-99
9850.0 1e-99
9870.0 1e-99
9890.0 1e-99
9910.0 1e-99
9930.0 1e-99
9950.0 1e-99
9970.0 1e-99
9990.0 1e-99
10010.0 1e-99
10030.0 1e-99
10050.0 1e-99
10070.0 1e-99
10090.0 1e-99
10110.0 1e-99
10130.0 1e-99
10150.0 1e-99
10170.0 1e-99
10190.0 1e-99
10210.0 1e-99
10230.0 1e-99
10250.0 1e-99
10270.0 1e-99
10290.0 1e-99
10310.0 1e-99
10330.0 1e-99
10350.0 1e-99
10370.0 1e-99
10390.0 1e-99
10410.0 1e-99
10430.0 1e-99
10450.0 1e-99
10470.0 1e-99
10490.0 1e-99
10510.0 1e-99
10530.0 1e-99
10550.0 1e-99
10570.0 1e-99
10590.0 1e-99
10610.0 1e-99
10630.0 1e-99
10650.0 1e-99
10670.0 1e-99
10690.0 1e-99
10710.0 1e-99
10730.0 1e-99
10750.0 1e-99
10770.0 1e-99
10790.0 1e-99
10810.0 1e-99
10830.0 1e-99
10850.0 1e-99
10870.0 1e-99
10890.0 1e-99
10910.0 1e-99
10930.0 1e-99
10950.0 1e-99
10970.0 1e-99
10990.0 1e-99
11010.0 3.5097e-09
11030.0 3.4853e-09
11050.0 3.4587e-09
11070.0 3.4298e-09
11090.0 3.398e-09
11110.0 3.3658e-09
11130.0 3.3329e-09
11150.0 3.2987e-09
11170.0 3.264e-09
11190.0 3.2299e-09
11210.0 3.1951e-09
11230.0 3.1598e-09
11250.0 3.1252e-09
11270.0 3.0913e-09
11290.0 3.057e-09
11310.0 3.0234e-09
11330.0 2.9918e-09
11350.0 2.9607e-09
11370.0 2.9303e-09
11390.0 2.9015e-09
11410.0 2.8741e-09
11430.0 2.8468e-09
11450.0 2.8208e-09
11470.0 2.7961e-09
11490.0 2.7717e-09
11510.0 2.7474e-09
11530.0 2.7241e-09
11550.0 2.701e-09
11570.0 2.6776e-09
11590.0 2.6542e-09
11610.0 2.6311e-09
11630.0 2.6075e-09
11650.0 2.5832e-09
11670.0 2.5593e-09
11690.0 2.5351e-09
11710.0 2.5102e-09
11730.0 2.4852e-09
11750.0 2.4606e-09
11770.0 2.4353e-09
11790.0 2.4097e-09
11810.0 2.3847e-09
11830.0 2.3597e-09
11850.0 2.3342e-09
11870.0 2.3095e-09
11890.0 2.2857e-09
11910.0 2.262e-09
11930.0 2.2389e-09
11950.0 2.2171e-09
11970.0 2.1961e-09
11990.0 2.1755e-09
12010.0 2.1564e-09
12030.0 2.1385e-09
12050.0 2.1215e-09
12070.0 2.1055e-09
12090.0 2.0912e-09
12110.0 2.0778e-09
12130.0 2.0653e-09
12150.0 2.0538e-09
12170.0 2.0434e-09
12190.0 2.0335e-09
12210.0 2.0243e-09
12230.0 2.0156e-09
12250.0 2.0072e-09
12270.0 1.9987e-09
12290.0 1.9903e-09
12310.0 1.9816e-09
12330.0 1.9724e-09
12350.0 1.9627e-09
12370.0 1.9524e-09
12390.0 1.9413e-09
12410.0 1.929e-09
12430.0 1.9162e-09
12450.0 1.9027e-09
12470.0 1.8879e-09
12490.0 1.8723e-09
12510.0 1.8563e-09
12530.0 1.8393e-09
12550.0 1.8212e-09
12570.0 1.8029e-09
12590.0 1.7843e-09
12610.0 1.7645e-09
12630.0 1.7443e-09
12650.0 1.7247e-09
12670.0 1.7045e-09
12690.0 1.6839e-09
12710.0 1.6639e-09
12730.0 1.6442e-09
12750.0 1.6238e-09
12770.0 1.6041e-09
12790.0 1.5854e-09
12810.0 1.5667e-09
12830.0 1.5483e-09
12850.0 1.5312e-09
12870.0 1.5149e-09
12890.0 1.4989e-09
12910.0 1.484e-09
12930.0 1.4703e-09
12950.0 1.4572e-09
12970.0 1.445e-09
12990.0 1.4344e-09
13010.0 1.4249e-09
13030.0 1.4163e-09
13050.0 1.4091e-09
13070.0 1.4031e-09
13090.0 1.3981e-09
13110.0 1.394e-09
13130.0 1.3909e-09
13150.0 1.3884e-09
13170.0 1.3865e-09
13190.0 1.3849e-09
13210.0 1.3836e-09
13230.0 1.3822e-09
13250.0 1.3808e-09
13270.0 1.3792e-09
13290.0 1.3773e-09
13310.0 1.3749e-09
13330.0 1.3721e-09
13350.0 1.3688e-09
13370.0 1.3648e-09
13390.0 1.3601e-09
13410.0 1.355e-09
13430.0 1.3492e-09
13450.0 1.3426e-09
13470.0 1.3354e-09
13490.0 1.3278e-09
13510.0 1.3192e-09
13530.0 1.31e-09
13550.0 1.3007e-09
13570.0 1.2909e-09
13590.0 1.2804e-09
13610.0 1.2699e-09
13630.0 1.2595e-09
13650.0 1.2484e-09
13670.0 1.2371e-09
13690.0 1.2262e-09
13710.0 1.2149e-09
13730.0 1.2029e-09
13750.0 1.1915e-09
13770.0 1.1802e-09
13790.0 1.1684e-09
13810.0 1.1567e-09
13830.0 1.1455e-09
13850.0 1.134e-09
13870.0 1.1223e-09
13890.0 1.1112e-09
13910.0 1.1004e-09
13930.0 1.0893e-09
13950.0 1.0786e-09
13970.0 1.0688e-09
13990.0 1.059e-09
14010.0 1.0493e-09
14030.0 1.0405e-09
14050.0 1.0322e-09
14070.0 1.0237e-09
14090.0 1.016e-09
14110.0 1.0091e-09
14130.0 1.0023e-09
14150.0 9.9584e-10
14170.0 9.9012e-10
14190.0 9.8476e-10
14210.0 9.7948e-10
14230.0 9.7462e-10
14250.0 9.7019e-10
14270.0 9.6575e-10
14290.0 9.6141e-10
14310.0 9.5755e-10
14330.0 9.5382e-10
14350.0 9.5008e-10
14370.0 9.4661e-10
14390.0 9.4348e-10
14410.0 9.403e-10
14430.0 9.3726e-10
14450.0 9.3454e-10
14470.0 9.3193e-10
14490.0 9.2925e-10
14510.0 9.2684e-10
14530.0 9.2464e-10
14550.0 9.2235e-10
14570.0 9.2008e-10
14590.0 9.1799e-10
14610.0 9.1583e-10
14630.0 9.1349e-10
14650.0 9.1125e-10
14670.0 9.0904e-10
14690.0 9.0663e-10
14710.0 9.0409e-10
14730.0 9.0174e-10
14750.0 8.9922e-10
14770.0 8.9648e-10
14790.0 8.9375e-10
14810.0 8.9102e-10
14830.0 8.8786e-10
14850.0 8.8464e-10
14870.0 8.8149e-10
14890.0 8.7818e-10
14910.0 8.7468e-10
14930.0 8.7143e-10
14950.0 8.6842e-10
14970.0 8.6546e-10
14990.0 8.629e-10
15010.0 8.6088e-10
15030.0 8.5921e-10
15050.0 8.5778e-10
15070.0 8.5686e-10
15090.0 8.5617e-10
15110.0 8.5554e-10
15130.0 8.5502e-10
15150.0 8.5463e-10
15170.0 8.5415e-10
15190.0 8.5364e-10
15210.0 8.5318e-10
15230.0 8.5271e-10
15250.0 8.5212e-10
15270.0 8.5153e-10
15290.0 8.5102e-10
15310.0 8.5042e-10
15330.0 8.4975e-10
15350.0 8.4913e-10
15370.0 8.4849e-10
15390.0 8.477e-10
15410.0 8.4694e-10
15430.0 8.4622e-10
15450.0 8.454e-10
15470.0 8.4451e-10
15490.0 8.4369e-10
15510.0 8.4283e-10
15530.0 8.4186e-10
15550.0 8.409e-10
15570.0 8.3996e-10
15590.0 8.389e-10
15610.0 8.3778e-10
15630.0 8.3673e-10
15650.0 8.3563e-10
15670.0 8.3443e-10
15690.0 8.3323e-10
15710.0 8.3208e-10
15730.0 8.3079e-10
15750.0 8.2946e-10
15770.0 8.2817e-10
15790.0 8.2682e-10
15810.0 8.2534e-10
15830.0 8.2391e-10
15850.0 8.225e-10
15870.0 8.2098e-10
15890.0 8.1942e-10
15910.0 8.1791e-10
15930.0 8.1632e-10
15950.0 8.1462e-10
15970.0 8.1296e-10
15990.0 8.1129e-10
16010.0 8.0952e-10
16030.0 8.0769e-10
16050.0 8.0596e-10
16070.0 8.0414e-10
16090.0 8.0223e-10
16110.0 8.0035e-10
16130.0 7.9848e-10
16150.0 7.9644e-10
16170.0 7.9442e-10
16190.0 7.9244e-10
16210.0 7.9039e-10
16230.0 7.8825e-10
16250.0 7.8616e-10
16270.0 7.8408e-10
16290.0 7.8186e-10
16310.0 7.7964e-10
16330.0 7.7747e-10
16350.0 7.7521e-10
16370.0 7.7283e-10
16390.0 7.7056e-10
16410.0 7.6826e-10
16430.0 7.6586e-10
16450.0 7.6346e-10
16470.0 7.6113e-10
16490.0 7.5867e-10
16510.0 7.5616e-10
16530.0 7.537e-10
16550.0 7.5123e-10
16570.0 7.4864e-10
16590.0 7.4606e-10
16610.0 7.4357e-10
16630.0 7.4097e-10
16650.0 7.3832e-10
16670.0 7.3573e-10
16690.0 7.3313e-10
16710.0 7.3038e-10
16730.0 7.2768e-10
16750.0 7.2503e-10
16770.0 7.2229e-10
16790.0 7.195e-10
16810.0 7.168e-10
16830.0 7.1406e-10
16850.0 7.1124e-10
16870.0 7.0844e-10
16890.0 7.0569e-10
16910.0 7.0283e-10
16930.0 6.9993e-10
16950.0 6.9713e-10
16970.0 6.9429e-10
16990.0 6.9137e-10
17010.0 6.8849e-10
17030.0 6.8567e-10
17050.0 6.8273e-10
17070.0 6.7979e-10
17090.0 6.7691e-10
17110.0 6.7399e-10
17130.0 6.7098e-10
17150.0 6.6804e-10
17170.0 6.6515e-10
17190.0 6.6217e-10
17210.0 6.5918e-10
17230.0 6.5627e-10
17250.0 6.533e-10
17270.0 6.5026e-10
17290.0 6.4729e-10
17310.0 6.4434e-10
17330.0 6.4131e-10
17350.0 6.3827e-10
17370.0 6.3535e-10
17390.0 6.3236e-10
17410.0 6.2932e-10
17430.0 6.2634e-10
17450.0 6.234e-10
17470.0 6.2032e-10
17490.0 6.1729e-10
17510.0 6.1433e-10
17530.0 6.1133e-10
17550.0 6.0828e-10
17570.0 6.0531e-10
17590.0 6.0236e-10
17610.0 5.9932e-10
17630.0 5.9631e-10
17650.0 5.9337e-10
17670.0 5.9037e-10
17690.0 5.8729e-10
17710.0 5.8435e-10
17730.0 5.8141e-10
17750.0 5.7839e-10
17770.0 5.7541e-10
17790.0 5.7252e-10
17810.0 5.6952e-10
17830.0 5.6652e-10
17850.0 5.6359e-10
17870.0 5.6067e-10
17890.0 5.5767e-10
17910.0 5.5471e-10
17930.0 5.5185e-10
17950.0 5.4891e-10
17970.0 5.4596e-10
17990.0 5.4309e-10
18010.0 5.4022e-10
18030.0 5.3725e-10
18050.0 5.3436e-10
18070.0 5.3152e-10
18090.0 5.2862e-10
18110.0 5.2571e-10
18130.0 5.229e-10
18150.0 5.2007e-10
18170.0 5.1719e-10
18190.0 5.1436e-10
18210.0 5.1158e-10
18230.0 5.0873e-10
18250.0 5.0586e-10
18270.0 5.0311e-10
18290.0 5.0033e-10
18310.0 4.9751e-10
18330.0 4.9475e-10
18350.0 4.9205e-10
18370.0 4.8925e-10
18390.0 4.8648e-10
18410.0 4.8379e-10
18430.0 4.8107e-10
18450.0 4.7828e-10
18470.0 4.756e-10
18490.0 4.7295e-10
18510.0 4.7024e-10
18530.0 4.6755e-10
18550.0 4.6494e-10
18570.0 4.6228e-10
18590.0 4.5958e-10
18610.0 4.5696e-10
18630.0 4.5437e-10
18650.0 4.5172e-10
18670.0 4.4908e-10
18690.0 4.4656e-10
18710.0 4.4398e-10
18730.0 4.4137e-10
18750.0 4.3883e-10
18770.0 4.3633e-10
18790.0 4.3372e-10
18810.0 4.3117e-10
18830.0 4.287e-10
18850.0 4.2619e-10
18870.0 4.2365e-10
18890.0 4.212e-10
18910.0 4.1876e-10
18930.0 4.1625e-10
18950.0 4.1379e-10
18970.0 4.1139e-10
18990.0 4.0895e-10
19010.0 4.0644e-10
19030.0 4.0407e-10
19050.0 4.017e-10
19070.0 3.9927e-10
19090.0 3.9689e-10
19110.0 3.9458e-10
19130.0 3.9219e-10
19150.0 3.898e-10
19170.0 3.8748e-10
19190.0 3.8517e-10
19210.0 3.828e-10
19230.0 3.8047e-10
19250.0 3.7823e-10
19270.0 3.7592e-10
19290.0 3.7361e-10
19310.0 3.7138e-10
19330.0 3.6914e-10
19350.0 3.6681e-10
19370.0 3.6457e-10
19390.0 3.6237e-10
19410.0 3.6013e-10
19430.0 3.5787e-10
19450.0 3.5571e-10
19470.0 3.5353e-10
19490.0 3.5129e-10
19510.0 3.4912e-10
19530.0 3.4699e-10
19550.0 3.4478e-10
19570.0 3.4257e-10
19590.0 3.4047e-10
19610.0 3.3834e-10
19630.0 3.3617e-10
19650.0 3.3406e-10
19670.0 3.3199e-10
19690.0 3.2984e-10
19710.0 3.2771e-10
19730.0 3.2565e-10
19750.0 3.2356e-10
19770.0 3.2141e-10
19790.0 3.1936e-10
19810.0 3.1733e-10
19830.0 3.1524e-10
19850.0 3.1318e-10
19870.0 3.112e-10
19890.0 3.0917e-10
19910.0 3.0714e-10
19930.0 3.0524e-10
19950.0 3.0343e-10
19970.0 3.0168e-10
19990.0 3.0009e-10
20010.0 2.9874e-10
20030.0 2.9751e-10
20050.0 2.9646e-10
20070.0 2.9559e-10
20090.0 2.9486e-10
20110.0 2.9421e-10
20130.0 2.9367e-10
20150.0 2.932e-10
20170.0 2.9276e-10
20190.0 2.9236e-10
20210.0 2.9199e-10
20230.0 2.9163e-10
20250.0 2.9127e-10
20270.0 2.9092e-10
20290.0 2.9057e-10
20310.0 2.902e-10
20330.0 2.8981e-10
20350.0 2.8941e-10
20370.0 2.8899e-10
20390.0 2.8853e-10
20410.0 2.8805e-10
20430.0 2.8757e-10
20450.0 2.8704e-10
20470.0 2.8649e-10
20490.0 2.8594e-10
20510.0 2.8538e-10
20530.0 2.848e-10
20550.0 2.8423e-10
20570.0 2.8368e-10
20590.0 2.8312e-10
20610.0 2.8257e-10
20630.0 2.8204e-10
20650.0 2.8152e-10
20670.0 2.8099e-10
20690.0 2.8048e-10
20710.0 2.7997e-10
20730.0 2.7944e-10
20750.0 2.7888e-10
20770.0 2.7832e-10
20790.0 2.7771e-10
20810.0 2.7705e-10
20830.0 2.7635e-10
20850.0 2.7561e-10
20870.0 2.7478e-10
20890.0 2.7388e-10
20910.0 2.7295e-10
20930.0 2.7195e-10
20950.0 2.7088e-10
20970.0 2.6977e-10
20990.0 2.6864e-10
21010.0 2.6742e-10
21030.0 2.6617e-10
21050.0 2.6493e-10
21070.0 2.6366e-10
21090.0 2.6233e-10
21110.0 2.6104e-10
21130.0 2.5976e-10
21150.0 2.5843e-10
21170.0 2.5711e-10
21190.0 2.5581e-10
21210.0 2.5447e-10
21230.0 2.531e-10
21250.0 2.5174e-10
21270.0 2.5037e-10
21290.0 2.4893e-10
21310.0 2.4747e-10
21330.0 2.4601e-10
21350.0 2.4448e-10
21370.0 2.4289e-10
21390.0 2.4219e-10
21410.0 2.4148e-10
21430.0 2.4069e-10
21450.0 2.3993e-10
21470.0 2.3917e-10
21490.0 2.3838e-10
21510.0 2.3756e-10
21530.0 2.3677e-10
21550.0 2.3597e-10
21570.0 2.3512e-10
21590.0 2.3429e-10
21610.0 2.3349e-10
21630.0 2.3266e-10
21650.0 2.318e-10
21670.0 2.3103e-10
21690.0 2.3025e-10
21710.0 2.2944e-10
21730.0 2.2868e-10
21750.0 2.2795e-10
21770.0 2.2718e-10
21790.0 2.2643e-10
21810.0 2.2572e-10
21830.0 2.2501e-10
21850.0 2.2428e-10
21870.0 2.2359e-10
21890.0 2.2293e-10
21910.0 2.2225e-10
21930.0 2.2157e-10
21950.0 2.2095e-10
21970.0 2.2032e-10
21990.0 2.1968e-10
22010.0 2.191e-10
22030.0 2.1856e-10
22050.0 2.1802e-10
22070.0 2.1727e-10
22090.0 2.1616e-10
22110.0 2.1505e-10
22130.0 2.1397e-10
22150.0 2.1296e-10
22170.0 2.12e-10
22190.0 2.1105e-10
22210.0 2.1014e-10
22230.0 2.0932e-10
22250.0 2.0851e-10
22270.0 2.0773e-10
22290.0 2.0699e-10
22310.0 2.0629e-10
22330.0 2.0557e-10
22350.0 2.0488e-10
22370.0 2.0421e-10
22390.0 2.0354e-10
22410.0 2.0285e-10
22430.0 2.0219e-10
22450.0 2.0153e-10
22470.0 2.0084e-10
22490.0 2.0015e-10
22510.0 1.9947e-10
22530.0 1.9877e-10
22550.0 1.9804e-10
22570.0 1.9734e-10
22590.0 1.9663e-10
22610.0 1.9591e-10
22630.0 1.952e-10
22650.0 1.9451e-10
22670.0 1.9382e-10
22690.0 1.9313e-10
22710.0 1.9247e-10
22730.0 1.9184e-10
22750.0 1.912e-10
22770.0 1.906e-10
22790.0 1.9004e-10
22810.0 1.8949e-10
22830.0 1.8897e-10
22850.0 1.8849e-10
22870.0 1.8803e-10
22890.0 1.8758e-10
22910.0 1.8717e-10
22930.0 1.8678e-10
22950.0 1.864e-10
22970.0 1.8603e-10
22990.0 1.8569e-10
23010.0 1.8536e-10
23030.0 1.8503e-10
23050.0 1.8472e-10
23070.0 1.8442e-10
23090.0 1.8413e-10
