#lamb flux
1010.0 2.4818e-08
1030.0 2.7449e-08
1050.0 3.0475e-08
1070.0 3.3881e-08
1090.0 3.775e-08
1110.0 4.1719e-08
1130.0 4.5713e-08
1150.0 4.9896e-08
1170.0 5.4212e-08
1190.0 5.8305e-08
1210.0 6.2452e-08
1230.0 6.6738e-08
1250.0 7.0937e-08
1270.0 7.5015e-08
1290.0 7.9324e-08
1310.0 8.363e-08
1330.0 8.776e-08
1350.0 9.1936e-08
1370.0 9.6247e-08
1390.0 1.0045e-07
1410.0 1.0453e-07
1430.0 1.0879e-07
1450.0 1.1306e-07
1470.0 1.1718e-07
1490.0 1.2135e-07
1510.0 1.2575e-07
1530.0 1.2992e-07
1550.0 1.3403e-07
1570.0 1.3829e-07
1590.0 1.4255e-07
1610.0 1.4663e-07
1630.0 1.5083e-07
1650.0 1.5514e-07
1670.0 1.5932e-07
1690.0 1.6344e-07
1710.0 1.6773e-07
1730.0 1.7204e-07
1750.0 1.761e-07
1770.0 1.8029e-07
1790.0 1.8456e-07
1810.0 1.887e-07
1830.0 1.9278e-07
1850.0 1.9711e-07
1870.0 2.0134e-07
1890.0 2.0543e-07
1910.0 2.0961e-07
1930.0 2.139e-07
1950.0 2.1801e-07
1970.0 2.2207e-07
1990.0 2.263e-07
2010.0 2.3047e-07
2030.0 2.3449e-07
2050.0 2.3865e-07
2070.0 2.4293e-07
2090.0 2.4697e-07
2110.0 2.5101e-07
2130.0 2.5518e-07
2150.0 2.5927e-07
2170.0 2.632e-07
2190.0 2.6728e-07
2210.0 2.714e-07
2230.0 2.7536e-07
2250.0 2.793e-07
2270.0 2.8343e-07
2290.0 2.8743e-07
2310.0 2.9128e-07
2330.0 2.9528e-07
2350.0 2.994e-07
2370.0 3.0349e-07
2390.0 3.0793e-07
2410.0 3.1318e-07
2430.0 3.1922e-07
2450.0 3.2645e-07
2470.0 3.357e-07
2490.0 3.4737e-07
2510.0 3.6063e-07
2530.0 3.7659e-07
2550.0 3.9657e-07
2570.0 4.2143e-07
2590.0 4.5376e-07
2610.0 5.0217e-07
2630.0 5.7129e-07
2650.0 6.6166e-07
2670.0 7.785e-07
2690.0 9.2208e-07
2710.0 1.0754e-06
2730.0 1.2268e-06
2750.0 1.376e-06
2770.0 1.5057e-06
2790.0 1.6087e-06
2810.0 1.6905e-06
2830.0 1.7544e-06
2850.0 1.798e-06
2870.0 1.83e-06
2890.0 1.8554e-06
2910.0 1.8756e-06
2930.0 1.8921e-06
2950.0 1.9079e-06
2970.0 1.9233e-06
2990.0 1.9378e-06
3010.0 5.4772e-05
3030.0 5.5182e-05
3050.0 5.5577e-05
3070.0 5.5916e-05
3090.0 5.6208e-05
3110.0 5.6389e-05
3130.0 5.6381e-05
3150.0 5.6131e-05
3170.0 5.553e-05
3190.0 5.4586e-05
3210.0 5.3389e-05
3230.0 5.2018e-05
3250.0 5.0665e-05
3270.0 4.9677e-05
3290.0 4.9128e-05
3310.0 4.9217e-05
3330.0 4.9929e-05
3350.0 5.117e-05
3370.0 5.2941e-05
3390.0 5.5173e-05
3410.0 5.7602e-05
3430.0 6.0329e-05
3450.0 6.3468e-05
3470.0 6.6897e-05
3490.0 7.053e-05
3510.0 7.4637e-05
3530.0 7.9034e-05
3550.0 8.3487e-05
3570.0 8.8131e-05
3590.0 9.3183e-05
3610.0 9.8387e-05
3630.0 0.00010358
3650.0 0.00010896
3670.0 0.00011387
3690.0 0.00011755
3710.0 0.00011965
3730.0 0.00011972
3750.0 0.00011806
3770.0 0.0001174
3790.0 0.0001167
3810.0 0.00011384
3830.0 0.00011736
3850.0 0.00013122
3870.0 0.00013883
3890.0 0.0001382
3910.0 0.00013879
3930.0 0.00014244
3950.0 0.00014469
3970.0 0.00013183
3990.0 0.00011343
4010.0 0.00033997
4030.0 0.00041192
4050.0 0.00047224
4070.0 0.00040975
4090.0 0.00037111
4110.0 0.00032747
4130.0 0.0003014
4150.0 0.0003206
4170.0 0.0003158
4190.0 0.00033662
4210.0 0.00033354
4230.0 0.0003528
4250.0 0.00041737
4270.0 0.00042228
4290.0 0.00038912
4310.0 0.00040433
4330.0 0.00043008
4350.0 0.00048223
4370.0 0.00054878
4390.0 0.00051497
4410.0 0.00038048
4430.0 0.0003221
4450.0 0.00029597
4470.0 0.00022717
4490.0 0.00024514
4510.0 0.00037029
4530.0 0.00042706
4550.0 0.00043076
4570.0 0.00048472
4590.0 0.00055214
4610.0 0.00074471
4630.0 0.00096722
4650.0 0.0010489
4670.0 0.00097142
4690.0 0.0009269
4710.0 0.0009798
4730.0 0.00092466
4750.0 0.0006913
4770.0 0.00050709
4790.0 0.00047353
4810.0 0.00045135
4830.0 0.0004132
4850.0 0.00045342
4870.0 0.00059901
4890.0 0.0007064
4910.0 0.00061978
4930.0 0.00054842
4950.0 0.00060252
4970.0 0.00077269
4990.0 0.0010472
5010.0 0.0012046
5030.0 0.0010622
5050.0 0.00071866
5070.0 0.00047362
5090.0 0.00038191
5110.0 0.00039276
5130.0 0.0004533
5150.0 0.00049112
5170.0 0.00048375
5190.0 0.00045203
5210.0 0.00047248
5230.0 0.00049668
5250.0 0.00053528
5270.0 0.00057753
5290.0 0.00064003
5310.0 0.00074497
5330.0 0.00082441
5350.0 0.00081916
5370.0 0.00086045
5390.0 0.00098738
5410.0 0.0009865
5430.0 0.00087241
5450.0 0.00080155
5470.0 0.0008511
5490.0 0.0010398
5510.0 0.0013001
5530.0 0.0014912
5550.0 0.0014413
5570.0 0.0013102
5590.0 0.0011393
5610.0 0.0010506
5630.0 0.0010188
5650.0 0.00097031
5670.0 0.00091945
5690.0 0.00082199
5710.0 0.00080145
5730.0 0.00073826
5750.0 0.00052052
5770.0 0.00040609
5790.0 0.00046019
5810.0 0.00051964
5830.0 0.00063767
5850.0 0.00075907
5870.0 0.0008422
5890.0 0.00085648
5910.0 0.00084026
5930.0 0.00079983
5950.0 0.00081502
5970.0 0.00092903
5990.0 0.00087354
6010.0 0.00073229
6030.0 0.00061867
6050.0 0.00053879
6070.0 0.00053584
6090.0 0.00058103
6110.0 0.00064969
6130.0 0.00065964
6150.0 0.00056756
6170.0 0.00049928
6190.0 0.00056187
6210.0 0.00074278
6230.0 0.00097474
6250.0 0.0010558
6270.0 0.00092261
6290.0 0.00077624
6310.0 0.00060599
6330.0 0.0004643
6350.0 0.00041414
6370.0 0.00043552
6390.0 0.00050348
6410.0 0.00062082
6430.0 0.00072495
6450.0 0.00082952
6470.0 0.00094982
6490.0 0.0011473
6510.0 0.0012829
6530.0 0.0012586
6550.0 0.0011381
6570.0 0.00096612
6590.0 0.00087118
6610.0 0.00075118
6630.0 0.00068054
6650.0 0.00064331
6670.0 0.00062496
6690.0 0.00056468
6710.0 0.00051331
6730.0 0.00036973
6750.0 0.00036655
6770.0 0.00039841
6790.0 0.00045794
6810.0 0.00041903
6830.0 0.00043148
6850.0 0.00040357
6870.0 0.00036866
6890.0 0.00035397
6910.0 0.0003772
6930.0 0.00035331
6950.0 0.00036349
6970.0 0.00038233
6990.0 0.00043397
7010.0 0.00043767
7030.0 0.00044462
7050.0 0.00042402
7070.0 0.00040401
7090.0 0.0004052
7110.0 0.00041692
7130.0 0.00044867
7150.0 0.00047652
7170.0 0.00052581
7190.0 0.00057801
7210.0 0.00056797
7230.0 0.00058388
7250.0 0.00062748
7270.0 0.0006838
7290.0 0.0008116
7310.0 0.00088066
7330.0 0.00085123
7350.0 0.00076988
7370.0 0.00066987
7390.0 0.00064986
7410.0 0.0006906
7430.0 0.00076751
7450.0 0.00083596
7470.0 0.00082828
7490.0 0.00075524
7510.0 0.0008555
7530.0 0.00084613
7550.0 0.00076052
7570.0 0.00059411
7590.0 0.00040842
7610.0 0.00035055
7630.0 0.00039829
7650.0 0.00047093
7670.0 0.0005861
7690.0 0.00064496
7710.0 0.00067213
7730.0 0.00070632
7750.0 0.00079293
7770.0 0.00080539
7790.0 0.00073979
7810.0 0.00067502
7830.0 0.00069609
7850.0 0.00067666
7870.0 0.00062039
7890.0 0.00052125
7910.0 0.0004237
7930.0 0.00040457
7950.0 0.00036858
7970.0 0.00034118
7990.0 0.00033924
8010.0 2.5125e-05
8030.0 2.4798e-05
8050.0 2.4464e-05
8070.0 2.4784e-05
8090.0 2.663e-05
8110.0 2.6176e-05
8130.0 2.1592e-05
8150.0 2.1028e-05
8170.0 1.8113e-05
8190.0 1.7166e-05
8210.0 2.2291e-05
8230.0 2.4818e-05
8250.0 2.2369e-05
8270.0 1.9469e-05
8290.0 1.8979e-05
8310.0 1.4607e-05
8330.0 9.8449e-06
8350.0 6.9868e-06
8370.0 4.402e-06
8390.0 8.0467e-06
8410.0 9.3766e-06
8430.0 1.1558e-05
8450.0 1.3572e-05
8470.0 1.687e-05
8490.0 1.6751e-05
8510.0 1.6477e-05
8530.0 1.7196e-05
8550.0 2.3201e-05
8570.0 2.7466e-05
8590.0 2.9636e-05
8610.0 3.7436e-05
8630.0 4.5097e-05
8650.0 4.7177e-05
8670.0 5.0135e-05
8690.0 5.0415e-05
8710.0 4.5658e-05
8730.0 4.2469e-05
8750.0 3.7487e-05
8770.0 3.557e-05
8790.0 3.4945e-05
8810.0 3.3485e-05
8830.0 2.6777e-05
8850.0 1.9602e-05
8870.0 1.5009e-05
8890.0 1.4674e-05
8910.0 1.6817e-05
8930.0 1.9128e-05
8950.0 1.9494e-05
8970.0 1.9586e-05
8990.0 1.7468e-05
9010.0 0.00018306
9030.0 0.00016588
9050.0 0.00016668
9070.0 0.00016799
9090.0 0.00016915
9110.0 0.00017057
9130.0 0.00017167
9150.0 0.00017253
9170.0 0.00017344
9190.0 0.00017441
9210.0 0.00017543
9230.0 0.00017651
9250.0 0.00017761
9270.0 0.00017875
9290.0 0.00017993
9310.0 0.00018111
9330.0 0.00018231
9350.0 0.00018356
9370.0 0.00018483
9390.0 0.0001861
9410.0 0.00018742
9430.0 0.00018877
9450.0 0.00019012
9470.0 0.00019149
9490.0 0.00019291
9510.0 0.00019434
9530.0 0.00019578
9550.0 0.00019727
9570.0 0.00019879
9590.0 0.00020031
9610.0 0.00020185
9630.0 0.00020344
9650.0 0.00020504
9670.0 0.00020665
9690.0 0.00020829
9710.0 0.00020997
9730.0 0.00021164
9750.0 0.00021334
9770.0 0.00021509
9790.0 0.00021684
9810.0 0.0002186
9830.0 0.0002204
9850.0 0.00022221
9870.0 0.00022402
9890.0 0.00022586
9910.0 0.00022774
9930.0 0.00022961
9950.0 0.0002315
9970.0 0.00023342
9990.0 0.00023536
10010.0 0.00020423
10030.0 0.00020591
10050.0 0.00020762
10070.0 0.00020939
10090.0 0.00021105
10110.0 0.00021276
10130.0 0.00021448
10150.0 0.00021619
10170.0 0.00021792
10190.0 0.00021968
10210.0 0.00022142
10230.0 0.00022316
10250.0 0.00022492
10270.0 0.00022668
10290.0 0.00022842
10310.0 0.00023018
10330.0 0.00023196
10350.0 0.00023371
10370.0 0.00023545
10390.0 0.00023722
10410.0 0.00023897
10430.0 0.00024069
10450.0 0.00024243
10470.0 0.00024417
10490.0 0.00024589
10510.0 0.00024759
10530.0 0.00024932
10550.0 0.00025102
10570.0 0.00025268
10590.0 0.00025436
10610.0 0.00025603
10630.0 0.00025766
10650.0 0.00025928
10670.0 0.00026091
10690.0 0.00026252
10710.0 0.00026408
10730.0 0.00026566
10750.0 0.00026723
10770.0 0.00026874
10790.0 0.00027024
10810.0 0.00027174
10830.0 0.00027318
10850.0 0.00027456
10870.0 0.00027589
10890.0 0.00027707
10910.0 0.00027797
10930.0 0.00027848
10950.0 0.00027836
10970.0 0.00027742
10990.0 0.00027557
11010.0 0.00027247
11030.0 0.00026814
11050.0 0.00026286
11070.0 0.00025654
11090.0 0.00024895
11110.0 0.0002411
11130.0 0.00023291
11150.0 0.00022409
11170.0 0.000215
11190.0 0.00020619
11210.0 0.00019708
11230.0 0.00018774
11250.0 0.00017882
11270.0 0.00017026
11290.0 0.00016167
11310.0 0.00015354
11330.0 0.00014638
11350.0 0.00013962
11370.0 0.00013337
11390.0 0.00012796
11410.0 0.00012323
11430.0 0.00011883
11450.0 0.00011504
11470.0 0.00011177
11490.0 0.00010872
11510.0 0.00010578
11530.0 0.00010306
11550.0 0.00010035
11570.0 9.7464e-05
11590.0 9.4474e-05
11610.0 9.143e-05
11630.0 8.8117e-05
11650.0 8.4569e-05
11670.0 8.1074e-05
11690.0 7.7528e-05
11710.0 7.3871e-05
11730.0 7.0327e-05
11750.0 6.7047e-05
11770.0 6.3831e-05
11790.0 6.0817e-05
11810.0 5.8163e-05
11830.0 5.579e-05
11850.0 5.3604e-05
11870.0 5.1776e-05
11890.0 5.0256e-05
11910.0 4.892e-05
11930.0 4.7772e-05
11950.0 4.6816e-05
11970.0 4.5962e-05
11990.0 4.5154e-05
12010.0 4.4408e-05
12030.0 4.3688e-05
12050.0 4.2944e-05
12070.0 4.217e-05
12090.0 4.1424e-05
12110.0 4.0666e-05
12130.0 3.9907e-05
12150.0 3.9207e-05
12170.0 3.8597e-05
12190.0 3.8068e-05
12210.0 3.77e-05
12230.0 3.7522e-05
12250.0 3.755e-05
12270.0 3.7833e-05
12290.0 3.8369e-05
12310.0 3.9136e-05
12330.0 4.0211e-05
12350.0 4.1551e-05
12370.0 4.3078e-05
12390.0 4.4838e-05
12410.0 4.69e-05
12430.0 4.8996e-05
12450.0 5.1166e-05
12470.0 5.3474e-05
12490.0 5.5792e-05
12510.0 5.7966e-05
12530.0 6.0129e-05
12550.0 6.2216e-05
12570.0 6.4059e-05
12590.0 6.5676e-05
12610.0 6.7117e-05
12630.0 6.8266e-05
12650.0 6.9059e-05
12670.0 6.958e-05
12690.0 6.9789e-05
12710.0 6.9674e-05
12730.0 6.927e-05
12750.0 6.8549e-05
12770.0 6.756e-05
12790.0 6.6361e-05
12810.0 6.4929e-05
12830.0 6.3273e-05
12850.0 6.154e-05
12870.0 5.9708e-05
12890.0 5.7726e-05
12910.0 5.5711e-05
12930.0 5.3725e-05
12950.0 5.1653e-05
12970.0 4.9544e-05
12990.0 4.7548e-05
13010.0 4.5577e-05
13030.0 4.3584e-05
13050.0 4.167e-05
13070.0 3.9877e-05
13090.0 3.8078e-05
13110.0 3.6337e-05
13130.0 3.4732e-05
13150.0 3.3212e-05
13170.0 3.1724e-05
13190.0 3.04e-05
13210.0 2.9234e-05
13230.0 2.8169e-05
13250.0 2.7251e-05
13270.0 2.6527e-05
13290.0 2.5964e-05
13310.0 2.5577e-05
13330.0 2.54e-05
13350.0 2.5421e-05
13370.0 2.5649e-05
13390.0 2.6097e-05
13410.0 2.6702e-05
13430.0 2.7489e-05
13450.0 2.8461e-05
13470.0 2.954e-05
13490.0 3.0683e-05
13510.0 3.1972e-05
13530.0 3.3278e-05
13550.0 3.4529e-05
13570.0 3.5762e-05
13590.0 3.6964e-05
13610.0 3.8033e-05
13630.0 3.8966e-05
13650.0 3.9818e-05
13670.0 4.0525e-05
13690.0 4.1073e-05
13710.0 4.1496e-05
13730.0 4.1798e-05
13750.0 4.1949e-05
13770.0 4.1983e-05
13790.0 4.1907e-05
13810.0 4.1722e-05
13830.0 4.1449e-05
13850.0 4.1078e-05
13870.0 4.0611e-05
13890.0 4.0077e-05
13910.0 3.9475e-05
13930.0 3.8778e-05
13950.0 3.8017e-05
13970.0 3.724e-05
13990.0 3.6392e-05
14010.0 3.5492e-05
14030.0 3.4593e-05
14050.0 3.3688e-05
14070.0 3.2732e-05
14090.0 3.1816e-05
14110.0 3.0955e-05
14130.0 3.012e-05
14150.0 2.9335e-05
14170.0 2.8665e-05
14190.0 2.8085e-05
14210.0 2.7593e-05
14230.0 2.7229e-05
14250.0 2.6994e-05
14270.0 2.688e-05
14290.0 2.6904e-05
14310.0 2.7054e-05
14330.0 2.7323e-05
14350.0 2.7719e-05
14370.0 2.8213e-05
14390.0 2.8774e-05
14410.0 2.9434e-05
14430.0 3.0159e-05
14450.0 3.09e-05
14470.0 3.1668e-05
14490.0 3.2486e-05
14510.0 3.3267e-05
14530.0 3.4009e-05
14550.0 3.4751e-05
14570.0 3.5463e-05
14590.0 3.6111e-05
14610.0 3.6738e-05
14630.0 3.7359e-05
14650.0 3.7937e-05
14670.0 3.8495e-05
14690.0 3.9077e-05
14710.0 3.9689e-05
14730.0 4.03e-05
14750.0 4.0978e-05
14770.0 4.1747e-05
14790.0 4.2581e-05
14810.0 4.3484e-05
14830.0 4.4554e-05
14850.0 4.5717e-05
14870.0 4.693e-05
14890.0 4.8239e-05
14910.0 4.9629e-05
14930.0 5.0966e-05
14950.0 5.2215e-05
14970.0 5.3398e-05
14990.0 5.439e-05
15010.0 5.5148e-05
15030.0 5.571e-05
15050.0 5.6082e-05
15070.0 5.6263e-05
15090.0 5.6326e-05
15110.0 5.6308e-05
15130.0 5.6237e-05
15150.0 5.6142e-05
15170.0 5.603e-05
15190.0 5.5909e-05
15210.0 5.579e-05
15230.0 5.5672e-05
15250.0 5.5549e-05
15270.0 5.5427e-05
15290.0 5.5312e-05
15310.0 5.5194e-05
15330.0 5.5074e-05
15350.0 5.496e-05
15370.0 5.4846e-05
15390.0 5.4726e-05
15410.0 5.461e-05
15430.0 5.4498e-05
15450.0 5.4384e-05
15470.0 5.4267e-05
15490.0 5.4157e-05
15510.0 5.4046e-05
15530.0 5.3932e-05
15550.0 5.382e-05
15570.0 5.3712e-05
15590.0 5.36e-05
15610.0 5.3486e-05
15630.0 5.3379e-05
15650.0 5.327e-05
15670.0 5.3159e-05
15690.0 5.305e-05
15710.0 5.2945e-05
15730.0 5.2836e-05
15750.0 5.2726e-05
15770.0 5.2621e-05
15790.0 5.2515e-05
15810.0 5.2403e-05
15830.0 5.2296e-05
15850.0 5.2193e-05
15870.0 5.2086e-05
15890.0 5.1978e-05
15910.0 5.1875e-05
15930.0 5.177e-05
15950.0 5.1661e-05
15970.0 5.1556e-05
15990.0 5.1453e-05
16010.0 5.1346e-05
16030.0 5.1238e-05
16050.0 5.1137e-05
16070.0 5.1033e-05
16090.0 5.0925e-05
16110.0 5.0822e-05
16130.0 5.0721e-05
16150.0 5.0612e-05
16170.0 5.0505e-05
16190.0 5.0403e-05
16210.0 5.0299e-05
16230.0 5.0191e-05
16250.0 5.0088e-05
16270.0 4.9987e-05
16290.0 4.988e-05
16310.0 4.9774e-05
16330.0 4.9672e-05
16350.0 4.9567e-05
16370.0 4.9457e-05
16390.0 4.9354e-05
16410.0 4.9251e-05
16430.0 4.9144e-05
16450.0 4.9038e-05
16470.0 4.8936e-05
16490.0 4.8829e-05
16510.0 4.8721e-05
16530.0 4.8616e-05
16550.0 4.8512e-05
16570.0 4.8403e-05
16590.0 4.8294e-05
16610.0 4.8192e-05
16630.0 4.8085e-05
16650.0 4.7976e-05
16670.0 4.7871e-05
16690.0 4.7766e-05
16710.0 4.7654e-05
16730.0 4.7546e-05
16750.0 4.744e-05
16770.0 4.7331e-05
16790.0 4.722e-05
16810.0 4.7114e-05
16830.0 4.7007e-05
16850.0 4.6895e-05
16870.0 4.6786e-05
16890.0 4.6679e-05
16910.0 4.6567e-05
16930.0 4.6454e-05
16950.0 4.6346e-05
16970.0 4.6236e-05
16990.0 4.6123e-05
17010.0 4.6012e-05
17030.0 4.5904e-05
17050.0 4.579e-05
17070.0 4.5676e-05
17090.0 4.5566e-05
17110.0 4.5455e-05
17130.0 4.5337e-05
17150.0 4.5224e-05
17170.0 4.5114e-05
17190.0 4.4999e-05
17210.0 4.4883e-05
17230.0 4.4773e-05
17250.0 4.4658e-05
17270.0 4.4539e-05
17290.0 4.4425e-05
17310.0 4.4312e-05
17330.0 4.4194e-05
17350.0 4.4075e-05
17370.0 4.3962e-05
17390.0 4.3846e-05
17410.0 4.3727e-05
17430.0 4.3611e-05
17450.0 4.3496e-05
17470.0 4.3374e-05
17490.0 4.3254e-05
17510.0 4.3139e-05
17530.0 4.302e-05
17550.0 4.2898e-05
17570.0 4.278e-05
17590.0 4.2664e-05
17610.0 4.2541e-05
17630.0 4.242e-05
17650.0 4.2303e-05
17670.0 4.2182e-05
17690.0 4.2055e-05
17710.0 4.1937e-05
17730.0 4.1817e-05
17750.0 4.1693e-05
17770.0 4.1571e-05
17790.0 4.1453e-05
17810.0 4.1328e-05
17830.0 4.1203e-05
17850.0 4.1082e-05
17870.0 4.096e-05
17890.0 4.0833e-05
17910.0 4.0708e-05
17930.0 4.0588e-05
17950.0 4.0463e-05
17970.0 4.0336e-05
17990.0 4.0214e-05
18010.0 4.0091e-05
18030.0 3.9961e-05
18050.0 3.9836e-05
18070.0 3.9713e-05
18090.0 3.9586e-05
18110.0 3.9457e-05
18130.0 3.9334e-05
18150.0 3.9209e-05
18170.0 3.908e-05
18190.0 3.8954e-05
18210.0 3.883e-05
18230.0 3.87e-05
18250.0 3.8569e-05
18270.0 3.8445e-05
18290.0 3.8318e-05
18310.0 3.8188e-05
18330.0 3.806e-05
18350.0 3.7936e-05
18370.0 3.7805e-05
18390.0 3.7675e-05
18410.0 3.7549e-05
18430.0 3.7421e-05
18450.0 3.7287e-05
18470.0 3.7159e-05
18490.0 3.7033e-05
18510.0 3.6903e-05
18530.0 3.6772e-05
18550.0 3.6646e-05
18570.0 3.6516e-05
18590.0 3.6383e-05
18610.0 3.6254e-05
18630.0 3.6126e-05
18650.0 3.5994e-05
18670.0 3.5862e-05
18690.0 3.5735e-05
18710.0 3.5605e-05
18730.0 3.5473e-05
18750.0 3.5344e-05
18770.0 3.5217e-05
18790.0 3.5081e-05
18810.0 3.4949e-05
18830.0 3.4822e-05
18850.0 3.4691e-05
18870.0 3.4557e-05
18890.0 3.4428e-05
18910.0 3.43e-05
18930.0 3.4166e-05
18950.0 3.4035e-05
18970.0 3.3907e-05
18990.0 3.3775e-05
19010.0 3.3639e-05
19030.0 3.3511e-05
19050.0 3.3382e-05
19070.0 3.3248e-05
19090.0 3.3117e-05
19110.0 3.299e-05
19130.0 3.2857e-05
19150.0 3.2723e-05
19170.0 3.2594e-05
19190.0 3.2464e-05
19210.0 3.2329e-05
19230.0 3.2197e-05
19250.0 3.207e-05
19270.0 3.1938e-05
19290.0 3.1805e-05
19310.0 3.1677e-05
19330.0 3.1547e-05
19350.0 3.1411e-05
19370.0 3.1281e-05
19390.0 3.1152e-05
19410.0 3.102e-05
19430.0 3.0886e-05
19450.0 3.0759e-05
19470.0 3.0629e-05
19490.0 3.0496e-05
19510.0 3.0365e-05
19530.0 3.0238e-05
19550.0 3.0104e-05
19570.0 2.997e-05
19590.0 2.9843e-05
19610.0 2.9713e-05
19630.0 2.958e-05
19650.0 2.9451e-05
19670.0 2.9324e-05
19690.0 2.9191e-05
19710.0 2.9059e-05
19730.0 2.8931e-05
19750.0 2.8801e-05
19770.0 2.8667e-05
19790.0 2.8538e-05
19810.0 2.8411e-05
19830.0 2.8279e-05
19850.0 2.8146e-05
19870.0 2.8016e-05
19890.0 2.7876e-05
19910.0 2.7722e-05
19930.0 2.7557e-05
19950.0 2.7369e-05
19970.0 2.7138e-05
19990.0 2.6859e-05
20010.0 2.3896e-05
20030.0 2.355e-05
20050.0 2.3145e-05
20070.0 2.2707e-05
20090.0 2.2235e-05
20110.0 2.1701e-05
20130.0 2.1161e-05
20150.0 2.0626e-05
20170.0 2.0071e-05
20190.0 1.9508e-05
20210.0 1.8976e-05
20230.0 1.8457e-05
20250.0 1.7937e-05
20270.0 1.7455e-05
20290.0 1.7015e-05
20310.0 1.6596e-05
20330.0 1.6205e-05
20350.0 1.588e-05
20370.0 1.5592e-05
20390.0 1.5339e-05
20410.0 1.5135e-05
20430.0 1.4978e-05
20450.0 1.4853e-05
20470.0 1.477e-05
20490.0 1.4725e-05
20510.0 1.4712e-05
20530.0 1.473e-05
20550.0 1.4775e-05
20570.0 1.4842e-05
20590.0 1.4931e-05
20610.0 1.504e-05
20630.0 1.5159e-05
20650.0 1.5293e-05
20670.0 1.5446e-05
20690.0 1.5601e-05
20710.0 1.5762e-05
20730.0 1.5936e-05
20750.0 1.6117e-05
20770.0 1.6296e-05
20790.0 1.6483e-05
20810.0 1.6681e-05
20830.0 1.6878e-05
20850.0 1.7076e-05
20870.0 1.7288e-05
20890.0 1.7504e-05
20910.0 1.7713e-05
20930.0 1.7929e-05
20950.0 1.8154e-05
20970.0 1.8372e-05
20990.0 1.8588e-05
21010.0 1.8815e-05
21030.0 1.9036e-05
21050.0 1.9248e-05
21070.0 1.9459e-05
21090.0 1.9671e-05
21110.0 1.9864e-05
21130.0 2.0046e-05
21150.0 2.0222e-05
21170.0 2.0381e-05
21190.0 2.0518e-05
21210.0 2.0641e-05
21230.0 2.0744e-05
21250.0 2.0817e-05
21270.0 2.0863e-05
21290.0 2.088e-05
21310.0 2.0864e-05
21330.0 2.0815e-05
21350.0 2.0728e-05
21370.0 2.0601e-05
21390.0 2.044e-05
21410.0 2.0242e-05
21430.0 1.9992e-05
21450.0 1.9711e-05
21470.0 1.9406e-05
21490.0 1.906e-05
21510.0 1.868e-05
21530.0 1.8295e-05
21550.0 1.7891e-05
21570.0 1.746e-05
21590.0 1.7037e-05
21610.0 1.6627e-05
21630.0 1.6218e-05
21650.0 1.5817e-05
21670.0 1.547e-05
21690.0 1.515e-05
21710.0 1.4862e-05
21730.0 1.4626e-05
21750.0 1.4444e-05
21770.0 1.4305e-05
21790.0 1.4225e-05
21810.0 1.4203e-05
21830.0 1.4235e-05
21850.0 1.4324e-05
21870.0 1.4462e-05
21890.0 1.4642e-05
21910.0 1.4872e-05
21930.0 1.5141e-05
21950.0 1.5433e-05
21970.0 1.5757e-05
21990.0 1.612e-05
22010.0 1.6483e-05
22030.0 1.6852e-05
22050.0 1.7239e-05
22070.0 1.7628e-05
22090.0 1.7997e-05
22110.0 1.8369e-05
22130.0 1.874e-05
22150.0 1.9086e-05
22170.0 1.9413e-05
22190.0 1.9737e-05
22210.0 2.0038e-05
22230.0 2.0303e-05
22250.0 2.0553e-05
22270.0 2.0783e-05
22290.0 2.0979e-05
22310.0 2.1148e-05
22330.0 2.1296e-05
22350.0 2.1411e-05
22370.0 2.1492e-05
22390.0 2.1543e-05
22410.0 2.1559e-05
22430.0 2.1538e-05
22450.0 2.1483e-05
22470.0 2.1387e-05
22490.0 2.1252e-05
22510.0 2.1084e-05
22530.0 2.087e-05
22550.0 2.0608e-05
22570.0 2.0319e-05
22590.0 1.9992e-05
22610.0 1.9616e-05
22630.0 1.9209e-05
22650.0 1.8788e-05
