#lamb flux
1010.0 1.6246e-05
1030.0 1.7296e-05
1050.0 1.8509e-05
1070.0 1.9876e-05
1090.0 2.143e-05
1110.0 2.3028e-05
1130.0 2.464e-05
1150.0 2.6333e-05
1170.0 2.8085e-05
1190.0 2.9753e-05
1210.0 3.145e-05
1230.0 3.321e-05
1250.0 3.4943e-05
1270.0 3.6635e-05
1290.0 3.8428e-05
1310.0 4.023e-05
1330.0 4.1969e-05
1350.0 4.3738e-05
1370.0 4.5572e-05
1390.0 4.7373e-05
1410.0 4.9134e-05
1430.0 5.0983e-05
1450.0 5.2842e-05
1470.0 5.4655e-05
1490.0 5.6496e-05
1510.0 5.8446e-05
1530.0 6.0309e-05
1550.0 6.2158e-05
1570.0 6.4074e-05
1590.0 6.5998e-05
1610.0 6.7847e-05
1630.0 6.9751e-05
1650.0 7.1703e-05
1670.0 7.3594e-05
1690.0 7.5458e-05
1710.0 7.7382e-05
1730.0 7.9306e-05
1750.0 8.1108e-05
1770.0 8.2945e-05
1790.0 8.4799e-05
1810.0 8.6572e-05
1830.0 8.8289e-05
1850.0 9.0083e-05
1870.0 9.1798e-05
1890.0 9.342e-05
1910.0 9.5039e-05
1930.0 9.6661e-05
1950.0 9.8162e-05
1970.0 9.96e-05
1990.0 0.00010106
2010.0 0.00010245
2030.0 0.00010373
2050.0 0.00010502
2070.0 0.00010632
2090.0 0.00010747
2110.0 0.00010859
2130.0 0.00010972
2150.0 0.00011079
2170.0 0.00011176
2190.0 0.00011277
2210.0 0.00011377
2230.0 0.00011469
2250.0 0.00011559
2270.0 0.00011656
2290.0 0.00011749
2310.0 0.00011835
2330.0 0.00011928
2350.0 0.00012024
2370.0 0.00012115
2390.0 0.00012211
2410.0 0.00012317
2430.0 0.00012423
2450.0 0.0001253
2470.0 0.00012648
2490.0 0.00012782
2510.0 0.00012936
2530.0 0.00013151
2550.0 0.00013502
2570.0 0.00014066
2590.0 0.00014941
2610.0 0.00016365
2630.0 0.00018417
2650.0 0.00021008
2670.0 0.0002418
2690.0 0.00027842
2710.0 0.0003153
2730.0 0.0003501
2750.0 0.00038342
2770.0 0.0004125
2790.0 0.00043687
2810.0 0.00045866
2830.0 0.00047951
2850.0 0.00049852
2870.0 0.00051745
2890.0 0.00053749
2910.0 0.00055829
2930.0 0.00057919
2950.0 0.00060159
2970.0 0.00062529
2990.0 0.00064922
3010.0 0.0022972
3030.0 0.0023849
3050.0 0.0024722
3070.0 0.002551
3090.0 0.0026176
3110.0 0.002654
3130.0 0.0026383
3150.0 0.0025471
3170.0 0.0023335
3190.0 0.0019932
3210.0 0.0015329
3230.0 0.0010162
3250.0 0.0015579
3270.0 0.0009743
3290.0 0.0022427
3310.0 0.0008841
3330.0 0.00087522
3350.0 0.0010482
3370.0 0.0012551
3390.0 0.0014813
3410.0 0.001708
3430.0 0.0019469
3450.0 0.0021881
3470.0 0.0024106
3490.0 0.0025663
3510.0 0.0030816
3530.0 0.0039905
3550.0 0.0038872
3570.0 0.0032054
3590.0 0.0043389
3610.0 0.0028081
3630.0 0.0045729
3650.0 0.0053265
3670.0 0.006773
3690.0 0.0062886
3710.0 0.0042109
3730.0 0.0054347
3750.0 0.0055648
3770.0 0.0059725
3790.0 0.0057956
3810.0 0.0059663
3830.0 0.009377
3850.0 0.01151
3870.0 0.014194
3890.0 0.013794
3910.0 0.012329
3930.0 0.012488
3950.0 0.013489
3970.0 0.014873
3990.0 0.0095364
4010.0 0.0051621
4030.0 0.0091796
4050.0 0.012142
4070.0 0.01299
4090.0 0.0090858
4110.0 0.005751
4130.0 0.0094585
4150.0 0.0096566
4170.0 0.0089886
4190.0 0.0081562
4210.0 0.011544
4230.0 0.008505
4250.0 0.0092147
4270.0 0.0091545
4290.0 0.0086733
4310.0 0.011118
4330.0 0.012014
4350.0 0.01001
4370.0 0.0084504
4390.0 0.010299
4410.0 0.010548
4430.0 0.0077555
4450.0 0.007037
4470.0 0.0086967
4490.0 0.0066537
4510.0 0.0092876
4530.0 0.0096526
4550.0 0.011455
4570.0 0.016149
4590.0 0.01597
4610.0 0.012663
4630.0 0.020209
4650.0 0.026931
4670.0 0.025683
4690.0 0.018161
4710.0 0.019259
4730.0 0.021815
4750.0 0.017971
4770.0 0.013739
4790.0 0.0092722
4810.0 0.012656
4830.0 0.014906
4850.0 0.013102
4870.0 0.0055078
4890.0 0.014867
4910.0 0.019492
4930.0 0.021185
4950.0 0.02183
4970.0 0.015334
4990.0 0.017845
5010.0 0.020726
5030.0 0.022216
5050.0 0.02074
5070.0 0.014666
5090.0 0.011899
5110.0 0.011503
5130.0 0.010929
5150.0 0.011384
5170.0 0.010159
5190.0 0.012111
5210.0 0.012289
5230.0 0.013592
5250.0 0.016115
5270.0 0.013341
5290.0 0.013853
5310.0 0.020331
5330.0 0.023336
5350.0 0.019555
5370.0 0.017554
5390.0 0.020335
5410.0 0.024228
5430.0 0.025768
5450.0 0.027062
5470.0 0.027199
5490.0 0.027964
5510.0 0.033416
5530.0 0.034653
5550.0 0.036527
5570.0 0.038286
5590.0 0.037564
5610.0 0.035108
5630.0 0.034215
5650.0 0.035322
5670.0 0.034451
5690.0 0.029441
5710.0 0.029069
5730.0 0.02906
5750.0 0.030162
5770.0 0.025929
5790.0 0.024688
5810.0 0.025245
5830.0 0.027193
5850.0 0.025269
5870.0 0.025341
5890.0 0.029494
5910.0 0.027462
5930.0 0.022634
5950.0 0.020405
5970.0 0.022192
5990.0 0.02011
6010.0 0.018364
6030.0 0.018009
6050.0 0.016494
6070.0 0.01278
6090.0 0.012154
6110.0 0.015593
6130.0 0.017498
6150.0 0.018074
6170.0 0.017577
6190.0 0.016764
6210.0 0.01748
6230.0 0.021212
6250.0 0.0196
6270.0 0.017623
6290.0 0.016019
6310.0 0.014509
6330.0 0.01346
6350.0 0.01203
6370.0 0.012193
6390.0 0.014188
6410.0 0.017616
6430.0 0.020823
6450.0 0.020903
6470.0 0.021137
6490.0 0.025814
6510.0 0.029636
6530.0 0.028162
6550.0 0.026721
6570.0 0.027107
6590.0 0.026716
6610.0 0.028277
6630.0 0.026369
6650.0 0.022911
6670.0 0.021135
6690.0 0.020952
6710.0 0.0248
6730.0 0.022082
6750.0 0.018163
6770.0 0.016396
6790.0 0.017419
6810.0 0.020004
6830.0 0.01991
6850.0 0.017857
6870.0 0.018495
6890.0 0.018381
6910.0 0.017275
6930.0 0.019179
6950.0 0.017841
6970.0 0.01662
6990.0 0.016568
7010.0 0.016689
7030.0 0.016211
7050.0 0.015522
7070.0 0.016649
7090.0 0.015507
7110.0 0.013148
7130.0 0.011293
7150.0 0.01109
7170.0 0.014002
7190.0 0.014845
7210.0 0.014076
7230.0 0.014803
7250.0 0.014378
7270.0 0.014025
7290.0 0.015193
7310.0 0.016655
7330.0 0.016227
7350.0 0.015055
7370.0 0.013927
7390.0 0.013968
7410.0 0.016049
7430.0 0.018071
7450.0 0.01924
7470.0 0.019515
7490.0 0.021709
7510.0 0.021466
7530.0 0.019464
7550.0 0.018451
7570.0 0.015967
7590.0 0.015222
7610.0 0.014723
7630.0 0.01358
7650.0 0.014609
7670.0 0.016206
7690.0 0.017666
7710.0 0.020185
7730.0 0.021199
7750.0 0.022054
7770.0 0.022954
7790.0 0.024931
7810.0 0.025148
7830.0 0.022597
7850.0 0.022718
7870.0 0.021903
7890.0 0.022454
7910.0 0.021175
7930.0 0.021047
7950.0 0.017695
7970.0 0.017774
7990.0 0.017198
8010.0 0.018707
8030.0 0.018649
8050.0 0.019832
8070.0 0.019046
8090.0 0.019144
8110.0 0.018866
8130.0 0.018668
8150.0 0.017544
8170.0 0.017225
8190.0 0.017193
8210.0 0.017374
8230.0 0.015208
8250.0 0.013914
8270.0 0.012306
8290.0 0.01047
8310.0 0.0092295
8330.0 0.0073157
8350.0 0.005927
8370.0 0.0057264
8390.0 0.0055553
8410.0 0.0058177
8430.0 0.0074879
8450.0 0.0081601
8470.0 0.0087882
8490.0 0.010291
8510.0 0.011206
8530.0 0.01275
8550.0 0.015091
8570.0 0.016587
8590.0 0.017455
8610.0 0.019398
8630.0 0.022081
8650.0 0.022665
8670.0 0.02315
8690.0 0.024036
8710.0 0.023583
8730.0 0.022851
8750.0 0.021067
8770.0 0.021085
8790.0 0.020796
8810.0 0.019135
8830.0 0.019167
8850.0 0.017563
8870.0 0.016755
8890.0 0.015018
8910.0 0.016749
8930.0 0.015157
8950.0 0.015203
8970.0 0.015532
8990.0 0.015091
9010.0 0.015503
9030.0 0.014717
9050.0 0.014645
9070.0 0.014652
9090.0 0.014655
9110.0 0.014668
9130.0 0.014667
9150.0 0.014659
9170.0 0.014611
9190.0 0.014504
9210.0 0.014733
9230.0 0.014668
9250.0 0.014631
9270.0 0.014599
9290.0 0.014571
9310.0 0.014545
9330.0 0.014519
9350.0 0.014494
9370.0 0.014468
9390.0 0.01444
9410.0 0.014411
9430.0 0.014382
9450.0 0.014351
9470.0 0.014319
9490.0 0.014287
9510.0 0.014253
9530.0 0.014218
9550.0 0.014184
9570.0 0.014149
9590.0 0.014112
9610.0 0.014076
9630.0 0.01404
9650.0 0.014003
9670.0 0.013966
9690.0 0.013929
9710.0 0.013893
9730.0 0.013855
9750.0 0.013818
9770.0 0.013783
9790.0 0.013747
9810.0 0.01371
9830.0 0.013675
9850.0 0.013641
9870.0 0.013606
9890.0 0.013572
9910.0 0.013539
9930.0 0.013506
9950.0 0.013452
9970.0 0.013428
9990.0 0.013403
10010.0 0.013377
10030.0 0.01335
10050.0 0.013319
10070.0 0.013262
10090.0 0.013246
10110.0 0.01323
10130.0 0.013212
10150.0 0.013193
10170.0 0.013173
10190.0 0.013152
10210.0 0.013132
10230.0 0.013113
10250.0 0.013094
10270.0 0.013075
10290.0 0.013059
10310.0 0.013043
10330.0 0.013027
10350.0 0.013013
10370.0 0.013
10390.0 0.012988
10410.0 0.012976
10430.0 0.012966
10450.0 0.012957
10470.0 0.012948
10490.0 0.012941
10510.0 0.012934
10530.0 0.012927
10550.0 0.012922
10570.0 0.012918
10590.0 0.012915
10610.0 0.012912
10630.0 0.012911
10650.0 0.01291
10670.0 0.012909
10690.0 0.01291
10710.0 0.012912
10730.0 0.012913
10750.0 0.012916
10770.0 0.01292
10790.0 0.012924
10810.0 0.012928
10830.0 0.012933
10850.0 0.012938
10870.0 0.012939
10890.0 0.012937
10910.0 0.012926
10930.0 0.0129
10950.0 0.012848
10970.0 0.012765
10990.0 0.012648
11010.0 0.012867
11030.0 0.012643
11050.0 0.012379
11070.0 0.012074
11090.0 0.01172
11110.0 0.011366
11130.0 0.011013
11150.0 0.010651
11170.0 0.0103
11190.0 0.0099796
11210.0 0.0096709
11230.0 0.0093771
11250.0 0.0091171
11270.0 0.008885
11290.0 0.0086679
11310.0 0.0084745
11330.0 0.0083117
11350.0 0.0081612
11370.0 0.0080212
11390.0 0.0078953
11410.0 0.0077769
11430.0 0.0076537
11450.0 0.0075318
11470.0 0.0074101
11490.0 0.0072802
11510.0 0.007139
11530.0 0.006997
11550.0 0.0068495
11570.0 0.0066897
11590.0 0.0065262
11610.0 0.0063645
11630.0 0.0061941
11650.0 0.0060182
11670.0 0.0058512
11690.0 0.0056861
11710.0 0.0055183
11730.0 0.0053567
11750.0 0.0052066
11770.0 0.0050559
11790.0 0.0049094
11810.0 0.0047741
11830.0 0.0046449
11850.0 0.0045148
11870.0 0.0043946
11890.0 0.0042834
11910.0 0.0041729
11930.0 0.0040652
11950.0 0.0039654
11970.0 0.0038674
11990.0 0.0037677
12010.0 0.0036733
12030.0 0.0035835
12050.0 0.0034933
12070.0 0.0034042
12090.0 0.0033244
12110.0 0.0032477
12130.0 0.0031742
12150.0 0.003109
12170.0 0.0030534
12190.0 0.0030032
12210.0 0.0029645
12230.0 0.002939
12250.0 0.0029255
12270.0 0.0029256
12290.0 0.0029403
12310.0 0.0029682
12330.0 0.0030111
12350.0 0.0030675
12370.0 0.0031337
12390.0 0.0032104
12410.0 0.0032996
12430.0 0.0033899
12450.0 0.0034821
12470.0 0.0035776
12490.0 0.0036711
12510.0 0.0037571
12530.0 0.0038399
12550.0 0.0039172
12570.0 0.0039842
12590.0 0.0040423
12610.0 0.0040934
12630.0 0.0041349
12650.0 0.0041664
12670.0 0.0041906
12690.0 0.0042073
12710.0 0.0042168
12730.0 0.0042203
12750.0 0.0042174
12770.0 0.0042092
12790.0 0.0041969
12810.0 0.0041796
12830.0 0.0041568
12850.0 0.0041312
12870.0 0.0041015
12890.0 0.0040656
12910.0 0.0040255
12930.0 0.0039823
12950.0 0.0039318
12970.0 0.0038746
12990.0 0.0038154
13010.0 0.0037515
13030.0 0.0036807
13050.0 0.0036073
13070.0 0.0035345
13090.0 0.0034566
13110.0 0.0033775
13130.0 0.0033023
13150.0 0.0032293
13170.0 0.0031562
13190.0 0.0030912
13210.0 0.0030346
13230.0 0.0029834
13250.0 0.0029402
13270.0 0.0029074
13290.0 0.0028824
13310.0 0.0028648
13330.0 0.0028558
13350.0 0.0028534
13370.0 0.0028559
13390.0 0.0028622
13410.0 0.0028701
13430.0 0.0028782
13450.0 0.0028848
13470.0 0.0028884
13490.0 0.0028883
13510.0 0.0028831
13530.0 0.0028726
13550.0 0.0028578
13570.0 0.0028383
13590.0 0.0028142
13610.0 0.0027879
13630.0 0.0027606
13650.0 0.0027311
13670.0 0.0027018
13690.0 0.0026744
13710.0 0.0026479
13730.0 0.002622
13750.0 0.0025996
13770.0 0.0025792
13790.0 0.0025597
13810.0 0.0025415
13830.0 0.0025249
13850.0 0.0025079
13870.0 0.0024902
13890.0 0.0024725
13910.0 0.002454
13930.0 0.0024336
13950.0 0.0024121
13970.0 0.0023907
13990.0 0.0023681
14010.0 0.0023449
14030.0 0.0023228
14050.0 0.0023015
14070.0 0.0022805
14090.0 0.0022617
14110.0 0.0022454
14130.0 0.0022309
14150.0 0.0022187
14170.0 0.0022093
14190.0 0.0022022
14210.0 0.0021974
14230.0 0.002195
14250.0 0.0021947
14270.0 0.0021969
14290.0 0.0022016
14310.0 0.002208
14330.0 0.0022166
14350.0 0.0022277
14370.0 0.0022403
14390.0 0.0022538
14410.0 0.0022693
14430.0 0.0022858
14450.0 0.002302
14470.0 0.0023186
14490.0 0.0023361
14510.0 0.0023526
14530.0 0.0023683
14550.0 0.0023846
14570.0 0.0024013
14590.0 0.0024177
14610.0 0.0024356
14630.0 0.0024563
14650.0 0.0024786
14670.0 0.0025031
14690.0 0.0025321
14710.0 0.0025658
14730.0 0.0026009
14750.0 0.0026409
14770.0 0.0026862
14790.0 0.0027338
14810.0 0.0027829
14830.0 0.0028381
14850.0 0.0028938
14870.0 0.0029474
14890.0 0.0030009
14910.0 0.0030535
14930.0 0.0030995
14950.0 0.0031385
14970.0 0.0031721
14990.0 0.0031963
15010.0 0.0032108
15030.0 0.0032174
15050.0 0.0032168
15070.0 0.0032097
15090.0 0.0031987
15110.0 0.0031849
15130.0 0.0031695
15150.0 0.0031534
15170.0 0.0031366
15190.0 0.0031196
15210.0 0.0031027
15230.0 0.0030859
15250.0 0.0030688
15270.0 0.0030518
15290.0 0.0030352
15310.0 0.0030184
15330.0 0.0030015
15350.0 0.0029849
15370.0 0.0029684
15390.0 0.0029515
15410.0 0.002935
15430.0 0.0029186
15450.0 0.0029021
15470.0 0.0028856
15490.0 0.0028694
15510.0 0.0028533
15530.0 0.002837
15550.0 0.0028209
15570.0 0.002805
15590.0 0.0027889
15610.0 0.0027728
15630.0 0.0027572
15650.0 0.0027415
15670.0 0.0027257
15690.0 0.0027101
15710.0 0.0026948
15730.0 0.0026793
15750.0 0.0026639
15770.0 0.0026487
15790.0 0.0026336
15810.0 0.0026183
15830.0 0.0026033
15850.0 0.0025886
15870.0 0.0025737
15890.0 0.0025589
15910.0 0.0025444
15930.0 0.0025299
15950.0 0.0025152
15970.0 0.0025009
15990.0 0.0024867
16010.0 0.0024724
16030.0 0.0024581
16050.0 0.0024443
16070.0 0.0024304
16090.0 0.0024165
16110.0 0.0024028
16130.0 0.0023893
16150.0 0.0023755
16170.0 0.002362
16190.0 0.0023487
16210.0 0.0023355
16230.0 0.0023221
16250.0 0.0023091
16270.0 0.0022962
16290.0 0.0022832
16310.0 0.0022703
16330.0 0.0022577
16350.0 0.002245
16370.0 0.0022321
16390.0 0.0022198
16410.0 0.0022075
16430.0 0.002195
16450.0 0.0021828
16470.0 0.0021708
16490.0 0.0021587
16510.0 0.0021466
16530.0 0.0021347
16550.0 0.002123
16570.0 0.0021111
16590.0 0.0020993
16610.0 0.002088
16630.0 0.0020764
16650.0 0.0020649
16670.0 0.0020537
16690.0 0.0020426
16710.0 0.0020311
16730.0 0.00202
16750.0 0.0020091
16770.0 0.0019981
16790.0 0.001987
16810.0 0.0019764
16830.0 0.0019657
16850.0 0.0019549
16870.0 0.0019443
16890.0 0.0019339
16910.0 0.0019234
16930.0 0.0019128
16950.0 0.0019026
16970.0 0.0018924
16990.0 0.001882
17010.0 0.0018719
17030.0 0.0018621
17050.0 0.0018519
17070.0 0.0018419
17090.0 0.0018321
17110.0 0.0018224
17130.0 0.0018124
17150.0 0.0018027
17170.0 0.0017932
17190.0 0.0017836
17210.0 0.001774
17230.0 0.0017647
17250.0 0.0017553
17270.0 0.0017457
17290.0 0.0017365
17310.0 0.0017273
17330.0 0.0017181
17350.0 0.0017088
17370.0 0.0016999
17390.0 0.0016909
17410.0 0.0016818
17430.0 0.0016729
17450.0 0.0016642
17470.0 0.0016551
17490.0 0.0016463
17510.0 0.0016377
17530.0 0.001629
17550.0 0.0016202
17570.0 0.0016117
17590.0 0.0016033
17610.0 0.0015947
17630.0 0.0015862
17650.0 0.0015779
17670.0 0.0015695
17690.0 0.0015609
17710.0 0.0015528
17730.0 0.0015447
17750.0 0.0015364
17770.0 0.0015282
17790.0 0.0015203
17810.0 0.0015121
17830.0 0.001504
17850.0 0.001496
17870.0 0.0014882
17890.0 0.0014801
17910.0 0.0014722
17930.0 0.0014645
17950.0 0.0014567
17970.0 0.0014488
17990.0 0.0014412
18010.0 0.0014337
18030.0 0.0014258
18050.0 0.0014182
18070.0 0.0014107
18090.0 0.0014031
18110.0 0.0013955
18130.0 0.0013882
18150.0 0.0013808
18170.0 0.0013733
18190.0 0.001366
18210.0 0.0013588
18230.0 0.0013514
18250.0 0.0013439
18270.0 0.0013368
18290.0 0.0013297
18310.0 0.0013224
18330.0 0.0013153
18350.0 0.0013084
18370.0 0.0013012
18390.0 0.0012941
18410.0 0.0012872
18430.0 0.0012803
18450.0 0.0012731
18470.0 0.0012663
18490.0 0.0012595
18510.0 0.0012526
18530.0 0.0012457
18550.0 0.0012391
18570.0 0.0012324
18590.0 0.0012255
18610.0 0.0012188
18630.0 0.0012122
18650.0 0.0012055
18670.0 0.0011988
18690.0 0.0011924
18710.0 0.0011858
18730.0 0.0011792
18750.0 0.0011728
18770.0 0.0011665
18790.0 0.0011598
18810.0 0.0011533
18830.0 0.0011471
18850.0 0.0011407
18870.0 0.0011343
18890.0 0.0011281
18910.0 0.0011219
18930.0 0.0011155
18950.0 0.0011093
18970.0 0.0011032
18990.0 0.001097
19010.0 0.0010906
19030.0 0.0010846
19050.0 0.0010786
19070.0 0.0010725
19090.0 0.0010664
19110.0 0.0010606
19130.0 0.0010545
19150.0 0.0010484
19170.0 0.0010425
19190.0 0.0010367
19210.0 0.0010306
19230.0 0.0010247
19250.0 0.0010191
19270.0 0.0010132
19290.0 0.0010073
19310.0 0.0010017
19330.0 0.00099597
19350.0 0.00099002
19370.0 0.00098432
19390.0 0.00097876
19410.0 0.00097303
19430.0 0.00096728
19450.0 0.00096181
19470.0 0.00095627
19490.0 0.00095057
19510.0 0.00094504
19530.0 0.00093964
19550.0 0.00093401
19570.0 0.00092837
19590.0 0.00092304
19610.0 0.00091763
19630.0 0.00091208
19650.0 0.00090673
19670.0 0.00090149
19690.0 0.000896
19710.0 0.00089059
19730.0 0.00088537
19750.0 0.00088007
19770.0 0.00087458
19790.0 0.00086937
19810.0 0.00086423
19830.0 0.00085889
19850.0 0.00085356
19870.0 0.00084835
19890.0 0.00084276
19910.0 0.00083664
19930.0 0.00083015
19950.0 0.00082281
19970.0 0.00081387
19990.0 0.00080332
20010.0 0.00079161
20030.0 0.00077779
20050.0 0.00076212
20070.0 0.00074578
20090.0 0.0007289
20110.0 0.00071067
20130.0 0.00069316
20150.0 0.00067671
20170.0 0.00066052
20190.0 0.00064498
20210.0 0.00063109
20230.0 0.00061824
20250.0 0.00060603
20270.0 0.00059533
20290.0 0.00058613
20310.0 0.00057793
20330.0 0.00057088
20350.0 0.00056566
20370.0 0.00056167
20390.0 0.00055897
20410.0 0.00055776
20430.0 0.00055793
20450.0 0.00055954
20470.0 0.00056264
20490.0 0.00056702
20510.0 0.00057274
20530.0 0.00058002
20550.0 0.00058837
20570.0 0.00059745
20590.0 0.00060783
20610.0 0.00061903
20630.0 0.0006304
20650.0 0.00064225
20670.0 0.00065486
20690.0 0.00066684
20710.0 0.00067835
20730.0 0.00068974
20750.0 0.00070053
20770.0 0.00071009
20790.0 0.00071903
20810.0 0.00072732
20830.0 0.00073451
20850.0 0.00074079
20870.0 0.00074658
20890.0 0.00075169
20910.0 0.00075601
20930.0 0.00075999
20950.0 0.00076368
20970.0 0.00076694
20990.0 0.00076988
21010.0 0.00077265
21030.0 0.00077504
21050.0 0.00077699
21070.0 0.00077853
21090.0 0.00077958
21110.0 0.00078002
21130.0 0.00077988
21150.0 0.00077911
21170.0 0.00077773
21190.0 0.00077583
21210.0 0.00077333
21230.0 0.00077027
21250.0 0.00076693
21270.0 0.00076331
21290.0 0.00075933
21310.0 0.00075526
21330.0 0.00075134
21350.0 0.00074733
21370.0 0.00074338
21390.0 0.00073976
21410.0 0.00073641
21430.0 0.00073318
21450.0 0.00073043
21470.0 0.00072814
21490.0 0.00072619
21510.0 0.00072466
21530.0 0.00072364
21550.0 0.00072305
21570.0 0.0007229
21590.0 0.00072326
21610.0 0.00072406
21630.0 0.00072538
21650.0 0.00072728
21670.0 0.00072957
21690.0 0.00073238
21710.0 0.00073583
21730.0 0.00073976
21750.0 0.00074409
21770.0 0.00074924
21790.0 0.00075495
21810.0 0.00076102
21830.0 0.00076768
21850.0 0.00077513
21870.0 0.0007829
21890.0 0.00079088
21910.0 0.00079962
21930.0 0.00080875
21950.0 0.00081786
21970.0 0.00082734
21990.0 0.00083744
22010.0 0.00084714
22030.0 0.00085667
22050.0 0.00086636
22070.0 0.00087579
22090.0 0.00088444
22110.0 0.00089282
22130.0 0.00090077
22150.0 0.00090773
22170.0 0.00091377
22190.0 0.00091907
22210.0 0.0009232
22230.0 0.00092597
22250.0 0.00092757
22270.0 0.00092782
22290.0 0.00092667
22310.0 0.0009242
22330.0 0.00092009
22350.0 0.00091454
22370.0 0.00090779
22390.0 0.00089952
22410.0 0.00088957
22430.0 0.00087889
22450.0 0.00086718
22470.0 0.00085401
22490.0 0.00084008
22510.0 0.00082592
22530.0 0.00081054
22550.0 0.00079438
22570.0 0.00077859
22590.0 0.00076262
22610.0 0.00074605
22630.0 0.00072978
22650.0 0.00071438
22670.0 0.00069867
22690.0 0.00068321
22710.0 0.00066875
22730.0 0.00065485
22750.0 0.00064078
22770.0 0.00062794
22790.0 0.00061614
22810.0 0.00060471
22830.0 0.00059397
22850.0 0.00058447
22870.0 0.00057565
22890.0 0.00056738
22910.0 0.00056023
22930.0 0.0005541
22950.0 0.0005487
22970.0 0.00054419
22990.0 0.00054093
23010.0 0.00053854
23030.0 0.00053709
23050.0 0.00053665
23070.0 0.00053713
23090.0 0.00053859
23110.0 0.00054097
23130.0 0.00054407
23150.0 0.00054794
23170.0 0.00055261
23190.0 0.0005577
23210.0 0.00056305
23230.0 0.00056895
23250.0 0.00057503
23270.0 0.00058097
23290.0 0.00058699
23310.0 0.00059311
23330.0 0.00059867
23350.0 0.00060384
23370.0 0.00060875
23390.0 0.00061314
23410.0 0.00061681
23430.0 0.00062
23450.0 0.00062261
23470.0 0.00062447
23490.0 0.00062568
23510.0 0.00062625
23530.0 0.00062611
23550.0 0.00062537
23570.0 0.00062403
23590.0 0.0006221
23610.0 0.00061975
23630.0 0.00061704
23650.0 0.00061385
23670.0 0.00061051
23690.0 0.00060718
23710.0 0.00060384
23730.0 0.00060063
23750.0 0.00059798
23770.0 0.0005959
23790.0 0.00059453
23810.0 0.00059417
