#lamb flux
1010.0 3.9837e-07
1030.0 4.2707e-07
1050.0 4.6017e-07
1070.0 4.9747e-07
1090.0 5.3986e-07
1110.0 5.8341e-07
1130.0 6.2732e-07
1150.0 6.734e-07
1170.0 7.2104e-07
1190.0 7.6635e-07
1210.0 8.1238e-07
1230.0 8.6007e-07
1250.0 9.0696e-07
1270.0 9.5268e-07
1290.0 1.0011e-06
1310.0 1.0496e-06
1330.0 1.0964e-06
1350.0 1.1439e-06
1370.0 1.1931e-06
1390.0 1.2413e-06
1410.0 1.2884e-06
1430.0 1.3377e-06
1450.0 1.3872e-06
1470.0 1.4354e-06
1490.0 1.4842e-06
1510.0 1.5359e-06
1530.0 1.5852e-06
1550.0 1.634e-06
1570.0 1.6846e-06
1590.0 1.7353e-06
1610.0 1.784e-06
1630.0 1.8341e-06
1650.0 1.8855e-06
1670.0 1.9352e-06
1690.0 1.9843e-06
1710.0 2.0349e-06
1730.0 2.0857e-06
1750.0 2.1333e-06
1770.0 2.1819e-06
1790.0 2.231e-06
1810.0 2.2781e-06
1830.0 2.3239e-06
1850.0 2.3719e-06
1870.0 2.418e-06
1890.0 2.4618e-06
1910.0 2.5057e-06
1930.0 2.5499e-06
1950.0 2.591e-06
1970.0 2.6307e-06
1990.0 2.6712e-06
2010.0 2.7099e-06
2030.0 2.746e-06
2050.0 2.7825e-06
2070.0 2.8191e-06
2090.0 2.8522e-06
2110.0 2.8841e-06
2130.0 2.9165e-06
2150.0 2.9472e-06
2170.0 2.9751e-06
2190.0 3.004e-06
2210.0 3.0323e-06
2230.0 3.0583e-06
2250.0 3.0836e-06
2270.0 3.1103e-06
2290.0 3.1352e-06
2310.0 3.158e-06
2330.0 3.1819e-06
2350.0 3.206e-06
2370.0 3.2283e-06
2390.0 3.2509e-06
2410.0 3.2756e-06
2430.0 3.2993e-06
2450.0 3.3226e-06
2470.0 3.3484e-06
2490.0 3.378e-06
2510.0 3.4125e-06
2530.0 3.4642e-06
2550.0 3.5532e-06
2570.0 3.7013e-06
2590.0 3.9341e-06
2610.0 4.3168e-06
2630.0 4.8682e-06
2650.0 5.5608e-06
2670.0 6.4039e-06
2690.0 7.3694e-06
2710.0 8.329e-06
2730.0 9.2199e-06
2750.0 1.0057e-05
2770.0 1.0767e-05
2790.0 1.1341e-05
2810.0 1.1836e-05
2830.0 1.2296e-05
2850.0 1.2701e-05
2870.0 1.3096e-05
2890.0 1.3512e-05
2910.0 1.3941e-05
2930.0 1.4366e-05
2950.0 1.4822e-05
2970.0 1.5304e-05
2990.0 1.5786e-05
3010.0 7.1377e-05
3030.0 7.3639e-05
3050.0 7.5878e-05
3070.0 7.7871e-05
3090.0 7.9547e-05
3110.0 8.0429e-05
3130.0 7.9952e-05
3150.0 7.7532e-05
3170.0 7.1994e-05
3190.0 6.3251e-05
3210.0 5.1507e-05
3230.0 3.8371e-05
3250.0 5.1522e-05
3270.0 3.7157e-05
3290.0 6.8549e-05
3310.0 3.5146e-05
3330.0 3.5103e-05
3350.0 3.9662e-05
3370.0 4.519e-05
3390.0 5.1299e-05
3410.0 5.7442e-05
3430.0 6.3927e-05
3450.0 7.0516e-05
3470.0 7.6649e-05
3490.0 8.1142e-05
3510.0 9.4562e-05
3530.0 0.00011762
3550.0 0.00011548
3570.0 9.9011e-05
3590.0 0.00012754
3610.0 9.0611e-05
3630.0 0.00013539
3650.0 0.00015529
3670.0 0.00019171
3690.0 0.00017951
3710.0 0.00012732
3730.0 0.00015666
3750.0 0.00015951
3770.0 0.00017245
3790.0 0.00017252
3810.0 0.00018496
3830.0 0.00028409
3850.0 0.00035378
3870.0 0.00043178
3890.0 0.00042781
3910.0 0.00038981
3930.0 0.00039265
3950.0 0.0004189
3970.0 0.00043516
3990.0 0.00026937
4010.0 0.00015172
4030.0 0.0002718
4050.0 0.00036812
4070.0 0.00037881
4090.0 0.00024882
4110.0 0.00016529
4130.0 0.00027846
4150.0 0.00029474
4170.0 0.00026267
4190.0 0.00023097
4210.0 0.00033273
4230.0 0.00026203
4250.0 0.00027176
4270.0 0.00026981
4290.0 0.00025032
4310.0 0.00031807
4330.0 0.00035161
4350.0 0.00031337
4370.0 0.00027101
4390.0 0.00031538
4410.0 0.00031549
4430.0 0.00023203
4450.0 0.00020035
4470.0 0.00024732
4490.0 0.00020092
4510.0 0.00028663
4530.0 0.00029596
4550.0 0.00033261
4570.0 0.00045289
4590.0 0.00046855
4610.0 0.00042794
4630.0 0.00064121
4650.0 0.00080259
4670.0 0.00078129
4690.0 0.00061654
4710.0 0.000637
4730.0 0.00066143
4750.0 0.00052492
4770.0 0.00040868
4790.0 0.00028769
4810.0 0.00036528
4830.0 0.0004291
4850.0 0.00039127
4870.0 0.00021971
4890.0 0.00045532
4910.0 0.00055593
4930.0 0.00060604
4950.0 0.0006503
4970.0 0.00052071
4990.0 0.00059946
5010.0 0.0006681
5030.0 0.00068308
5050.0 0.00060901
5070.0 0.00043251
5090.0 0.00035443
5110.0 0.00034842
5130.0 0.00034218
5150.0 0.00034365
5170.0 0.00031426
5190.0 0.00036043
5210.0 0.00036809
5230.0 0.00040727
5250.0 0.00046732
5270.0 0.00040253
5290.0 0.000434
5310.0 0.00060786
5330.0 0.00068839
5350.0 0.00059587
5370.0 0.00055514
5390.0 0.00063043
5410.0 0.00071222
5430.0 0.00073857
5450.0 0.00077394
5470.0 0.00079829
5490.0 0.00085905
5510.0 0.0010283
5530.0 0.0010675
5550.0 0.0011066
5570.0 0.00114
5590.0 0.0011117
5610.0 0.0010424
5630.0 0.0010264
5650.0 0.0010629
5670.0 0.0010333
5690.0 0.0008982
5710.0 0.00088852
5730.0 0.00086855
5750.0 0.00086475
5770.0 0.00075042
5790.0 0.00073803
5810.0 0.00076423
5830.0 0.00083004
5850.0 0.00078508
5870.0 0.00078133
5890.0 0.00087794
5910.0 0.00081433
5930.0 0.00069268
5950.0 0.0006461
5970.0 0.00069483
5990.0 0.00062367
6010.0 0.0005562
6030.0 0.00052678
6050.0 0.00048017
6070.0 0.00039317
6090.0 0.00038866
6110.0 0.00047723
6130.0 0.00051889
6150.0 0.00053223
6170.0 0.00052809
6190.0 0.00052177
6210.0 0.00056238
6230.0 0.00067579
6250.0 0.00062528
6270.0 0.00055677
6290.0 0.00049839
6310.0 0.00043912
6330.0 0.00040114
6350.0 0.00036645
6370.0 0.00037745
6390.0 0.00043307
6410.0 0.00053266
6430.0 0.00063847
6450.0 0.00067222
6470.0 0.0006998
6490.0 0.00083249
6510.0 0.00094082
6530.0 0.00089962
6550.0 0.00085533
6570.0 0.00086647
6590.0 0.00085934
6610.0 0.00089112
6630.0 0.00083325
6650.0 0.00073129
6670.0 0.00068497
6690.0 0.00067719
6710.0 0.00076423
6730.0 0.00067582
6750.0 0.00056115
6770.0 0.0005196
6790.0 0.00055302
6810.0 0.00063174
6830.0 0.00063297
6850.0 0.00057115
6870.0 0.00058492
6890.0 0.00058046
6910.0 0.00054569
6930.0 0.00058894
6950.0 0.00055613
6970.0 0.00052677
6990.0 0.0005297
7010.0 0.00054439
7030.0 0.00053233
7050.0 0.00050256
7070.0 0.0005211
7090.0 0.00047775
7110.0 0.0004067
7130.0 0.00036529
7150.0 0.0003696
7170.0 0.0004445
7190.0 0.00046323
7210.0 0.00044183
7230.0 0.00047075
7250.0 0.00047321
7270.0 0.00047095
7290.0 0.00049935
7310.0 0.00053174
7330.0 0.00051302
7350.0 0.00047579
7370.0 0.00043982
7390.0 0.00043641
7410.0 0.00049444
7430.0 0.00056278
7450.0 0.00060474
7470.0 0.00062911
7490.0 0.00071341
7510.0 0.00070747
7530.0 0.0006197
7550.0 0.00056998
7570.0 0.00048776
7590.0 0.00045314
7610.0 0.00043887
7630.0 0.0004125
7650.0 0.00044349
7670.0 0.000496
7690.0 0.00054171
7710.0 0.00061942
7730.0 0.00064698
7750.0 0.00067161
7770.0 0.00070785
7790.0 0.0007593
7810.0 0.00075879
7830.0 0.0006841
7850.0 0.00068537
7870.0 0.00066351
7890.0 0.00066613
7910.0 0.0006251
7930.0 0.00061312
7950.0 0.00051232
7970.0 0.00050823
7990.0 0.00049654
8010.0 0.00055336
8030.0 0.00055222
8050.0 0.00058675
8070.0 0.00056522
8090.0 0.00056773
8110.0 0.00055937
8130.0 0.00054889
8150.0 0.00051309
8170.0 0.00050517
8190.0 0.00050594
8210.0 0.00051119
8230.0 0.00045008
8250.0 0.00041287
8270.0 0.00036485
8290.0 0.00030995
8310.0 0.00027044
8330.0 0.00021157
8350.0 0.00016937
8370.0 0.00016141
8390.0 0.00015772
8410.0 0.00016729
8430.0 0.00021575
8450.0 0.00023606
8470.0 0.00025484
8490.0 0.00029711
8510.0 0.00032329
8530.0 0.00036593
8550.0 0.00043302
8570.0 0.00047691
8590.0 0.00050248
8610.0 0.00056186
8630.0 0.00064287
8650.0 0.00066199
8670.0 0.00067673
8690.0 0.00069884
8710.0 0.00068446
8730.0 0.00066049
8750.0 0.00060775
8770.0 0.00060683
8790.0 0.00059682
8810.0 0.00054926
8830.0 0.0005464
8850.0 0.00049592
8870.0 0.00047078
8890.0 0.00042251
8910.0 0.00047301
8930.0 0.00042942
8950.0 0.00043246
8970.0 0.0004427
8990.0 0.00043137
9010.0 0.00044219
9030.0 0.00041977
9050.0 0.00041787
9070.0 0.00041817
9090.0 0.0004184
9110.0 0.00041893
9130.0 0.00041906
9150.0 0.00041898
9170.0 0.00041781
9190.0 0.00041508
9210.0 0.0004216
9230.0 0.00041997
9250.0 0.00041911
9270.0 0.00041843
9290.0 0.00041786
9310.0 0.00041735
9330.0 0.00041686
9350.0 0.00041639
9370.0 0.0004159
9390.0 0.00041537
9410.0 0.00041483
9430.0 0.00041428
9450.0 0.00041368
9470.0 0.00041307
9490.0 0.00041244
9510.0 0.00041179
9530.0 0.00041111
9550.0 0.00041044
9570.0 0.00040976
9590.0 0.00040906
9610.0 0.00040835
9630.0 0.00040766
9650.0 0.00040696
9670.0 0.00040623
9690.0 0.00040553
9710.0 0.00040484
9730.0 0.00040413
9750.0 0.00040344
9770.0 0.00040279
9790.0 0.00040212
9810.0 0.00040145
9830.0 0.00040081
9850.0 0.00040019
9870.0 0.00039956
9890.0 0.00039895
9910.0 0.00039839
9930.0 0.00039782
9950.0 0.00039672
9970.0 0.00039638
9990.0 0.00039603
10010.0 0.00039564
10030.0 0.00039524
10050.0 0.0003947
10070.0 0.00039333
10090.0 0.00039328
10110.0 0.00039321
10130.0 0.00039308
10150.0 0.0003929
10170.0 0.00039269
10190.0 0.00039244
10210.0 0.00039222
10230.0 0.00039202
10250.0 0.00039181
10270.0 0.00039163
10290.0 0.0003915
10310.0 0.00039136
10330.0 0.00039123
10350.0 0.00039115
10370.0 0.0003911
10390.0 0.00039104
10410.0 0.00039101
10430.0 0.00039103
10450.0 0.00039105
10470.0 0.00039107
10490.0 0.00039114
10510.0 0.00039122
10530.0 0.00039129
10550.0 0.0003914
10570.0 0.00039154
10590.0 0.00039168
10610.0 0.00039183
10630.0 0.00039202
10650.0 0.00039222
10670.0 0.00039241
10690.0 0.00039263
10710.0 0.00039287
10730.0 0.00039311
10750.0 0.00039335
10770.0 0.00039363
10790.0 0.00039391
10810.0 0.00039419
10830.0 0.00039447
10850.0 0.00039473
10870.0 0.0003949
10890.0 0.00039491
10910.0 0.00039465
10930.0 0.0003939
10950.0 0.00039234
10970.0 0.00038977
10990.0 0.00038612
11010.0 0.00039427
11030.0 0.00038705
11050.0 0.0003786
11070.0 0.00036884
11090.0 0.00035754
11110.0 0.0003463
11130.0 0.00033506
11150.0 0.00032358
11170.0 0.00031245
11190.0 0.00030236
11210.0 0.00029267
11230.0 0.00028351
11250.0 0.00027546
11270.0 0.00026834
11290.0 0.00026174
11310.0 0.00025592
11330.0 0.00025106
11350.0 0.0002466
11370.0 0.00024246
11390.0 0.00023873
11410.0 0.00023519
11430.0 0.00023146
11450.0 0.00022771
11470.0 0.00022392
11490.0 0.00021982
11510.0 0.00021533
11530.0 0.00021077
11550.0 0.00020604
11570.0 0.00020091
11590.0 0.00019569
11610.0 0.00019054
11630.0 0.00018515
11650.0 0.00017965
11670.0 0.00017446
11690.0 0.00016937
11710.0 0.00016425
11730.0 0.00015936
11750.0 0.00015485
11770.0 0.00015035
11790.0 0.00014599
11810.0 0.00014197
11830.0 0.00013813
11850.0 0.00013426
11870.0 0.00013066
11890.0 0.0001273
11910.0 0.00012395
11930.0 0.00012065
11950.0 0.00011756
11970.0 0.00011449
11990.0 0.00011136
12010.0 0.00010836
12030.0 0.00010548
12050.0 0.00010259
12070.0 9.973e-05
12090.0 9.716e-05
12110.0 9.4692e-05
12130.0 9.2337e-05
12150.0 9.0259e-05
12170.0 8.8493e-05
12190.0 8.6924e-05
12210.0 8.5732e-05
12230.0 8.4964e-05
12250.0 8.4585e-05
12270.0 8.4645e-05
12290.0 8.5159e-05
12310.0 8.6077e-05
12330.0 8.7459e-05
12350.0 8.9246e-05
12370.0 9.1312e-05
12390.0 9.3683e-05
12410.0 9.6413e-05
12430.0 9.914e-05
12450.0 0.00010189
12470.0 0.00010472
12490.0 0.00010745
12510.0 0.00010992
12530.0 0.00011227
12550.0 0.00011442
12570.0 0.00011624
12590.0 0.00011777
12610.0 0.00011907
12630.0 0.00012007
12650.0 0.00012075
12670.0 0.00012121
12690.0 0.00012144
12710.0 0.00012144
12730.0 0.00012127
12750.0 0.0001209
12770.0 0.00012038
12790.0 0.00011974
12810.0 0.00011896
12830.0 0.00011802
12850.0 0.00011701
12870.0 0.00011588
12890.0 0.00011458
12910.0 0.00011316
12930.0 0.00011165
12950.0 0.00010994
12970.0 0.00010802
12990.0 0.00010606
13010.0 0.00010397
13030.0 0.00010167
13050.0 9.9319e-05
13070.0 9.6997e-05
13090.0 9.4543e-05
13110.0 9.2075e-05
13130.0 8.9746e-05
13150.0 8.7506e-05
13170.0 8.5291e-05
13190.0 8.3341e-05
13210.0 8.1661e-05
13230.0 8.0158e-05
13250.0 7.8908e-05
13270.0 7.797e-05
13290.0 7.727e-05
13310.0 7.6795e-05
13330.0 7.6565e-05
13350.0 7.6522e-05
13370.0 7.662e-05
13390.0 7.6821e-05
13410.0 7.7062e-05
13430.0 7.7303e-05
13450.0 7.7504e-05
13470.0 7.7619e-05
13490.0 7.7631e-05
13510.0 7.7509e-05
13530.0 7.725e-05
13550.0 7.6876e-05
13570.0 7.6385e-05
13590.0 7.5782e-05
13610.0 7.5132e-05
13630.0 7.4463e-05
13650.0 7.375e-05
13670.0 7.3054e-05
13690.0 7.2411e-05
13710.0 7.1802e-05
13730.0 7.122e-05
13750.0 7.0724e-05
13770.0 7.0278e-05
13790.0 6.9856e-05
13810.0 6.9462e-05
13830.0 6.9093e-05
13850.0 6.8708e-05
13870.0 6.8295e-05
13890.0 6.7863e-05
13910.0 6.7396e-05
13930.0 6.6868e-05
13950.0 6.6299e-05
13970.0 6.5722e-05
13990.0 6.5106e-05
14010.0 6.4471e-05
14030.0 6.3859e-05
14050.0 6.3271e-05
14070.0 6.2691e-05
14090.0 6.2175e-05
14110.0 6.1726e-05
14130.0 6.133e-05
14150.0 6.0997e-05
14170.0 6.0741e-05
14190.0 6.0548e-05
14210.0 6.0416e-05
14230.0 6.0349e-05
14250.0 6.0339e-05
14270.0 6.0395e-05
14290.0 6.0521e-05
14310.0 6.0697e-05
14330.0 6.0934e-05
14350.0 6.1244e-05
14370.0 6.1602e-05
14390.0 6.1989e-05
14410.0 6.244e-05
14430.0 6.2927e-05
14450.0 6.3415e-05
14470.0 6.3919e-05
14490.0 6.4463e-05
14510.0 6.4988e-05
14530.0 6.5499e-05
14550.0 6.6043e-05
14570.0 6.6612e-05
14590.0 6.7182e-05
14610.0 6.7812e-05
14630.0 6.8539e-05
14650.0 6.9321e-05
14670.0 7.0179e-05
14690.0 7.1182e-05
14710.0 7.2328e-05
14730.0 7.3515e-05
14750.0 7.4846e-05
14770.0 7.6332e-05
14790.0 7.7872e-05
14810.0 7.9443e-05
14830.0 8.1182e-05
14850.0 8.2913e-05
14870.0 8.4558e-05
14890.0 8.6181e-05
14910.0 8.775e-05
14930.0 8.9112e-05
14950.0 9.0258e-05
14970.0 9.1236e-05
14990.0 9.1941e-05
15010.0 9.2368e-05
15030.0 9.2573e-05
15050.0 9.2577e-05
15070.0 9.2406e-05
15090.0 9.2128e-05
15110.0 9.1772e-05
15130.0 9.1373e-05
15150.0 9.0959e-05
15170.0 9.0526e-05
15190.0 9.0084e-05
15210.0 8.9649e-05
15230.0 8.9215e-05
15250.0 8.8773e-05
15270.0 8.8334e-05
15290.0 8.7907e-05
15310.0 8.7474e-05
15330.0 8.7039e-05
15350.0 8.6613e-05
15370.0 8.6189e-05
15390.0 8.5754e-05
15410.0 8.5328e-05
15430.0 8.4909e-05
15450.0 8.4485e-05
15470.0 8.4059e-05
15490.0 8.3645e-05
15510.0 8.3232e-05
15530.0 8.2812e-05
15550.0 8.2399e-05
15570.0 8.1993e-05
15590.0 8.158e-05
15610.0 8.1165e-05
15630.0 8.0764e-05
15650.0 8.0362e-05
15670.0 7.9955e-05
15690.0 7.9555e-05
15710.0 7.9163e-05
15730.0 7.8764e-05
15750.0 7.8366e-05
15770.0 7.7978e-05
15790.0 7.7589e-05
15810.0 7.7193e-05
15830.0 7.6807e-05
15850.0 7.6429e-05
15870.0 7.6044e-05
15890.0 7.5662e-05
15910.0 7.5289e-05
15930.0 7.4914e-05
15950.0 7.4534e-05
15970.0 7.4163e-05
15990.0 7.3797e-05
16010.0 7.3426e-05
16030.0 7.3054e-05
16050.0 7.2697e-05
16070.0 7.2336e-05
16090.0 7.1973e-05
16110.0 7.1617e-05
16130.0 7.1267e-05
16150.0 7.0906e-05
16170.0 7.0551e-05
16190.0 7.0205e-05
16210.0 6.9858e-05
16230.0 6.9507e-05
16250.0 6.9165e-05
16270.0 6.8828e-05
16290.0 6.8484e-05
16310.0 6.8143e-05
16330.0 6.7812e-05
16350.0 6.7477e-05
16370.0 6.7135e-05
16390.0 6.6807e-05
16410.0 6.6481e-05
16430.0 6.615e-05
16450.0 6.5823e-05
16470.0 6.5506e-05
16490.0 6.5181e-05
16510.0 6.4856e-05
16530.0 6.4539e-05
16550.0 6.4225e-05
16570.0 6.3904e-05
16590.0 6.3586e-05
16610.0 6.328e-05
16630.0 6.2969e-05
16650.0 6.2656e-05
16670.0 6.2352e-05
16690.0 6.2049e-05
16710.0 6.1736e-05
16730.0 6.1432e-05
16750.0 6.1135e-05
16770.0 6.0832e-05
16790.0 6.0528e-05
16810.0 6.0235e-05
16830.0 5.9942e-05
16850.0 5.9642e-05
16870.0 5.9349e-05
16890.0 5.9062e-05
16910.0 5.8767e-05
16930.0 5.8471e-05
16950.0 5.8187e-05
16970.0 5.7901e-05
16990.0 5.7611e-05
17010.0 5.7327e-05
17030.0 5.7049e-05
17050.0 5.6763e-05
17070.0 5.6478e-05
17090.0 5.6202e-05
17110.0 5.5924e-05
17130.0 5.5638e-05
17150.0 5.5362e-05
17170.0 5.5091e-05
17190.0 5.4814e-05
17210.0 5.4538e-05
17230.0 5.4271e-05
17250.0 5.4e-05
17270.0 5.3723e-05
17290.0 5.3454e-05
17310.0 5.3189e-05
17330.0 5.2917e-05
17350.0 5.2646e-05
17370.0 5.2386e-05
17390.0 5.2122e-05
17410.0 5.1854e-05
17430.0 5.1593e-05
17450.0 5.1336e-05
17470.0 5.1067e-05
17490.0 5.0804e-05
17510.0 5.0549e-05
17530.0 5.029e-05
17550.0 5.0027e-05
17570.0 4.9772e-05
17590.0 4.9521e-05
17610.0 4.9261e-05
17630.0 4.9005e-05
17650.0 4.8755e-05
17670.0 4.8502e-05
17690.0 4.824e-05
17710.0 4.7993e-05
17730.0 4.7745e-05
17750.0 4.7492e-05
17770.0 4.7242e-05
17790.0 4.7e-05
17810.0 4.6749e-05
17830.0 4.6497e-05
17850.0 4.6254e-05
17870.0 4.6011e-05
17890.0 4.576e-05
17910.0 4.5514e-05
17930.0 4.5277e-05
17950.0 4.5033e-05
17970.0 4.4788e-05
17990.0 4.455e-05
18010.0 4.4313e-05
18030.0 4.4065e-05
18050.0 4.3826e-05
18070.0 4.3591e-05
18090.0 4.3351e-05
18110.0 4.311e-05
18130.0 4.2878e-05
18150.0 4.2645e-05
18170.0 4.2405e-05
18190.0 4.2171e-05
18210.0 4.1943e-05
18230.0 4.1706e-05
18250.0 4.1468e-05
18270.0 4.124e-05
18290.0 4.1011e-05
18310.0 4.0776e-05
18330.0 4.0548e-05
18350.0 4.0324e-05
18370.0 4.0092e-05
18390.0 3.9862e-05
18410.0 3.9639e-05
18430.0 3.9413e-05
18450.0 3.918e-05
18470.0 3.8957e-05
18490.0 3.8737e-05
18510.0 3.8511e-05
18530.0 3.8286e-05
18550.0 3.8069e-05
18570.0 3.7847e-05
18590.0 3.762e-05
18610.0 3.7401e-05
18630.0 3.7185e-05
18650.0 3.6962e-05
18670.0 3.674e-05
18690.0 3.6529e-05
18710.0 3.6312e-05
18730.0 3.6092e-05
18750.0 3.5879e-05
18770.0 3.5668e-05
18790.0 3.5447e-05
18810.0 3.5231e-05
18830.0 3.5022e-05
18850.0 3.481e-05
18870.0 3.4594e-05
18890.0 3.4386e-05
18910.0 3.4179e-05
18930.0 3.3965e-05
18950.0 3.3755e-05
18970.0 3.3551e-05
18990.0 3.3343e-05
19010.0 3.3127e-05
19030.0 3.2926e-05
19050.0 3.2723e-05
19070.0 3.2514e-05
19090.0 3.2309e-05
19110.0 3.2112e-05
19130.0 3.1906e-05
19150.0 3.1699e-05
19170.0 3.15e-05
19190.0 3.1301e-05
19210.0 3.1095e-05
19230.0 3.0894e-05
19250.0 3.07e-05
19270.0 3.05e-05
19290.0 3.03e-05
19310.0 3.0106e-05
19330.0 2.9912e-05
19350.0 2.9709e-05
19370.0 2.9514e-05
19390.0 2.9323e-05
19410.0 2.9127e-05
19430.0 2.8929e-05
19450.0 2.8741e-05
19470.0 2.8551e-05
19490.0 2.8355e-05
19510.0 2.8165e-05
19530.0 2.7979e-05
19550.0 2.7785e-05
19570.0 2.7591e-05
19590.0 2.7407e-05
19610.0 2.722e-05
19630.0 2.7029e-05
19650.0 2.6844e-05
19670.0 2.6663e-05
19690.0 2.6474e-05
19710.0 2.6286e-05
19730.0 2.6106e-05
19750.0 2.5922e-05
19770.0 2.5733e-05
19790.0 2.5552e-05
19810.0 2.5374e-05
19830.0 2.5189e-05
19850.0 2.5004e-05
19870.0 2.4824e-05
19890.0 2.4631e-05
19910.0 2.4421e-05
19930.0 2.42e-05
19950.0 2.3953e-05
19970.0 2.3656e-05
19990.0 2.3308e-05
20010.0 2.2927e-05
20030.0 2.2481e-05
20050.0 2.1981e-05
20070.0 2.1463e-05
20090.0 2.0934e-05
20110.0 2.0368e-05
20130.0 1.9831e-05
20150.0 1.9332e-05
20170.0 1.8848e-05
20190.0 1.8389e-05
20210.0 1.7986e-05
20230.0 1.7618e-05
20250.0 1.7274e-05
20270.0 1.6978e-05
20290.0 1.6728e-05
20310.0 1.651e-05
20330.0 1.6327e-05
20350.0 1.6196e-05
20370.0 1.6101e-05
20390.0 1.6043e-05
20410.0 1.6026e-05
20430.0 1.6048e-05
20450.0 1.611e-05
20470.0 1.6215e-05
20490.0 1.6355e-05
20510.0 1.6533e-05
20530.0 1.6756e-05
20550.0 1.7009e-05
20570.0 1.7283e-05
20590.0 1.7595e-05
20610.0 1.7932e-05
20630.0 1.8273e-05
20650.0 1.8629e-05
20670.0 1.9007e-05
20690.0 1.9367e-05
20710.0 1.9713e-05
20730.0 2.0056e-05
20750.0 2.0382e-05
20770.0 2.0671e-05
20790.0 2.0944e-05
20810.0 2.12e-05
20830.0 2.1424e-05
20850.0 2.1625e-05
20870.0 2.1815e-05
20890.0 2.199e-05
20910.0 2.2144e-05
20930.0 2.2293e-05
20950.0 2.2439e-05
20970.0 2.2576e-05
20990.0 2.2705e-05
21010.0 2.2835e-05
21030.0 2.2955e-05
21050.0 2.3061e-05
21070.0 2.3156e-05
21090.0 2.3237e-05
21110.0 2.3295e-05
21130.0 2.3331e-05
21150.0 2.3347e-05
21170.0 2.3339e-05
21190.0 2.3309e-05
21210.0 2.3256e-05
21230.0 2.3181e-05
21250.0 2.309e-05
21270.0 2.2986e-05
21290.0 2.2864e-05
21310.0 2.2733e-05
21330.0 2.2601e-05
21350.0 2.246e-05
21370.0 2.2315e-05
21390.0 2.2176e-05
21410.0 2.204e-05
21430.0 2.1902e-05
21450.0 2.1775e-05
21470.0 2.166e-05
21490.0 2.1551e-05
21510.0 2.1452e-05
21530.0 2.137e-05
21550.0 2.1299e-05
21570.0 2.124e-05
21590.0 2.1197e-05
21610.0 2.1171e-05
21630.0 2.116e-05
21650.0 2.1168e-05
21670.0 2.1193e-05
21690.0 2.1237e-05
21710.0 2.1302e-05
21730.0 2.1386e-05
21750.0 2.1486e-05
21770.0 2.1614e-05
21790.0 2.1762e-05
21810.0 2.1925e-05
21830.0 2.211e-05
21850.0 2.2321e-05
21870.0 2.2546e-05
21890.0 2.2779e-05
21910.0 2.3038e-05
21930.0 2.3312e-05
21950.0 2.3586e-05
21970.0 2.3874e-05
21990.0 2.4183e-05
22010.0 2.4482e-05
22030.0 2.4776e-05
22050.0 2.5078e-05
22070.0 2.5373e-05
22090.0 2.5645e-05
22110.0 2.5911e-05
22130.0 2.6166e-05
22150.0 2.6392e-05
22170.0 2.6591e-05
22190.0 2.677e-05
22210.0 2.6914e-05
22230.0 2.7017e-05
22250.0 2.7086e-05
22270.0 2.7114e-05
22290.0 2.7101e-05
22310.0 2.7046e-05
22330.0 2.6943e-05
22350.0 2.6795e-05
22370.0 2.6609e-05
22390.0 2.6377e-05
22410.0 2.6093e-05
22430.0 2.5783e-05
22450.0 2.5441e-05
22470.0 2.5052e-05
22490.0 2.4638e-05
22510.0 2.4214e-05
22530.0 2.3751e-05
22550.0 2.3262e-05
22570.0 2.2781e-05
22590.0 2.2292e-05
22610.0 2.1782e-05
22630.0 2.1278e-05
