#lamb flux
1010.0 0.00023392
1030.0 0.00028954
1050.0 0.00035082
1070.0 0.00041606
1090.0 0.00048507
1110.0 0.00054846
1130.0 0.00060351
1150.0 0.00065227
1170.0 0.00069245
1190.0 0.00071769
1210.0 0.00073321
1230.0 0.00074047
1250.0 0.00073712
1270.0 0.0007243
1290.0 0.00070759
1310.0 0.00068534
1330.0 0.00065765
1350.0 0.00063161
1370.0 0.00062055
1390.0 0.00060381
1410.0 0.00058247
1430.0 0.00055938
1450.0 0.00053423
1470.0 0.00050729
1490.0 0.00048031
1510.0 0.00045375
1530.0 0.00042632
1550.0 0.0004002
1570.0 0.00037623
1590.0 0.0003571
1610.0 0.00034803
1630.0 0.00034207
1650.0 0.00033899
1670.0 0.00033823
1690.0 0.00034011
1710.0 0.00034526
1730.0 0.00035326
1750.0 0.00036182
1770.0 0.0003736
1790.0 0.00038873
1810.0 0.00040692
1830.0 0.00042818
1850.0 0.00044708
1870.0 0.00047064
1890.0 0.00049789
1910.0 0.0005297
1930.0 0.0005665
1950.0 0.00060779
1970.0 0.00065431
1990.0 0.0007071
2010.0 0.00076587
2030.0 0.00083066
2050.0 0.00090284
2070.0 0.00098284
2090.0 0.0010695
2110.0 0.001164
2130.0 0.0012673
2150.0 0.0013787
2170.0 0.0014975
2190.0 0.0016257
2210.0 0.0017626
2230.0 0.0019067
2250.0 0.0020585
2270.0 0.0022194
2290.0 0.0023863
2310.0 0.0025581
2330.0 0.0027365
2350.0 0.0029199
2370.0 0.0031048
2390.0 0.0032919
2410.0 0.0034809
2430.0 0.003666
2450.0 0.0038449
2470.0 0.0040167
2490.0 0.0041778
2510.0 0.0043256
2530.0 0.0044656
2550.0 0.0046079
2570.0 0.0047686
2590.0 0.0049703
2610.0 0.0052627
2630.0 0.0056852
2650.0 0.0062531
2670.0 0.0070123
2690.0 0.0080014
2710.0 0.0091564
2730.0 0.010433
2750.0 0.011874
2770.0 0.013354
2790.0 0.014762
2810.0 0.016102
2830.0 0.017367
2850.0 0.018408
2870.0 0.0193
2890.0 0.0201
2910.0 0.020805
2930.0 0.021422
2950.0 0.022027
2970.0 0.022627
2990.0 0.023198
3010.0 0.02376
3030.0 0.024343
3050.0 0.024923
3070.0 0.02546
3090.0 0.025993
3110.0 0.026493
3130.0 0.026916
3150.0 0.02726
3170.0 0.027529
3190.0 0.027708
3210.0 0.02784
3230.0 0.027983
3250.0 0.028207
3270.0 0.02856
3290.0 0.029088
3310.0 0.029838
3330.0 0.030769
3350.0 0.03182
3370.0 0.033003
3390.0 0.03425
3410.0 0.035422
3430.0 0.036504
3450.0 0.0374
3470.0 0.039889
3490.0 0.040164
3510.0 0.035478
3530.0 0.035673
3550.0 0.043853
3570.0 0.050534
3590.0 0.053363
3610.0 0.057444
3630.0 0.059524
3650.0 0.053769
3670.0 0.049183
3690.0 0.050887
3710.0 0.056245
3730.0 0.062543
3750.0 0.059994
3770.0 0.059883
3790.0 0.062447
3810.0 0.059253
3830.0 0.051982
3850.0 0.046533
3870.0 0.045801
3890.0 0.051511
3910.0 0.05585
3930.0 0.057463
3950.0 0.058641
3970.0 0.060248
3990.0 0.062619
4010.0 0.062571
4030.0 0.058359
4050.0 0.053293
4070.0 0.053185
4090.0 0.056568
4110.0 0.059732
4130.0 0.058366
4150.0 0.05687
4170.0 0.056396
4190.0 0.058473
4210.0 0.057609
4230.0 0.05299
4250.0 0.047303
4270.0 0.042846
4290.0 0.039232
4310.0 0.036345
4330.0 0.036654
4350.0 0.039736
4370.0 0.040852
4390.0 0.042291
4410.0 0.043421
4430.0 0.043666
4450.0 0.043035
4470.0 0.042173
4490.0 0.044242
4510.0 0.045407
4530.0 0.046329
4550.0 0.047133
4570.0 0.047913
4590.0 0.049029
4610.0 0.049654
4630.0 0.050943
4650.0 0.052776
4670.0 0.050901
4690.0 0.047449
4710.0 0.043433
4730.0 0.041848
4750.0 0.041098
4770.0 0.039869
4790.0 0.038325
4810.0 0.036785
4830.0 0.038229
4850.0 0.040709
4870.0 0.034725
4890.0 0.03404
4910.0 0.033658
4930.0 0.034558
4950.0 0.031762
4970.0 0.029048
4990.0 0.028322
5010.0 0.02637
5030.0 0.024649
5050.0 0.025034
5070.0 0.026977
5090.0 0.027964
5110.0 0.030909
5130.0 0.031825
5150.0 0.032923
5170.0 0.033955
5190.0 0.033048
5210.0 0.033744
5230.0 0.034412
5250.0 0.034621
5270.0 0.03535
5290.0 0.034771
5310.0 0.033968
5330.0 0.032182
5350.0 0.030432
5370.0 0.02865
5390.0 0.029272
5410.0 0.029536
5430.0 0.029737
5450.0 0.029861
5470.0 0.029465
5490.0 0.029058
5510.0 0.028502
5530.0 0.027776
5550.0 0.027636
5570.0 0.027984
5590.0 0.028386
5610.0 0.028437
5630.0 0.027841
5650.0 0.027528
5670.0 0.026714
5690.0 0.026005
5710.0 0.025104
5730.0 0.024874
5750.0 0.024647
5770.0 0.023961
5790.0 0.024036
5810.0 0.023861
5830.0 0.024414
5850.0 0.02475
5870.0 0.024935
5890.0 0.024582
5910.0 0.02456
5930.0 0.024285
5950.0 0.024424
5970.0 0.023969
5990.0 0.023502
6010.0 0.02377
6030.0 0.024144
6050.0 0.023719
6070.0 0.023425
6090.0 0.023208
6110.0 0.023452
6130.0 0.023423
6150.0 0.022778
6170.0 0.021259
6190.0 0.019668
6210.0 0.018755
6230.0 0.018515
6250.0 0.018656
6270.0 0.019222
6290.0 0.019895
6310.0 0.020903
6330.0 0.021504
6350.0 0.021684
6370.0 0.021789
6390.0 0.021444
6410.0 0.020947
6430.0 0.020281
6450.0 0.019854
6470.0 0.019688
6490.0 0.019651
6510.0 0.01954
6530.0 0.019521
6550.0 0.019207
6570.0 0.018642
6590.0 0.018539
6610.0 0.018262
6630.0 0.017821
6650.0 0.017378
6670.0 0.016861
6690.0 0.016531
6710.0 0.016038
6730.0 0.015836
6750.0 0.015572
6770.0 0.015295
6790.0 0.015382
6810.0 0.015174
6830.0 0.014863
6850.0 0.014695
6870.0 0.014435
6890.0 0.014253
6910.0 0.014137
6930.0 0.01393
6950.0 0.013818
6970.0 0.013573
6990.0 0.013577
7010.0 0.013417
7030.0 0.013423
7050.0 0.013203
7070.0 0.012999
7090.0 0.012835
7110.0 0.012404
7130.0 0.012357
7150.0 0.012518
7170.0 0.012682
7190.0 0.01269
7210.0 0.012815
7230.0 0.013061
7250.0 0.012982
7270.0 0.012945
7290.0 0.012806
7310.0 0.012485
7330.0 0.011886
7350.0 0.011811
7370.0 0.011765
7390.0 0.011544
7410.0 0.01144
7430.0 0.011339
7450.0 0.011189
7470.0 0.011127
7490.0 0.011043
7510.0 0.010582
7530.0 0.010559
7550.0 0.010684
7570.0 0.010126
7590.0 0.0095866
7610.0 0.009619
7630.0 0.0096769
7650.0 0.009573
7670.0 0.0097228
7690.0 0.0096094
7710.0 0.0098461
7730.0 0.010048
7750.0 0.010642
7770.0 0.011036
7790.0 0.01145
7810.0 0.011873
7830.0 0.01224
7850.0 0.012444
7870.0 0.012455
7890.0 0.012327
7910.0 0.012013
7930.0 0.011701
7950.0 0.011457
7970.0 0.011378
7990.0 0.011331
8010.0 0.010294
8030.0 0.010232
8050.0 0.01003
8070.0 0.0099339
8090.0 0.0096618
8110.0 0.0097362
8130.0 0.0098513
8150.0 0.010017
8170.0 0.0099151
8190.0 0.010061
8210.0 0.0099239
8230.0 0.0094141
8250.0 0.0092437
8270.0 0.0090829
8290.0 0.0089321
8310.0 0.0086125
8330.0 0.0087199
8350.0 0.0086753
8370.0 0.0086823
8390.0 0.0088389
8410.0 0.0087977
8430.0 0.008926
8450.0 0.009042
8470.0 0.0091053
8490.0 0.0092149
8510.0 0.0090567
8530.0 0.0087423
8550.0 0.0088151
8570.0 0.0088257
8590.0 0.0085599
8610.0 0.0087442
8630.0 0.0086261
8650.0 0.0084534
8670.0 0.0083981
8690.0 0.0083853
8710.0 0.0080503
8730.0 0.0081693
8750.0 0.0078946
8770.0 0.0078542
8790.0 0.0076357
8810.0 0.0075446
8830.0 0.0075348
8850.0 0.0071871
8870.0 0.0068215
8890.0 0.0067327
8910.0 0.0063428
8930.0 0.0058553
8950.0 0.0058538
8970.0 0.0056571
8990.0 0.0056174
9010.0 0.0055697
9030.0 0.0055317
9050.0 0.0054923
9070.0 0.0054526
9090.0 0.0054127
9110.0 0.0053723
9130.0 0.0053319
9150.0 0.0052919
9170.0 0.0052516
9190.0 0.0052112
9210.0 0.0051707
9230.0 0.0051301
9250.0 0.0050896
9270.0 0.0050489
9290.0 0.0050083
9310.0 0.0049678
9330.0 0.0049273
9350.0 0.0048868
9370.0 0.0048464
9390.0 0.0048062
9410.0 0.004766
9430.0 0.0047259
9450.0 0.004686
9470.0 0.004649
9490.0 0.0046108
9510.0 0.0045698
9530.0 0.0045293
9550.0 0.0044897
9570.0 0.0044505
9590.0 0.0044116
9610.0 0.0043731
9630.0 0.0043351
9650.0 0.0042972
9670.0 0.0042595
9690.0 0.0042222
9710.0 0.0041852
9730.0 0.0041484
9750.0 0.0041119
9770.0 0.004076
9790.0 0.0040401
9810.0 0.0040045
9830.0 0.0039687
9850.0 0.0039281
9870.0 0.0038926
9890.0 0.0038615
9910.0 0.0038298
9930.0 0.0037914
9950.0 0.0037583
9970.0 0.0037283
9990.0 0.0036974
10010.0 0.0036664
10030.0 0.0036352
10050.0 0.0036043
10070.0 0.0035739
10090.0 0.0035439
10110.0 0.0035134
10130.0 0.0034831
10150.0 0.003454
10170.0 0.0034251
10190.0 0.0033959
10210.0 0.0033678
10230.0 0.0033402
10250.0 0.0033123
10270.0 0.003285
10290.0 0.0032585
10310.0 0.0032319
10330.0 0.0032053
10350.0 0.0031796
10370.0 0.0031544
10390.0 0.003129
10410.0 0.0031039
10430.0 0.0030796
10450.0 0.0030558
10470.0 0.003032
10490.0 0.0030089
10510.0 0.0029862
10530.0 0.002963
10550.0 0.0029405
10570.0 0.0029189
10590.0 0.0028972
10610.0 0.0028755
10630.0 0.0028547
10650.0 0.0028342
10670.0 0.0028134
10690.0 0.0027932
10710.0 0.0027736
10730.0 0.002754
10750.0 0.0027342
10770.0 0.0027156
10790.0 0.0026971
10810.0 0.0026784
10830.0 0.0026603
10850.0 0.002643
10870.0 0.0026251
10890.0 0.0026076
10910.0 0.0025911
10930.0 0.0025749
10950.0 0.0025588
10970.0 0.0025437
10990.0 0.0025297
11010.0 0.0026643
11030.0 0.002654
11050.0 0.0026439
11070.0 0.0026335
11090.0 0.002622
11110.0 0.0026102
11130.0 0.0025977
11150.0 0.0025839
11170.0 0.0025693
11190.0 0.0025547
11210.0 0.0025394
11230.0 0.0025233
11250.0 0.0025077
11270.0 0.0024924
11290.0 0.0024768
11310.0 0.0024617
11330.0 0.0024481
11350.0 0.0024348
11370.0 0.0024219
11390.0 0.0024103
11410.0 0.0023995
11430.0 0.0023887
11450.0 0.0023785
11470.0 0.002369
11490.0 0.0023594
11510.0 0.0023494
11530.0 0.0023397
11550.0 0.0023299
11570.0 0.0023192
11590.0 0.0023081
11610.0 0.0022972
11630.0 0.0022853
11650.0 0.0022727
11670.0 0.0022607
11690.0 0.0022485
11710.0 0.0022358
11730.0 0.0022233
11750.0 0.0022117
11770.0 0.0021997
11790.0 0.0021878
11810.0 0.0021767
11830.0 0.0021659
11850.0 0.0021546
11870.0 0.0021441
11890.0 0.0021345
11910.0 0.0021248
11930.0 0.0021155
11950.0 0.0021074
11970.0 0.0020999
11990.0 0.0020928
12010.0 0.002087
12030.0 0.0020826
12050.0 0.002079
12070.0 0.0020767
12090.0 0.0020762
12110.0 0.002077
12130.0 0.0020789
12150.0 0.0020823
12170.0 0.0020868
12190.0 0.0020924
12210.0 0.0020989
12230.0 0.0021062
12250.0 0.002114
12270.0 0.0021224
12290.0 0.0021309
12310.0 0.0021393
12330.0 0.0021479
12350.0 0.0021561
12370.0 0.0021639
12390.0 0.0021712
12410.0 0.0021779
12430.0 0.0021836
12450.0 0.0021884
12470.0 0.002192
12490.0 0.0021942
12510.0 0.0021951
12530.0 0.0021944
12550.0 0.0021919
12570.0 0.0021878
12590.0 0.0021822
12610.0 0.0021744
12630.0 0.0021648
12650.0 0.0021545
12670.0 0.0021423
12690.0 0.0021285
12710.0 0.0021141
12730.0 0.0020991
12750.0 0.0020822
12770.0 0.0020651
12790.0 0.0020485
12810.0 0.0020311
12830.0 0.0020133
12850.0 0.0019967
12870.0 0.0019806
12890.0 0.0019642
12910.0 0.0019489
12930.0 0.0019348
12950.0 0.0019208
12970.0 0.0019073
12990.0 0.0018954
13010.0 0.0018842
13030.0 0.0018732
13050.0 0.001863
13070.0 0.0018538
13090.0 0.0018446
13110.0 0.0018357
13130.0 0.0018274
13150.0 0.0018195
13170.0 0.0018112
13190.0 0.0018035
13210.0 0.0017963
13230.0 0.0017889
13250.0 0.0017815
13270.0 0.0017745
13290.0 0.0017675
13310.0 0.00176
13330.0 0.0017526
13350.0 0.0017452
13370.0 0.0017372
13390.0 0.0017287
13410.0 0.0017204
13430.0 0.0017114
13450.0 0.0017017
13470.0 0.0016918
13490.0 0.0016818
13510.0 0.0016706
13530.0 0.0016591
13550.0 0.0016477
13570.0 0.0016358
13590.0 0.0016232
13610.0 0.0016107
13630.0 0.0015983
13650.0 0.0015851
13670.0 0.0015717
13690.0 0.0015587
13710.0 0.0015452
13730.0 0.001531
13750.0 0.0015174
13770.0 0.0015038
13790.0 0.0014897
13810.0 0.0014756
13830.0 0.0014621
13850.0 0.0014481
13870.0 0.001434
13890.0 0.0014203
13910.0 0.0014068
13930.0 0.001393
13950.0 0.0013793
13970.0 0.0013664
13990.0 0.0013533
14010.0 0.0013402
14030.0 0.0013276
14050.0 0.0013153
14070.0 0.0013025
14090.0 0.0012902
14110.0 0.0012782
14130.0 0.0012662
14150.0 0.001254
14170.0 0.0012424
14190.0 0.0012309
14210.0 0.0012191
14230.0 0.0012077
14250.0 0.0011966
14270.0 0.0011853
14290.0 0.0011741
14310.0 0.0011635
14330.0 0.0011531
14350.0 0.0011426
14370.0 0.0011326
14390.0 0.0011232
14410.0 0.0011137
14430.0 0.0011044
14450.0 0.0010957
14470.0 0.0010871
14490.0 0.0010785
14510.0 0.0010703
14530.0 0.0010625
14550.0 0.0010546
14570.0 0.0010467
14590.0 0.0010392
14610.0 0.0010317
14630.0 0.001024
14650.0 0.0010165
14670.0 0.0010092
14690.0 0.0010018
14710.0 0.00099437
14730.0 0.00098729
14750.0 0.0009802
14770.0 0.00097308
14790.0 0.00096618
14810.0 0.00095948
14830.0 0.00095263
14850.0 0.00094596
14870.0 0.00093953
14890.0 0.00093313
14910.0 0.00092672
14930.0 0.00092055
14950.0 0.00091457
14970.0 0.0009086
14990.0 0.00090284
15010.0 0.00089736
15030.0 0.00089202
15050.0 0.00088674
15070.0 0.00088174
15090.0 0.00087686
15110.0 0.00087197
15130.0 0.00086716
15150.0 0.00086245
15170.0 0.00085769
15190.0 0.00085292
15210.0 0.00084822
15230.0 0.00084355
15250.0 0.0008388
15270.0 0.00083409
15290.0 0.00082949
15310.0 0.00082484
15330.0 0.00082017
15350.0 0.00081559
15370.0 0.00081102
15390.0 0.00080637
15410.0 0.0008018
15430.0 0.00079729
15450.0 0.00079275
15470.0 0.00078819
15490.0 0.00078374
15510.0 0.0007793
15530.0 0.00077482
15550.0 0.00077039
15570.0 0.00076604
15590.0 0.00076162
15610.0 0.00075721
15630.0 0.00075291
15650.0 0.00074861
15670.0 0.00074428
15690.0 0.00074002
15710.0 0.00073583
15730.0 0.00073159
15750.0 0.00072737
15770.0 0.00072323
15790.0 0.00071911
15810.0 0.00071493
15830.0 0.00071084
15850.0 0.00070682
15870.0 0.00070277
15890.0 0.00069874
15910.0 0.0006948
15930.0 0.00069085
15950.0 0.00068687
15970.0 0.00068297
15990.0 0.00067913
16010.0 0.00067526
16030.0 0.00067139
16050.0 0.00066765
16070.0 0.0006639
16090.0 0.00066013
16110.0 0.00065644
16130.0 0.0006528
16150.0 0.00064909
16170.0 0.00064544
16190.0 0.00064188
16210.0 0.00063832
16230.0 0.00063474
16250.0 0.00063124
16270.0 0.0006278
16290.0 0.00062431
16310.0 0.00062087
16330.0 0.00061751
16350.0 0.00061413
16370.0 0.00061072
16390.0 0.00060743
16410.0 0.00060417
16430.0 0.00060088
16450.0 0.00059764
16470.0 0.00059448
16490.0 0.00059129
16510.0 0.0005881
16530.0 0.00058499
16550.0 0.00058192
16570.0 0.0005788
16590.0 0.00057574
16610.0 0.00057277
16630.0 0.00056977
16650.0 0.00056678
16670.0 0.00056388
16690.0 0.00056099
16710.0 0.00055805
16730.0 0.00055518
16750.0 0.00055238
16770.0 0.00054956
16790.0 0.00054674
16810.0 0.00054402
16830.0 0.0005413
16850.0 0.00053856
16870.0 0.00053588
16890.0 0.00053326
16910.0 0.0005306
16930.0 0.00052794
16950.0 0.00052539
16970.0 0.00052284
16990.0 0.00052027
17010.0 0.00051776
17030.0 0.00051531
17050.0 0.00051281
17070.0 0.00051034
17090.0 0.00050794
17110.0 0.00050555
17130.0 0.00050311
17150.0 0.00050076
17170.0 0.00049846
17190.0 0.00049612
17210.0 0.00049381
17230.0 0.00049158
17250.0 0.00048933
17270.0 0.00048705
17290.0 0.00048485
17310.0 0.00048268
17330.0 0.00048048
17350.0 0.00047829
17370.0 0.00047621
17390.0 0.0004741
17410.0 0.00047197
17430.0 0.00046991
17450.0 0.00046789
17470.0 0.0004658
17490.0 0.00046376
17510.0 0.00046179
17530.0 0.0004598
17550.0 0.0004578
17570.0 0.00045587
17590.0 0.00045397
17610.0 0.00045202
17630.0 0.00045011
17650.0 0.00044825
17670.0 0.00044638
17690.0 0.00044447
17710.0 0.00044266
17730.0 0.00044086
17750.0 0.00043903
17770.0 0.00043723
17790.0 0.0004355
17810.0 0.00043371
17830.0 0.00043193
17850.0 0.00043022
17870.0 0.00042851
17890.0 0.00042676
17910.0 0.00042505
17930.0 0.00042342
17950.0 0.00042174
17970.0 0.00042006
17990.0 0.00041845
18010.0 0.00041684
18030.0 0.00041516
18050.0 0.00041356
18070.0 0.00041199
18090.0 0.00041039
18110.0 0.00040878
18130.0 0.00040726
18150.0 0.00040572
18170.0 0.00040415
18190.0 0.00040262
18210.0 0.00040113
18230.0 0.00039959
18250.0 0.00039805
18270.0 0.00039659
18290.0 0.00039512
18310.0 0.00039362
18330.0 0.00039216
18350.0 0.00039074
18370.0 0.00038927
18390.0 0.00038781
18410.0 0.0003864
18430.0 0.00038498
18450.0 0.00038351
18470.0 0.00038211
18490.0 0.00038074
18510.0 0.00037933
18530.0 0.00037793
18550.0 0.00037659
18570.0 0.00037521
18590.0 0.0003738
18610.0 0.00037244
18630.0 0.00037111
18650.0 0.00036973
18670.0 0.00036836
18690.0 0.00036706
18710.0 0.00036572
18730.0 0.00036437
18750.0 0.00036306
18770.0 0.00036177
18790.0 0.0003604
18810.0 0.00035907
18830.0 0.00035779
18850.0 0.00035648
18870.0 0.00035515
18890.0 0.00035387
18910.0 0.00035261
18930.0 0.00035128
18950.0 0.00034999
18970.0 0.00034873
18990.0 0.00034744
19010.0 0.0003461
19030.0 0.00034485
19050.0 0.0003436
19070.0 0.0003423
19090.0 0.00034102
19110.0 0.00033979
19130.0 0.0003385
19150.0 0.0003372
19170.0 0.00033596
19190.0 0.0003347
19210.0 0.0003334
19230.0 0.00033212
19250.0 0.0003309
19270.0 0.00032963
19290.0 0.00032835
19310.0 0.00032711
19330.0 0.00032587
19350.0 0.00032455
19370.0 0.00032329
19390.0 0.00032206
19410.0 0.00032078
19430.0 0.00031948
19450.0 0.00031826
19470.0 0.000317
19490.0 0.00031571
19510.0 0.00031445
19530.0 0.00031321
19550.0 0.00031191
19570.0 0.0003106
19590.0 0.00030936
19610.0 0.0003081
19630.0 0.00030679
19650.0 0.00030553
19670.0 0.00030429
19690.0 0.00030298
19710.0 0.00030167
19730.0 0.00030042
19750.0 0.00029913
19770.0 0.00029779
19790.0 0.00029651
19810.0 0.00029525
19830.0 0.00029393
19850.0 0.00029262
19870.0 0.00029137
19890.0 0.00029006
19910.0 0.00028872
19930.0 0.00028744
19950.0 0.00028617
19970.0 0.00028487
19990.0 0.00028359
20010.0 0.00028238
20030.0 0.00028115
20050.0 0.0002799
20070.0 0.00027869
20090.0 0.00027749
20110.0 0.0002762
20130.0 0.00027495
20150.0 0.00027372
20170.0 0.00027245
20190.0 0.00027114
20210.0 0.00026989
20230.0 0.00026864
20250.0 0.00026734
20270.0 0.00026608
20290.0 0.00026488
20310.0 0.00026366
20330.0 0.00026244
20350.0 0.00026134
20370.0 0.00026026
20390.0 0.0002592
20410.0 0.00025821
20430.0 0.00025731
20450.0 0.00025641
20470.0 0.00025558
20490.0 0.00025484
20510.0 0.00025416
20530.0 0.00025353
20550.0 0.00025299
20570.0 0.00025255
20590.0 0.00025216
20610.0 0.00025185
20630.0 0.00025163
20650.0 0.00025149
20670.0 0.00025142
20690.0 0.00025143
20710.0 0.00025151
20730.0 0.00025165
20750.0 0.00025185
20770.0 0.00025206
20790.0 0.00025231
20810.0 0.00025257
20830.0 0.0002528
20850.0 0.00025301
20870.0 0.00025319
20890.0 0.00025329
20910.0 0.00025331
20930.0 0.00025325
20950.0 0.00025308
20970.0 0.00025279
20990.0 0.00025239
21010.0 0.00025186
21030.0 0.00025119
21050.0 0.00025042
21070.0 0.00024952
21090.0 0.00024848
21110.0 0.00024737
21130.0 0.00024619
21150.0 0.00024489
21170.0 0.00024353
21190.0 0.00024217
21210.0 0.00024072
21230.0 0.00023921
21250.0 0.00023775
21270.0 0.00023628
21290.0 0.00023477
21310.0 0.00023328
21330.0 0.00023184
21350.0 0.00023037
21370.0 0.00022889
21390.0 0.00022745
21410.0 0.00022602
21430.0 0.0002245
21450.0 0.00022301
21470.0 0.00022154
21490.0 0.00022001
21510.0 0.00021843
21530.0 0.00021688
21550.0 0.00021529
21570.0 0.00021362
21590.0 0.00021195
21610.0 0.00021029
21630.0 0.00020856
21650.0 0.00020678
21670.0 0.00020509
21690.0 0.00020337
21710.0 0.0002016
21730.0 0.00019988
21750.0 0.00019822
21770.0 0.00019648
21790.0 0.00019478
21810.0 0.00019315
21830.0 0.00019153
21850.0 0.00018989
21870.0 0.00018831
21890.0 0.00018679
21910.0 0.00018524
21930.0 0.00018371
21950.0 0.00018223
21970.0 0.00018075
21990.0 0.00017921
22010.0 0.00017773
22030.0 0.00017625
22050.0 0.00017473
22070.0 0.0001732
22090.0 0.0001717
22110.0 0.00017015
22130.0 0.00016855
22150.0 0.00016696
22170.0 0.00016537
22190.0 0.0001637
22210.0 0.00016201
22230.0 0.00016037
22250.0 0.00015868
22270.0 0.00015695
22290.0 0.00015525
22310.0 0.00015357
22330.0 0.00015182
22350.0 0.00015009
22370.0 0.00014841
22390.0 0.00014672
22410.0 0.00014499
22430.0 0.00014336
22450.0 0.00014175
22470.0 0.00014013
22490.0 0.00013855
22510.0 0.00013704
22530.0 0.00013552
22550.0 0.00013403
22570.0 0.00013262
22590.0 0.00013125
22610.0 0.00012989
22630.0 0.00012858
22650.0 0.00012734
22670.0 0.00012611
22690.0 0.00012491
22710.0 0.00012377
22730.0 0.00012266
22750.0 0.00012154
22770.0 0.00012047
22790.0 0.00011946
22810.0 0.00011845
22830.0 0.00011747
22850.0 0.00011654
22870.0 0.00011563
22890.0 0.00011474
22910.0 0.0001139
22930.0 0.0001131
22950.0 0.00011233
22970.0 0.00011159
22990.0 0.00011092
23010.0 0.00011029
23030.0 0.00010971
23050.0 0.00010917
23070.0 0.0001087
23090.0 0.00010827
23110.0 0.0001079
23130.0 0.00010758
23150.0 0.00010733
23170.0 0.00010713
23190.0 0.00010698
23210.0 0.00010688
23230.0 0.00010683
23250.0 0.00010682
23270.0 0.00010684
23290.0 0.00010689
23310.0 0.00010697
23330.0 0.00010704
23350.0 0.00010711
23370.0 0.00010717
23390.0 0.00010721
23410.0 0.0001072
23430.0 0.00010717
23450.0 0.00010702
23470.0 0.0001068
23490.0 0.00010654
23510.0 0.00010625
23530.0 0.00010593
23550.0 0.00010559
