#lamb flux
1010.0 3.5233e-08
1030.0 3.8625e-08
1050.0 4.2526e-08
1070.0 4.6918e-08
1090.0 5.1907e-08
1110.0 5.7023e-08
1130.0 6.2173e-08
1150.0 6.7567e-08
1170.0 7.3131e-08
1190.0 7.8408e-08
1210.0 8.3755e-08
1230.0 8.9281e-08
1250.0 9.4694e-08
1270.0 9.9952e-08
1290.0 1.0551e-07
1310.0 1.1106e-07
1330.0 1.1638e-07
1350.0 1.2176e-07
1370.0 1.2732e-07
1390.0 1.3274e-07
1410.0 1.38e-07
1430.0 1.4349e-07
1450.0 1.4899e-07
1470.0 1.5429e-07
1490.0 1.5966e-07
1510.0 1.6533e-07
1530.0 1.7069e-07
1550.0 1.7599e-07
1570.0 1.8146e-07
1590.0 1.8694e-07
1610.0 1.9217e-07
1630.0 1.9757e-07
1650.0 2.031e-07
1670.0 2.0844e-07
1690.0 2.1371e-07
1710.0 2.1918e-07
1730.0 2.2468e-07
1750.0 2.2984e-07
1770.0 2.3514e-07
1790.0 2.4054e-07
1810.0 2.4575e-07
1830.0 2.5085e-07
1850.0 2.5626e-07
1870.0 2.615e-07
1890.0 2.6654e-07
1910.0 2.7166e-07
1930.0 2.7688e-07
1950.0 2.8182e-07
1970.0 2.8666e-07
1990.0 2.9164e-07
2010.0 2.965e-07
2030.0 3.011e-07
2050.0 3.0581e-07
2070.0 3.1058e-07
2090.0 3.1497e-07
2110.0 3.1926e-07
2130.0 3.2362e-07
2150.0 3.2779e-07
2170.0 3.3163e-07
2190.0 3.3554e-07
2210.0 3.3937e-07
2230.0 3.4287e-07
2250.0 3.4622e-07
2270.0 3.4964e-07
2290.0 3.5276e-07
2310.0 3.5553e-07
2330.0 3.5833e-07
2350.0 3.611e-07
2370.0 3.6366e-07
2390.0 3.6647e-07
2410.0 3.7005e-07
2430.0 3.7436e-07
2450.0 3.7985e-07
2470.0 3.8747e-07
2490.0 3.9767e-07
2510.0 4.0952e-07
2530.0 4.2438e-07
2550.0 4.4387e-07
2570.0 4.6898e-07
2590.0 5.0246e-07
2610.0 5.5358e-07
2630.0 6.2622e-07
2650.0 7.194e-07
2670.0 8.3733e-07
2690.0 9.7862e-07
2710.0 1.1244e-06
2730.0 1.2631e-06
2750.0 1.3945e-06
2770.0 1.5023e-06
2790.0 1.581e-06
2810.0 1.637e-06
2830.0 1.6743e-06
2850.0 1.6921e-06
2870.0 1.6989e-06
2890.0 1.6994e-06
2910.0 1.6955e-06
2930.0 1.6887e-06
2950.0 1.6815e-06
2970.0 1.6742e-06
2990.0 1.6666e-06
3010.0 5.3169e-05
3030.0 5.2951e-05
3050.0 5.2736e-05
3070.0 5.2491e-05
3090.0 5.2219e-05
3110.0 5.1864e-05
3130.0 5.1364e-05
3150.0 5.0669e-05
3170.0 4.9683e-05
3190.0 4.8421e-05
3210.0 4.6967e-05
3230.0 4.5381e-05
3250.0 4.376e-05
3270.0 4.2544e-05
3290.0 4.1618e-05
3310.0 4.1403e-05
3330.0 4.1663e-05
3350.0 4.2388e-05
3370.0 4.3571e-05
3390.0 4.5154e-05
3410.0 4.6927e-05
3430.0 4.8957e-05
3450.0 5.1324e-05
3470.0 5.394e-05
3490.0 5.6753e-05
3510.0 5.9962e-05
3530.0 6.3473e-05
3550.0 6.7241e-05
3570.0 7.1404e-05
3590.0 7.6056e-05
3610.0 8.1245e-05
3630.0 8.6405e-05
3650.0 9.1876e-05
3670.0 9.6804e-05
3690.0 0.00010047
3710.0 0.0001023
3730.0 0.0001012
3750.0 9.7235e-05
3770.0 9.9464e-05
3790.0 9.7173e-05
3810.0 7.4913e-05
3830.0 7.1965e-05
3850.0 0.00010607
3870.0 0.00010236
3890.0 7.7452e-05
3910.0 7.5289e-05
3930.0 9.6144e-05
3950.0 0.00011505
3970.0 0.00013077
3990.0 8.9958e-05
4010.0 0.00016833
4030.0 0.00016239
4050.0 0.00017134
4070.0 0.00019429
4090.0 0.00018405
4110.0 0.00016232
4130.0 0.0002001
4150.0 0.00026828
4170.0 0.00021234
4190.0 0.00018724
4210.0 0.0002112
4230.0 0.00026205
4250.0 0.00031335
4270.0 0.00034072
4290.0 0.0003026
4310.0 0.00027943
4330.0 0.00027653
4350.0 0.00035464
4370.0 0.00043167
4390.0 0.0003425
4410.0 0.00019044
4430.0 0.00013446
4450.0 0.00012563
4470.0 7.7485e-05
4490.0 0.0001373
4510.0 0.00029611
4530.0 0.00036133
4550.0 0.00034055
4570.0 0.0003046
4590.0 0.00032587
4610.0 0.0006486
4630.0 0.00091064
4650.0 0.00085821
4670.0 0.00075378
4690.0 0.00077515
4710.0 0.0008115
4730.0 0.00066081
4750.0 0.00042505
4770.0 0.00029127
4790.0 0.00032607
4810.0 0.00034389
4830.0 0.00034089
4850.0 0.00037045
4870.0 0.00049083
4890.0 0.0005687
4910.0 0.00043963
4930.0 0.00042729
4950.0 0.00049323
4970.0 0.00065909
4990.0 0.00088935
5010.0 0.0010265
5030.0 0.00081593
5050.0 0.00049538
5070.0 0.00035322
5090.0 0.00026892
5110.0 0.00025077
5130.0 0.00030103
5150.0 0.00028952
5170.0 0.00027143
5190.0 0.00024096
5210.0 0.00026838
5230.0 0.00033683
5250.0 0.00039462
5270.0 0.00036289
5290.0 0.00039177
5310.0 0.00053003
5330.0 0.00056587
5350.0 0.00055729
5370.0 0.00062961
5390.0 0.0007875
5410.0 0.00066913
5430.0 0.00050751
5450.0 0.00051459
5470.0 0.00060321
5490.0 0.00075845
5510.0 0.00092447
5530.0 0.0010724
5550.0 0.0009646
5570.0 0.00086327
5590.0 0.00070699
5610.0 0.00072174
5630.0 0.00081634
5650.0 0.0007536
5670.0 0.00069313
5690.0 0.00055735
5710.0 0.0005746
5730.0 0.00056056
5750.0 0.00029815
5770.0 0.00021272
5790.0 0.00026606
5810.0 0.00028086
5830.0 0.00044374
5850.0 0.00058141
5870.0 0.00062152
5890.0 0.00058891
5910.0 0.00057179
5930.0 0.00055208
5950.0 0.00057098
5970.0 0.00071194
5990.0 0.00058046
6010.0 0.00044365
6030.0 0.00036039
6050.0 0.00032202
6070.0 0.0003892
6090.0 0.00044022
6110.0 0.00044639
6130.0 0.00040712
6150.0 0.00031853
6170.0 0.00024839
6190.0 0.00030752
6210.0 0.00049196
6230.0 0.00072778
6250.0 0.0007805
6270.0 0.00059164
6290.0 0.00050678
6310.0 0.00038615
6330.0 0.00028063
6350.0 0.00027769
6370.0 0.00029165
6390.0 0.00035092
6410.0 0.00045427
6430.0 0.00054815
6450.0 0.00067676
6470.0 0.00071301
6490.0 0.0008556
6510.0 0.00096043
6530.0 0.00097859
6550.0 0.00090192
6570.0 0.00072705
6590.0 0.00069829
6610.0 0.00057728
6630.0 0.00060441
6650.0 0.00058633
6670.0 0.00051185
6690.0 0.00039586
6710.0 0.00038779
6730.0 0.00016731
6750.0 0.00022743
6770.0 0.00036299
6790.0 0.00048495
6810.0 0.00034291
6830.0 0.00035007
6850.0 0.00029059
6870.0 0.00027386
6890.0 0.00022975
6910.0 0.00027939
6930.0 0.00026271
6950.0 0.00031788
6970.0 0.00032801
6990.0 0.00036318
7010.0 0.00035234
7030.0 0.00040277
7050.0 0.00034626
7070.0 0.00028716
7090.0 0.00030765
7110.0 0.0003243
7130.0 0.00037384
7150.0 0.00042659
7170.0 0.00047782
7190.0 0.00050566
7210.0 0.00044577
7230.0 0.00045041
7250.0 0.000485
7270.0 0.00052352
7290.0 0.00064314
7310.0 0.00067262
7330.0 0.00062245
7350.0 0.00055607
7370.0 0.00040602
7390.0 0.00042395
7410.0 0.00052824
7430.0 0.00060249
7450.0 0.00064807
7470.0 0.00059248
7490.0 0.00047803
7510.0 0.00079125
7530.0 0.00071179
7550.0 0.00066902
7570.0 0.00044786
7590.0 0.00018886
7610.0 0.00012945
7630.0 0.00020456
7650.0 0.00027884
7670.0 0.00045404
7690.0 0.00050815
7710.0 0.00045283
7730.0 0.0004449
7750.0 0.00059121
7770.0 0.00060713
7790.0 0.00055631
7810.0 0.00044689
7830.0 0.00048469
7850.0 0.00053526
7870.0 0.00052626
7890.0 0.00040999
7910.0 0.00027029
7930.0 0.00028053
7950.0 0.00025274
7970.0 0.0002112
7990.0 0.00018892
8010.0 0.00012847
8030.0 0.00011877
8050.0 0.00012796
8070.0 0.00014212
8090.0 0.00017074
8110.0 0.00015989
8130.0 9.8255e-05
8150.0 0.00010032
8170.0 5.9399e-05
8190.0 3.8902e-05
8210.0 8.9607e-05
8230.0 0.00010708
8250.0 4.628e-05
8270.0 3.7087e-05
8290.0 6.4268e-05
8310.0 5.5174e-05
8330.0 3.3765e-05
8350.0 2.7148e-05
8370.0 7.6965e-06
8390.0 2.9236e-05
8410.0 3.4243e-05
8430.0 4.2636e-05
8450.0 4.7887e-05
8470.0 7.8171e-05
8490.0 6.4022e-05
8510.0 4.9919e-05
8530.0 2.6173e-05
8550.0 8.6502e-05
8570.0 0.00013415
8590.0 9.538e-05
8610.0 0.00014164
8630.0 0.000154
8650.0 8.5345e-05
8670.0 0.00012317
8690.0 0.00018889
8710.0 0.00016298
8730.0 0.00017513
8750.0 0.00013862
8770.0 0.00012375
8790.0 0.00013709
8810.0 0.00014794
8830.0 8.358e-05
8850.0 3.8224e-05
8870.0 2.7702e-05
8890.0 6.4618e-05
8910.0 0.00010061
8930.0 0.00013189
8950.0 0.00014824
8970.0 0.00014321
8990.0 0.00010905
9010.0 8.6182e-05
9030.0 6.5948e-05
9050.0 6.8757e-05
9070.0 7.1584e-05
9090.0 7.386e-05
9110.0 7.658e-05
9130.0 7.8546e-05
9150.0 7.9956e-05
9170.0 8.1456e-05
9190.0 8.3062e-05
9210.0 8.4747e-05
9230.0 8.653e-05
9250.0 8.8332e-05
9270.0 9.0195e-05
9290.0 9.2106e-05
9310.0 9.4016e-05
9330.0 9.5955e-05
9350.0 9.7958e-05
9370.0 9.9975e-05
9390.0 0.000102
9410.0 0.00010408
9430.0 0.00010621
9450.0 0.00010832
9470.0 0.00011048
9490.0 0.00011269
9510.0 0.00011491
9530.0 0.00011714
9550.0 0.00011945
9570.0 0.00012179
9590.0 0.00012413
9610.0 0.00012651
9630.0 0.00012894
9650.0 0.0001314
9670.0 0.00013385
9690.0 0.00013636
9710.0 0.00013892
9730.0 0.00014147
9750.0 0.00014406
9770.0 0.00014673
9790.0 0.00014938
9810.0 0.00015205
9830.0 0.00015478
9850.0 0.00015754
9870.0 0.00016028
9890.0 0.00016307
9910.0 0.00016591
9930.0 0.00016875
9950.0 0.0001716
9970.0 0.0001745
9990.0 0.00017744
10010.0 0.00015982
10030.0 0.0001624
10050.0 0.00016502
10070.0 0.00016761
10090.0 0.00017023
10110.0 0.0001729
10130.0 0.00017557
10150.0 0.00017822
10170.0 0.00018089
10190.0 0.0001836
10210.0 0.00018627
10230.0 0.00018893
10250.0 0.00019163
10270.0 0.00019432
10290.0 0.00019698
10310.0 0.00019966
10330.0 0.00020237
10350.0 0.00020503
10370.0 0.00020767
10390.0 0.00021034
10410.0 0.00021299
10430.0 0.00021559
10450.0 0.0002182
10470.0 0.00022082
10490.0 0.00022338
10510.0 0.00022592
10530.0 0.00022849
10550.0 0.00023101
10570.0 0.00023347
10590.0 0.00023594
10610.0 0.00023839
10630.0 0.00024077
10650.0 0.00024313
10670.0 0.00024549
10690.0 0.0002478
10710.0 0.00025005
10730.0 0.00025228
10750.0 0.00025451
10770.0 0.00025664
10790.0 0.00025874
10810.0 0.00026082
10830.0 0.00026282
10850.0 0.00026473
10870.0 0.00026657
10890.0 0.00026824
10910.0 0.0002696
10930.0 0.00027054
10950.0 0.00027083
10970.0 0.00027027
10990.0 0.00026876
11010.0 0.00027263
11030.0 0.00026852
11050.0 0.00026336
11070.0 0.00025708
11090.0 0.00024948
11110.0 0.00024158
11130.0 0.00023334
11150.0 0.00022448
11170.0 0.00021539
11190.0 0.0002066
11210.0 0.00019759
11230.0 0.00018841
11250.0 0.0001797
11270.0 0.00017138
11290.0 0.0001631
11310.0 0.00015529
11330.0 0.00014842
11350.0 0.00014192
11370.0 0.0001359
11390.0 0.00013065
11410.0 0.00012599
11430.0 0.00012161
11450.0 0.00011775
11470.0 0.00011432
11490.0 0.00011105
11510.0 0.00010785
11530.0 0.00010482
11550.0 0.00010179
11570.0 9.8585e-05
11590.0 9.5284e-05
11610.0 9.1953e-05
11630.0 8.8381e-05
11650.0 8.4612e-05
11670.0 8.0926e-05
11690.0 7.7221e-05
11710.0 7.3431e-05
11730.0 6.9772e-05
11750.0 6.6381e-05
11770.0 6.3059e-05
11790.0 5.9934e-05
11810.0 5.7155e-05
11830.0 5.4639e-05
11850.0 5.2294e-05
11870.0 5.0283e-05
11890.0 4.8562e-05
11910.0 4.7007e-05
11930.0 4.5626e-05
11950.0 4.4428e-05
11970.0 4.3325e-05
11990.0 4.2263e-05
12010.0 4.1264e-05
12030.0 4.0296e-05
12050.0 3.9305e-05
12070.0 3.8287e-05
12090.0 3.7303e-05
12110.0 3.6307e-05
12130.0 3.5302e-05
12150.0 3.4348e-05
12170.0 3.3472e-05
12190.0 3.2648e-05
12210.0 3.1953e-05
12230.0 3.142e-05
12250.0 3.1049e-05
12270.0 3.0872e-05
12290.0 3.0902e-05
12310.0 3.1122e-05
12330.0 3.1573e-05
12350.0 3.2232e-05
12370.0 3.3042e-05
12390.0 3.4027e-05
12410.0 3.5233e-05
12430.0 3.6473e-05
12450.0 3.7769e-05
12470.0 3.916e-05
12490.0 4.0559e-05
12510.0 4.1855e-05
12530.0 4.3141e-05
12550.0 4.4371e-05
12570.0 4.5429e-05
12590.0 4.6332e-05
12610.0 4.7115e-05
12630.0 4.7701e-05
12650.0 4.8046e-05
12670.0 4.8213e-05
12690.0 4.8176e-05
12710.0 4.7926e-05
12730.0 4.749e-05
12750.0 4.6854e-05
12770.0 4.6047e-05
12790.0 4.5108e-05
12810.0 4.4025e-05
12830.0 4.2806e-05
12850.0 4.1544e-05
12870.0 4.0226e-05
12890.0 3.8822e-05
12910.0 3.7406e-05
12930.0 3.6015e-05
12950.0 3.4579e-05
12970.0 3.3126e-05
12990.0 3.175e-05
13010.0 3.0394e-05
13030.0 2.9027e-05
13050.0 2.7711e-05
13070.0 2.6471e-05
13090.0 2.5225e-05
13110.0 2.4013e-05
13130.0 2.2885e-05
13150.0 2.1807e-05
13170.0 2.0744e-05
13190.0 1.9782e-05
13210.0 1.892e-05
13230.0 1.8116e-05
13250.0 1.7402e-05
13270.0 1.6811e-05
13290.0 1.6319e-05
13310.0 1.5931e-05
13330.0 1.5677e-05
13350.0 1.5547e-05
13370.0 1.5544e-05
13390.0 1.5678e-05
13410.0 1.5918e-05
13430.0 1.6274e-05
13450.0 1.675e-05
13470.0 1.7303e-05
13490.0 1.7909e-05
13510.0 1.8616e-05
13530.0 1.935e-05
13550.0 2.0067e-05
13570.0 2.0789e-05
13590.0 2.1509e-05
13610.0 2.2162e-05
13630.0 2.2741e-05
13650.0 2.3284e-05
13670.0 2.3744e-05
13690.0 2.4108e-05
13710.0 2.4399e-05
13730.0 2.4618e-05
13750.0 2.4738e-05
13770.0 2.4783e-05
13790.0 2.4757e-05
13810.0 2.466e-05
13830.0 2.4504e-05
13850.0 2.4287e-05
13870.0 2.401e-05
13890.0 2.3691e-05
13910.0 2.3331e-05
13930.0 2.2917e-05
13950.0 2.2468e-05
13970.0 2.2011e-05
13990.0 2.1517e-05
14010.0 2.0997e-05
14030.0 2.0481e-05
14050.0 1.9964e-05
14070.0 1.9423e-05
14090.0 1.8906e-05
14110.0 1.8421e-05
14130.0 1.7952e-05
14150.0 1.751e-05
14170.0 1.7131e-05
14190.0 1.68e-05
14210.0 1.6515e-05
14230.0 1.6298e-05
14250.0 1.615e-05
14270.0 1.6066e-05
14290.0 1.6057e-05
14310.0 1.6117e-05
14330.0 1.6244e-05
14350.0 1.6443e-05
14370.0 1.6699e-05
14390.0 1.6999e-05
14410.0 1.736e-05
14430.0 1.7766e-05
14450.0 1.819e-05
14470.0 1.8639e-05
14490.0 1.9128e-05
14510.0 1.9609e-05
14530.0 2.0076e-05
14550.0 2.0556e-05
14570.0 2.103e-05
14590.0 2.1475e-05
14610.0 2.1917e-05
14630.0 2.2366e-05
14650.0 2.2796e-05
14670.0 2.3219e-05
14690.0 2.3664e-05
14710.0 2.4133e-05
14730.0 2.4602e-05
14750.0 2.5116e-05
14770.0 2.5689e-05
14790.0 2.6302e-05
14810.0 2.6957e-05
14830.0 2.7718e-05
14850.0 2.8534e-05
14870.0 2.9377e-05
14890.0 3.0277e-05
14910.0 3.1224e-05
14930.0 3.2132e-05
14950.0 3.2981e-05
14970.0 3.3785e-05
14990.0 3.4465e-05
15010.0 3.4997e-05
15030.0 3.5404e-05
15050.0 3.5691e-05
15070.0 3.5858e-05
15090.0 3.5952e-05
15110.0 3.5994e-05
15130.0 3.6004e-05
15150.0 3.6e-05
15170.0 3.5984e-05
15190.0 3.5964e-05
15210.0 3.5946e-05
15230.0 3.5929e-05
15250.0 3.5909e-05
15270.0 3.589e-05
15290.0 3.5876e-05
15310.0 3.5861e-05
15330.0 3.5844e-05
15350.0 3.5831e-05
15370.0 3.5819e-05
15390.0 3.5803e-05
15410.0 3.579e-05
15430.0 3.578e-05
15450.0 3.5767e-05
15470.0 3.5754e-05
15490.0 3.5745e-05
15510.0 3.5735e-05
15530.0 3.5723e-05
15550.0 3.5713e-05
15570.0 3.5706e-05
15590.0 3.5695e-05
15610.0 3.5683e-05
15630.0 3.5675e-05
15650.0 3.5667e-05
15670.0 3.5655e-05
15690.0 3.5646e-05
15710.0 3.5639e-05
15730.0 3.5629e-05
15750.0 3.5618e-05
15770.0 3.561e-05
15790.0 3.5601e-05
15810.0 3.5587e-05
15830.0 3.5577e-05
15850.0 3.5569e-05
15870.0 3.5557e-05
15890.0 3.5545e-05
15910.0 3.5535e-05
15930.0 3.5524e-05
15950.0 3.5509e-05
15970.0 3.5496e-05
15990.0 3.5484e-05
16010.0 3.5469e-05
16030.0 3.5452e-05
16050.0 3.544e-05
16070.0 3.5425e-05
16090.0 3.5407e-05
16110.0 3.5391e-05
16130.0 3.5376e-05
16150.0 3.5354e-05
16170.0 3.5334e-05
16190.0 3.5316e-05
16210.0 3.5295e-05
16230.0 3.5272e-05
16250.0 3.525e-05
16270.0 3.523e-05
16290.0 3.5204e-05
16310.0 3.5178e-05
16330.0 3.5155e-05
16350.0 3.5128e-05
16370.0 3.5096e-05
16390.0 3.5069e-05
16410.0 3.5041e-05
16430.0 3.5009e-05
16450.0 3.4977e-05
16470.0 3.4947e-05
16490.0 3.4913e-05
16510.0 3.4876e-05
16530.0 3.4841e-05
16550.0 3.4805e-05
16570.0 3.4765e-05
16590.0 3.4724e-05
16610.0 3.4687e-05
16630.0 3.4645e-05
16650.0 3.4601e-05
16670.0 3.4559e-05
16690.0 3.4516e-05
16710.0 3.4466e-05
16730.0 3.4418e-05
16750.0 3.4372e-05
16770.0 3.4321e-05
16790.0 3.4268e-05
16810.0 3.4218e-05
16830.0 3.4166e-05
16850.0 3.4109e-05
16870.0 3.4054e-05
16890.0 3.3999e-05
16910.0 3.3939e-05
16930.0 3.3876e-05
16950.0 3.3818e-05
16970.0 3.3757e-05
16990.0 3.3691e-05
17010.0 3.3627e-05
17030.0 3.3565e-05
17050.0 3.3496e-05
17070.0 3.3426e-05
17090.0 3.3359e-05
17110.0 3.3289e-05
17130.0 3.3213e-05
17150.0 3.314e-05
17170.0 3.3068e-05
17190.0 3.2992e-05
17210.0 3.2914e-05
17230.0 3.2839e-05
17250.0 3.276e-05
17270.0 3.2676e-05
17290.0 3.2595e-05
17310.0 3.2514e-05
17330.0 3.2429e-05
17350.0 3.2341e-05
17370.0 3.2258e-05
17390.0 3.2171e-05
17410.0 3.2081e-05
17430.0 3.1992e-05
17450.0 3.1904e-05
17470.0 3.1809e-05
17490.0 3.1714e-05
17510.0 3.1623e-05
17530.0 3.1528e-05
17550.0 3.1429e-05
17570.0 3.1333e-05
17590.0 3.1238e-05
17610.0 3.1136e-05
17630.0 3.1035e-05
17650.0 3.0936e-05
17670.0 3.0834e-05
17690.0 3.0726e-05
17710.0 3.0624e-05
17730.0 3.0521e-05
17750.0 3.0413e-05
17770.0 3.0306e-05
17790.0 3.0202e-05
17810.0 3.0092e-05
17830.0 2.998e-05
17850.0 2.9871e-05
17870.0 2.9761e-05
17890.0 2.9646e-05
17910.0 2.9532e-05
17930.0 2.9422e-05
17950.0 2.9307e-05
17970.0 2.919e-05
17990.0 2.9076e-05
18010.0 2.8961e-05
18030.0 2.884e-05
18050.0 2.8722e-05
18070.0 2.8605e-05
18090.0 2.8485e-05
18110.0 2.8363e-05
18130.0 2.8245e-05
18150.0 2.8125e-05
18170.0 2.8001e-05
18190.0 2.7879e-05
18210.0 2.7759e-05
18230.0 2.7633e-05
18250.0 2.7506e-05
18270.0 2.7384e-05
18290.0 2.726e-05
18310.0 2.7133e-05
18330.0 2.7008e-05
18350.0 2.6884e-05
18370.0 2.6756e-05
18390.0 2.6627e-05
18410.0 2.6502e-05
18430.0 2.6374e-05
18450.0 2.6242e-05
18470.0 2.6114e-05
18490.0 2.5988e-05
18510.0 2.5858e-05
18530.0 2.5727e-05
18550.0 2.56e-05
18570.0 2.547e-05
18590.0 2.5337e-05
18610.0 2.5207e-05
18630.0 2.5078e-05
18650.0 2.4945e-05
18670.0 2.4812e-05
18690.0 2.4684e-05
18710.0 2.4553e-05
18730.0 2.442e-05
18750.0 2.4289e-05
18770.0 2.416e-05
18790.0 2.4024e-05
18810.0 2.3891e-05
18830.0 2.3762e-05
18850.0 2.3629e-05
18870.0 2.3495e-05
18890.0 2.3364e-05
18910.0 2.3234e-05
18930.0 2.31e-05
18950.0 2.2967e-05
18970.0 2.2837e-05
18990.0 2.2705e-05
19010.0 2.2568e-05
19030.0 2.2439e-05
19050.0 2.2308e-05
19070.0 2.2174e-05
19090.0 2.2042e-05
19110.0 2.1914e-05
19130.0 2.1781e-05
19150.0 2.1647e-05
19170.0 2.1517e-05
19190.0 2.1387e-05
19210.0 2.1253e-05
19230.0 2.1121e-05
19250.0 2.0994e-05
19270.0 2.0862e-05
19290.0 2.0731e-05
19310.0 2.0602e-05
19330.0 2.0474e-05
19350.0 2.034e-05
19370.0 2.0211e-05
19390.0 2.0083e-05
19410.0 1.9953e-05
19430.0 1.9822e-05
19450.0 1.9696e-05
19470.0 1.9569e-05
19490.0 1.9439e-05
19510.0 1.9311e-05
19530.0 1.9186e-05
19550.0 1.9057e-05
19570.0 1.8927e-05
19590.0 1.8803e-05
19610.0 1.8677e-05
19630.0 1.8549e-05
19650.0 1.8424e-05
19670.0 1.8302e-05
19690.0 1.8175e-05
19710.0 1.8049e-05
19730.0 1.7926e-05
19750.0 1.7802e-05
19770.0 1.7675e-05
19790.0 1.7553e-05
19810.0 1.7432e-05
19830.0 1.7308e-05
19850.0 1.7183e-05
19870.0 1.7062e-05
19890.0 1.6934e-05
19910.0 1.6798e-05
19930.0 1.6657e-05
19950.0 1.6502e-05
19970.0 1.6322e-05
19990.0 1.6115e-05
20010.0 1.5102e-05
20030.0 1.4849e-05
20050.0 1.4562e-05
20070.0 1.4256e-05
20090.0 1.3933e-05
20110.0 1.3575e-05
20130.0 1.3216e-05
20150.0 1.2864e-05
20170.0 1.2503e-05
20190.0 1.2141e-05
20210.0 1.18e-05
20230.0 1.1468e-05
20250.0 1.1138e-05
20270.0 1.0832e-05
20290.0 1.0551e-05
20310.0 1.0284e-05
20330.0 1.0033e-05
20350.0 9.8209e-06
20370.0 9.6304e-06
20390.0 9.4603e-06
20410.0 9.3188e-06
20430.0 9.2049e-06
20450.0 9.1101e-06
20470.0 9.0399e-06
20490.0 8.9936e-06
20510.0 8.9672e-06
20530.0 8.9606e-06
20550.0 8.9722e-06
20570.0 8.9981e-06
20590.0 9.0401e-06
20610.0 9.0958e-06
20630.0 9.1602e-06
20650.0 9.2352e-06
20670.0 9.324e-06
20690.0 9.4157e-06
20710.0 9.5115e-06
20730.0 9.616e-06
20750.0 9.7254e-06
20770.0 9.832e-06
20790.0 9.9436e-06
20810.0 1.0061e-05
20830.0 1.0176e-05
20850.0 1.029e-05
20870.0 1.0411e-05
20890.0 1.0532e-05
20910.0 1.0647e-05
20930.0 1.0766e-05
20950.0 1.0887e-05
20970.0 1.1004e-05
20990.0 1.1118e-05
21010.0 1.1238e-05
21030.0 1.1354e-05
21050.0 1.1463e-05
21070.0 1.1573e-05
21090.0 1.1682e-05
21110.0 1.1781e-05
21130.0 1.1874e-05
21150.0 1.1964e-05
21170.0 1.2046e-05
21190.0 1.2117e-05
21210.0 1.2181e-05
21230.0 1.2235e-05
21250.0 1.2275e-05
21270.0 1.2301e-05
21290.0 1.2313e-05
21310.0 1.2308e-05
21330.0 1.2285e-05
21350.0 1.2244e-05
21370.0 1.2182e-05
21390.0 1.21e-05
21410.0 1.1999e-05
21430.0 1.187e-05
21450.0 1.1722e-05
21470.0 1.1559e-05
21490.0 1.1373e-05
21510.0 1.1168e-05
21530.0 1.0956e-05
21550.0 1.0732e-05
21570.0 1.0492e-05
21590.0 1.0252e-05
21610.0 1.0018e-05
21630.0 9.7807e-06
21650.0 9.546e-06
21670.0 9.3382e-06
21690.0 9.1428e-06
21710.0 8.9621e-06
21730.0 8.808e-06
21750.0 8.682e-06
21770.0 8.5769e-06
21790.0 8.5024e-06
21810.0 8.4588e-06
21830.0 8.4431e-06
21850.0 8.4572e-06
21870.0 8.4986e-06
21890.0 8.5628e-06
21910.0 8.654e-06
21930.0 8.7675e-06
21950.0 8.8952e-06
21970.0 9.0411e-06
21990.0 9.2097e-06
22010.0 9.3814e-06
22030.0 9.5588e-06
22050.0 9.7487e-06
22070.0 9.9428e-06
22090.0 1.0129e-05
22110.0 1.0319e-05
22130.0 1.0512e-05
22150.0 1.0695e-05
22170.0 1.0868e-05
22190.0 1.1043e-05
22210.0 1.1208e-05
22230.0 1.1353e-05
22250.0 1.1492e-05
22270.0 1.162e-05
22290.0 1.1731e-05
22310.0 1.1826e-05
22330.0 1.191e-05
22350.0 1.1976e-05
22370.0 1.2022e-05
22390.0 1.2051e-05
22410.0 1.2061e-05
22430.0 1.2051e-05
22450.0 1.202e-05
22470.0 1.1968e-05
22490.0 1.1894e-05
22510.0 1.1802e-05
22530.0 1.1684e-05
22550.0 1.1542e-05
22570.0 1.1383e-05
22590.0 1.1205e-05
22610.0 1.1e-05
22630.0 1.0778e-05
