#lamb flux
1010.0 3.6779e-07
1030.0 4.0319e-07
1050.0 4.4392e-07
1070.0 4.8977e-07
1090.0 5.4184e-07
1110.0 5.9525e-07
1130.0 6.4901e-07
1150.0 7.0532e-07
1170.0 7.634e-07
1190.0 8.1848e-07
1210.0 8.743e-07
1230.0 9.3198e-07
1250.0 9.8849e-07
1270.0 1.0434e-06
1290.0 1.1014e-06
1310.0 1.1593e-06
1330.0 1.2149e-06
1350.0 1.2711e-06
1370.0 1.3291e-06
1390.0 1.3856e-06
1410.0 1.4405e-06
1430.0 1.4979e-06
1450.0 1.5552e-06
1470.0 1.6106e-06
1490.0 1.6666e-06
1510.0 1.7258e-06
1530.0 1.7818e-06
1550.0 1.8371e-06
1570.0 1.8943e-06
1590.0 1.9514e-06
1610.0 2.0061e-06
1630.0 2.0623e-06
1650.0 2.1201e-06
1670.0 2.1759e-06
1690.0 2.2309e-06
1710.0 2.288e-06
1730.0 2.3454e-06
1750.0 2.3992e-06
1770.0 2.4545e-06
1790.0 2.5109e-06
1810.0 2.5653e-06
1830.0 2.6186e-06
1850.0 2.675e-06
1870.0 2.7298e-06
1890.0 2.7824e-06
1910.0 2.8358e-06
1930.0 2.8903e-06
1950.0 2.9418e-06
1970.0 2.9923e-06
1990.0 3.0444e-06
2010.0 3.0951e-06
2030.0 3.1432e-06
2050.0 3.1923e-06
2070.0 3.2421e-06
2090.0 3.2879e-06
2110.0 3.3327e-06
2130.0 3.3782e-06
2150.0 3.4217e-06
2170.0 3.4618e-06
2190.0 3.5027e-06
2210.0 3.5426e-06
2230.0 3.5792e-06
2250.0 3.6141e-06
2270.0 3.6498e-06
2290.0 3.6824e-06
2310.0 3.7113e-06
2330.0 3.7405e-06
2350.0 3.7694e-06
2370.0 3.7962e-06
2390.0 3.8254e-06
2410.0 3.8628e-06
2430.0 3.9079e-06
2450.0 3.9651e-06
2470.0 4.0447e-06
2490.0 4.1512e-06
2510.0 4.2749e-06
2530.0 4.43e-06
2550.0 4.6335e-06
2570.0 4.8956e-06
2590.0 5.245e-06
2610.0 5.7787e-06
2630.0 6.5369e-06
2650.0 7.5096e-06
2670.0 8.7407e-06
2690.0 1.0216e-05
2710.0 1.1738e-05
2730.0 1.3185e-05
2750.0 1.4556e-05
2770.0 1.5682e-05
2790.0 1.6503e-05
2810.0 1.7088e-05
2830.0 1.7478e-05
2850.0 1.7663e-05
2870.0 1.7734e-05
2890.0 1.774e-05
2910.0 1.7699e-05
2930.0 1.7628e-05
2950.0 1.7552e-05
2970.0 1.7477e-05
2990.0 1.7397e-05
3010.0 0.00055502
3030.0 0.00055274
3050.0 0.0005505
3070.0 0.00054794
3090.0 0.0005451
3110.0 0.0005414
3130.0 0.00053617
3150.0 0.00052893
3170.0 0.00051863
3190.0 0.00050546
3210.0 0.00049028
3230.0 0.00047372
3250.0 0.0004568
3270.0 0.00044411
3290.0 0.00043444
3310.0 0.00043219
3330.0 0.00043491
3350.0 0.00044248
3370.0 0.00045483
3390.0 0.00047135
3410.0 0.00048986
3430.0 0.00051105
3450.0 0.00053576
3470.0 0.00056306
3490.0 0.00059243
3510.0 0.00062593
3530.0 0.00066258
3550.0 0.00070192
3570.0 0.00074537
3590.0 0.00079393
3610.0 0.0008481
3630.0 0.00090196
3650.0 0.00095908
3670.0 0.0010105
3690.0 0.0010488
3710.0 0.0010679
3730.0 0.0010564
3750.0 0.001015
3770.0 0.0010383
3790.0 0.0010144
3810.0 0.000782
3830.0 0.00075123
3850.0 0.0011072
3870.0 0.0010685
3890.0 0.0008085
3910.0 0.00078593
3930.0 0.0010036
3950.0 0.001201
3970.0 0.0013651
3990.0 0.00093905
4010.0 0.0017571
4030.0 0.0016951
4050.0 0.0017886
4070.0 0.0020282
4090.0 0.0019213
4110.0 0.0016945
4130.0 0.0020888
4150.0 0.0028005
4170.0 0.0022166
4190.0 0.0019546
4210.0 0.0022047
4230.0 0.0027355
4250.0 0.003271
4270.0 0.0035567
4290.0 0.0031588
4310.0 0.0029169
4330.0 0.0028866
4350.0 0.003702
4370.0 0.0045061
4390.0 0.0035753
4410.0 0.001988
4430.0 0.0014036
4450.0 0.0013114
4470.0 0.00080885
4490.0 0.0014332
4510.0 0.003091
4530.0 0.0037718
4550.0 0.0035549
4570.0 0.0031796
4590.0 0.0034017
4610.0 0.0067706
4630.0 0.0095059
4650.0 0.0089587
4670.0 0.0078685
4690.0 0.0080916
4710.0 0.0084711
4730.0 0.006898
4750.0 0.004437
4770.0 0.0030405
4790.0 0.0034037
4810.0 0.0035898
4830.0 0.0035585
4850.0 0.0038671
4870.0 0.0051236
4890.0 0.0059365
4910.0 0.0045892
4930.0 0.0044604
4950.0 0.0051487
4970.0 0.0068801
4990.0 0.0092837
5010.0 0.010716
5030.0 0.0085174
5050.0 0.0051711
5070.0 0.0036871
5090.0 0.0028072
5110.0 0.0026178
5130.0 0.0031424
5150.0 0.0030222
5170.0 0.0028334
5190.0 0.0025154
5210.0 0.0028015
5230.0 0.0035158
5250.0 0.0041188
5270.0 0.0037874
5290.0 0.0040886
5310.0 0.0055312
5330.0 0.0059048
5350.0 0.005815
5370.0 0.0065693
5390.0 0.0082163
5410.0 0.0069808
5430.0 0.0052945
5450.0 0.005368
5470.0 0.0062921
5490.0 0.007911
5510.0 0.0096421
5530.0 0.011184
5550.0 0.01006
5570.0 0.0090023
5590.0 0.0073722
5610.0 0.0075256
5630.0 0.0085115
5650.0 0.007857
5670.0 0.0072261
5690.0 0.0058103
5710.0 0.0059897
5730.0 0.0058431
5750.0 0.0031077
5770.0 0.0022171
5790.0 0.0027729
5810.0 0.002927
5830.0 0.0046241
5850.0 0.0060583
5870.0 0.006476
5890.0 0.0061359
5910.0 0.0059572
5930.0 0.0057515
5950.0 0.0059481
5970.0 0.0074161
5990.0 0.0060462
6010.0 0.004621
6030.0 0.0037538
6050.0 0.0033541
6070.0 0.0040539
6090.0 0.0045853
6110.0 0.0046495
6130.0 0.0042405
6150.0 0.0033178
6170.0 0.0025872
6190.0 0.0032031
6210.0 0.0051242
6230.0 0.0075804
6250.0 0.0081296
6270.0 0.0061624
6290.0 0.0052786
6310.0 0.0040221
6330.0 0.002923
6350.0 0.0028924
6370.0 0.0030378
6390.0 0.0036552
6410.0 0.0047316
6430.0 0.0057095
6450.0 0.007049
6470.0 0.0074266
6490.0 0.0089118
6510.0 0.010004
6530.0 0.010193
6550.0 0.0093942
6570.0 0.0075728
6590.0 0.0072733
6610.0 0.0060129
6630.0 0.0062954
6650.0 0.0061072
6670.0 0.0053314
6690.0 0.0041232
6710.0 0.0040392
6730.0 0.0017427
6750.0 0.0023689
6770.0 0.0037809
6790.0 0.0050512
6810.0 0.0035717
6830.0 0.0036463
6850.0 0.0030267
6870.0 0.0028524
6890.0 0.002393
6910.0 0.0029101
6930.0 0.0027364
6950.0 0.003311
6970.0 0.0034165
6990.0 0.0037828
7010.0 0.0036699
7030.0 0.0041952
7050.0 0.0036066
7070.0 0.002991
7090.0 0.0032044
7110.0 0.0033778
7130.0 0.0038938
7150.0 0.0044433
7170.0 0.0049769
7190.0 0.0052669
7210.0 0.0046431
7230.0 0.0046914
7250.0 0.0050517
7270.0 0.005453
7290.0 0.0066989
7310.0 0.0070059
7330.0 0.0064834
7350.0 0.005792
7370.0 0.0042291
7390.0 0.0044158
7410.0 0.005502
7430.0 0.0062754
7450.0 0.0067502
7470.0 0.0061712
7490.0 0.0049791
7510.0 0.0082417
7530.0 0.0074143
7550.0 0.0069689
7570.0 0.0046653
7590.0 0.0019674
7610.0 0.0013486
7630.0 0.0021311
7650.0 0.002905
7670.0 0.0047304
7690.0 0.0052943
7710.0 0.004718
7730.0 0.0046356
7750.0 0.0061602
7770.0 0.0063263
7790.0 0.0057969
7810.0 0.0046569
7830.0 0.0050509
7850.0 0.0055781
7870.0 0.0054845
7890.0 0.0042728
7910.0 0.002817
7930.0 0.0029239
7950.0 0.0026342
7970.0 0.0022014
7990.0 0.0019692
8010.0 0.0013391
8030.0 0.0012381
8050.0 0.0013339
8070.0 0.0014815
8090.0 0.00178
8110.0 0.0016669
8130.0 0.0010244
8150.0 0.001046
8170.0 0.0006193
8190.0 0.00040561
8210.0 0.00093431
8230.0 0.0011165
8250.0 0.00048257
8270.0 0.00038673
8290.0 0.00067019
8310.0 0.00057537
8330.0 0.00035212
8350.0 0.00028313
8370.0 8.0268e-05
8390.0 0.00030492
8410.0 0.00035715
8430.0 0.0004447
8450.0 0.00049948
8470.0 0.00081538
8490.0 0.00066782
8510.0 0.00052072
8530.0 0.00027303
8550.0 0.00090238
8570.0 0.0013995
8590.0 0.00099505
8610.0 0.0014777
8630.0 0.0016067
8650.0 0.00089044
8670.0 0.0012851
8690.0 0.0019709
8710.0 0.0017006
8730.0 0.0018275
8750.0 0.0014465
8770.0 0.0012913
8790.0 0.0014306
8810.0 0.0015438
8830.0 0.00087226
8850.0 0.00039893
8870.0 0.00028912
8890.0 0.00067443
8910.0 0.0010501
8930.0 0.0013766
8950.0 0.0015473
8970.0 0.0014949
8990.0 0.0011384
9010.0 0.00089963
9030.0 0.00068841
9050.0 0.00071774
9070.0 0.00074725
9090.0 0.00077101
9110.0 0.0007994
9130.0 0.00081993
9150.0 0.00083465
9170.0 0.00085031
9190.0 0.00086707
9210.0 0.00088466
9230.0 0.00090326
9250.0 0.00092208
9270.0 0.00094152
9290.0 0.00096147
9310.0 0.00098141
9330.0 0.0010017
9350.0 0.0010226
9370.0 0.0010436
9390.0 0.0010647
9410.0 0.0010864
9430.0 0.0011087
9450.0 0.0011308
9470.0 0.0011532
9490.0 0.0011763
9510.0 0.0011995
9530.0 0.0012228
9550.0 0.0012469
9570.0 0.0012713
9590.0 0.0012958
9610.0 0.0013206
9630.0 0.001346
9650.0 0.0013716
9670.0 0.0013972
9690.0 0.0014235
9710.0 0.0014501
9730.0 0.0014768
9750.0 0.0015038
9770.0 0.0015317
9790.0 0.0015594
9810.0 0.0015873
9830.0 0.0016157
9850.0 0.0016445
9870.0 0.0016731
9890.0 0.0017022
9910.0 0.0017319
9930.0 0.0017615
9950.0 0.0017913
9970.0 0.0018216
9990.0 0.0018522
10010.0 0.0016683
10030.0 0.0016953
10050.0 0.0017226
10070.0 0.0017496
10090.0 0.001777
10110.0 0.0018049
10130.0 0.0018327
10150.0 0.0018604
10170.0 0.0018883
10190.0 0.0019165
10210.0 0.0019444
10230.0 0.0019722
10250.0 0.0020004
10270.0 0.0020285
10290.0 0.0020562
10310.0 0.0020843
10330.0 0.0021125
10350.0 0.0021402
10370.0 0.0021679
10390.0 0.0021957
10410.0 0.0022234
10430.0 0.0022505
10450.0 0.0022778
10470.0 0.002305
10490.0 0.0023318
10510.0 0.0023583
10530.0 0.0023851
10550.0 0.0024114
10570.0 0.0024372
10590.0 0.0024629
10610.0 0.0024885
10630.0 0.0025133
10650.0 0.0025379
10670.0 0.0025626
10690.0 0.0025867
10710.0 0.0026102
10730.0 0.0026335
10750.0 0.0026568
10770.0 0.002679
10790.0 0.0027009
10810.0 0.0027226
10830.0 0.0027435
10850.0 0.0027634
10870.0 0.0027827
10890.0 0.0028001
10910.0 0.0028143
10930.0 0.0028241
10950.0 0.0028272
10970.0 0.0028213
10990.0 0.0028055
11010.0 0.0028459
11030.0 0.002803
11050.0 0.0027491
11070.0 0.0026836
11090.0 0.0026043
11110.0 0.0025218
11130.0 0.0024358
11150.0 0.0023433
11170.0 0.0022484
11190.0 0.0021567
11210.0 0.0020626
11230.0 0.0019668
11250.0 0.0018759
11270.0 0.001789
11290.0 0.0017026
11310.0 0.0016211
11330.0 0.0015493
11350.0 0.0014815
11370.0 0.0014187
11390.0 0.0013638
11410.0 0.0013152
11430.0 0.0012695
11450.0 0.0012291
11470.0 0.0011933
11490.0 0.0011592
11510.0 0.0011258
11530.0 0.0010942
11550.0 0.0010626
11570.0 0.0010291
11590.0 0.00099465
11610.0 0.00095987
11630.0 0.00092259
11650.0 0.00088325
11670.0 0.00084477
11690.0 0.00080609
11710.0 0.00076653
11730.0 0.00072834
11750.0 0.00069293
11770.0 0.00065826
11790.0 0.00062564
11810.0 0.00059662
11830.0 0.00057036
11850.0 0.00054588
11870.0 0.00052489
11890.0 0.00050692
11910.0 0.0004907
11930.0 0.00047628
11950.0 0.00046377
11970.0 0.00045226
11990.0 0.00044118
12010.0 0.00043075
12030.0 0.00042064
12050.0 0.0004103
12070.0 0.00039967
12090.0 0.0003894
12110.0 0.000379
12130.0 0.00036851
12150.0 0.00035855
12170.0 0.00034941
12190.0 0.0003408
12210.0 0.00033355
12230.0 0.00032798
12250.0 0.00032411
12270.0 0.00032227
12290.0 0.00032258
12310.0 0.00032488
12330.0 0.00032959
12350.0 0.00033646
12370.0 0.00034491
12390.0 0.0003552
12410.0 0.00036779
12430.0 0.00038073
12450.0 0.00039426
12470.0 0.00040879
12490.0 0.00042338
12510.0 0.00043692
12530.0 0.00045034
12550.0 0.00046318
12570.0 0.00047423
12590.0 0.00048365
12610.0 0.00049183
12630.0 0.00049794
12650.0 0.00050154
12670.0 0.00050328
12690.0 0.0005029
12710.0 0.00050029
12730.0 0.00049574
12750.0 0.0004891
12770.0 0.00048067
12790.0 0.00047087
12810.0 0.00045957
12830.0 0.00044684
12850.0 0.00043367
12870.0 0.00041991
12890.0 0.00040526
12910.0 0.00039047
12930.0 0.00037595
12950.0 0.00036096
12970.0 0.0003458
12990.0 0.00033143
13010.0 0.00031728
13030.0 0.00030301
13050.0 0.00028927
13070.0 0.00027632
13090.0 0.00026331
13110.0 0.00025067
13130.0 0.00023889
13150.0 0.00022764
13170.0 0.00021654
13190.0 0.0002065
13210.0 0.0001975
13230.0 0.00018911
13250.0 0.00018166
13270.0 0.00017549
13290.0 0.00017035
13310.0 0.0001663
13330.0 0.00016365
13350.0 0.00016229
13370.0 0.00016226
13390.0 0.00016366
13410.0 0.00016617
13430.0 0.00016988
13450.0 0.00017485
13470.0 0.00018063
13490.0 0.00018695
13510.0 0.00019433
13530.0 0.00020199
13550.0 0.00020948
13570.0 0.00021702
13590.0 0.00022453
13610.0 0.00023134
13630.0 0.00023739
13650.0 0.00024305
13670.0 0.00024786
13690.0 0.00025166
13710.0 0.00025469
13730.0 0.00025699
13750.0 0.00025824
13770.0 0.0002587
13790.0 0.00025844
13810.0 0.00025742
13830.0 0.00025579
13850.0 0.00025353
13870.0 0.00025064
13890.0 0.00024731
13910.0 0.00024355
13930.0 0.00023923
13950.0 0.00023454
13970.0 0.00022976
13990.0 0.00022461
14010.0 0.00021918
14030.0 0.00021379
14050.0 0.0002084
14070.0 0.00020275
14090.0 0.00019736
14110.0 0.0001923
14130.0 0.0001874
14150.0 0.00018279
14170.0 0.00017883
14190.0 0.00017537
14210.0 0.0001724
14230.0 0.00017013
14250.0 0.00016859
14270.0 0.00016771
14290.0 0.00016761
14310.0 0.00016824
14330.0 0.00016957
14350.0 0.00017164
14370.0 0.00017432
14390.0 0.00017745
14410.0 0.00018122
14430.0 0.00018546
14450.0 0.00018988
14470.0 0.00019457
14490.0 0.00019968
14510.0 0.00020469
14530.0 0.00020957
14550.0 0.00021458
14570.0 0.00021953
14590.0 0.00022417
14610.0 0.00022879
14630.0 0.00023348
14650.0 0.00023796
14670.0 0.00024238
14690.0 0.00024702
14710.0 0.00025192
14730.0 0.00025681
14750.0 0.00026218
14770.0 0.00026816
14790.0 0.00027456
14810.0 0.0002814
14830.0 0.00028934
14850.0 0.00029786
14870.0 0.00030666
14890.0 0.00031605
14910.0 0.00032594
14930.0 0.00033542
14950.0 0.00034428
14970.0 0.00035267
14990.0 0.00035978
15010.0 0.00036533
15030.0 0.00036957
15050.0 0.00037257
15070.0 0.00037431
15090.0 0.00037529
15110.0 0.00037573
15130.0 0.00037584
15150.0 0.00037579
15170.0 0.00037563
15190.0 0.00037542
15210.0 0.00037524
15230.0 0.00037506
15250.0 0.00037485
15270.0 0.00037465
15290.0 0.00037451
15310.0 0.00037434
15330.0 0.00037417
15350.0 0.00037403
15370.0 0.00037391
15390.0 0.00037374
15410.0 0.0003736
15430.0 0.00037349
15450.0 0.00037337
15470.0 0.00037322
15490.0 0.00037313
15510.0 0.00037303
15530.0 0.00037291
15550.0 0.0003728
15570.0 0.00037272
15590.0 0.00037261
15610.0 0.00037248
15630.0 0.0003724
15650.0 0.00037231
15670.0 0.0003722
15690.0 0.0003721
15710.0 0.00037203
15730.0 0.00037192
15750.0 0.00037181
15770.0 0.00037172
15790.0 0.00037163
15810.0 0.00037149
15830.0 0.00037138
15850.0 0.00037129
15870.0 0.00037117
15890.0 0.00037104
15910.0 0.00037095
15930.0 0.00037083
15950.0 0.00037067
15970.0 0.00037054
15990.0 0.00037041
16010.0 0.00037025
16030.0 0.00037008
16050.0 0.00036995
16070.0 0.00036979
16090.0 0.0003696
16110.0 0.00036943
16130.0 0.00036928
16150.0 0.00036905
16170.0 0.00036884
16190.0 0.00036865
16210.0 0.00036844
16230.0 0.00036819
16250.0 0.00036797
16270.0 0.00036775
16290.0 0.00036749
16310.0 0.00036722
16330.0 0.00036697
16350.0 0.00036669
16370.0 0.00036636
16390.0 0.00036608
16410.0 0.00036579
16430.0 0.00036545
16450.0 0.00036511
16470.0 0.00036481
16490.0 0.00036444
16510.0 0.00036406
16530.0 0.0003637
16550.0 0.00036332
16570.0 0.0003629
16590.0 0.00036248
16610.0 0.00036209
16630.0 0.00036165
16650.0 0.00036119
16670.0 0.00036075
16690.0 0.0003603
16710.0 0.00035978
16730.0 0.00035928
16750.0 0.0003588
16770.0 0.00035827
16790.0 0.00035771
16810.0 0.00035719
16830.0 0.00035665
16850.0 0.00035606
16870.0 0.00035548
16890.0 0.00035491
16910.0 0.00035428
16930.0 0.00035363
16950.0 0.00035302
16970.0 0.00035238
16990.0 0.0003517
17010.0 0.00035103
17030.0 0.00035037
17050.0 0.00034966
17070.0 0.00034893
17090.0 0.00034822
17110.0 0.00034749
17130.0 0.0003467
17150.0 0.00034594
17170.0 0.00034519
17190.0 0.00034439
17210.0 0.00034358
17230.0 0.00034279
17250.0 0.00034197
17270.0 0.0003411
17290.0 0.00034025
17310.0 0.00033941
17330.0 0.00033851
17350.0 0.0003376
17370.0 0.00033674
17390.0 0.00033583
17410.0 0.00033488
17430.0 0.00033396
17450.0 0.00033304
17470.0 0.00033204
17490.0 0.00033106
17510.0 0.0003301
17530.0 0.00032911
17550.0 0.00032808
17570.0 0.00032708
17590.0 0.00032608
17610.0 0.00032502
17630.0 0.00032397
17650.0 0.00032294
17670.0 0.00032187
17690.0 0.00032074
17710.0 0.00031968
17730.0 0.0003186
17750.0 0.00031748
17770.0 0.00031636
17790.0 0.00031527
17810.0 0.00031412
17830.0 0.00031295
17850.0 0.00031181
17870.0 0.00031067
17890.0 0.00030947
17910.0 0.00030828
17930.0 0.00030713
17950.0 0.00030593
17970.0 0.00030471
17990.0 0.00030352
18010.0 0.00030232
18030.0 0.00030105
18050.0 0.00029982
18070.0 0.00029861
18090.0 0.00029735
18110.0 0.00029607
18130.0 0.00029484
18150.0 0.00029359
18170.0 0.0002923
18190.0 0.00029102
18210.0 0.00028977
18230.0 0.00028846
18250.0 0.00028713
18270.0 0.00028586
18290.0 0.00028456
18310.0 0.00028323
18330.0 0.00028193
18350.0 0.00028064
18370.0 0.0002793
18390.0 0.00027795
18410.0 0.00027664
18430.0 0.00027531
18450.0 0.00027394
18470.0 0.0002726
18490.0 0.00027128
18510.0 0.00026992
18530.0 0.00026856
18550.0 0.00026724
18570.0 0.00026588
18590.0 0.00026449
18610.0 0.00026313
18630.0 0.00026179
18650.0 0.0002604
18670.0 0.00025901
18690.0 0.00025768
18710.0 0.00025631
18730.0 0.00025491
18750.0 0.00025355
18770.0 0.0002522
18790.0 0.00025078
18810.0 0.0002494
18830.0 0.00024804
18850.0 0.00024666
18870.0 0.00024526
18890.0 0.0002439
18910.0 0.00024254
18930.0 0.00024113
18950.0 0.00023975
18970.0 0.00023839
18990.0 0.00023701
19010.0 0.00023558
19030.0 0.00023423
19050.0 0.00023287
19070.0 0.00023147
19090.0 0.00023009
19110.0 0.00022876
19130.0 0.00022736
19150.0 0.00022597
19170.0 0.00022461
19190.0 0.00022325
19210.0 0.00022186
19230.0 0.00022048
19250.0 0.00021915
19270.0 0.00021778
19290.0 0.0002164
19310.0 0.00021506
19330.0 0.00021372
19350.0 0.00021232
19370.0 0.00021097
19390.0 0.00020965
19410.0 0.00020829
19430.0 0.00020692
19450.0 0.0002056
19470.0 0.00020427
19490.0 0.00020292
19510.0 0.00020159
19530.0 0.00020028
19550.0 0.00019893
19570.0 0.00019758
19590.0 0.00019628
19610.0 0.00019497
19630.0 0.00019363
19650.0 0.00019233
19670.0 0.00019105
19690.0 0.00018972
19710.0 0.00018841
19730.0 0.00018713
19750.0 0.00018583
19770.0 0.00018451
19790.0 0.00018323
19810.0 0.00018197
19830.0 0.00018067
19850.0 0.00017937
19870.0 0.0001781
19890.0 0.00017677
19910.0 0.00017535
19930.0 0.00017388
19950.0 0.00017227
19970.0 0.00017039
19990.0 0.00016823
20010.0 0.00015765
20030.0 0.00015501
20050.0 0.00015201
20070.0 0.00014882
20090.0 0.00014545
20110.0 0.00014171
20130.0 0.00013796
20150.0 0.00013429
20170.0 0.00013052
20190.0 0.00012673
20210.0 0.00012317
20230.0 0.00011972
20250.0 0.00011627
20270.0 0.00011307
20290.0 0.00011014
20310.0 0.00010735
20330.0 0.00010473
20350.0 0.00010252
20370.0 0.00010053
20390.0 9.8754e-05
20410.0 9.7277e-05
20430.0 9.6088e-05
20450.0 9.5098e-05
20470.0 9.4365e-05
20490.0 9.3882e-05
20510.0 9.3607e-05
20530.0 9.3538e-05
20550.0 9.3658e-05
20570.0 9.3929e-05
20590.0 9.4368e-05
20610.0 9.4949e-05
20630.0 9.5621e-05
20650.0 9.6404e-05
20670.0 9.7331e-05
20690.0 9.8289e-05
20710.0 9.9289e-05
20730.0 0.00010038
20750.0 0.00010152
20770.0 0.00010263
20790.0 0.0001038
20810.0 0.00010502
20830.0 0.00010622
20850.0 0.00010741
20870.0 0.00010868
20890.0 0.00010995
20910.0 0.00011115
20930.0 0.00011238
20950.0 0.00011365
20970.0 0.00011487
20990.0 0.00011606
21010.0 0.00011731
21030.0 0.00011852
21050.0 0.00011966
21070.0 0.0001208
21090.0 0.00012195
21110.0 0.00012298
21130.0 0.00012395
21150.0 0.00012489
21170.0 0.00012575
21190.0 0.00012648
21210.0 0.00012715
21230.0 0.00012772
21250.0 0.00012813
21270.0 0.0001284
21290.0 0.00012853
21310.0 0.00012848
21330.0 0.00012824
21350.0 0.00012781
21370.0 0.00012716
21390.0 0.00012631
21410.0 0.00012525
21430.0 0.00012391
21450.0 0.00012237
21470.0 0.00012066
21490.0 0.00011873
21510.0 0.00011658
21530.0 0.00011437
21550.0 0.00011203
21570.0 0.00010952
21590.0 0.00010702
21610.0 0.00010457
21630.0 0.0001021
21650.0 9.9648e-05
21670.0 9.7479e-05
21690.0 9.5439e-05
21710.0 9.3553e-05
21730.0 9.1945e-05
21750.0 9.063e-05
21770.0 8.9532e-05
21790.0 8.8755e-05
21810.0 8.8299e-05
21830.0 8.8136e-05
21850.0 8.8283e-05
21870.0 8.8715e-05
21890.0 8.9385e-05
21910.0 9.0337e-05
21930.0 9.1522e-05
21950.0 9.2855e-05
21970.0 9.4378e-05
21990.0 9.6138e-05
22010.0 9.793e-05
22030.0 9.9783e-05
22050.0 0.00010176
22070.0 0.00010379
22090.0 0.00010573
22110.0 0.00010772
22130.0 0.00010973
22150.0 0.00011164
22170.0 0.00011345
22190.0 0.00011528
22210.0 0.00011699
22230.0 0.00011851
22250.0 0.00011996
22270.0 0.0001213
22290.0 0.00012245
22310.0 0.00012344
22330.0 0.00012433
22350.0 0.00012501
22370.0 0.00012549
22390.0 0.0001258
22410.0 0.00012591
22430.0 0.00012579
22450.0 0.00012548
22470.0 0.00012493
22490.0 0.00012416
22510.0 0.0001232
22530.0 0.00012197
22550.0 0.00012048
22570.0 0.00011883
22590.0 0.00011697
22610.0 0.00011483
22630.0 0.00011251
22650.0 0.00011011
22670.0 0.00010745
22690.0 0.00010462
22710.0 0.00010175
22730.0 9.8788e-05
22750.0 9.5577e-05
22770.0 9.2427e-05
22790.0 8.9345e-05
22810.0 8.6175e-05
22830.0 8.3007e-05
22850.0 8.0033e-05
22870.0 7.7114e-05
22890.0 7.4205e-05
22910.0 7.1521e-05
22930.0 6.9055e-05
22950.0 6.6702e-05
22970.0 6.4519e-05
22990.0 6.2702e-05
