#lamb flux
1010.0 0.00020586
1030.0 0.00027106
1050.0 0.00034895
1070.0 0.0004393
1090.0 0.00054376
1110.0 0.00065267
1130.0 0.00076219
1150.0 0.00087404
1170.0 0.00098421
1190.0 0.001081
1210.0 0.0011688
1230.0 0.0012473
1250.0 0.0013088
1270.0 0.0013517
1290.0 0.0013831
1310.0 0.0013974
1330.0 0.0013921
1350.0 0.0013735
1370.0 0.0013462
1390.0 0.0013053
1410.0 0.0012536
1430.0 0.0011978
1450.0 0.001137
1470.0 0.0010722
1490.0 0.0010073
1510.0 0.0009444
1530.0 0.00088053
1550.0 0.00081962
1570.0 0.00076357
1590.0 0.00071204
1610.0 0.000665
1630.0 0.0006232
1650.0 0.0005862
1670.0 0.00055276
1690.0 0.00052313
1710.0 0.00049778
1730.0 0.00047565
1750.0 0.00045367
1770.0 0.00043452
1790.0 0.00041777
1810.0 0.00040263
1830.0 0.000389
1850.0 0.00037562
1870.0 0.00036364
1890.0 0.0003526
1910.0 0.00034287
1930.0 0.00033442
1950.0 0.0003268
1970.0 0.00032037
1990.0 0.00031557
2010.0 0.00031228
2030.0 0.00031068
2050.0 0.00031152
2070.0 0.00031519
2090.0 0.0003217
2110.0 0.00033194
2130.0 0.0003467
2150.0 0.00036634
2170.0 0.00039139
2190.0 0.00042301
2210.0 0.00046173
2230.0 0.00050783
2250.0 0.00056212
2270.0 0.00062559
2290.0 0.00069797
2310.0 0.00077934
2330.0 0.00087057
2350.0 0.00097144
2370.0 0.0010809
2390.0 0.0011991
2410.0 0.0013257
2430.0 0.0014581
2450.0 0.0015944
2470.0 0.0017331
2490.0 0.0018713
2510.0 0.0020067
2530.0 0.0021399
2550.0 0.0022748
2570.0 0.0024193
2590.0 0.0025858
2610.0 0.0028014
2630.0 0.0030922
2650.0 0.0034721
2670.0 0.0039721
2690.0 0.0046216
2710.0 0.0053902
2730.0 0.0062537
2750.0 0.0072385
2770.0 0.0082675
2790.0 0.009264
2810.0 0.010224
2830.0 0.011136
2850.0 0.011898
2870.0 0.012555
2890.0 0.013139
2910.0 0.01365
2930.0 0.014091
2950.0 0.014512
2970.0 0.014916
2990.0 0.01529
3010.0 0.015647
3030.0 0.016005
3050.0 0.016351
3070.0 0.016661
3090.0 0.01696
3110.0 0.017236
3130.0 0.017464
3150.0 0.017646
3170.0 0.017791
3190.0 0.017886
3210.0 0.017949
3230.0 0.018008
3250.0 0.018084
3270.0 0.018186
3290.0 0.018333
3310.0 0.018543
3330.0 0.01879
3350.0 0.01905
3370.0 0.019329
3390.0 0.019609
3410.0 0.019858
3430.0 0.020081
3450.0 0.020253
3470.0 0.020978
3490.0 0.020748
3510.0 0.018813
3530.0 0.020405
3550.0 0.023505
3570.0 0.025869
3590.0 0.029227
3610.0 0.031179
3630.0 0.032621
3650.0 0.029492
3670.0 0.025753
3690.0 0.024629
3710.0 0.026929
3730.0 0.031258
3750.0 0.032231
3770.0 0.032506
3790.0 0.033412
3810.0 0.031227
3830.0 0.027897
3850.0 0.025218
3870.0 0.023498
3890.0 0.026106
3910.0 0.028339
3930.0 0.029012
3950.0 0.02936
3970.0 0.030655
3990.0 0.032489
4010.0 0.032828
4030.0 0.031216
4050.0 0.02831
4070.0 0.027948
4090.0 0.029387
4110.0 0.03111
4130.0 0.030235
4150.0 0.029403
4170.0 0.029078
4190.0 0.030485
4210.0 0.030251
4230.0 0.028014
4250.0 0.025064
4270.0 0.022489
4290.0 0.02045
4310.0 0.01906
4330.0 0.018693
4350.0 0.020489
4370.0 0.021043
4390.0 0.021692
4410.0 0.022865
4430.0 0.023468
4450.0 0.022913
4470.0 0.022311
4490.0 0.022853
4510.0 0.02335
4530.0 0.023878
4550.0 0.024303
4570.0 0.024374
4590.0 0.02516
4610.0 0.025584
4630.0 0.02643
4650.0 0.027209
4670.0 0.02671
4690.0 0.025005
4710.0 0.022753
4730.0 0.021761
4750.0 0.021557
4770.0 0.020764
4790.0 0.0198
4810.0 0.019157
4830.0 0.019517
4850.0 0.019501
4870.0 0.019435
4890.0 0.018811
4910.0 0.017293
4930.0 0.017515
4950.0 0.016332
4970.0 0.014836
4990.0 0.014484
5010.0 0.013514
5030.0 0.0127
5050.0 0.012695
5070.0 0.01377
5090.0 0.014301
5110.0 0.01586
5130.0 0.016337
5150.0 0.016849
5170.0 0.017373
5190.0 0.017092
5210.0 0.017131
5230.0 0.01746
5250.0 0.017513
5270.0 0.017939
5290.0 0.017812
5310.0 0.017475
5330.0 0.016577
5350.0 0.015692
5370.0 0.014714
5390.0 0.014905
5410.0 0.015204
5430.0 0.015175
5450.0 0.015293
5470.0 0.015157
5490.0 0.014926
5510.0 0.014781
5530.0 0.014456
5550.0 0.014512
5570.0 0.014678
5590.0 0.01487
5610.0 0.014718
5630.0 0.014385
5650.0 0.014218
5670.0 0.013922
5690.0 0.013513
5710.0 0.013083
5730.0 0.012896
5750.0 0.012861
5770.0 0.012619
5790.0 0.012352
5810.0 0.01227
5830.0 0.012494
5850.0 0.012696
5870.0 0.012689
5890.0 0.012518
5910.0 0.012499
5930.0 0.012563
5950.0 0.012507
5970.0 0.012364
5990.0 0.012181
6010.0 0.012415
6030.0 0.012463
6050.0 0.012184
6070.0 0.012213
6090.0 0.012175
6110.0 0.012196
6130.0 0.012187
6150.0 0.011822
6170.0 0.010948
6190.0 0.010119
6210.0 0.0097586
6230.0 0.009603
6250.0 0.0096582
6270.0 0.010023
6290.0 0.010316
6310.0 0.010655
6330.0 0.010962
6350.0 0.011123
6370.0 0.011132
6390.0 0.010852
6410.0 0.010625
6430.0 0.010308
6450.0 0.010051
6470.0 0.0099004
6490.0 0.0099154
6510.0 0.0099113
6530.0 0.0098894
6550.0 0.0096821
6570.0 0.0095184
6590.0 0.0094526
6610.0 0.0092322
6630.0 0.0091094
6650.0 0.0089545
6670.0 0.0086759
6690.0 0.0083961
6710.0 0.0081801
6730.0 0.0080953
6750.0 0.0079666
6770.0 0.0078867
6790.0 0.0078894
6810.0 0.0077577
6830.0 0.0076723
6850.0 0.0075888
6870.0 0.0074073
6890.0 0.0073707
6910.0 0.0073077
6930.0 0.0071662
6950.0 0.0071682
6970.0 0.0070805
6990.0 0.0070786
7010.0 0.0069607
7030.0 0.0068942
7050.0 0.0068559
7070.0 0.0067226
7090.0 0.0065234
7110.0 0.006356
7130.0 0.0063635
7150.0 0.0064457
7170.0 0.0064902
7190.0 0.0066054
7210.0 0.0066755
7230.0 0.0067487
7250.0 0.0068239
7270.0 0.0066851
7290.0 0.0066394
7310.0 0.0065085
7330.0 0.0062556
7350.0 0.0061278
7370.0 0.0060382
7390.0 0.0059606
7410.0 0.0060065
7430.0 0.005967
7450.0 0.0058666
7470.0 0.0057556
7490.0 0.005554
7510.0 0.0052085
7530.0 0.0053562
7550.0 0.0054002
7570.0 0.005318
7590.0 0.004934
7610.0 0.005043
7630.0 0.0050058
7650.0 0.0050391
7670.0 0.0050331
7690.0 0.0051511
7710.0 0.0050858
7730.0 0.005295
7750.0 0.005404
7770.0 0.0056504
7790.0 0.0058646
7810.0 0.0060011
7830.0 0.0062327
7850.0 0.0061993
7870.0 0.0063052
7890.0 0.0062133
7910.0 0.0060103
7930.0 0.0059308
7950.0 0.0058717
7970.0 0.0058204
7990.0 0.0058308
8010.0 0.0053115
8030.0 0.0052792
8050.0 0.005173
8070.0 0.0051237
8090.0 0.0049673
8110.0 0.005005
8130.0 0.0050771
8150.0 0.005172
8170.0 0.0051246
8190.0 0.0052111
8210.0 0.0051432
8230.0 0.0048898
8250.0 0.0048134
8270.0 0.004729
8290.0 0.0046473
8310.0 0.0044664
8330.0 0.0045161
8350.0 0.0044999
8370.0 0.0045098
8390.0 0.0045877
8410.0 0.0045565
8430.0 0.00461
8450.0 0.0046617
8470.0 0.0047025
8490.0 0.004762
8510.0 0.0046737
8530.0 0.0045036
8550.0 0.0045394
8570.0 0.00454
8590.0 0.0043988
8610.0 0.0044913
8630.0 0.0044272
8650.0 0.0043414
8670.0 0.0043119
8690.0 0.0043016
8710.0 0.0041227
8730.0 0.0041887
8750.0 0.0040488
8770.0 0.0040331
8790.0 0.003918
8810.0 0.0038681
8830.0 0.0038722
8850.0 0.0037075
8870.0 0.0035228
8890.0 0.0034774
8910.0 0.0032811
8930.0 0.0030311
8950.0 0.0030303
8970.0 0.0029219
8990.0 0.0028992
9010.0 0.0028712
9030.0 0.002851
9050.0 0.0028308
9070.0 0.0028105
9090.0 0.00279
9110.0 0.0027692
9130.0 0.0027485
9150.0 0.0027279
9170.0 0.0027073
9190.0 0.0026865
9210.0 0.0026657
9230.0 0.0026449
9250.0 0.002624
9270.0 0.0026031
9290.0 0.0025822
9310.0 0.0025613
9330.0 0.0025405
9350.0 0.0025197
9370.0 0.0024989
9390.0 0.0024782
9410.0 0.0024575
9430.0 0.0024369
9450.0 0.0024163
9470.0 0.0023974
9490.0 0.0023777
9510.0 0.0023565
9530.0 0.0023357
9550.0 0.0023152
9570.0 0.002295
9590.0 0.002275
9610.0 0.0022552
9630.0 0.0022356
9650.0 0.0022161
9670.0 0.0021966
9690.0 0.0021774
9710.0 0.0021584
9730.0 0.0021394
9750.0 0.0021206
9770.0 0.0021021
9790.0 0.0020836
9810.0 0.0020653
9830.0 0.0020469
9850.0 0.0020262
9870.0 0.0020077
9890.0 0.0019917
9910.0 0.0019753
9930.0 0.0019555
9950.0 0.0019384
9970.0 0.001923
9990.0 0.0019072
10010.0 0.0018913
10030.0 0.0018754
10050.0 0.0018594
10070.0 0.0018437
10090.0 0.0018283
10110.0 0.0018126
10130.0 0.0017971
10150.0 0.0017821
10170.0 0.0017673
10190.0 0.0017523
10210.0 0.0017379
10230.0 0.0017237
10250.0 0.0017094
10270.0 0.0016954
10290.0 0.0016818
10310.0 0.0016682
10330.0 0.0016546
10350.0 0.0016414
10370.0 0.0016285
10390.0 0.0016155
10410.0 0.0016026
10430.0 0.0015902
10450.0 0.0015781
10470.0 0.0015659
10490.0 0.0015541
10510.0 0.0015426
10530.0 0.0015308
10550.0 0.0015193
10570.0 0.0015083
10590.0 0.0014972
10610.0 0.0014862
10630.0 0.0014756
10650.0 0.0014652
10670.0 0.0014546
10690.0 0.0014444
10710.0 0.0014345
10730.0 0.0014245
10750.0 0.0014145
10770.0 0.0014051
10790.0 0.0013957
10810.0 0.0013863
10830.0 0.0013771
10850.0 0.0013683
10870.0 0.0013593
10890.0 0.0013505
10910.0 0.0013422
10930.0 0.001334
10950.0 0.0013259
10970.0 0.0013183
10990.0 0.0013112
11010.0 0.0013996
11030.0 0.0013943
11050.0 0.001389
11070.0 0.0013836
11090.0 0.0013775
11110.0 0.0013713
11130.0 0.0013648
11150.0 0.0013576
11170.0 0.00135
11190.0 0.0013424
11210.0 0.0013344
11230.0 0.0013261
11250.0 0.001318
11270.0 0.0013102
11290.0 0.0013021
11310.0 0.0012943
11330.0 0.0012873
11350.0 0.0012805
11370.0 0.0012738
11390.0 0.0012678
11410.0 0.0012622
11430.0 0.0012565
11450.0 0.0012512
11470.0 0.0012462
11490.0 0.0012411
11510.0 0.0012357
11530.0 0.0012305
11550.0 0.0012253
11570.0 0.0012195
11590.0 0.0012135
11610.0 0.0012076
11630.0 0.0012012
11650.0 0.0011944
11670.0 0.0011879
11690.0 0.0011813
11710.0 0.0011745
11730.0 0.0011677
11750.0 0.0011615
11770.0 0.0011549
11790.0 0.0011484
11810.0 0.0011424
11830.0 0.0011364
11850.0 0.0011302
11870.0 0.0011245
11890.0 0.0011192
11910.0 0.0011138
11930.0 0.0011087
11950.0 0.0011042
11970.0 0.0011
11990.0 0.001096
12010.0 0.0010927
12030.0 0.0010902
12050.0 0.0010881
12070.0 0.0010866
12090.0 0.0010861
12110.0 0.0010862
12130.0 0.0010869
12150.0 0.0010883
12170.0 0.0010904
12190.0 0.0010929
12210.0 0.0010958
12230.0 0.0010991
12250.0 0.0011027
12270.0 0.0011065
12290.0 0.0011102
12310.0 0.001114
12330.0 0.0011176
12350.0 0.0011211
12370.0 0.0011244
12390.0 0.0011273
12410.0 0.0011298
12430.0 0.0011318
12450.0 0.0011334
12470.0 0.0011343
12490.0 0.0011345
12510.0 0.0011341
12530.0 0.0011328
12550.0 0.0011306
12570.0 0.0011277
12590.0 0.001124
12610.0 0.0011192
12630.0 0.0011136
12650.0 0.0011076
12670.0 0.0011007
12690.0 0.001093
12710.0 0.0010851
12730.0 0.0010768
12750.0 0.0010676
12770.0 0.0010584
12790.0 0.0010493
12810.0 0.0010399
12830.0 0.0010303
12850.0 0.0010213
12870.0 0.0010125
12890.0 0.0010037
12910.0 0.0009953
12930.0 0.0009876
12950.0 0.00097996
12970.0 0.00097259
12990.0 0.00096604
13010.0 0.00095987
13030.0 0.00095384
13050.0 0.00094827
13070.0 0.00094322
13090.0 0.00093818
13110.0 0.00093332
13130.0 0.00092884
13150.0 0.0009245
13170.0 0.00092006
13190.0 0.0009159
13210.0 0.00091198
13230.0 0.000908
13250.0 0.00090404
13270.0 0.00090028
13290.0 0.00089648
13310.0 0.00089248
13330.0 0.00088854
13350.0 0.00088457
13370.0 0.00088033
13390.0 0.00087581
13410.0 0.00087136
13430.0 0.0008666
13450.0 0.00086147
13470.0 0.0008562
13490.0 0.00085084
13510.0 0.00084491
13530.0 0.00083881
13550.0 0.00083273
13570.0 0.00082638
13590.0 0.00081968
13610.0 0.00081302
13630.0 0.0008064
13650.0 0.00079937
13670.0 0.00079227
13690.0 0.00078529
13710.0 0.00077812
13730.0 0.00077054
13750.0 0.00076327
13770.0 0.00075601
13790.0 0.00074849
13810.0 0.00074097
13830.0 0.00073373
13850.0 0.00072628
13870.0 0.00071874
13890.0 0.00071147
13910.0 0.00070432
13930.0 0.000697
13950.0 0.00068981
13970.0 0.00068305
13990.0 0.00067621
14010.0 0.0006694
14030.0 0.00066289
14050.0 0.00065652
14070.0 0.00064997
14090.0 0.00064365
14110.0 0.00063757
14130.0 0.00063142
14150.0 0.00062523
14170.0 0.00061933
14190.0 0.00061348
14210.0 0.00060751
14230.0 0.00060168
14250.0 0.00059604
14270.0 0.0005903
14290.0 0.00058458
14310.0 0.00057918
14330.0 0.00057388
14350.0 0.00056858
14370.0 0.00056352
14390.0 0.00055874
14410.0 0.00055396
14430.0 0.00054933
14450.0 0.00054497
14470.0 0.00054072
14490.0 0.00053646
14510.0 0.00053241
14530.0 0.00052852
14550.0 0.00052462
14570.0 0.00052075
14590.0 0.00051703
14610.0 0.00051329
14630.0 0.00050949
14650.0 0.00050579
14670.0 0.00050215
14690.0 0.00049845
14710.0 0.00049475
14730.0 0.00049121
14750.0 0.00048766
14770.0 0.00048409
14790.0 0.00048063
14810.0 0.00047725
14830.0 0.00047379
14850.0 0.0004704
14870.0 0.00046713
14890.0 0.00046386
14910.0 0.00046058
14930.0 0.00045742
14950.0 0.00045437
14970.0 0.00045133
14990.0 0.00044841
15010.0 0.00044566
15030.0 0.00044301
15050.0 0.0004404
15070.0 0.00043797
15090.0 0.00043561
15110.0 0.00043326
15130.0 0.00043096
15150.0 0.00042873
15170.0 0.00042647
15190.0 0.00042421
15210.0 0.000422
15230.0 0.0004198
15250.0 0.00041757
15270.0 0.00041537
15290.0 0.00041322
15310.0 0.00041106
15330.0 0.00040889
15350.0 0.00040677
15370.0 0.00040467
15390.0 0.00040252
15410.0 0.00040042
15430.0 0.00039836
15450.0 0.00039628
15470.0 0.0003942
15490.0 0.00039218
15510.0 0.00039017
15530.0 0.00038814
15550.0 0.00038614
15570.0 0.00038419
15590.0 0.00038221
15610.0 0.00038023
15630.0 0.00037831
15650.0 0.0003764
15670.0 0.00037447
15690.0 0.00037259
15710.0 0.00037074
15730.0 0.00036887
15750.0 0.00036702
15770.0 0.00036521
15790.0 0.00036341
15810.0 0.00036158
15830.0 0.0003598
15850.0 0.00035807
15870.0 0.00035631
15890.0 0.00035457
15910.0 0.00035288
15930.0 0.00035119
15950.0 0.00034948
15970.0 0.00034782
15990.0 0.00034619
16010.0 0.00034455
16030.0 0.00034291
16050.0 0.00034134
16070.0 0.00033976
16090.0 0.00033818
16110.0 0.00033663
16130.0 0.00033512
16150.0 0.00033358
16170.0 0.00033206
16190.0 0.00033059
16210.0 0.00032912
16230.0 0.00032764
16250.0 0.00032621
16270.0 0.00032481
16290.0 0.00032338
16310.0 0.00032198
16330.0 0.00032062
16350.0 0.00031926
16370.0 0.00031787
16390.0 0.00031655
16410.0 0.00031525
16430.0 0.00031393
16450.0 0.00031263
16470.0 0.00031139
16490.0 0.00031012
16510.0 0.00030885
16530.0 0.00030763
16550.0 0.00030642
16570.0 0.00030519
16590.0 0.00030398
16610.0 0.00030283
16630.0 0.00030166
16650.0 0.0003005
16670.0 0.00029938
16690.0 0.00029826
16710.0 0.00029712
16730.0 0.00029602
16750.0 0.00029495
16770.0 0.00029386
16790.0 0.00029278
16810.0 0.00029175
16830.0 0.00029072
16850.0 0.00028967
16870.0 0.00028866
16890.0 0.00028767
16910.0 0.00028666
16930.0 0.00028565
16950.0 0.0002847
16970.0 0.00028375
16990.0 0.00028278
17010.0 0.00028184
17030.0 0.00028093
17050.0 0.00028
17070.0 0.00027907
17090.0 0.00027819
17110.0 0.0002773
17130.0 0.00027638
17150.0 0.00027551
17170.0 0.00027467
17190.0 0.0002738
17210.0 0.00027295
17230.0 0.00027213
17250.0 0.0002713
17270.0 0.00027045
17290.0 0.00026964
17310.0 0.00026885
17330.0 0.00026803
17350.0 0.00026722
17370.0 0.00026646
17390.0 0.00026568
17410.0 0.0002649
17430.0 0.00026414
17450.0 0.0002634
17470.0 0.00026262
17490.0 0.00026186
17510.0 0.00026114
17530.0 0.0002604
17550.0 0.00025965
17570.0 0.00025893
17590.0 0.00025823
17610.0 0.0002575
17630.0 0.00025678
17650.0 0.0002561
17670.0 0.00025539
17690.0 0.00025466
17710.0 0.00025398
17730.0 0.00025331
17750.0 0.00025261
17770.0 0.00025192
17790.0 0.00025127
17810.0 0.00025058
17830.0 0.00024989
17850.0 0.00024923
17870.0 0.00024857
17890.0 0.00024788
17910.0 0.00024721
17930.0 0.00024658
17950.0 0.00024591
17970.0 0.00024524
17990.0 0.0002446
18010.0 0.00024396
18030.0 0.00024328
18050.0 0.00024262
18070.0 0.00024199
18090.0 0.00024133
18110.0 0.00024066
18130.0 0.00024003
18150.0 0.0002394
18170.0 0.00023873
18190.0 0.00023808
18210.0 0.00023745
18230.0 0.00023679
18250.0 0.00023611
18270.0 0.00023548
18290.0 0.00023484
18310.0 0.00023417
18330.0 0.00023352
18350.0 0.00023289
18370.0 0.00023222
18390.0 0.00023155
18410.0 0.00023091
18430.0 0.00023025
18450.0 0.00022956
18470.0 0.0002289
18490.0 0.00022825
18510.0 0.00022757
18530.0 0.00022689
18550.0 0.00022625
18570.0 0.00022557
18590.0 0.00022486
18610.0 0.00022419
18630.0 0.00022352
18650.0 0.00022281
18670.0 0.0002221
18690.0 0.00022144
18710.0 0.00022074
18730.0 0.00022002
18750.0 0.00021933
18770.0 0.00021864
18790.0 0.00021789
18810.0 0.00021717
18830.0 0.00021647
18850.0 0.00021574
18870.0 0.00021499
18890.0 0.00021427
18910.0 0.00021355
18930.0 0.00021279
18950.0 0.00021204
18970.0 0.00021131
18990.0 0.00021055
19010.0 0.00020975
19030.0 0.000209
19050.0 0.00020825
19070.0 0.00020745
19090.0 0.00020667
19110.0 0.00020592
19130.0 0.00020511
19150.0 0.0002043
19170.0 0.00020351
19190.0 0.00020271
19210.0 0.00020187
19230.0 0.00020105
19250.0 0.00020025
19270.0 0.00019942
19290.0 0.00019857
19310.0 0.00019775
19330.0 0.00019692
19350.0 0.00019603
19370.0 0.00019518
19390.0 0.00019434
19410.0 0.00019346
19430.0 0.00019257
19450.0 0.00019171
19470.0 0.00019084
19490.0 0.00018993
19510.0 0.00018904
19530.0 0.00018816
19550.0 0.00018723
19570.0 0.0001863
19590.0 0.0001854
19610.0 0.00018448
19630.0 0.00018354
19650.0 0.00018261
19670.0 0.0001817
19690.0 0.00018073
19710.0 0.00017977
19730.0 0.00017883
19750.0 0.00017787
19770.0 0.00017687
19790.0 0.00017591
19810.0 0.00017495
19830.0 0.00017396
19850.0 0.00017297
19870.0 0.000172
19890.0 0.000171
19910.0 0.00016998
19930.0 0.000169
19950.0 0.00016803
19970.0 0.00016705
19990.0 0.00016608
20010.0 0.00016517
20030.0 0.00016425
20050.0 0.00016334
20070.0 0.00016246
20090.0 0.0001616
20110.0 0.0001607
20130.0 0.00015982
20150.0 0.00015897
20170.0 0.00015809
20190.0 0.0001572
20210.0 0.00015633
20230.0 0.00015547
20250.0 0.00015458
20270.0 0.0001537
20290.0 0.00015286
20310.0 0.000152
20330.0 0.00015114
20350.0 0.00015034
20370.0 0.00014954
20390.0 0.00014875
20410.0 0.00014799
20430.0 0.00014726
20450.0 0.00014653
20470.0 0.00014584
20490.0 0.00014518
20510.0 0.00014455
20530.0 0.00014394
20550.0 0.00014337
20570.0 0.00014285
20590.0 0.00014235
20610.0 0.00014189
20630.0 0.00014147
20650.0 0.00014108
20670.0 0.00014074
20690.0 0.00014043
20710.0 0.00014014
20730.0 0.00013989
20750.0 0.00013966
20770.0 0.00013943
20790.0 0.00013922
20810.0 0.00013901
20830.0 0.00013879
20850.0 0.00013854
20870.0 0.00013828
20890.0 0.00013798
20910.0 0.00013763
20930.0 0.00013724
20950.0 0.00013679
20970.0 0.00013629
20990.0 0.00013573
21010.0 0.00013509
21030.0 0.0001344
21050.0 0.00013365
21070.0 0.00013284
21090.0 0.00013196
21110.0 0.00013105
21130.0 0.00013011
21150.0 0.0001291
21170.0 0.00012807
21190.0 0.00012704
21210.0 0.00012597
21230.0 0.00012487
21250.0 0.00012379
21270.0 0.0001227
21290.0 0.0001216
21310.0 0.0001205
21330.0 0.00011944
21350.0 0.00011835
21370.0 0.00011726
21390.0 0.00011619
21410.0 0.00011513
21430.0 0.00011402
21450.0 0.00011293
21470.0 0.00011185
21490.0 0.00011075
21510.0 0.00010962
21530.0 0.00010851
21550.0 0.00010739
21570.0 0.00010623
21590.0 0.00010508
21610.0 0.00010393
21630.0 0.00010276
21650.0 0.00010157
21670.0 0.00010043
21690.0 9.9273e-05
21710.0 9.8105e-05
21730.0 9.6961e-05
21750.0 9.5849e-05
21770.0 9.471e-05
21790.0 9.359e-05
21810.0 9.2511e-05
21830.0 9.1441e-05
21850.0 9.0366e-05
21870.0 8.9327e-05
21890.0 8.8322e-05
21910.0 8.7308e-05
21930.0 8.6308e-05
21950.0 8.5341e-05
21970.0 8.4377e-05
21990.0 8.3396e-05
22010.0 8.2448e-05
22030.0 8.1514e-05
22050.0 8.0564e-05
22070.0 7.9616e-05
22090.0 7.8693e-05
22110.0 7.7755e-05
22130.0 7.6801e-05
22150.0 7.5862e-05
22170.0 7.4928e-05
22190.0 7.3965e-05
22210.0 7.3003e-05
22230.0 7.2069e-05
22250.0 7.112e-05
22270.0 7.016e-05
22290.0 6.9222e-05
22310.0 6.8294e-05
22330.0 6.7342e-05
22350.0 6.6408e-05
22370.0 6.55e-05
22390.0 6.459e-05
22410.0 6.3674e-05
22430.0 6.2801e-05
22450.0 6.1946e-05
22470.0 6.1089e-05
22490.0 6.0256e-05
22510.0 5.9462e-05
22530.0 5.8667e-05
22550.0 5.7885e-05
22570.0 5.7147e-05
22590.0 5.643e-05
22610.0 5.572e-05
22630.0 5.5038e-05
22650.0 5.4394e-05
22670.0 5.3755e-05
22690.0 5.3132e-05
22710.0 5.2539e-05
22730.0 5.1965e-05
22750.0 5.1389e-05
22770.0 5.0843e-05
22790.0 5.0322e-05
22810.0 4.9808e-05
22830.0 4.9308e-05
22850.0 4.8837e-05
22870.0 4.8381e-05
22890.0 4.7934e-05
22910.0 4.7513e-05
22930.0 4.7117e-05
22950.0 4.6737e-05
22970.0 4.6375e-05
22990.0 4.6048e-05
23010.0 4.5741e-05
23030.0 4.5457e-05
23050.0 4.5201e-05
23070.0 4.4973e-05
23090.0 4.4769e-05
23110.0 4.4594e-05
23130.0 4.4446e-05
23150.0 4.4325e-05
23170.0 4.4233e-05
23190.0 4.4166e-05
23210.0 4.412e-05
23230.0 4.41e-05
23250.0 4.4101e-05
23270.0 4.4115e-05
23290.0 4.4145e-05
23310.0 4.4194e-05
23330.0 4.4242e-05
23350.0 4.4291e-05
23370.0 4.4344e-05
23390.0 4.4393e-05
23410.0 4.4429e-05
