#lamb flux
1010.0 0.0001499
1030.0 0.00014971
1050.0 0.00015114
1070.0 0.00015463
1090.0 0.0001607
1110.0 0.00016977
1130.0 0.00018164
1150.0 0.00019611
1170.0 0.00021284
1190.0 0.0002307
1210.0 0.00024922
1230.0 0.00026784
1250.0 0.00028529
1270.0 0.00030075
1290.0 0.00031442
1310.0 0.00032531
1330.0 0.00033274
1350.0 0.00033619
1370.0 0.00033271
1390.0 0.00032744
1410.0 0.00032075
1430.0 0.00031352
1450.0 0.00030564
1470.0 0.00029721
1490.0 0.00028877
1510.0 0.00028046
1530.0 0.00027185
1550.0 0.00026366
1570.0 0.00025614
1590.0 0.00024837
1610.0 0.00023869
1630.0 0.00022944
1650.0 0.0002206
1670.0 0.00021201
1690.0 0.00020366
1710.0 0.00019609
1730.0 0.00018852
1750.0 0.0001802
1770.0 0.00017161
1790.0 0.00016259
1810.0 0.00015302
1830.0 0.00013896
1850.0 0.00028699
1870.0 0.00046871
1890.0 0.00066461
1910.0 0.00087709
1930.0 0.0011084
1950.0 0.0013584
1970.0 0.0016288
1990.0 0.0019223
2010.0 0.0022381
2030.0 0.0025751
2050.0 0.0029361
2070.0 0.0033211
2090.0 0.0037237
2110.0 0.0041452
2130.0 0.0045859
2150.0 0.0050397
2170.0 0.0055006
2190.0 0.005972
2210.0 0.0064475
2230.0 0.0069178
2250.0 0.0073816
2270.0 0.00784
2290.0 0.0082798
2310.0 0.0086945
2330.0 0.0090887
2350.0 0.0094555
2370.0 0.0097842
2390.0 0.010078
2410.0 0.010339
2430.0 0.010553
2450.0 0.01072
2470.0 0.010845
2490.0 0.01093
2510.0 0.010972
2530.0 0.010995
2550.0 0.011032
2570.0 0.011116
2590.0 0.011292
2610.0 0.011667
2630.0 0.012294
2650.0 0.013165
2670.0 0.014342
2690.0 0.01585
2710.0 0.017521
2730.0 0.019263
2750.0 0.02114
2770.0 0.022957
2790.0 0.024583
2810.0 0.026083
2830.0 0.027497
2850.0 0.028647
2870.0 0.029666
2890.0 0.030656
2910.0 0.031607
2930.0 0.032511
2950.0 0.033491
2970.0 0.034549
2990.0 0.035632
3010.0 0.036775
3030.0 0.038032
3050.0 0.03935
3070.0 0.040647
3090.0 0.041985
3110.0 0.043288
3130.0 0.04445
3150.0 0.045437
3170.0 0.046213
3190.0 0.046756
3210.0 0.047167
3230.0 0.047585
3250.0 0.048239
3270.0 0.049342
3290.0 0.051005
3310.0 0.05336
3330.0 0.056357
3350.0 0.059831
3370.0 0.063818
3390.0 0.067959
3410.0 0.071932
3430.0 0.075543
3450.0 0.07861
3470.0 0.085965
3490.0 0.089108
3510.0 0.080671
3530.0 0.077004
3550.0 0.10032
3570.0 0.1207
3590.0 0.11938
3610.0 0.12841
3630.0 0.12863
3650.0 0.11818
3670.0 0.11907
3690.0 0.13559
3710.0 0.14952
3730.0 0.15644
3750.0 0.14146
3770.0 0.13961
3790.0 0.14527
3810.0 0.1403
3830.0 0.12266
3850.0 0.11131
3870.0 0.11774
3890.0 0.13129
3910.0 0.13964
3930.0 0.14343
3950.0 0.14897
3970.0 0.15216
3990.0 0.15329
4010.0 0.14813
4030.0 0.1345
4050.0 0.12649
4070.0 0.12894
4090.0 0.13665
4110.0 0.1413
4130.0 0.13946
4150.0 0.13816
4170.0 0.14006
4190.0 0.1429
4210.0 0.13775
4230.0 0.12543
4250.0 0.11255
4270.0 0.10404
4290.0 0.097694
4310.0 0.091864
4330.0 0.094333
4350.0 0.097408
4370.0 0.098049
4390.0 0.10026
4410.0 0.099233
4430.0 0.098116
4450.0 0.099655
4470.0 0.10061
4490.0 0.10838
4510.0 0.11277
4530.0 0.11694
4550.0 0.12113
4570.0 0.12612
4590.0 0.12887
4610.0 0.13065
4630.0 0.13191
4650.0 0.13412
4670.0 0.12544
4690.0 0.11599
4710.0 0.10808
4730.0 0.10463
4750.0 0.099482
4770.0 0.095741
4790.0 0.09386
4810.0 0.091382
4830.0 0.095285
4850.0 0.10445
4870.0 0.077225
4890.0 0.077707
4910.0 0.083918
4930.0 0.086483
4950.0 0.079188
4970.0 0.07353
4990.0 0.070862
5010.0 0.066323
5030.0 0.062879
5050.0 0.065134
5070.0 0.068876
5090.0 0.070974
5110.0 0.076634
5130.0 0.078711
5150.0 0.081762
5170.0 0.084816
5190.0 0.08355
5210.0 0.087477
5230.0 0.089364
5250.0 0.09039
5270.0 0.091638
5290.0 0.089505
5310.0 0.08694
5330.0 0.082675
5350.0 0.078554
5370.0 0.075355
5390.0 0.077259
5410.0 0.076657
5430.0 0.077361
5450.0 0.076989
5470.0 0.075787
5490.0 0.075124
5510.0 0.073239
5530.0 0.071574
5550.0 0.070541
5570.0 0.071138
5590.0 0.071802
5610.0 0.072461
5630.0 0.070859
5650.0 0.069435
5670.0 0.066394
5690.0 0.064902
5710.0 0.062904
5730.0 0.062632
5750.0 0.061363
5770.0 0.059196
5790.0 0.061102
5810.0 0.061065
5830.0 0.062736
5850.0 0.063362
5870.0 0.063882
5890.0 0.062696
5910.0 0.062502
5930.0 0.060606
5950.0 0.061139
5970.0 0.059765
5990.0 0.058766
6010.0 0.058664
6030.0 0.059811
6050.0 0.059253
6070.0 0.057927
6090.0 0.057411
6110.0 0.058266
6130.0 0.05736
6150.0 0.055308
6170.0 0.052322
6190.0 0.049232
6210.0 0.046901
6230.0 0.0465
6250.0 0.046933
6270.0 0.047956
6290.0 0.049911
6310.0 0.053208
6330.0 0.054788
6350.0 0.05489
6370.0 0.05525
6390.0 0.054953
6410.0 0.053807
6430.0 0.05239
6450.0 0.051727
6470.0 0.051624
6490.0 0.051257
6510.0 0.050723
6530.0 0.050668
6550.0 0.050184
6570.0 0.048149
6590.0 0.047572
6610.0 0.0471
6630.0 0.045466
6650.0 0.043916
6670.0 0.042688
6690.0 0.042396
6710.0 0.041127
6730.0 0.040448
6750.0 0.039806
6770.0 0.03889
6790.0 0.039106
6810.0 0.038555
6830.0 0.037382
6850.0 0.036969
6870.0 0.036757
6890.0 0.036133
6910.0 0.035879
6930.0 0.035645
6950.0 0.035026
6970.0 0.034262
6990.0 0.034226
7010.0 0.033996
7030.0 0.034206
7050.0 0.033234
7070.0 0.032773
7090.0 0.032896
7110.0 0.031942
7130.0 0.03187
7150.0 0.032197
7170.0 0.032709
7190.0 0.032174
7210.0 0.032271
7230.0 0.032844
7250.0 0.032067
7270.0 0.032477
7290.0 0.031955
7310.0 0.031109
7330.0 0.029644
7350.0 0.029896
7370.0 0.030032
7390.0 0.029385
7410.0 0.028624
7430.0 0.028178
7450.0 0.027831
7470.0 0.028172
7490.0 0.028764
7510.0 0.02825
7530.0 0.027191
7550.0 0.027341
7570.0 0.025145
7590.0 0.02468
7610.0 0.024177
7630.0 0.024556
7650.0 0.024032
7670.0 0.024936
7690.0 0.023943
7710.0 0.025435
7730.0 0.025524
7750.0 0.027887
7770.0 0.028636
7790.0 0.029595
7810.0 0.030834
7830.0 0.031209
7850.0 0.032182
7870.0 0.031509
7890.0 0.031186
7910.0 0.030629
7930.0 0.02957
7950.0 0.02873
7970.0 0.028633
7990.0 0.028325
8010.0 0.026113
8030.0 0.025948
8050.0 0.025455
8070.0 0.025186
8090.0 0.024622
8110.0 0.024812
8130.0 0.02502
8150.0 0.025341
8170.0 0.025047
8190.0 0.025267
8210.0 0.024857
8230.0 0.023484
8250.0 0.022913
8270.0 0.022508
8290.0 0.022175
8310.0 0.021582
8330.0 0.021923
8350.0 0.021741
8370.0 0.021667
8390.0 0.022066
8410.0 0.022098
8430.0 0.022574
8450.0 0.022979
8470.0 0.023078
8490.0 0.023313
8510.0 0.022972
8530.0 0.022294
8550.0 0.022482
8570.0 0.022533
8590.0 0.021949
8610.0 0.022452
8630.0 0.022228
8650.0 0.021759
8670.0 0.021633
8690.0 0.021636
8710.0 0.020876
8730.0 0.021082
8750.0 0.020374
8770.0 0.020214
8790.0 0.019715
8810.0 0.019509
8830.0 0.01934
8850.0 0.018307
8870.0 0.01733
8890.0 0.017055
8910.0 0.016027
8930.0 0.0148
8950.0 0.01476
8970.0 0.014354
8990.0 0.014277
9010.0 0.014176
9030.0 0.014082
9050.0 0.013982
9070.0 0.013881
9090.0 0.01378
9110.0 0.013677
9130.0 0.013575
9150.0 0.013473
9170.0 0.013371
9190.0 0.013269
9210.0 0.013166
9230.0 0.013064
9250.0 0.012961
9270.0 0.012859
9290.0 0.012756
9310.0 0.012654
9330.0 0.012552
9350.0 0.01245
9370.0 0.012348
9390.0 0.012246
9410.0 0.012145
9430.0 0.012044
9450.0 0.011943
9470.0 0.011849
9490.0 0.011752
9510.0 0.01165
9530.0 0.011548
9550.0 0.011449
9570.0 0.01135
9590.0 0.011253
9610.0 0.011156
9630.0 0.01106
9650.0 0.010964
9670.0 0.01087
9690.0 0.010776
9710.0 0.010682
9730.0 0.01059
9750.0 0.010498
9770.0 0.010407
9790.0 0.010317
9810.0 0.010227
9830.0 0.010136
9850.0 0.010032
9870.0 0.0099439
9890.0 0.0098652
9910.0 0.0097851
9930.0 0.00969
9950.0 0.0096068
9970.0 0.00953
9990.0 0.009451
10010.0 0.0093703
10030.0 0.0092905
10050.0 0.0092127
10070.0 0.0091359
10090.0 0.0090601
10110.0 0.0089826
10130.0 0.0089052
10150.0 0.0088312
10170.0 0.0087575
10190.0 0.0086831
10210.0 0.0086112
10230.0 0.0085407
10250.0 0.0084694
10270.0 0.0083992
10290.0 0.0083314
10310.0 0.008263
10330.0 0.0081943
10350.0 0.0081283
10370.0 0.0080633
10390.0 0.0079977
10410.0 0.0079329
10430.0 0.0078706
10450.0 0.0078085
10470.0 0.0077463
10490.0 0.0076862
10510.0 0.007627
10530.0 0.0075664
10550.0 0.0075075
10570.0 0.0074509
10590.0 0.0073939
10610.0 0.0073369
10630.0 0.0072823
10650.0 0.0072282
10670.0 0.0071731
10690.0 0.0071197
10710.0 0.0070679
10730.0 0.0070156
10750.0 0.0069629
10770.0 0.0069133
10790.0 0.0068638
10810.0 0.0068138
10830.0 0.0067652
10850.0 0.0067185
10870.0 0.0066703
10890.0 0.0066231
10910.0 0.0065783
10930.0 0.0065345
10950.0 0.006491
10970.0 0.0064501
10990.0 0.0064124
11010.0 0.0064271
11030.0 0.0063978
11050.0 0.0063705
11070.0 0.0063434
11090.0 0.0063145
11110.0 0.0062858
11130.0 0.0062561
11150.0 0.0062237
11170.0 0.0061896
11190.0 0.0061556
11210.0 0.0061196
11230.0 0.0060818
11250.0 0.0060449
11270.0 0.0060087
11290.0 0.0059715
11310.0 0.0059352
11330.0 0.0059025
11350.0 0.0058704
11370.0 0.0058395
11390.0 0.0058115
11410.0 0.0057859
11430.0 0.0057602
11450.0 0.0057365
11470.0 0.0057148
11490.0 0.0056931
11510.0 0.0056709
11530.0 0.0056499
11550.0 0.0056289
11570.0 0.0056061
11590.0 0.0055828
11610.0 0.0055599
11630.0 0.0055351
11650.0 0.0055087
11670.0 0.0054836
11690.0 0.0054584
11710.0 0.0054318
11730.0 0.0054059
11750.0 0.0053819
11770.0 0.005357
11790.0 0.0053322
11810.0 0.0053092
11830.0 0.005287
11850.0 0.0052635
11870.0 0.0052419
11890.0 0.0052222
11910.0 0.0052025
11930.0 0.0051836
11950.0 0.0051675
11970.0 0.0051528
11990.0 0.005139
12010.0 0.0051284
12030.0 0.0051212
12050.0 0.0051163
12070.0 0.0051146
12090.0 0.0051173
12110.0 0.0051233
12130.0 0.0051326
12150.0 0.0051456
12170.0 0.0051618
12190.0 0.005181
12210.0 0.005203
12230.0 0.005227
12250.0 0.0052528
12270.0 0.0052804
12290.0 0.0053086
12310.0 0.005337
12330.0 0.0053659
12350.0 0.0053944
12370.0 0.0054217
12390.0 0.005448
12410.0 0.0054729
12430.0 0.0054952
12450.0 0.0055149
12470.0 0.0055316
12490.0 0.0055447
12510.0 0.0055544
12530.0 0.0055597
12550.0 0.0055601
12570.0 0.0055565
12590.0 0.0055486
12610.0 0.0055349
12630.0 0.0055164
12650.0 0.0054958
12670.0 0.0054702
12690.0 0.00544
12710.0 0.0054083
12730.0 0.0053747
12750.0 0.0053359
12770.0 0.0052966
12790.0 0.005258
12810.0 0.0052175
12830.0 0.0051754
12850.0 0.0051363
12870.0 0.0050984
12890.0 0.0050595
12910.0 0.005023
12930.0 0.0049897
12950.0 0.0049563
12970.0 0.004924
12990.0 0.0048958
13010.0 0.0048691
13030.0 0.0048429
13050.0 0.0048187
13070.0 0.0047972
13090.0 0.0047754
13110.0 0.0047545
13130.0 0.0047356
13150.0 0.0047175
13170.0 0.0046988
13190.0 0.0046818
13210.0 0.0046664
13230.0 0.0046506
13250.0 0.0046351
13270.0 0.0046209
13290.0 0.0046065
13310.0 0.004591
13330.0 0.0045759
13350.0 0.0045607
13370.0 0.004544
13390.0 0.0045258
13410.0 0.0045082
13430.0 0.0044889
13450.0 0.0044676
13470.0 0.0044457
13490.0 0.0044234
13510.0 0.0043981
13530.0 0.0043719
13550.0 0.0043459
13570.0 0.0043184
13590.0 0.004289
13610.0 0.0042598
13630.0 0.0042307
13650.0 0.0041994
13670.0 0.0041678
13690.0 0.0041368
13710.0 0.0041047
13730.0 0.0040705
13750.0 0.0040381
13770.0 0.0040056
13790.0 0.0039718
13810.0 0.0039379
13830.0 0.0039054
13850.0 0.0038717
13870.0 0.0038371
13890.0 0.0038037
13910.0 0.0037706
13930.0 0.003736
13950.0 0.0037016
13970.0 0.003669
13990.0 0.0036354
14010.0 0.0036014
14030.0 0.0035685
14050.0 0.0035361
14070.0 0.0035021
14090.0 0.0034693
14110.0 0.0034377
14130.0 0.0034057
14150.0 0.0033734
14170.0 0.0033431
14190.0 0.0033132
14210.0 0.0032828
14230.0 0.0032535
14250.0 0.0032253
14270.0 0.0031966
14290.0 0.0031679
14310.0 0.0031408
14330.0 0.0031138
14350.0 0.0030865
14370.0 0.00306
14390.0 0.0030345
14410.0 0.0030084
14430.0 0.0029827
14450.0 0.002958
14470.0 0.0029337
14490.0 0.002909
14510.0 0.0028855
14530.0 0.002863
14550.0 0.0028404
14570.0 0.0028183
14590.0 0.0027972
14610.0 0.0027762
14630.0 0.0027551
14650.0 0.0027347
14670.0 0.0027148
14690.0 0.0026948
14710.0 0.0026748
14730.0 0.0026558
14750.0 0.0026368
14770.0 0.0026179
14790.0 0.0025995
14810.0 0.0025818
14830.0 0.0025639
14850.0 0.0025465
14870.0 0.00253
14890.0 0.0025137
14910.0 0.0024976
14930.0 0.0024822
14950.0 0.0024674
14970.0 0.0024526
14990.0 0.0024383
15010.0 0.0024246
15030.0 0.002411
15050.0 0.0023974
15070.0 0.0023843
15090.0 0.0023714
15110.0 0.0023583
15130.0 0.0023453
15150.0 0.0023325
15170.0 0.0023194
15190.0 0.0023063
15210.0 0.0022933
15230.0 0.0022803
15250.0 0.0022671
15270.0 0.0022539
15290.0 0.0022409
15310.0 0.0022277
15330.0 0.0022145
15350.0 0.0022013
15370.0 0.0021882
15390.0 0.0021749
15410.0 0.0021616
15430.0 0.0021485
15450.0 0.0021352
15470.0 0.0021219
15490.0 0.0021087
15510.0 0.0020956
15530.0 0.0020823
15550.0 0.002069
15570.0 0.002056
15590.0 0.0020427
15610.0 0.0020294
15630.0 0.0020163
15650.0 0.0020032
15670.0 0.00199
15690.0 0.0019769
15710.0 0.0019639
15730.0 0.0019508
15750.0 0.0019377
15770.0 0.0019247
15790.0 0.0019118
15810.0 0.0018987
15830.0 0.0018858
15850.0 0.001873
15870.0 0.0018601
15890.0 0.0018472
15910.0 0.0018345
15930.0 0.0018218
15950.0 0.001809
15970.0 0.0017963
15990.0 0.0017838
16010.0 0.0017711
16030.0 0.0017585
16050.0 0.0017461
16070.0 0.0017337
16090.0 0.0017212
16110.0 0.0017089
16130.0 0.0016967
16150.0 0.0016844
16170.0 0.0016721
16190.0 0.00166
16210.0 0.001648
16230.0 0.0016358
16250.0 0.0016239
16270.0 0.0016121
16290.0 0.0016001
16310.0 0.0015883
16330.0 0.0015767
16350.0 0.001565
16370.0 0.0015532
16390.0 0.0015417
16410.0 0.0015302
16430.0 0.0015187
16450.0 0.0015073
16470.0 0.0014961
16490.0 0.0014849
16510.0 0.0014736
16530.0 0.0014625
16550.0 0.0014515
16570.0 0.0014404
16590.0 0.0014295
16610.0 0.0014187
16630.0 0.0014079
16650.0 0.0013972
16670.0 0.0013866
16690.0 0.0013761
16710.0 0.0013654
16730.0 0.001355
16750.0 0.0013447
16770.0 0.0013344
16790.0 0.0013241
16810.0 0.001314
16830.0 0.001304
16850.0 0.0012939
16870.0 0.001284
16890.0 0.0012742
16910.0 0.0012643
16930.0 0.0012545
16950.0 0.0012449
16970.0 0.0012354
16990.0 0.0012258
17010.0 0.0012164
17030.0 0.0012072
17050.0 0.0011978
17070.0 0.0011886
17090.0 0.0011795
17110.0 0.0011705
17130.0 0.0011614
17150.0 0.0011525
17170.0 0.0011438
17190.0 0.001135
17210.0 0.0011263
17230.0 0.0011178
17250.0 0.0011093
17270.0 0.0011007
17290.0 0.0010924
17310.0 0.0010841
17330.0 0.0010759
17350.0 0.0010677
17370.0 0.0010597
17390.0 0.0010517
17410.0 0.0010437
17430.0 0.0010359
17450.0 0.0010282
17470.0 0.0010204
17490.0 0.0010128
17510.0 0.0010053
17530.0 0.00099787
17550.0 0.00099041
17570.0 0.00098314
17590.0 0.00097597
17610.0 0.00096876
17630.0 0.00096165
17650.0 0.00095471
17670.0 0.00094777
17690.0 0.00094079
17710.0 0.00093406
17730.0 0.0009274
17750.0 0.00092072
17770.0 0.00091415
17790.0 0.00090775
17810.0 0.0009013
17830.0 0.00089491
17850.0 0.00088868
17870.0 0.00088252
17890.0 0.00087634
17910.0 0.00087027
17930.0 0.00086438
17950.0 0.00085847
17970.0 0.00085261
17990.0 0.00084691
18010.0 0.00084127
18030.0 0.00083557
18050.0 0.00083004
18070.0 0.00082463
18090.0 0.00081921
18110.0 0.00081384
18130.0 0.00080865
18150.0 0.00080351
18170.0 0.00079835
18190.0 0.00079332
18210.0 0.00078842
18230.0 0.00078347
18250.0 0.00077858
18270.0 0.00077388
18290.0 0.00076921
18310.0 0.00076454
18330.0 0.00076001
18350.0 0.0007556
18370.0 0.00075114
18390.0 0.00074676
18410.0 0.00074253
18430.0 0.00073832
18450.0 0.00073409
18470.0 0.00073003
18490.0 0.00072607
18510.0 0.00072209
18530.0 0.00071819
18550.0 0.00071444
18570.0 0.00071068
18590.0 0.00070692
18610.0 0.00070331
18630.0 0.00069979
18650.0 0.00069624
18670.0 0.00069276
18690.0 0.00068946
18710.0 0.00068615
18730.0 0.00068285
18750.0 0.00067968
18770.0 0.00067661
18790.0 0.00067344
18810.0 0.00067041
18830.0 0.0006675
18850.0 0.0006646
18870.0 0.00066171
18890.0 0.00065897
18910.0 0.00065629
18930.0 0.00065357
18950.0 0.00065094
18970.0 0.00064844
18990.0 0.00064592
19010.0 0.00064337
19030.0 0.00064103
19050.0 0.00063872
19070.0 0.00063639
19090.0 0.00063415
19110.0 0.00063204
19130.0 0.00062986
19150.0 0.00062773
19170.0 0.00062572
19190.0 0.00062376
19210.0 0.00062176
19230.0 0.00061985
19250.0 0.00061808
19270.0 0.00061626
19290.0 0.00061447
19310.0 0.00061282
19330.0 0.00061118
19350.0 0.00060947
19370.0 0.0006079
19390.0 0.00060642
19410.0 0.0006049
19430.0 0.0006034
19450.0 0.00060205
19470.0 0.00060071
19490.0 0.00059932
19510.0 0.00059804
19530.0 0.00059684
19550.0 0.00059557
19570.0 0.00059433
19590.0 0.00059324
19610.0 0.00059215
19630.0 0.00059102
19650.0 0.00059
19670.0 0.00058905
19690.0 0.00058802
19710.0 0.00058704
19730.0 0.00058617
19750.0 0.00058529
19770.0 0.00058435
19790.0 0.00058354
19810.0 0.00058279
19830.0 0.00058198
19850.0 0.00058121
19870.0 0.00058056
19890.0 0.00057984
19910.0 0.00057908
19930.0 0.00057843
19950.0 0.00057781
19970.0 0.0005771
19990.0 0.00057638
20010.0 0.00057577
20030.0 0.00057502
20050.0 0.00057416
20070.0 0.00057333
20090.0 0.00057246
20110.0 0.00057134
20130.0 0.00057024
20150.0 0.0005692
20170.0 0.00056803
20190.0 0.00056678
20210.0 0.00056567
20230.0 0.00056457
20250.0 0.00056336
20270.0 0.00056227
20290.0 0.00056132
20310.0 0.00056036
20330.0 0.00055939
20350.0 0.00055872
20370.0 0.00055812
20390.0 0.00055756
20410.0 0.00055718
20430.0 0.00055701
20450.0 0.00055685
20470.0 0.00055686
20490.0 0.0005571
20510.0 0.00055749
20530.0 0.00055799
20550.0 0.00055872
20570.0 0.0005597
20590.0 0.00056083
20610.0 0.00056216
20630.0 0.00056374
20650.0 0.00056552
20670.0 0.00056749
20690.0 0.00056968
20710.0 0.00057206
20730.0 0.0005746
20750.0 0.00057729
20770.0 0.00058008
20790.0 0.00058294
20810.0 0.00058584
20830.0 0.00058871
20850.0 0.00059153
20870.0 0.00059425
20890.0 0.00059681
20910.0 0.00059919
20930.0 0.00060134
20950.0 0.00060321
20970.0 0.00060482
20990.0 0.00060617
21010.0 0.00060715
21030.0 0.00060782
21050.0 0.00060826
21070.0 0.00060838
21090.0 0.00060813
21110.0 0.00060776
21130.0 0.00060722
21150.0 0.00060638
21170.0 0.00060542
21190.0 0.00060447
21210.0 0.0006033
21230.0 0.00060199
21250.0 0.0006008
21270.0 0.0005996
21290.0 0.00059828
21310.0 0.00059701
21330.0 0.00059592
21350.0 0.00059472
21370.0 0.00059348
21390.0 0.00059236
21410.0 0.00059126
21430.0 0.00058993
21450.0 0.00058869
21470.0 0.00058751
21490.0 0.00058616
21510.0 0.0005847
21530.0 0.00058331
21550.0 0.00058182
21570.0 0.0005801
21590.0 0.00057838
21610.0 0.00057668
21630.0 0.00057479
21650.0 0.00057272
21670.0 0.00057087
21690.0 0.00056891
21710.0 0.00056681
21730.0 0.00056477
21750.0 0.00056285
21770.0 0.00056068
21790.0 0.00055855
21810.0 0.00055657
21830.0 0.00055456
21850.0 0.00055243
21870.0 0.00055041
21890.0 0.00054852
21910.0 0.00054648
21930.0 0.00054442
21950.0 0.00054248
21970.0 0.00054047
21990.0 0.00053823
22010.0 0.00053613
22030.0 0.00053402
22050.0 0.00053172
22070.0 0.00052934
22090.0 0.00052705
22110.0 0.00052458
22130.0 0.00052191
22150.0 0.00051928
22170.0 0.00051662
22190.0 0.00051369
22210.0 0.0005107
22230.0 0.00050787
22250.0 0.00050488
22270.0 0.00050175
22290.0 0.00049875
22310.0 0.00049578
22330.0 0.00049259
22350.0 0.00048948
22370.0 0.00048653
22390.0 0.00048351
22410.0 0.0004804
22430.0 0.00047755
22450.0 0.00047478
22470.0 0.00047195
22490.0 0.00046924
22510.0 0.00046674
22530.0 0.00046419
22550.0 0.00046168
22570.0 0.00045943
22590.0 0.00045728
22610.0 0.00045513
22630.0 0.00045314
22650.0 0.00045137
22670.0 0.00044959
22690.0 0.00044789
22710.0 0.00044636
22730.0 0.00044492
22750.0 0.00044345
22770.0 0.00044214
22790.0 0.00044096
22810.0 0.0004398
22830.0 0.0004387
22850.0 0.00043775
22870.0 0.00043687
22890.0 0.00043601
22910.0 0.0004353
22930.0 0.00043471
22950.0 0.00043419
22970.0 0.00043377
22990.0 0.00043355
23010.0 0.00043344
23030.0 0.00043348
23050.0 0.00043369
23070.0 0.00043407
23090.0 0.00043464
23110.0 0.00043541
23130.0 0.00043637
23150.0 0.00043753
23170.0 0.00043895
23190.0 0.00044054
23210.0 0.00044228
23230.0 0.00044426
23250.0 0.00044642
23270.0 0.00044864
23290.0 0.00045102
23310.0 0.00045358
23330.0 0.00045608
23350.0 0.00045856
23370.0 0.0004611
23390.0 0.00046357
23410.0 0.00046585
23430.0 0.00046811
23450.0 0.00046939
23470.0 0.00047026
23490.0 0.00047095
23510.0 0.00047158
23530.0 0.00047208
23550.0 0.00047243
23570.0 0.00047283
23590.0 0.00047333
23610.0 0.00047389
23630.0 0.00047459
23650.0 0.00047563
23670.0 0.00047687
23690.0 0.00047829
23710.0 0.00048003
23730.0 0.00048214
23750.0 0.00048429
23770.0 0.00048664
23790.0 0.00048934
23810.0 0.00049218
23830.0 0.00049507
23850.0 0.00049841
23870.0 0.00050211
23890.0 0.00050587
23910.0 0.00050997
