#lamb flux
1010.0 9.7321e-05
1030.0 9.7223e-05
1050.0 9.8025e-05
1070.0 9.9977e-05
1090.0 0.00010337
1110.0 0.00010842
1130.0 0.00011503
1150.0 0.00012309
1170.0 0.0001324
1190.0 0.00014234
1210.0 0.00015264
1230.0 0.000163
1250.0 0.0001727
1270.0 0.0001813
1290.0 0.0001889
1310.0 0.00019496
1330.0 0.00019908
1350.0 0.000201
1370.0 0.00019907
1390.0 0.00019614
1410.0 0.00019241
1430.0 0.00018839
1450.0 0.000184
1470.0 0.00017931
1490.0 0.00017461
1510.0 0.00016998
1530.0 0.00016518
1550.0 0.00016062
1570.0 0.00015644
1590.0 0.00015211
1610.0 0.00014673
1630.0 0.00014159
1650.0 0.00013668
1670.0 0.00013191
1690.0 0.00012727
1710.0 0.00012301
1730.0 0.00011873
1750.0 0.00011404
1770.0 0.00010919
1790.0 0.0001041
1810.0 9.8689e-05
1830.0 9.1699e-05
1850.0 0.00019018
1870.0 0.0003068
1890.0 0.00043255
1910.0 0.00056899
1930.0 0.00071754
1950.0 0.00087813
1970.0 0.0010518
1990.0 0.0012405
2010.0 0.0014434
2030.0 0.00166
2050.0 0.0018922
2070.0 0.0021398
2090.0 0.0023988
2110.0 0.00267
2130.0 0.0029537
2150.0 0.0032459
2170.0 0.0035428
2190.0 0.0038466
2210.0 0.0041532
2230.0 0.0044566
2250.0 0.0047561
2270.0 0.0050523
2290.0 0.0053366
2310.0 0.0056051
2330.0 0.0058605
2350.0 0.0060985
2370.0 0.0063122
2390.0 0.0065036
2410.0 0.0066737
2430.0 0.0068139
2450.0 0.0069236
2470.0 0.0070068
2490.0 0.0070631
2510.0 0.0070917
2530.0 0.0071081
2550.0 0.0071326
2570.0 0.0071877
2590.0 0.0073025
2610.0 0.0075458
2630.0 0.0079518
2650.0 0.0085171
2670.0 0.0092815
2690.0 0.010262
2710.0 0.01135
2730.0 0.012487
2750.0 0.013713
2770.0 0.014902
2790.0 0.015968
2810.0 0.016951
2830.0 0.017878
2850.0 0.018631
2870.0 0.019295
2890.0 0.019939
2910.0 0.020555
2930.0 0.02114
2950.0 0.021772
2970.0 0.022453
2990.0 0.02315
3010.0 0.023885
3030.0 0.024692
3050.0 0.025539
3070.0 0.026371
3090.0 0.027229
3110.0 0.028064
3130.0 0.028809
3150.0 0.02944
3170.0 0.029937
3190.0 0.030284
3210.0 0.030548
3230.0 0.030818
3250.0 0.031243
3270.0 0.031957
3290.0 0.033033
3310.0 0.034556
3330.0 0.036493
3350.0 0.038738
3370.0 0.041313
3390.0 0.043992
3410.0 0.04656
3430.0 0.048897
3450.0 0.050881
3470.0 0.055643
3490.0 0.057643
3510.0 0.052083
3530.0 0.049672
3550.0 0.064727
3570.0 0.077879
3590.0 0.077033
3610.0 0.082907
3630.0 0.083133
3650.0 0.076314
3670.0 0.076723
3690.0 0.087259
3710.0 0.096255
3730.0 0.10082
3750.0 0.091141
3770.0 0.089959
3790.0 0.093656
3810.0 0.090441
3830.0 0.079032
3850.0 0.071655
3870.0 0.07573
3890.0 0.084511
3910.0 0.089943
3930.0 0.092402
3950.0 0.09592
3970.0 0.097945
3990.0 0.098735
4010.0 0.095505
4030.0 0.086745
4050.0 0.08151
4070.0 0.083051
4090.0 0.088063
4110.0 0.09112
4130.0 0.089915
4150.0 0.089024
4170.0 0.090175
4190.0 0.092023
4210.0 0.088756
4230.0 0.080835
4250.0 0.072513
4270.0 0.066996
4290.0 0.062861
4310.0 0.059061
4330.0 0.060669
4350.0 0.062748
4370.0 0.06322
4390.0 0.06469
4410.0 0.06407
4430.0 0.063345
4450.0 0.064277
4470.0 0.064827
4490.0 0.069821
4510.0 0.072618
4530.0 0.075245
4550.0 0.077878
4570.0 0.081048
4590.0 0.082798
4610.0 0.083932
4630.0 0.084773
4650.0 0.086268
4670.0 0.080741
4690.0 0.074668
4710.0 0.069547
4730.0 0.067336
4750.0 0.064086
4770.0 0.061711
4790.0 0.060465
4810.0 0.058822
4830.0 0.061364
4850.0 0.067318
4870.0 0.049761
4890.0 0.050052
4910.0 0.054026
4930.0 0.055698
4950.0 0.050979
4970.0 0.047318
4990.0 0.045622
5010.0 0.042686
5030.0 0.040442
5050.0 0.041885
5070.0 0.044315
5090.0 0.045673
5110.0 0.049355
5130.0 0.050695
5150.0 0.052659
5170.0 0.05461
5190.0 0.053747
5210.0 0.056255
5230.0 0.057463
5250.0 0.058116
5270.0 0.058926
5290.0 0.057552
5310.0 0.055905
5330.0 0.053153
5350.0 0.05049
5370.0 0.048407
5390.0 0.04964
5410.0 0.049264
5430.0 0.049729
5450.0 0.0495
5470.0 0.048725
5490.0 0.048293
5510.0 0.047075
5530.0 0.045996
5550.0 0.045333
5570.0 0.045724
5590.0 0.046163
5610.0 0.046595
5630.0 0.04557
5650.0 0.044673
5670.0 0.042725
5690.0 0.041765
5710.0 0.040467
5730.0 0.040293
5750.0 0.039485
5770.0 0.038088
5790.0 0.039305
5810.0 0.03927
5830.0 0.040345
5850.0 0.040751
5870.0 0.041095
5890.0 0.040338
5910.0 0.040218
5930.0 0.039007
5950.0 0.03936
5970.0 0.038471
5990.0 0.037818
6010.0 0.037761
6030.0 0.038509
6050.0 0.038145
6070.0 0.037283
6090.0 0.036942
6110.0 0.037498
6130.0 0.036936
6150.0 0.035631
6170.0 0.0337
6190.0 0.031689
6210.0 0.030177
6230.0 0.029918
6250.0 0.030196
6270.0 0.030855
6290.0 0.032113
6310.0 0.034236
6330.0 0.035251
6350.0 0.035315
6370.0 0.035551
6390.0 0.035357
6410.0 0.034613
6430.0 0.033691
6450.0 0.033259
6470.0 0.033192
6490.0 0.032958
6510.0 0.032615
6530.0 0.03258
6550.0 0.032266
6570.0 0.030959
6590.0 0.030597
6610.0 0.030297
6630.0 0.029246
6650.0 0.028251
6670.0 0.027461
6690.0 0.027273
6710.0 0.026454
6730.0 0.026018
6750.0 0.025604
6770.0 0.025012
6790.0 0.025157
6810.0 0.024806
6830.0 0.024053
6850.0 0.023785
6870.0 0.023643
6890.0 0.023239
6910.0 0.023075
6930.0 0.022921
6950.0 0.022524
6970.0 0.022032
6990.0 0.022011
7010.0 0.021863
7030.0 0.022002
7050.0 0.021378
7070.0 0.021083
7090.0 0.021161
7110.0 0.020538
7130.0 0.020487
7150.0 0.020699
7170.0 0.021031
7190.0 0.020687
7210.0 0.020755
7230.0 0.021131
7250.0 0.020633
7270.0 0.020898
7290.0 0.020563
7310.0 0.020016
7330.0 0.019066
7350.0 0.019228
7370.0 0.019316
7390.0 0.018898
7410.0 0.018409
7430.0 0.018125
7450.0 0.017904
7470.0 0.01812
7490.0 0.0185
7510.0 0.018165
7530.0 0.017492
7550.0 0.017594
7570.0 0.016177
7590.0 0.015868
7610.0 0.015547
7630.0 0.015793
7650.0 0.015453
7670.0 0.016031
7690.0 0.015389
7710.0 0.016348
7730.0 0.016403
7750.0 0.017924
7770.0 0.018408
7790.0 0.019027
7810.0 0.01983
7830.0 0.02008
7850.0 0.020711
7870.0 0.020284
7890.0 0.02008
7910.0 0.01972
7930.0 0.019036
7950.0 0.018494
7970.0 0.01843
7990.0 0.018232
8010.0 0.016797
8030.0 0.016691
8050.0 0.016373
8070.0 0.016201
8090.0 0.015837
8110.0 0.015959
8130.0 0.016093
8150.0 0.016302
8170.0 0.016113
8190.0 0.016257
8210.0 0.015995
8230.0 0.015113
8250.0 0.014748
8270.0 0.014488
8290.0 0.014273
8310.0 0.013887
8330.0 0.014105
8350.0 0.013989
8370.0 0.013944
8390.0 0.0142
8410.0 0.014218
8430.0 0.014522
8450.0 0.014781
8470.0 0.014845
8490.0 0.014996
8510.0 0.014777
8530.0 0.014338
8550.0 0.014459
8570.0 0.014491
8590.0 0.014114
8610.0 0.014437
8630.0 0.014291
8650.0 0.01399
8670.0 0.013909
8690.0 0.01391
8710.0 0.013419
8730.0 0.013554
8750.0 0.013099
8770.0 0.012996
8790.0 0.012675
8810.0 0.012541
8830.0 0.012436
8850.0 0.011774
8870.0 0.011146
8890.0 0.010971
8910.0 0.01031
8930.0 0.0095201
8950.0 0.0094958
8970.0 0.0092325
8990.0 0.0091829
9010.0 0.0091178
9030.0 0.0090573
9050.0 0.0089929
9070.0 0.008928
9090.0 0.0088626
9110.0 0.0087968
9130.0 0.008731
9150.0 0.0086655
9170.0 0.0085999
9190.0 0.008534
9210.0 0.008468
9230.0 0.008402
9250.0 0.008336
9270.0 0.00827
9290.0 0.008204
9310.0 0.0081382
9330.0 0.0080724
9350.0 0.0080067
9370.0 0.0079412
9390.0 0.0078759
9410.0 0.0078107
9430.0 0.0077457
9450.0 0.007681
9470.0 0.0076204
9490.0 0.0075581
9510.0 0.0074921
9530.0 0.0074269
9550.0 0.0073628
9570.0 0.0072995
9590.0 0.0072366
9610.0 0.0071742
9630.0 0.0071125
9650.0 0.0070512
9670.0 0.0069901
9690.0 0.0069296
9710.0 0.0068697
9730.0 0.00681
9750.0 0.0067508
9770.0 0.0066924
9790.0 0.0066343
9810.0 0.0065765
9830.0 0.0065181
9850.0 0.006451
9870.0 0.0063945
9890.0 0.0063439
9910.0 0.0062923
9930.0 0.0062311
9950.0 0.0061775
9970.0 0.0061282
9990.0 0.0060773
10010.0 0.0060254
10030.0 0.0059741
10050.0 0.0059241
10070.0 0.0058747
10090.0 0.0058259
10110.0 0.005776
10130.0 0.0057263
10150.0 0.0056787
10170.0 0.0056313
10190.0 0.0055834
10210.0 0.0055372
10230.0 0.0054918
10250.0 0.005446
10270.0 0.0054009
10290.0 0.0053572
10310.0 0.0053132
10330.0 0.0052691
10350.0 0.0052266
10370.0 0.0051848
10390.0 0.0051426
10410.0 0.005101
10430.0 0.0050609
10450.0 0.005021
10470.0 0.004981
10490.0 0.0049424
10510.0 0.0049044
10530.0 0.0048654
10550.0 0.0048276
10570.0 0.0047912
10590.0 0.0047545
10610.0 0.0047179
10630.0 0.0046828
10650.0 0.0046481
10670.0 0.0046127
10690.0 0.0045783
10710.0 0.0045451
10730.0 0.0045115
10750.0 0.0044776
10770.0 0.0044458
10790.0 0.004414
10810.0 0.0043819
10830.0 0.0043507
10850.0 0.0043207
10870.0 0.0042897
10890.0 0.0042594
10910.0 0.0042307
10930.0 0.0042025
10950.0 0.0041746
10970.0 0.0041484
10990.0 0.0041241
11010.0 0.0041395
11030.0 0.0041208
11050.0 0.0041033
11070.0 0.0040859
11090.0 0.0040673
11110.0 0.0040488
11130.0 0.0040297
11150.0 0.0040088
11170.0 0.0039868
11190.0 0.0039649
11210.0 0.0039417
11230.0 0.0039173
11250.0 0.0038935
11270.0 0.0038702
11290.0 0.0038462
11310.0 0.0038228
11330.0 0.0038017
11350.0 0.0037811
11370.0 0.0037611
11390.0 0.0037431
11410.0 0.0037266
11430.0 0.00371
11450.0 0.0036948
11470.0 0.0036808
11490.0 0.0036668
11510.0 0.0036525
11530.0 0.0036389
11550.0 0.0036253
11570.0 0.0036105
11590.0 0.0035955
11610.0 0.0035807
11630.0 0.0035647
11650.0 0.0035476
11670.0 0.0035313
11690.0 0.003515
11710.0 0.0034978
11730.0 0.003481
11750.0 0.0034655
11770.0 0.0034494
11790.0 0.0034333
11810.0 0.0034185
11830.0 0.0034041
11850.0 0.0033889
11870.0 0.0033749
11890.0 0.0033622
11910.0 0.0033494
11930.0 0.0033372
11950.0 0.0033267
11970.0 0.0033172
11990.0 0.0033083
12010.0 0.0033014
12030.0 0.0032967
12050.0 0.0032935
12070.0 0.0032923
12090.0 0.003294
12110.0 0.0032978
12130.0 0.0033037
12150.0 0.003312
12170.0 0.0033223
12190.0 0.0033346
12210.0 0.0033486
12230.0 0.003364
12250.0 0.0033805
12270.0 0.0033982
12290.0 0.0034162
12310.0 0.0034344
12330.0 0.0034528
12350.0 0.0034711
12370.0 0.0034886
12390.0 0.0035054
12410.0 0.0035212
12430.0 0.0035355
12450.0 0.0035481
12470.0 0.0035587
12490.0 0.0035671
12510.0 0.0035732
12530.0 0.0035765
12550.0 0.0035767
12570.0 0.0035743
12590.0 0.0035691
12610.0 0.0035602
12630.0 0.0035483
12650.0 0.0035349
12670.0 0.0035184
12690.0 0.0034989
12710.0 0.0034785
12730.0 0.0034568
12750.0 0.0034318
12770.0 0.0034065
12790.0 0.0033816
12810.0 0.0033555
12830.0 0.0033284
12850.0 0.0033032
12870.0 0.0032788
12890.0 0.0032538
12910.0 0.0032302
12930.0 0.0032088
12950.0 0.0031873
12970.0 0.0031666
12990.0 0.0031484
13010.0 0.0031312
13030.0 0.0031143
13050.0 0.0030988
13070.0 0.0030849
13090.0 0.003071
13110.0 0.0030575
13130.0 0.0030453
13150.0 0.0030336
13170.0 0.0030215
13190.0 0.0030106
13210.0 0.0030006
13230.0 0.0029904
13250.0 0.0029804
13270.0 0.0029712
13290.0 0.0029618
13310.0 0.0029518
13330.0 0.002942
13350.0 0.0029322
13370.0 0.0029214
13390.0 0.0029096
13410.0 0.0028982
13430.0 0.0028857
13450.0 0.0028719
13470.0 0.0028578
13490.0 0.0028434
13510.0 0.002827
13530.0 0.0028101
13550.0 0.0027933
13570.0 0.0027756
13590.0 0.0027566
13610.0 0.0027378
13630.0 0.0027191
13650.0 0.0026989
13670.0 0.0026785
13690.0 0.0026586
13710.0 0.0026379
13730.0 0.0026159
13750.0 0.002595
13770.0 0.0025741
13790.0 0.0025523
13810.0 0.0025305
13830.0 0.0025095
13850.0 0.0024878
13870.0 0.0024656
13890.0 0.0024441
13910.0 0.0024227
13930.0 0.0024005
13950.0 0.0023784
13970.0 0.0023574
13990.0 0.0023358
14010.0 0.0023139
14030.0 0.0022929
14050.0 0.002272
14070.0 0.0022502
14090.0 0.0022291
14110.0 0.0022088
14130.0 0.0021882
14150.0 0.0021675
14170.0 0.002148
14190.0 0.0021288
14210.0 0.0021093
14230.0 0.0020904
14250.0 0.0020722
14270.0 0.0020538
14290.0 0.0020353
14310.0 0.0020179
14330.0 0.0020005
14350.0 0.001983
14370.0 0.0019659
14390.0 0.0019496
14410.0 0.0019328
14430.0 0.0019163
14450.0 0.0019005
14470.0 0.0018849
14490.0 0.001869
14510.0 0.001854
14530.0 0.0018396
14550.0 0.0018251
14570.0 0.0018109
14590.0 0.0017973
14610.0 0.0017839
14630.0 0.0017703
14650.0 0.0017572
14670.0 0.0017445
14690.0 0.0017316
14710.0 0.0017187
14730.0 0.0017065
14750.0 0.0016943
14770.0 0.0016821
14790.0 0.0016703
14810.0 0.001659
14830.0 0.0016474
14850.0 0.0016363
14870.0 0.0016256
14890.0 0.0016151
14910.0 0.0016048
14930.0 0.0015949
14950.0 0.0015853
14970.0 0.0015758
14990.0 0.0015666
15010.0 0.0015577
15030.0 0.001549
15050.0 0.0015402
15070.0 0.0015318
15090.0 0.0015234
15110.0 0.001515
15130.0 0.0015067
15150.0 0.0014984
15170.0 0.00149
15190.0 0.0014816
15210.0 0.0014732
15230.0 0.0014649
15250.0 0.0014564
15270.0 0.0014479
15290.0 0.0014395
15310.0 0.0014311
15330.0 0.0014226
15350.0 0.0014141
15370.0 0.0014057
15390.0 0.0013971
15410.0 0.0013886
15430.0 0.0013802
15450.0 0.0013717
15470.0 0.0013631
15490.0 0.0013547
15510.0 0.0013462
15530.0 0.0013377
15550.0 0.0013292
15570.0 0.0013208
15590.0 0.0013123
15610.0 0.0013037
15630.0 0.0012953
15650.0 0.0012869
15670.0 0.0012784
15690.0 0.00127
15710.0 0.0012617
15730.0 0.0012533
15750.0 0.0012449
15770.0 0.0012366
15790.0 0.0012283
15810.0 0.0012199
15830.0 0.0012116
15850.0 0.0012034
15870.0 0.0011951
15890.0 0.0011869
15910.0 0.0011788
15930.0 0.0011706
15950.0 0.0011624
15970.0 0.0011543
15990.0 0.0011463
16010.0 0.0011382
16030.0 0.0011301
16050.0 0.0011221
16070.0 0.0011142
16090.0 0.0011062
16110.0 0.0010983
16130.0 0.0010905
16150.0 0.0010826
16170.0 0.0010747
16190.0 0.001067
16210.0 0.0010593
16230.0 0.0010515
16250.0 0.0010439
16270.0 0.0010363
16290.0 0.0010287
16310.0 0.0010211
16330.0 0.0010136
16350.0 0.0010061
16370.0 0.0009986
16390.0 0.00099124
16410.0 0.00098392
16430.0 0.00097656
16450.0 0.00096927
16470.0 0.00096211
16490.0 0.00095489
16510.0 0.00094768
16530.0 0.00094059
16550.0 0.00093356
16570.0 0.00092647
16590.0 0.00091945
16610.0 0.00091258
16630.0 0.00090568
16650.0 0.00089879
16670.0 0.00089202
16690.0 0.0008853
16710.0 0.0008785
16730.0 0.00087182
16750.0 0.00086523
16770.0 0.00085863
16790.0 0.00085204
16810.0 0.0008456
16830.0 0.00083919
16850.0 0.00083274
16870.0 0.00082639
16890.0 0.00082014
16910.0 0.00081384
16930.0 0.00080757
16950.0 0.00080145
16970.0 0.00079535
16990.0 0.00078924
17010.0 0.00078322
17030.0 0.00077731
17050.0 0.00077135
17070.0 0.00076544
17090.0 0.00075964
17110.0 0.00075387
17130.0 0.00074806
17150.0 0.00074238
17170.0 0.00073679
17190.0 0.00073118
17210.0 0.00072561
17230.0 0.00072017
17250.0 0.00071473
17270.0 0.00070927
17290.0 0.00070393
17310.0 0.00069866
17330.0 0.00069337
17350.0 0.00068813
17370.0 0.00068303
17390.0 0.00067793
17410.0 0.00067283
17430.0 0.00066784
17450.0 0.00066293
17470.0 0.00065795
17490.0 0.00065306
17510.0 0.00064828
17530.0 0.00064351
17550.0 0.00063874
17570.0 0.0006341
17590.0 0.00062951
17610.0 0.0006249
17630.0 0.00062036
17650.0 0.00061592
17670.0 0.00061148
17690.0 0.00060701
17710.0 0.00060271
17730.0 0.00059845
17750.0 0.00059418
17770.0 0.00058998
17790.0 0.00058589
17810.0 0.00058176
17830.0 0.00057767
17850.0 0.00057369
17870.0 0.00056975
17890.0 0.00056579
17910.0 0.00056191
17930.0 0.00055814
17950.0 0.00055436
17970.0 0.00055061
17990.0 0.00054696
18010.0 0.00054335
18030.0 0.0005397
18050.0 0.00053616
18070.0 0.0005327
18090.0 0.00052923
18110.0 0.00052579
18130.0 0.00052247
18150.0 0.00051917
18170.0 0.00051587
18190.0 0.00051265
18210.0 0.00050951
18230.0 0.00050634
18250.0 0.0005032
18270.0 0.00050019
18290.0 0.0004972
18310.0 0.00049421
18330.0 0.0004913
18350.0 0.00048847
18370.0 0.00048561
18390.0 0.0004828
18410.0 0.00048009
18430.0 0.00047739
18450.0 0.00047467
18470.0 0.00047207
18490.0 0.00046953
18510.0 0.00046697
18530.0 0.00046446
18550.0 0.00046206
18570.0 0.00045964
18590.0 0.00045722
18610.0 0.0004549
18630.0 0.00045264
18650.0 0.00045036
18670.0 0.00044812
18690.0 0.000446
18710.0 0.00044387
18730.0 0.00044174
18750.0 0.0004397
18770.0 0.00043772
18790.0 0.00043568
18810.0 0.00043373
18830.0 0.00043186
18850.0 0.00042998
18870.0 0.00042812
18890.0 0.00042635
18910.0 0.00042462
18930.0 0.00042286
18950.0 0.00042116
18970.0 0.00041955
18990.0 0.00041792
19010.0 0.00041627
19030.0 0.00041475
19050.0 0.00041326
19070.0 0.00041175
19090.0 0.00041029
19110.0 0.00040892
19130.0 0.00040751
19150.0 0.00040612
19170.0 0.00040482
19190.0 0.00040355
19210.0 0.00040224
19230.0 0.000401
19250.0 0.00039984
19270.0 0.00039866
19290.0 0.00039749
19310.0 0.00039641
19330.0 0.00039534
19350.0 0.00039422
19370.0 0.00039319
19390.0 0.00039222
19410.0 0.00039122
19430.0 0.00039024
19450.0 0.00038935
19470.0 0.00038846
19490.0 0.00038755
19510.0 0.0003867
19530.0 0.00038591
19550.0 0.00038507
19570.0 0.00038425
19590.0 0.00038352
19610.0 0.00038279
19630.0 0.00038204
19650.0 0.00038136
19670.0 0.00038073
19690.0 0.00038004
19710.0 0.00037938
19730.0 0.0003788
19750.0 0.0003782
19770.0 0.00037756
19790.0 0.00037702
19810.0 0.00037651
19830.0 0.00037596
19850.0 0.00037543
19870.0 0.00037498
19890.0 0.00037449
19910.0 0.00037397
19930.0 0.00037352
19950.0 0.00037309
19970.0 0.00037261
19990.0 0.00037211
20010.0 0.00037169
20030.0 0.00037118
20050.0 0.0003706
20070.0 0.00037004
20090.0 0.00036946
20110.0 0.00036871
20130.0 0.00036798
20150.0 0.00036728
20170.0 0.00036651
20190.0 0.00036568
20210.0 0.00036494
20230.0 0.00036421
20250.0 0.0003634
20270.0 0.00036268
20290.0 0.00036204
20310.0 0.0003614
20330.0 0.00036075
20350.0 0.00036029
20370.0 0.00035988
20390.0 0.0003595
20410.0 0.00035923
20430.0 0.0003591
20450.0 0.00035897
20470.0 0.00035895
20490.0 0.00035908
20510.0 0.00035931
20530.0 0.00035961
20550.0 0.00036007
20570.0 0.00036068
20590.0 0.00036138
20610.0 0.00036222
20630.0 0.00036321
20650.0 0.00036434
20670.0 0.00036558
20690.0 0.00036698
20710.0 0.00036849
20730.0 0.0003701
20750.0 0.00037181
20770.0 0.00037358
20790.0 0.0003754
20810.0 0.00037725
20830.0 0.00037908
20850.0 0.00038087
20870.0 0.0003826
20890.0 0.00038423
20910.0 0.00038574
20930.0 0.00038711
20950.0 0.00038829
20970.0 0.00038931
20990.0 0.00039016
21010.0 0.00039076
21030.0 0.00039118
21050.0 0.00039144
21070.0 0.00039149
21090.0 0.00039131
21110.0 0.00039105
21130.0 0.00039068
21150.0 0.00039011
21170.0 0.00038947
21190.0 0.00038883
21210.0 0.00038805
21230.0 0.00038718
21250.0 0.00038638
21270.0 0.00038559
21290.0 0.00038471
21310.0 0.00038387
21330.0 0.00038314
21350.0 0.00038233
21370.0 0.00038151
21390.0 0.00038076
21410.0 0.00038003
21430.0 0.00037914
21450.0 0.00037831
21470.0 0.00037752
21490.0 0.00037663
21510.0 0.00037566
21530.0 0.00037473
21550.0 0.00037374
21570.0 0.0003726
21590.0 0.00037147
21610.0 0.00037034
21630.0 0.00036909
21650.0 0.00036773
21670.0 0.0003665
21690.0 0.00036521
21710.0 0.00036383
21730.0 0.00036248
21750.0 0.00036122
21770.0 0.00035979
21790.0 0.00035839
21810.0 0.00035709
21830.0 0.00035577
21850.0 0.00035437
21870.0 0.00035305
21890.0 0.00035181
21910.0 0.00035046
21930.0 0.00034912
21950.0 0.00034785
21970.0 0.00034653
21990.0 0.00034507
22010.0 0.00034369
22030.0 0.00034231
22050.0 0.00034081
22070.0 0.00033926
22090.0 0.00033776
22110.0 0.00033615
22130.0 0.00033441
22150.0 0.00033269
22170.0 0.00033096
22190.0 0.00032905
22210.0 0.00032711
22230.0 0.00032526
22250.0 0.00032331
22270.0 0.00032128
22290.0 0.00031932
22310.0 0.00031738
22330.0 0.0003153
22350.0 0.00031328
22370.0 0.00031135
22390.0 0.00030938
22410.0 0.00030735
22430.0 0.00030549
22450.0 0.00030367
22470.0 0.00030182
22490.0 0.00030004
22510.0 0.0002984
22530.0 0.00029673
22550.0 0.00029508
22570.0 0.0002936
22590.0 0.00029219
22610.0 0.00029077
22630.0 0.00028946
22650.0 0.00028828
22670.0 0.0002871
22690.0 0.00028597
22710.0 0.00028496
22730.0 0.00028399
22750.0 0.00028301
22770.0 0.00028213
22790.0 0.00028133
22810.0 0.00028055
22830.0 0.00027981
22850.0 0.00027916
22870.0 0.00027855
22890.0 0.00027796
22910.0 0.00027746
22930.0 0.00027704
22950.0 0.00027667
22970.0 0.00027636
22990.0 0.00027618
23010.0 0.00027607
23030.0 0.00027605
23050.0 0.00027614
23070.0 0.00027634
23090.0 0.00027666
23110.0 0.00027711
23130.0 0.00027767
23150.0 0.00027837
23170.0 0.00027923
23190.0 0.0002802
23210.0 0.00028127
23230.0 0.00028249
23250.0 0.00028381
23270.0 0.00028519
23290.0 0.00028665
23310.0 0.00028824
23330.0 0.00028978
23350.0 0.00029131
23370.0 0.00029288
23390.0 0.0002944
23410.0 0.0002958
23430.0 0.00029719
23450.0 0.00029794
23470.0 0.00029844
23490.0 0.00029881
23510.0 0.00029914
23530.0 0.0002994
23550.0 0.00029955
23570.0 0.00029974
23590.0 0.00029999
23610.0 0.00030028
23630.0 0.00030066
23650.0 0.00030126
23670.0 0.00030199
23690.0 0.00030284
23710.0 0.00030389
23730.0 0.00030518
