#lamb flux
1010.0 6.5099e-06
1030.0 6.8186e-06
1050.0 7.5825e-06
1070.0 8.4325e-06
1090.0 9.3197e-06
1110.0 1.0206e-05
1130.0 1.1074e-05
1150.0 1.1967e-05
1170.0 1.2866e-05
1190.0 1.3676e-05
1210.0 1.4469e-05
1230.0 1.5261e-05
1250.0 1.6008e-05
1270.0 1.6688e-05
1290.0 1.7384e-05
1310.0 1.8043e-05
1330.0 1.8634e-05
1350.0 1.9218e-05
1370.0 1.9826e-05
1390.0 2.0422e-05
1410.0 2.1021e-05
1430.0 2.1705e-05
1450.0 2.2455e-05
1470.0 2.3262e-05
1490.0 2.4182e-05
1510.0 2.5273e-05
1530.0 2.6456e-05
1550.0 2.7782e-05
1570.0 2.9307e-05
1590.0 3.1015e-05
1610.0 3.2879e-05
1630.0 3.4994e-05
1650.0 3.7344e-05
1670.0 3.9871e-05
1690.0 4.2592e-05
1710.0 4.5556e-05
1730.0 4.872e-05
1750.0 5.198e-05
1770.0 5.5422e-05
1790.0 5.9009e-05
1810.0 6.2634e-05
1830.0 6.6271e-05
1850.0 6.999e-05
1870.0 7.3616e-05
1890.0 7.708e-05
1910.0 8.0411e-05
1930.0 8.357e-05
1950.0 8.639e-05
1970.0 8.8883e-05
1990.0 9.1094e-05
2010.0 9.2905e-05
2030.0 9.4263e-05
2050.0 9.5269e-05
2070.0 9.5914e-05
2090.0 9.607e-05
2110.0 9.5848e-05
2130.0 9.5327e-05
2150.0 9.4462e-05
2170.0 9.326e-05
2190.0 9.1883e-05
2210.0 9.0327e-05
2230.0 8.8575e-05
2250.0 8.6724e-05
2270.0 8.4876e-05
2290.0 8.2974e-05
2310.0 8.1051e-05
2330.0 7.9224e-05
2350.0 7.7495e-05
2370.0 7.5842e-05
2390.0 7.4351e-05
2410.0 7.3092e-05
2430.0 7.2019e-05
2450.0 7.1176e-05
2470.0 7.0662e-05
2490.0 7.0519e-05
2510.0 7.0697e-05
2530.0 7.142e-05
2550.0 7.2982e-05
2570.0 7.5613e-05
2590.0 7.966e-05
2610.0 8.6184e-05
2630.0 9.5432e-05
2650.0 0.00010704
2670.0 0.00012136
2690.0 0.00013818
2710.0 0.00015564
2730.0 0.00017288
2750.0 0.00019041
2770.0 0.00020708
2790.0 0.00022264
2810.0 0.00023819
2830.0 0.00025475
2850.0 0.00027144
2870.0 0.00028917
2890.0 0.00030872
2910.0 0.00032968
2930.0 0.00035138
2950.0 0.000375
2970.0 0.0004004
2990.0 0.00042665
3010.0 0.00047343
3030.0 0.00050414
3050.0 0.00053605
3070.0 0.00056759
3090.0 0.00059951
3110.0 0.00063003
3130.0 0.00065667
3150.0 0.00067819
3170.0 0.00069224
3190.0 0.0007033
3210.0 0.00072567
3230.0 0.0007568
3250.0 0.00076554
3270.0 0.00074604
3290.0 0.00071971
3310.0 0.00070794
3330.0 0.00070635
3350.0 0.00071123
3370.0 0.00071937
3390.0 0.00073306
3410.0 0.00074273
3430.0 0.00073481
3450.0 0.00073615
3470.0 0.0007428
3490.0 0.00082109
3510.0 0.001046
3530.0 0.0012936
3550.0 0.0014728
3570.0 0.0016138
3590.0 0.0016932
3610.0 0.0016779
3630.0 0.0016393
3650.0 0.0017483
3670.0 0.0020317
3690.0 0.0023096
3710.0 0.002518
3730.0 0.0027036
3750.0 0.0028791
3770.0 0.0028368
3790.0 0.0026392
3810.0 0.0024502
3830.0 0.002284
3850.0 0.0022458
3870.0 0.0024129
3890.0 0.0026351
3910.0 0.0028073
3930.0 0.0029874
3950.0 0.003334
3970.0 0.0036118
3990.0 0.0034642
4010.0 0.0030629
4030.0 0.0026767
4050.0 0.0025258
4070.0 0.0024972
4090.0 0.0024483
4110.0 0.0024325
4130.0 0.0024102
4150.0 0.0024218
4170.0 0.0025706
4190.0 0.0027888
4210.0 0.002781
4230.0 0.0026899
4250.0 0.002667
4270.0 0.0027278
4290.0 0.0028891
4310.0 0.0030417
4330.0 0.0029207
4350.0 0.0025741
4370.0 0.0022766
4390.0 0.0020277
4410.0 0.0018042
4430.0 0.0017623
4450.0 0.0018656
4470.0 0.0019701
4490.0 0.0021115
4510.0 0.002417
4530.0 0.0030818
4550.0 0.0040377
4570.0 0.0046591
4590.0 0.0050309
4610.0 0.0056511
4630.0 0.0061442
4650.0 0.005841
4670.0 0.0049102
4690.0 0.0040438
4710.0 0.00357
4730.0 0.0033567
4750.0 0.0030942
4770.0 0.0028782
4790.0 0.0030108
4810.0 0.0032845
4830.0 0.0033541
4850.0 0.0031926
4870.0 0.0031978
4890.0 0.0034383
4910.0 0.0036563
4930.0 0.0037358
4950.0 0.0036732
4970.0 0.0034599
4990.0 0.0031205
5010.0 0.0028024
5030.0 0.002584
5050.0 0.0024569
5070.0 0.0023621
5090.0 0.002269
5110.0 0.0022347
5130.0 0.0022336
5150.0 0.0022937
5170.0 0.0025115
5190.0 0.002829
5210.0 0.0032085
5230.0 0.0035039
5250.0 0.0037062
5270.0 0.003952
5290.0 0.0042423
5310.0 0.0043959
5330.0 0.00432
5350.0 0.0041354
5370.0 0.0041203
5390.0 0.004365
5410.0 0.0047539
5430.0 0.0050788
5450.0 0.0052645
5470.0 0.0053086
5490.0 0.005222
5510.0 0.0051228
5530.0 0.0050698
5550.0 0.0050473
5570.0 0.004996
5590.0 0.0048971
5610.0 0.0047415
5630.0 0.0044722
5650.0 0.0041162
5670.0 0.0038491
5690.0 0.0037387
5710.0 0.0036992
5730.0 0.0036406
5750.0 0.0035799
5770.0 0.0035487
5790.0 0.0035703
5810.0 0.0035744
5830.0 0.0035926
5850.0 0.003617
5870.0 0.0035524
5890.0 0.0034406
5910.0 0.0032839
5930.0 0.0029966
5950.0 0.0027021
5970.0 0.0025569
5990.0 0.0025587
6010.0 0.0025707
6030.0 0.0024867
6050.0 0.0024075
6070.0 0.0024998
6090.0 0.002692
6110.0 0.0028037
6130.0 0.0027599
6150.0 0.0026466
6170.0 0.0025689
6190.0 0.0025035
6210.0 0.0023825
6230.0 0.0022026
6250.0 0.0020719
6270.0 0.0020452
6290.0 0.0020473
6310.0 0.0021313
6330.0 0.0023252
6350.0 0.0025586
6370.0 0.002709
6390.0 0.0027906
6410.0 0.0028767
6430.0 0.0029443
6450.0 0.0030061
6470.0 0.0030781
6490.0 0.003152
6510.0 0.0032112
6530.0 0.0032326
6550.0 0.0032318
6570.0 0.0031598
6590.0 0.0030099
6610.0 0.0028879
6630.0 0.0028086
6650.0 0.0027055
6670.0 0.0025685
6690.0 0.0024526
6710.0 0.0023913
6730.0 0.0023394
6750.0 0.0022935
6770.0 0.0022736
6790.0 0.0022544
6810.0 0.0022036
6830.0 0.0021602
6850.0 0.0021976
6870.0 0.0022305
6890.0 0.0021982
6910.0 0.0021653
6930.0 0.0021396
6950.0 0.0020909
6970.0 0.0020167
6990.0 0.001947
7010.0 0.0019039
7030.0 0.0018644
7050.0 0.0017794
7070.0 0.0016701
7090.0 0.0016421
7110.0 0.001704
7130.0 0.0018014
7150.0 0.0018904
7170.0 0.0019592
7190.0 0.0019763
7210.0 0.0019196
7230.0 0.001882
7250.0 0.0019058
7270.0 0.001897
7290.0 0.0018732
7310.0 0.0018902
7330.0 0.0019543
7350.0 0.0020428
7370.0 0.0020986
7390.0 0.0021194
7410.0 0.0021191
7430.0 0.0020772
7450.0 0.0020098
7470.0 0.0019486
7490.0 0.0018768
7510.0 0.0018126
7530.0 0.0017904
7550.0 0.0017855
7570.0 0.0017836
7590.0 0.0017979
7610.0 0.0017952
7630.0 0.0017912
7650.0 0.0018386
7670.0 0.0019108
7690.0 0.0019814
7710.0 0.0020386
7730.0 0.0020905
7750.0 0.0021471
7770.0 0.0022014
7790.0 0.0022467
7810.0 0.0022621
7830.0 0.0022225
7850.0 0.0021458
7870.0 0.0020501
7890.0 0.0019564
7910.0 0.0019108
7930.0 0.0018791
7950.0 0.0018369
7970.0 0.0017951
7990.0 0.0017805
8010.0 0.0016753
8030.0 0.0016604
8050.0 0.0016425
8070.0 0.001616
8090.0 0.0015907
8110.0 0.0015837
8130.0 0.0015859
8150.0 0.0015752
8170.0 0.0015576
8190.0 0.0015106
8210.0 0.0014231
8230.0 0.0013381
8250.0 0.0012941
8270.0 0.0012444
8290.0 0.001166
8310.0 0.0010976
8330.0 0.0010562
8350.0 0.0010241
8370.0 0.0010349
8390.0 0.001095
8410.0 0.0011653
8430.0 0.0012427
8450.0 0.0013346
8470.0 0.0014053
8490.0 0.0014772
8510.0 0.0015432
8530.0 0.001607
8550.0 0.0016598
8570.0 0.0016976
8590.0 0.0017275
8610.0 0.0017659
8630.0 0.0017758
8650.0 0.0017405
8670.0 0.0017408
8690.0 0.001788
8710.0 0.0018468
8730.0 0.0018584
8750.0 0.0018218
8770.0 0.0018132
8790.0 0.0018068
8810.0 0.0017623
8830.0 0.0016353
8850.0 0.0014801
8870.0 0.0013679
8890.0 0.0013203
8910.0 0.001262
8930.0 0.0011726
8950.0 0.0011019
8970.0 0.0010818
8990.0 0.0010927
9010.0 0.001092
9030.0 0.0010817
9050.0 0.0010734
9070.0 0.0010674
9090.0 0.0010617
9110.0 0.0010562
9130.0 0.0010506
9150.0 0.0010451
9170.0 0.0010397
9190.0 0.0010343
9210.0 0.0010292
9230.0 0.0010238
9250.0 0.0010184
9270.0 0.0010132
9290.0 0.001008
9310.0 0.0010028
9330.0 0.00099772
9350.0 0.00099269
9370.0 0.00098768
9390.0 0.00098271
9410.0 0.00097778
9430.0 0.00097274
9450.0 0.00096701
9470.0 0.00096158
9490.0 0.0009576
9510.0 0.00095324
9530.0 0.00094887
9550.0 0.00094433
9570.0 0.00093976
9590.0 0.00093525
9610.0 0.00093074
9630.0 0.00092619
9650.0 0.00092169
9670.0 0.0009173
9690.0 0.00091286
9710.0 0.00090843
9730.0 0.0009041
9750.0 0.00089976
9770.0 0.00089535
9790.0 0.00089104
9810.0 0.0008868
9830.0 0.00088248
9850.0 0.00087799
9870.0 0.00087385
9890.0 0.00086969
9910.0 0.00086547
9930.0 0.00086129
9950.0 0.00085672
9970.0 0.00085261
9990.0 0.00084841
10010.0 0.00084404
10030.0 0.00083978
10050.0 0.00083575
10070.0 0.00083172
10090.0 0.00082769
10110.0 0.00082319
10130.0 0.0008171
10150.0 0.00081322
10170.0 0.00080969
10190.0 0.0008057
10210.0 0.00080178
10230.0 0.00079781
10250.0 0.00079348
10270.0 0.00078913
10290.0 0.00078497
10310.0 0.00078054
10330.0 0.00077589
10350.0 0.0007715
10370.0 0.00076711
10390.0 0.00076245
10410.0 0.00075781
10430.0 0.00075342
10450.0 0.00074876
10470.0 0.00074394
10490.0 0.00073931
10510.0 0.00073466
10530.0 0.0007296
10550.0 0.00072467
10570.0 0.00071993
10590.0 0.00071494
10610.0 0.00070979
10630.0 0.00070487
10650.0 0.00069986
10670.0 0.00069449
10690.0 0.00068924
10710.0 0.0006841
10730.0 0.00067869
10750.0 0.00067302
10770.0 0.00066773
10790.0 0.0006623
10810.0 0.00065658
10830.0 0.00065094
10850.0 0.00064547
10870.0 0.00063952
10890.0 0.00063355
10910.0 0.0006278
10930.0 0.00062195
10950.0 0.00061583
10970.0 0.00060988
10990.0 0.0006042
11010.0 0.00057979
11030.0 0.00057344
11050.0 0.00056752
11070.0 0.00056173
11090.0 0.00055583
11110.0 0.0005505
11130.0 0.0005455
11150.0 0.00054058
11170.0 0.00053595
11190.0 0.00053183
11210.0 0.0005279
11230.0 0.00052419
11250.0 0.00052092
11270.0 0.000518
11290.0 0.00051525
11310.0 0.00051278
11330.0 0.00051069
11350.0 0.00050873
11370.0 0.00050688
11390.0 0.00050519
11410.0 0.00050358
11430.0 0.00050186
11450.0 0.00050011
11470.0 0.00049831
11490.0 0.00049631
11510.0 0.00049404
11530.0 0.00049164
11550.0 0.00048901
11570.0 0.000486
11590.0 0.00048272
11610.0 0.00047924
11630.0 0.00047533
11650.0 0.00047098
11670.0 0.00046648
11690.0 0.00046164
11710.0 0.00045628
11730.0 0.00045061
11750.0 0.0004448
11770.0 0.00043841
11790.0 0.00043157
11810.0 0.0004246
11830.0 0.00041734
11850.0 0.00040941
11870.0 0.00040146
11890.0 0.00039359
11910.0 0.00038538
11930.0 0.00037704
11950.0 0.00036906
11970.0 0.00036111
11990.0 0.00035303
12010.0 0.00034538
12030.0 0.00033817
12050.0 0.00033107
12070.0 0.00032418
12090.0 0.00031805
12110.0 0.00031219
12130.0 0.00030658
12150.0 0.0003015
12170.0 0.00029695
12190.0 0.0002926
12210.0 0.00028876
12230.0 0.00028551
12250.0 0.00028269
12270.0 0.00028029
12290.0 0.00027843
12310.0 0.00027704
12330.0 0.00027604
12350.0 0.00027546
12370.0 0.00027522
12390.0 0.00027528
12410.0 0.00027565
12430.0 0.00027618
12450.0 0.00027685
12470.0 0.00027768
12490.0 0.00027859
12510.0 0.00027948
12530.0 0.00028041
12550.0 0.00028136
12570.0 0.00028221
12590.0 0.00028294
12610.0 0.0002836
12630.0 0.00028408
12650.0 0.0002843
12670.0 0.0002843
12690.0 0.00028401
12710.0 0.00028339
12730.0 0.00028245
12750.0 0.00028112
12770.0 0.00027944
12790.0 0.00027745
12810.0 0.0002751
12830.0 0.00027241
12850.0 0.00026958
12870.0 0.00026659
12890.0 0.00026336
12910.0 0.0002601
12930.0 0.0002569
12950.0 0.00025362
12970.0 0.00025034
12990.0 0.00024729
13010.0 0.00024434
13030.0 0.00024143
13050.0 0.0002387
13070.0 0.00023618
13090.0 0.0002337
13110.0 0.00023132
13130.0 0.00022913
13150.0 0.00022704
13170.0 0.00022498
13190.0 0.00022308
13210.0 0.00022132
13230.0 0.00021961
13250.0 0.00021798
13270.0 0.00021648
13290.0 0.00021504
13310.0 0.00021362
13330.0 0.00021228
13350.0 0.000211
13370.0 0.00020969
13390.0 0.00020837
13410.0 0.00020708
13430.0 0.00020574
13450.0 0.00020431
13470.0 0.00020283
13490.0 0.00020132
13510.0 0.00019964
13530.0 0.00019788
13550.0 0.00019608
13570.0 0.00019419
13590.0 0.00019216
13610.0 0.00019012
13630.0 0.00018808
13650.0 0.00018591
13670.0 0.00018373
13690.0 0.0001816
13710.0 0.00017943
13730.0 0.00017717
13750.0 0.00017505
13770.0 0.00017296
13790.0 0.00017083
13810.0 0.00016874
13830.0 0.00016677
13850.0 0.00016479
13870.0 0.00016282
13890.0 0.00016098
13910.0 0.00015922
13930.0 0.00015747
13950.0 0.00015582
13970.0 0.00015435
13990.0 0.00015292
14010.0 0.00015158
14030.0 0.00015037
14050.0 0.00014927
14070.0 0.00014819
14090.0 0.00014723
14110.0 0.00014637
14130.0 0.00014554
14150.0 0.00014475
14170.0 0.00014404
14190.0 0.00014337
14210.0 0.00014269
14230.0 0.00014205
14250.0 0.00014144
14270.0 0.00014081
14290.0 0.00014018
14310.0 0.00013958
14330.0 0.00013898
14350.0 0.00013835
14370.0 0.00013773
14390.0 0.00013713
14410.0 0.0001365
14430.0 0.00013587
14450.0 0.00013527
14470.0 0.00013468
14490.0 0.00013406
14510.0 0.00013347
14530.0 0.00013291
14550.0 0.00013232
14570.0 0.00013172
14590.0 0.00013115
14610.0 0.00013054
14630.0 0.00012988
14650.0 0.00012923
14670.0 0.00012859
14690.0 0.00012792
14710.0 0.00012728
14730.0 0.00012674
14750.0 0.00012629
14770.0 0.00012597
14790.0 0.00012585
14810.0 0.00012596
14830.0 0.00012636
14850.0 0.00012708
14870.0 0.0001281
14890.0 0.00012944
14910.0 0.00013111
14930.0 0.00013292
14950.0 0.00013478
14970.0 0.00013671
14990.0 0.00013847
15010.0 0.00013996
15030.0 0.00014121
15050.0 0.0001422
15070.0 0.00014289
15090.0 0.0001434
15110.0 0.00014379
15130.0 0.00014409
15150.0 0.00014435
15170.0 0.00014459
15190.0 0.00014482
15210.0 0.00014505
15230.0 0.00014529
15250.0 0.00014553
15270.0 0.00014577
15290.0 0.00014603
15310.0 0.00014628
15330.0 0.00014654
15350.0 0.00014681
15370.0 0.00014708
15390.0 0.00014736
15410.0 0.00014764
15430.0 0.00014793
15450.0 0.00014822
15470.0 0.00014852
15490.0 0.00014882
15510.0 0.00014913
15530.0 0.00014944
15550.0 0.00014976
15570.0 0.00015008
15590.0 0.0001504
15610.0 0.00015073
15630.0 0.00015107
15650.0 0.00015141
15670.0 0.00015175
15690.0 0.00015209
15710.0 0.00015244
15730.0 0.0001528
15750.0 0.00015315
15770.0 0.00015352
15790.0 0.00015388
15810.0 0.00015425
15830.0 0.00015462
15850.0 0.00015499
15870.0 0.00015537
15890.0 0.00015575
15910.0 0.00015614
15930.0 0.00015653
15950.0 0.00015691
15970.0 0.00015731
15990.0 0.0001577
16010.0 0.0001581
16030.0 0.0001585
16050.0 0.0001589
16070.0 0.00015931
16090.0 0.00015971
16110.0 0.00016012
16130.0 0.00016053
16150.0 0.00016094
16170.0 0.00016135
16190.0 0.00016177
16210.0 0.00016218
16230.0 0.0001626
16250.0 0.00016302
16270.0 0.00016343
16290.0 0.00016385
16310.0 0.00016427
16330.0 0.00016469
16350.0 0.00016511
16370.0 0.00016553
16390.0 0.00016595
16410.0 0.00016637
16430.0 0.00016679
16450.0 0.00016721
16470.0 0.00016763
16490.0 0.00016805
16510.0 0.00016847
16530.0 0.00016888
16550.0 0.0001693
16570.0 0.00016971
16590.0 0.00017012
16610.0 0.00017053
16630.0 0.00017094
16650.0 0.00017135
16670.0 0.00017175
16690.0 0.00017216
16710.0 0.00017256
16730.0 0.00017295
16750.0 0.00017335
16770.0 0.00017374
16790.0 0.00017413
16810.0 0.00017452
16830.0 0.0001749
16850.0 0.00017528
16870.0 0.00017565
16890.0 0.00017602
16910.0 0.00017639
16930.0 0.00017675
16950.0 0.00017711
16970.0 0.00017747
16990.0 0.00017782
17010.0 0.00017816
17030.0 0.0001785
17050.0 0.00017884
17070.0 0.00017917
17090.0 0.0001795
17110.0 0.00017981
17130.0 0.00018013
17150.0 0.00018044
17170.0 0.00018074
17190.0 0.00018103
17210.0 0.00018132
17230.0 0.00018161
17250.0 0.00018189
17270.0 0.00018216
17290.0 0.00018242
17310.0 0.00018268
17330.0 0.00018293
17350.0 0.00018317
17370.0 0.0001834
17390.0 0.00018363
17410.0 0.00018385
17430.0 0.00018407
17450.0 0.00018427
17470.0 0.00018447
17490.0 0.00018466
17510.0 0.00018484
17530.0 0.00018501
17550.0 0.00018518
17570.0 0.00018533
17590.0 0.00018548
17610.0 0.00018562
17630.0 0.00018575
17650.0 0.00018587
17670.0 0.00018598
17690.0 0.00018608
17710.0 0.00018618
17730.0 0.00018627
17750.0 0.00018634
17770.0 0.00018641
17790.0 0.00018646
17810.0 0.00018651
17830.0 0.00018655
17850.0 0.00018658
17870.0 0.0001866
17890.0 0.00018661
17910.0 0.0001866
17930.0 0.00018659
17950.0 0.00018657
17970.0 0.00018654
17990.0 0.0001865
18010.0 0.00018645
18030.0 0.00018639
18050.0 0.00018632
18070.0 0.00018624
18090.0 0.00018615
18110.0 0.00018605
18130.0 0.00018593
18150.0 0.00018581
18170.0 0.00018568
18190.0 0.00018554
18210.0 0.00018539
18230.0 0.00018522
18250.0 0.00018505
18270.0 0.00018487
18290.0 0.00018467
18310.0 0.00018447
18330.0 0.00018426
18350.0 0.00018403
18370.0 0.0001838
18390.0 0.00018355
18410.0 0.0001833
18430.0 0.00018303
18450.0 0.00018276
18470.0 0.00018247
18490.0 0.00018218
18510.0 0.00018187
18530.0 0.00018156
18550.0 0.00018124
18570.0 0.0001809
18590.0 0.00018056
18610.0 0.0001802
18630.0 0.00017984
18650.0 0.00017947
18670.0 0.00017908
18690.0 0.00017869
18710.0 0.00017829
18730.0 0.00017788
18750.0 0.00017746
18770.0 0.00017703
18790.0 0.00017659
18810.0 0.00017614
18830.0 0.00017569
18850.0 0.00017522
18870.0 0.00017475
18890.0 0.00017427
18910.0 0.00017378
18930.0 0.00017328
18950.0 0.00017277
18970.0 0.00017225
18990.0 0.00017173
19010.0 0.0001712
19030.0 0.00017066
19050.0 0.00017011
19070.0 0.00016955
19090.0 0.00016899
19110.0 0.00016842
19130.0 0.00016784
19150.0 0.00016725
19170.0 0.00016666
19190.0 0.00016606
19210.0 0.00016545
19230.0 0.00016484
19250.0 0.00016422
19270.0 0.00016359
19290.0 0.00016296
19310.0 0.00016232
19330.0 0.00016168
19350.0 0.00016102
19370.0 0.00016037
19390.0 0.0001597
19410.0 0.00015903
19430.0 0.00015836
19450.0 0.00015768
19470.0 0.00015699
19490.0 0.0001563
19510.0 0.00015561
19530.0 0.00015491
19550.0 0.0001542
19570.0 0.00015349
19590.0 0.00015277
19610.0 0.00015206
19630.0 0.00015133
19650.0 0.00015061
19670.0 0.00014987
19690.0 0.00014914
19710.0 0.0001484
19730.0 0.00014766
19750.0 0.00014691
19770.0 0.00014616
19790.0 0.00014541
19810.0 0.00014465
19830.0 0.00014389
19850.0 0.00014312
19870.0 0.00014234
19890.0 0.00014153
19910.0 0.00014067
19930.0 0.00013974
19950.0 0.00013871
19970.0 0.00013751
19990.0 0.00013613
20010.0 0.00013457
20030.0 0.00013279
20050.0 0.00013079
20070.0 0.00012867
20090.0 0.00012646
20110.0 0.00012407
20130.0 0.00012169
20150.0 0.00011937
20170.0 0.00011702
20190.0 0.00011467
20210.0 0.00011244
20230.0 0.00011025
20250.0 0.00010806
20270.0 0.00010597
20290.0 0.00010398
20310.0 0.00010203
20330.0 0.00010012
20350.0 9.8372e-05
20370.0 9.6696e-05
20390.0 9.5077e-05
20410.0 9.3569e-05
20430.0 9.2179e-05
20450.0 9.0836e-05
20470.0 8.959e-05
20490.0 8.8456e-05
20510.0 8.7402e-05
20530.0 8.6416e-05
20550.0 8.552e-05
20570.0 8.4704e-05
20590.0 8.3943e-05
20610.0 8.3244e-05
20630.0 8.2601e-05
20650.0 8.2e-05
20670.0 8.1437e-05
20690.0 8.0906e-05
20710.0 8.0395e-05
20730.0 7.9899e-05
20750.0 7.9411e-05
20770.0 7.892e-05
20790.0 7.8423e-05
20810.0 7.7914e-05
20830.0 7.7386e-05
20850.0 7.6836e-05
20870.0 7.6258e-05
20890.0 7.5649e-05
20910.0 7.5012e-05
20930.0 7.4342e-05
20950.0 7.3634e-05
20970.0 7.29e-05
20990.0 7.214e-05
21010.0 7.1338e-05
21030.0 7.0512e-05
21050.0 6.9672e-05
21070.0 6.8805e-05
21090.0 6.7906e-05
21110.0 6.7011e-05
21130.0 6.6111e-05
21150.0 6.5188e-05
21170.0 6.4264e-05
21190.0 6.3355e-05
21210.0 6.2432e-05
21230.0 6.1502e-05
21250.0 6.0599e-05
21270.0 5.9706e-05
21290.0 5.881e-05
21310.0 5.793e-05
21330.0 5.7086e-05
21350.0 5.6244e-05
21370.0 5.5416e-05
21390.0 5.4623e-05
21410.0 5.3853e-05
21430.0 5.3088e-05
21450.0 5.2363e-05
21470.0 5.1673e-05
21490.0 5.1003e-05
21510.0 5.0359e-05
21530.0 4.9754e-05
21550.0 4.9175e-05
21570.0 4.8616e-05
21590.0 4.8089e-05
21610.0 4.7589e-05
21630.0 4.7109e-05
21650.0 4.6648e-05
21670.0 4.6211e-05
21690.0 4.5789e-05
21710.0 4.5378e-05
21730.0 4.498e-05
21750.0 4.4591e-05
21770.0 4.4207e-05
21790.0 4.3828e-05
21810.0 4.3454e-05
21830.0 4.308e-05
21850.0 4.2706e-05
21870.0 4.2333e-05
21890.0 4.196e-05
21910.0 4.1583e-05
21930.0 4.1204e-05
21950.0 4.0824e-05
21970.0 4.044e-05
21990.0 4.0049e-05
22010.0 3.9657e-05
22030.0 3.9262e-05
22050.0 3.8859e-05
22070.0 3.845e-05
22090.0 3.804e-05
22110.0 3.7621e-05
22130.0 3.7192e-05
22150.0 3.676e-05
22170.0 3.6323e-05
22190.0 3.5871e-05
22210.0 3.5412e-05
22230.0 3.4954e-05
22250.0 3.4485e-05
22270.0 3.4005e-05
22290.0 3.3525e-05
22310.0 3.3043e-05
22330.0 3.2544e-05
22350.0 3.2045e-05
22370.0 3.1549e-05
22390.0 3.1045e-05
22410.0 3.053e-05
22430.0 3.0028e-05
22450.0 2.9527e-05
22470.0 2.9016e-05
22490.0 2.8511e-05
22510.0 2.8018e-05
22530.0 2.7517e-05
22550.0 2.7016e-05
22570.0 2.6535e-05
22590.0 2.606e-05
22610.0 2.5586e-05
22630.0 2.5126e-05
22650.0 2.4688e-05
22670.0 2.4254e-05
22690.0 2.3831e-05
22710.0 2.3431e-05
22730.0 2.3047e-05
22750.0 2.2667e-05
22770.0 2.2312e-05
22790.0 2.198e-05
22810.0 2.1658e-05
22830.0 2.1351e-05
22850.0 2.1067e-05
22870.0 2.0796e-05
22890.0 2.0535e-05
22910.0 2.0291e-05
22930.0 2.0061e-05
22950.0 1.9839e-05
