#lamb flux
1010.0 1.2935e-05
1030.0 1.3839e-05
1050.0 1.5019e-05
1070.0 1.6878e-05
1090.0 1.9554e-05
1110.0 2.2334e-05
1130.0 2.516e-05
1150.0 2.8138e-05
1170.0 3.118e-05
1190.0 3.3957e-05
1210.0 3.6613e-05
1230.0 3.9129e-05
1250.0 4.1401e-05
1270.0 4.3212e-05
1290.0 4.4733e-05
1310.0 4.5768e-05
1330.0 4.6206e-05
1350.0 4.6204e-05
1370.0 4.5839e-05
1390.0 4.5032e-05
1410.0 4.3862e-05
1430.0 4.2545e-05
1450.0 4.1064e-05
1470.0 3.9448e-05
1490.0 3.7841e-05
1510.0 3.6354e-05
1530.0 3.4895e-05
1550.0 3.3573e-05
1570.0 3.2471e-05
1590.0 3.1582e-05
1610.0 3.0944e-05
1630.0 3.0828e-05
1650.0 3.1053e-05
1670.0 3.16e-05
1690.0 3.2517e-05
1710.0 3.3876e-05
1730.0 3.568e-05
1750.0 3.7899e-05
1770.0 4.0648e-05
1790.0 4.3958e-05
1810.0 4.7806e-05
1830.0 5.2234e-05
1850.0 5.7361e-05
1870.0 6.3108e-05
1890.0 6.9463e-05
1910.0 7.6497e-05
1930.0 8.4214e-05
1950.0 9.246e-05
1970.0 0.00010124
1990.0 0.00011058
2010.0 0.00012031
2030.0 0.00013028
2050.0 0.00014053
2070.0 0.00015095
2090.0 0.0001612
2110.0 0.00017129
2130.0 0.00018121
2150.0 0.0001907
2170.0 0.00019957
2190.0 0.000208
2210.0 0.00021583
2230.0 0.00022285
2250.0 0.00022915
2270.0 0.0002349
2290.0 0.00023985
2310.0 0.00024399
2330.0 0.00024764
2350.0 0.00025078
2370.0 0.00025333
2390.0 0.0002556
2410.0 0.00025789
2430.0 0.0002601
2450.0 0.00026246
2470.0 0.00026543
2490.0 0.00026923
2510.0 0.00027361
2530.0 0.0002794
2550.0 0.00028754
2570.0 0.00029856
2590.0 0.00031346
2610.0 0.00033555
2630.0 0.00036529
2650.0 0.00040138
2670.0 0.00044488
2690.0 0.00049527
2710.0 0.00054713
2730.0 0.00059834
2750.0 0.00065116
2770.0 0.00070251
2790.0 0.00075161
2810.0 0.00080188
2830.0 0.00085638
2850.0 0.00091075
2870.0 0.00096752
2890.0 0.0010291
2910.0 0.0010935
2930.0 0.001158
2950.0 0.0012271
2970.0 0.0013
2990.0 0.0013735
3010.0 0.001449
3030.0 0.0015293
3050.0 0.0016118
3070.0 0.0016921
3090.0 0.001774
3110.0 0.0018538
3130.0 0.0019258
3150.0 0.0019883
3170.0 0.0020393
3190.0 0.0020765
3210.0 0.0021055
3230.0 0.0021295
3250.0 0.0021488
3270.0 0.0021692
3290.0 0.0021972
3310.0 0.0022384
3330.0 0.0022916
3350.0 0.002353
3370.0 0.0024205
3390.0 0.0024789
3410.0 0.002542
3430.0 0.0026992
3450.0 0.0028132
3470.0 0.0028897
3490.0 0.0029556
3510.0 0.0031259
3530.0 0.0037047
3550.0 0.0042906
3570.0 0.0046953
3590.0 0.0051744
3610.0 0.0051813
3630.0 0.0048321
3650.0 0.0051475
3670.0 0.0061326
3690.0 0.0068791
3710.0 0.0071428
3730.0 0.0072462
3750.0 0.0077068
3770.0 0.0077452
3790.0 0.0073975
3810.0 0.0069662
3830.0 0.0065575
3850.0 0.0065805
3870.0 0.0069141
3890.0 0.0071989
3910.0 0.0073976
3930.0 0.0074346
3950.0 0.0079355
3970.0 0.0085144
3990.0 0.0082406
4010.0 0.0073583
4030.0 0.0065869
4050.0 0.0064363
4070.0 0.0067215
4090.0 0.0067175
4110.0 0.0064886
4130.0 0.0064308
4150.0 0.0066762
4170.0 0.0073901
4190.0 0.0078851
4210.0 0.0075263
4230.0 0.0069737
4250.0 0.0066558
4270.0 0.0064579
4290.0 0.0065319
4310.0 0.0067175
4330.0 0.0063886
4350.0 0.0056358
4370.0 0.0050024
4390.0 0.0045643
4410.0 0.0042725
4430.0 0.0043349
4450.0 0.0047465
4470.0 0.005181
4490.0 0.0055907
4510.0 0.00626
4530.0 0.0075111
4550.0 0.0088656
4570.0 0.009683
4590.0 0.010349
4610.0 0.011014
4630.0 0.011234
4650.0 0.010435
4670.0 0.0089139
4690.0 0.007734
4710.0 0.007345
4730.0 0.0070566
4750.0 0.0062501
4770.0 0.0056174
4790.0 0.0058102
4810.0 0.0063119
4830.0 0.0062209
4850.0 0.0056185
4870.0 0.0056468
4890.0 0.0058348
4910.0 0.006005
4930.0 0.005951
4950.0 0.00582
4970.0 0.0055634
4990.0 0.0051309
5010.0 0.0047695
5030.0 0.0046031
5050.0 0.0045275
5070.0 0.0044811
5090.0 0.0044421
5110.0 0.0044343
5130.0 0.0045157
5150.0 0.0047594
5170.0 0.0052221
5190.0 0.0058066
5210.0 0.0063452
5230.0 0.006668
5250.0 0.0068406
5270.0 0.0071325
5290.0 0.0073924
5310.0 0.0074132
5330.0 0.0071448
5350.0 0.0068607
5370.0 0.0068661
5390.0 0.0071379
5410.0 0.00737
5430.0 0.0073852
5450.0 0.0073011
5470.0 0.0071028
5490.0 0.0068814
5510.0 0.0067841
5530.0 0.0068212
5550.0 0.0069146
5570.0 0.0069662
5590.0 0.0067585
5610.0 0.0063774
5630.0 0.0060276
5650.0 0.005751
5670.0 0.0055719
5690.0 0.0053344
5710.0 0.0051669
5730.0 0.0052232
5750.0 0.0051962
5770.0 0.0050933
5790.0 0.0051385
5810.0 0.0052775
5830.0 0.0053925
5850.0 0.0054259
5870.0 0.0052986
5890.0 0.0050745
5910.0 0.0048463
5930.0 0.0045385
5950.0 0.004307
5970.0 0.004321
5990.0 0.0044397
6010.0 0.004459
6030.0 0.0042996
6050.0 0.0042598
6070.0 0.0044209
6090.0 0.0045993
6110.0 0.0046265
6130.0 0.0044317
6150.0 0.0041534
6170.0 0.0039871
6190.0 0.0038536
6210.0 0.0037227
6230.0 0.0036226
6250.0 0.0036039
6270.0 0.0037011
6290.0 0.0038611
6310.0 0.0040522
6330.0 0.0042532
6350.0 0.0043963
6370.0 0.0044409
6390.0 0.0044325
6410.0 0.0044777
6430.0 0.0045373
6450.0 0.0045424
6470.0 0.0045769
6490.0 0.0046268
6510.0 0.0046325
6530.0 0.004574
6550.0 0.004443
6570.0 0.0042885
6590.0 0.0041732
6610.0 0.0040845
6630.0 0.0040045
6650.0 0.0038681
6670.0 0.0037134
6690.0 0.0035978
6710.0 0.0035276
6730.0 0.0035004
6750.0 0.0034624
6770.0 0.0034032
6790.0 0.0033466
6810.0 0.0033003
6830.0 0.0032917
6850.0 0.0032797
6870.0 0.0032455
6890.0 0.0032335
6910.0 0.0031763
6930.0 0.0031099
6950.0 0.0031023
6970.0 0.0030672
6990.0 0.002987
7010.0 0.0029401
7030.0 0.0028945
7050.0 0.0028356
7070.0 0.0027673
7090.0 0.0027098
7110.0 0.0027398
7130.0 0.0028278
7150.0 0.0029172
7170.0 0.0029737
7190.0 0.0029598
7210.0 0.0029181
7230.0 0.0028804
7250.0 0.002843
7270.0 0.0028045
7290.0 0.0027644
7310.0 0.0027402
7330.0 0.0027774
7350.0 0.0028061
7370.0 0.0028148
7390.0 0.0027863
7410.0 0.0027288
7430.0 0.0027048
7450.0 0.0026839
7470.0 0.0025726
7490.0 0.002478
7510.0 0.0023697
7530.0 0.0022874
7550.0 0.0022596
7570.0 0.0022902
7590.0 0.0022723
7610.0 0.0022477
7630.0 0.0022327
7650.0 0.0022301
7670.0 0.0022725
7690.0 0.0023634
7710.0 0.0024481
7730.0 0.0025319
7750.0 0.0025961
7770.0 0.0026343
7790.0 0.0026272
7810.0 0.0025762
7830.0 0.002599
7850.0 0.0025909
7870.0 0.0025187
7890.0 0.0024338
7910.0 0.0023584
7930.0 0.0022876
7950.0 0.002242
7970.0 0.0022397
7990.0 0.0022655
8010.0 0.0022573
8030.0 0.002232
8050.0 0.002192
8070.0 0.0021503
8090.0 0.002106
8110.0 0.0021113
8130.0 0.0021293
8150.0 0.0021292
8170.0 0.002113
8190.0 0.0020765
8210.0 0.0019828
8230.0 0.0018514
8250.0 0.0017697
8270.0 0.0017205
8290.0 0.0016947
8310.0 0.0017044
8330.0 0.0017393
8350.0 0.0017053
8370.0 0.0016651
8390.0 0.0016901
8410.0 0.0017553
8430.0 0.0018574
8450.0 0.0019535
8470.0 0.0019853
8490.0 0.0020098
8510.0 0.0020075
8530.0 0.0020065
8550.0 0.0020248
8570.0 0.0020302
8590.0 0.0020325
8610.0 0.0020889
8630.0 0.0021091
8650.0 0.002064
8670.0 0.0020614
8690.0 0.0020723
8710.0 0.0020555
8730.0 0.0020364
8750.0 0.0019763
8770.0 0.0019498
8790.0 0.0019324
8810.0 0.0019117
8830.0 0.0018154
8850.0 0.0016777
8870.0 0.0015746
8890.0 0.0015159
8910.0 0.0014243
8930.0 0.0013265
8950.0 0.0012839
8970.0 0.0012768
8990.0 0.0012807
9010.0 0.0012723
9030.0 0.0012633
9050.0 0.001255
9070.0 0.0012471
9090.0 0.0012393
9110.0 0.0012315
9130.0 0.0012237
9150.0 0.0012159
9170.0 0.0012081
9190.0 0.0012004
9210.0 0.0011926
9230.0 0.001185
9250.0 0.0011773
9270.0 0.0011697
9290.0 0.0011621
9310.0 0.0011545
9330.0 0.001147
9350.0 0.0011394
9370.0 0.0011319
9390.0 0.0011245
9410.0 0.001117
9430.0 0.0011096
9450.0 0.001102
9470.0 0.0010947
9490.0 0.0010876
9510.0 0.0010803
9530.0 0.0010732
9550.0 0.001066
9570.0 0.0010588
9590.0 0.0010517
9610.0 0.0010446
9630.0 0.0010376
9650.0 0.0010306
9670.0 0.0010236
9690.0 0.0010167
9710.0 0.0010098
9730.0 0.001003
9750.0 0.00099615
9770.0 0.00098937
9790.0 0.00098263
9810.0 0.00097594
9830.0 0.00096912
9850.0 0.00096145
9870.0 0.00095508
9890.0 0.00094891
9910.0 0.00094264
9930.0 0.0009361
9950.0 0.00092987
9970.0 0.00092353
9990.0 0.00091707
10010.0 0.00090985
10030.0 0.00090322
10050.0 0.00089742
10070.0 0.00089156
10090.0 0.00088566
10110.0 0.00087936
10130.0 0.00087209
10150.0 0.00086624
10170.0 0.00086059
10190.0 0.00085464
10210.0 0.00084883
10230.0 0.00084305
10250.0 0.00083702
10270.0 0.00083103
10290.0 0.00082525
10310.0 0.00081929
10330.0 0.00081318
10350.0 0.00080735
10370.0 0.00080156
10390.0 0.00079559
10410.0 0.00078968
10430.0 0.00078404
10450.0 0.00077821
10470.0 0.0007723
10490.0 0.0007666
10510.0 0.00076094
10530.0 0.00075497
10550.0 0.00074917
10570.0 0.00074358
10590.0 0.00073783
10610.0 0.000732
10630.0 0.00072641
10650.0 0.00072081
10670.0 0.00071495
10690.0 0.00070925
10710.0 0.00070368
10730.0 0.00069795
10750.0 0.00069206
10770.0 0.00068654
10790.0 0.00068094
10810.0 0.00067517
10830.0 0.00066951
10850.0 0.00066404
10870.0 0.00065825
10890.0 0.00065251
10910.0 0.00064702
10930.0 0.00064154
10950.0 0.00063597
10970.0 0.00063066
10990.0 0.00062568
11010.0 0.00063503
11030.0 0.00063063
11050.0 0.00062644
11070.0 0.00062223
11090.0 0.00061776
11110.0 0.00061344
11130.0 0.00060911
11150.0 0.00060456
11170.0 0.00059996
11190.0 0.00059555
11210.0 0.00059104
11230.0 0.00058648
11250.0 0.00058213
11270.0 0.00057796
11290.0 0.00057376
11310.0 0.00056971
11330.0 0.00056603
11350.0 0.0005624
11370.0 0.00055885
11390.0 0.00055553
11410.0 0.00055235
11430.0 0.00054908
11450.0 0.00054591
11470.0 0.00054283
11490.0 0.00053966
11510.0 0.00053631
11530.0 0.000533
11550.0 0.00052959
11570.0 0.00052589
11590.0 0.00052205
11610.0 0.00051816
11630.0 0.00051396
11650.0 0.00050948
11670.0 0.00050504
11690.0 0.00050049
11710.0 0.00049568
11730.0 0.00049087
11750.0 0.00048621
11770.0 0.00048139
11790.0 0.00047654
11810.0 0.00047191
11830.0 0.00046738
11850.0 0.00046272
11870.0 0.00045832
11890.0 0.00045418
11910.0 0.00045004
11930.0 0.00044601
11950.0 0.00044227
11970.0 0.00043864
11990.0 0.00043503
12010.0 0.00043168
12030.0 0.00042856
12050.0 0.00042554
12070.0 0.00042265
12090.0 0.00042012
12110.0 0.00041776
12130.0 0.00041557
12150.0 0.00041365
12170.0 0.00041201
12190.0 0.00041055
12210.0 0.00040938
12230.0 0.0004085
12250.0 0.00040788
12270.0 0.00040751
12290.0 0.0004074
12310.0 0.00040751
12330.0 0.00040784
12350.0 0.00040835
12370.0 0.00040898
12390.0 0.00040972
12410.0 0.00041058
12430.0 0.00041139
12450.0 0.00041215
12470.0 0.00041286
12490.0 0.00041343
12510.0 0.00041379
12530.0 0.00041395
12550.0 0.00041385
12570.0 0.00041342
12590.0 0.00041269
12610.0 0.00041156
12630.0 0.00041005
12650.0 0.00040824
12670.0 0.00040605
12690.0 0.00040346
12710.0 0.00040062
12730.0 0.00039756
12750.0 0.00039408
12770.0 0.00039046
12790.0 0.00038678
12810.0 0.00038292
12830.0 0.00037888
12850.0 0.00037496
12870.0 0.00037106
12890.0 0.00036704
12910.0 0.00036309
12930.0 0.0003593
12950.0 0.00035543
12970.0 0.00035154
12990.0 0.00034787
13010.0 0.00034426
13030.0 0.00034059
13050.0 0.00033705
13070.0 0.0003337
13090.0 0.0003303
13110.0 0.00032698
13130.0 0.00032386
13150.0 0.00032086
13170.0 0.00031786
13190.0 0.00031509
13210.0 0.00031254
13230.0 0.00031007
13250.0 0.00030772
13270.0 0.0003056
13290.0 0.00030356
13310.0 0.00030156
13330.0 0.00029971
13350.0 0.00029795
13370.0 0.00029618
13390.0 0.0002944
13410.0 0.00029273
13430.0 0.00029102
13450.0 0.00028925
13470.0 0.00028748
13490.0 0.00028572
13510.0 0.00028383
13530.0 0.00028191
13550.0 0.00028002
13570.0 0.00027808
13590.0 0.00027605
13610.0 0.00027406
13630.0 0.00027209
13650.0 0.00027003
13670.0 0.00026797
13690.0 0.00026597
13710.0 0.00026392
13730.0 0.00026178
13750.0 0.00025974
13770.0 0.0002577
13790.0 0.00025559
13810.0 0.00025347
13830.0 0.00025142
13850.0 0.00024927
13870.0 0.00024706
13890.0 0.00024489
13910.0 0.0002427
13930.0 0.00024038
13950.0 0.00023804
13970.0 0.00023577
13990.0 0.0002334
14010.0 0.00023095
14030.0 0.00022855
14050.0 0.00022613
14070.0 0.00022357
14090.0 0.00022106
14110.0 0.00021862
14130.0 0.00021614
14150.0 0.00021363
14170.0 0.0002113
14190.0 0.00020902
14210.0 0.00020674
14230.0 0.00020458
14250.0 0.00020258
14270.0 0.0002006
14290.0 0.00019869
14310.0 0.00019696
14330.0 0.00019532
14350.0 0.00019371
14370.0 0.00019222
14390.0 0.00019084
14410.0 0.00018946
14430.0 0.00018814
14450.0 0.00018691
14470.0 0.00018573
14490.0 0.00018453
14510.0 0.00018342
14530.0 0.00018238
14550.0 0.00018135
14570.0 0.00018034
14590.0 0.00017942
14610.0 0.00017851
14630.0 0.0001776
14650.0 0.00017676
14670.0 0.00017598
14690.0 0.00017521
14710.0 0.00017447
14730.0 0.00017384
14750.0 0.00017324
14770.0 0.0001727
14790.0 0.00017227
14810.0 0.00017193
14830.0 0.00017167
14850.0 0.00017154
14870.0 0.00017155
14890.0 0.00017166
14910.0 0.0001719
14930.0 0.00017222
14950.0 0.00017259
14970.0 0.00017299
14990.0 0.00017336
15010.0 0.00017366
15030.0 0.0001739
15050.0 0.00017404
15070.0 0.0001741
15090.0 0.00017411
15110.0 0.00017407
15130.0 0.00017401
15150.0 0.00017394
15170.0 0.00017386
15190.0 0.00017378
15210.0 0.0001737
15230.0 0.00017363
15250.0 0.00017355
15270.0 0.00017347
15290.0 0.00017341
15310.0 0.00017335
15330.0 0.00017328
15350.0 0.00017322
15370.0 0.00017317
15390.0 0.00017311
15410.0 0.00017306
15430.0 0.00017302
15450.0 0.00017297
15470.0 0.00017293
15490.0 0.00017289
15510.0 0.00017286
15530.0 0.00017283
15550.0 0.0001728
15570.0 0.00017278
15590.0 0.00017275
15610.0 0.00017272
15630.0 0.00017271
15650.0 0.00017269
15670.0 0.00017268
15690.0 0.00017267
15710.0 0.00017267
15730.0 0.00017266
15750.0 0.00017265
15770.0 0.00017266
15790.0 0.00017267
15810.0 0.00017266
15830.0 0.00017267
15850.0 0.00017269
15870.0 0.0001727
15890.0 0.00017271
15910.0 0.00017274
15930.0 0.00017276
15950.0 0.00017277
15970.0 0.0001728
15990.0 0.00017283
16010.0 0.00017286
16030.0 0.00017288
16050.0 0.00017292
16070.0 0.00017296
16090.0 0.00017299
16110.0 0.00017304
16130.0 0.00017308
16150.0 0.00017312
16170.0 0.00017316
16190.0 0.00017321
16210.0 0.00017326
16230.0 0.0001733
16250.0 0.00017336
16270.0 0.00017342
16290.0 0.00017347
16310.0 0.00017352
16330.0 0.00017358
16350.0 0.00017364
16370.0 0.00017369
16390.0 0.00017375
16410.0 0.00017381
16430.0 0.00017387
16450.0 0.00017393
16470.0 0.000174
16490.0 0.00017406
16510.0 0.00017412
16530.0 0.00017419
16550.0 0.00017426
16570.0 0.00017431
16590.0 0.00017438
16610.0 0.00017445
16630.0 0.00017451
16650.0 0.00017457
16670.0 0.00017464
16690.0 0.00017471
16710.0 0.00017477
16730.0 0.00017483
16750.0 0.0001749
16770.0 0.00017496
16790.0 0.00017502
16810.0 0.00017508
16830.0 0.00017515
16850.0 0.0001752
16870.0 0.00017526
16890.0 0.00017532
16910.0 0.00017538
16930.0 0.00017542
16950.0 0.00017548
16970.0 0.00017554
16990.0 0.00017558
17010.0 0.00017563
17030.0 0.00017568
17050.0 0.00017572
17070.0 0.00017576
17090.0 0.0001758
17110.0 0.00017584
17130.0 0.00017587
17150.0 0.0001759
17170.0 0.00017594
17190.0 0.00017597
17210.0 0.00017599
17230.0 0.00017602
17250.0 0.00017604
17270.0 0.00017604
17290.0 0.00017606
17310.0 0.00017607
17330.0 0.00017607
17350.0 0.00017607
17370.0 0.00017608
17390.0 0.00017607
17410.0 0.00017606
17430.0 0.00017605
17450.0 0.00017604
17470.0 0.00017601
17490.0 0.00017598
17510.0 0.00017596
17530.0 0.00017593
17550.0 0.00017589
17570.0 0.00017585
17590.0 0.00017581
17610.0 0.00017575
17630.0 0.00017569
17650.0 0.00017564
17670.0 0.00017557
17690.0 0.00017549
17710.0 0.00017542
17730.0 0.00017535
17750.0 0.00017526
17770.0 0.00017516
17790.0 0.00017508
17810.0 0.00017497
17830.0 0.00017486
17850.0 0.00017475
17870.0 0.00017463
17890.0 0.0001745
17910.0 0.00017437
17930.0 0.00017424
17950.0 0.0001741
17970.0 0.00017395
17990.0 0.0001738
18010.0 0.00017364
18030.0 0.00017347
18050.0 0.0001733
18070.0 0.00017312
18090.0 0.00017294
18110.0 0.00017274
18130.0 0.00017255
18150.0 0.00017235
18170.0 0.00017214
18190.0 0.00017192
18210.0 0.00017171
18230.0 0.00017147
18250.0 0.00017123
18270.0 0.00017099
18290.0 0.00017075
18310.0 0.00017049
18330.0 0.00017023
18350.0 0.00016997
18370.0 0.00016969
18390.0 0.0001694
18410.0 0.00016912
18430.0 0.00016882
18450.0 0.00016851
18470.0 0.00016821
18490.0 0.0001679
18510.0 0.00016757
18530.0 0.00016724
18550.0 0.00016691
18570.0 0.00016657
18590.0 0.00016622
18610.0 0.00016586
18630.0 0.00016551
18650.0 0.00016513
18670.0 0.00016475
18690.0 0.00016438
18710.0 0.00016399
18730.0 0.00016359
18750.0 0.0001632
18770.0 0.0001628
18790.0 0.00016237
18810.0 0.00016195
18830.0 0.00016153
18850.0 0.0001611
18870.0 0.00016065
18890.0 0.00016021
18910.0 0.00015977
18930.0 0.0001593
18950.0 0.00015884
18970.0 0.00015838
18990.0 0.0001579
19010.0 0.00015741
19030.0 0.00015693
19050.0 0.00015644
19070.0 0.00015593
19090.0 0.00015543
19110.0 0.00015493
19130.0 0.00015441
19150.0 0.00015388
19170.0 0.00015336
19190.0 0.00015283
19210.0 0.00015229
19230.0 0.00015174
19250.0 0.0001512
19270.0 0.00015065
19290.0 0.00015009
19310.0 0.00014953
19330.0 0.00014897
19350.0 0.00014839
19370.0 0.00014781
19390.0 0.00014724
19410.0 0.00014665
19430.0 0.00014605
19450.0 0.00014547
19470.0 0.00014487
19490.0 0.00014426
19510.0 0.00014366
19530.0 0.00014306
19550.0 0.00014244
19570.0 0.00014181
19590.0 0.0001412
19610.0 0.00014058
19630.0 0.00013994
19650.0 0.00013931
19670.0 0.00013869
19690.0 0.00013804
19710.0 0.0001374
19730.0 0.00013676
19750.0 0.00013612
19770.0 0.00013546
19790.0 0.00013481
19810.0 0.00013416
19830.0 0.0001335
19850.0 0.00013283
19870.0 0.00013216
19890.0 0.00013147
19910.0 0.00013074
19930.0 0.00012997
19950.0 0.00012913
19970.0 0.00012817
19990.0 0.00012708
20010.0 0.00012589
20030.0 0.00012452
20050.0 0.00012298
20070.0 0.00012136
20090.0 0.00011966
20110.0 0.00011781
20130.0 0.00011596
20150.0 0.00011415
20170.0 0.0001123
20190.0 0.00011044
20210.0 0.00010868
20230.0 0.00010695
20250.0 0.00010522
20270.0 0.00010358
20290.0 0.00010202
20310.0 0.0001005
20330.0 9.9007e-05
20350.0 9.7662e-05
20370.0 9.6373e-05
20390.0 9.513e-05
20410.0 9.3977e-05
20430.0 9.2917e-05
20450.0 9.1888e-05
20470.0 9.093e-05
20490.0 9.0057e-05
20510.0 8.924e-05
20530.0 8.8466e-05
20550.0 8.7758e-05
20570.0 8.711e-05
20590.0 8.6496e-05
20610.0 8.5924e-05
20630.0 8.5396e-05
20650.0 8.4898e-05
20670.0 8.4423e-05
20690.0 8.3975e-05
20710.0 8.3545e-05
20730.0 8.3123e-05
20750.0 8.2707e-05
20770.0 8.2292e-05
20790.0 8.1871e-05
20810.0 8.1435e-05
20830.0 8.0983e-05
20850.0 8.0512e-05
20870.0 8.0009e-05
20890.0 7.9474e-05
20910.0 7.8915e-05
20930.0 7.8319e-05
20950.0 7.768e-05
20970.0 7.7015e-05
20990.0 7.6323e-05
21010.0 7.558e-05
21030.0 7.481e-05
21050.0 7.4028e-05
21070.0 7.3214e-05
21090.0 7.2362e-05
21110.0 7.1518e-05
21130.0 7.0669e-05
21150.0 6.9793e-05
21170.0 6.8918e-05
21190.0 6.8065e-05
21210.0 6.7195e-05
21230.0 6.6322e-05
21250.0 6.5483e-05
21270.0 6.466e-05
21290.0 6.3835e-05
21310.0 6.3034e-05
21330.0 6.2275e-05
21350.0 6.152e-05
21370.0 6.0779e-05
21390.0 6.0075e-05
21410.0 5.9394e-05
21430.0 5.8709e-05
21450.0 5.8059e-05
21470.0 5.7437e-05
21490.0 5.6821e-05
21510.0 5.6215e-05
21530.0 5.5636e-05
21550.0 5.5067e-05
21570.0 5.4495e-05
21590.0 5.3941e-05
21610.0 5.3401e-05
21630.0 5.2859e-05
21650.0 5.2314e-05
21670.0 5.1795e-05
21690.0 5.1276e-05
21710.0 5.0752e-05
21730.0 5.0238e-05
21750.0 4.9737e-05
21770.0 4.9222e-05
21790.0 4.871e-05
21810.0 4.8211e-05
21830.0 4.7711e-05
21850.0 4.7201e-05
21870.0 4.6699e-05
21890.0 4.6208e-05
21910.0 4.5703e-05
21930.0 4.5198e-05
21950.0 4.4703e-05
21970.0 4.4204e-05
21990.0 4.3689e-05
22010.0 4.319e-05
22030.0 4.2696e-05
22050.0 4.2194e-05
22070.0 4.1694e-05
22090.0 4.1213e-05
22110.0 4.0729e-05
22130.0 4.0244e-05
22150.0 3.9775e-05
22170.0 3.932e-05
22190.0 3.8861e-05
22210.0 3.8414e-05
22230.0 3.7994e-05
22250.0 3.7578e-05
22270.0 3.7169e-05
22290.0 3.6782e-05
22310.0 3.641e-05
22330.0 3.6037e-05
22350.0 3.568e-05
22370.0 3.534e-05
22390.0 3.5005e-05
22410.0 3.4673e-05
22430.0 3.4358e-05
22450.0 3.405e-05
22470.0 3.374e-05
22490.0 3.3438e-05
22510.0 3.3145e-05
22530.0 3.2848e-05
22550.0 3.2549e-05
22570.0 3.2261e-05
22590.0 3.1976e-05
22610.0 3.1686e-05
22630.0 3.1401e-05
22650.0 3.1127e-05
22670.0 3.085e-05
22690.0 3.0576e-05
22710.0 3.0314e-05
22730.0 3.0058e-05
22750.0 2.98e-05
22770.0 2.9558e-05
22790.0 2.933e-05
22810.0 2.9109e-05
22830.0 2.8898e-05
22850.0 2.8706e-05
22870.0 2.8528e-05
22890.0 2.8361e-05
22910.0 2.8215e-05
22930.0 2.809e-05
22950.0 2.7982e-05
22970.0 2.7895e-05
22990.0 2.7833e-05
23010.0 2.779e-05
