#lamb flux
1010.0 2.6015e-07
1030.0 2.7505e-07
1050.0 2.9229e-07
1070.0 3.1173e-07
1090.0 3.3383e-07
1110.0 3.5657e-07
1130.0 3.7954e-07
1150.0 4.0368e-07
1170.0 4.2869e-07
1190.0 4.5254e-07
1210.0 4.7682e-07
1230.0 5.0204e-07
1250.0 5.269e-07
1270.0 5.5123e-07
1290.0 5.7704e-07
1310.0 6.0302e-07
1330.0 6.2815e-07
1350.0 6.5375e-07
1370.0 6.8034e-07
1390.0 7.065e-07
1410.0 7.3216e-07
1430.0 7.5911e-07
1450.0 7.8628e-07
1470.0 8.1283e-07
1490.0 8.3985e-07
1510.0 8.6847e-07
1530.0 8.9591e-07
1550.0 9.2319e-07
1570.0 9.5146e-07
1590.0 9.7988e-07
1610.0 1.0072e-06
1630.0 1.0354e-06
1650.0 1.0643e-06
1670.0 1.0923e-06
1690.0 1.1199e-06
1710.0 1.1484e-06
1730.0 1.1768e-06
1750.0 1.2034e-06
1770.0 1.2305e-06
1790.0 1.2577e-06
1810.0 1.2837e-06
1830.0 1.3088e-06
1850.0 1.3349e-06
1870.0 1.3597e-06
1890.0 1.3831e-06
1910.0 1.4063e-06
1930.0 1.4295e-06
1950.0 1.4508e-06
1970.0 1.471e-06
1990.0 1.4915e-06
2010.0 1.5108e-06
2030.0 1.5285e-06
2050.0 1.5463e-06
2070.0 1.564e-06
2090.0 1.5797e-06
2110.0 1.5948e-06
2130.0 1.6101e-06
2150.0 1.6245e-06
2170.0 1.6377e-06
2190.0 1.6515e-06
2210.0 1.6652e-06
2230.0 1.6781e-06
2250.0 1.6909e-06
2270.0 1.705e-06
2290.0 1.7187e-06
2310.0 1.7319e-06
2330.0 1.7463e-06
2350.0 1.7616e-06
2370.0 1.7768e-06
2390.0 1.7931e-06
2410.0 1.8114e-06
2430.0 1.8302e-06
2450.0 1.8497e-06
2470.0 1.8714e-06
2490.0 1.8957e-06
2510.0 1.9228e-06
2530.0 1.9588e-06
2550.0 2.0134e-06
2570.0 2.098e-06
2590.0 2.2264e-06
2610.0 2.4326e-06
2630.0 2.7293e-06
2650.0 3.1058e-06
2670.0 3.5699e-06
2690.0 4.1105e-06
2710.0 4.6628e-06
2730.0 5.1938e-06
2750.0 5.7123e-06
2770.0 6.1779e-06
2790.0 6.5822e-06
2810.0 6.9555e-06
2830.0 7.3218e-06
2850.0 7.6653e-06
2870.0 8.012e-06
2890.0 8.3809e-06
2910.0 8.7656e-06
2930.0 9.1553e-06
2950.0 9.5729e-06
2970.0 1.0015e-05
2990.0 1.0465e-05
3010.0 2.9277e-05
3030.0 3.0576e-05
3050.0 3.1872e-05
3070.0 3.3054e-05
3090.0 3.4063e-05
3110.0 3.4634e-05
3130.0 3.445e-05
3150.0 3.3165e-05
3170.0 3.0074e-05
3190.0 2.5109e-05
3210.0 1.8346e-05
3230.0 1.0735e-05
3250.0 1.8892e-05
3270.0 1.0009e-05
3290.0 2.8939e-05
3310.0 8.491e-06
3330.0 8.3253e-06
3350.0 1.0851e-05
3370.0 1.3835e-05
3390.0 1.7069e-05
3410.0 2.0303e-05
3430.0 2.3704e-05
3450.0 2.7121e-05
3470.0 3.0256e-05
3490.0 3.2381e-05
3510.0 3.9877e-05
3530.0 5.3354e-05
3550.0 5.1824e-05
3570.0 4.1692e-05
3590.0 5.8704e-05
3610.0 3.5524e-05
3630.0 6.1495e-05
3650.0 7.2202e-05
3670.0 9.365e-05
3690.0 8.6727e-05
3710.0 5.6267e-05
3730.0 7.5202e-05
3750.0 7.7397e-05
3770.0 8.2249e-05
3790.0 7.7591e-05
3810.0 7.6355e-05
3830.0 0.00012064
3850.0 0.00014494
3870.0 0.00018022
3890.0 0.00017222
3910.0 0.00015185
3930.0 0.00015535
3950.0 0.00017
3970.0 0.00019854
3990.0 0.00013332
4010.0 7.2151e-05
4030.0 0.00012345
4050.0 0.00015762
4070.0 0.00017422
4090.0 0.00012978
4110.0 8.0529e-05
4130.0 0.0001271
4150.0 0.00012521
4170.0 0.00012176
4190.0 0.00011391
4210.0 0.00015717
4230.0 0.00011006
4250.0 0.00012423
4270.0 0.00012359
4290.0 0.00011958
4310.0 0.00015324
4330.0 0.00016225
4350.0 0.00012808
4370.0 0.0001066
4390.0 0.00013436
4410.0 0.00013974
4430.0 0.00010332
4450.0 9.7884e-05
4470.0 0.00012011
4490.0 8.8145e-05
4510.0 0.00011943
4530.0 0.0001252
4550.0 0.00015611
4570.0 0.00022578
4590.0 0.00021651
4610.0 0.00015169
4630.0 0.00025478
4650.0 0.00035767
4670.0 0.00033515
4690.0 0.00021399
4710.0 0.00023263
4730.0 0.00028504
4750.0 0.00024276
4770.0 0.00018311
4790.0 0.00012041
4810.0 0.00017349
4830.0 0.00020404
4850.0 0.00017543
4870.0 5.6167e-05
4890.0 0.00019479
4910.0 0.00026905
4930.0 0.00029115
4950.0 0.00029066
4970.0 0.0001828
4990.0 0.00021482
5010.0 0.00025831
5030.0 0.00028706
5050.0 0.00027781
5070.0 0.00019625
5090.0 0.0001583
5110.0 0.00015076
5130.0 0.00013904
5150.0 0.00015012
5170.0 0.00013135
5190.0 0.0001615
5210.0 0.00016312
5230.0 0.00018082
5250.0 0.00022143
5270.0 0.00017975
5290.0 0.00018139
5310.0 0.00027603
5330.0 0.00032118
5350.0 0.0002646
5370.0 0.00023163
5390.0 0.00027282
5410.0 0.00034013
5430.0 0.00037026
5450.0 0.00039151
5470.0 0.00038868
5490.0 0.00038726
5510.0 0.0004633
5530.0 0.00048229
5550.0 0.00051724
5570.0 0.00055133
5590.0 0.0005458
5610.0 0.00051182
5630.0 0.000497
5650.0 0.00051356
5670.0 0.00050498
5690.0 0.00042853
5710.0 0.0004233
5730.0 0.0004321
5750.0 0.00046463
5770.0 0.00039917
5790.0 0.00037248
5810.0 0.00037929
5830.0 0.00040728
5850.0 0.00037522
5870.0 0.00038035
5890.0 0.0004562
5910.0 0.00042895
5930.0 0.00034787
5950.0 0.00030674
5970.0 0.00033748
5990.0 0.00031005
6010.0 0.00028926
6030.0 0.00029123
6050.0 0.00026813
6070.0 0.00020001
6090.0 0.00018415
6110.0 0.00024368
6130.0 0.00027981
6150.0 0.00029074
6170.0 0.00027921
6190.0 0.00025984
6210.0 0.00026313
6230.0 0.00032018
6250.0 0.00029576
6270.0 0.00026827
6290.0 0.00024666
6310.0 0.0002285
6330.0 0.00021452
6350.0 0.00018857
6370.0 0.00018871
6390.0 0.00022215
6410.0 0.00027756
6430.0 0.000324
6450.0 0.00031254
6470.0 0.00030856
6490.0 0.00038559
6510.0 0.00044767
6530.0 0.00042317
6550.0 0.00040135
6570.0 0.00040755
6590.0 0.00039906
6610.0 0.00042949
6630.0 0.00039995
6650.0 0.00034565
6670.0 0.00031471
6690.0 0.00031205
6710.0 0.00038312
6730.0 0.00034369
6750.0 0.00028202
6770.0 0.00025007
6790.0 0.00026502
6810.0 0.00030437
6830.0 0.00030098
6850.0 0.00026919
6870.0 0.00028096
6890.0 0.00027923
6910.0 0.00026247
6930.0 0.00029805
6950.0 0.00027431
6970.0 0.00025271
6990.0 0.0002505
7010.0 0.00024742
7030.0 0.00023838
7050.0 0.00023093
7070.0 0.00025396
7090.0 0.00023948
7110.0 0.00020296
7130.0 0.00016794
7150.0 0.00016004
7170.0 0.00021054
7190.0 0.00022649
7210.0 0.00021421
7230.0 0.000223
7250.0 0.0002104
7270.0 0.00020176
7290.0 0.0002228
7310.0 0.00024985
7330.0 0.00024523
7350.0 0.00022775
7370.0 0.00021149
7390.0 0.00021469
7410.0 0.00024936
7430.0 0.0002778
7450.0 0.00029385
7470.0 0.00029177
7490.0 0.00031735
7510.0 0.00031151
7530.0 0.00029206
7550.0 0.00028328
7570.0 0.00024685
7590.0 0.00023952
7610.0 0.00023091
7630.0 0.00021007
7650.0 0.00022599
7670.0 0.00024829
7690.0 0.00026955
7710.0 0.00030629
7730.0 0.00032264
7750.0 0.00033548
7770.0 0.00034377
7790.0 0.00037573
7810.0 0.00038137
7830.0 0.00034215
7850.0 0.00034389
7870.0 0.00032933
7890.0 0.00034208
7910.0 0.00032294
7930.0 0.00032325
7950.0 0.00027372
7970.0 0.00027704
7990.0 0.00026564
8010.0 0.00028143
8030.0 0.00027971
8050.0 0.00029639
8070.0 0.0002836
8090.0 0.00028445
8110.0 0.00027937
8130.0 0.00027751
8150.0 0.00026163
8170.0 0.00025558
8190.0 0.00025373
8210.0 0.00025575
8230.0 0.00022307
8250.0 0.00020336
8270.0 0.00017941
8290.0 0.00015203
8310.0 0.00013406
8330.0 0.00010692
8350.0 8.735e-05
8370.0 8.5489e-05
8390.0 8.2947e-05
8410.0 8.6228e-05
8430.0 0.00010996
8450.0 0.00011906
8470.0 0.00012746
8490.0 0.00014887
8510.0 0.00016177
8530.0 0.00018449
8550.0 0.00021793
8570.0 0.00023919
8590.0 0.00025169
8610.0 0.0002776
8630.0 0.00031323
8650.0 0.00031997
8670.0 0.00032556
8690.0 0.00033834
8710.0 0.00033178
8730.0 0.00032236
8750.0 0.0002979
8770.0 0.0002979
8790.0 0.0002937
8810.0 0.00026974
8830.0 0.0002706
8850.0 0.00024951
8870.0 0.00023838
8890.0 0.0002136
8910.0 0.00023604
8930.0 0.00021314
8950.0 0.00021239
8970.0 0.0002158
8990.0 0.00020881
9010.0 0.00021439
9030.0 0.00020381
9050.0 0.00020277
9070.0 0.00020278
9090.0 0.00020275
9110.0 0.00020284
9130.0 0.00020275
9150.0 0.00020255
9170.0 0.0002018
9190.0 0.00020021
9210.0 0.00020328
9230.0 0.0002023
9250.0 0.0002017
9270.0 0.00020116
9290.0 0.00020067
9310.0 0.0002002
9330.0 0.00019974
9350.0 0.00019928
9370.0 0.0001988
9390.0 0.0001983
9410.0 0.00019779
9430.0 0.00019726
9450.0 0.00019671
9470.0 0.00019614
9490.0 0.00019556
9510.0 0.00019497
9530.0 0.00019436
9550.0 0.00019375
9570.0 0.00019313
9590.0 0.00019249
9610.0 0.00019185
9630.0 0.00019121
9650.0 0.00019057
9670.0 0.00018991
9690.0 0.00018926
9710.0 0.00018861
9730.0 0.00018795
9750.0 0.00018729
9770.0 0.00018665
9790.0 0.000186
9810.0 0.00018535
9830.0 0.00018471
9850.0 0.00018408
9870.0 0.00018345
9890.0 0.00018282
9910.0 0.00018221
9930.0 0.0001816
9950.0 0.00018068
9970.0 0.00018019
9990.0 0.0001797
10010.0 0.0001792
10030.0 0.00017868
10050.0 0.00017811
10070.0 0.00017723
10090.0 0.00017684
10110.0 0.00017645
10130.0 0.00017603
10150.0 0.00017561
10170.0 0.00017517
10190.0 0.00017472
10210.0 0.0001743
10230.0 0.00017389
10250.0 0.00017348
10270.0 0.00017308
10290.0 0.00017271
10310.0 0.00017234
10330.0 0.00017198
10350.0 0.00017165
10370.0 0.00017133
10390.0 0.00017102
10410.0 0.00017072
10430.0 0.00017046
10450.0 0.00017019
10470.0 0.00016994
10490.0 0.00016971
10510.0 0.00016949
10530.0 0.00016928
10550.0 0.00016908
10570.0 0.00016891
10590.0 0.00016875
10610.0 0.00016859
10630.0 0.00016846
10650.0 0.00016834
10670.0 0.00016822
10690.0 0.00016812
10710.0 0.00016805
10730.0 0.00016797
10750.0 0.0001679
10770.0 0.00016786
10790.0 0.00016783
10810.0 0.0001678
10830.0 0.00016778
10850.0 0.00016777
10870.0 0.00016772
10890.0 0.00016761
10910.0 0.00016742
10930.0 0.00016704
10950.0 0.00016634
10970.0 0.00016527
10990.0 0.00016378
11010.0 0.0001657
11030.0 0.00016295
11050.0 0.00015972
11070.0 0.00015598
11090.0 0.00015163
11110.0 0.00014729
11130.0 0.00014294
11150.0 0.00013848
11170.0 0.00013412
11190.0 0.00013014
11210.0 0.00012627
11230.0 0.00012257
11250.0 0.00011927
11270.0 0.00011629
11290.0 0.00011347
11310.0 0.00011094
11330.0 0.00010879
11350.0 0.00010679
11370.0 0.00010492
11390.0 0.00010325
11410.0 0.00010169
11430.0 0.00010008
11450.0 9.8521e-05
11470.0 9.6985e-05
11490.0 9.5366e-05
11510.0 9.3621e-05
11530.0 9.1878e-05
11550.0 9.0073e-05
11570.0 8.8111e-05
11590.0 8.6097e-05
11610.0 8.4096e-05
11630.0 8.1969e-05
11650.0 7.9751e-05
11670.0 7.7628e-05
11690.0 7.5511e-05
11710.0 7.3337e-05
11730.0 7.1228e-05
11750.0 6.9257e-05
11770.0 6.7268e-05
11790.0 6.5326e-05
11810.0 6.3531e-05
11830.0 6.1819e-05
11850.0 6.0097e-05
11870.0 5.8516e-05
11890.0 5.7065e-05
11910.0 5.5635e-05
11930.0 5.4252e-05
11950.0 5.2985e-05
11970.0 5.1753e-05
11990.0 5.0508e-05
12010.0 4.934e-05
12030.0 4.8237e-05
12050.0 4.7133e-05
12070.0 4.6042e-05
12090.0 4.5071e-05
12110.0 4.4135e-05
12130.0 4.3232e-05
12150.0 4.243e-05
12170.0 4.1742e-05
12190.0 4.1112e-05
12210.0 4.0618e-05
12230.0 4.0286e-05
12250.0 4.01e-05
12270.0 4.0078e-05
12290.0 4.0241e-05
12310.0 4.0576e-05
12330.0 4.11e-05
12350.0 4.1802e-05
12370.0 4.264e-05
12390.0 4.3621e-05
12410.0 4.4771e-05
12430.0 4.5952e-05
12450.0 4.7171e-05
12470.0 4.8446e-05
12490.0 4.971e-05
12510.0 5.0889e-05
12530.0 5.2039e-05
12550.0 5.3129e-05
12570.0 5.4094e-05
12590.0 5.495e-05
12610.0 5.5722e-05
12630.0 5.6375e-05
12650.0 5.6898e-05
12670.0 5.733e-05
12690.0 5.7665e-05
12710.0 5.7904e-05
12730.0 5.8063e-05
12750.0 5.8139e-05
12770.0 5.8143e-05
12790.0 5.8086e-05
12810.0 5.7961e-05
12830.0 5.7762e-05
12850.0 5.7518e-05
12870.0 5.7218e-05
12890.0 5.6835e-05
12910.0 5.6391e-05
12930.0 5.5904e-05
12950.0 5.532e-05
12970.0 5.4645e-05
12990.0 5.3942e-05
13010.0 5.3174e-05
13030.0 5.2312e-05
13050.0 5.1412e-05
13070.0 5.0511e-05
13090.0 4.9538e-05
13110.0 4.8539e-05
13130.0 4.7582e-05
13150.0 4.6644e-05
13170.0 4.5692e-05
13190.0 4.4838e-05
13210.0 4.4088e-05
13230.0 4.34e-05
13250.0 4.2813e-05
13270.0 4.2362e-05
13290.0 4.2013e-05
13310.0 4.1762e-05
13330.0 4.1629e-05
13350.0 4.1588e-05
13370.0 4.1616e-05
13390.0 4.1698e-05
13410.0 4.1808e-05
13430.0 4.1922e-05
13450.0 4.2017e-05
13470.0 4.2072e-05
13490.0 4.2074e-05
13510.0 4.2001e-05
13530.0 4.1851e-05
13550.0 4.1635e-05
13570.0 4.1346e-05
13590.0 4.0983e-05
13610.0 4.0583e-05
13630.0 4.0162e-05
13650.0 3.97e-05
13670.0 3.9235e-05
13690.0 3.8794e-05
13710.0 3.8361e-05
13730.0 3.793e-05
13750.0 3.7554e-05
13770.0 3.7207e-05
13790.0 3.6873e-05
13810.0 3.6562e-05
13830.0 3.6279e-05
13850.0 3.5995e-05
13870.0 3.5708e-05
13890.0 3.5427e-05
13910.0 3.5141e-05
13930.0 3.4832e-05
13950.0 3.4515e-05
13970.0 3.4204e-05
13990.0 3.3879e-05
14010.0 3.3548e-05
14030.0 3.3233e-05
14050.0 3.2932e-05
14070.0 3.2634e-05
14090.0 3.2367e-05
14110.0 3.2134e-05
14130.0 3.1926e-05
14150.0 3.1751e-05
14170.0 3.1614e-05
14190.0 3.1511e-05
14210.0 3.144e-05
14230.0 3.1404e-05
14250.0 3.1398e-05
14270.0 3.1427e-05
14290.0 3.1492e-05
14310.0 3.1582e-05
14330.0 3.17e-05
14350.0 3.1852e-05
14370.0 3.2024e-05
14390.0 3.2205e-05
14410.0 3.2412e-05
14430.0 3.2629e-05
14450.0 3.284e-05
14470.0 3.305e-05
14490.0 3.327e-05
14510.0 3.3471e-05
14530.0 3.3656e-05
14550.0 3.3844e-05
14570.0 3.4032e-05
14590.0 3.4212e-05
14610.0 3.4405e-05
14630.0 3.463e-05
14650.0 3.487e-05
14670.0 3.5138e-05
14690.0 3.5462e-05
14710.0 3.5843e-05
14730.0 3.6247e-05
14750.0 3.6715e-05
14770.0 3.7255e-05
14790.0 3.7831e-05
14810.0 3.8433e-05
14830.0 3.9123e-05
14850.0 3.983e-05
14870.0 4.0518e-05
14890.0 4.1216e-05
14910.0 4.191e-05
14930.0 4.2524e-05
14950.0 4.305e-05
14970.0 4.3507e-05
14990.0 4.3837e-05
15010.0 4.4032e-05
15030.0 4.4117e-05
15050.0 4.4102e-05
15070.0 4.3994e-05
15090.0 4.3828e-05
15110.0 4.3623e-05
15130.0 4.3394e-05
15150.0 4.3154e-05
15170.0 4.2906e-05
15190.0 4.2653e-05
15210.0 4.2402e-05
15230.0 4.2152e-05
15250.0 4.1898e-05
15270.0 4.1645e-05
15290.0 4.1397e-05
15310.0 4.1147e-05
15330.0 4.0895e-05
15350.0 4.0648e-05
15370.0 4.0401e-05
15390.0 4.015e-05
15410.0 3.9903e-05
15430.0 3.9658e-05
15450.0 3.9413e-05
15470.0 3.9166e-05
15490.0 3.8924e-05
15510.0 3.8683e-05
15530.0 3.8439e-05
15550.0 3.8199e-05
15570.0 3.7961e-05
15590.0 3.7722e-05
15610.0 3.7482e-05
15630.0 3.7247e-05
15650.0 3.7013e-05
15670.0 3.6777e-05
15690.0 3.6544e-05
15710.0 3.6315e-05
15730.0 3.6084e-05
15750.0 3.5854e-05
15770.0 3.5628e-05
15790.0 3.5402e-05
15810.0 3.5174e-05
15830.0 3.4951e-05
15850.0 3.473e-05
15870.0 3.4509e-05
15890.0 3.4288e-05
15910.0 3.4072e-05
15930.0 3.3856e-05
15950.0 3.3638e-05
15970.0 3.3425e-05
15990.0 3.3214e-05
16010.0 3.3002e-05
16030.0 3.2791e-05
16050.0 3.2585e-05
16070.0 3.2379e-05
16090.0 3.2173e-05
16110.0 3.197e-05
16130.0 3.177e-05
16150.0 3.1567e-05
16170.0 3.1367e-05
16190.0 3.1171e-05
16210.0 3.0975e-05
16230.0 3.0778e-05
16250.0 3.0586e-05
16270.0 3.0397e-05
16290.0 3.0205e-05
16310.0 3.0016e-05
16330.0 2.9831e-05
16350.0 2.9645e-05
16370.0 2.9457e-05
16390.0 2.9276e-05
16410.0 2.9096e-05
16430.0 2.8915e-05
16450.0 2.8736e-05
16470.0 2.8562e-05
16490.0 2.8386e-05
16510.0 2.821e-05
16530.0 2.8038e-05
16550.0 2.7868e-05
16570.0 2.7696e-05
16590.0 2.7527e-05
16610.0 2.7362e-05
16630.0 2.7196e-05
16650.0 2.7031e-05
16670.0 2.6869e-05
16690.0 2.6709e-05
16710.0 2.6546e-05
16730.0 2.6387e-05
16750.0 2.6231e-05
16770.0 2.6074e-05
16790.0 2.5917e-05
16810.0 2.5765e-05
16830.0 2.5614e-05
16850.0 2.5461e-05
16870.0 2.5311e-05
16890.0 2.5164e-05
16910.0 2.5015e-05
16930.0 2.4867e-05
16950.0 2.4723e-05
16970.0 2.458e-05
16990.0 2.4436e-05
17010.0 2.4294e-05
17030.0 2.4156e-05
17050.0 2.4016e-05
17070.0 2.3876e-05
17090.0 2.3741e-05
17110.0 2.3605e-05
17130.0 2.3468e-05
17150.0 2.3334e-05
17170.0 2.3203e-05
17190.0 2.3071e-05
17210.0 2.294e-05
17230.0 2.2812e-05
17250.0 2.2684e-05
17270.0 2.2554e-05
17290.0 2.2428e-05
17310.0 2.2304e-05
17330.0 2.2178e-05
17350.0 2.2053e-05
17370.0 2.1933e-05
17390.0 2.1811e-05
17410.0 2.1689e-05
17430.0 2.157e-05
17450.0 2.1453e-05
17470.0 2.1333e-05
17490.0 2.1215e-05
17510.0 2.11e-05
17530.0 2.0985e-05
17550.0 2.0869e-05
17570.0 2.0756e-05
17590.0 2.0645e-05
17610.0 2.0532e-05
17630.0 2.042e-05
17650.0 2.0311e-05
17670.0 2.0202e-05
17690.0 2.009e-05
17710.0 1.9984e-05
17730.0 1.9878e-05
17750.0 1.977e-05
17770.0 1.9664e-05
17790.0 1.9562e-05
17810.0 1.9457e-05
17830.0 1.9352e-05
17850.0 1.925e-05
17870.0 1.9149e-05
17890.0 1.9046e-05
17910.0 1.8945e-05
17930.0 1.8848e-05
17950.0 1.8748e-05
17970.0 1.8649e-05
17990.0 1.8552e-05
18010.0 1.8456e-05
18030.0 1.8357e-05
18050.0 1.8261e-05
18070.0 1.8168e-05
18090.0 1.8073e-05
18110.0 1.7977e-05
18130.0 1.7886e-05
18150.0 1.7794e-05
18170.0 1.77e-05
18190.0 1.7609e-05
18210.0 1.752e-05
18230.0 1.7429e-05
18250.0 1.7337e-05
18270.0 1.725e-05
18290.0 1.7162e-05
18310.0 1.7072e-05
18330.0 1.6985e-05
18350.0 1.6901e-05
18370.0 1.6813e-05
18390.0 1.6726e-05
18410.0 1.6642e-05
18430.0 1.6558e-05
18450.0 1.6471e-05
18470.0 1.6388e-05
18490.0 1.6307e-05
18510.0 1.6223e-05
18530.0 1.6141e-05
18550.0 1.6061e-05
18570.0 1.598e-05
18590.0 1.5897e-05
18610.0 1.5818e-05
18630.0 1.5739e-05
18650.0 1.5659e-05
18670.0 1.5579e-05
18690.0 1.5503e-05
18710.0 1.5425e-05
18730.0 1.5346e-05
18750.0 1.527e-05
18770.0 1.5196e-05
18790.0 1.5117e-05
18810.0 1.5041e-05
18830.0 1.4967e-05
18850.0 1.4892e-05
18870.0 1.4817e-05
18890.0 1.4744e-05
18910.0 1.4672e-05
18930.0 1.4597e-05
18950.0 1.4524e-05
18970.0 1.4454e-05
18990.0 1.4381e-05
19010.0 1.4307e-05
19030.0 1.4238e-05
19050.0 1.4168e-05
19070.0 1.4096e-05
19090.0 1.4026e-05
19110.0 1.3959e-05
19130.0 1.3889e-05
19150.0 1.3819e-05
19170.0 1.3751e-05
19190.0 1.3684e-05
19210.0 1.3614e-05
19230.0 1.3546e-05
19250.0 1.3481e-05
19270.0 1.3414e-05
19290.0 1.3347e-05
19310.0 1.3282e-05
19330.0 1.3217e-05
19350.0 1.3149e-05
19370.0 1.3084e-05
19390.0 1.3021e-05
19410.0 1.2956e-05
19430.0 1.289e-05
19450.0 1.2828e-05
19470.0 1.2765e-05
19490.0 1.27e-05
19510.0 1.2638e-05
19530.0 1.2577e-05
19550.0 1.2513e-05
19570.0 1.2449e-05
19590.0 1.2389e-05
19610.0 1.2328e-05
19630.0 1.2265e-05
19650.0 1.2205e-05
19670.0 1.2146e-05
19690.0 1.2084e-05
19710.0 1.2023e-05
19730.0 1.1964e-05
19750.0 1.1905e-05
19770.0 1.1843e-05
19790.0 1.1785e-05
19810.0 1.1727e-05
19830.0 1.1667e-05
19850.0 1.1607e-05
19870.0 1.1549e-05
19890.0 1.1485e-05
19910.0 1.1416e-05
19930.0 1.1341e-05
19950.0 1.1256e-05
19970.0 1.115e-05
19990.0 1.1024e-05
20010.0 1.0883e-05
20030.0 1.0714e-05
20050.0 1.052e-05
20070.0 1.0316e-05
20090.0 1.0103e-05
20110.0 9.8696e-06
20130.0 9.6433e-06
20150.0 9.4279e-06
20170.0 9.2131e-06
20190.0 9.0039e-06
20210.0 8.8143e-06
20230.0 8.6362e-06
20250.0 8.4642e-06
20270.0 8.3111e-06
20290.0 8.1773e-06
20310.0 8.0559e-06
20330.0 7.9491e-06
20350.0 7.8677e-06
20370.0 7.8031e-06
20390.0 7.7559e-06
20410.0 7.7297e-06
20430.0 7.7232e-06
20450.0 7.7362e-06
20470.0 7.7701e-06
20490.0 7.8221e-06
20510.0 7.8926e-06
20530.0 7.9841e-06
20550.0 8.0903e-06
20570.0 8.2069e-06
20590.0 8.3405e-06
20610.0 8.4852e-06
20630.0 8.6324e-06
20650.0 8.786e-06
20670.0 8.9492e-06
20690.0 9.1046e-06
20710.0 9.2537e-06
20730.0 9.4011e-06
20750.0 9.5404e-06
20770.0 9.6634e-06
20790.0 9.7779e-06
20810.0 9.8829e-06
20830.0 9.9726e-06
20850.0 1.0049e-05
20870.0 1.0118e-05
20890.0 1.0176e-05
20910.0 1.0222e-05
20930.0 1.0261e-05
20950.0 1.0294e-05
20970.0 1.032e-05
20990.0 1.0341e-05
21010.0 1.0357e-05
21030.0 1.0368e-05
21050.0 1.0373e-05
21070.0 1.0372e-05
21090.0 1.0364e-05
21110.0 1.0351e-05
21130.0 1.0331e-05
21150.0 1.0305e-05
21170.0 1.0272e-05
21190.0 1.0236e-05
21210.0 1.0193e-05
21230.0 1.0146e-05
21250.0 1.0098e-05
21270.0 1.0048e-05
21290.0 9.997e-06
21310.0 9.9471e-06
21330.0 9.9015e-06
21350.0 9.857e-06
21370.0 9.816e-06
21390.0 9.781e-06
21410.0 9.7514e-06
21430.0 9.726e-06
21450.0 9.708e-06
21470.0 9.6968e-06
21490.0 9.6916e-06
21510.0 9.6931e-06
21530.0 9.7008e-06
21550.0 9.7146e-06
21570.0 9.7351e-06
21590.0 9.7613e-06
21610.0 9.7925e-06
21630.0 9.8303e-06
21650.0 9.8751e-06
21670.0 9.9228e-06
21690.0 9.9765e-06
21710.0 1.0037e-05
21730.0 1.0103e-05
21750.0 1.0172e-05
21770.0 1.025e-05
21790.0 1.0335e-05
21810.0 1.0422e-05
21830.0 1.0516e-05
21850.0 1.0618e-05
21870.0 1.0724e-05
21890.0 1.0831e-05
21910.0 1.0946e-05
21930.0 1.1066e-05
21950.0 1.1185e-05
21970.0 1.1307e-05
21990.0 1.1437e-05
22010.0 1.156e-05
22030.0 1.1681e-05
22050.0 1.1803e-05
22070.0 1.1921e-05
22090.0 1.2029e-05
22110.0 1.2132e-05
22130.0 1.2229e-05
22150.0 1.2312e-05
22170.0 1.2384e-05
22190.0 1.2445e-05
22210.0 1.249e-05
22230.0 1.2517e-05
22250.0 1.253e-05
22270.0 1.2524e-05
22290.0 1.25e-05
22310.0 1.2459e-05
22330.0 1.2397e-05
22350.0 1.2316e-05
22370.0 1.2221e-05
22390.0 1.2106e-05
22410.0 1.197e-05
22430.0 1.1826e-05
22450.0 1.1669e-05
22470.0 1.1494e-05
22490.0 1.131e-05
22510.0 1.1124e-05
22530.0 1.0924e-05
22550.0 1.0714e-05
22570.0 1.051e-05
22590.0 1.0305e-05
22610.0 1.0093e-05
22630.0 9.8863e-06
