#lamb flux
1010.0 0.00018103
1030.0 0.00018103
1050.0 0.00018103
1070.0 0.00018103
1090.0 0.00018103
1110.0 0.00018103
1130.0 0.00018103
1150.0 0.00018103
1170.0 0.00018103
1190.0 0.00018103
1210.0 0.00018103
1230.0 0.00018103
1250.0 0.00018103
1270.0 0.00018103
1290.0 0.00018103
1310.0 0.00018103
1330.0 0.00018103
1350.0 0.00018103
1370.0 0.00018103
1390.0 0.00018103
1410.0 0.00018103
1430.0 0.00018103
1450.0 0.00020075
1470.0 0.00022815
1490.0 0.00025901
1510.0 0.00029389
1530.0 0.00033182
1550.0 0.0003733
1570.0 0.0004192
1590.0 0.00046947
1610.0 0.00052346
1630.0 0.00058185
1650.0 0.00064597
1670.0 0.00071506
1690.0 0.0007897
1710.0 0.00087126
1730.0 0.00095936
1750.0 0.0010524
1770.0 0.0011524
1790.0 0.0012593
1810.0 0.0013712
1830.0 0.001488
1850.0 0.0016117
1870.0 0.0017389
1890.0 0.001868
1910.0 0.0020002
1930.0 0.0021346
1950.0 0.0022669
1970.0 0.0023972
1990.0 0.0025265
2010.0 0.0026509
2030.0 0.0027683
2050.0 0.0028805
2070.0 0.0029865
2090.0 0.0030809
2110.0 0.0031656
2130.0 0.003242
2150.0 0.0033069
2170.0 0.0033588
2190.0 0.0034019
2210.0 0.0034348
2230.0 0.0034553
2250.0 0.0034658
2270.0 0.0034694
2290.0 0.0034627
2310.0 0.0034462
2330.0 0.0034244
2350.0 0.0033969
2370.0 0.0033624
2390.0 0.0033243
2410.0 0.0032854
2430.0 0.0032432
2450.0 0.0031994
2470.0 0.0031576
2490.0 0.0031191
2510.0 0.0030831
2530.0 0.0030588
2550.0 0.0030579
2570.0 0.0030909
2590.0 0.003171
2610.0 0.0033348
2630.0 0.0035897
2650.0 0.0039212
2670.0 0.0043402
2690.0 0.0048422
2710.0 0.0053691
2730.0 0.0058986
2750.0 0.0064594
2770.0 0.0070156
2790.0 0.0075525
2810.0 0.008107
2830.0 0.0087111
2850.0 0.009307
2870.0 0.0099272
2890.0 0.010602
2910.0 0.011311
2930.0 0.012027
2950.0 0.012804
2970.0 0.013635
2990.0 0.014485
3010.0 0.015369
3030.0 0.01632
3050.0 0.017306
3070.0 0.018272
3090.0 0.019254
3110.0 0.020198
3130.0 0.021027
3150.0 0.021705
3170.0 0.022187
3190.0 0.022408
3210.0 0.022323
3230.0 0.022029
3250.0 0.021919
3270.0 0.022217
3290.0 0.022803
3310.0 0.023532
3330.0 0.024432
3350.0 0.025445
3370.0 0.026586
3390.0 0.027919
3410.0 0.029185
3430.0 0.031158
3450.0 0.032733
3470.0 0.034383
3490.0 0.035781
3510.0 0.037478
3530.0 0.043094
3550.0 0.050943
3570.0 0.055735
3590.0 0.05783
3610.0 0.058044
3630.0 0.056265
3650.0 0.060805
3670.0 0.07232
3690.0 0.081434
3710.0 0.086275
3730.0 0.090309
3750.0 0.094742
3770.0 0.093965
3790.0 0.089012
3810.0 0.083346
3830.0 0.077644
3850.0 0.077102
3870.0 0.083462
3890.0 0.09007
3910.0 0.09463
3930.0 0.097517
3950.0 0.10609
3970.0 0.11407
3990.0 0.10901
4010.0 0.095907
4030.0 0.084009
4050.0 0.080445
4070.0 0.082476
4090.0 0.082499
4110.0 0.080678
4130.0 0.079342
4150.0 0.080165
4170.0 0.08735
4190.0 0.095924
4210.0 0.094848
4230.0 0.089721
4250.0 0.087458
4270.0 0.087401
4290.0 0.091142
4310.0 0.095142
4330.0 0.09058
4350.0 0.078584
4370.0 0.068799
4390.0 0.06183
4410.0 0.055903
4430.0 0.055573
4450.0 0.060319
4470.0 0.064502
4490.0 0.070061
4510.0 0.08016
4530.0 0.10141
4550.0 0.12885
4570.0 0.14528
4590.0 0.15487
4610.0 0.1701
4630.0 0.18103
4650.0 0.16933
4670.0 0.13883
4690.0 0.1136
4710.0 0.10328
4730.0 0.10025
4750.0 0.09242
4770.0 0.085709
4790.0 0.090052
4810.0 0.098467
4830.0 0.099436
4850.0 0.09292
4870.0 0.090162
4890.0 0.096177
4910.0 0.10231
4930.0 0.10307
4950.0 0.099524
4970.0 0.093289
4990.0 0.084334
5010.0 0.076353
5030.0 0.071709
5050.0 0.06957
5070.0 0.067854
5090.0 0.065851
5110.0 0.065274
5130.0 0.065673
5150.0 0.068748
5170.0 0.076402
5190.0 0.086142
5210.0 0.097133
5230.0 0.10421
5250.0 0.10776
5270.0 0.1135
5290.0 0.12031
5310.0 0.12277
5330.0 0.118
5350.0 0.11123
5370.0 0.11077
5390.0 0.11842
5410.0 0.12813
5430.0 0.13401
5450.0 0.13505
5470.0 0.13181
5490.0 0.12647
5510.0 0.12282
5530.0 0.12191
5550.0 0.12247
5570.0 0.12252
5590.0 0.11934
5610.0 0.11362
5630.0 0.10587
5650.0 0.097722
5670.0 0.092635
5690.0 0.089927
5710.0 0.08838
5730.0 0.088583
5750.0 0.087576
5770.0 0.085617
5790.0 0.085713
5810.0 0.08622
5830.0 0.087041
5850.0 0.087524
5870.0 0.085656
5890.0 0.081871
5910.0 0.076871
5930.0 0.069264
5950.0 0.062987
5970.0 0.061419
5990.0 0.063404
6010.0 0.064775
6030.0 0.062616
6050.0 0.060536
6070.0 0.06282
6090.0 0.067694
6110.0 0.070546
6130.0 0.068798
6150.0 0.064819
6170.0 0.061961
6190.0 0.05931
6210.0 0.055764
6230.0 0.052062
6250.0 0.050304
6270.0 0.051417
6290.0 0.053395
6310.0 0.056547
6330.0 0.061138
6350.0 0.066031
6370.0 0.068763
6390.0 0.069439
6410.0 0.070116
6430.0 0.070801
6450.0 0.071567
6470.0 0.072978
6490.0 0.074514
6510.0 0.075584
6530.0 0.075565
6550.0 0.074376
6570.0 0.071856
6590.0 0.068519
6610.0 0.066134
6630.0 0.064764
6650.0 0.062741
6670.0 0.059908
6690.0 0.057489
6710.0 0.056232
6730.0 0.055654
6750.0 0.054806
6770.0 0.053768
6790.0 0.052894
6810.0 0.051797
6830.0 0.051181
6850.0 0.052073
6870.0 0.052638
6890.0 0.052104
6910.0 0.050962
6930.0 0.049893
6950.0 0.04897
6970.0 0.047311
6990.0 0.045508
7010.0 0.044719
7030.0 0.044277
7050.0 0.042972
7070.0 0.041043
7090.0 0.04022
7110.0 0.04124
7130.0 0.043762
7150.0 0.046465
7170.0 0.048214
7190.0 0.047872
7210.0 0.046
7230.0 0.044798
7250.0 0.044702
7270.0 0.044591
7290.0 0.044225
7310.0 0.044553
7330.0 0.045882
7350.0 0.047627
7370.0 0.048698
7390.0 0.04856
7410.0 0.047509
7430.0 0.046129
7450.0 0.044522
7470.0 0.0424
7490.0 0.040935
7510.0 0.039702
7530.0 0.039012
7550.0 0.039316
7570.0 0.039828
7590.0 0.040178
7610.0 0.040076
7630.0 0.039927
7650.0 0.040285
7670.0 0.041365
7690.0 0.042716
7710.0 0.044284
7730.0 0.045511
7750.0 0.046951
7770.0 0.048022
7790.0 0.04864
7810.0 0.048733
7830.0 0.04876
7850.0 0.047947
7870.0 0.04593
7890.0 0.043833
7910.0 0.042518
7930.0 0.041575
7950.0 0.040666
7970.0 0.040231
7990.0 0.040509
8010.0 0.039006
8030.0 0.038637
8050.0 0.038144
8070.0 0.037522
8090.0 0.036889
8110.0 0.036904
8130.0 0.037138
8150.0 0.037028
8170.0 0.036779
8190.0 0.035861
8210.0 0.033834
8230.0 0.031621
8250.0 0.030358
8270.0 0.02939
8290.0 0.028391
8310.0 0.027932
8330.0 0.027884
8350.0 0.027206
8370.0 0.026866
8390.0 0.027769
8410.0 0.029405
8430.0 0.031515
8450.0 0.033732
8470.0 0.035026
8490.0 0.036175
8510.0 0.03699
8530.0 0.037804
8550.0 0.03862
8570.0 0.039173
8590.0 0.039675
8610.0 0.040754
8630.0 0.041217
8650.0 0.04044
8670.0 0.040502
8690.0 0.041191
8710.0 0.041836
8730.0 0.041768
8750.0 0.040796
8770.0 0.040439
8790.0 0.04028
8810.0 0.039657
8830.0 0.037098
8850.0 0.033882
8870.0 0.031585
8890.0 0.030437
8910.0 0.028846
8930.0 0.02685
8950.0 0.02557
8970.0 0.025365
8990.0 0.02563
9010.0 0.025616
9030.0 0.025426
9050.0 0.02525
9070.0 0.025103
9090.0 0.024961
9110.0 0.02482
9130.0 0.02468
9150.0 0.024541
9170.0 0.024402
9190.0 0.024264
9210.0 0.024126
9230.0 0.02399
9250.0 0.023855
9270.0 0.02372
9290.0 0.023586
9310.0 0.023453
9330.0 0.023321
9350.0 0.02319
9370.0 0.023059
9390.0 0.022929
9410.0 0.0228
9430.0 0.02267
9450.0 0.02253
9470.0 0.022395
9490.0 0.02228
9510.0 0.02216
9530.0 0.02204
9550.0 0.021918
9570.0 0.021795
9590.0 0.021674
9610.0 0.021554
9630.0 0.021432
9650.0 0.021312
9670.0 0.021194
9690.0 0.021075
9710.0 0.020956
9730.0 0.02084
9750.0 0.020723
9770.0 0.020606
9790.0 0.02049
9810.0 0.020375
9830.0 0.020259
9850.0 0.020134
9870.0 0.020024
9890.0 0.019914
9910.0 0.019802
9930.0 0.01969
9950.0 0.01958
9970.0 0.019467
9990.0 0.019353
10010.0 0.019229
10030.0 0.019112
10050.0 0.019008
10070.0 0.018903
10090.0 0.018797
10110.0 0.018681
10130.0 0.01853
10150.0 0.018427
10170.0 0.018332
10190.0 0.018228
10210.0 0.018125
10230.0 0.018021
10250.0 0.01791
10270.0 0.017798
10290.0 0.017691
10310.0 0.017579
10330.0 0.017462
10350.0 0.017352
10370.0 0.017241
10390.0 0.017125
10410.0 0.01701
10430.0 0.016901
10450.0 0.016786
10470.0 0.016669
10490.0 0.016556
10510.0 0.016443
10530.0 0.016321
10550.0 0.016203
10570.0 0.016089
10590.0 0.015971
10610.0 0.015849
10630.0 0.015733
10650.0 0.015615
10670.0 0.01549
10690.0 0.015368
10710.0 0.015249
10730.0 0.015125
10750.0 0.014996
10770.0 0.014875
10790.0 0.014752
10810.0 0.014623
10830.0 0.014496
10850.0 0.014374
10870.0 0.014242
10890.0 0.01411
10910.0 0.013983
10930.0 0.013855
10950.0 0.013723
10970.0 0.013595
10990.0 0.013475
11010.0 0.013081
11030.0 0.012954
11050.0 0.012836
11070.0 0.01272
11090.0 0.0126
11110.0 0.012491
11130.0 0.012386
11150.0 0.012282
11170.0 0.012183
11190.0 0.012093
11210.0 0.012008
11230.0 0.011926
11250.0 0.011854
11270.0 0.01179
11290.0 0.011729
11310.0 0.011674
11330.0 0.011628
11350.0 0.011585
11370.0 0.011544
11390.0 0.011508
11410.0 0.011473
11430.0 0.011438
11450.0 0.011402
11470.0 0.011367
11490.0 0.011328
11510.0 0.011285
11530.0 0.011239
11550.0 0.011189
11570.0 0.011133
11590.0 0.011071
11610.0 0.011005
11630.0 0.01093
11650.0 0.010846
11670.0 0.010758
11690.0 0.010664
11710.0 0.010559
11730.0 0.010448
11750.0 0.010334
11770.0 0.010208
11790.0 0.010075
11810.0 0.0099398
11830.0 0.0097997
11850.0 0.0096475
11870.0 0.0094959
11890.0 0.0093467
11910.0 0.0091916
11930.0 0.0090348
11950.0 0.0088849
11970.0 0.0087359
11990.0 0.0085844
12010.0 0.0084409
12030.0 0.0083051
12050.0 0.0081709
12070.0 0.0080401
12090.0 0.0079227
12110.0 0.0078097
12130.0 0.0077006
12150.0 0.0076006
12170.0 0.0075101
12190.0 0.0074225
12210.0 0.0073439
12230.0 0.0072761
12250.0 0.007216
12270.0 0.0071634
12290.0 0.0071208
12310.0 0.0070873
12330.0 0.0070609
12350.0 0.0070423
12370.0 0.0070305
12390.0 0.0070245
12410.0 0.0070242
12430.0 0.0070274
12450.0 0.0070333
12470.0 0.0070419
12490.0 0.0070517
12510.0 0.0070609
12530.0 0.0070703
12550.0 0.0070789
12570.0 0.0070849
12590.0 0.0070878
12610.0 0.0070878
12630.0 0.007083
12650.0 0.0070729
12670.0 0.0070574
12690.0 0.0070354
12710.0 0.0070072
12730.0 0.0069729
12750.0 0.0069304
12770.0 0.0068817
12790.0 0.0068283
12810.0 0.0067686
12830.0 0.0067027
12850.0 0.0066356
12870.0 0.0065661
12890.0 0.0064926
12910.0 0.0064189
12930.0 0.0063471
12950.0 0.0062735
12970.0 0.0061998
12990.0 0.0061307
13010.0 0.0060634
13030.0 0.0059962
13050.0 0.0059322
13070.0 0.0058723
13090.0 0.0058126
13110.0 0.0057547
13130.0 0.0057006
13150.0 0.0056486
13170.0 0.0055969
13190.0 0.005549
13210.0 0.0055044
13230.0 0.0054611
13250.0 0.0054198
13270.0 0.0053819
13290.0 0.0053455
13310.0 0.0053098
13330.0 0.0052764
13350.0 0.0052445
13370.0 0.0052124
13390.0 0.0051801
13410.0 0.0051489
13430.0 0.0051166
13450.0 0.0050826
13470.0 0.0050477
13490.0 0.0050121
13510.0 0.0049728
13530.0 0.0049318
13550.0 0.0048903
13570.0 0.0048465
13590.0 0.0047998
13610.0 0.0047529
13630.0 0.0047059
13650.0 0.0046562
13670.0 0.004606
13690.0 0.0045571
13710.0 0.0045072
13730.0 0.0044552
13750.0 0.004406
13770.0 0.0043575
13790.0 0.0043079
13810.0 0.004259
13830.0 0.0042126
13850.0 0.0041655
13870.0 0.0041183
13890.0 0.0040736
13910.0 0.0040303
13930.0 0.0039867
13950.0 0.0039448
13970.0 0.0039063
13990.0 0.0038682
14010.0 0.0038313
14030.0 0.003797
14050.0 0.0037645
14070.0 0.0037319
14090.0 0.0037014
14110.0 0.003673
14130.0 0.003645
14150.0 0.0036175
14170.0 0.0035921
14190.0 0.0035675
14210.0 0.0035429
14230.0 0.0035194
14250.0 0.0034972
14270.0 0.0034749
14290.0 0.003453
14310.0 0.0034327
14330.0 0.003413
14350.0 0.0033934
14370.0 0.0033747
14390.0 0.0033572
14410.0 0.0033396
14430.0 0.0033225
14450.0 0.0033066
14470.0 0.0032911
14490.0 0.0032753
14510.0 0.0032605
14530.0 0.0032465
14550.0 0.003232
14570.0 0.0032175
14590.0 0.0032035
14610.0 0.0031889
14630.0 0.0031732
14650.0 0.0031577
14670.0 0.0031422
14690.0 0.0031261
14710.0 0.0031102
14730.0 0.0030962
14750.0 0.0030835
14770.0 0.0030729
14790.0 0.003066
14810.0 0.0030631
14830.0 0.0030651
14850.0 0.003073
14870.0 0.0030866
14890.0 0.0031061
14910.0 0.0031315
14930.0 0.0031602
14950.0 0.0031905
14970.0 0.0032221
14990.0 0.0032514
15010.0 0.0032764
15030.0 0.0032974
15050.0 0.003314
15070.0 0.0033256
15090.0 0.0033342
15110.0 0.0033406
15130.0 0.0033455
15150.0 0.0033498
15170.0 0.0033538
15190.0 0.0033576
15210.0 0.0033615
15230.0 0.0033654
15250.0 0.0033695
15270.0 0.0033736
15290.0 0.0033779
15310.0 0.0033823
15330.0 0.0033868
15350.0 0.0033914
15370.0 0.0033962
15390.0 0.0034009
15410.0 0.0034058
15430.0 0.0034109
15450.0 0.003416
15470.0 0.0034211
15490.0 0.0034265
15510.0 0.003432
15530.0 0.0034374
15550.0 0.003443
15570.0 0.0034488
15590.0 0.0034545
15610.0 0.0034603
15630.0 0.0034663
15650.0 0.0034724
15670.0 0.0034785
15690.0 0.0034847
15710.0 0.0034911
15730.0 0.0034974
15750.0 0.0035038
15770.0 0.0035104
15790.0 0.003517
15810.0 0.0035236
15830.0 0.0035303
15850.0 0.0035372
15870.0 0.003544
15890.0 0.0035509
15910.0 0.003558
15930.0 0.003565
15950.0 0.0035721
15970.0 0.0035793
15990.0 0.0035865
16010.0 0.0035938
16030.0 0.003601
16050.0 0.0036085
16070.0 0.0036159
16090.0 0.0036233
16110.0 0.0036308
16130.0 0.0036384
16150.0 0.0036459
16170.0 0.0036535
16190.0 0.0036612
16210.0 0.0036689
16230.0 0.0036765
16250.0 0.0036843
16270.0 0.0036921
16290.0 0.0036998
16310.0 0.0037075
16330.0 0.0037154
16350.0 0.0037232
16370.0 0.0037309
16390.0 0.0037388
16410.0 0.0037467
16430.0 0.0037545
16450.0 0.0037623
16470.0 0.0037702
16490.0 0.003778
16510.0 0.0037858
16530.0 0.0037937
16550.0 0.0038015
16570.0 0.0038093
16590.0 0.003817
16610.0 0.0038248
16630.0 0.0038326
16650.0 0.0038402
16670.0 0.003848
16690.0 0.0038557
16710.0 0.0038632
16730.0 0.0038708
16750.0 0.0038784
16770.0 0.0038858
16790.0 0.0038932
16810.0 0.0039007
16830.0 0.0039081
16850.0 0.0039154
16870.0 0.0039226
16890.0 0.0039299
16910.0 0.003937
16930.0 0.003944
16950.0 0.0039511
16970.0 0.003958
16990.0 0.0039649
17010.0 0.0039717
17030.0 0.0039785
17050.0 0.0039851
17070.0 0.0039916
17090.0 0.0039981
17110.0 0.0040045
17130.0 0.0040107
17150.0 0.0040169
17170.0 0.0040231
17190.0 0.0040291
17210.0 0.0040349
17230.0 0.0040408
17250.0 0.0040465
17270.0 0.004052
17290.0 0.0040575
17310.0 0.0040629
17330.0 0.0040681
17350.0 0.0040731
17370.0 0.0040782
17390.0 0.0040831
17410.0 0.0040878
17430.0 0.0040924
17450.0 0.0040969
17470.0 0.0041012
17490.0 0.0041053
17510.0 0.0041094
17530.0 0.0041133
17550.0 0.004117
17570.0 0.0041207
17590.0 0.0041242
17610.0 0.0041275
17630.0 0.0041306
17650.0 0.0041337
17670.0 0.0041365
17690.0 0.004139
17710.0 0.0041416
17730.0 0.004144
17750.0 0.0041461
17770.0 0.0041481
17790.0 0.00415
17810.0 0.0041516
17830.0 0.004153
17850.0 0.0041543
17870.0 0.0041555
17890.0 0.0041563
17910.0 0.004157
17930.0 0.0041577
17950.0 0.004158
17970.0 0.0041582
17990.0 0.0041582
18010.0 0.004158
18030.0 0.0041575
18050.0 0.0041569
18070.0 0.0041562
18090.0 0.0041551
18110.0 0.0041539
18130.0 0.0041525
18150.0 0.0041509
18170.0 0.0041491
18190.0 0.0041471
18210.0 0.0041449
18230.0 0.0041424
18250.0 0.0041397
18270.0 0.0041369
18290.0 0.0041339
18310.0 0.0041306
18330.0 0.0041271
18350.0 0.0041235
18370.0 0.0041195
18390.0 0.0041154
18410.0 0.0041111
18430.0 0.0041065
18450.0 0.0041017
18470.0 0.0040967
18490.0 0.0040916
18510.0 0.0040862
18530.0 0.0040805
18550.0 0.0040748
18570.0 0.0040687
18590.0 0.0040624
18610.0 0.0040559
18630.0 0.0040493
18650.0 0.0040423
18670.0 0.0040351
18690.0 0.0040279
18710.0 0.0040203
18730.0 0.0040125
18750.0 0.0040046
18770.0 0.0039965
18790.0 0.003988
18810.0 0.0039794
18830.0 0.0039707
18850.0 0.0039616
18870.0 0.0039524
18890.0 0.003943
18910.0 0.0039334
18930.0 0.0039235
18950.0 0.0039135
18970.0 0.0039033
18990.0 0.0038929
19010.0 0.0038822
19030.0 0.0038714
19050.0 0.0038605
19070.0 0.0038492
19090.0 0.0038378
19110.0 0.0038263
19130.0 0.0038145
19150.0 0.0038025
19170.0 0.0037904
19190.0 0.0037781
19210.0 0.0037656
19230.0 0.0037529
19250.0 0.0037401
19270.0 0.0037271
19290.0 0.0037138
19310.0 0.0037005
19330.0 0.003687
19350.0 0.0036733
19370.0 0.0036594
19390.0 0.0036454
19410.0 0.0036313
19430.0 0.0036169
19450.0 0.0036025
19470.0 0.0035879
19490.0 0.003573
19510.0 0.0035581
19530.0 0.0035431
19550.0 0.0035279
19570.0 0.0035125
19590.0 0.0034971
19610.0 0.0034815
19630.0 0.0034657
19650.0 0.0034499
19670.0 0.003434
19690.0 0.0034178
19710.0 0.0034016
19730.0 0.0033853
19750.0 0.0033689
19770.0 0.0033522
19790.0 0.0033356
19810.0 0.0033189
19830.0 0.0033019
19850.0 0.0032848
19870.0 0.0032674
19890.0 0.0032493
19910.0 0.0032302
19930.0 0.0032097
19950.0 0.003187
19970.0 0.0031609
19990.0 0.0031308
20010.0 0.0030973
20030.0 0.0030589
20050.0 0.0030159
20070.0 0.0029703
20090.0 0.0029225
20110.0 0.0028709
20130.0 0.0028194
20150.0 0.0027689
20170.0 0.0027176
20190.0 0.0026663
20210.0 0.0026172
20230.0 0.0025692
20250.0 0.0025208
20270.0 0.0024746
20290.0 0.0024305
20310.0 0.0023872
20330.0 0.0023446
20350.0 0.0023057
20370.0 0.0022682
20390.0 0.0022319
20410.0 0.0021979
20430.0 0.0021665
20450.0 0.002136
20470.0 0.0021075
20490.0 0.0020815
20510.0 0.0020572
20530.0 0.0020343
20550.0 0.0020133
20570.0 0.0019941
20590.0 0.0019761
20610.0 0.0019595
20630.0 0.0019441
20650.0 0.0019297
20670.0 0.0019162
20690.0 0.0019035
20710.0 0.0018913
20730.0 0.0018795
20750.0 0.0018679
20770.0 0.0018564
20790.0 0.0018448
20810.0 0.001833
20830.0 0.0018208
20850.0 0.0018082
20870.0 0.0017949
20890.0 0.0017809
20910.0 0.0017663
20930.0 0.0017509
20950.0 0.0017345
20970.0 0.0017175
20990.0 0.0016998
21010.0 0.001681
21030.0 0.0016615
21050.0 0.0016415
21070.0 0.0016208
21090.0 0.0015992
21110.0 0.0015776
21130.0 0.0015557
21150.0 0.0015332
21170.0 0.0015105
21190.0 0.0014882
21210.0 0.0014654
21230.0 0.0014424
21250.0 0.00142
21270.0 0.0013979
21290.0 0.0013756
21310.0 0.0013537
21330.0 0.0013327
21350.0 0.0013117
21370.0 0.001291
21390.0 0.0012712
21410.0 0.0012519
21430.0 0.0012327
21450.0 0.0012143
21470.0 0.0011968
21490.0 0.0011796
21510.0 0.0011629
21530.0 0.0011471
21550.0 0.0011319
21570.0 0.0011169
21590.0 0.0011027
21610.0 0.001089
21630.0 0.0010757
21650.0 0.0010628
21670.0 0.0010504
21690.0 0.0010384
21710.0 0.0010266
21730.0 0.0010151
21750.0 0.0010039
21770.0 0.0009927
21790.0 0.00098167
21810.0 0.00097082
21830.0 0.00096
21850.0 0.00094913
21870.0 0.00093831
21890.0 0.00092756
21910.0 0.00091666
21930.0 0.0009057
21950.0 0.00089477
21970.0 0.00088373
21990.0 0.00087246
22010.0 0.00086126
22030.0 0.00085002
22050.0 0.0008386
22070.0 0.00082708
22090.0 0.00081568
22110.0 0.00080412
22130.0 0.00079239
22150.0 0.00078074
22170.0 0.00076911
22190.0 0.00075724
22210.0 0.00074535
22230.0 0.00073368
22250.0 0.00072188
22270.0 0.00070996
22290.0 0.00069822
22310.0 0.00068655
22330.0 0.00067463
22350.0 0.00066283
22370.0 0.00065123
22390.0 0.00063954
22410.0 0.00062773
22430.0 0.00061624
22450.0 0.00060485
22470.0 0.00059333
22490.0 0.00058196
22510.0 0.00057087
22530.0 0.00055966
22550.0 0.00054848
22570.0 0.00053768
22590.0 0.00052703
22610.0 0.00051638
22630.0 0.000506
22650.0 0.00049605
22670.0 0.00048614
22690.0 0.00047645
22710.0 0.0004672
22730.0 0.00045823
22750.0 0.00044934
22770.0 0.00044093
22790.0 0.00043295
22810.0 0.00042518
22830.0 0.00041772
22850.0 0.00041072
22870.0 0.00040401
22890.0 0.00039754
22910.0 0.00039146
22930.0 0.00038572
22950.0 0.00038025
22970.0 0.00037505
22990.0 0.0003702
23010.0 0.00036557
23030.0 0.00036118
23050.0 0.00035699
23070.0 0.00035298
23090.0 0.00034909
23110.0 0.00034531
23130.0 0.00034159
23150.0 0.00033788
23170.0 0.00033415
23190.0 0.00033036
23210.0 0.00032648
23230.0 0.00032248
23250.0 0.00031834
23270.0 0.00031405
23290.0 0.00030959
23310.0 0.00030488
23330.0 0.00030003
23350.0 0.00029502
23370.0 0.00028978
23390.0 0.00028437
23410.0 0.00027892
23430.0 0.00027329
23450.0 0.00026748
23470.0 0.00026169
23490.0 0.00025592
23510.0 0.00025005
23530.0 0.00024428
23550.0 0.00023873
23570.0 0.00023327
23590.0 0.00022796
23610.0 0.00022295
23630.0 0.00021822
23650.0 0.00021374
23670.0 0.00020966
23690.0 0.000206
23710.0 0.00020276
23730.0 0.00020003
23750.0 0.00019779
23770.0 0.00019605
23790.0 0.0001949
23810.0 0.00019426
23830.0 0.00019403
23850.0 0.00019442
23870.0 0.00019534
23890.0 0.00019648
23910.0 0.00019795
23930.0 0.00019985
23950.0 0.00020185
23970.0 0.00020375
23990.0 0.00020588
24010.0 0.00020798
24030.0 0.00020974
24050.0 0.00021131
24070.0 0.00021284
24090.0 0.00021384
24110.0 0.00021437
24130.0 0.00021466
24150.0 0.00021458
24170.0 0.00021401
24190.0 0.00021316
24210.0 0.00021209
