#lamb flux
1010.0 1.043e-07
1030.0 1.1536e-07
1050.0 1.2808e-07
1070.0 1.4239e-07
1090.0 1.5865e-07
1110.0 1.7533e-07
1130.0 1.9212e-07
1150.0 2.097e-07
1170.0 2.2784e-07
1190.0 2.4504e-07
1210.0 2.6247e-07
1230.0 2.8048e-07
1250.0 2.9813e-07
1270.0 3.1527e-07
1290.0 3.3338e-07
1310.0 3.5148e-07
1330.0 3.6883e-07
1350.0 3.8638e-07
1370.0 4.045e-07
1390.0 4.2217e-07
1410.0 4.3931e-07
1430.0 4.5724e-07
1450.0 4.7516e-07
1470.0 4.9248e-07
1490.0 5.0998e-07
1510.0 5.2848e-07
1530.0 5.4601e-07
1550.0 5.633e-07
1570.0 5.812e-07
1590.0 5.9911e-07
1610.0 6.1624e-07
1630.0 6.339e-07
1650.0 6.5203e-07
1670.0 6.6957e-07
1690.0 6.8691e-07
1710.0 7.0492e-07
1730.0 7.2305e-07
1750.0 7.4012e-07
1770.0 7.577e-07
1790.0 7.7566e-07
1810.0 7.9307e-07
1830.0 8.102e-07
1850.0 8.284e-07
1870.0 8.4616e-07
1890.0 8.6336e-07
1910.0 8.8094e-07
1930.0 8.9897e-07
1950.0 9.1622e-07
1970.0 9.3331e-07
1990.0 9.5108e-07
2010.0 9.6859e-07
2030.0 9.8552e-07
2050.0 1.003e-06
2070.0 1.021e-06
2090.0 1.0379e-06
2110.0 1.0549e-06
2130.0 1.0724e-06
2150.0 1.0897e-06
2170.0 1.1062e-06
2190.0 1.1233e-06
2210.0 1.1406e-06
2230.0 1.1573e-06
2250.0 1.1738e-06
2270.0 1.1912e-06
2290.0 1.208e-06
2310.0 1.2242e-06
2330.0 1.241e-06
2350.0 1.2583e-06
2370.0 1.2755e-06
2390.0 1.2941e-06
2410.0 1.3162e-06
2430.0 1.3416e-06
2450.0 1.372e-06
2470.0 1.4109e-06
2490.0 1.4599e-06
2510.0 1.5156e-06
2530.0 1.5827e-06
2550.0 1.6667e-06
2570.0 1.7712e-06
2590.0 1.9071e-06
2610.0 2.1105e-06
2630.0 2.401e-06
2650.0 2.7808e-06
2670.0 3.2718e-06
2690.0 3.8753e-06
2710.0 4.5194e-06
2730.0 5.1559e-06
2750.0 5.7829e-06
2770.0 6.3282e-06
2790.0 6.7612e-06
2810.0 7.1048e-06
2830.0 7.3733e-06
2850.0 7.5566e-06
2870.0 7.6911e-06
2890.0 7.7976e-06
2910.0 7.8826e-06
2930.0 7.9521e-06
2950.0 8.0184e-06
2970.0 8.0832e-06
2990.0 8.144e-06
3010.0 0.00023019
3030.0 0.00023192
3050.0 0.00023358
3070.0 0.000235
3090.0 0.00023623
3110.0 0.00023699
3130.0 0.00023696
3150.0 0.0002359
3170.0 0.00023338
3190.0 0.00022941
3210.0 0.00022438
3230.0 0.00021862
3250.0 0.00021293
3270.0 0.00020878
3290.0 0.00020647
3310.0 0.00020685
3330.0 0.00020984
3350.0 0.00021505
3370.0 0.0002225
3390.0 0.00023188
3410.0 0.00024209
3430.0 0.00025355
3450.0 0.00026674
3470.0 0.00028115
3490.0 0.00029642
3510.0 0.00031368
3530.0 0.00033216
3550.0 0.00035087
3570.0 0.00037039
3590.0 0.00039163
3610.0 0.0004135
3630.0 0.00043531
3650.0 0.00045793
3670.0 0.00047859
3690.0 0.00049403
3710.0 0.00050288
3730.0 0.00050317
3750.0 0.00049617
3770.0 0.00049342
3790.0 0.00049048
3810.0 0.00047843
3830.0 0.00049324
3850.0 0.0005515
3870.0 0.00058348
3890.0 0.00058082
3910.0 0.00058329
3930.0 0.00059865
3950.0 0.0006081
3970.0 0.00055403
3990.0 0.00047672
4010.0 0.0014288
4030.0 0.0017312
4050.0 0.0019847
4070.0 0.0017221
4090.0 0.0015597
4110.0 0.0013763
4130.0 0.0012667
4150.0 0.0013474
4170.0 0.0013272
4190.0 0.0014147
4210.0 0.0014018
4230.0 0.0014827
4250.0 0.0017541
4270.0 0.0017747
4290.0 0.0016354
4310.0 0.0016993
4330.0 0.0018075
4350.0 0.0020267
4370.0 0.0023064
4390.0 0.0021643
4410.0 0.0015991
4430.0 0.0013537
4450.0 0.0012439
4470.0 0.00095474
4490.0 0.0010303
4510.0 0.0015563
4530.0 0.0017948
4550.0 0.0018104
4570.0 0.0020372
4590.0 0.0023205
4610.0 0.0031298
4630.0 0.004065
4650.0 0.0044084
4670.0 0.0040826
4690.0 0.0038955
4710.0 0.0041179
4730.0 0.0038861
4750.0 0.0029054
4770.0 0.0021312
4790.0 0.0019901
4810.0 0.0018969
4830.0 0.0017366
4850.0 0.0019056
4870.0 0.0025175
4890.0 0.0029688
4910.0 0.0026048
4930.0 0.0023049
4950.0 0.0025322
4970.0 0.0032474
4990.0 0.0044011
5010.0 0.0050628
5030.0 0.0044642
5050.0 0.0030203
5070.0 0.0019905
5090.0 0.0016051
5110.0 0.0016507
5130.0 0.0019051
5150.0 0.002064
5170.0 0.0020331
5190.0 0.0018998
5210.0 0.0019857
5230.0 0.0020874
5250.0 0.0022496
5270.0 0.0024272
5290.0 0.0026898
5310.0 0.0031308
5330.0 0.0034646
5350.0 0.0034425
5370.0 0.003616
5390.0 0.0041494
5410.0 0.0041457
5430.0 0.0036663
5450.0 0.0033684
5470.0 0.0035766
5490.0 0.0043696
5510.0 0.0054636
5530.0 0.0062664
5550.0 0.0060565
5570.0 0.0055058
5590.0 0.0047873
5610.0 0.004415
5630.0 0.0042811
5650.0 0.0040773
5670.0 0.0038636
5690.0 0.003454
5710.0 0.0033677
5730.0 0.0031022
5750.0 0.0021872
5770.0 0.0017064
5790.0 0.0019337
5810.0 0.0021834
5830.0 0.0026794
5850.0 0.0031895
5870.0 0.0035387
5890.0 0.0035987
5910.0 0.0035305
5930.0 0.0033606
5950.0 0.0034244
5970.0 0.0039035
5990.0 0.0036703
6010.0 0.0030768
6030.0 0.0025994
6050.0 0.0022638
6070.0 0.0022514
6090.0 0.0024413
6110.0 0.0027297
6130.0 0.0027715
6150.0 0.0023847
6170.0 0.0020978
6190.0 0.0023607
6210.0 0.0031208
6230.0 0.0040954
6250.0 0.0044359
6270.0 0.0038764
6290.0 0.0032614
6310.0 0.0025461
6330.0 0.0019508
6350.0 0.0017401
6370.0 0.0018299
6390.0 0.0021154
6410.0 0.0026084
6430.0 0.0030459
6450.0 0.0034853
6470.0 0.0039908
6490.0 0.0048206
6510.0 0.00539
6530.0 0.0052879
6550.0 0.0047817
6570.0 0.0040592
6590.0 0.0036603
6610.0 0.0031561
6630.0 0.0028593
6650.0 0.0027029
6670.0 0.0026258
6690.0 0.0023726
6710.0 0.0021567
6730.0 0.0015534
6750.0 0.0015401
6770.0 0.001674
6790.0 0.0019241
6810.0 0.0017606
6830.0 0.0018129
6850.0 0.0016956
6870.0 0.001549
6890.0 0.0014872
6910.0 0.0015849
6930.0 0.0014844
6950.0 0.0015272
6970.0 0.0016064
6990.0 0.0018234
7010.0 0.0018389
7030.0 0.0018681
7050.0 0.0017815
7070.0 0.0016975
7090.0 0.0017025
7110.0 0.0017517
7130.0 0.0018851
7150.0 0.0020021
7170.0 0.0022092
7190.0 0.0024286
7210.0 0.0023864
7230.0 0.0024532
7250.0 0.0026364
7270.0 0.002873
7290.0 0.00341
7310.0 0.0037002
7330.0 0.0035765
7350.0 0.0032347
7370.0 0.0028145
7390.0 0.0027304
7410.0 0.0029016
7430.0 0.0032248
7450.0 0.0035124
7470.0 0.0034801
7490.0 0.0031732
7510.0 0.0035944
7530.0 0.0035551
7550.0 0.0031954
7570.0 0.0024962
7590.0 0.0017161
7610.0 0.0014729
7630.0 0.0016735
7650.0 0.0019787
7670.0 0.0024626
7690.0 0.0027099
7710.0 0.0028241
7730.0 0.0029678
7750.0 0.0033317
7770.0 0.0033841
7790.0 0.0031085
7810.0 0.0028363
7830.0 0.0029249
7850.0 0.0028432
7870.0 0.0026068
7890.0 0.0021902
7910.0 0.0017804
7930.0 0.0017
7950.0 0.0015487
7970.0 0.0014336
7990.0 0.0014255
8010.0 0.00010562
8030.0 0.00010424
8050.0 0.00010284
8070.0 0.0001042
8090.0 0.00011197
8110.0 0.00011006
8130.0 9.0766e-05
8150.0 8.8401e-05
8170.0 7.6127e-05
8190.0 7.2134e-05
8210.0 9.3705e-05
8230.0 0.00010433
8250.0 9.4005e-05
8270.0 8.1814e-05
8290.0 7.9776e-05
8310.0 6.1405e-05
8330.0 4.1386e-05
8350.0 2.9372e-05
8370.0 1.8496e-05
8390.0 3.3828e-05
8410.0 3.9418e-05
8430.0 4.8589e-05
8450.0 5.7056e-05
8470.0 7.093e-05
8490.0 7.0422e-05
8510.0 6.9263e-05
8530.0 7.227e-05
8550.0 9.7542e-05
8570.0 0.00011549
8590.0 0.00012459
8610.0 0.00015739
8630.0 0.0001896
8650.0 0.00019829
8670.0 0.00021075
8690.0 0.00021197
8710.0 0.00019196
8730.0 0.00017857
8750.0 0.00015761
8770.0 0.00014954
8790.0 0.00014693
8810.0 0.0001408
8830.0 0.00011257
8850.0 8.2392e-05
8870.0 6.3084e-05
8890.0 6.1698e-05
8910.0 7.0723e-05
8930.0 8.0455e-05
8950.0 8.2e-05
8970.0 8.2384e-05
8990.0 7.3463e-05
9010.0 0.00076931
9030.0 0.00069707
9050.0 0.00070044
9070.0 0.00070597
9090.0 0.00071082
9110.0 0.00071681
9130.0 0.00072143
9150.0 0.00072503
9170.0 0.00072886
9190.0 0.00073295
9210.0 0.00073726
9230.0 0.0007418
9250.0 0.00074642
9270.0 0.00075121
9290.0 0.00075614
9310.0 0.00076111
9330.0 0.00076617
9350.0 0.00077143
9370.0 0.00077674
9390.0 0.00078211
9410.0 0.00078763
9430.0 0.00079332
9450.0 0.00079899
9470.0 0.00080477
9490.0 0.00081072
9510.0 0.00081675
9530.0 0.0008228
9550.0 0.00082906
9570.0 0.00083543
9590.0 0.00084182
9610.0 0.00084832
9630.0 0.00085499
9650.0 0.00086172
9670.0 0.00086846
9690.0 0.00087539
9710.0 0.00088242
9730.0 0.00088946
9750.0 0.00089661
9770.0 0.00090398
9790.0 0.00091133
9810.0 0.00091872
9830.0 0.00092626
9850.0 0.0009339
9870.0 0.00094152
9890.0 0.00094925
9910.0 0.00095713
9930.0 0.00096501
9950.0 0.00097293
9970.0 0.00098101
9990.0 0.00098916
10010.0 0.00085833
10030.0 0.00086538
10050.0 0.00087257
10070.0 0.00088
10090.0 0.00088702
10110.0 0.0008942
10130.0 0.00090141
10150.0 0.0009086
10170.0 0.00091588
10190.0 0.00092328
10210.0 0.00093059
10230.0 0.00093789
10250.0 0.0009453
10270.0 0.00095271
10290.0 0.00096002
10310.0 0.00096742
10330.0 0.0009749
10350.0 0.00098226
10370.0 0.00098959
10390.0 0.000997
10410.0 0.0010044
10430.0 0.0010116
10450.0 0.0010189
10470.0 0.0010262
10490.0 0.0010334
10510.0 0.0010406
10530.0 0.0010479
10550.0 0.001055
10570.0 0.001062
10590.0 0.001069
10610.0 0.0010761
10630.0 0.0010829
10650.0 0.0010897
10670.0 0.0010966
10690.0 0.0011033
10710.0 0.0011099
10730.0 0.0011165
10750.0 0.0011232
10770.0 0.0011295
10790.0 0.0011358
10810.0 0.0011421
10830.0 0.0011482
10850.0 0.001154
10870.0 0.0011596
10890.0 0.0011645
10910.0 0.0011683
10930.0 0.0011705
10950.0 0.00117
10970.0 0.001166
10990.0 0.0011582
11010.0 0.0011451
11030.0 0.0011269
11050.0 0.0011047
11070.0 0.0010782
11090.0 0.0010463
11110.0 0.0010133
11130.0 0.00097886
11150.0 0.0009418
11170.0 0.0009036
11190.0 0.00086655
11210.0 0.00082828
11230.0 0.00078905
11250.0 0.00075155
11270.0 0.00071555
11290.0 0.00067947
11310.0 0.0006453
11330.0 0.00061521
11350.0 0.00058678
11370.0 0.00056051
11390.0 0.00053778
11410.0 0.0005179
11430.0 0.00049942
11450.0 0.0004835
11470.0 0.00046973
11490.0 0.00045693
11510.0 0.00044459
11530.0 0.00043313
11550.0 0.00042176
11570.0 0.00040962
11590.0 0.00039705
11610.0 0.00038426
11630.0 0.00037033
11650.0 0.00035543
11670.0 0.00034073
11690.0 0.00032583
11710.0 0.00031046
11730.0 0.00029557
11750.0 0.00028178
11770.0 0.00026827
11790.0 0.0002556
11810.0 0.00024445
11830.0 0.00023447
11850.0 0.00022529
11870.0 0.0002176
11890.0 0.00021121
11910.0 0.0002056
11930.0 0.00020077
11950.0 0.00019676
11970.0 0.00019317
11990.0 0.00018977
12010.0 0.00018663
12030.0 0.00018361
12050.0 0.00018048
12070.0 0.00017723
12090.0 0.00017409
12110.0 0.00017091
12130.0 0.00016772
12150.0 0.00016478
12170.0 0.00016221
12190.0 0.00015999
12210.0 0.00015844
12230.0 0.00015769
12250.0 0.00015782
12270.0 0.00015901
12290.0 0.00016125
12310.0 0.00016448
12330.0 0.000169
12350.0 0.00017463
12370.0 0.00018105
12390.0 0.00018844
12410.0 0.00019711
12430.0 0.00020592
12450.0 0.00021504
12470.0 0.00022474
12490.0 0.00023448
12510.0 0.00024362
12530.0 0.00025271
12550.0 0.00026148
12570.0 0.00026922
12590.0 0.00027602
12610.0 0.00028208
12630.0 0.00028691
12650.0 0.00029024
12670.0 0.00029243
12690.0 0.00029331
12710.0 0.00029282
12730.0 0.00029112
12750.0 0.0002881
12770.0 0.00028394
12790.0 0.0002789
12810.0 0.00027288
12830.0 0.00026592
12850.0 0.00025864
12870.0 0.00025094
12890.0 0.00024261
12910.0 0.00023414
12930.0 0.00022579
12950.0 0.00021708
12970.0 0.00020822
12990.0 0.00019983
13010.0 0.00019155
13030.0 0.00018317
13050.0 0.00017513
13070.0 0.00016759
13090.0 0.00016003
13110.0 0.00015272
13130.0 0.00014597
13150.0 0.00013958
13170.0 0.00013333
13190.0 0.00012776
13210.0 0.00012286
13230.0 0.00011839
13250.0 0.00011453
13270.0 0.00011149
13290.0 0.00010912
13310.0 0.00010749
13330.0 0.00010675
13350.0 0.00010684
13370.0 0.0001078
13390.0 0.00010968
13410.0 0.00011222
13430.0 0.00011553
13450.0 0.00011961
13470.0 0.00012415
13490.0 0.00012895
13510.0 0.00013437
13530.0 0.00013986
13550.0 0.00014512
13570.0 0.0001503
13590.0 0.00015535
13610.0 0.00015984
13630.0 0.00016377
13650.0 0.00016735
13670.0 0.00017032
13690.0 0.00017262
13710.0 0.0001744
13730.0 0.00017567
13750.0 0.0001763
13770.0 0.00017645
13790.0 0.00017612
13810.0 0.00017535
13830.0 0.0001742
13850.0 0.00017264
13870.0 0.00017068
13890.0 0.00016843
13910.0 0.0001659
13930.0 0.00016298
13950.0 0.00015978
13970.0 0.00015651
13990.0 0.00015295
14010.0 0.00014916
14030.0 0.00014539
14050.0 0.00014158
14070.0 0.00013756
14090.0 0.00013371
14110.0 0.0001301
14130.0 0.00012659
14150.0 0.00012329
14170.0 0.00012047
14190.0 0.00011803
14210.0 0.00011597
14230.0 0.00011444
14250.0 0.00011345
14270.0 0.00011297
14290.0 0.00011307
14310.0 0.0001137
14330.0 0.00011483
14350.0 0.0001165
14370.0 0.00011857
14390.0 0.00012093
14410.0 0.00012371
14430.0 0.00012675
14450.0 0.00012987
14470.0 0.00013309
14490.0 0.00013653
14510.0 0.00013981
14530.0 0.00014293
14550.0 0.00014605
14570.0 0.00014904
14590.0 0.00015177
14610.0 0.0001544
14630.0 0.00015701
14650.0 0.00015944
14670.0 0.00016178
14690.0 0.00016423
14710.0 0.0001668
14730.0 0.00016937
14750.0 0.00017222
14770.0 0.00017545
14790.0 0.00017896
14810.0 0.00018275
14830.0 0.00018725
14850.0 0.00019214
14870.0 0.00019724
14890.0 0.00020274
14910.0 0.00020858
14930.0 0.0002142
14950.0 0.00021945
14970.0 0.00022442
14990.0 0.00022859
15010.0 0.00023177
15030.0 0.00023414
15050.0 0.0002357
15070.0 0.00023646
15090.0 0.00023673
15110.0 0.00023665
15130.0 0.00023635
15150.0 0.00023595
15170.0 0.00023548
15190.0 0.00023497
15210.0 0.00023447
15230.0 0.00023397
15250.0 0.00023346
15270.0 0.00023295
15290.0 0.00023246
15310.0 0.00023197
15330.0 0.00023146
15350.0 0.00023098
15370.0 0.0002305
15390.0 0.00023
15410.0 0.00022951
15430.0 0.00022904
15450.0 0.00022856
15470.0 0.00022807
15490.0 0.00022761
15510.0 0.00022714
15530.0 0.00022666
15550.0 0.00022619
15570.0 0.00022574
15590.0 0.00022527
15610.0 0.00022479
15630.0 0.00022434
15650.0 0.00022388
15670.0 0.00022341
15690.0 0.00022296
15710.0 0.00022252
15730.0 0.00022206
15750.0 0.00022159
15770.0 0.00022115
15790.0 0.00022071
15810.0 0.00022024
15830.0 0.00021979
15850.0 0.00021935
15870.0 0.0002189
15890.0 0.00021845
15910.0 0.00021802
15930.0 0.00021758
15950.0 0.00021712
15970.0 0.00021668
15990.0 0.00021625
16010.0 0.0002158
16030.0 0.00021534
16050.0 0.00021492
16070.0 0.00021448
16090.0 0.00021403
16110.0 0.00021359
16130.0 0.00021317
16150.0 0.00021271
16170.0 0.00021226
16190.0 0.00021183
16210.0 0.00021139
16230.0 0.00021094
16250.0 0.00021051
16270.0 0.00021008
16290.0 0.00020963
16310.0 0.00020919
16330.0 0.00020876
16350.0 0.00020832
16370.0 0.00020785
16390.0 0.00020742
16410.0 0.00020699
16430.0 0.00020654
16450.0 0.00020609
16470.0 0.00020567
16490.0 0.00020522
16510.0 0.00020476
16530.0 0.00020432
16550.0 0.00020388
16570.0 0.00020342
16590.0 0.00020297
16610.0 0.00020254
16630.0 0.00020209
16650.0 0.00020163
16670.0 0.00020119
16690.0 0.00020075
16710.0 0.00020028
16730.0 0.00019982
16750.0 0.00019938
16770.0 0.00019892
16790.0 0.00019845
16810.0 0.00019801
16830.0 0.00019756
16850.0 0.00019709
16870.0 0.00019663
16890.0 0.00019618
16910.0 0.00019571
16930.0 0.00019523
16950.0 0.00019478
16970.0 0.00019432
16990.0 0.00019384
17010.0 0.00019338
17030.0 0.00019292
17050.0 0.00019245
17070.0 0.00019197
17090.0 0.0001915
17110.0 0.00019103
17130.0 0.00019054
17150.0 0.00019007
17170.0 0.0001896
17190.0 0.00018912
17210.0 0.00018863
17230.0 0.00018817
17250.0 0.00018769
17270.0 0.00018719
17290.0 0.00018671
17310.0 0.00018623
17330.0 0.00018573
17350.0 0.00018524
17370.0 0.00018476
17390.0 0.00018427
17410.0 0.00018377
17430.0 0.00018328
17450.0 0.0001828
17470.0 0.00018229
17490.0 0.00018179
17510.0 0.0001813
17530.0 0.0001808
17550.0 0.00018029
17570.0 0.0001798
17590.0 0.00017931
17610.0 0.00017879
17630.0 0.00017828
17650.0 0.00017779
17670.0 0.00017728
17690.0 0.00017675
17710.0 0.00017625
17730.0 0.00017575
17750.0 0.00017523
17770.0 0.00017471
17790.0 0.00017422
17810.0 0.00017369
17830.0 0.00017317
17850.0 0.00017266
17870.0 0.00017214
17890.0 0.00017161
17910.0 0.00017108
17930.0 0.00017058
17950.0 0.00017006
17970.0 0.00016952
17990.0 0.00016901
18010.0 0.00016849
18030.0 0.00016795
18050.0 0.00016742
18070.0 0.0001669
18090.0 0.00016637
18110.0 0.00016583
18130.0 0.00016531
18150.0 0.00016479
18170.0 0.00016424
18190.0 0.00016371
18210.0 0.00016319
18230.0 0.00016265
18250.0 0.0001621
18270.0 0.00016157
18290.0 0.00016104
18310.0 0.00016049
18330.0 0.00015996
18350.0 0.00015944
18370.0 0.00015889
18390.0 0.00015834
18410.0 0.00015781
18430.0 0.00015727
18450.0 0.00015671
18470.0 0.00015617
18490.0 0.00015564
18510.0 0.00015509
18530.0 0.00015454
18550.0 0.00015402
18570.0 0.00015347
18590.0 0.00015291
18610.0 0.00015237
18630.0 0.00015183
18650.0 0.00015127
18670.0 0.00015072
18690.0 0.00015019
18710.0 0.00014964
18730.0 0.00014908
18750.0 0.00014854
18770.0 0.00014801
18790.0 0.00014744
18810.0 0.00014688
18830.0 0.00014635
18850.0 0.0001458
18870.0 0.00014524
18890.0 0.00014469
18910.0 0.00014416
18930.0 0.00014359
18950.0 0.00014304
18970.0 0.0001425
18990.0 0.00014195
19010.0 0.00014138
19030.0 0.00014084
19050.0 0.00014029
19070.0 0.00013973
19090.0 0.00013918
19110.0 0.00013865
19130.0 0.00013809
19150.0 0.00013753
19170.0 0.00013698
19190.0 0.00013644
19210.0 0.00013587
19230.0 0.00013532
19250.0 0.00013478
19270.0 0.00013423
19290.0 0.00013367
19310.0 0.00013313
19330.0 0.00013259
19350.0 0.00013201
19370.0 0.00013146
19390.0 0.00013092
19410.0 0.00013037
19430.0 0.00012981
19450.0 0.00012927
19470.0 0.00012873
19490.0 0.00012817
19510.0 0.00012762
19530.0 0.00012708
19550.0 0.00012652
19570.0 0.00012596
19590.0 0.00012542
19610.0 0.00012488
19630.0 0.00012432
19650.0 0.00012377
19670.0 0.00012324
19690.0 0.00012268
19710.0 0.00012213
19730.0 0.00012159
19750.0 0.00012105
19770.0 0.00012048
19790.0 0.00011994
19810.0 0.0001194
19830.0 0.00011885
19850.0 0.00011829
19870.0 0.00011774
19890.0 0.00011715
19910.0 0.00011651
19930.0 0.00011582
19950.0 0.00011503
19970.0 0.00011405
19990.0 0.00011288
20010.0 0.00010043
20030.0 9.8976e-05
20050.0 9.7275e-05
20070.0 9.5432e-05
20090.0 9.3449e-05
20110.0 9.1206e-05
20130.0 8.8935e-05
20150.0 8.6685e-05
20170.0 8.4352e-05
20190.0 8.1986e-05
20210.0 7.9751e-05
20230.0 7.7571e-05
20250.0 7.5387e-05
20270.0 7.3359e-05
20290.0 7.1508e-05
20310.0 6.9749e-05
20330.0 6.8105e-05
20350.0 6.674e-05
20370.0 6.5529e-05
20390.0 6.4467e-05
20410.0 6.3609e-05
20430.0 6.2948e-05
20450.0 6.2424e-05
20470.0 6.2073e-05
20490.0 6.1884e-05
20510.0 6.183e-05
20530.0 6.1906e-05
20550.0 6.2097e-05
20570.0 6.2375e-05
20590.0 6.2752e-05
20610.0 6.3208e-05
20630.0 6.371e-05
20650.0 6.4272e-05
20670.0 6.4914e-05
20690.0 6.5568e-05
20710.0 6.6245e-05
20730.0 6.6975e-05
20750.0 6.7738e-05
20770.0 6.8487e-05
20790.0 6.9274e-05
20810.0 7.0107e-05
20830.0 7.0935e-05
20850.0 7.1768e-05
20870.0 7.2659e-05
20890.0 7.3567e-05
20910.0 7.4444e-05
20930.0 7.5353e-05
20950.0 7.6295e-05
20970.0 7.7214e-05
20990.0 7.812e-05
21010.0 7.9073e-05
21030.0 8.0005e-05
21050.0 8.0894e-05
21070.0 8.1782e-05
21090.0 8.2673e-05
21110.0 8.3485e-05
21130.0 8.4248e-05
21150.0 8.4987e-05
21170.0 8.5656e-05
21190.0 8.6232e-05
21210.0 8.675e-05
21230.0 8.7181e-05
21250.0 8.7488e-05
21270.0 8.7683e-05
21290.0 8.7756e-05
21310.0 8.7686e-05
21330.0 8.7479e-05
21350.0 8.7116e-05
21370.0 8.6582e-05
21390.0 8.5904e-05
21410.0 8.5074e-05
21430.0 8.4023e-05
21450.0 8.2843e-05
21470.0 8.1557e-05
21490.0 8.0103e-05
21510.0 7.8509e-05
21530.0 7.6888e-05
21550.0 7.5191e-05
21570.0 7.3381e-05
21590.0 7.1601e-05
21610.0 6.9881e-05
21630.0 6.8158e-05
21650.0 6.6476e-05
21670.0 6.5018e-05
21690.0 6.3673e-05
21710.0 6.2461e-05
21730.0 6.1469e-05
21750.0 6.0704e-05
21770.0 6.0121e-05
21790.0 5.9785e-05
21810.0 5.9693e-05
21830.0 5.9825e-05
21850.0 6.0199e-05
21870.0 6.0782e-05
21890.0 6.1535e-05
21910.0 6.2502e-05
21930.0 6.3635e-05
21950.0 6.4863e-05
21970.0 6.6223e-05
21990.0 6.775e-05
22010.0 6.9275e-05
22030.0 7.0825e-05
22050.0 7.2452e-05
22070.0 7.4088e-05
22090.0 7.5637e-05
22110.0 7.7199e-05
22130.0 7.8759e-05
22150.0 8.0215e-05
22170.0 8.1588e-05
22190.0 8.2949e-05
22210.0 8.4215e-05
22230.0 8.5329e-05
22250.0 8.6379e-05
22270.0 8.7345e-05
22290.0 8.8171e-05
22310.0 8.8879e-05
22330.0 8.9504e-05
22350.0 8.9986e-05
22370.0 9.0326e-05
22390.0 9.0539e-05
22410.0 9.0607e-05
22430.0 9.052e-05
22450.0 9.0287e-05
22470.0 8.9884e-05
22490.0 8.9318e-05
22510.0 8.8612e-05
22530.0 8.771e-05
22550.0 8.6612e-05
22570.0 8.5394e-05
22590.0 8.4021e-05
22610.0 8.2441e-05
22630.0 8.073e-05
22650.0 7.8963e-05
22670.0 7.7008e-05
22690.0 7.4921e-05
22710.0 7.2816e-05
22730.0 7.0646e-05
22750.0 6.8294e-05
22770.0 6.5995e-05
22790.0 6.3751e-05
22810.0 6.1447e-05
22830.0 5.9149e-05
22850.0 5.6997e-05
22870.0 5.4888e-05
