#lamb flux
1010.0 2.4194e-09
1030.0 2.6759e-09
1050.0 2.9708e-09
1070.0 3.3029e-09
1090.0 3.6801e-09
1110.0 4.067e-09
1130.0 4.4563e-09
1150.0 4.8642e-09
1170.0 5.2849e-09
1190.0 5.6839e-09
1210.0 6.0882e-09
1230.0 6.506e-09
1250.0 6.9154e-09
1270.0 7.3129e-09
1290.0 7.733e-09
1310.0 8.1528e-09
1330.0 8.5553e-09
1350.0 8.9624e-09
1370.0 9.3827e-09
1390.0 9.7925e-09
1410.0 1.019e-08
1430.0 1.0606e-08
1450.0 1.1022e-08
1470.0 1.1423e-08
1490.0 1.1829e-08
1510.0 1.2258e-08
1530.0 1.2665e-08
1550.0 1.3066e-08
1570.0 1.3481e-08
1590.0 1.3897e-08
1610.0 1.4294e-08
1630.0 1.4704e-08
1650.0 1.5124e-08
1670.0 1.5531e-08
1690.0 1.5933e-08
1710.0 1.6351e-08
1730.0 1.6772e-08
1750.0 1.7167e-08
1770.0 1.7575e-08
1790.0 1.7992e-08
1810.0 1.8396e-08
1830.0 1.8793e-08
1850.0 1.9215e-08
1870.0 1.9627e-08
1890.0 2.0026e-08
1910.0 2.0434e-08
1930.0 2.0852e-08
1950.0 2.1252e-08
1970.0 2.1649e-08
1990.0 2.2061e-08
2010.0 2.2467e-08
2030.0 2.286e-08
2050.0 2.3265e-08
2070.0 2.3682e-08
2090.0 2.4076e-08
2110.0 2.447e-08
2130.0 2.4876e-08
2150.0 2.5275e-08
2170.0 2.5658e-08
2190.0 2.6056e-08
2210.0 2.6458e-08
2230.0 2.6843e-08
2250.0 2.7228e-08
2270.0 2.763e-08
2290.0 2.802e-08
2310.0 2.8395e-08
2330.0 2.8786e-08
2350.0 2.9187e-08
2370.0 2.9586e-08
2390.0 3.0018e-08
2410.0 3.053e-08
2430.0 3.112e-08
2450.0 3.1824e-08
2470.0 3.2726e-08
2490.0 3.3863e-08
2510.0 3.5156e-08
2530.0 3.6712e-08
2550.0 3.866e-08
2570.0 4.1083e-08
2590.0 4.4235e-08
2610.0 4.8954e-08
2630.0 5.5692e-08
2650.0 6.4502e-08
2670.0 7.5892e-08
2690.0 8.9889e-08
2710.0 1.0483e-07
2730.0 1.1959e-07
2750.0 1.3414e-07
2770.0 1.4679e-07
2790.0 1.5683e-07
2810.0 1.648e-07
2830.0 1.7103e-07
2850.0 1.7528e-07
2870.0 1.784e-07
2890.0 1.8087e-07
2910.0 1.8284e-07
2930.0 1.8445e-07
2950.0 1.8599e-07
2970.0 1.8749e-07
2990.0 1.889e-07
3010.0 5.3395e-06
3030.0 5.3794e-06
3050.0 5.418e-06
3070.0 5.451e-06
3090.0 5.4794e-06
3110.0 5.4971e-06
3130.0 5.4964e-06
3150.0 5.4719e-06
3170.0 5.4134e-06
3190.0 5.3213e-06
3210.0 5.2046e-06
3230.0 5.071e-06
3250.0 4.9391e-06
3270.0 4.8428e-06
3290.0 4.7893e-06
3310.0 4.7979e-06
3330.0 4.8674e-06
3350.0 4.9883e-06
3370.0 5.1609e-06
3390.0 5.3785e-06
3410.0 5.6153e-06
3430.0 5.8812e-06
3450.0 6.1872e-06
3470.0 6.5215e-06
3490.0 6.8756e-06
3510.0 7.276e-06
3530.0 7.7047e-06
3550.0 8.1387e-06
3570.0 8.5915e-06
3590.0 9.0839e-06
3610.0 9.5913e-06
3630.0 1.0097e-05
3650.0 1.0622e-05
3670.0 1.1101e-05
3690.0 1.1459e-05
3710.0 1.1665e-05
3730.0 1.1671e-05
3750.0 1.1509e-05
3770.0 1.1445e-05
3790.0 1.1377e-05
3810.0 1.1097e-05
3830.0 1.1441e-05
3850.0 1.2792e-05
3870.0 1.3534e-05
3890.0 1.3472e-05
3910.0 1.353e-05
3930.0 1.3886e-05
3950.0 1.4105e-05
3970.0 1.2851e-05
3990.0 1.1058e-05
4010.0 3.3141e-05
4030.0 4.0156e-05
4050.0 4.6036e-05
4070.0 3.9944e-05
4090.0 3.6177e-05
4110.0 3.1923e-05
4130.0 2.9382e-05
4150.0 3.1254e-05
4170.0 3.0786e-05
4190.0 3.2815e-05
4210.0 3.2515e-05
4230.0 3.4393e-05
4250.0 4.0687e-05
4270.0 4.1166e-05
4290.0 3.7934e-05
4310.0 3.9416e-05
4330.0 4.1926e-05
4350.0 4.701e-05
4370.0 5.3498e-05
4390.0 5.0202e-05
4410.0 3.7091e-05
4430.0 3.1399e-05
4450.0 2.8852e-05
4470.0 2.2145e-05
4490.0 2.3898e-05
4510.0 3.6098e-05
4530.0 4.1632e-05
4550.0 4.1993e-05
4570.0 4.7253e-05
4590.0 5.3825e-05
4610.0 7.2598e-05
4630.0 9.429e-05
4650.0 0.00010226
4670.0 9.4699e-05
4690.0 9.0359e-05
4710.0 9.5516e-05
4730.0 9.014e-05
4750.0 6.7391e-05
4770.0 4.9434e-05
4790.0 4.6162e-05
4810.0 4.3999e-05
4830.0 4.0281e-05
4850.0 4.4202e-05
4870.0 5.8395e-05
4890.0 6.8864e-05
4910.0 6.0419e-05
4930.0 5.3462e-05
4950.0 5.8736e-05
4970.0 7.5326e-05
4990.0 0.00010208
5010.0 0.00011743
5030.0 0.00010355
5050.0 7.0058e-05
5070.0 4.6171e-05
5090.0 3.723e-05
5110.0 3.8288e-05
5130.0 4.419e-05
5150.0 4.7876e-05
5170.0 4.7158e-05
5190.0 4.4066e-05
5210.0 4.6059e-05
5230.0 4.8419e-05
5250.0 5.2182e-05
5270.0 5.63e-05
5290.0 6.2393e-05
5310.0 7.2624e-05
5330.0 8.0367e-05
5350.0 7.9855e-05
5370.0 8.388e-05
5390.0 9.6254e-05
5410.0 9.6168e-05
5430.0 8.5046e-05
5450.0 7.8138e-05
5470.0 8.2969e-05
5490.0 0.00010137
5510.0 0.00012674
5530.0 0.00014537
5550.0 0.0001405
5570.0 0.00012772
5590.0 0.00011106
5610.0 0.00010242
5630.0 9.9316e-05
5650.0 9.459e-05
5670.0 8.9631e-05
5690.0 8.013e-05
5710.0 7.8128e-05
5730.0 7.1968e-05
5750.0 5.0741e-05
5770.0 3.9587e-05
5790.0 4.486e-05
5810.0 5.0655e-05
5830.0 6.2161e-05
5850.0 7.3997e-05
5870.0 8.21e-05
5890.0 8.3491e-05
5910.0 8.1911e-05
5930.0 7.797e-05
5950.0 7.945e-05
5970.0 9.0564e-05
5990.0 8.5154e-05
6010.0 7.1385e-05
6030.0 6.0309e-05
6050.0 5.2522e-05
6070.0 5.2235e-05
6090.0 5.664e-05
6110.0 6.3333e-05
6130.0 6.4303e-05
6150.0 5.5327e-05
6170.0 4.867e-05
6190.0 5.4772e-05
6210.0 7.2407e-05
6230.0 9.5019e-05
6250.0 0.00010292
6270.0 8.9937e-05
6290.0 7.5669e-05
6310.0 5.9073e-05
6330.0 4.5261e-05
6350.0 4.0372e-05
6370.0 4.2455e-05
6390.0 4.9081e-05
6410.0 6.0519e-05
6430.0 7.0669e-05
6450.0 8.0864e-05
6470.0 9.2591e-05
6490.0 0.00011184
6510.0 0.00012506
6530.0 0.00012269
6550.0 0.00011094
6570.0 9.418e-05
6590.0 8.4925e-05
6610.0 7.3227e-05
6630.0 6.6341e-05
6650.0 6.2711e-05
6670.0 6.0922e-05
6690.0 5.5046e-05
6710.0 5.0038e-05
6730.0 3.6041e-05
6750.0 3.5731e-05
6770.0 3.8838e-05
6790.0 4.4642e-05
6810.0 4.0848e-05
6830.0 4.2062e-05
6850.0 3.9341e-05
6870.0 3.5938e-05
6890.0 3.4506e-05
6910.0 3.6771e-05
6930.0 3.4441e-05
6950.0 3.5434e-05
6970.0 3.727e-05
6990.0 4.2305e-05
7010.0 4.2665e-05
7030.0 4.3343e-05
7050.0 4.1334e-05
7070.0 3.9384e-05
7090.0 3.9499e-05
7110.0 4.0642e-05
7130.0 4.3737e-05
7150.0 4.6452e-05
7170.0 5.1257e-05
7190.0 5.6346e-05
7210.0 5.5367e-05
7230.0 5.6918e-05
7250.0 6.1168e-05
7270.0 6.6658e-05
7290.0 7.9116e-05
7310.0 8.5849e-05
7330.0 8.298e-05
7350.0 7.505e-05
7370.0 6.53e-05
7390.0 6.3349e-05
7410.0 6.7321e-05
7430.0 7.4819e-05
7450.0 8.1492e-05
7470.0 8.0743e-05
7490.0 7.3622e-05
7510.0 8.3396e-05
7530.0 8.2483e-05
7550.0 7.4137e-05
7570.0 5.7915e-05
7590.0 3.9814e-05
7610.0 3.4172e-05
7630.0 3.8826e-05
7650.0 4.5907e-05
7670.0 5.7135e-05
7690.0 6.2872e-05
7710.0 6.5521e-05
7730.0 6.8854e-05
7750.0 7.7297e-05
7770.0 7.8512e-05
7790.0 7.2117e-05
7810.0 6.5802e-05
7830.0 6.7857e-05
7850.0 6.5963e-05
7870.0 6.0478e-05
7890.0 5.0813e-05
7910.0 4.1304e-05
7930.0 3.9439e-05
7950.0 3.593e-05
7970.0 3.326e-05
7990.0 3.307e-05
8010.0 2.476e-06
8030.0 2.4406e-06
8050.0 2.4107e-06
8070.0 2.4479e-06
8090.0 2.6383e-06
8110.0 2.5917e-06
8130.0 2.1244e-06
8150.0 2.0722e-06
8170.0 1.7739e-06
8190.0 1.6735e-06
8210.0 2.1925e-06
8230.0 2.4444e-06
8250.0 2.1836e-06
8270.0 1.898e-06
8290.0 1.8639e-06
8310.0 1.4379e-06
8330.0 9.682e-07
8350.0 6.8801e-07
8370.0 4.2788e-07
8390.0 7.9183e-07
8410.0 9.2222e-07
8430.0 1.1367e-06
8450.0 1.3343e-06
8470.0 1.6665e-06
8490.0 1.65e-06
8510.0 1.618e-06
8530.0 1.6787e-06
8550.0 2.2864e-06
8570.0 2.7179e-06
8590.0 2.9133e-06
8610.0 3.6891e-06
8630.0 4.4387e-06
8650.0 4.6153e-06
8670.0 4.9178e-06
8690.0 4.9696e-06
8710.0 4.4965e-06
8730.0 4.1906e-06
8750.0 3.6922e-06
8770.0 3.5001e-06
8790.0 3.4439e-06
8810.0 3.3064e-06
8830.0 2.6305e-06
8850.0 1.9154e-06
8870.0 1.465e-06
8890.0 1.4465e-06
8910.0 1.6679e-06
8930.0 1.9045e-06
8950.0 1.9439e-06
8970.0 1.9505e-06
8990.0 1.731e-06
9010.0 1.782e-05
9030.0 1.6137e-05
9050.0 1.6216e-05
9070.0 1.6346e-05
9090.0 1.6459e-05
9110.0 1.6599e-05
9130.0 1.6707e-05
9150.0 1.6791e-05
9170.0 1.688e-05
9190.0 1.6975e-05
9210.0 1.7076e-05
9230.0 1.7182e-05
9250.0 1.729e-05
9270.0 1.7401e-05
9290.0 1.7516e-05
9310.0 1.7632e-05
9330.0 1.775e-05
9350.0 1.7873e-05
9370.0 1.7997e-05
9390.0 1.8122e-05
9410.0 1.8251e-05
9430.0 1.8383e-05
9450.0 1.8515e-05
9470.0 1.865e-05
9490.0 1.8789e-05
9510.0 1.8929e-05
9530.0 1.907e-05
9550.0 1.9216e-05
9570.0 1.9365e-05
9590.0 1.9513e-05
9610.0 1.9665e-05
9630.0 1.982e-05
9650.0 1.9977e-05
9670.0 2.0134e-05
9690.0 2.0296e-05
9710.0 2.0459e-05
9730.0 2.0623e-05
9750.0 2.079e-05
9770.0 2.0962e-05
9790.0 2.1133e-05
9810.0 2.1305e-05
9830.0 2.1481e-05
9850.0 2.1659e-05
9870.0 2.1836e-05
9890.0 2.2016e-05
9910.0 2.22e-05
9930.0 2.2383e-05
9950.0 2.2568e-05
9970.0 2.2756e-05
9990.0 2.2946e-05
10010.0 1.9912e-05
10030.0 2.0076e-05
10050.0 2.0243e-05
10070.0 2.0417e-05
10090.0 2.058e-05
10110.0 2.0747e-05
10130.0 2.0915e-05
10150.0 2.1083e-05
10170.0 2.1252e-05
10190.0 2.1425e-05
10210.0 2.1595e-05
10230.0 2.1765e-05
10250.0 2.1938e-05
10270.0 2.211e-05
10290.0 2.2281e-05
10310.0 2.2453e-05
10330.0 2.2627e-05
10350.0 2.2799e-05
10370.0 2.2969e-05
10390.0 2.3142e-05
10410.0 2.3314e-05
10430.0 2.3482e-05
10450.0 2.3653e-05
10470.0 2.3823e-05
10490.0 2.3991e-05
10510.0 2.4158e-05
10530.0 2.4327e-05
10550.0 2.4494e-05
10570.0 2.4657e-05
10590.0 2.4821e-05
10610.0 2.4984e-05
10630.0 2.5144e-05
10650.0 2.5303e-05
10670.0 2.5463e-05
10690.0 2.562e-05
10710.0 2.5773e-05
10730.0 2.5927e-05
10750.0 2.6081e-05
10770.0 2.6229e-05
10790.0 2.6376e-05
10810.0 2.6522e-05
10830.0 2.6664e-05
10850.0 2.6799e-05
10870.0 2.693e-05
10890.0 2.7045e-05
10910.0 2.7133e-05
10930.0 2.7183e-05
10950.0 2.7172e-05
10970.0 2.708e-05
10990.0 2.69e-05
11010.0 2.6562e-05
11030.0 2.614e-05
11050.0 2.5625e-05
11070.0 2.5009e-05
11090.0 2.4269e-05
11110.0 2.3504e-05
11130.0 2.2705e-05
11150.0 2.1846e-05
11170.0 2.096e-05
11190.0 2.01e-05
11210.0 1.9213e-05
11230.0 1.8302e-05
11250.0 1.7433e-05
11270.0 1.6598e-05
11290.0 1.5761e-05
11310.0 1.4968e-05
11330.0 1.427e-05
11350.0 1.3611e-05
11370.0 1.3001e-05
11390.0 1.2474e-05
11410.0 1.2013e-05
11430.0 1.1584e-05
11450.0 1.1215e-05
11470.0 1.0896e-05
11490.0 1.0599e-05
11510.0 1.0312e-05
11530.0 1.0047e-05
11550.0 9.7829e-06
11570.0 9.5014e-06
11590.0 9.2098e-06
11610.0 8.9131e-06
11630.0 8.5901e-06
11650.0 8.2443e-06
11670.0 7.9035e-06
11690.0 7.5579e-06
11710.0 7.2013e-06
11730.0 6.8559e-06
11750.0 6.5362e-06
11770.0 6.2226e-06
11790.0 5.9287e-06
11810.0 5.6701e-06
11830.0 5.4387e-06
11850.0 5.2256e-06
11870.0 5.0474e-06
11890.0 4.8992e-06
11910.0 4.769e-06
11930.0 4.6571e-06
11950.0 4.5639e-06
11970.0 4.4806e-06
11990.0 4.4019e-06
12010.0 4.3291e-06
12030.0 4.2589e-06
12050.0 4.1864e-06
12070.0 4.1109e-06
12090.0 4.0382e-06
12110.0 3.9643e-06
12130.0 3.8904e-06
12150.0 3.8221e-06
12170.0 3.7626e-06
12190.0 3.7111e-06
12210.0 3.6752e-06
12230.0 3.6578e-06
12250.0 3.6606e-06
12270.0 3.6882e-06
12290.0 3.7404e-06
12310.0 3.8152e-06
12330.0 3.9199e-06
12350.0 4.0506e-06
12370.0 4.1994e-06
12390.0 4.371e-06
12410.0 4.572e-06
12430.0 4.7763e-06
12450.0 4.9879e-06
12470.0 5.2129e-06
12490.0 5.4388e-06
12510.0 5.6508e-06
12530.0 5.8617e-06
12550.0 6.0651e-06
12570.0 6.2447e-06
12590.0 6.4024e-06
12610.0 6.5429e-06
12630.0 6.6549e-06
12650.0 6.7322e-06
12670.0 6.783e-06
12690.0 6.8034e-06
12710.0 6.7922e-06
12730.0 6.7527e-06
12750.0 6.6825e-06
12770.0 6.5861e-06
12790.0 6.4692e-06
12810.0 6.3296e-06
12830.0 6.1681e-06
12850.0 5.9992e-06
12870.0 5.8206e-06
12890.0 5.6274e-06
12910.0 5.431e-06
12930.0 5.2374e-06
12950.0 5.0354e-06
12970.0 4.8297e-06
12990.0 4.6352e-06
13010.0 4.4431e-06
13030.0 4.2488e-06
13050.0 4.0622e-06
13070.0 3.8874e-06
13090.0 3.712e-06
13110.0 3.5423e-06
13130.0 3.3858e-06
13150.0 3.2377e-06
13170.0 3.0926e-06
13190.0 2.9635e-06
13210.0 2.8499e-06
13230.0 2.746e-06
13250.0 2.6566e-06
13270.0 2.586e-06
13290.0 2.5311e-06
13310.0 2.4934e-06
13330.0 2.4761e-06
13350.0 2.4781e-06
13370.0 2.5004e-06
13390.0 2.544e-06
13410.0 2.603e-06
13430.0 2.6797e-06
13450.0 2.7745e-06
13470.0 2.8797e-06
13490.0 2.9911e-06
13510.0 3.1167e-06
13530.0 3.2441e-06
13550.0 3.366e-06
13570.0 3.4862e-06
13590.0 3.6034e-06
13610.0 3.7076e-06
13630.0 3.7986e-06
13650.0 3.8817e-06
13670.0 3.9506e-06
13690.0 4.0039e-06
13710.0 4.0452e-06
13730.0 4.0746e-06
13750.0 4.0894e-06
13770.0 4.0927e-06
13790.0 4.0853e-06
13810.0 4.0672e-06
13830.0 4.0406e-06
13850.0 4.0045e-06
13870.0 3.959e-06
13890.0 3.9069e-06
13910.0 3.8482e-06
13930.0 3.7803e-06
13950.0 3.7061e-06
13970.0 3.6303e-06
13990.0 3.5477e-06
14010.0 3.4599e-06
14030.0 3.3723e-06
14050.0 3.284e-06
14070.0 3.1908e-06
14090.0 3.1015e-06
14110.0 3.0176e-06
14130.0 2.9363e-06
14150.0 2.8597e-06
14170.0 2.7944e-06
14190.0 2.7378e-06
14210.0 2.6899e-06
14230.0 2.6544e-06
14250.0 2.6315e-06
14270.0 2.6204e-06
14290.0 2.6227e-06
14310.0 2.6373e-06
14330.0 2.6636e-06
14350.0 2.7022e-06
14370.0 2.7503e-06
14390.0 2.805e-06
14410.0 2.8694e-06
14430.0 2.9401e-06
14450.0 3.0123e-06
14470.0 3.0872e-06
14490.0 3.1668e-06
14510.0 3.243e-06
14530.0 3.3154e-06
14550.0 3.3877e-06
14570.0 3.4571e-06
14590.0 3.5203e-06
14610.0 3.5814e-06
14630.0 3.6419e-06
14650.0 3.6983e-06
14670.0 3.7527e-06
14690.0 3.8094e-06
14710.0 3.869e-06
14730.0 3.9287e-06
14750.0 3.9947e-06
14770.0 4.0697e-06
14790.0 4.151e-06
14810.0 4.239e-06
14830.0 4.3433e-06
14850.0 4.4567e-06
14870.0 4.575e-06
14890.0 4.7026e-06
14910.0 4.8381e-06
14930.0 4.9684e-06
14950.0 5.0902e-06
14970.0 5.2055e-06
14990.0 5.3022e-06
15010.0 5.3761e-06
15030.0 5.4309e-06
15050.0 5.4671e-06
15070.0 5.4848e-06
15090.0 5.491e-06
15110.0 5.4892e-06
15130.0 5.4823e-06
15150.0 5.473e-06
15170.0 5.462e-06
15190.0 5.4503e-06
15210.0 5.4387e-06
15230.0 5.4271e-06
15250.0 5.4151e-06
15270.0 5.4033e-06
15290.0 5.3921e-06
15310.0 5.3806e-06
15330.0 5.3689e-06
15350.0 5.3577e-06
15370.0 5.3466e-06
15390.0 5.3349e-06
15410.0 5.3237e-06
15430.0 5.3128e-06
15450.0 5.3016e-06
15470.0 5.2902e-06
15490.0 5.2794e-06
15510.0 5.2687e-06
15530.0 5.2575e-06
15550.0 5.2467e-06
15570.0 5.2362e-06
15590.0 5.2252e-06
15610.0 5.2141e-06
15630.0 5.2036e-06
15650.0 5.1931e-06
15670.0 5.1822e-06
15690.0 5.1716e-06
15710.0 5.1614e-06
15730.0 5.1507e-06
15750.0 5.14e-06
15770.0 5.1297e-06
15790.0 5.1194e-06
15810.0 5.1085e-06
15830.0 5.0981e-06
15850.0 5.088e-06
15870.0 5.0776e-06
15890.0 5.0671e-06
15910.0 5.0571e-06
15930.0 5.0468e-06
15950.0 5.0362e-06
15970.0 5.0259e-06
15990.0 5.0159e-06
16010.0 5.0055e-06
16030.0 4.9949e-06
16050.0 4.9851e-06
16070.0 4.9749e-06
16090.0 4.9645e-06
16110.0 4.9544e-06
16130.0 4.9445e-06
16150.0 4.9339e-06
16170.0 4.9235e-06
16190.0 4.9136e-06
16210.0 4.9034e-06
16230.0 4.8929e-06
16250.0 4.8828e-06
16270.0 4.8729e-06
16290.0 4.8625e-06
16310.0 4.8522e-06
16330.0 4.8423e-06
16350.0 4.832e-06
16370.0 4.8213e-06
16390.0 4.8113e-06
16410.0 4.8012e-06
16430.0 4.7908e-06
16450.0 4.7804e-06
16470.0 4.7705e-06
16490.0 4.7601e-06
16510.0 4.7495e-06
16530.0 4.7394e-06
16550.0 4.7292e-06
16570.0 4.7185e-06
16590.0 4.708e-06
16610.0 4.698e-06
16630.0 4.6875e-06
16650.0 4.6769e-06
16670.0 4.6667e-06
16690.0 4.6565e-06
16710.0 4.6455e-06
16730.0 4.635e-06
16750.0 4.6247e-06
16770.0 4.6141e-06
16790.0 4.6032e-06
16810.0 4.5929e-06
16830.0 4.5825e-06
16850.0 4.5716e-06
16870.0 4.5609e-06
16890.0 4.5505e-06
16910.0 4.5396e-06
16930.0 4.5285e-06
16950.0 4.518e-06
16970.0 4.5073e-06
16990.0 4.4963e-06
17010.0 4.4855e-06
17030.0 4.475e-06
17050.0 4.4639e-06
17070.0 4.4528e-06
17090.0 4.442e-06
17110.0 4.4311e-06
17130.0 4.4197e-06
17150.0 4.4087e-06
17170.0 4.3979e-06
17190.0 4.3867e-06
17210.0 4.3755e-06
17230.0 4.3647e-06
17250.0 4.3535e-06
17270.0 4.3419e-06
17290.0 4.3308e-06
17310.0 4.3197e-06
17330.0 4.3082e-06
17350.0 4.2966e-06
17370.0 4.2857e-06
17390.0 4.2743e-06
17410.0 4.2627e-06
17430.0 4.2514e-06
17450.0 4.2402e-06
17470.0 4.2283e-06
17490.0 4.2166e-06
17510.0 4.2054e-06
17530.0 4.1938e-06
17550.0 4.1819e-06
17570.0 4.1704e-06
17590.0 4.1591e-06
17610.0 4.1471e-06
17630.0 4.1353e-06
17650.0 4.1239e-06
17670.0 4.1121e-06
17690.0 4.0998e-06
17710.0 4.0882e-06
17730.0 4.0766e-06
17750.0 4.0645e-06
17770.0 4.0525e-06
17790.0 4.041e-06
17810.0 4.0289e-06
17830.0 4.0167e-06
17850.0 4.0048e-06
17870.0 3.993e-06
17890.0 3.9806e-06
17910.0 3.9684e-06
17930.0 3.9567e-06
17950.0 3.9445e-06
17970.0 3.9322e-06
17990.0 3.9203e-06
18010.0 3.9083e-06
18030.0 3.8956e-06
18050.0 3.8834e-06
18070.0 3.8714e-06
18090.0 3.859e-06
18110.0 3.8465e-06
18130.0 3.8345e-06
18150.0 3.8223e-06
18170.0 3.8097e-06
18190.0 3.7974e-06
18210.0 3.7853e-06
18230.0 3.7727e-06
18250.0 3.7599e-06
18270.0 3.7478e-06
18290.0 3.7354e-06
18310.0 3.7227e-06
18330.0 3.7103e-06
18350.0 3.6982e-06
18370.0 3.6855e-06
18390.0 3.6728e-06
18410.0 3.6605e-06
18430.0 3.648e-06
18450.0 3.635e-06
18470.0 3.6225e-06
18490.0 3.6102e-06
18510.0 3.5974e-06
18530.0 3.5847e-06
18550.0 3.5725e-06
18570.0 3.5598e-06
18590.0 3.5468e-06
18610.0 3.5342e-06
18630.0 3.5218e-06
18650.0 3.5089e-06
18670.0 3.496e-06
18690.0 3.4837e-06
18710.0 3.471e-06
18730.0 3.4581e-06
18750.0 3.4455e-06
18770.0 3.4331e-06
18790.0 3.4199e-06
18810.0 3.407e-06
18830.0 3.3946e-06
18850.0 3.3818e-06
18870.0 3.3688e-06
18890.0 3.3563e-06
18910.0 3.3438e-06
18930.0 3.3307e-06
18950.0 3.3179e-06
18970.0 3.3054e-06
18990.0 3.2926e-06
19010.0 3.2793e-06
19030.0 3.2668e-06
19050.0 3.2542e-06
19070.0 3.2412e-06
19090.0 3.2284e-06
19110.0 3.216e-06
19130.0 3.203e-06
19150.0 3.19e-06
19170.0 3.1774e-06
19190.0 3.1647e-06
19210.0 3.1516e-06
19230.0 3.1387e-06
19250.0 3.1263e-06
19270.0 3.1135e-06
19290.0 3.1005e-06
19310.0 3.088e-06
19330.0 3.0754e-06
19350.0 3.0621e-06
19370.0 3.0494e-06
19390.0 3.0369e-06
19410.0 3.024e-06
19430.0 3.0109e-06
19450.0 2.9985e-06
19470.0 2.9859e-06
19490.0 2.9729e-06
19510.0 2.9602e-06
19530.0 2.9477e-06
19550.0 2.9347e-06
19570.0 2.9216e-06
19590.0 2.9092e-06
19610.0 2.8966e-06
19630.0 2.8836e-06
19650.0 2.871e-06
19670.0 2.8586e-06
19690.0 2.8457e-06
19710.0 2.8328e-06
19730.0 2.8204e-06
19750.0 2.8077e-06
19770.0 2.7946e-06
19790.0 2.782e-06
19810.0 2.7696e-06
19830.0 2.7567e-06
19850.0 2.7438e-06
19870.0 2.7311e-06
19890.0 2.7175e-06
19910.0 2.7025e-06
19930.0 2.6864e-06
19950.0 2.6681e-06
19970.0 2.6455e-06
19990.0 2.6183e-06
20010.0 2.3295e-06
20030.0 2.2958e-06
20050.0 2.2563e-06
20070.0 2.2136e-06
20090.0 2.1676e-06
20110.0 2.1156e-06
20130.0 2.0629e-06
20150.0 2.0107e-06
20170.0 1.9566e-06
20190.0 1.9017e-06
20210.0 1.8499e-06
20230.0 1.7993e-06
20250.0 1.7486e-06
20270.0 1.7016e-06
20290.0 1.6587e-06
20310.0 1.6179e-06
20330.0 1.5797e-06
20350.0 1.5481e-06
20370.0 1.52e-06
20390.0 1.4953e-06
20410.0 1.4754e-06
20430.0 1.4601e-06
20450.0 1.4479e-06
20470.0 1.4398e-06
20490.0 1.4354e-06
20510.0 1.4342e-06
20530.0 1.4359e-06
20550.0 1.4404e-06
20570.0 1.4468e-06
20590.0 1.4556e-06
20610.0 1.4661e-06
20630.0 1.4778e-06
20650.0 1.4908e-06
20670.0 1.5057e-06
20690.0 1.5209e-06
20710.0 1.5366e-06
20730.0 1.5535e-06
20750.0 1.5712e-06
20770.0 1.5886e-06
20790.0 1.6068e-06
20810.0 1.6262e-06
20830.0 1.6454e-06
20850.0 1.6647e-06
20870.0 1.6853e-06
20890.0 1.7064e-06
20910.0 1.7268e-06
20930.0 1.7478e-06
20950.0 1.7697e-06
20970.0 1.791e-06
20990.0 1.812e-06
21010.0 1.8341e-06
21030.0 1.8558e-06
21050.0 1.8764e-06
21070.0 1.897e-06
21090.0 1.9176e-06
21110.0 1.9365e-06
21130.0 1.9542e-06
21150.0 1.9713e-06
21170.0 1.9868e-06
21190.0 2.0002e-06
21210.0 2.0122e-06
21230.0 2.0222e-06
21250.0 2.0293e-06
21270.0 2.0338e-06
21290.0 2.0355e-06
21310.0 2.0339e-06
21330.0 2.0291e-06
21350.0 2.0207e-06
21370.0 2.0083e-06
21390.0 1.9926e-06
21410.0 1.9733e-06
21430.0 1.9489e-06
21450.0 1.9216e-06
21470.0 1.8918e-06
21490.0 1.858e-06
21510.0 1.821e-06
21530.0 1.7835e-06
21550.0 1.7441e-06
21570.0 1.7021e-06
21590.0 1.6608e-06
21610.0 1.6209e-06
21630.0 1.581e-06
21650.0 1.5419e-06
21670.0 1.5081e-06
21690.0 1.4769e-06
21710.0 1.4488e-06
21730.0 1.4258e-06
21750.0 1.4081e-06
21770.0 1.3945e-06
21790.0 1.3867e-06
21810.0 1.3846e-06
21830.0 1.3877e-06
21850.0 1.3963e-06
21870.0 1.4099e-06
21890.0 1.4273e-06
21910.0 1.4497e-06
21930.0 1.476e-06
21950.0 1.5045e-06
21970.0 1.5361e-06
21990.0 1.5715e-06
22010.0 1.6069e-06
22030.0 1.6428e-06
22050.0 1.6806e-06
22070.0 1.7185e-06
22090.0 1.7544e-06
22110.0 1.7907e-06
22130.0 1.8268e-06
22150.0 1.8606e-06
22170.0 1.8925e-06
22190.0 1.924e-06
22210.0 1.9534e-06
22230.0 1.9792e-06
22250.0 2.0036e-06
22270.0 2.026e-06
22290.0 2.0452e-06
22310.0 2.0616e-06
22330.0 2.0761e-06
22350.0 2.0873e-06
22370.0 2.0952e-06
22390.0 2.1001e-06
22410.0 2.1017e-06
22430.0 2.0996e-06
22450.0 2.0942e-06
22470.0 2.0849e-06
22490.0 2.0718e-06
22510.0 2.0554e-06
22530.0 2.0345e-06
22550.0 2.009e-06
22570.0 1.9807e-06
22590.0 1.9489e-06
22610.0 1.9122e-06
22630.0 1.8726e-06
