#lamb flux
1010.0 4.9409e-07
1030.0 5.4383e-07
1050.0 6.0104e-07
1070.0 6.6544e-07
1090.0 7.3858e-07
1110.0 8.136e-07
1130.0 8.8911e-07
1150.0 9.682e-07
1170.0 1.0498e-06
1190.0 1.1271e-06
1210.0 1.2055e-06
1230.0 1.2865e-06
1250.0 1.3659e-06
1270.0 1.443e-06
1290.0 1.5244e-06
1310.0 1.6058e-06
1330.0 1.6838e-06
1350.0 1.7627e-06
1370.0 1.8442e-06
1390.0 1.9236e-06
1410.0 2.0006e-06
1430.0 2.0812e-06
1450.0 2.1617e-06
1470.0 2.2395e-06
1490.0 2.3181e-06
1510.0 2.4012e-06
1530.0 2.4798e-06
1550.0 2.5574e-06
1570.0 2.6376e-06
1590.0 2.7179e-06
1610.0 2.7946e-06
1630.0 2.8737e-06
1650.0 2.9547e-06
1670.0 3.0331e-06
1690.0 3.1104e-06
1710.0 3.1907e-06
1730.0 3.2713e-06
1750.0 3.347e-06
1770.0 3.4248e-06
1790.0 3.5041e-06
1810.0 3.5807e-06
1830.0 3.6557e-06
1850.0 3.7353e-06
1870.0 3.8125e-06
1890.0 3.8868e-06
1910.0 3.9623e-06
1930.0 4.0393e-06
1950.0 4.1123e-06
1970.0 4.1839e-06
1990.0 4.2578e-06
2010.0 4.3297e-06
2030.0 4.3982e-06
2050.0 4.4682e-06
2070.0 4.5393e-06
2090.0 4.6049e-06
2110.0 4.6693e-06
2130.0 4.7347e-06
2150.0 4.7974e-06
2170.0 4.8554e-06
2190.0 4.9146e-06
2210.0 4.9727e-06
2230.0 5.026e-06
2250.0 5.0771e-06
2270.0 5.1294e-06
2290.0 5.1773e-06
2310.0 5.2201e-06
2330.0 5.2628e-06
2350.0 5.3039e-06
2370.0 5.34e-06
2390.0 5.3753e-06
2410.0 5.4137e-06
2430.0 5.4512e-06
2450.0 5.4905e-06
2470.0 5.5398e-06
2490.0 5.6053e-06
2510.0 5.6881e-06
2530.0 5.8151e-06
2550.0 6.0269e-06
2570.0 6.3578e-06
2590.0 6.8485e-06
2610.0 7.6172e-06
2630.0 8.6718e-06
2650.0 9.9362e-06
2670.0 1.141e-05
2690.0 1.3019e-05
2710.0 1.4526e-05
2730.0 1.583e-05
2750.0 1.6957e-05
2770.0 1.7801e-05
2790.0 1.8371e-05
2810.0 1.8764e-05
2830.0 1.9053e-05
2850.0 1.9233e-05
2870.0 1.9373e-05
2890.0 1.951e-05
2910.0 1.9639e-05
2930.0 1.9747e-05
2950.0 1.9866e-05
2970.0 1.9991e-05
2990.0 2.0099e-05
3010.0 0.00021717
3030.0 0.00021836
3050.0 0.00021947
3070.0 0.00022018
3090.0 0.00022072
3110.0 0.00022081
3130.0 0.00022007
3150.0 0.0002184
3170.0 0.00021562
3190.0 0.00021182
3210.0 0.0002075
3230.0 0.00020312
3250.0 0.00019807
3270.0 0.00019622
3290.0 0.0001941
3310.0 0.00019806
3330.0 0.00020277
3350.0 0.00020918
3370.0 0.00021761
3390.0 0.00022773
3410.0 0.00023832
3430.0 0.00024979
3450.0 0.00026241
3470.0 0.00027551
3490.0 0.00028881
3510.0 0.00030272
3530.0 0.00031666
3550.0 0.00033195
3570.0 0.00034866
3590.0 0.00036445
3610.0 0.00038406
3630.0 0.00039911
3650.0 0.00041528
3670.0 0.00042838
3690.0 0.00044017
3710.0 0.0004499
3730.0 0.00045091
3750.0 0.00045162
3770.0 0.00043549
3790.0 0.00042604
3810.0 0.00041448
3830.0 0.00037527
3850.0 0.00034716
3870.0 0.00037086
3890.0 0.00043857
3910.0 0.00055578
3930.0 0.00065107
3950.0 0.00069809
3970.0 0.00066855
3990.0 0.00062412
4010.0 0.00065409
4030.0 0.00070589
4050.0 0.00073236
4070.0 0.00065954
4090.0 0.00054599
4110.0 0.00058339
4130.0 0.00064776
4150.0 0.00067612
4170.0 0.0006545
4190.0 0.00062656
4210.0 0.00068427
4230.0 0.00074435
4250.0 0.000769
4270.0 0.00079245
4290.0 0.00077066
4310.0 0.00080227
4330.0 0.00088648
4350.0 0.0010363
4370.0 0.00112
4390.0 0.0010615
4410.0 0.00089499
4430.0 0.0007569
4450.0 0.00061863
4470.0 0.0005963
4490.0 0.00066818
4510.0 0.00081497
4530.0 0.00088245
4550.0 0.00094009
4570.0 0.0010972
4590.0 0.0013784
4610.0 0.0018362
4630.0 0.0021997
4650.0 0.0022125
4670.0 0.00223
4690.0 0.0024143
4710.0 0.0024144
4730.0 0.0019695
4750.0 0.0014572
4770.0 0.0012008
4790.0 0.0011394
4810.0 0.0010602
4830.0 0.0010812
4850.0 0.0012755
4870.0 0.0015988
4890.0 0.0016952
4910.0 0.0014601
4930.0 0.0014044
4950.0 0.0016792
4970.0 0.0022128
4990.0 0.002651
5010.0 0.002681
5030.0 0.0021724
5050.0 0.0014953
5070.0 0.0011006
5090.0 0.00095934
5110.0 0.00096214
5130.0 0.0010473
5150.0 0.0010528
5170.0 0.0010486
5190.0 0.0010389
5210.0 0.0010223
5230.0 0.0010766
5250.0 0.0011446
5270.0 0.0013094
5290.0 0.0015461
5310.0 0.0016759
5330.0 0.0017369
5350.0 0.001842
5370.0 0.0020075
5390.0 0.0020588
5410.0 0.001889
5430.0 0.0016826
5450.0 0.0016653
5470.0 0.0019964
5490.0 0.002564
5510.0 0.0031112
5530.0 0.0033347
5550.0 0.0032259
5570.0 0.0029908
5590.0 0.0027342
5610.0 0.0026177
5630.0 0.0026295
5650.0 0.0026715
5670.0 0.0026136
5690.0 0.0024887
5710.0 0.0023906
5730.0 0.0021046
5750.0 0.001618
5770.0 0.0014478
5790.0 0.0015998
5810.0 0.0018481
5830.0 0.0020784
5850.0 0.0021992
5870.0 0.0021795
5890.0 0.0020198
5910.0 0.0019345
5930.0 0.0019684
5950.0 0.0020813
5970.0 0.0021277
5990.0 0.0019326
6010.0 0.0015819
6030.0 0.0012894
6050.0 0.0011785
6070.0 0.0012429
6090.0 0.0013879
6110.0 0.0014086
6130.0 0.0013058
6150.0 0.0012808
6170.0 0.0014212
6190.0 0.0016995
6210.0 0.0020416
6230.0 0.0022678
6250.0 0.0022182
6270.0 0.0019669
6290.0 0.0016183
6310.0 0.0012864
6330.0 0.0010717
6350.0 0.0010267
6370.0 0.0011279
6390.0 0.0012753
6410.0 0.0014791
6430.0 0.0017443
6450.0 0.0020947
6470.0 0.0025717
6490.0 0.0030592
6510.0 0.003224
6530.0 0.0030489
6550.0 0.0029204
6570.0 0.0029153
6590.0 0.002827
6610.0 0.0026221
6630.0 0.0024436
6650.0 0.0023268
6670.0 0.0023325
6690.0 0.0022787
6710.0 0.0020421
6730.0 0.0017813
6750.0 0.0016196
6770.0 0.0016921
6790.0 0.0018104
6810.0 0.0019073
6830.0 0.0019385
6850.0 0.0018618
6870.0 0.0017776
6890.0 0.0017319
6910.0 0.0016437
6930.0 0.0015769
6950.0 0.0015932
6970.0 0.0016477
6990.0 0.0017928
7010.0 0.0019012
7030.0 0.0018292
7050.0 0.0016719
7070.0 0.0014613
7090.0 0.0012323
7110.0 0.0011353
7130.0 0.0011945
7150.0 0.001267
7170.0 0.00128
7190.0 0.0012455
7210.0 0.0012435
7230.0 0.0014045
7250.0 0.001635
7270.0 0.0018169
7290.0 0.0018788
7310.0 0.0017511
7330.0 0.0015748
7350.0 0.0014439
7370.0 0.0014118
7390.0 0.0014509
7410.0 0.0015439
7430.0 0.001717
7450.0 0.001916
7470.0 0.0021293
7490.0 0.0022803
7510.0 0.0020307
7530.0 0.0018982
7550.0 0.0016611
7570.0 0.0014092
7590.0 0.0011486
7610.0 0.0010917
7630.0 0.001177
7650.0 0.0013409
7670.0 0.0015263
7690.0 0.0016839
7710.0 0.0018733
7730.0 0.0020111
7750.0 0.0020953
7770.0 0.0021024
7790.0 0.0020913
7810.0 0.0021162
7830.0 0.0020717
7850.0 0.0019937
7870.0 0.0018871
7890.0 0.0017332
7910.0 0.0015556
7930.0 0.0013817
7950.0 0.0012458
7970.0 0.0012081
7990.0 0.0012577
8010.0 0.0013358
8030.0 0.0013505
8050.0 0.0013768
8070.0 0.001362
8090.0 0.0013593
8110.0 0.0013156
8130.0 0.0012301
8150.0 0.0011548
8170.0 0.0011435
8190.0 0.001162
8210.0 0.0011744
8230.0 0.0011442
8250.0 0.0010946
8270.0 0.00096509
8290.0 0.00077333
8310.0 0.00057766
8330.0 0.00039531
8350.0 0.00028684
8370.0 0.00028094
8390.0 0.00033362
8410.0 0.00041427
8430.0 0.00050988
8450.0 0.00056181
8470.0 0.0005945
8490.0 0.00063122
8510.0 0.00066832
8530.0 0.00074
8550.0 0.00086836
8570.0 0.0010133
8590.0 0.0011492
8610.0 0.0013367
8630.0 0.0015507
8650.0 0.0016639
8670.0 0.0016732
8690.0 0.0016315
8710.0 0.0015572
8730.0 0.0014934
8750.0 0.0014234
8770.0 0.001389
8790.0 0.0013359
8810.0 0.0012391
8830.0 0.0011424
8850.0 0.00098297
8870.0 0.00087959
8890.0 0.000817
8910.0 0.00087189
8930.0 0.00084693
8950.0 0.00086697
8970.0 0.00087869
8990.0 0.00088453
9010.0 0.00089656
9030.0 0.00087784
9050.0 0.0008766
9070.0 0.00087731
9090.0 0.00087809
9110.0 0.00087882
9130.0 0.00087972
9150.0 0.00088084
9170.0 0.00088129
9190.0 0.00088083
9210.0 0.00088695
9230.0 0.00088725
9250.0 0.00088827
9270.0 0.00088953
9290.0 0.00089098
9310.0 0.00089262
9330.0 0.00089439
9350.0 0.00089627
9370.0 0.00089825
9390.0 0.00090033
9410.0 0.00090249
9430.0 0.00090473
9450.0 0.00090706
9470.0 0.00090948
9490.0 0.00091197
9510.0 0.00091453
9530.0 0.00091718
9550.0 0.0009199
9570.0 0.0009227
9590.0 0.00092558
9610.0 0.00092852
9630.0 0.00093154
9650.0 0.00093462
9670.0 0.00093778
9690.0 0.000941
9710.0 0.00094428
9730.0 0.00094762
9750.0 0.00095102
9770.0 0.00095448
9790.0 0.00095799
9810.0 0.00096155
9830.0 0.00096516
9850.0 0.00096882
9870.0 0.00097251
9890.0 0.00097625
9910.0 0.00098002
9930.0 0.00098382
9950.0 0.0009873
9970.0 0.00099126
9990.0 0.00099522
10010.0 0.00099855
10030.0 0.0010025
10050.0 0.0010062
10070.0 0.0010084
10090.0 0.001013
10110.0 0.0010174
10130.0 0.0010216
10150.0 0.0010258
10170.0 0.0010298
10190.0 0.0010337
10210.0 0.0010376
10230.0 0.0010414
10250.0 0.0010452
10270.0 0.0010489
10290.0 0.0010527
10310.0 0.0010563
10330.0 0.0010598
10350.0 0.0010634
10370.0 0.0010669
10390.0 0.0010703
10410.0 0.0010736
10430.0 0.001077
10450.0 0.0010802
10470.0 0.0010833
10490.0 0.0010863
10510.0 0.0010893
10530.0 0.0010921
10550.0 0.0010948
10570.0 0.0010975
10590.0 0.0011001
10610.0 0.0011025
10630.0 0.0011049
10650.0 0.0011071
10670.0 0.0011092
10690.0 0.0011112
10710.0 0.0011131
10730.0 0.0011148
10750.0 0.0011163
10770.0 0.0011179
10790.0 0.0011193
10810.0 0.0011204
10830.0 0.0011215
10850.0 0.0011223
10870.0 0.0011227
10890.0 0.0011224
10910.0 0.0011212
10930.0 0.0011185
10950.0 0.0011132
10970.0 0.0011048
10990.0 0.0010931
11010.0 0.0010616
11030.0 0.0010396
11050.0 0.0010144
11070.0 0.00098553
11090.0 0.00095211
11110.0 0.00091878
11130.0 0.00088529
11150.0 0.00085075
11170.0 0.00081701
11190.0 0.00078622
11210.0 0.00075652
11230.0 0.00072837
11250.0 0.00070374
11270.0 0.0006821
11290.0 0.00066235
11310.0 0.00064532
11330.0 0.00063153
11350.0 0.00061928
11370.0 0.00060832
11390.0 0.00059875
11410.0 0.00058982
11430.0 0.00058045
11450.0 0.00057086
11470.0 0.00056086
11490.0 0.00054969
11510.0 0.00053702
11530.0 0.00052378
11550.0 0.00050966
11570.0 0.00049414
11590.0 0.00047813
11610.0 0.0004623
11630.0 0.00044584
11650.0 0.00042925
11670.0 0.00041389
11690.0 0.00039926
11710.0 0.00038508
11730.0 0.00037211
11750.0 0.00036064
11770.0 0.00034982
11790.0 0.0003399
11810.0 0.00033119
11830.0 0.00032323
11850.0 0.00031552
11870.0 0.00030848
11890.0 0.00030189
11910.0 0.00029521
11930.0 0.00028843
11950.0 0.00028175
11970.0 0.00027481
11990.0 0.00026735
12010.0 0.00025983
12030.0 0.00025227
12050.0 0.00024442
12070.0 0.00023645
12090.0 0.00022909
12110.0 0.00022199
12130.0 0.00021524
12150.0 0.00020935
12170.0 0.00020443
12190.0 0.00020032
12210.0 0.00019745
12230.0 0.00019589
12250.0 0.00019558
12270.0 0.00019666
12290.0 0.00019899
12310.0 0.00020237
12330.0 0.00020703
12350.0 0.00021266
12370.0 0.0002188
12390.0 0.00022557
12410.0 0.00023311
12430.0 0.00024029
12450.0 0.00024726
12470.0 0.00025415
12490.0 0.0002605
12510.0 0.00026586
12530.0 0.00027062
12550.0 0.00027459
12570.0 0.00027741
12590.0 0.00027921
12610.0 0.0002801
12630.0 0.00027994
12650.0 0.00027881
12670.0 0.00027685
12690.0 0.00027405
12710.0 0.00027061
12730.0 0.00026664
12750.0 0.00026198
12770.0 0.00025698
12790.0 0.00025179
12810.0 0.00024627
12830.0 0.00024043
12850.0 0.00023465
12870.0 0.00022879
12890.0 0.00022263
12910.0 0.00021642
12930.0 0.00021027
12950.0 0.0002038
12970.0 0.00019708
12990.0 0.00019052
13010.0 0.00018388
13030.0 0.00017699
13050.0 0.00017022
13070.0 0.00016377
13090.0 0.00015725
13110.0 0.00015097
13130.0 0.00014523
13150.0 0.00013993
13170.0 0.00013497
13190.0 0.00013079
13210.0 0.00012737
13230.0 0.00012455
13250.0 0.00012247
13270.0 0.00012114
13290.0 0.00012046
13310.0 0.00012045
13330.0 0.00012102
13350.0 0.00012206
13370.0 0.00012356
13390.0 0.00012546
13410.0 0.00012743
13430.0 0.00012958
13450.0 0.00013186
13470.0 0.00013405
13490.0 0.00013608
13510.0 0.00013813
13530.0 0.00013996
13550.0 0.0001415
13570.0 0.00014288
13590.0 0.00014409
13610.0 0.00014504
13630.0 0.00014578
13650.0 0.00014641
13670.0 0.00014686
13690.0 0.00014715
13710.0 0.00014732
13730.0 0.00014739
13750.0 0.0001473
13770.0 0.0001471
13790.0 0.00014677
13810.0 0.00014631
13830.0 0.00014571
13850.0 0.00014496
13870.0 0.00014404
13890.0 0.00014297
13910.0 0.00014176
13930.0 0.00014036
13950.0 0.00013882
13970.0 0.00013724
13990.0 0.00013555
14010.0 0.00013379
14030.0 0.00013207
14050.0 0.0001304
14070.0 0.00012872
14090.0 0.00012719
14110.0 0.00012581
14130.0 0.00012455
14150.0 0.00012344
14170.0 0.00012255
14190.0 0.00012183
14210.0 0.00012128
14230.0 0.00012094
14250.0 0.00012079
14270.0 0.00012084
14290.0 0.00012111
14310.0 0.00012154
14330.0 0.00012216
14350.0 0.00012298
14370.0 0.00012393
14390.0 0.00012498
14410.0 0.00012619
14430.0 0.0001275
14450.0 0.00012883
14470.0 0.00013023
14490.0 0.00013175
14510.0 0.00013327
14530.0 0.00013481
14550.0 0.00013651
14570.0 0.00013836
14590.0 0.00014031
14610.0 0.00014252
14630.0 0.0001451
14650.0 0.00014792
14670.0 0.00015103
14690.0 0.00015461
14710.0 0.00015862
14730.0 0.00016273
14750.0 0.00016722
14770.0 0.00017207
14790.0 0.00017696
14810.0 0.00018179
14830.0 0.00018691
14850.0 0.0001918
14870.0 0.00019626
14890.0 0.00020045
14910.0 0.0002043
14930.0 0.00020748
14950.0 0.00021006
14970.0 0.00021214
14990.0 0.00021359
15010.0 0.00021447
15030.0 0.00021491
15050.0 0.00021497
15070.0 0.00021474
15090.0 0.00021434
15110.0 0.00021381
15130.0 0.00021322
15150.0 0.00021262
15170.0 0.00021199
15190.0 0.00021134
15210.0 0.00021072
15230.0 0.0002101
15250.0 0.00020946
15270.0 0.00020883
15290.0 0.00020824
15310.0 0.00020763
15330.0 0.00020702
15350.0 0.00020643
15370.0 0.00020584
15390.0 0.00020523
15410.0 0.00020464
15430.0 0.00020406
15450.0 0.00020348
15470.0 0.00020288
15490.0 0.00020232
15510.0 0.00020175
15530.0 0.00020117
15550.0 0.0002006
15570.0 0.00020005
15590.0 0.00019947
15610.0 0.00019889
15630.0 0.00019834
15650.0 0.00019779
15670.0 0.00019722
15690.0 0.00019666
15710.0 0.00019613
15730.0 0.00019556
15750.0 0.000195
15770.0 0.00019446
15790.0 0.00019392
15810.0 0.00019334
15830.0 0.00019279
15850.0 0.00019226
15870.0 0.00019171
15890.0 0.00019115
15910.0 0.00019062
15930.0 0.00019007
15950.0 0.00018951
15970.0 0.00018896
15990.0 0.00018843
16010.0 0.00018787
16030.0 0.0001873
16050.0 0.00018677
16070.0 0.00018623
16090.0 0.00018566
16110.0 0.00018512
16130.0 0.00018458
16150.0 0.00018401
16170.0 0.00018345
16190.0 0.00018291
16210.0 0.00018235
16230.0 0.00018178
16250.0 0.00018123
16270.0 0.00018068
16290.0 0.00018011
16310.0 0.00017954
16330.0 0.000179
16350.0 0.00017843
16370.0 0.00017783
16390.0 0.00017728
16410.0 0.00017672
16430.0 0.00017614
16450.0 0.00017556
16470.0 0.00017501
16490.0 0.00017442
16510.0 0.00017383
16530.0 0.00017326
16550.0 0.00017268
16570.0 0.00017208
16590.0 0.00017149
16610.0 0.00017092
16630.0 0.00017033
16650.0 0.00016972
16670.0 0.00016914
16690.0 0.00016856
16710.0 0.00016793
16730.0 0.00016733
16750.0 0.00016674
16770.0 0.00016613
16790.0 0.0001655
16810.0 0.00016491
16830.0 0.00016431
16850.0 0.00016368
16870.0 0.00016306
16890.0 0.00016246
16910.0 0.00016183
16930.0 0.00016119
16950.0 0.00016057
16970.0 0.00015995
16990.0 0.00015931
17010.0 0.00015868
17030.0 0.00015806
17050.0 0.00015742
17070.0 0.00015677
17090.0 0.00015614
17110.0 0.0001555
17130.0 0.00015483
17150.0 0.00015418
17170.0 0.00015355
17190.0 0.00015289
17210.0 0.00015223
17230.0 0.00015159
17250.0 0.00015094
17270.0 0.00015025
17290.0 0.0001496
17310.0 0.00014894
17330.0 0.00014827
17350.0 0.00014758
17370.0 0.00014693
17390.0 0.00014626
17410.0 0.00014558
17430.0 0.00014491
17450.0 0.00014425
17470.0 0.00014354
17490.0 0.00014285
17510.0 0.00014218
17530.0 0.0001415
17550.0 0.0001408
17570.0 0.00014012
17590.0 0.00013944
17610.0 0.00013874
17630.0 0.00013804
17650.0 0.00013736
17670.0 0.00013666
17690.0 0.00013593
17710.0 0.00013525
17730.0 0.00013456
17750.0 0.00013385
17770.0 0.00013314
17790.0 0.00013246
17810.0 0.00013174
17830.0 0.00013102
17850.0 0.00013032
17870.0 0.00012962
17890.0 0.00012889
17910.0 0.00012817
17930.0 0.00012748
17950.0 0.00012676
17970.0 0.00012604
17990.0 0.00012533
18010.0 0.00012463
18030.0 0.00012389
18050.0 0.00012317
18070.0 0.00012246
18090.0 0.00012174
18110.0 0.000121
18130.0 0.00012029
18150.0 0.00011958
18170.0 0.00011884
18190.0 0.00011812
18210.0 0.00011742
18230.0 0.00011668
18250.0 0.00011594
18270.0 0.00011523
18290.0 0.00011451
18310.0 0.00011377
18330.0 0.00011305
18350.0 0.00011234
18370.0 0.0001116
18390.0 0.00011087
18410.0 0.00011015
18430.0 0.00010943
18450.0 0.00010868
18470.0 0.00010795
18490.0 0.00010724
18510.0 0.00010651
18530.0 0.00010578
18550.0 0.00010507
18570.0 0.00010434
18590.0 0.0001036
18610.0 0.00010287
18630.0 0.00010216
18650.0 0.00010142
18670.0 0.00010068
18690.0 9.9981e-05
18710.0 9.9257e-05
18730.0 9.8521e-05
18750.0 9.7805e-05
18770.0 9.7098e-05
18790.0 9.635e-05
18810.0 9.5621e-05
18830.0 9.4915e-05
18850.0 9.4193e-05
18870.0 9.3457e-05
18890.0 9.2748e-05
18910.0 9.2042e-05
18930.0 9.1309e-05
18950.0 9.0588e-05
18970.0 8.9886e-05
18990.0 8.9166e-05
19010.0 8.8423e-05
19030.0 8.7723e-05
19050.0 8.7018e-05
19070.0 8.6293e-05
19090.0 8.558e-05
19110.0 8.489e-05
19130.0 8.4168e-05
19150.0 8.3444e-05
19170.0 8.2745e-05
19190.0 8.2044e-05
19210.0 8.1319e-05
19230.0 8.0608e-05
19250.0 7.9923e-05
19270.0 7.9214e-05
19290.0 7.8502e-05
19310.0 7.7814e-05
19330.0 7.7121e-05
19350.0 7.6396e-05
19370.0 7.5698e-05
19390.0 7.5014e-05
19410.0 7.431e-05
19430.0 7.3602e-05
19450.0 7.2924e-05
19470.0 7.2237e-05
19490.0 7.1532e-05
19510.0 7.0844e-05
19530.0 7.0169e-05
19550.0 6.9466e-05
19570.0 6.8763e-05
19590.0 6.8092e-05
19610.0 6.7411e-05
19630.0 6.6715e-05
19650.0 6.6038e-05
19670.0 6.5374e-05
19690.0 6.4681e-05
19710.0 6.3994e-05
19730.0 6.3329e-05
19750.0 6.2655e-05
19770.0 6.1957e-05
19790.0 6.129e-05
19810.0 6.0631e-05
19830.0 5.995e-05
19850.0 5.927e-05
19870.0 5.8609e-05
19890.0 5.7914e-05
19910.0 5.7177e-05
19930.0 5.6428e-05
19950.0 5.5626e-05
19970.0 5.4715e-05
19990.0 5.3706e-05
20010.0 5.2643e-05
20030.0 5.145e-05
20050.0 5.0154e-05
20070.0 4.8849e-05
20090.0 4.7541e-05
20110.0 4.6174e-05
20130.0 4.49e-05
20150.0 4.3737e-05
20170.0 4.2631e-05
20190.0 4.1608e-05
20210.0 4.0727e-05
20230.0 3.9944e-05
20250.0 3.9235e-05
20270.0 3.8646e-05
20290.0 3.8167e-05
20310.0 3.7769e-05
20330.0 3.7457e-05
20350.0 3.7251e-05
20370.0 3.7122e-05
20390.0 3.7072e-05
20410.0 3.7101e-05
20430.0 3.7199e-05
20450.0 3.7377e-05
20470.0 3.7631e-05
20490.0 3.7942e-05
20510.0 3.832e-05
20530.0 3.878e-05
20550.0 3.9289e-05
20570.0 3.9829e-05
20590.0 4.044e-05
20610.0 4.1093e-05
20630.0 4.1752e-05
20650.0 4.244e-05
20670.0 4.3177e-05
20690.0 4.3882e-05
20710.0 4.457e-05
20730.0 4.5267e-05
20750.0 4.595e-05
20770.0 4.6579e-05
20790.0 4.7202e-05
20810.0 4.7826e-05
20830.0 4.8417e-05
20850.0 4.8991e-05
20870.0 4.9594e-05
20890.0 5.0205e-05
20910.0 5.0798e-05
20930.0 5.1423e-05
20950.0 5.2087e-05
20970.0 5.2749e-05
20990.0 5.3416e-05
21010.0 5.4128e-05
21030.0 5.4828e-05
21050.0 5.5493e-05
21070.0 5.6145e-05
21090.0 5.6779e-05
21110.0 5.7328e-05
21130.0 5.7809e-05
21150.0 5.8235e-05
21170.0 5.8572e-05
21190.0 5.8811e-05
21210.0 5.897e-05
21230.0 5.9033e-05
21250.0 5.8997e-05
21270.0 5.8871e-05
21290.0 5.8649e-05
21310.0 5.8337e-05
21330.0 5.796e-05
21350.0 5.7495e-05
21370.0 5.695e-05
21390.0 5.6359e-05
21410.0 5.5717e-05
21430.0 5.4988e-05
21450.0 5.4242e-05
21470.0 5.3492e-05
21490.0 5.2702e-05
21510.0 5.1895e-05
21530.0 5.1125e-05
21550.0 5.0365e-05
21570.0 4.9603e-05
21590.0 4.8897e-05
21610.0 4.8255e-05
21630.0 4.7651e-05
21650.0 4.7104e-05
21670.0 4.6667e-05
21690.0 4.6301e-05
21710.0 4.6015e-05
21730.0 4.5828e-05
21750.0 4.5735e-05
21770.0 4.5734e-05
21790.0 4.5834e-05
21810.0 4.6022e-05
21830.0 4.63e-05
21850.0 4.6679e-05
21870.0 4.7132e-05
21890.0 4.7642e-05
21910.0 4.8245e-05
21930.0 4.8912e-05
21950.0 4.961e-05
21970.0 5.0366e-05
21990.0 5.1203e-05
22010.0 5.2034e-05
22030.0 5.2875e-05
22050.0 5.376e-05
22070.0 5.4652e-05
22090.0 5.55e-05
22110.0 5.6358e-05
22130.0 5.7214e-05
22150.0 5.8012e-05
22170.0 5.8758e-05
22190.0 5.9485e-05
22210.0 6.0143e-05
22230.0 6.0696e-05
22250.0 6.1185e-05
22270.0 6.159e-05
22290.0 6.1884e-05
22310.0 6.2075e-05
22330.0 6.216e-05
22350.0 6.2123e-05
22370.0 6.1969e-05
22390.0 6.1692e-05
22410.0 6.1276e-05
22430.0 6.0759e-05
22450.0 6.0132e-05
22470.0 5.9367e-05
22490.0 5.8501e-05
22510.0 5.7571e-05
22530.0 5.6509e-05
22550.0 5.5339e-05
22570.0 5.4148e-05
22590.0 5.2899e-05
22610.0 5.1554e-05
22630.0 5.0188e-05
22650.0 4.8854e-05
22670.0 4.7454e-05
22690.0 4.6035e-05
22710.0 4.4671e-05
22730.0 4.3329e-05
22750.0 4.1939e-05
22770.0 4.0643e-05
22790.0 3.9433e-05
22810.0 3.8244e-05
22830.0 3.7113e-05
22850.0 3.6106e-05
22870.0 3.5171e-05
