#lamb flux
1010.0 1.3303e-05
1030.0 1.4355e-05
1050.0 1.5567e-05
1070.0 1.6931e-05
1090.0 1.8482e-05
1110.0 2.0074e-05
1130.0 2.1679e-05
1150.0 2.3362e-05
1170.0 2.51e-05
1190.0 2.6752e-05
1210.0 2.8429e-05
1230.0 3.0164e-05
1250.0 3.1869e-05
1270.0 3.3528e-05
1290.0 3.5284e-05
1310.0 3.7043e-05
1330.0 3.8736e-05
1350.0 4.0452e-05
1370.0 4.2227e-05
1390.0 4.3963e-05
1410.0 4.5655e-05
1430.0 4.7426e-05
1450.0 4.9203e-05
1470.0 5.0926e-05
1490.0 5.2673e-05
1510.0 5.452e-05
1530.0 5.6277e-05
1550.0 5.8015e-05
1570.0 5.9814e-05
1590.0 6.1618e-05
1610.0 6.3345e-05
1630.0 6.5125e-05
1650.0 6.695e-05
1670.0 6.8716e-05
1690.0 7.0457e-05
1710.0 7.2259e-05
1730.0 7.4065e-05
1750.0 7.5758e-05
1770.0 7.7491e-05
1790.0 7.9248e-05
1810.0 8.0936e-05
1830.0 8.2581e-05
1850.0 8.4311e-05
1870.0 8.5977e-05
1890.0 8.7566e-05
1910.0 8.9166e-05
1930.0 9.0784e-05
1950.0 9.2298e-05
1970.0 9.3766e-05
1990.0 9.5269e-05
2010.0 9.6715e-05
2030.0 9.8071e-05
2050.0 9.9447e-05
2070.0 0.00010083
2090.0 0.00010209
2110.0 0.00010331
2130.0 0.00010455
2150.0 0.00010573
2170.0 0.0001068
2190.0 0.00010791
2210.0 0.00010899
2230.0 0.00010998
2250.0 0.00011093
2270.0 0.00011192
2290.0 0.00011284
2310.0 0.00011367
2330.0 0.00011452
2350.0 0.00011535
2370.0 0.00011611
2390.0 0.00011686
2410.0 0.00011766
2430.0 0.0001184
2450.0 0.00011911
2470.0 0.0001199
2490.0 0.00012083
2510.0 0.00012193
2530.0 0.00012367
2550.0 0.0001268
2570.0 0.00013211
2590.0 0.00014052
2610.0 0.00015442
2630.0 0.00017441
2650.0 0.00019939
2670.0 0.00022962
2690.0 0.00026398
2710.0 0.00029773
2730.0 0.00032861
2750.0 0.00035713
2770.0 0.00038071
2790.0 0.00039908
2810.0 0.00041433
2830.0 0.000428
2850.0 0.00043953
2870.0 0.00045052
2890.0 0.000462
2910.0 0.0004737
2930.0 0.00048512
2950.0 0.00049736
2970.0 0.00051025
2990.0 0.00052297
3010.0 0.0029684
3030.0 0.0030433
3050.0 0.003117
3070.0 0.0031814
3090.0 0.0032351
3110.0 0.0032625
3130.0 0.0032446
3150.0 0.0031633
3170.0 0.0029821
3190.0 0.0026987
3210.0 0.0023217
3230.0 0.0019019
3250.0 0.0022867
3270.0 0.0018446
3290.0 0.0027988
3310.0 0.0017894
3330.0 0.0018
3350.0 0.0019569
3370.0 0.0021501
3390.0 0.0023666
3410.0 0.0025853
3430.0 0.0028167
3450.0 0.003054
3470.0 0.0032778
3490.0 0.0034516
3510.0 0.0038994
3530.0 0.0046394
3550.0 0.0046091
3570.0 0.004144
3590.0 0.0050553
3610.0 0.003986
3630.0 0.0054088
3650.0 0.0060752
3670.0 0.0072226
3690.0 0.0068578
3710.0 0.0052502
3730.0 0.0061153
3750.0 0.0061907
3770.0 0.0067117
3790.0 0.0069103
3810.0 0.0076496
3830.0 0.011314
3850.0 0.014188
3870.0 0.017112
3890.0 0.017313
3910.0 0.016153
3930.0 0.016251
3950.0 0.01715
3970.0 0.016817
3990.0 0.010207
4010.0 0.006208
4030.0 0.010836
4050.0 0.014822
4070.0 0.014628
4090.0 0.0090772
4110.0 0.0065055
4130.0 0.010976
4150.0 0.012004
4170.0 0.010299
4190.0 0.0088053
4210.0 0.012763
4230.0 0.010847
4250.0 0.010801
4270.0 0.010729
4290.0 0.0097775
4310.0 0.012196
4330.0 0.013793
4350.0 0.013227
4370.0 0.011797
4390.0 0.013043
4410.0 0.01267
4430.0 0.0093814
4450.0 0.0077029
4470.0 0.0093973
4490.0 0.0082135
4510.0 0.011849
4530.0 0.012191
4550.0 0.012989
4570.0 0.016959
4590.0 0.018552
4610.0 0.019468
4630.0 0.027377
4650.0 0.032085
4670.0 0.031898
4690.0 0.027935
4710.0 0.028212
4730.0 0.02691
4750.0 0.020562
4770.0 0.016348
4790.0 0.012139
4810.0 0.014191
4830.0 0.016542
4850.0 0.015828
4870.0 0.011513
4890.0 0.018924
4910.0 0.021245
4930.0 0.023155
4950.0 0.025998
4970.0 0.023774
4990.0 0.027145
5010.0 0.029076
5030.0 0.028222
5050.0 0.023872
5070.0 0.017069
5090.0 0.01417
5110.0 0.014162
5130.0 0.014376
5150.0 0.013977
5170.0 0.01312
5190.0 0.014428
5210.0 0.014797
5230.0 0.01632
5250.0 0.018065
5270.0 0.016359
5290.0 0.018281
5310.0 0.024189
5330.0 0.026902
5350.0 0.024198
5370.0 0.023422
5390.0 0.02593
5410.0 0.027554
5430.0 0.027657
5450.0 0.028851
5470.0 0.03071
5490.0 0.034699
5510.0 0.041491
5530.0 0.043067
5550.0 0.043738
5570.0 0.044038
5590.0 0.042527
5610.0 0.039994
5630.0 0.039743
5650.0 0.041161
5670.0 0.03982
5690.0 0.035262
5710.0 0.034797
5730.0 0.033059
5750.0 0.031211
5770.0 0.027368
5790.0 0.027882
5810.0 0.029262
5830.0 0.031972
5850.0 0.030798
5870.0 0.030334
5890.0 0.032598
5910.0 0.03009
5930.0 0.026561
5950.0 0.025648
5970.0 0.027136
5990.0 0.024084
6010.0 0.020896
6030.0 0.018989
6050.0 0.017238
6070.0 0.015105
6090.0 0.015547
6110.0 0.018145
6130.0 0.018993
6150.0 0.019326
6170.0 0.019682
6190.0 0.020293
6210.0 0.022617
6230.0 0.026788
6250.0 0.024856
6270.0 0.021932
6290.0 0.019285
6310.0 0.016481
6330.0 0.014785
6350.0 0.013845
6370.0 0.01452
6390.0 0.016416
6410.0 0.019951
6430.0 0.024241
6450.0 0.02683
6470.0 0.028818
6490.0 0.033448
6510.0 0.037125
6530.0 0.03571
6550.0 0.034053
6570.0 0.034437
6590.0 0.034322
6610.0 0.034803
6630.0 0.032648
6650.0 0.029036
6670.0 0.027632
6690.0 0.027207
6710.0 0.029099
6730.0 0.025577
6750.0 0.021556
6770.0 0.020559
6790.0 0.021908
6810.0 0.024794
6830.0 0.024996
6850.0 0.022746
6870.0 0.022984
6890.0 0.02275
6910.0 0.021404
6930.0 0.02239
6950.0 0.021518
6970.0 0.02079
6990.0 0.021135
7010.0 0.022119
7030.0 0.02173
7050.0 0.020224
7070.0 0.02018
7090.0 0.018171
7110.0 0.015582
7130.0 0.014672
7150.0 0.015246
7170.0 0.017438
7190.0 0.017843
7210.0 0.01716
7230.0 0.018549
7250.0 0.019327
7270.0 0.019641
7290.0 0.020411
7310.0 0.021059
7330.0 0.020084
7350.0 0.018626
7370.0 0.017256
7390.0 0.016984
7410.0 0.018939
7430.0 0.021762
7450.0 0.023637
7470.0 0.025237
7490.0 0.02902
7510.0 0.028769
7530.0 0.024524
7550.0 0.021897
7570.0 0.018551
7590.0 0.016748
7610.0 0.016266
7630.0 0.015696
7650.0 0.01693
7670.0 0.019119
7690.0 0.02095
7710.0 0.023958
7730.0 0.024945
7750.0 0.025874
7770.0 0.027581
7790.0 0.029183
7810.0 0.028949
7830.0 0.026325
7850.0 0.026283
7870.0 0.025561
7890.0 0.025076
7910.0 0.023415
7930.0 0.022614
7950.0 0.018882
7970.0 0.018494
7990.0 0.018318
8010.0 0.020907
8030.0 0.020919
8050.0 0.022187
8070.0 0.021493
8090.0 0.021591
8110.0 0.02127
8130.0 0.020691
8150.0 0.019279
8170.0 0.019052
8190.0 0.019168
8210.0 0.019385
8230.0 0.017265
8250.0 0.015919
8270.0 0.014065
8290.0 0.011905
8310.0 0.01022
8330.0 0.0078644
8350.0 0.0062184
8370.0 0.0058665
8390.0 0.0058388
8410.0 0.0063265
8430.0 0.0081475
8450.0 0.008956
8470.0 0.0096864
8490.0 0.011201
8510.0 0.01218
8530.0 0.013723
8550.0 0.016252
8570.0 0.01801
8590.0 0.019087
8610.0 0.021512
8630.0 0.024735
8650.0 0.0256
8670.0 0.02619
8690.0 0.026871
8710.0 0.026285
8730.0 0.02531
8750.0 0.023333
8770.0 0.023245
8790.0 0.022796
8810.0 0.021015
8830.0 0.020716
8850.0 0.018626
8870.0 0.017585
8890.0 0.015862
8910.0 0.017779
8930.0 0.016259
8950.0 0.016446
8970.0 0.01686
8990.0 0.016505
9010.0 0.016873
9030.0 0.016045
9050.0 0.015979
9070.0 0.015993
9090.0 0.016006
9110.0 0.01603
9130.0 0.01604
9150.0 0.016042
9170.0 0.016007
9190.0 0.015917
9210.0 0.016156
9230.0 0.016104
9250.0 0.01608
9270.0 0.016063
9290.0 0.016051
9310.0 0.016041
9330.0 0.016032
9350.0 0.016024
9370.0 0.016016
9390.0 0.016006
9410.0 0.015997
9430.0 0.015988
9450.0 0.015977
9470.0 0.015965
9490.0 0.015954
9510.0 0.015942
9530.0 0.015929
9550.0 0.015917
9570.0 0.015904
9590.0 0.015891
9610.0 0.015878
9630.0 0.015866
9650.0 0.015854
9670.0 0.015841
9690.0 0.015829
9710.0 0.015818
9730.0 0.015806
9750.0 0.015794
9770.0 0.015785
9790.0 0.015775
9810.0 0.015765
9830.0 0.015756
9850.0 0.015748
9870.0 0.01574
9890.0 0.015732
9910.0 0.015726
9930.0 0.01572
9950.0 0.015696
9970.0 0.015698
9990.0 0.0157
10010.0 0.0157
10030.0 0.0157
10050.0 0.015694
10070.0 0.015654
10090.0 0.015668
10110.0 0.015682
10130.0 0.015692
10150.0 0.015701
10170.0 0.015708
10190.0 0.015713
10210.0 0.015719
10230.0 0.015725
10250.0 0.015731
10270.0 0.015738
10290.0 0.015746
10310.0 0.015755
10330.0 0.015762
10350.0 0.015772
10370.0 0.015783
10390.0 0.015793
10410.0 0.015803
10430.0 0.015816
10450.0 0.015828
10470.0 0.015839
10490.0 0.015853
10510.0 0.015866
10530.0 0.015879
10550.0 0.015892
10570.0 0.015907
10590.0 0.015922
10610.0 0.015936
10630.0 0.015951
10650.0 0.015966
10670.0 0.015981
10690.0 0.015996
10710.0 0.016012
10730.0 0.016028
10750.0 0.016043
10770.0 0.016059
10790.0 0.016074
10810.0 0.016089
10830.0 0.016104
10850.0 0.016118
10870.0 0.016127
10890.0 0.016129
10910.0 0.016119
10930.0 0.016089
10950.0 0.016024
10970.0 0.015917
10990.0 0.015764
11010.0 0.016123
11030.0 0.015815
11050.0 0.015456
11070.0 0.015043
11090.0 0.014565
11110.0 0.01409
11130.0 0.013617
11150.0 0.013133
11170.0 0.012666
11190.0 0.012243
11210.0 0.011838
11230.0 0.011458
11250.0 0.011126
11270.0 0.010834
11290.0 0.010566
11310.0 0.010332
11330.0 0.010138
11350.0 0.0099608
11370.0 0.0097971
11390.0 0.009649
11410.0 0.0095075
11430.0 0.0093571
11450.0 0.0092038
11470.0 0.0090463
11490.0 0.0088745
11510.0 0.0086846
11530.0 0.0084911
11550.0 0.0082893
11570.0 0.008071
11590.0 0.0078488
11610.0 0.0076306
11630.0 0.0074039
11650.0 0.0071737
11670.0 0.0069582
11690.0 0.0067488
11710.0 0.00654
11730.0 0.0063423
11750.0 0.0061607
11770.0 0.0059811
11790.0 0.0058082
11810.0 0.0056488
11830.0 0.0054969
11850.0 0.0053437
11870.0 0.0052005
11890.0 0.0050662
11910.0 0.004931
11930.0 0.0047968
11950.0 0.0046696
11970.0 0.0045427
11990.0 0.0044118
12010.0 0.0042857
12030.0 0.004164
12050.0 0.0040411
12070.0 0.0039193
12090.0 0.0038095
12110.0 0.0037043
12130.0 0.0036043
12150.0 0.0035164
12170.0 0.003442
12190.0 0.0033768
12210.0 0.003328
12230.0 0.0032973
12250.0 0.0032834
12270.0 0.0032884
12290.0 0.0033121
12310.0 0.0033522
12330.0 0.0034116
12350.0 0.0034871
12370.0 0.0035731
12390.0 0.0036709
12410.0 0.0037826
12430.0 0.0038927
12450.0 0.0040027
12470.0 0.0041144
12490.0 0.0042211
12510.0 0.004316
12530.0 0.0044048
12550.0 0.0044848
12570.0 0.0045503
12590.0 0.0046034
12610.0 0.0046463
12630.0 0.0046764
12650.0 0.0046936
12670.0 0.0047011
12690.0 0.0046987
12710.0 0.0046876
12730.0 0.0046691
12750.0 0.0046424
12770.0 0.0046099
12790.0 0.004573
12810.0 0.0045304
12830.0 0.0044818
12850.0 0.0044308
12870.0 0.0043758
12890.0 0.0043138
12910.0 0.0042475
12930.0 0.0041784
12950.0 0.0041011
12970.0 0.0040162
12990.0 0.00393
13010.0 0.0038389
13030.0 0.0037403
13050.0 0.00364
13070.0 0.0035417
13090.0 0.0034388
13110.0 0.0033364
13130.0 0.0032404
13150.0 0.003149
13170.0 0.0030596
13190.0 0.0029817
13210.0 0.0029152
13230.0 0.0028565
13250.0 0.0028084
13270.0 0.0027729
13290.0 0.002747
13310.0 0.0027302
13330.0 0.0027229
13350.0 0.0027227
13370.0 0.0027281
13390.0 0.0027374
13410.0 0.0027478
13430.0 0.0027584
13450.0 0.0027675
13470.0 0.0027735
13490.0 0.0027756
13510.0 0.0027733
13530.0 0.0027661
13550.0 0.0027549
13570.0 0.0027398
13590.0 0.0027213
13610.0 0.0027012
13630.0 0.0026807
13650.0 0.0026591
13670.0 0.0026385
13690.0 0.0026197
13710.0 0.0026023
13730.0 0.0025862
13750.0 0.0025727
13770.0 0.0025607
13790.0 0.0025496
13810.0 0.002539
13830.0 0.0025287
13850.0 0.0025176
13870.0 0.002505
13890.0 0.002491
13910.0 0.0024754
13930.0 0.0024571
13950.0 0.0024369
13970.0 0.002416
13990.0 0.0023936
14010.0 0.0023702
14030.0 0.0023476
14050.0 0.0023259
14070.0 0.0023044
14090.0 0.0022854
14110.0 0.0022688
14130.0 0.0022543
14150.0 0.002242
14170.0 0.0022326
14190.0 0.0022254
14210.0 0.0022204
14230.0 0.0022177
14250.0 0.0022171
14270.0 0.0022188
14290.0 0.0022231
14310.0 0.0022293
14330.0 0.0022379
14350.0 0.0022493
14370.0 0.0022627
14390.0 0.0022774
14410.0 0.0022947
14430.0 0.0023138
14450.0 0.0023332
14470.0 0.0023535
14490.0 0.0023758
14510.0 0.0023978
14530.0 0.0024197
14550.0 0.0024434
14570.0 0.0024686
14590.0 0.0024944
14610.0 0.002523
14630.0 0.0025561
14650.0 0.0025917
14670.0 0.0026308
14690.0 0.002676
14710.0 0.0027272
14730.0 0.0027798
14750.0 0.0028382
14770.0 0.0029027
14790.0 0.0029688
14810.0 0.0030355
14830.0 0.0031084
14850.0 0.00318
14870.0 0.0032474
14890.0 0.0033131
14910.0 0.0033758
14930.0 0.0034297
14950.0 0.0034747
14970.0 0.0035128
14990.0 0.0035403
15010.0 0.0035573
15030.0 0.0035659
15050.0 0.003567
15070.0 0.0035618
15090.0 0.0035527
15110.0 0.0035408
15130.0 0.0035274
15150.0 0.0035135
15170.0 0.0034989
15190.0 0.003484
15210.0 0.0034694
15230.0 0.0034548
15250.0 0.0034399
15270.0 0.0034252
15290.0 0.0034109
15310.0 0.0033964
15330.0 0.0033818
15350.0 0.0033675
15370.0 0.0033534
15390.0 0.0033388
15410.0 0.0033246
15430.0 0.0033106
15450.0 0.0032964
15470.0 0.0032822
15490.0 0.0032684
15510.0 0.0032546
15530.0 0.0032406
15550.0 0.0032268
15570.0 0.0032133
15590.0 0.0031995
15610.0 0.0031856
15630.0 0.0031722
15650.0 0.0031588
15670.0 0.0031452
15690.0 0.0031318
15710.0 0.0031187
15730.0 0.0031054
15750.0 0.003092
15770.0 0.003079
15790.0 0.003066
15810.0 0.0030527
15830.0 0.0030397
15850.0 0.0030271
15870.0 0.0030141
15890.0 0.0030012
15910.0 0.0029887
15930.0 0.0029761
15950.0 0.0029632
15970.0 0.0029507
15990.0 0.0029383
16010.0 0.0029257
16030.0 0.0029131
16050.0 0.002901
16070.0 0.0028888
16090.0 0.0028763
16110.0 0.0028642
16130.0 0.0028523
16150.0 0.0028399
16170.0 0.0028277
16190.0 0.0028159
16210.0 0.002804
16230.0 0.0027918
16250.0 0.0027801
16270.0 0.0027685
16290.0 0.0027565
16310.0 0.0027447
16330.0 0.0027332
16350.0 0.0027216
16370.0 0.0027096
16390.0 0.0026982
16410.0 0.0026868
16430.0 0.0026751
16450.0 0.0026636
16470.0 0.0026525
16490.0 0.002641
16510.0 0.0026295
16530.0 0.0026183
16550.0 0.0026071
16570.0 0.0025956
16590.0 0.0025843
16610.0 0.0025734
16630.0 0.0025622
16650.0 0.0025509
16670.0 0.00254
16690.0 0.0025291
16710.0 0.0025177
16730.0 0.0025067
16750.0 0.0024959
16770.0 0.0024849
16790.0 0.0024737
16810.0 0.002463
16830.0 0.0024522
16850.0 0.0024412
16870.0 0.0024304
16890.0 0.0024198
16910.0 0.0024088
16930.0 0.0023978
16950.0 0.0023872
16970.0 0.0023765
16990.0 0.0023656
17010.0 0.002355
17030.0 0.0023445
17050.0 0.0023337
17070.0 0.0023229
17090.0 0.0023125
17110.0 0.0023019
17130.0 0.002291
17150.0 0.0022804
17170.0 0.0022701
17190.0 0.0022594
17210.0 0.0022488
17230.0 0.0022385
17250.0 0.002228
17270.0 0.0022172
17290.0 0.0022068
17310.0 0.0021965
17330.0 0.0021859
17350.0 0.0021752
17370.0 0.0021651
17390.0 0.0021547
17410.0 0.0021441
17430.0 0.0021338
17450.0 0.0021237
17470.0 0.002113
17490.0 0.0021025
17510.0 0.0020923
17530.0 0.002082
17550.0 0.0020714
17570.0 0.0020612
17590.0 0.0020511
17610.0 0.0020406
17630.0 0.0020303
17650.0 0.0020202
17670.0 0.0020099
17690.0 0.0019993
17710.0 0.0019892
17730.0 0.0019791
17750.0 0.0019688
17770.0 0.0019585
17790.0 0.0019486
17810.0 0.0019383
17830.0 0.0019279
17850.0 0.0019179
17870.0 0.0019078
17890.0 0.0018974
17910.0 0.0018872
17930.0 0.0018774
17950.0 0.0018672
17970.0 0.001857
17990.0 0.001847
18010.0 0.0018371
18030.0 0.0018267
18050.0 0.0018166
18070.0 0.0018068
18090.0 0.0017967
18110.0 0.0017865
18130.0 0.0017767
18150.0 0.0017668
18170.0 0.0017566
18190.0 0.0017467
18210.0 0.001737
18230.0 0.0017269
18250.0 0.0017167
18270.0 0.001707
18290.0 0.0016972
18310.0 0.0016871
18330.0 0.0016773
18350.0 0.0016677
18370.0 0.0016577
18390.0 0.0016478
18410.0 0.0016382
18430.0 0.0016284
18450.0 0.0016184
18470.0 0.0016087
18490.0 0.0015992
18510.0 0.0015893
18530.0 0.0015796
18550.0 0.0015701
18570.0 0.0015605
18590.0 0.0015506
18610.0 0.001541
18630.0 0.0015316
18650.0 0.0015218
18670.0 0.0015121
18690.0 0.0015028
18710.0 0.0014933
18730.0 0.0014836
18750.0 0.0014742
18770.0 0.001465
18790.0 0.0014552
18810.0 0.0014457
18830.0 0.0014365
18850.0 0.0014271
18870.0 0.0014175
18890.0 0.0014083
18910.0 0.0013992
18930.0 0.0013897
18950.0 0.0013804
18970.0 0.0013713
18990.0 0.001362
19010.0 0.0013524
19030.0 0.0013434
19050.0 0.0013344
19070.0 0.0013251
19090.0 0.001316
19110.0 0.0013071
19130.0 0.0012979
19150.0 0.0012887
19170.0 0.0012798
19190.0 0.0012708
19210.0 0.0012616
19230.0 0.0012526
19250.0 0.0012439
19270.0 0.0012349
19290.0 0.0012259
19310.0 0.0012172
19330.0 0.0012085
19350.0 0.0011993
19370.0 0.0011905
19390.0 0.0011819
19410.0 0.0011731
19430.0 0.0011642
19450.0 0.0011557
19470.0 0.0011471
19490.0 0.0011382
19510.0 0.0011296
19530.0 0.0011212
19550.0 0.0011125
19570.0 0.0011037
19590.0 0.0010953
19610.0 0.0010869
19630.0 0.0010782
19650.0 0.0010698
19670.0 0.0010616
19690.0 0.001053
19710.0 0.0010445
19730.0 0.0010363
19750.0 0.001028
19770.0 0.0010194
19790.0 0.0010111
19810.0 0.001003
19830.0 0.00099464
19850.0 0.00098625
19870.0 0.00097805
19890.0 0.00096933
19910.0 0.00095988
19930.0 0.00094999
19950.0 0.00093899
19970.0 0.00092593
19990.0 0.00091082
20010.0 0.00089435
20030.0 0.00087527
20050.0 0.00085402
20070.0 0.00083224
20090.0 0.00081011
20110.0 0.00078669
20130.0 0.00076468
20150.0 0.00074444
20170.0 0.00072501
20190.0 0.00070688
20210.0 0.00069112
20230.0 0.00067696
20250.0 0.00066396
20270.0 0.00065296
20290.0 0.00064385
20310.0 0.00063608
20330.0 0.00062975
20350.0 0.00062538
20370.0 0.00062239
20390.0 0.00062084
20410.0 0.00062081
20430.0 0.00062218
20450.0 0.00062512
20470.0 0.00062961
20490.0 0.00063539
20510.0 0.00064261
20530.0 0.00065157
20550.0 0.00066166
20570.0 0.00067253
20590.0 0.00068489
20610.0 0.00069821
20630.0 0.0007117
20650.0 0.00072576
20670.0 0.00074075
20690.0 0.00075499
20710.0 0.0007687
20730.0 0.00078234
20750.0 0.00079534
20770.0 0.00080694
20790.0 0.00081795
20810.0 0.00082838
20830.0 0.00083769
20850.0 0.00084614
20870.0 0.0008544
20890.0 0.0008622
20910.0 0.00086931
20930.0 0.00087644
20950.0 0.00088367
20970.0 0.00089063
20990.0 0.00089742
21010.0 0.00090446
21030.0 0.00091116
21050.0 0.00091727
21070.0 0.00092297
21090.0 0.00092813
21110.0 0.00093218
21130.0 0.00093525
21150.0 0.00093739
21170.0 0.00093837
21190.0 0.00093825
21210.0 0.00093704
21230.0 0.00093471
21250.0 0.0009315
21270.0 0.00092746
21290.0 0.0009225
21310.0 0.00091692
21330.0 0.00091108
21350.0 0.00090463
21370.0 0.00089779
21390.0 0.00089097
21410.0 0.00088411
21430.0 0.00087687
21450.0 0.00086998
21470.0 0.00086348
21490.0 0.00085708
21510.0 0.00085095
21530.0 0.00084549
21550.0 0.00084047
21570.0 0.00083583
21590.0 0.00083194
21610.0 0.0008288
21630.0 0.0008263
21650.0 0.00082459
21670.0 0.00082382
21690.0 0.00082388
21710.0 0.0008249
21730.0 0.00082686
21750.0 0.00082967
21770.0 0.00083365
21790.0 0.00083864
21810.0 0.00084441
21830.0 0.00085117
21850.0 0.00085911
21870.0 0.00086773
21890.0 0.00087682
21910.0 0.00088704
21930.0 0.00089792
21950.0 0.00090895
21970.0 0.00092059
21990.0 0.00093317
22010.0 0.00094537
22030.0 0.00095748
22050.0 0.00096995
22070.0 0.00098223
22090.0 0.00099362
22110.0 0.0010048
22130.0 0.0010157
22150.0 0.0010254
22170.0 0.001034
22190.0 0.0010419
22210.0 0.0010485
22230.0 0.0010535
22250.0 0.0010571
22270.0 0.0010591
22290.0 0.0010594
22310.0 0.001058
22330.0 0.0010547
22350.0 0.0010496
22370.0 0.0010429
22390.0 0.0010343
22410.0 0.0010236
22430.0 0.0010117
22450.0 0.00099839
22470.0 0.00098317
22490.0 0.00096682
22510.0 0.00094995
22530.0 0.00093141
22550.0 0.00091168
22570.0 0.00089218
22590.0 0.00087225
22610.0 0.00085136
22630.0 0.00083062
22650.0 0.00081081
22670.0 0.00079042
22690.0 0.00077015
22710.0 0.00075102
22730.0 0.00073248
22750.0 0.00071359
22770.0 0.0006962
22790.0 0.00068014
22810.0 0.00066452
22830.0 0.00064979
22850.0 0.00063674
22870.0 0.00062466
22890.0 0.00061339
22910.0 0.00060373
22930.0 0.00059558
22950.0 0.00058856
22970.0 0.00058295
22990.0 0.00057916
23010.0 0.00057674
23030.0 0.00057582
23050.0 0.00057645
23070.0 0.00057845
23090.0 0.00058206
23110.0 0.00058707
23130.0 0.00059314
23150.0 0.00060039
23170.0 0.00060892
23190.0 0.000618
23210.0 0.00062743
23230.0 0.00063768
23250.0 0.00064814
23270.0 0.00065826
23290.0 0.00066839
23310.0 0.0006786
23330.0 0.00068774
23350.0 0.00069611
23370.0 0.00070392
23390.0 0.00071071
23410.0 0.0007162
23430.0 0.00072076
23450.0 0.00072422
23470.0 0.00072637
23490.0 0.00072737
23510.0 0.00072719
23530.0 0.00072581
23550.0 0.00072346
23570.0 0.00072007
23590.0 0.00071567
23610.0 0.00071062
23630.0 0.00070495
23650.0 0.00069842
23670.0 0.00069162
23690.0 0.00068481
23710.0 0.00067781
23730.0 0.00067083
23750.0 0.00066465
23770.0 0.00065915
23790.0 0.00065444
23810.0 0.00065105
23830.0 0.0006492
23850.0 0.00064899
23870.0 0.00065082
23890.0 0.00065462
23910.0 0.00066045
