#lamb flux
1010.0 0.00016376
1030.0 0.00019695
1050.0 0.00022839
1070.0 0.00025506
1090.0 0.00027487
1110.0 0.00027979
1130.0 0.00026746
1150.0 0.00023672
1170.0 0.0001872
1190.0 0.00012299
1210.0 0.0001276
1230.0 0.00013239
1250.0 0.00013712
1270.0 0.00014172
1290.0 0.00014653
1310.0 0.00015129
1330.0 0.00015579
1350.0 0.00016023
1370.0 0.0001647
1390.0 0.00016891
1410.0 0.00017285
1430.0 0.00017683
1450.0 0.00018066
1470.0 0.00018421
1490.0 0.00018768
1510.0 0.00036848
1530.0 0.00063327
1550.0 0.00091311
1570.0 0.0011979
1590.0 0.0014891
1610.0 0.0017794
1630.0 0.0020686
1650.0 0.0023542
1670.0 0.0026296
1690.0 0.0028939
1710.0 0.0031505
1730.0 0.0033961
1750.0 0.0036242
1770.0 0.003843
1790.0 0.0040521
1810.0 0.0042468
1830.0 0.004429
1850.0 0.0046072
1870.0 0.0047731
1890.0 0.0049263
1910.0 0.0050732
1930.0 0.0052147
1950.0 0.0053435
1970.0 0.0054639
1990.0 0.0055815
2010.0 0.0056909
2030.0 0.0057901
2050.0 0.0058869
2070.0 0.0059809
2090.0 0.0060633
2110.0 0.0061406
2130.0 0.0062165
2150.0 0.0062862
2170.0 0.0063475
2190.0 0.0064091
2210.0 0.0064684
2230.0 0.0065209
2250.0 0.0065708
2270.0 0.0066234
2290.0 0.0066714
2310.0 0.0067145
2330.0 0.0067602
2350.0 0.0068064
2370.0 0.0068487
2390.0 0.0068924
2410.0 0.0069417
2430.0 0.0069909
2450.0 0.0070438
2470.0 0.0071112
2490.0 0.0072021
2510.0 0.007319
2530.0 0.0074884
2550.0 0.0077422
2570.0 0.0080965
2590.0 0.0085727
2610.0 0.0092582
2630.0 0.01016
2650.0 0.011246
2670.0 0.012564
2690.0 0.014128
2710.0 0.015799
2730.0 0.017516
2750.0 0.019331
2770.0 0.02109
2790.0 0.022692
2810.0 0.024168
2830.0 0.025521
2850.0 0.026633
2870.0 0.027594
2890.0 0.028464
2910.0 0.029254
2930.0 0.029983
2950.0 0.030711
2970.0 0.031445
2990.0 0.032173
3010.0 0.032906
3030.0 0.033659
3050.0 0.034414
3070.0 0.035141
3090.0 0.035874
3110.0 0.036616
3130.0 0.037385
3150.0 0.038521
3170.0 0.039942
3190.0 0.041879
3210.0 0.044443
3230.0 0.047779
3250.0 0.051462
3270.0 0.053832
3290.0 0.05945
3310.0 0.074686
3330.0 0.07794
3350.0 0.078247
3370.0 0.078362
3390.0 0.07849
3410.0 0.078729
3430.0 0.079057
3450.0 0.079405
3470.0 0.07968
3490.0 0.080067
3510.0 0.081015
3530.0 0.08039
3550.0 0.07727
3570.0 0.074638
3590.0 0.075108
3610.0 0.079556
3630.0 0.077083
3650.0 0.071917
3670.0 0.066908
3690.0 0.065607
3710.0 0.068022
3730.0 0.070025
3750.0 0.070904
3770.0 0.073346
3790.0 0.076283
3810.0 0.074108
3830.0 0.069792
3850.0 0.067092
3870.0 0.0664
3890.0 0.065199
3910.0 0.06368
3930.0 0.063969
3950.0 0.066632
3970.0 0.069797
3990.0 0.072559
4010.0 0.07078
4030.0 0.068743
4050.0 0.068378
4070.0 0.068366
4090.0 0.068319
4110.0 0.06735
4130.0 0.065179
4150.0 0.06316
4170.0 0.062771
4190.0 0.060027
4210.0 0.056458
4230.0 0.05234
4250.0 0.048435
4270.0 0.045988
4290.0 0.043683
4310.0 0.043206
4330.0 0.044655
4350.0 0.045331
4370.0 0.047307
4390.0 0.05
4410.0 0.052474
4430.0 0.051522
4450.0 0.048434
4470.0 0.045956
4490.0 0.044697
4510.0 0.044371
4530.0 0.044716
4550.0 0.045138
4570.0 0.045873
4590.0 0.047291
4610.0 0.0501
4630.0 0.052034
4650.0 0.053509
4670.0 0.052695
4690.0 0.050243
4710.0 0.047513
4730.0 0.045985
4750.0 0.044985
4770.0 0.045957
4790.0 0.045662
4810.0 0.044601
4830.0 0.045825
4850.0 0.046152
4870.0 0.047621
4890.0 0.045512
4910.0 0.043157
4930.0 0.040049
4950.0 0.037008
4970.0 0.033969
4990.0 0.03146
5010.0 0.031139
5030.0 0.031923
5050.0 0.031429
5070.0 0.032129
5090.0 0.033472
5110.0 0.03329
5130.0 0.033067
5150.0 0.03289
5170.0 0.033085
5190.0 0.03359
5210.0 0.032739
5230.0 0.032097
5250.0 0.031396
5270.0 0.030555
5290.0 0.030199
5310.0 0.029973
5330.0 0.028886
5350.0 0.028528
5370.0 0.027766
5390.0 0.026827
5410.0 0.026335
5430.0 0.025653
5450.0 0.026268
5470.0 0.026559
5490.0 0.026066
5510.0 0.02674
5530.0 0.026911
5550.0 0.027356
5570.0 0.02706
5590.0 0.026065
5610.0 0.025832
5630.0 0.026209
5650.0 0.025885
5670.0 0.025382
5690.0 0.024562
5710.0 0.024908
5730.0 0.025193
5750.0 0.024243
5770.0 0.023252
5790.0 0.021134
5810.0 0.018271
5830.0 0.020237
5850.0 0.023326
5870.0 0.02442
5890.0 0.024916
5910.0 0.025177
5930.0 0.025617
5950.0 0.025438
5970.0 0.02551
5990.0 0.025384
6010.0 0.025089
6030.0 0.024541
6050.0 0.024611
6070.0 0.025201
6090.0 0.025082
6110.0 0.024557
6130.0 0.024253
6150.0 0.023631
6170.0 0.022935
6190.0 0.022696
6210.0 0.022194
6230.0 0.022098
6250.0 0.021994
6270.0 0.021883
6290.0 0.02188
6310.0 0.021847
6330.0 0.02163
6350.0 0.021253
6370.0 0.021039
6390.0 0.021129
6410.0 0.020682
6430.0 0.020456
6450.0 0.020142
6470.0 0.019824
6490.0 0.019649
6510.0 0.019689
6530.0 0.019268
6550.0 0.018968
6570.0 0.018911
6590.0 0.018842
6610.0 0.018787
6630.0 0.018173
6650.0 0.017807
6670.0 0.017722
6690.0 0.017494
6710.0 0.017123
6730.0 0.017005
6750.0 0.017112
6770.0 0.018277
6790.0 0.021094
6810.0 0.019699
6830.0 0.016798
6850.0 0.016164
6870.0 0.015812
6890.0 0.015725
6910.0 0.015652
6930.0 0.015613
6950.0 0.015332
6970.0 0.014809
6990.0 0.014527
7010.0 0.014605
7030.0 0.014424
7050.0 0.01404
7070.0 0.013964
7090.0 0.014096
7110.0 0.014316
7130.0 0.014083
7150.0 0.013896
7170.0 0.013783
7190.0 0.01392
7210.0 0.013649
7230.0 0.013401
7250.0 0.013399
7270.0 0.013291
7290.0 0.013206
7310.0 0.013405
7330.0 0.01313
7350.0 0.012683
7370.0 0.01216
7390.0 0.011748
7410.0 0.011885
7430.0 0.0118
7450.0 0.0117
7470.0 0.011508
7490.0 0.01121
7510.0 0.011041
7530.0 0.010895
7550.0 0.011552
7570.0 0.011446
7590.0 0.010407
7610.0 0.0099234
7630.0 0.010502
7650.0 0.010421
7670.0 0.010669
7690.0 0.011274
7710.0 0.011343
7730.0 0.011033
7750.0 0.01173
7770.0 0.010936
7790.0 0.010393
7810.0 0.011101
7830.0 0.011222
7850.0 0.011653
7870.0 0.011523
7890.0 0.011633
7910.0 0.011412
7930.0 0.011563
7950.0 0.012176
7970.0 0.011898
7990.0 0.010777
8010.0 0.011043
8030.0 0.010894
8050.0 0.010695
8070.0 0.010421
8090.0 0.0094342
8110.0 0.0094321
8130.0 0.010277
8150.0 0.010732
8170.0 0.010894
8190.0 0.011247
8210.0 0.01098
8230.0 0.010878
8250.0 0.010862
8270.0 0.010679
8290.0 0.010466
8310.0 0.0099665
8330.0 0.0099262
8350.0 0.010125
8370.0 0.010196
8390.0 0.010089
8410.0 0.0099535
8430.0 0.0097351
8450.0 0.0096791
8470.0 0.010142
8490.0 0.010236
8510.0 0.0097659
8530.0 0.0094658
8550.0 0.0093947
8570.0 0.0090474
8590.0 0.0089543
8610.0 0.0091087
8630.0 0.009189
8650.0 0.0091439
8670.0 0.0090947
8690.0 0.0089655
8710.0 0.0085952
8730.0 0.008519
8750.0 0.0083462
8770.0 0.0083684
8790.0 0.0083656
8810.0 0.0080955
8830.0 0.0080985
8850.0 0.0082358
8870.0 0.0078369
8890.0 0.0074691
8910.0 0.0072575
8930.0 0.0070003
8950.0 0.0067447
8970.0 0.0064651
8990.0 0.0063493
9010.0 0.0060852
9030.0 0.0060098
9050.0 0.0059747
9070.0 0.0059415
9090.0 0.0059078
9110.0 0.0058734
9130.0 0.0058389
9150.0 0.0058051
9170.0 0.0057708
9190.0 0.0057363
9210.0 0.0057014
9230.0 0.0056663
9250.0 0.0056311
9270.0 0.0055957
9290.0 0.0055602
9310.0 0.0055257
9330.0 0.0054926
9350.0 0.0054594
9370.0 0.0054262
9390.0 0.0053929
9410.0 0.0053595
9430.0 0.0053261
9450.0 0.0052927
9470.0 0.0052624
9490.0 0.0052305
9510.0 0.0051954
9530.0 0.0051607
9550.0 0.0051267
9570.0 0.0050932
9590.0 0.0050597
9610.0 0.0050278
9630.0 0.0049963
9650.0 0.0049648
9670.0 0.0049332
9690.0 0.004902
9710.0 0.004871
9730.0 0.0048398
9750.0 0.0048089
9770.0 0.0047784
9790.0 0.0047479
9810.0 0.0047174
9830.0 0.0046872
9850.0 0.0046545
9870.0 0.004621
9890.0 0.0045941
9910.0 0.0045666
9930.0 0.0045339
9950.0 0.004505
9970.0 0.0044784
9990.0 0.0044512
10010.0 0.0044241
10030.0 0.0043966
10050.0 0.004369
10070.0 0.0043416
10090.0 0.0043147
10110.0 0.0042875
10130.0 0.0042607
10150.0 0.0042344
10170.0 0.0042083
10190.0 0.0041823
10210.0 0.0041567
10230.0 0.0041316
10250.0 0.0041065
10270.0 0.0040817
10290.0 0.0040575
10310.0 0.0040332
10330.0 0.0040092
10350.0 0.0039856
10370.0 0.0039624
10390.0 0.0039391
10410.0 0.003914
10430.0 0.0038886
10450.0 0.003869
10470.0 0.0038483
10490.0 0.0038277
10510.0 0.0038071
10530.0 0.003786
10550.0 0.0037653
10570.0 0.0037452
10590.0 0.0037251
10610.0 0.003705
10630.0 0.0036856
10650.0 0.0036665
10670.0 0.0036472
10690.0 0.0036283
10710.0 0.0036101
10730.0 0.0035918
10750.0 0.0035734
10770.0 0.003556
10790.0 0.0035387
10810.0 0.0035213
10830.0 0.0035044
10850.0 0.0034881
10870.0 0.0034713
10890.0 0.0034548
10910.0 0.0034388
10930.0 0.0034229
10950.0 0.0034065
10970.0 0.0033903
10990.0 0.0033744
11010.0 0.0033414
11030.0 0.0033245
11050.0 0.0033087
11070.0 0.0032929
11090.0 0.003276
11110.0 0.0032602
11130.0 0.0032445
11150.0 0.0032278
11170.0 0.0032108
11190.0 0.0031945
11210.0 0.0031775
11230.0 0.0031598
11250.0 0.0031428
11270.0 0.0031265
11290.0 0.0031096
11310.0 0.0030934
11330.0 0.0030791
11350.0 0.0030652
11370.0 0.0030518
11390.0 0.00304
11410.0 0.0030294
11430.0 0.0030187
11450.0 0.0030091
11470.0 0.0030005
11490.0 0.002992
11510.0 0.0029833
11530.0 0.0029753
11550.0 0.0029673
11570.0 0.0029585
11590.0 0.0029494
11610.0 0.0029405
11630.0 0.0029305
11650.0 0.0029195
11670.0 0.0029088
11690.0 0.0028976
11710.0 0.0028853
11730.0 0.0028728
11750.0 0.0028608
11770.0 0.0028477
11790.0 0.0028343
11810.0 0.0028214
11830.0 0.0028087
11850.0 0.0027951
11870.0 0.0027824
11890.0 0.0027707
11910.0 0.0027589
11930.0 0.0027475
11950.0 0.0027375
11970.0 0.0027281
11990.0 0.0027188
12010.0 0.0027107
12030.0 0.0027038
12050.0 0.0026973
12070.0 0.0026915
12090.0 0.0026871
12110.0 0.0026833
12130.0 0.0026798
12150.0 0.0026772
12170.0 0.0026752
12190.0 0.002673
12210.0 0.002671
12230.0 0.0026693
12250.0 0.0026671
12270.0 0.0026643
12290.0 0.002661
12310.0 0.0026571
12330.0 0.0026518
12350.0 0.0026452
12370.0 0.0026379
12390.0 0.0026291
12410.0 0.002618
12430.0 0.0026065
12450.0 0.0025938
12470.0 0.0025792
12490.0 0.0025635
12510.0 0.0025477
12530.0 0.0025303
12550.0 0.0025116
12570.0 0.0024929
12590.0 0.002474
12610.0 0.0024538
12630.0 0.0024333
12650.0 0.0024142
12670.0 0.0023944
12690.0 0.0023744
12710.0 0.0023556
12730.0 0.0023375
12750.0 0.0023188
12770.0 0.0023014
12790.0 0.0022854
12810.0 0.0022699
12830.0 0.0022549
12850.0 0.0022418
12870.0 0.0022297
12890.0 0.0022183
12910.0 0.0022082
12930.0 0.0021996
12950.0 0.0021918
12970.0 0.0021851
12990.0 0.00218
13010.0 0.0021761
13030.0 0.0021732
13050.0 0.0021714
13070.0 0.0021706
13090.0 0.0021705
13110.0 0.002171
13130.0 0.0021718
13150.0 0.0021727
13170.0 0.0021734
13190.0 0.0021737
13210.0 0.0021732
13230.0 0.0021717
13250.0 0.0021689
13270.0 0.002165
13290.0 0.0021596
13310.0 0.0021524
13330.0 0.0021438
13350.0 0.002134
13370.0 0.0021224
13390.0 0.0021091
13410.0 0.0020954
13430.0 0.0020802
13450.0 0.0020635
13470.0 0.0020462
13490.0 0.0020286
13510.0 0.002009
13530.0 0.0019889
13550.0 0.001969
13570.0 0.0019482
13590.0 0.0019264
13610.0 0.0019049
13630.0 0.0018837
13650.0 0.0018613
13670.0 0.0018389
13690.0 0.0018172
13710.0 0.0017952
13730.0 0.0017722
13750.0 0.0017508
13770.0 0.0017298
13790.0 0.0017085
13810.0 0.0016878
13830.0 0.0016685
13850.0 0.0016492
13870.0 0.0016301
13890.0 0.0016123
13910.0 0.0015953
13930.0 0.0015784
13950.0 0.0015621
13970.0 0.0015472
13990.0 0.0015325
14010.0 0.0015181
14030.0 0.0015047
14050.0 0.0014918
14070.0 0.0014789
14090.0 0.0014668
14110.0 0.0014554
14130.0 0.0014443
14150.0 0.0014335
14170.0 0.0014234
14190.0 0.0014138
14210.0 0.0014042
14230.0 0.0013951
14250.0 0.0013865
14270.0 0.0013778
14290.0 0.0013692
14310.0 0.0013611
14330.0 0.001353
14350.0 0.0013449
14370.0 0.001337
14390.0 0.0013294
14410.0 0.0013215
14430.0 0.0013138
14450.0 0.0013062
14470.0 0.0012987
14490.0 0.0012909
14510.0 0.0012834
14530.0 0.001276
14550.0 0.0012684
14570.0 0.0012607
14590.0 0.0012533
14610.0 0.0012457
14630.0 0.0012379
14650.0 0.0012302
14670.0 0.0012225
14690.0 0.0012146
14710.0 0.0012065
14730.0 0.0011988
14750.0 0.0011908
14770.0 0.0011826
14790.0 0.0011745
14810.0 0.0011664
14830.0 0.0011579
14850.0 0.0011494
14870.0 0.0011411
14890.0 0.0011326
14910.0 0.001124
14930.0 0.0011158
14950.0 0.001108
14970.0 0.0011003
14990.0 0.0010931
15010.0 0.0010867
15030.0 0.0010806
15050.0 0.0010749
15070.0 0.0010699
15090.0 0.0010651
15110.0 0.0010604
15130.0 0.0010559
15150.0 0.0010516
15170.0 0.0010473
15190.0 0.0010429
15210.0 0.0010386
15230.0 0.0010344
15250.0 0.0010301
15270.0 0.0010259
15290.0 0.0010218
15310.0 0.0010176
15330.0 0.0010134
15350.0 0.0010093
15370.0 0.0010053
15390.0 0.0010011
15410.0 0.00099703
15430.0 0.00099305
15450.0 0.00098903
15470.0 0.00098498
15490.0 0.00098108
15510.0 0.00097719
15530.0 0.00097324
15550.0 0.00096936
15570.0 0.00096557
15590.0 0.00096171
15610.0 0.00095783
15630.0 0.00095411
15650.0 0.00095039
15670.0 0.00094661
15690.0 0.00094292
15710.0 0.00093933
15730.0 0.00093566
15750.0 0.00093201
15770.0 0.00092847
15790.0 0.00092493
15810.0 0.00092131
15830.0 0.00091781
15850.0 0.0009144
15870.0 0.00091093
15890.0 0.00090747
15910.0 0.00090414
15930.0 0.00090079
15950.0 0.00089737
15970.0 0.00089407
15990.0 0.00089083
16010.0 0.00088753
16030.0 0.00088423
16050.0 0.0008811
16070.0 0.00087794
16090.0 0.00087473
16110.0 0.00087163
16130.0 0.00086859
16150.0 0.00086543
16170.0 0.00086234
16190.0 0.00085937
16210.0 0.00085637
16230.0 0.00085334
16250.0 0.00085041
16270.0 0.00084754
16290.0 0.00084459
16310.0 0.00084169
16330.0 0.00083889
16350.0 0.00083606
16370.0 0.00083315
16390.0 0.0008304
16410.0 0.00082768
16430.0 0.0008249
16450.0 0.00082217
16470.0 0.00081955
16490.0 0.00081685
16510.0 0.00081414
16530.0 0.00081154
16550.0 0.00080896
16570.0 0.0008063
16590.0 0.0008037
16610.0 0.00080122
16630.0 0.00079868
16650.0 0.00079613
16670.0 0.00079368
16690.0 0.00079125
16710.0 0.0007887
16730.0 0.00078626
16750.0 0.00078388
16770.0 0.00078146
16790.0 0.00077901
16810.0 0.0007767
16830.0 0.00077438
16850.0 0.000772
16870.0 0.00076968
16890.0 0.00076743
16910.0 0.0007651
16930.0 0.00076275
16950.0 0.00076054
16970.0 0.00075832
16990.0 0.00075604
17010.0 0.00075382
17030.0 0.00075169
17050.0 0.00074946
17070.0 0.00074724
17090.0 0.00074512
17110.0 0.00074298
17130.0 0.00074075
17150.0 0.00073863
17170.0 0.00073657
17190.0 0.00073443
17210.0 0.00073231
17230.0 0.00073029
17250.0 0.00072821
17270.0 0.00072607
17290.0 0.00072403
17310.0 0.00072202
17330.0 0.00071994
17350.0 0.00071785
17370.0 0.00071591
17390.0 0.0007139
17410.0 0.00071185
17430.0 0.00070987
17450.0 0.00070794
17470.0 0.00070587
17490.0 0.00070387
17510.0 0.00070195
17530.0 0.00069998
17550.0 0.00069797
17570.0 0.00069605
17590.0 0.00069416
17610.0 0.00069216
17630.0 0.00069021
17650.0 0.00068833
17670.0 0.0006864
17690.0 0.00068437
17710.0 0.0006825
17730.0 0.00068063
17750.0 0.00067868
17770.0 0.00067676
17790.0 0.00067493
17810.0 0.000673
17830.0 0.00067105
17850.0 0.00066918
17870.0 0.00066732
17890.0 0.00066536
17910.0 0.00066345
17930.0 0.00066164
17950.0 0.00065974
17970.0 0.00065782
17990.0 0.00065598
18010.0 0.00065414
18030.0 0.00065216
18050.0 0.00065028
18070.0 0.00064845
18090.0 0.00064655
18110.0 0.00064461
18130.0 0.0006428
18150.0 0.00064095
18170.0 0.00063902
18190.0 0.00063714
18210.0 0.00063532
18230.0 0.00063339
18250.0 0.00063144
18270.0 0.00062961
18290.0 0.00062775
18310.0 0.00062581
18330.0 0.00062394
18350.0 0.00062212
18370.0 0.00062018
18390.0 0.00061825
18410.0 0.00061641
18430.0 0.00061452
18450.0 0.00061253
18470.0 0.00061064
18490.0 0.0006088
18510.0 0.00060686
18530.0 0.00060493
18550.0 0.00060309
18570.0 0.00060117
18590.0 0.00059917
18610.0 0.00059727
18630.0 0.00059538
18650.0 0.00059341
18670.0 0.00059143
18690.0 0.00058957
18710.0 0.00058764
18730.0 0.00058565
18750.0 0.00058373
18770.0 0.00058184
18790.0 0.00057979
18810.0 0.0005778
18830.0 0.0005759
18850.0 0.00057392
18870.0 0.00057189
18890.0 0.00056996
18910.0 0.00056803
18930.0 0.00056599
18950.0 0.00056398
18970.0 0.00056205
18990.0 0.00056003
19010.0 0.00055792
19030.0 0.00055597
19050.0 0.00055399
19070.0 0.00055193
19090.0 0.0005499
19110.0 0.00054795
19130.0 0.00054587
19150.0 0.00054378
19170.0 0.00054177
19190.0 0.00053975
19210.0 0.00053762
19230.0 0.00053554
19250.0 0.00053355
19270.0 0.00053146
19290.0 0.00052935
19310.0 0.00052732
19330.0 0.00052526
19350.0 0.00052306
19370.0 0.00052097
19390.0 0.00051892
19410.0 0.00051678
19430.0 0.00051461
19450.0 0.00051255
19470.0 0.00051045
19490.0 0.00050826
19510.0 0.00050613
19530.0 0.00050405
19550.0 0.00050184
19570.0 0.00049962
19590.0 0.00049752
19610.0 0.00049537
19630.0 0.00049314
19650.0 0.00049098
19670.0 0.00048887
19690.0 0.00048662
19710.0 0.0004844
19730.0 0.00048225
19750.0 0.00048005
19770.0 0.00047774
19790.0 0.00047555
19810.0 0.00047339
19830.0 0.00047112
19850.0 0.00046888
19870.0 0.00046674
19890.0 0.00046453
19910.0 0.00046231
19930.0 0.00046027
19950.0 0.00045836
19970.0 0.00045656
19990.0 0.000455
20010.0 0.00045378
20030.0 0.00045277
20050.0 0.00045199
20070.0 0.00045147
20090.0 0.00045111
20110.0 0.00045083
20130.0 0.00045064
20150.0 0.0004505
20170.0 0.00045034
20190.0 0.00045016
20210.0 0.00044998
20230.0 0.00044977
20250.0 0.0004495
20270.0 0.0004492
20290.0 0.00044888
20310.0 0.0004485
20330.0 0.00044806
20350.0 0.00044762
20370.0 0.00044715
20390.0 0.0004466
20410.0 0.00044605
20430.0 0.0004455
20450.0 0.00044487
20470.0 0.00044423
20490.0 0.00044361
20510.0 0.00044299
20530.0 0.00044233
20550.0 0.00044171
20570.0 0.00044114
20590.0 0.00044055
20610.0 0.00043998
20630.0 0.00043945
20650.0 0.00043894
20670.0 0.00043839
20690.0 0.00043788
20710.0 0.00043739
20730.0 0.00043685
20750.0 0.00043627
20770.0 0.0004357
20790.0 0.00043507
20810.0 0.00043434
20830.0 0.00043358
20850.0 0.00043277
20870.0 0.00043182
20890.0 0.00043079
20910.0 0.00042975
20930.0 0.00042862
20950.0 0.00042738
20970.0 0.00042614
20990.0 0.00042488
21010.0 0.0004235
21030.0 0.00042213
21050.0 0.0004208
21070.0 0.00041944
21090.0 0.00041803
21110.0 0.00041672
21130.0 0.00041545
21150.0 0.00041414
21170.0 0.00041286
21190.0 0.00041166
21210.0 0.00041041
21230.0 0.00040914
21250.0 0.00040793
21270.0 0.00040672
21290.0 0.00040545
21310.0 0.00040416
21330.0 0.00040292
21350.0 0.0004016
21370.0 0.0004002
21390.0 0.00039883
21410.0 0.00039743
21430.0 0.00039588
21450.0 0.00039434
21470.0 0.00039283
21490.0 0.00039122
21510.0 0.00038955
21530.0 0.00038793
21550.0 0.00038628
21570.0 0.00038452
21590.0 0.00038279
21610.0 0.00038111
21630.0 0.00037936
21650.0 0.00037754
21670.0 0.00037588
21690.0 0.00037419
21710.0 0.00037245
21730.0 0.00037076
21750.0 0.00036916
21770.0 0.00036744
21790.0 0.00036575
21810.0 0.00036415
21830.0 0.00036253
21850.0 0.00036085
21870.0 0.00035924
21890.0 0.0003577
21910.0 0.00035608
21930.0 0.00035447
21950.0 0.00035296
21970.0 0.00035144
21990.0 0.00034986
22010.0 0.00034841
22030.0 0.00034704
22050.0 0.00034565
22070.0 0.00034433
22090.0 0.00034317
22110.0 0.00034203
22130.0 0.00034092
22150.0 0.00033995
22170.0 0.00033908
22190.0 0.00033822
22210.0 0.00033745
22230.0 0.00033683
22250.0 0.00033623
22270.0 0.00033568
22290.0 0.00033521
22310.0 0.0003348
22330.0 0.00033437
22350.0 0.00033399
22370.0 0.00033366
22390.0 0.00033332
22410.0 0.00033295
22430.0 0.00033264
22450.0 0.00033233
22470.0 0.00033197
22490.0 0.00033162
22510.0 0.0003313
22530.0 0.00033093
22550.0 0.00033054
22570.0 0.0003302
22590.0 0.00032986
22610.0 0.0003295
22630.0 0.00032918
22650.0 0.00032892
22670.0 0.00032866
22690.0 0.00032843
22710.0 0.00032827
22730.0 0.00032817
22750.0 0.00032808
22770.0 0.00032808
22790.0 0.00032818
22810.0 0.00032832
22830.0 0.00032852
22850.0 0.00032883
22870.0 0.0003292
22890.0 0.00032962
22910.0 0.00033012
22930.0 0.0003307
22950.0 0.00033132
22970.0 0.000332
22990.0 0.00033276
23010.0 0.00033356
23030.0 0.00033441
23050.0 0.00033532
23070.0 0.0003363
23090.0 0.00033732
23110.0 0.00033841
23130.0 0.00033958
23150.0 0.00034083
23170.0 0.00034218
23190.0 0.00034362
23210.0 0.00034515
23230.0 0.00034681
23250.0 0.00034857
23270.0 0.00035043
23290.0 0.0003524
23310.0 0.0003545
23330.0 0.00035666
23350.0 0.00035889
23370.0 0.00036122
23390.0 0.00036359
23410.0 0.00036597
23430.0 0.0003684
23450.0 0.00037086
23470.0 0.00037329
23490.0 0.00037572
23510.0 0.00037816
23530.0 0.00038059
23550.0 0.00038298
23570.0 0.00038539
23590.0 0.00038781
23610.0 0.00039024
23630.0 0.0003927
23650.0 0.00039521
23670.0 0.00039778
