#lamb flux
1010.0 7.032e-08
1030.0 7.852e-08
1050.0 8.7952e-08
1070.0 9.8571e-08
1090.0 1.1063e-07
1110.0 1.23e-07
1130.0 1.3545e-07
1150.0 1.485e-07
1170.0 1.6195e-07
1190.0 1.7471e-07
1210.0 1.8764e-07
1230.0 2.0101e-07
1250.0 2.141e-07
1270.0 2.2682e-07
1290.0 2.4026e-07
1310.0 2.5369e-07
1330.0 2.6657e-07
1350.0 2.7959e-07
1370.0 2.9304e-07
1390.0 3.0615e-07
1410.0 3.1888e-07
1430.0 3.3218e-07
1450.0 3.4548e-07
1470.0 3.5833e-07
1490.0 3.7132e-07
1510.0 3.8505e-07
1530.0 3.9804e-07
1550.0 4.1087e-07
1570.0 4.2413e-07
1590.0 4.3739e-07
1610.0 4.5007e-07
1630.0 4.6312e-07
1650.0 4.7651e-07
1670.0 4.8945e-07
1690.0 5.0221e-07
1710.0 5.1545e-07
1730.0 5.2875e-07
1750.0 5.4122e-07
1770.0 5.5403e-07
1790.0 5.6708e-07
1810.0 5.7966e-07
1830.0 5.9197e-07
1850.0 6.0501e-07
1870.0 6.1764e-07
1890.0 6.2977e-07
1910.0 6.4207e-07
1930.0 6.5459e-07
1950.0 6.6642e-07
1970.0 6.7798e-07
1990.0 6.8989e-07
2010.0 7.0145e-07
2030.0 7.1239e-07
2050.0 7.2354e-07
2070.0 7.3482e-07
2090.0 7.4515e-07
2110.0 7.5522e-07
2130.0 7.6541e-07
2150.0 7.7509e-07
2170.0 7.8395e-07
2190.0 7.9295e-07
2210.0 8.0169e-07
2230.0 8.0959e-07
2250.0 8.1707e-07
2270.0 8.2469e-07
2290.0 8.315e-07
2310.0 8.374e-07
2330.0 8.4322e-07
2350.0 8.4868e-07
2370.0 8.5323e-07
2390.0 8.5751e-07
2410.0 8.6207e-07
2430.0 8.6618e-07
2450.0 8.7018e-07
2470.0 8.7516e-07
2490.0 8.8176e-07
2510.0 8.8993e-07
2530.0 9.0315e-07
2550.0 9.2659e-07
2570.0 9.649e-07
2590.0 1.0238e-06
2610.0 1.1195e-06
2630.0 1.254e-06
2650.0 1.4182e-06
2670.0 1.6124e-06
2690.0 1.827e-06
2710.0 2.0292e-06
2730.0 2.2044e-06
2750.0 2.3554e-06
2770.0 2.4668e-06
2790.0 2.5391e-06
2810.0 2.5856e-06
2830.0 2.6154e-06
2850.0 2.6288e-06
2870.0 2.6351e-06
2890.0 2.6397e-06
2910.0 2.6427e-06
2930.0 2.643e-06
2950.0 2.6448e-06
2970.0 2.6475e-06
2990.0 2.6488e-06
3010.0 4.1032e-05
3030.0 4.0997e-05
3050.0 4.0957e-05
3070.0 4.0867e-05
3090.0 4.0756e-05
3110.0 4.0575e-05
3130.0 4.0262e-05
3150.0 3.9795e-05
3170.0 3.9127e-05
3190.0 3.8275e-05
3210.0 3.7321e-05
3230.0 3.6364e-05
3250.0 3.576e-05
3270.0 3.5261e-05
3290.0 3.549e-05
3310.0 3.5699e-05
3330.0 3.6604e-05
3350.0 3.7896e-05
3370.0 3.9583e-05
3390.0 4.1611e-05
3410.0 4.376e-05
3430.0 4.6133e-05
3450.0 4.8804e-05
3470.0 5.1647e-05
3490.0 5.4578e-05
3510.0 5.7864e-05
3530.0 6.1361e-05
3550.0 6.4645e-05
3570.0 6.7917e-05
3590.0 7.1797e-05
3610.0 7.527e-05
3630.0 7.9405e-05
3650.0 8.3455e-05
3670.0 8.7334e-05
3690.0 9.0103e-05
3710.0 9.1635e-05
3730.0 9.2524e-05
3750.0 9.2268e-05
3770.0 8.429e-05
3790.0 7.5997e-05
3810.0 7.067e-05
3830.0 6.1269e-05
3850.0 4.7031e-05
3870.0 4.1181e-05
3890.0 6.1713e-05
3910.0 9.1729e-05
3930.0 0.00011126
3950.0 0.00011467
3970.0 0.00011324
3990.0 0.0001263
4010.0 0.00015068
4030.0 0.00015751
4050.0 0.0001458
4070.0 0.00012707
4090.0 0.00011683
4110.0 0.00013675
4130.0 0.00014322
4150.0 0.00013708
4170.0 0.00014058
4190.0 0.00014304
4210.0 0.00014324
4230.0 0.00015393
4250.0 0.00016735
4270.0 0.00016958
4290.0 0.00017072
4310.0 0.00017865
4330.0 0.00019687
4350.0 0.00022376
4370.0 0.00025215
4390.0 0.00024348
4410.0 0.0002055
4430.0 0.00017259
4450.0 0.00014581
4470.0 0.00014268
4490.0 0.00015532
4510.0 0.00017245
4530.0 0.00018801
4550.0 0.00021627
4570.0 0.00025997
4590.0 0.00031972
4610.0 0.00040359
4630.0 0.00048242
4650.0 0.00049812
4670.0 0.00049359
4690.0 0.00052467
4710.0 0.00054132
4730.0 0.0004585
4750.0 0.00033713
4770.0 0.00027673
4790.0 0.00026239
4810.0 0.00024555
4830.0 0.00023603
4850.0 0.00027245
4870.0 0.00034304
4890.0 0.00038402
4910.0 0.0003333
4930.0 0.00030347
4950.0 0.00034484
4970.0 0.00045513
4990.0 0.00057358
5010.0 0.0005942
5030.0 0.00049062
5050.0 0.00032891
5070.0 0.0002306
5090.0 0.0002036
5110.0 0.00021097
5130.0 0.00022651
5150.0 0.00023689
5170.0 0.00023626
5190.0 0.00023261
5210.0 0.00022643
5230.0 0.00023146
5250.0 0.00024713
5270.0 0.000288
5290.0 0.00033242
5310.0 0.00036109
5330.0 0.0003713
5350.0 0.00037981
5370.0 0.00041316
5390.0 0.00043554
5410.0 0.00041834
5430.0 0.00036835
5450.0 0.00034722
5470.0 0.00039631
5490.0 0.00050581
5510.0 0.00063314
5530.0 0.00069252
5550.0 0.00067721
5570.0 0.00062191
5590.0 0.00056283
5610.0 0.00052237
5630.0 0.00050175
5650.0 0.00051388
5670.0 0.00050319
5690.0 0.00047394
5710.0 0.00044728
5730.0 0.00039872
5750.0 0.00030344
5770.0 0.00026715
5790.0 0.00029648
5810.0 0.00035378
5830.0 0.00039512
5850.0 0.00042191
5870.0 0.00042833
5890.0 0.00041022
5910.0 0.00039282
5930.0 0.00039578
5950.0 0.00041594
5970.0 0.00043164
5990.0 0.00040574
6010.0 0.00034266
6030.0 0.00028453
6050.0 0.00025047
6070.0 0.00025095
6090.0 0.00028031
6110.0 0.00030093
6130.0 0.00028811
6150.0 0.00027419
6170.0 0.00030524
6190.0 0.00036613
6210.0 0.0004368
6230.0 0.00048795
6250.0 0.0004834
6270.0 0.00043443
6290.0 0.0003601
6310.0 0.00028798
6330.0 0.00023306
6350.0 0.00021463
6370.0 0.0002354
6390.0 0.00027418
6410.0 0.00031408
6430.0 0.000364
6450.0 0.00042487
6470.0 0.00052462
6490.0 0.00063888
6510.0 0.00069563
6530.0 0.00065031
6550.0 0.00060487
6570.0 0.00059761
6590.0 0.00057519
6610.0 0.00052534
6630.0 0.00047526
6650.0 0.00044274
6670.0 0.00045544
6690.0 0.00045109
6710.0 0.00040175
6730.0 0.00037024
6750.0 0.00033014
6770.0 0.00032254
6790.0 0.00034481
6810.0 0.00036489
6830.0 0.00037276
6850.0 0.00036466
6870.0 0.00035021
6890.0 0.00034261
6910.0 0.00032427
6930.0 0.00030853
6950.0 0.00030931
6970.0 0.00031747
6990.0 0.00035148
7010.0 0.00037216
7030.0 0.00034148
7050.0 0.00031768
7070.0 0.00029965
7090.0 0.00026598
7110.0 0.00024724
7130.0 0.00025258
7150.0 0.00026142
7170.0 0.00027402
7190.0 0.00027327
7210.0 0.00027542
7230.0 0.00029379
7250.0 0.00033877
7270.0 0.00039222
7290.0 0.00041737
7310.0 0.0004017
7330.0 0.0003579
7350.0 0.00032299
7370.0 0.00031836
7390.0 0.00032267
7410.0 0.00033609
7430.0 0.00037002
7450.0 0.00040187
7470.0 0.00044445
7490.0 0.00048347
7510.0 0.00043262
7530.0 0.00041572
7550.0 0.00035469
7570.0 0.00030198
7590.0 0.00025123
7610.0 0.00023202
7630.0 0.00024392
7650.0 0.00028026
7670.0 0.00030703
7690.0 0.00034459
7710.0 0.00038467
7730.0 0.00040429
7750.0 0.00040796
7770.0 0.00040813
7790.0 0.00040527
7810.0 0.00041967
7830.0 0.00040625
7850.0 0.00036808
7870.0 0.00033621
7890.0 0.00031341
7910.0 0.00028286
7930.0 0.00024422
7950.0 0.0002237
7970.0 0.0002213
7990.0 0.00023104
8010.0 0.00024548
8030.0 0.00024939
8050.0 0.00024873
8070.0 0.00024207
8090.0 0.00024011
8110.0 0.00022919
8130.0 0.0002158
8150.0 0.0002033
8170.0 0.00020032
8190.0 0.00020512
8210.0 0.00020432
8230.0 0.00020929
8250.0 0.00020853
8270.0 0.00018595
8290.0 0.00014245
8310.0 9.8466e-05
8330.0 6.5552e-05
8350.0 4.6504e-05
8370.0 5.4259e-05
8390.0 6.0505e-05
8410.0 7.7153e-05
8430.0 9.3523e-05
8450.0 0.00010233
8470.0 0.00010544
8490.0 0.00010959
8510.0 0.00011526
8530.0 0.00012986
8550.0 0.00014363
8570.0 0.00016761
8590.0 0.0002045
8610.0 0.00023823
8630.0 0.0002783
8650.0 0.00031313
8670.0 0.00030828
8690.0 0.00028874
8710.0 0.00027347
8730.0 0.0002588
8750.0 0.00024867
8770.0 0.00024183
8790.0 0.00023323
8810.0 0.00021651
8830.0 0.0001978
8850.0 0.00017208
8870.0 0.00014878
8890.0 0.00013384
8910.0 0.00013546
8930.0 0.00013346
8950.0 0.00014224
8970.0 0.00014531
8990.0 0.00015116
9010.0 0.00015771
9030.0 0.00015849
9050.0 0.00015878
9070.0 0.00015905
9090.0 0.00015926
9110.0 0.00015931
9130.0 0.00015949
9150.0 0.00015977
9170.0 0.00016003
9190.0 0.00016025
9210.0 0.00016086
9230.0 0.00016114
9250.0 0.0001615
9270.0 0.00016189
9290.0 0.00016231
9310.0 0.00016277
9330.0 0.00016326
9350.0 0.00016377
9370.0 0.00016431
9390.0 0.00016489
9410.0 0.00016549
9430.0 0.0001661
9450.0 0.00016676
9470.0 0.00016744
9490.0 0.00016814
9510.0 0.00016886
9530.0 0.00016962
9550.0 0.00017039
9570.0 0.00017117
9590.0 0.00017199
9610.0 0.00017283
9630.0 0.00017368
9650.0 0.00017455
9670.0 0.00017546
9690.0 0.00017637
9710.0 0.0001773
9730.0 0.00017825
9750.0 0.00017922
9770.0 0.00018018
9790.0 0.00018117
9810.0 0.00018219
9830.0 0.0001832
9850.0 0.00018422
9870.0 0.00018527
9890.0 0.00018633
9910.0 0.00018738
9930.0 0.00018844
9950.0 0.0001895
9970.0 0.00019058
9990.0 0.00019165
10010.0 0.00018995
10030.0 0.00019101
10050.0 0.00019205
10070.0 0.00019302
10090.0 0.00019413
10110.0 0.00019521
10130.0 0.00019628
10150.0 0.00019735
10170.0 0.00019841
10190.0 0.00019943
10210.0 0.00020047
10230.0 0.00020151
10250.0 0.00020251
10270.0 0.00020351
10290.0 0.00020451
10310.0 0.00020548
10330.0 0.00020642
10350.0 0.00020737
10370.0 0.00020831
10390.0 0.0002092
10410.0 0.00021008
10430.0 0.00021097
10450.0 0.00021182
10470.0 0.00021263
10490.0 0.00021344
10510.0 0.00021423
10530.0 0.00021495
10550.0 0.00021567
10570.0 0.00021638
10590.0 0.00021705
10610.0 0.00021768
10630.0 0.0002183
10650.0 0.00021889
10670.0 0.00021942
10690.0 0.00021993
10710.0 0.00022042
10730.0 0.00022087
10750.0 0.00022125
10770.0 0.00022165
10790.0 0.000222
10810.0 0.00022229
10830.0 0.00022255
10850.0 0.00022278
10870.0 0.00022289
10890.0 0.00022287
10910.0 0.00022269
10930.0 0.00022222
10950.0 0.00022126
10970.0 0.00021974
10990.0 0.00021762
11010.0 0.00021173
11030.0 0.00020783
11050.0 0.00020331
11070.0 0.00019805
11090.0 0.00019186
11110.0 0.00018556
11130.0 0.0001791
11150.0 0.00017228
11170.0 0.00016542
11190.0 0.00015898
11210.0 0.00015256
11230.0 0.00014625
11250.0 0.00014052
11270.0 0.00013528
11290.0 0.00013031
11310.0 0.00012584
11330.0 0.0001221
11350.0 0.00011871
11370.0 0.00011566
11390.0 0.00011305
11410.0 0.00011073
11430.0 0.00010847
11450.0 0.00010634
11470.0 0.00010429
11490.0 0.00010213
11510.0 9.9784e-05
11530.0 9.7375e-05
11550.0 9.482e-05
11570.0 9.1991e-05
11590.0 8.9031e-05
11610.0 8.6046e-05
11630.0 8.2877e-05
11650.0 7.9602e-05
11670.0 7.6499e-05
11690.0 7.3479e-05
11710.0 7.0493e-05
11730.0 6.7718e-05
11750.0 6.5241e-05
11770.0 6.2892e-05
11790.0 6.0751e-05
11810.0 5.8898e-05
11830.0 5.725e-05
11850.0 5.5718e-05
11870.0 5.4387e-05
11890.0 5.321e-05
11910.0 5.2082e-05
11930.0 5.0991e-05
11950.0 4.9952e-05
11970.0 4.8895e-05
11990.0 4.7766e-05
12010.0 4.6619e-05
12030.0 4.545e-05
12050.0 4.4209e-05
12070.0 4.2915e-05
12090.0 4.1687e-05
12110.0 4.0465e-05
12130.0 3.9267e-05
12150.0 3.818e-05
12170.0 3.7233e-05
12190.0 3.6392e-05
12210.0 3.5744e-05
12230.0 3.5312e-05
12250.0 3.5086e-05
12270.0 3.5093e-05
12290.0 3.5324e-05
12310.0 3.5749e-05
12330.0 3.6402e-05
12350.0 3.7243e-05
12370.0 3.8199e-05
12390.0 3.929e-05
12410.0 4.0544e-05
12430.0 4.1771e-05
12450.0 4.2992e-05
12470.0 4.4236e-05
12490.0 4.5416e-05
12510.0 4.6447e-05
12530.0 4.7401e-05
12550.0 4.8236e-05
12570.0 4.8878e-05
12590.0 4.9346e-05
12610.0 4.9663e-05
12630.0 4.9791e-05
12650.0 4.9731e-05
12670.0 4.9518e-05
12690.0 4.9148e-05
12710.0 4.8647e-05
12730.0 4.8035e-05
12750.0 4.7293e-05
12770.0 4.6472e-05
12790.0 4.56e-05
12810.0 4.4658e-05
12830.0 4.3648e-05
12850.0 4.2638e-05
12870.0 4.1605e-05
12890.0 4.0513e-05
12910.0 3.941e-05
12930.0 3.8317e-05
12950.0 3.7167e-05
12970.0 3.5977e-05
12990.0 3.482e-05
13010.0 3.365e-05
13030.0 3.2442e-05
13050.0 3.1253e-05
13070.0 3.0118e-05
13090.0 2.8968e-05
13110.0 2.785e-05
13130.0 2.6818e-05
13150.0 2.585e-05
13170.0 2.4924e-05
13190.0 2.4125e-05
13210.0 2.3448e-05
13230.0 2.2867e-05
13250.0 2.2407e-05
13270.0 2.2085e-05
13290.0 2.1881e-05
13310.0 2.1803e-05
13330.0 2.1847e-05
13350.0 2.1995e-05
13370.0 2.2251e-05
13390.0 2.2606e-05
13410.0 2.3003e-05
13430.0 2.3461e-05
13450.0 2.3972e-05
13470.0 2.449e-05
13490.0 2.4994e-05
13510.0 2.5526e-05
13530.0 2.6024e-05
13550.0 2.6466e-05
13570.0 2.6874e-05
13590.0 2.7244e-05
13610.0 2.7547e-05
13630.0 2.7786e-05
13650.0 2.7985e-05
13670.0 2.8125e-05
13690.0 2.8206e-05
13710.0 2.8242e-05
13730.0 2.8232e-05
13750.0 2.8173e-05
13770.0 2.8076e-05
13790.0 2.7941e-05
13810.0 2.777e-05
13830.0 2.7573e-05
13850.0 2.7342e-05
13870.0 2.7078e-05
13890.0 2.6794e-05
13910.0 2.6489e-05
13930.0 2.6152e-05
13950.0 2.5795e-05
13970.0 2.544e-05
13990.0 2.5065e-05
14010.0 2.4678e-05
14030.0 2.4303e-05
14050.0 2.3935e-05
14070.0 2.3562e-05
14090.0 2.3216e-05
14110.0 2.2903e-05
14130.0 2.2612e-05
14150.0 2.2352e-05
14170.0 2.2141e-05
14190.0 2.1972e-05
14210.0 2.1844e-05
14230.0 2.1766e-05
14250.0 2.1737e-05
14270.0 2.1756e-05
14290.0 2.1827e-05
14310.0 2.1939e-05
14330.0 2.2092e-05
14350.0 2.2289e-05
14370.0 2.2515e-05
14390.0 2.2759e-05
14410.0 2.3035e-05
14430.0 2.3331e-05
14450.0 2.3627e-05
14470.0 2.3932e-05
14490.0 2.4261e-05
14510.0 2.4585e-05
14530.0 2.4909e-05
14550.0 2.5258e-05
14570.0 2.563e-05
14590.0 2.6013e-05
14610.0 2.6437e-05
14630.0 2.6923e-05
14650.0 2.7445e-05
14670.0 2.8013e-05
14690.0 2.8662e-05
14710.0 2.9386e-05
14730.0 3.0127e-05
14750.0 3.0937e-05
14770.0 3.1818e-05
14790.0 3.2713e-05
14810.0 3.3607e-05
14830.0 3.4567e-05
14850.0 3.5501e-05
14870.0 3.6372e-05
14890.0 3.7211e-05
14910.0 3.8004e-05
14930.0 3.8685e-05
14950.0 3.9257e-05
14970.0 3.9744e-05
14990.0 4.0109e-05
15010.0 4.0354e-05
15030.0 4.0507e-05
15050.0 4.0576e-05
15070.0 4.0579e-05
15090.0 4.054e-05
15110.0 4.0471e-05
15130.0 4.0385e-05
15150.0 4.0296e-05
15170.0 4.0199e-05
15190.0 4.0098e-05
15210.0 4.0002e-05
15230.0 3.9906e-05
15250.0 3.9806e-05
15270.0 3.9707e-05
15290.0 3.9615e-05
15310.0 3.9519e-05
15330.0 3.9422e-05
15350.0 3.933e-05
15370.0 3.9238e-05
15390.0 3.914e-05
15410.0 3.9046e-05
15430.0 3.8956e-05
15450.0 3.8862e-05
15470.0 3.8767e-05
15490.0 3.8677e-05
15510.0 3.8587e-05
15530.0 3.8493e-05
15550.0 3.8401e-05
15570.0 3.8313e-05
15590.0 3.822e-05
15610.0 3.8125e-05
15630.0 3.8036e-05
15650.0 3.7945e-05
15670.0 3.7852e-05
15690.0 3.776e-05
15710.0 3.7673e-05
15730.0 3.7579e-05
15750.0 3.7486e-05
15770.0 3.7396e-05
15790.0 3.7305e-05
15810.0 3.7209e-05
15830.0 3.7117e-05
15850.0 3.7027e-05
15870.0 3.6933e-05
15890.0 3.6839e-05
15910.0 3.6748e-05
15930.0 3.6655e-05
15950.0 3.6558e-05
15970.0 3.6464e-05
15990.0 3.6371e-05
16010.0 3.6275e-05
16030.0 3.6176e-05
16050.0 3.6084e-05
16070.0 3.5988e-05
16090.0 3.5889e-05
16110.0 3.5793e-05
16130.0 3.5699e-05
16150.0 3.5597e-05
16170.0 3.5497e-05
16190.0 3.54e-05
16210.0 3.5301e-05
16230.0 3.5198e-05
16250.0 3.5098e-05
16270.0 3.5e-05
16290.0 3.4896e-05
16310.0 3.4793e-05
16330.0 3.4693e-05
16350.0 3.4589e-05
16370.0 3.448e-05
16390.0 3.4378e-05
16410.0 3.4274e-05
16430.0 3.4167e-05
16450.0 3.4059e-05
16470.0 3.3956e-05
16490.0 3.3847e-05
16510.0 3.3736e-05
16530.0 3.3629e-05
16550.0 3.3521e-05
16570.0 3.3407e-05
16590.0 3.3295e-05
16610.0 3.3187e-05
16630.0 3.3074e-05
16650.0 3.296e-05
16670.0 3.2848e-05
16690.0 3.2737e-05
16710.0 3.2617e-05
16730.0 3.2502e-05
16750.0 3.2388e-05
16770.0 3.227e-05
16790.0 3.215e-05
16810.0 3.2035e-05
16830.0 3.1918e-05
16850.0 3.1796e-05
16870.0 3.1677e-05
16890.0 3.1559e-05
16910.0 3.1436e-05
16930.0 3.1311e-05
16950.0 3.1191e-05
16970.0 3.1069e-05
16990.0 3.0943e-05
17010.0 3.0819e-05
17030.0 3.0698e-05
17050.0 3.0571e-05
17070.0 3.0443e-05
17090.0 3.0319e-05
17110.0 3.0193e-05
17130.0 3.0061e-05
17150.0 2.9933e-05
17170.0 2.9807e-05
17190.0 2.9677e-05
17210.0 2.9546e-05
17230.0 2.9419e-05
17250.0 2.9288e-05
17270.0 2.9153e-05
17290.0 2.9022e-05
17310.0 2.8892e-05
17330.0 2.8757e-05
17350.0 2.8621e-05
17370.0 2.8492e-05
17390.0 2.8358e-05
17410.0 2.8221e-05
17430.0 2.8088e-05
17450.0 2.7955e-05
17470.0 2.7815e-05
17490.0 2.7678e-05
17510.0 2.7544e-05
17530.0 2.7407e-05
17550.0 2.7267e-05
17570.0 2.7131e-05
17590.0 2.6996e-05
17610.0 2.6856e-05
17630.0 2.6716e-05
17650.0 2.658e-05
17670.0 2.6441e-05
17690.0 2.6296e-05
17710.0 2.6159e-05
17730.0 2.6021e-05
17750.0 2.5879e-05
17770.0 2.5738e-05
17790.0 2.5602e-05
17810.0 2.5459e-05
17830.0 2.5316e-05
17850.0 2.5176e-05
17870.0 2.5036e-05
17890.0 2.4891e-05
17910.0 2.4748e-05
17930.0 2.461e-05
17950.0 2.4468e-05
17970.0 2.4324e-05
17990.0 2.4184e-05
18010.0 2.4044e-05
18030.0 2.3897e-05
18050.0 2.3754e-05
18070.0 2.3614e-05
18090.0 2.3471e-05
18110.0 2.3326e-05
18130.0 2.3186e-05
18150.0 2.3045e-05
18170.0 2.29e-05
18190.0 2.2757e-05
18210.0 2.2618e-05
18230.0 2.2473e-05
18250.0 2.2327e-05
18270.0 2.2187e-05
18290.0 2.2046e-05
18310.0 2.1901e-05
18330.0 2.1759e-05
18350.0 2.1621e-05
18370.0 2.1476e-05
18390.0 2.1333e-05
18410.0 2.1193e-05
18430.0 2.1052e-05
18450.0 2.0906e-05
18470.0 2.0765e-05
18490.0 2.0627e-05
18510.0 2.0484e-05
18530.0 2.0342e-05
18550.0 2.0204e-05
18570.0 2.0064e-05
18590.0 1.992e-05
18610.0 1.978e-05
18630.0 1.9642e-05
18650.0 1.95e-05
18670.0 1.9358e-05
18690.0 1.9223e-05
18710.0 1.9084e-05
18730.0 1.8943e-05
18750.0 1.8805e-05
18770.0 1.867e-05
18790.0 1.8527e-05
18810.0 1.8388e-05
18830.0 1.8253e-05
18850.0 1.8116e-05
18870.0 1.7976e-05
18890.0 1.7841e-05
18910.0 1.7707e-05
18930.0 1.7569e-05
18950.0 1.7432e-05
18970.0 1.7299e-05
18990.0 1.7164e-05
19010.0 1.7024e-05
19030.0 1.6892e-05
19050.0 1.676e-05
19070.0 1.6624e-05
19090.0 1.649e-05
19110.0 1.6361e-05
19130.0 1.6226e-05
19150.0 1.6091e-05
19170.0 1.5961e-05
19190.0 1.583e-05
19210.0 1.5696e-05
19230.0 1.5564e-05
19250.0 1.5437e-05
19270.0 1.5306e-05
19290.0 1.5174e-05
19310.0 1.5047e-05
19330.0 1.4919e-05
19350.0 1.4786e-05
19370.0 1.4658e-05
19390.0 1.4532e-05
19410.0 1.4404e-05
19430.0 1.4274e-05
19450.0 1.415e-05
19470.0 1.4025e-05
19490.0 1.3897e-05
19510.0 1.3772e-05
19530.0 1.3649e-05
19550.0 1.3522e-05
19570.0 1.3395e-05
19590.0 1.3273e-05
19610.0 1.315e-05
19630.0 1.3025e-05
19650.0 1.2903e-05
19670.0 1.2784e-05
19690.0 1.2659e-05
19710.0 1.2537e-05
19730.0 1.2417e-05
19750.0 1.2297e-05
19770.0 1.2173e-05
19790.0 1.2054e-05
19810.0 1.1937e-05
19830.0 1.1816e-05
19850.0 1.1696e-05
19870.0 1.1578e-05
19890.0 1.1456e-05
19910.0 1.1327e-05
19930.0 1.1196e-05
19950.0 1.1056e-05
19970.0 1.0899e-05
19990.0 1.0725e-05
20010.0 1.064e-05
20030.0 1.043e-05
20050.0 1.02e-05
20070.0 9.9652e-06
20090.0 9.725e-06
20110.0 9.4683e-06
20130.0 9.2214e-06
20150.0 8.988e-06
20170.0 8.7575e-06
20190.0 8.5348e-06
20210.0 8.3331e-06
20230.0 8.1444e-06
20250.0 7.9635e-06
20270.0 7.8022e-06
20290.0 7.6605e-06
20310.0 7.5318e-06
20330.0 7.4178e-06
20350.0 7.3281e-06
20370.0 7.2542e-06
20390.0 7.1963e-06
20410.0 7.157e-06
20430.0 7.1347e-06
20450.0 7.1285e-06
20470.0 7.1391e-06
20490.0 7.1638e-06
20510.0 7.2024e-06
20530.0 7.2562e-06
20550.0 7.3206e-06
20570.0 7.392e-06
20590.0 7.4756e-06
20610.0 7.567e-06
20630.0 7.6606e-06
20650.0 7.7597e-06
20670.0 7.8676e-06
20690.0 7.9721e-06
20710.0 8.0755e-06
20730.0 8.1825e-06
20750.0 8.2895e-06
20770.0 8.3901e-06
20790.0 8.492e-06
20810.0 8.5963e-06
20830.0 8.697e-06
20850.0 8.796e-06
20870.0 8.9009e-06
20890.0 9.0072e-06
20910.0 9.1097e-06
20930.0 9.217e-06
20950.0 9.3296e-06
20970.0 9.4407e-06
20990.0 9.5515e-06
21010.0 9.6696e-06
21030.0 9.786e-06
21050.0 9.8971e-06
21070.0 1.0008e-05
21090.0 1.0119e-05
21110.0 1.0218e-05
21130.0 1.0309e-05
21150.0 1.0396e-05
21170.0 1.0473e-05
21190.0 1.0536e-05
21210.0 1.0591e-05
21230.0 1.0634e-05
21250.0 1.0663e-05
21270.0 1.0679e-05
21290.0 1.0683e-05
21310.0 1.0672e-05
21330.0 1.0649e-05
21350.0 1.0611e-05
21370.0 1.0559e-05
21390.0 1.0495e-05
21410.0 1.0419e-05
21430.0 1.0325e-05
21450.0 1.022e-05
21470.0 1.0108e-05
21490.0 9.9815e-06
21510.0 9.8441e-06
21530.0 9.7046e-06
21550.0 9.5585e-06
21570.0 9.4025e-06
21590.0 9.2481e-06
21610.0 9.0978e-06
21630.0 8.9458e-06
21650.0 8.7951e-06
21670.0 8.6618e-06
21690.0 8.536e-06
21710.0 8.419e-06
21730.0 8.3186e-06
21750.0 8.2359e-06
21770.0 8.1659e-06
21790.0 8.1154e-06
21810.0 8.0851e-06
21830.0 8.0731e-06
21850.0 8.081e-06
21870.0 8.108e-06
21890.0 8.1514e-06
21910.0 8.2143e-06
21930.0 8.2946e-06
21950.0 8.3869e-06
21970.0 8.4946e-06
21990.0 8.6216e-06
22010.0 8.7541e-06
22030.0 8.8941e-06
22050.0 9.047e-06
22070.0 9.2067e-06
22090.0 9.3633e-06
22110.0 9.5264e-06
22130.0 9.6944e-06
22150.0 9.8559e-06
22170.0 1.0012e-05
22190.0 1.0169e-05
22210.0 1.0318e-05
22230.0 1.045e-05
22250.0 1.0574e-05
22270.0 1.0687e-05
22290.0 1.078e-05
22310.0 1.0857e-05
22330.0 1.0919e-05
22350.0 1.0959e-05
22370.0 1.0978e-05
22390.0 1.0976e-05
22410.0 1.0952e-05
22430.0 1.0906e-05
22450.0 1.084e-05
22470.0 1.0749e-05
22490.0 1.0638e-05
22510.0 1.0511e-05
22530.0 1.036e-05
22550.0 1.0186e-05
22570.0 1.0003e-05
22590.0 9.8046e-06
22610.0 9.5849e-06
22630.0 9.3551e-06
