#lamb flux
1010.0 0.00015337
1030.0 0.0001817
1050.0 0.00020597
1070.0 0.00022252
1090.0 0.00022836
1110.0 0.00021535
1130.0 0.00018177
1150.0 0.00013459
1170.0 6.7244e-05
1190.0 1e-99
1210.0 1e-99
1230.0 1e-99
1250.0 1e-99
1270.0 1e-99
1290.0 1e-99
1310.0 1e-99
1330.0 1e-99
1350.0 1e-99
1370.0 1e-99
1390.0 1e-99
1410.0 1e-99
1430.0 1e-99
1450.0 1e-99
1470.0 1e-99
1490.0 1e-99
1510.0 5.2733e-06
1530.0 0.00026855
1550.0 0.00055542
1570.0 0.00088641
1590.0 0.0012254
1610.0 0.0015641
1630.0 0.0019009
1650.0 0.0022327
1670.0 0.0025527
1690.0 0.0028594
1710.0 0.0031556
1730.0 0.0034384
1750.0 0.0037007
1770.0 0.0039509
1790.0 0.0041888
1810.0 0.0044096
1830.0 0.0046153
1850.0 0.0048149
1870.0 0.005
1890.0 0.0051701
1910.0 0.0053318
1930.0 0.0054865
1950.0 0.0056263
1970.0 0.0057559
1990.0 0.0058813
2010.0 0.0059969
2030.0 0.0061007
2050.0 0.0062008
2070.0 0.0062968
2090.0 0.0063796
2110.0 0.0064559
2130.0 0.0065298
2150.0 0.0065962
2170.0 0.0066529
2190.0 0.0067093
2210.0 0.0067623
2230.0 0.0068076
2250.0 0.0068494
2270.0 0.0068935
2290.0 0.0069322
2310.0 0.0069654
2330.0 0.0070007
2350.0 0.0070363
2370.0 0.0070676
2390.0 0.0071003
2410.0 0.0071386
2430.0 0.0071769
2450.0 0.0072192
2470.0 0.007277
2490.0 0.0073598
2510.0 0.0074703
2530.0 0.007636
2550.0 0.0078899
2570.0 0.008248
2590.0 0.0087318
2610.0 0.0094301
2630.0 0.010348
2650.0 0.011451
2670.0 0.012786
2690.0 0.014364
2710.0 0.016045
2730.0 0.017765
2750.0 0.019577
2770.0 0.021331
2790.0 0.022927
2810.0 0.0244
2830.0 0.025753
2850.0 0.026874
2870.0 0.027852
2890.0 0.028745
2910.0 0.029563
2930.0 0.030327
2950.0 0.031094
2970.0 0.031873
2990.0 0.03265
3010.0 0.033437
3030.0 0.034246
3050.0 0.035059
3070.0 0.035848
3090.0 0.036642
3110.0 0.037448
3130.0 0.038283
3150.0 0.039546
3170.0 0.041098
3190.0 0.043195
3210.0 0.045948
3230.0 0.049488
3250.0 0.053295
3270.0 0.055586
3290.0 0.061405
3310.0 0.077709
3330.0 0.0812
3350.0 0.081547
3370.0 0.081689
3390.0 0.08185
3410.0 0.082149
3430.0 0.082558
3450.0 0.08299
3470.0 0.083325
3490.0 0.083813
3510.0 0.08502
3530.0 0.084661
3550.0 0.081458
3570.0 0.078196
3590.0 0.078173
3610.0 0.082617
3630.0 0.079315
3650.0 0.073775
3670.0 0.068967
3690.0 0.068177
3710.0 0.071094
3730.0 0.073232
3750.0 0.074152
3770.0 0.076747
3790.0 0.079876
3810.0 0.077355
3830.0 0.07292
3850.0 0.070364
3870.0 0.069802
3890.0 0.068329
3910.0 0.066572
3930.0 0.066884
3950.0 0.069617
3970.0 0.072864
3990.0 0.075859
4010.0 0.073859
4030.0 0.071752
4050.0 0.071435
4070.0 0.071479
4090.0 0.071392
4110.0 0.070284
4130.0 0.067973
4150.0 0.065882
4170.0 0.065484
4190.0 0.062515
4210.0 0.058826
4230.0 0.054535
4250.0 0.05051
4270.0 0.04805
4290.0 0.045575
4310.0 0.045059
4330.0 0.04655
4350.0 0.047034
4370.0 0.049063
4390.0 0.051701
4410.0 0.054155
4430.0 0.05301
4450.0 0.049861
4470.0 0.047396
4490.0 0.046071
4510.0 0.045749
4530.0 0.046108
4550.0 0.046551
4570.0 0.047282
4590.0 0.048699
4610.0 0.051668
4630.0 0.053685
4650.0 0.055242
4670.0 0.054351
4690.0 0.051836
4710.0 0.049001
4730.0 0.047452
4750.0 0.046419
4770.0 0.04754
4790.0 0.047183
4810.0 0.046058
4830.0 0.047503
4850.0 0.047694
4870.0 0.049407
4890.0 0.047053
4910.0 0.044442
4930.0 0.041174
4950.0 0.038192
4970.0 0.035017
4990.0 0.03239
5010.0 0.032153
5030.0 0.032991
5050.0 0.032333
5070.0 0.033048
5090.0 0.034421
5110.0 0.034201
5130.0 0.033975
5150.0 0.03375
5170.0 0.034042
5190.0 0.0346
5210.0 0.033642
5230.0 0.033031
5250.0 0.032228
5270.0 0.031207
5290.0 0.030856
5310.0 0.030719
5330.0 0.029591
5350.0 0.029318
5370.0 0.028526
5390.0 0.02753
5410.0 0.027045
5430.0 0.02628
5450.0 0.027016
5470.0 0.027334
5490.0 0.026626
5510.0 0.027329
5530.0 0.027516
5550.0 0.028013
5570.0 0.027668
5590.0 0.026584
5610.0 0.026359
5630.0 0.026796
5650.0 0.026475
5670.0 0.025968
5690.0 0.025117
5710.0 0.025541
5730.0 0.025827
5750.0 0.024858
5770.0 0.023865
5790.0 0.02162
5810.0 0.01862
5830.0 0.020709
5850.0 0.024025
5870.0 0.025226
5890.0 0.025761
5910.0 0.025992
5930.0 0.026484
5950.0 0.026292
5970.0 0.026373
5990.0 0.026228
6010.0 0.02595
6030.0 0.02538
6050.0 0.025477
6070.0 0.026152
6090.0 0.026009
6110.0 0.025459
6130.0 0.025181
6150.0 0.024536
6170.0 0.023808
6190.0 0.023648
6210.0 0.023118
6230.0 0.023003
6250.0 0.022906
6270.0 0.022797
6290.0 0.022771
6310.0 0.022706
6330.0 0.022476
6350.0 0.022093
6370.0 0.02186
6390.0 0.022006
6410.0 0.021523
6430.0 0.02131
6450.0 0.020973
6470.0 0.020628
6490.0 0.020436
6510.0 0.020517
6530.0 0.020063
6550.0 0.019751
6570.0 0.019712
6590.0 0.019614
6610.0 0.019553
6630.0 0.0189
6650.0 0.018532
6670.0 0.018454
6690.0 0.018223
6710.0 0.017841
6730.0 0.017721
6750.0 0.017828
6770.0 0.01907
6790.0 0.022142
6810.0 0.020625
6830.0 0.017504
6850.0 0.016856
6870.0 0.016484
6890.0 0.016392
6910.0 0.016309
6930.0 0.016274
6950.0 0.015955
6970.0 0.015404
6990.0 0.015104
7010.0 0.015186
7030.0 0.014974
7050.0 0.014566
7070.0 0.014526
7090.0 0.0147
7110.0 0.014937
7130.0 0.014669
7150.0 0.014461
7170.0 0.014337
7190.0 0.0145
7210.0 0.014169
7230.0 0.013871
7250.0 0.013864
7270.0 0.013743
7290.0 0.013631
7310.0 0.013861
7330.0 0.013575
7350.0 0.013114
7370.0 0.012538
7390.0 0.012069
7410.0 0.012259
7430.0 0.012155
7450.0 0.012052
7470.0 0.011816
7490.0 0.011499
7510.0 0.011351
7530.0 0.011173
7550.0 0.011943
7570.0 0.011841
7590.0 0.010712
7610.0 0.010158
7630.0 0.010785
7650.0 0.010669
7670.0 0.010988
7690.0 0.011661
7710.0 0.011709
7730.0 0.011331
7750.0 0.012105
7770.0 0.011213
7790.0 0.010623
7810.0 0.011392
7830.0 0.011478
7850.0 0.011979
7870.0 0.011792
7890.0 0.011935
7910.0 0.011703
7930.0 0.011894
7950.0 0.012566
7970.0 0.012244
7990.0 0.011048
8010.0 0.011477
8030.0 0.011316
8050.0 0.011112
8070.0 0.010821
8090.0 0.00978
8110.0 0.0097718
8130.0 0.010672
8150.0 0.011154
8170.0 0.011332
8190.0 0.011704
8210.0 0.011418
8230.0 0.011325
8250.0 0.011309
8270.0 0.011124
8290.0 0.010903
8310.0 0.010384
8330.0 0.010333
8350.0 0.010548
8370.0 0.010624
8390.0 0.010501
8410.0 0.010362
8430.0 0.010125
8450.0 0.010059
8470.0 0.010555
8490.0 0.010651
8510.0 0.010151
8530.0 0.0098479
8550.0 0.0097691
8570.0 0.0093921
8590.0 0.0093066
8610.0 0.0094645
8630.0 0.009561
8650.0 0.0095191
8670.0 0.0094708
8690.0 0.0093327
8710.0 0.0089523
8730.0 0.0088601
8750.0 0.0086838
8770.0 0.0087052
8790.0 0.0087183
8810.0 0.0084279
8830.0 0.0084263
8850.0 0.0085861
8870.0 0.0081683
8890.0 0.0077727
8910.0 0.0075592
8930.0 0.0073065
8950.0 0.0070268
8970.0 0.0067363
8990.0 0.0066134
9010.0 0.006331
9030.0 0.0062515
9050.0 0.0062153
9070.0 0.0061811
9090.0 0.0061466
9110.0 0.0061112
9130.0 0.0060758
9150.0 0.0060409
9170.0 0.0060057
9190.0 0.0059702
9210.0 0.0059343
9230.0 0.0058983
9250.0 0.0058621
9270.0 0.0058257
9290.0 0.0057891
9310.0 0.0057537
9330.0 0.0057199
9350.0 0.005686
9370.0 0.005652
9390.0 0.0056179
9410.0 0.0055838
9430.0 0.0055496
9450.0 0.0055154
9470.0 0.0054845
9490.0 0.0054518
9510.0 0.0054158
9530.0 0.0053803
9550.0 0.0053455
9570.0 0.0053111
9590.0 0.0052768
9610.0 0.0052442
9630.0 0.0052121
9650.0 0.00518
9670.0 0.0051477
9690.0 0.0051158
9710.0 0.0050841
9730.0 0.0050523
9750.0 0.0050206
9770.0 0.0049895
9790.0 0.0049582
9810.0 0.004927
9830.0 0.0048961
9850.0 0.0048627
9870.0 0.0048282
9890.0 0.0048008
9910.0 0.0047725
9930.0 0.0047391
9950.0 0.0047095
9970.0 0.0046822
9990.0 0.0046543
10010.0 0.0046264
10030.0 0.0045983
10050.0 0.0045699
10070.0 0.0045418
10090.0 0.0045141
10110.0 0.0044862
10130.0 0.0044586
10150.0 0.0044316
10170.0 0.0044048
10190.0 0.004378
10210.0 0.0043517
10230.0 0.0043259
10250.0 0.0043
10270.0 0.0042745
10290.0 0.0042495
10310.0 0.0042246
10330.0 0.0041997
10350.0 0.0041755
10370.0 0.0041516
10390.0 0.0041275
10410.0 0.0041015
10430.0 0.0040751
10450.0 0.0040551
10470.0 0.0040337
10490.0 0.0040124
10510.0 0.0039912
10530.0 0.0039694
10550.0 0.003948
10570.0 0.0039273
10590.0 0.0039064
10610.0 0.0038857
10630.0 0.0038657
10650.0 0.0038459
10670.0 0.0038258
10690.0 0.0038064
10710.0 0.0037875
10730.0 0.0037685
10750.0 0.0037494
10770.0 0.0037314
10790.0 0.0037134
10810.0 0.0036954
10830.0 0.0036778
10850.0 0.0036609
10870.0 0.0036435
10890.0 0.0036263
10910.0 0.0036098
10930.0 0.0035932
10950.0 0.0035761
10970.0 0.0035592
10990.0 0.0035425
11010.0 0.0034753
11030.0 0.0034578
11050.0 0.0034416
11070.0 0.0034255
11090.0 0.0034084
11110.0 0.0033923
11130.0 0.0033765
11150.0 0.0033596
11170.0 0.0033424
11190.0 0.0033259
11210.0 0.0033086
11230.0 0.0032906
11250.0 0.0032734
11270.0 0.0032568
11290.0 0.0032396
11310.0 0.0032231
11330.0 0.0032086
11350.0 0.0031945
11370.0 0.0031809
11390.0 0.003169
11410.0 0.0031582
11430.0 0.0031474
11450.0 0.0031376
11470.0 0.003129
11490.0 0.0031203
11510.0 0.0031115
11530.0 0.0031033
11550.0 0.0030952
11570.0 0.0030862
11590.0 0.0030769
11610.0 0.0030678
11630.0 0.0030575
11650.0 0.0030461
11670.0 0.0030351
11690.0 0.0030235
11710.0 0.0030108
11730.0 0.0029978
11750.0 0.0029853
11770.0 0.0029718
11790.0 0.0029578
11810.0 0.0029445
11830.0 0.0029314
11850.0 0.0029173
11870.0 0.0029041
11890.0 0.002892
11910.0 0.0028798
11930.0 0.0028681
11950.0 0.0028577
11970.0 0.0028479
11990.0 0.0028383
12010.0 0.0028299
12030.0 0.0028228
12050.0 0.0028161
12070.0 0.0028099
12090.0 0.0028054
12110.0 0.0028014
12130.0 0.0027977
12150.0 0.0027949
12170.0 0.0027927
12190.0 0.0027903
12210.0 0.0027881
12230.0 0.0027861
12250.0 0.0027837
12270.0 0.0027806
12290.0 0.0027769
12310.0 0.0027726
12330.0 0.0027669
12350.0 0.0027598
12370.0 0.002752
12390.0 0.0027425
12410.0 0.0027308
12430.0 0.0027185
12450.0 0.002705
12470.0 0.0026896
12490.0 0.002673
12510.0 0.0026563
12530.0 0.002638
12550.0 0.0026184
12570.0 0.0025988
12590.0 0.002579
12610.0 0.0025578
12630.0 0.0025365
12650.0 0.0025165
12670.0 0.0024959
12690.0 0.0024751
12710.0 0.0024555
12730.0 0.0024367
12750.0 0.0024173
12770.0 0.0023993
12790.0 0.0023828
12810.0 0.0023668
12830.0 0.0023514
12850.0 0.0023379
12870.0 0.0023255
12890.0 0.0023138
12910.0 0.0023035
12930.0 0.0022948
12950.0 0.0022869
12970.0 0.0022802
12990.0 0.0022752
13010.0 0.0022713
13030.0 0.0022685
13050.0 0.0022668
13070.0 0.0022661
13090.0 0.0022662
13110.0 0.0022668
13130.0 0.0022678
13150.0 0.0022689
13170.0 0.0022696
13190.0 0.0022699
13210.0 0.0022694
13230.0 0.0022678
13250.0 0.0022648
13270.0 0.0022607
13290.0 0.0022549
13310.0 0.0022473
13330.0 0.0022382
13350.0 0.0022279
13370.0 0.0022156
13390.0 0.0022015
13410.0 0.002187
13430.0 0.002171
13450.0 0.0021534
13470.0 0.0021352
13490.0 0.0021167
13510.0 0.0020961
13530.0 0.002075
13550.0 0.0020541
13570.0 0.0020324
13590.0 0.0020095
13610.0 0.001987
13630.0 0.0019647
13650.0 0.0019413
13670.0 0.0019179
13690.0 0.0018952
13710.0 0.0018722
13730.0 0.0018482
13750.0 0.0018258
13770.0 0.0018038
13790.0 0.0017817
13810.0 0.0017601
13830.0 0.00174
13850.0 0.0017199
13870.0 0.0017002
13890.0 0.0016817
13910.0 0.0016641
13930.0 0.0016466
13950.0 0.0016298
13970.0 0.0016144
13990.0 0.0015992
14010.0 0.0015843
14030.0 0.0015705
14050.0 0.0015573
14070.0 0.0015439
14090.0 0.0015314
14110.0 0.0015197
14130.0 0.0015083
14150.0 0.0014971
14170.0 0.0014868
14190.0 0.0014768
14210.0 0.001467
14230.0 0.0014576
14250.0 0.0014487
14270.0 0.0014397
14290.0 0.0014308
14310.0 0.0014225
14330.0 0.0014142
14350.0 0.0014058
14370.0 0.0013977
14390.0 0.0013898
14410.0 0.0013817
14430.0 0.0013737
14450.0 0.0013659
14470.0 0.0013581
14490.0 0.00135
14510.0 0.0013422
14530.0 0.0013345
14550.0 0.0013266
14570.0 0.0013187
14590.0 0.0013109
14610.0 0.0013031
14630.0 0.0012949
14650.0 0.0012869
14670.0 0.0012789
14690.0 0.0012707
14710.0 0.0012623
14730.0 0.0012542
14750.0 0.0012459
14770.0 0.0012374
14790.0 0.001229
14810.0 0.0012206
14830.0 0.0012117
14850.0 0.0012028
14870.0 0.0011942
14890.0 0.0011854
14910.0 0.0011765
14930.0 0.0011679
14950.0 0.0011598
14970.0 0.0011518
14990.0 0.0011444
15010.0 0.0011376
15030.0 0.0011314
15050.0 0.0011254
15070.0 0.0011202
15090.0 0.0011152
15110.0 0.0011104
15130.0 0.0011057
15150.0 0.0011013
15170.0 0.0010967
15190.0 0.0010922
15210.0 0.0010878
15230.0 0.0010834
15250.0 0.001079
15270.0 0.0010745
15290.0 0.0010703
15310.0 0.001066
15330.0 0.0010616
15350.0 0.0010574
15370.0 0.0010532
15390.0 0.0010489
15410.0 0.0010447
15430.0 0.0010405
15450.0 0.0010364
15470.0 0.0010322
15490.0 0.0010281
15510.0 0.0010241
15530.0 0.00102
15550.0 0.001016
15570.0 0.0010121
15590.0 0.0010081
15610.0 0.0010041
15630.0 0.0010002
15650.0 0.00099637
15670.0 0.00099247
15690.0 0.00098866
15710.0 0.00098494
15730.0 0.00098115
15750.0 0.00097737
15770.0 0.00097371
15790.0 0.00097006
15810.0 0.00096632
15830.0 0.0009627
15850.0 0.00095918
15870.0 0.0009556
15890.0 0.00095203
15910.0 0.0009486
15930.0 0.00094513
15950.0 0.00094161
15970.0 0.0009382
15990.0 0.00093486
16010.0 0.00093146
16030.0 0.00092806
16050.0 0.00092483
16070.0 0.00092157
16090.0 0.00091827
16110.0 0.00091507
16130.0 0.00091195
16150.0 0.00090869
16170.0 0.00090551
16190.0 0.00090245
16210.0 0.00089937
16230.0 0.00089624
16250.0 0.00089324
16270.0 0.00089029
16290.0 0.00088725
16310.0 0.00088427
16330.0 0.00088139
16350.0 0.00087848
16370.0 0.00087549
16390.0 0.00087267
16410.0 0.00086987
16430.0 0.00086702
16450.0 0.00086421
16470.0 0.00086152
16490.0 0.00085875
16510.0 0.00085597
16530.0 0.00085329
16550.0 0.00085065
16570.0 0.00084792
16590.0 0.00084524
16610.0 0.00084271
16630.0 0.0008401
16650.0 0.00083748
16670.0 0.00083497
16690.0 0.00083247
16710.0 0.00082986
16730.0 0.00082735
16750.0 0.00082492
16770.0 0.00082243
16790.0 0.00081992
16810.0 0.00081754
16830.0 0.00081516
16850.0 0.00081272
16870.0 0.00081034
16890.0 0.00080804
16910.0 0.00080564
16930.0 0.00080323
16950.0 0.00080096
16970.0 0.00079868
16990.0 0.00079633
17010.0 0.00079406
17030.0 0.00079187
17050.0 0.00078958
17070.0 0.0007873
17090.0 0.00078512
17110.0 0.00078292
17130.0 0.00078063
17150.0 0.00077845
17170.0 0.00077633
17190.0 0.00077413
17210.0 0.00077194
17230.0 0.00076987
17250.0 0.00076773
17270.0 0.00076552
17290.0 0.00076342
17310.0 0.00076135
17330.0 0.00075921
17350.0 0.00075706
17370.0 0.00075505
17390.0 0.00075298
17410.0 0.00075086
17430.0 0.00074883
17450.0 0.00074684
17470.0 0.00074469
17490.0 0.00074262
17510.0 0.00074064
17530.0 0.00073861
17550.0 0.00073652
17570.0 0.00073453
17590.0 0.00073258
17610.0 0.00073051
17630.0 0.00072849
17650.0 0.00072655
17670.0 0.00072454
17690.0 0.00072243
17710.0 0.0007205
17730.0 0.00071855
17750.0 0.00071652
17770.0 0.00071453
17790.0 0.00071263
17810.0 0.00071062
17830.0 0.00070859
17850.0 0.00070665
17870.0 0.00070471
17890.0 0.00070267
17910.0 0.00070067
17930.0 0.00069879
17950.0 0.0006968
17970.0 0.0006948
17990.0 0.00069288
18010.0 0.00069096
18030.0 0.00068889
18050.0 0.00068693
18070.0 0.00068501
18090.0 0.00068302
18110.0 0.000681
18130.0 0.00067909
18150.0 0.00067715
18170.0 0.00067513
18190.0 0.00067316
18210.0 0.00067126
18230.0 0.00066923
18250.0 0.00066718
18270.0 0.00066526
18290.0 0.0006633
18310.0 0.00066126
18330.0 0.00065929
18350.0 0.00065738
18370.0 0.00065534
18390.0 0.00065331
18410.0 0.00065136
18430.0 0.00064938
18450.0 0.00064728
18470.0 0.00064529
18490.0 0.00064334
18510.0 0.0006413
18530.0 0.00063926
18550.0 0.00063731
18570.0 0.00063528
18590.0 0.00063317
18610.0 0.00063116
18630.0 0.00062917
18650.0 0.00062708
18670.0 0.00062498
18690.0 0.00062302
18710.0 0.00062097
18730.0 0.00061886
18750.0 0.00061683
18770.0 0.00061483
18790.0 0.00061265
18810.0 0.00061055
18830.0 0.00060853
18850.0 0.00060643
18870.0 0.00060428
18890.0 0.00060223
18910.0 0.00060018
18930.0 0.00059801
18950.0 0.00059588
18970.0 0.00059382
18990.0 0.00059168
19010.0 0.00058944
19030.0 0.00058736
19050.0 0.00058526
19070.0 0.00058306
19090.0 0.00058091
19110.0 0.00057884
19130.0 0.00057663
19150.0 0.0005744
19170.0 0.00057226
19190.0 0.0005701
19210.0 0.00056784
19230.0 0.00056562
19250.0 0.00056351
19270.0 0.00056128
19290.0 0.00055903
19310.0 0.00055687
19330.0 0.00055468
19350.0 0.00055234
19370.0 0.0005501
19390.0 0.00054792
19410.0 0.00054564
19430.0 0.00054332
19450.0 0.00054113
19470.0 0.00053889
19490.0 0.00053656
19510.0 0.00053429
19530.0 0.00053207
19550.0 0.00052971
19570.0 0.00052734
19590.0 0.0005251
19610.0 0.00052281
19630.0 0.00052043
19650.0 0.00051814
19670.0 0.00051588
19690.0 0.00051349
19710.0 0.00051111
19730.0 0.00050882
19750.0 0.00050647
19770.0 0.00050401
19790.0 0.00050168
19810.0 0.00049937
19830.0 0.00049696
19850.0 0.00049457
19870.0 0.00049229
19890.0 0.00048993
19910.0 0.00048756
19930.0 0.00048539
19950.0 0.00048335
19970.0 0.00048143
19990.0 0.00047976
20010.0 0.00047845
20030.0 0.00047736
20050.0 0.00047652
20070.0 0.00047594
20090.0 0.00047554
20110.0 0.00047522
20130.0 0.00047499
20150.0 0.0004748
20170.0 0.00047461
20190.0 0.00047438
20210.0 0.00047415
20230.0 0.00047389
20250.0 0.00047357
20270.0 0.00047321
20290.0 0.00047283
20310.0 0.00047239
20330.0 0.00047188
20350.0 0.00047138
20370.0 0.00047083
20390.0 0.00047022
20410.0 0.00046959
20430.0 0.00046897
20450.0 0.00046827
20470.0 0.00046755
20490.0 0.00046686
20510.0 0.00046617
20530.0 0.00046544
20550.0 0.00046475
20570.0 0.00046411
20590.0 0.00046345
20610.0 0.00046281
20630.0 0.00046222
20650.0 0.00046164
20670.0 0.00046103
20690.0 0.00046046
20710.0 0.0004599
20730.0 0.0004593
20750.0 0.00045866
20770.0 0.00045803
20790.0 0.00045732
20810.0 0.00045653
20830.0 0.00045569
20850.0 0.0004548
20870.0 0.00045378
20890.0 0.00045266
20910.0 0.00045154
20930.0 0.00045032
20950.0 0.00044899
20970.0 0.00044766
20990.0 0.00044631
21010.0 0.00044484
21030.0 0.00044338
21050.0 0.00044196
21070.0 0.00044052
21090.0 0.00043902
21110.0 0.00043763
21130.0 0.00043627
21150.0 0.00043488
21170.0 0.00043353
21190.0 0.00043225
21210.0 0.00043093
21230.0 0.00042959
21250.0 0.00042831
21270.0 0.00042704
21290.0 0.00042569
21310.0 0.00042434
21330.0 0.00042304
21350.0 0.00042164
21370.0 0.00042018
21390.0 0.00041875
21410.0 0.00041728
21430.0 0.00041566
21450.0 0.00041406
21470.0 0.00041248
21490.0 0.0004108
21510.0 0.00040906
21530.0 0.00040738
21550.0 0.00040566
21570.0 0.00040383
21590.0 0.00040204
21610.0 0.0004003
21630.0 0.00039848
21650.0 0.0003966
21670.0 0.00039489
21690.0 0.00039314
21710.0 0.00039135
21730.0 0.00038961
21750.0 0.00038797
21770.0 0.00038621
21790.0 0.00038447
21810.0 0.00038283
21830.0 0.00038118
21850.0 0.00037946
21870.0 0.00037781
21890.0 0.00037625
21910.0 0.0003746
21930.0 0.00037297
21950.0 0.00037144
21970.0 0.00036991
21990.0 0.0003683
22010.0 0.00036684
22030.0 0.00036546
22050.0 0.00036408
22070.0 0.00036275
22090.0 0.00036159
22110.0 0.00036046
22130.0 0.00035936
22150.0 0.00035841
22170.0 0.00035756
22190.0 0.00035673
22210.0 0.00035599
22230.0 0.0003554
22250.0 0.00035485
22270.0 0.00035433
22290.0 0.00035392
22310.0 0.00035356
22330.0 0.00035318
22350.0 0.00035285
22370.0 0.00035258
22390.0 0.0003523
22410.0 0.00035198
22430.0 0.00035173
22450.0 0.00035148
22470.0 0.00035118
22490.0 0.0003509
22510.0 0.00035064
22530.0 0.00035034
22550.0 0.00035001
22570.0 0.00034974
22590.0 0.00034947
22610.0 0.00034918
22630.0 0.00034893
22650.0 0.00034876
22670.0 0.00034858
22690.0 0.00034843
22710.0 0.00034837
22730.0 0.00034837
22750.0 0.00034837
22770.0 0.00034849
22790.0 0.0003487
22810.0 0.00034897
22830.0 0.0003493
22850.0 0.00034975
22870.0 0.00035026
22890.0 0.00035083
22910.0 0.00035149
22930.0 0.00035224
22950.0 0.00035303
22970.0 0.00035388
22990.0 0.00035483
23010.0 0.00035583
23030.0 0.00035688
23050.0 0.000358
23070.0 0.00035919
23090.0 0.00036044
23110.0 0.00036179
23130.0 0.00036322
23150.0 0.00036475
23170.0 0.00036638
23190.0 0.00036812
23210.0 0.00036997
23230.0 0.00037194
23250.0 0.00037404
23270.0 0.00037625
23290.0 0.00037858
23310.0 0.00038106
23330.0 0.00038361
23350.0 0.00038623
23370.0 0.00038896
23390.0 0.00039175
23410.0 0.00039455
23430.0 0.00039741
23450.0 0.0004003
23470.0 0.00040317
23490.0 0.00040604
23510.0 0.00040893
23530.0 0.00041182
23550.0 0.00041467
23570.0 0.00041755
23590.0 0.00042046
23610.0 0.00042337
23630.0 0.00042633
23650.0 0.00042936
23670.0 0.00043245
23690.0 0.00043561
23710.0 0.00043888
23730.0 0.00044227
23750.0 0.00044575
