#lamb flux
1010.0 7.9958e-08
1030.0 8.7218e-08
1050.0 9.5574e-08
1070.0 1.0498e-07
1090.0 1.1567e-07
1110.0 1.2663e-07
1130.0 1.3767e-07
1150.0 1.4924e-07
1170.0 1.6118e-07
1190.0 1.7251e-07
1210.0 1.8399e-07
1230.0 1.9587e-07
1250.0 2.0751e-07
1270.0 2.1882e-07
1290.0 2.3078e-07
1310.0 2.4274e-07
1330.0 2.5423e-07
1350.0 2.6584e-07
1370.0 2.7785e-07
1390.0 2.8956e-07
1410.0 3.0094e-07
1430.0 3.1285e-07
1450.0 3.2476e-07
1470.0 3.3628e-07
1490.0 3.4794e-07
1510.0 3.6025e-07
1530.0 3.7194e-07
1550.0 3.8347e-07
1570.0 3.954e-07
1590.0 4.0734e-07
1610.0 4.1876e-07
1630.0 4.3053e-07
1650.0 4.4259e-07
1670.0 4.5426e-07
1690.0 4.6577e-07
1710.0 4.777e-07
1730.0 4.8968e-07
1750.0 5.0092e-07
1770.0 5.1245e-07
1790.0 5.2419e-07
1810.0 5.355e-07
1830.0 5.4656e-07
1850.0 5.5825e-07
1870.0 5.6957e-07
1890.0 5.8042e-07
1910.0 5.9142e-07
1930.0 6.026e-07
1950.0 6.1315e-07
1970.0 6.2345e-07
1990.0 6.3405e-07
2010.0 6.4434e-07
2030.0 6.5407e-07
2050.0 6.6399e-07
2070.0 6.7403e-07
2090.0 6.8323e-07
2110.0 6.9222e-07
2130.0 7.0134e-07
2150.0 7.1003e-07
2170.0 7.1803e-07
2190.0 7.262e-07
2210.0 7.3419e-07
2230.0 7.4148e-07
2250.0 7.4847e-07
2270.0 7.5565e-07
2290.0 7.6219e-07
2310.0 7.6801e-07
2330.0 7.7385e-07
2350.0 7.7946e-07
2370.0 7.8433e-07
2390.0 7.8901e-07
2410.0 7.9394e-07
2430.0 7.9839e-07
2450.0 8.0258e-07
2470.0 8.0736e-07
2490.0 8.1327e-07
2510.0 8.2056e-07
2530.0 8.3263e-07
2550.0 8.5489e-07
2570.0 8.9265e-07
2590.0 9.521e-07
2610.0 1.0497e-06
2630.0 1.1886e-06
2650.0 1.3599e-06
2670.0 1.5648e-06
2690.0 1.7943e-06
2710.0 2.0154e-06
2730.0 2.2127e-06
2750.0 2.3895e-06
2770.0 2.5291e-06
2790.0 2.6308e-06
2810.0 2.7087e-06
2830.0 2.7733e-06
2850.0 2.8219e-06
2870.0 2.8651e-06
2890.0 2.9093e-06
2910.0 2.9528e-06
2930.0 2.9931e-06
2950.0 3.0363e-06
2970.0 3.0814e-06
2990.0 3.1239e-06
3010.0 2.4868e-05
3030.0 2.5215e-05
3050.0 2.5549e-05
3070.0 2.582e-05
3090.0 2.6043e-05
3110.0 2.6147e-05
3130.0 2.6043e-05
3150.0 2.5669e-05
3170.0 2.4903e-05
3190.0 2.3745e-05
3210.0 2.2262e-05
3230.0 2.0643e-05
3250.0 2.1415e-05
3270.0 1.9937e-05
3290.0 2.2644e-05
3310.0 1.9843e-05
3330.0 2.0158e-05
3350.0 2.103e-05
3370.0 2.2149e-05
3390.0 2.345e-05
3410.0 2.4783e-05
3430.0 2.6203e-05
3450.0 2.7702e-05
3470.0 2.9175e-05
3490.0 3.0497e-05
3510.0 3.267e-05
3530.0 3.5714e-05
3550.0 3.6526e-05
3570.0 3.6142e-05
3590.0 3.9886e-05
3610.0 3.7981e-05
3630.0 4.3309e-05
3650.0 4.6404e-05
3670.0 5.0606e-05
3690.0 4.9988e-05
3710.0 4.536e-05
3730.0 4.7645e-05
3750.0 4.777e-05
3770.0 5.0922e-05
3790.0 5.4227e-05
3810.0 6.1429e-05
3830.0 8.0886e-05
3850.0 9.9788e-05
3870.0 0.000117
3890.0 0.00012386
3910.0 0.00012291
3930.0 0.00012535
3950.0 0.00013042
3970.0 0.00011669
3990.0 7.3411e-05
4010.0 5.6102e-05
4030.0 8.5053e-05
4050.0 0.00011269
4070.0 0.00010284
4090.0 6.0708e-05
4110.0 5.3494e-05
4130.0 8.3101e-05
4150.0 9.4537e-05
4170.0 7.8252e-05
4190.0 6.544e-05
4210.0 9.0969e-05
4230.0 9.0055e-05
4250.0 8.5318e-05
4270.0 8.5333e-05
4290.0 7.6819e-05
4310.0 8.9854e-05
4330.0 0.00010484
4350.0 0.00011501
4370.0 0.00011019
4390.0 0.00011102
4410.0 0.00010102
4430.0 7.7457e-05
4450.0 5.9195e-05
4470.0 6.7702e-05
4490.0 6.9051e-05
4510.0 9.782e-05
4530.0 0.00010106
4550.0 9.9968e-05
4570.0 0.00011962
4590.0 0.0001469
4610.0 0.00019061
4630.0 0.00024183
4650.0 0.00025294
4670.0 0.00025975
4690.0 0.00026721
4710.0 0.00026244
4730.0 0.00021921
4750.0 0.00015789
4770.0 0.00013049
4790.0 0.00010904
4810.0 0.00010898
4830.0 0.00012257
4850.0 0.00013106
4870.0 0.00013814
4890.0 0.00016518
4910.0 0.00015653
4930.0 0.00016714
4950.0 0.00020362
4970.0 0.00023327
4990.0 0.00026581
5010.0 0.00026904
5030.0 0.00023678
5050.0 0.00017959
5070.0 0.00013061
5090.0 0.00011162
5110.0 0.00011426
5130.0 0.00012246
5150.0 0.00011484
5170.0 0.00011281
5190.0 0.00011506
5210.0 0.00011812
5230.0 0.00012915
5250.0 0.00013516
5270.0 0.00013808
5290.0 0.00016366
5310.0 0.00019414
5330.0 0.00020855
5350.0 0.00020501
5370.0 0.00021357
5390.0 0.00022617
5410.0 0.00021556
5430.0 0.00020232
5450.0 0.00020908
5470.0 0.00024036
5490.0 0.00029891
5510.0 0.00035859
5530.0 0.00037548
5550.0 0.000369
5570.0 0.00035576
5590.0 0.00033721
5610.0 0.00032129
5630.0 0.00032584
5650.0 0.00033789
5670.0 0.00032668
5690.0 0.00030246
5710.0 0.00029697
5730.0 0.00026797
5750.0 0.00022545
5770.0 0.00020363
5790.0 0.00022392
5810.0 0.00024438
5830.0 0.00027142
5850.0 0.00027353
5870.0 0.00026663
5890.0 0.00026223
5910.0 0.0002429
5930.0 0.00023407
5950.0 0.00024201
5970.0 0.00024957
5990.0 0.00021984
6010.0 0.00018182
6030.0 0.0001517
6050.0 0.00013711
6070.0 0.00013838
6090.0 0.00015245
6110.0 0.00016148
6130.0 0.00015597
6150.0 0.00015589
6170.0 0.00016839
6190.0 0.00018975
6210.0 0.00022354
6230.0 0.00025609
6250.0 0.00024049
6270.0 0.00020984
6290.0 0.00017791
6310.0 0.00014366
6330.0 0.00012382
6350.0 0.00012117
6370.0 0.00013148
6390.0 0.00014538
6410.0 0.00017202
6430.0 0.00021245
6450.0 0.00025584
6470.0 0.00029203
6490.0 0.00032931
6510.0 0.00035325
6530.0 0.00034176
6550.0 0.00032781
6570.0 0.00033015
6590.0 0.00032975
6610.0 0.00031989
6630.0 0.00030147
6650.0 0.00027638
6670.0 0.00027071
6690.0 0.00026442
6710.0 0.00025466
6730.0 0.00022192
6750.0 0.00019427
6770.0 0.00019623
6790.0 0.00020939
6810.0 0.00023089
6830.0 0.0002349
6850.0 0.00021828
6870.0 0.00021448
6890.0 0.00021087
6910.0 0.00019892
6930.0 0.00019615
6950.0 0.00019519
6970.0 0.00019628
6990.0 0.00020472
7010.0 0.00021955
7030.0 0.00021603
7050.0 0.00019671
7070.0 0.00018207
7090.0 0.000158
7110.0 0.00013865
7130.0 0.00014187
7150.0 0.00015279
7170.0 0.00016024
7190.0 0.0001585
7210.0 0.00015545
7230.0 0.00017273
7250.0 0.00019201
7270.0 0.000203
7290.0 0.00020543
7310.0 0.0001998
7330.0 0.00018581
7350.0 0.00017215
7370.0 0.00016166
7390.0 0.00015863
7410.0 0.00017149
7430.0 0.00019864
7450.0 0.00022023
7470.0 0.00024528
7490.0 0.00028368
7510.0 0.0002764
7530.0 0.00022984
7550.0 0.00019542
7570.0 0.00016269
7590.0 0.00013794
7610.0 0.00013396
7630.0 0.00013701
7650.0 0.00014956
7670.0 0.00017098
7690.0 0.00018797
7710.0 0.00021323
7730.0 0.00022162
7750.0 0.00022918
7770.0 0.00024511
7790.0 0.00025096
7810.0 0.00024649
7830.0 0.00022971
7850.0 0.00022627
7870.0 0.00022002
7890.0 0.00020559
7910.0 0.00018893
7930.0 0.00017519
7950.0 0.00014803
7970.0 0.00014138
7990.0 0.00014417
8010.0 0.00016864
8030.0 0.00016927
8050.0 0.00017726
8070.0 0.00017346
8090.0 0.00017367
8110.0 0.00017002
8130.0 0.00016193
8150.0 0.00015024
8170.0 0.00014889
8190.0 0.00015056
8210.0 0.00015212
8230.0 0.00013975
8250.0 0.00013032
8270.0 0.00011477
8290.0 9.5394e-05
8310.0 7.7795e-05
8330.0 5.7143e-05
8350.0 4.3731e-05
8370.0 4.0854e-05
8390.0 4.3273e-05
8410.0 4.9557e-05
8430.0 6.2813e-05
8450.0 6.9324e-05
8470.0 7.4633e-05
8490.0 8.3612e-05
8510.0 9.0182e-05
8530.0 0.00010044
8550.0 0.00011877
8570.0 0.00013397
8590.0 0.00014477
8610.0 0.00016542
8630.0 0.00019102
8650.0 0.00019977
8670.0 0.00020343
8690.0 0.0002046
8710.0 0.00019854
8730.0 0.0001904
8750.0 0.00017715
8770.0 0.00017487
8790.0 0.00016982
8810.0 0.00015681
8830.0 0.00015036
8850.0 0.00013226
8870.0 0.00012254
8890.0 0.00011199
8910.0 0.0001241
8930.0 0.00011584
8950.0 0.00011768
8970.0 0.00012021
8990.0 0.00011873
9010.0 0.00012052
9030.0 0.00011557
9050.0 0.00011521
9070.0 0.00011533
9090.0 0.00011545
9110.0 0.00011563
9130.0 0.00011575
9150.0 0.00011583
9170.0 0.00011571
9190.0 0.00011531
9210.0 0.00011672
9230.0 0.00011652
9250.0 0.00011648
9270.0 0.00011649
9290.0 0.00011654
9310.0 0.0001166
9330.0 0.00011667
9350.0 0.00011676
9370.0 0.00011685
9390.0 0.00011694
9410.0 0.00011703
9430.0 0.00011713
9450.0 0.00011722
9470.0 0.00011732
9490.0 0.00011743
9510.0 0.00011753
9530.0 0.00011763
9550.0 0.00011775
9570.0 0.00011786
9590.0 0.00011798
9610.0 0.0001181
9630.0 0.00011823
9650.0 0.00011836
9670.0 0.00011849
9690.0 0.00011863
9710.0 0.00011877
9730.0 0.00011892
9750.0 0.00011907
9770.0 0.00011923
9790.0 0.00011939
9810.0 0.00011956
9830.0 0.00011973
9850.0 0.00011991
9870.0 0.00012009
9890.0 0.00012028
9910.0 0.00012048
9930.0 0.00012067
9950.0 0.00012077
9970.0 0.00012101
9990.0 0.00012125
10010.0 0.00012147
10030.0 0.0001217
10050.0 0.00012189
10070.0 0.00012182
10090.0 0.00012215
10110.0 0.00012248
10130.0 0.00012278
10150.0 0.00012306
10170.0 0.00012333
10190.0 0.00012358
10210.0 0.00012383
10230.0 0.00012409
10250.0 0.00012433
10270.0 0.00012458
10290.0 0.00012484
10310.0 0.00012509
10330.0 0.00012533
10350.0 0.00012558
10370.0 0.00012584
10390.0 0.00012608
10410.0 0.00012632
10430.0 0.00012657
10450.0 0.00012681
10470.0 0.00012705
10490.0 0.00012729
10510.0 0.00012753
10530.0 0.00012775
10550.0 0.00012797
10570.0 0.0001282
10590.0 0.00012842
10610.0 0.00012863
10630.0 0.00012884
10650.0 0.00012905
10670.0 0.00012924
10690.0 0.00012943
10710.0 0.00012962
10730.0 0.00012979
10750.0 0.00012996
10770.0 0.00013013
10790.0 0.00013029
10810.0 0.00013043
10830.0 0.00013057
10850.0 0.00013069
10870.0 0.00013077
10890.0 0.00013078
10910.0 0.00013069
10930.0 0.00013042
10950.0 0.00012985
10970.0 0.00012893
10990.0 0.00012763
11010.0 0.00012981
11030.0 0.00012716
11050.0 0.00012411
11070.0 0.00012062
11090.0 0.00011659
11110.0 0.00011259
11130.0 0.00010861
11150.0 0.00010454
11170.0 0.00010061
11190.0 9.7069e-05
11210.0 9.3688e-05
11230.0 9.0522e-05
11250.0 8.7779e-05
11270.0 8.539e-05
11290.0 8.322e-05
11310.0 8.1352e-05
11330.0 7.9828e-05
11350.0 7.8452e-05
11370.0 7.7192e-05
11390.0 7.6055e-05
11410.0 7.496e-05
11430.0 7.378e-05
11450.0 7.2554e-05
11470.0 7.127e-05
11490.0 6.9846e-05
11510.0 6.8251e-05
11530.0 6.6608e-05
11550.0 6.4883e-05
11570.0 6.3015e-05
11590.0 6.1112e-05
11610.0 5.925e-05
11630.0 5.7328e-05
11650.0 5.5396e-05
11670.0 5.3607e-05
11690.0 5.189e-05
11710.0 5.0206e-05
11730.0 4.8636e-05
11750.0 4.7215e-05
11770.0 4.5832e-05
11790.0 4.452e-05
11810.0 4.3322e-05
11830.0 4.2187e-05
11850.0 4.1048e-05
11870.0 3.9979e-05
11890.0 3.8966e-05
11910.0 3.7937e-05
11930.0 3.6901e-05
11950.0 3.59e-05
11970.0 3.4886e-05
11990.0 3.3825e-05
12010.0 3.2786e-05
12030.0 3.177e-05
12050.0 3.0736e-05
12070.0 2.9707e-05
12090.0 2.8772e-05
12110.0 2.7877e-05
12130.0 2.7031e-05
12150.0 2.6291e-05
12170.0 2.5669e-05
12190.0 2.5138e-05
12210.0 2.4753e-05
12230.0 2.4522e-05
12250.0 2.4439e-05
12270.0 2.4519e-05
12290.0 2.4753e-05
12310.0 2.5117e-05
12330.0 2.5639e-05
12350.0 2.6285e-05
12370.0 2.7003e-05
12390.0 2.7806e-05
12410.0 2.871e-05
12430.0 2.9582e-05
12450.0 3.0436e-05
12470.0 3.129e-05
12490.0 3.2087e-05
12510.0 3.2773e-05
12530.0 3.3397e-05
12550.0 3.3936e-05
12570.0 3.4347e-05
12590.0 3.4647e-05
12610.0 3.4854e-05
12630.0 3.4948e-05
12650.0 3.4934e-05
12670.0 3.4835e-05
12690.0 3.4648e-05
12710.0 3.439e-05
12730.0 3.4072e-05
12750.0 3.3683e-05
12770.0 3.325e-05
12790.0 3.2787e-05
12810.0 3.2281e-05
12830.0 3.1731e-05
12850.0 3.1173e-05
12870.0 3.0589e-05
12890.0 2.9958e-05
12910.0 2.9302e-05
12930.0 2.8633e-05
12950.0 2.7907e-05
12970.0 2.7131e-05
12990.0 2.6355e-05
13010.0 2.555e-05
13030.0 2.4697e-05
13050.0 2.3841e-05
13070.0 2.3013e-05
13090.0 2.2162e-05
13110.0 2.1328e-05
13130.0 2.0557e-05
13150.0 1.9835e-05
13170.0 1.9144e-05
13190.0 1.8551e-05
13210.0 1.8054e-05
13230.0 1.7629e-05
13250.0 1.7292e-05
13270.0 1.7052e-05
13290.0 1.689e-05
13310.0 1.6802e-05
13330.0 1.6784e-05
13350.0 1.6819e-05
13370.0 1.6898e-05
13390.0 1.7009e-05
13410.0 1.7125e-05
13430.0 1.7247e-05
13450.0 1.7364e-05
13470.0 1.7461e-05
13490.0 1.7534e-05
13510.0 1.7586e-05
13530.0 1.7609e-05
13550.0 1.7605e-05
13570.0 1.7581e-05
13590.0 1.754e-05
13610.0 1.7487e-05
13630.0 1.743e-05
13650.0 1.7371e-05
13670.0 1.7315e-05
13690.0 1.7266e-05
13710.0 1.7223e-05
13730.0 1.7189e-05
13750.0 1.716e-05
13770.0 1.7135e-05
13790.0 1.7111e-05
13810.0 1.7083e-05
13830.0 1.7047e-05
13850.0 1.7001e-05
13870.0 1.6938e-05
13890.0 1.686e-05
13910.0 1.6764e-05
13930.0 1.6646e-05
13950.0 1.6511e-05
13970.0 1.6367e-05
13990.0 1.6211e-05
14010.0 1.6046e-05
14030.0 1.5886e-05
14050.0 1.5731e-05
14070.0 1.5578e-05
14090.0 1.5442e-05
14110.0 1.5323e-05
14130.0 1.5217e-05
14150.0 1.5127e-05
14170.0 1.5057e-05
14190.0 1.5001e-05
14210.0 1.496e-05
14230.0 1.4935e-05
14250.0 1.4924e-05
14270.0 1.4929e-05
14290.0 1.4951e-05
14310.0 1.4989e-05
14330.0 1.5045e-05
14350.0 1.5122e-05
14370.0 1.5215e-05
14390.0 1.5321e-05
14410.0 1.5448e-05
14430.0 1.559e-05
14450.0 1.5739e-05
14470.0 1.5898e-05
14490.0 1.6077e-05
14510.0 1.6259e-05
14530.0 1.6445e-05
14550.0 1.6651e-05
14570.0 1.6876e-05
14590.0 1.7111e-05
14610.0 1.7375e-05
14630.0 1.7682e-05
14650.0 1.8014e-05
14670.0 1.8378e-05
14690.0 1.8795e-05
14710.0 1.9262e-05
14730.0 1.9739e-05
14750.0 2.0261e-05
14770.0 2.0827e-05
14790.0 2.14e-05
14810.0 2.1971e-05
14830.0 2.2581e-05
14850.0 2.317e-05
14870.0 2.3714e-05
14890.0 2.4233e-05
14910.0 2.4718e-05
14930.0 2.5128e-05
14950.0 2.5466e-05
14970.0 2.5748e-05
14990.0 2.5951e-05
15010.0 2.6079e-05
15030.0 2.615e-05
15050.0 2.6171e-05
15070.0 2.6151e-05
15090.0 2.6106e-05
15110.0 2.6044e-05
15130.0 2.5972e-05
15150.0 2.5898e-05
15170.0 2.5819e-05
15190.0 2.5739e-05
15210.0 2.5661e-05
15230.0 2.5584e-05
15250.0 2.5504e-05
15270.0 2.5425e-05
15290.0 2.5351e-05
15310.0 2.5274e-05
15330.0 2.5197e-05
15350.0 2.5122e-05
15370.0 2.5049e-05
15390.0 2.4971e-05
15410.0 2.4896e-05
15430.0 2.4824e-05
15450.0 2.475e-05
15470.0 2.4674e-05
15490.0 2.4603e-05
15510.0 2.4532e-05
15530.0 2.4458e-05
15550.0 2.4386e-05
15570.0 2.4316e-05
15590.0 2.4244e-05
15610.0 2.417e-05
15630.0 2.4101e-05
15650.0 2.4031e-05
15670.0 2.3959e-05
15690.0 2.3889e-05
15710.0 2.3821e-05
15730.0 2.375e-05
15750.0 2.3679e-05
15770.0 2.3611e-05
15790.0 2.3543e-05
15810.0 2.3471e-05
15830.0 2.3402e-05
15850.0 2.3335e-05
15870.0 2.3266e-05
15890.0 2.3196e-05
15910.0 2.313e-05
15930.0 2.3062e-05
15950.0 2.2991e-05
15970.0 2.2923e-05
15990.0 2.2856e-05
16010.0 2.2787e-05
16030.0 2.2717e-05
16050.0 2.2651e-05
16070.0 2.2583e-05
16090.0 2.2514e-05
16110.0 2.2447e-05
16130.0 2.2381e-05
16150.0 2.231e-05
16170.0 2.2241e-05
16190.0 2.2174e-05
16210.0 2.2106e-05
16230.0 2.2036e-05
16250.0 2.1968e-05
16270.0 2.1902e-05
16290.0 2.1832e-05
16310.0 2.1763e-05
16330.0 2.1696e-05
16350.0 2.1627e-05
16370.0 2.1555e-05
16390.0 2.1487e-05
16410.0 2.1419e-05
16430.0 2.1349e-05
16450.0 2.1279e-05
16470.0 2.1212e-05
16490.0 2.1142e-05
16510.0 2.107e-05
16530.0 2.1001e-05
16550.0 2.0932e-05
16570.0 2.0859e-05
16590.0 2.0788e-05
16610.0 2.0719e-05
16630.0 2.0648e-05
16650.0 2.0576e-05
16670.0 2.0506e-05
16690.0 2.0436e-05
16710.0 2.0361e-05
16730.0 2.0289e-05
16750.0 2.0219e-05
16770.0 2.0146e-05
16790.0 2.0071e-05
16810.0 2e-05
16830.0 1.9929e-05
16850.0 1.9854e-05
16870.0 1.9781e-05
16890.0 1.9709e-05
16910.0 1.9634e-05
16930.0 1.9557e-05
16950.0 1.9484e-05
16970.0 1.9411e-05
16990.0 1.9334e-05
17010.0 1.9259e-05
17030.0 1.9186e-05
17050.0 1.9109e-05
17070.0 1.9033e-05
17090.0 1.8958e-05
17110.0 1.8882e-05
17130.0 1.8803e-05
17150.0 1.8726e-05
17170.0 1.8651e-05
17190.0 1.8573e-05
17210.0 1.8495e-05
17230.0 1.8419e-05
17250.0 1.8342e-05
17270.0 1.8261e-05
17290.0 1.8183e-05
17310.0 1.8106e-05
17330.0 1.8026e-05
17350.0 1.7945e-05
17370.0 1.7868e-05
17390.0 1.7789e-05
17410.0 1.7708e-05
17430.0 1.7628e-05
17450.0 1.755e-05
17470.0 1.7467e-05
17490.0 1.7386e-05
17510.0 1.7306e-05
17530.0 1.7225e-05
17550.0 1.7142e-05
17570.0 1.7062e-05
17590.0 1.6982e-05
17610.0 1.6899e-05
17630.0 1.6816e-05
17650.0 1.6736e-05
17670.0 1.6653e-05
17690.0 1.6567e-05
17710.0 1.6486e-05
17730.0 1.6405e-05
17750.0 1.632e-05
17770.0 1.6237e-05
17790.0 1.6156e-05
17810.0 1.6072e-05
17830.0 1.5986e-05
17850.0 1.5904e-05
17870.0 1.5821e-05
17890.0 1.5734e-05
17910.0 1.5649e-05
17930.0 1.5568e-05
17950.0 1.5483e-05
17970.0 1.5397e-05
17990.0 1.5314e-05
18010.0 1.523e-05
18030.0 1.5142e-05
18050.0 1.5057e-05
18070.0 1.4974e-05
18090.0 1.4888e-05
18110.0 1.4801e-05
18130.0 1.4718e-05
18150.0 1.4633e-05
18170.0 1.4546e-05
18190.0 1.4461e-05
18210.0 1.4377e-05
18230.0 1.429e-05
18250.0 1.4202e-05
18270.0 1.4118e-05
18290.0 1.4033e-05
18310.0 1.3946e-05
18330.0 1.386e-05
18350.0 1.3777e-05
18370.0 1.3689e-05
18390.0 1.3602e-05
18410.0 1.3518e-05
18430.0 1.3433e-05
18450.0 1.3344e-05
18470.0 1.3258e-05
18490.0 1.3174e-05
18510.0 1.3088e-05
18530.0 1.3001e-05
18550.0 1.2917e-05
18570.0 1.2831e-05
18590.0 1.2743e-05
18610.0 1.2658e-05
18630.0 1.2574e-05
18650.0 1.2487e-05
18670.0 1.24e-05
18690.0 1.2317e-05
18710.0 1.2231e-05
18730.0 1.2144e-05
18750.0 1.206e-05
18770.0 1.1976e-05
18790.0 1.1888e-05
18810.0 1.1802e-05
18830.0 1.1719e-05
18850.0 1.1634e-05
18870.0 1.1547e-05
18890.0 1.1464e-05
18910.0 1.1381e-05
18930.0 1.1295e-05
18950.0 1.121e-05
18970.0 1.1127e-05
18990.0 1.1042e-05
19010.0 1.0955e-05
19030.0 1.0873e-05
19050.0 1.079e-05
19070.0 1.0705e-05
19090.0 1.0621e-05
19110.0 1.054e-05
19130.0 1.0455e-05
19150.0 1.037e-05
19170.0 1.0288e-05
19190.0 1.0206e-05
19210.0 1.0121e-05
19230.0 1.0038e-05
19250.0 9.9574e-06
19270.0 9.8745e-06
19290.0 9.7911e-06
19310.0 9.7105e-06
19330.0 9.6295e-06
19350.0 9.5448e-06
19370.0 9.4632e-06
19390.0 9.3833e-06
19410.0 9.3011e-06
19430.0 9.2184e-06
19450.0 9.1394e-06
19470.0 9.0592e-06
19490.0 8.977e-06
19510.0 8.8968e-06
19530.0 8.8182e-06
19550.0 8.7364e-06
19570.0 8.6546e-06
19590.0 8.5766e-06
19610.0 8.4974e-06
19630.0 8.4165e-06
19650.0 8.3379e-06
19670.0 8.2608e-06
19690.0 8.1803e-06
19710.0 8.1008e-06
19730.0 8.0237e-06
19750.0 7.9455e-06
19770.0 7.8648e-06
19790.0 7.7875e-06
19810.0 7.7113e-06
19830.0 7.6324e-06
19850.0 7.5537e-06
19870.0 7.4767e-06
19890.0 7.3953e-06
19910.0 7.3079e-06
19930.0 7.2173e-06
19950.0 7.118e-06
19970.0 7.002e-06
19990.0 6.87e-06
20010.0 6.7281e-06
20030.0 6.566e-06
20050.0 6.3878e-06
20070.0 6.2071e-06
20090.0 6.0255e-06
20110.0 5.836e-06
20130.0 5.6601e-06
20150.0 5.5006e-06
20170.0 5.3501e-06
20190.0 5.2123e-06
20210.0 5.0948e-06
20230.0 4.9916e-06
20250.0 4.8994e-06
20270.0 4.8236e-06
20290.0 4.7628e-06
20310.0 4.713e-06
20330.0 4.6748e-06
20350.0 4.6502e-06
20370.0 4.6356e-06
20390.0 4.6313e-06
20410.0 4.6373e-06
20430.0 4.6523e-06
20450.0 4.6784e-06
20470.0 4.7149e-06
20490.0 4.7596e-06
20510.0 4.8141e-06
20530.0 4.8808e-06
20550.0 4.9551e-06
20570.0 5.0347e-06
20590.0 5.125e-06
20610.0 5.2222e-06
20630.0 5.3206e-06
20650.0 5.4233e-06
20670.0 5.5331e-06
20690.0 5.6376e-06
20710.0 5.7386e-06
20730.0 5.8398e-06
20750.0 5.937e-06
20770.0 6.0247e-06
20790.0 6.1093e-06
20810.0 6.1913e-06
20830.0 6.2665e-06
20850.0 6.3372e-06
20870.0 6.4093e-06
20890.0 6.4804e-06
20910.0 6.5482e-06
20930.0 6.6188e-06
20950.0 6.6933e-06
20970.0 6.7671e-06
20990.0 6.8412e-06
21010.0 6.92e-06
21030.0 6.9969e-06
21050.0 7.0689e-06
21070.0 7.1385e-06
21090.0 7.2045e-06
21110.0 7.2594e-06
21130.0 7.3053e-06
21150.0 7.343e-06
21170.0 7.3693e-06
21190.0 7.3839e-06
21210.0 7.3881e-06
21230.0 7.3807e-06
21250.0 7.3626e-06
21270.0 7.335e-06
21290.0 7.2969e-06
21310.0 7.2504e-06
21330.0 7.1985e-06
21350.0 7.1383e-06
21370.0 7.0715e-06
21390.0 7.002e-06
21410.0 6.9294e-06
21430.0 6.8497e-06
21450.0 6.7708e-06
21470.0 6.6935e-06
21490.0 6.6144e-06
21510.0 6.5357e-06
21530.0 6.4623e-06
21550.0 6.3916e-06
21570.0 6.3225e-06
21590.0 6.2603e-06
21610.0 6.2052e-06
21630.0 6.1553e-06
21650.0 6.1123e-06
21670.0 6.0801e-06
21690.0 6.0558e-06
21710.0 6.0404e-06
21730.0 6.035e-06
21750.0 6.0388e-06
21770.0 6.0533e-06
21790.0 6.078e-06
21810.0 6.1114e-06
21830.0 6.1543e-06
21850.0 6.2083e-06
21870.0 6.2695e-06
21890.0 6.3362e-06
21910.0 6.4129e-06
21930.0 6.4963e-06
21950.0 6.5822e-06
21970.0 6.6739e-06
21990.0 6.7742e-06
22010.0 6.8724e-06
22030.0 6.9708e-06
22050.0 7.0732e-06
22070.0 7.175e-06
22090.0 7.2705e-06
22110.0 7.3656e-06
22130.0 7.4591e-06
22150.0 7.5443e-06
22170.0 7.622e-06
22190.0 7.6955e-06
22210.0 7.7592e-06
22230.0 7.8099e-06
22250.0 7.8512e-06
22270.0 7.881e-06
22290.0 7.897e-06
22310.0 7.9e-06
22330.0 7.8887e-06
22350.0 7.8626e-06
22370.0 7.823e-06
22390.0 7.768e-06
22410.0 7.6961e-06
22430.0 7.6135e-06
22450.0 7.5187e-06
22470.0 7.4077e-06
22490.0 7.2862e-06
22510.0 7.1589e-06
22530.0 7.0169e-06
22550.0 6.8638e-06
22570.0 6.7105e-06
22590.0 6.5522e-06
22610.0 6.3844e-06
