#lamb flux
1010.0 1.7944e-06
1030.0 1.8018e-06
1050.0 1.81e-06
1070.0 1.8524e-06
1090.0 1.9691e-06
1110.0 2.0597e-06
1130.0 2.1244e-06
1150.0 2.1763e-06
1170.0 2.2141e-06
1190.0 2.2252e-06
1210.0 2.2277e-06
1230.0 2.227e-06
1250.0 2.2175e-06
1270.0 2.2006e-06
1290.0 2.1895e-06
1310.0 2.1777e-06
1330.0 2.1623e-06
1350.0 2.1516e-06
1370.0 2.1491e-06
1390.0 2.1503e-06
1410.0 2.157e-06
1430.0 2.178e-06
1450.0 2.2108e-06
1470.0 2.2547e-06
1490.0 2.3157e-06
1510.0 2.3999e-06
1530.0 2.5005e-06
1550.0 2.6237e-06
1570.0 2.7767e-06
1590.0 2.9602e-06
1610.0 3.1738e-06
1630.0 3.4301e-06
1650.0 3.7321e-06
1670.0 4.0789e-06
1690.0 4.4774e-06
1710.0 4.9397e-06
1730.0 5.4688e-06
1750.0 6.0604e-06
1770.0 6.7331e-06
1790.0 7.4926e-06
1810.0 8.3349e-06
1830.0 9.2655e-06
1850.0 1.0305e-05
1870.0 1.1437e-05
1890.0 1.2658e-05
1910.0 1.398e-05
1930.0 1.5401e-05
1950.0 1.6891e-05
1970.0 1.8452e-05
1990.0 2.0087e-05
2010.0 2.1766e-05
2030.0 2.346e-05
2050.0 2.518e-05
2070.0 2.6907e-05
2090.0 2.8581e-05
2110.0 3.0206e-05
2130.0 3.1783e-05
2150.0 3.3267e-05
2170.0 3.463e-05
2190.0 3.5901e-05
2210.0 3.7056e-05
2230.0 3.8058e-05
2250.0 3.8924e-05
2270.0 3.9682e-05
2290.0 4.0288e-05
2310.0 4.0742e-05
2330.0 4.1093e-05
2350.0 4.1336e-05
2370.0 4.1455e-05
2390.0 4.1494e-05
2410.0 4.1492e-05
2430.0 4.1423e-05
2450.0 4.1314e-05
2470.0 4.122e-05
2490.0 4.1162e-05
2510.0 4.1124e-05
2530.0 4.1224e-05
2550.0 4.1609e-05
2570.0 4.2394e-05
2590.0 4.3739e-05
2610.0 4.6108e-05
2630.0 4.9578e-05
2650.0 5.3958e-05
2670.0 5.9386e-05
2690.0 6.5799e-05
2710.0 7.246e-05
2730.0 7.9096e-05
2750.0 8.6065e-05
2770.0 9.2921e-05
2790.0 9.9484e-05
2810.0 0.0001062
2830.0 0.00011346
2850.0 0.00012054
2870.0 0.00012781
2890.0 0.00013564
2910.0 0.00014377
2930.0 0.00015187
2950.0 0.00016058
2970.0 0.00016981
2990.0 0.00017914
3010.0 0.00018878
3030.0 0.00019909
3050.0 0.00020973
3070.0 0.0002201
3090.0 0.00023068
3110.0 0.00024096
3130.0 0.00025015
3150.0 0.00025802
3170.0 0.00026429
3190.0 0.00026867
3210.0 0.00027181
3230.0 0.00027443
3250.0 0.0002775
3270.0 0.00028219
3290.0 0.0002891
3310.0 0.00029882
3330.0 0.00031106
3350.0 0.00032504
3370.0 0.00034051
3390.0 0.0003564
3410.0 0.00037258
3430.0 0.0004053
3450.0 0.0004295
3470.0 0.00045089
3490.0 0.00045778
3510.0 0.00045179
3530.0 0.00051193
3550.0 0.00060899
3570.0 0.00066955
3590.0 0.00071548
3610.0 0.0007215
3630.0 0.0006844
3650.0 0.00073555
3670.0 0.00087985
3690.0 0.00098867
3710.0 0.0010323
3730.0 0.0010567
3750.0 0.0011117
3770.0 0.0011143
3790.0 0.001068
3810.0 0.0010052
3830.0 0.00093757
3850.0 0.00093495
3870.0 0.00099206
3890.0 0.0010481
3910.0 0.0010914
3930.0 0.0011046
3950.0 0.0011787
3970.0 0.0012592
3990.0 0.0012131
4010.0 0.0010836
4030.0 0.00096239
4050.0 0.00092642
4070.0 0.00096445
4090.0 0.00097226
4110.0 0.00094495
4130.0 0.00093302
4150.0 0.00095776
4170.0 0.0010572
4190.0 0.0011449
4210.0 0.001109
4230.0 0.0010352
4250.0 0.00099541
4270.0 0.0009728
4290.0 0.00099007
4310.0 0.0010197
4330.0 0.00097112
4350.0 0.00085426
4370.0 0.00075622
4390.0 0.00068894
4410.0 0.00063598
4430.0 0.00063621
4450.0 0.00069204
4470.0 0.00074831
4490.0 0.00081438
4510.0 0.00092128
4530.0 0.0011271
4550.0 0.0013603
4570.0 0.0015004
4590.0 0.0016044
4610.0 0.0017252
4630.0 0.0017836
4650.0 0.0016615
4670.0 0.0013939
4690.0 0.0011848
4710.0 0.0011129
4730.0 0.0010758
4750.0 0.00096404
4770.0 0.00087474
4790.0 0.00090845
4810.0 0.00098724
4830.0 0.00098299
4850.0 0.00090618
4870.0 0.0008876
4890.0 0.00092601
4910.0 0.00096876
4930.0 0.00096766
4950.0 0.00094086
4970.0 0.0008962
4990.0 0.00082373
5010.0 0.00075655
5030.0 0.0007184
5050.0 0.00070076
5070.0 0.00068886
5090.0 0.00067782
5110.0 0.00067683
5130.0 0.00068725
5150.0 0.00072585
5170.0 0.00080156
5190.0 0.00089349
5210.0 0.00098998
5230.0 0.001049
5250.0 0.0010797
5270.0 0.0011352
5290.0 0.0011893
5310.0 0.0012023
5330.0 0.0011576
5350.0 0.0011056
5370.0 0.0011058
5390.0 0.0011655
5410.0 0.0012233
5430.0 0.0012434
5450.0 0.0012363
5470.0 0.0012004
5490.0 0.0011563
5510.0 0.0011339
5530.0 0.0011389
5550.0 0.001156
5570.0 0.0011673
5590.0 0.0011328
5610.0 0.0010682
5630.0 0.0010049
5650.0 0.00095515
5670.0 0.00092471
5690.0 0.00088736
5710.0 0.0008588
5730.0 0.00087144
5750.0 0.00086961
5770.0 0.00085148
5790.0 0.00085904
5810.0 0.00087889
5830.0 0.00089751
5850.0 0.00090422
5870.0 0.00088555
5890.0 0.0008477
5910.0 0.00080442
5930.0 0.00074291
5950.0 0.00069888
5970.0 0.00069789
5990.0 0.00071987
6010.0 0.00072787
6030.0 0.00070215
6050.0 0.00069162
6070.0 0.00071829
6090.0 0.00075388
6110.0 0.00076713
6130.0 0.00074091
6150.0 0.00069773
6170.0 0.00066933
6190.0 0.00064123
6210.0 0.0006112
6230.0 0.00058836
6250.0 0.00058135
6270.0 0.00059639
6290.0 0.00062338
6310.0 0.00065809
6330.0 0.00069617
6350.0 0.00072779
6370.0 0.00074195
6390.0 0.00074343
6410.0 0.00075122
6430.0 0.00076043
6450.0 0.00076299
6470.0 0.00077278
6490.0 0.00078461
6510.0 0.00078786
6530.0 0.00077943
6550.0 0.00075738
6570.0 0.00072955
6590.0 0.00070828
6610.0 0.00069255
6630.0 0.00067875
6650.0 0.0006554
6670.0 0.00062771
6690.0 0.00060699
6710.0 0.00059415
6730.0 0.0005902
6750.0 0.00058296
6770.0 0.00057126
6790.0 0.00056239
6810.0 0.00055531
6830.0 0.00055386
6850.0 0.00055428
6870.0 0.00054999
6890.0 0.00054654
6910.0 0.0005351
6930.0 0.0005226
6950.0 0.00051971
6970.0 0.00051094
6990.0 0.00049501
7010.0 0.00048743
7030.0 0.00048131
7050.0 0.00047048
7070.0 0.00045764
7090.0 0.00044851
7110.0 0.00045322
7130.0 0.00047086
7150.0 0.00049101
7170.0 0.000504
7190.0 0.00050021
7210.0 0.00049052
7230.0 0.00048415
7250.0 0.00047774
7270.0 0.0004736
7290.0 0.00046749
7310.0 0.00046449
7330.0 0.00047255
7350.0 0.0004818
7370.0 0.00048672
7390.0 0.00048195
7410.0 0.00047017
7430.0 0.00046446
7450.0 0.00045924
7470.0 0.00043689
7490.0 0.00042061
7510.0 0.00040291
7530.0 0.00038987
7550.0 0.00038811
7570.0 0.00039258
7590.0 0.00039016
7610.0 0.00038619
7630.0 0.00038444
7650.0 0.00038276
7670.0 0.00038994
7690.0 0.000404
7710.0 0.00042068
7730.0 0.00043333
7750.0 0.00044567
7770.0 0.00045175
7790.0 0.00045048
7810.0 0.00044352
7830.0 0.00044811
7850.0 0.00044733
7870.0 0.00043269
7890.0 0.00041701
7910.0 0.00040364
7930.0 0.00039009
7950.0 0.00038059
7970.0 0.00037903
7990.0 0.00038363
8010.0 0.00037931
8030.0 0.0003748
8050.0 0.00036827
8070.0 0.0003611
8090.0 0.00035364
8110.0 0.00035397
8130.0 0.00035658
8150.0 0.00035586
8170.0 0.00035314
8190.0 0.00034569
8210.0 0.00032809
8230.0 0.00030582
8250.0 0.00029208
8270.0 0.00028331
8290.0 0.00027777
8310.0 0.00027848
8330.0 0.00028281
8350.0 0.00027662
8370.0 0.00027009
8390.0 0.00027489
8410.0 0.00028732
8430.0 0.00030558
8450.0 0.00032327
8470.0 0.00033036
8490.0 0.00033588
8510.0 0.0003373
8530.0 0.00033904
8550.0 0.00034289
8570.0 0.00034455
8590.0 0.00034612
8610.0 0.00035555
8630.0 0.00035927
8650.0 0.00035162
8670.0 0.0003513
8690.0 0.00035388
8710.0 0.00035319
8730.0 0.00035007
8750.0 0.00034009
8770.0 0.00033558
8790.0 0.00033296
8810.0 0.00032885
8830.0 0.00031023
8850.0 0.00028537
8870.0 0.00026718
8890.0 0.00025684
8910.0 0.00024163
8930.0 0.00022488
8950.0 0.00021634
8970.0 0.00021514
8990.0 0.0002162
9010.0 0.00021511
9030.0 0.00021359
9050.0 0.00021219
9070.0 0.00021089
9090.0 0.00020961
9110.0 0.00020834
9130.0 0.00020707
9150.0 0.00020581
9170.0 0.00020455
9190.0 0.00020329
9210.0 0.00020203
9230.0 0.00020079
9250.0 0.00019955
9270.0 0.00019832
9290.0 0.00019709
9310.0 0.00019587
9330.0 0.00019465
9350.0 0.00019343
9370.0 0.00019222
9390.0 0.00019102
9410.0 0.00018982
9430.0 0.00018862
9450.0 0.00018739
9470.0 0.00018618
9490.0 0.00018505
9510.0 0.0001839
9530.0 0.00018276
9550.0 0.0001816
9570.0 0.00018045
9590.0 0.00017931
9610.0 0.00017818
9630.0 0.00017705
9650.0 0.00017592
9670.0 0.0001748
9690.0 0.00017369
9710.0 0.00017258
9730.0 0.00017148
9750.0 0.00017039
9770.0 0.00016929
9790.0 0.00016821
9810.0 0.00016713
9830.0 0.00016603
9850.0 0.00016482
9870.0 0.00016379
9890.0 0.00016278
9910.0 0.00016176
9930.0 0.00016071
9950.0 0.0001597
9970.0 0.00015867
9990.0 0.00015761
10010.0 0.00015644
10030.0 0.00015535
10050.0 0.00015441
10070.0 0.00015345
10090.0 0.00015249
10110.0 0.00015145
10130.0 0.0001502
10150.0 0.00014925
10170.0 0.00014835
10190.0 0.00014738
10210.0 0.00014643
10230.0 0.00014549
10250.0 0.00014449
10270.0 0.0001435
10290.0 0.00014255
10310.0 0.00014155
10330.0 0.00014053
10350.0 0.00013956
10370.0 0.0001386
10390.0 0.00013759
10410.0 0.0001366
10430.0 0.00013565
10450.0 0.00013467
10470.0 0.00013367
10490.0 0.00013271
10510.0 0.00013175
10530.0 0.00013073
10550.0 0.00012974
10570.0 0.00012879
10590.0 0.0001278
10610.0 0.0001268
10630.0 0.00012584
10650.0 0.00012487
10670.0 0.00012386
10690.0 0.00012287
10710.0 0.00012191
10730.0 0.00012091
10750.0 0.00011988
10770.0 0.00011892
10790.0 0.00011794
10810.0 0.00011692
10830.0 0.00011592
10850.0 0.00011496
10870.0 0.00011394
10890.0 0.00011292
10910.0 0.00011194
10930.0 0.00011096
10950.0 0.00010996
10970.0 0.00010901
10990.0 0.00010811
11010.0 0.00011025
11030.0 0.00010943
11050.0 0.00010864
11070.0 0.00010785
11090.0 0.000107
11110.0 0.00010619
11130.0 0.00010539
11150.0 0.00010455
11170.0 0.00010372
11190.0 0.00010293
11210.0 0.00010213
11230.0 0.00010134
11250.0 0.0001006
11270.0 9.9894e-05
11290.0 9.9197e-05
11310.0 9.8535e-05
11330.0 9.7939e-05
11350.0 9.7358e-05
11370.0 9.6793e-05
11390.0 9.6265e-05
11410.0 9.5761e-05
11430.0 9.5239e-05
11450.0 9.4729e-05
11470.0 9.4228e-05
11490.0 9.3705e-05
11510.0 9.3148e-05
11530.0 9.2588e-05
11550.0 9.2003e-05
11570.0 9.1363e-05
11590.0 9.069e-05
11610.0 9.0001e-05
11630.0 8.9249e-05
11650.0 8.8438e-05
11670.0 8.7625e-05
11690.0 8.6781e-05
11710.0 8.5881e-05
11730.0 8.4967e-05
11750.0 8.407e-05
11770.0 8.313e-05
11790.0 8.2172e-05
11810.0 8.1241e-05
11830.0 8.0315e-05
11850.0 7.9351e-05
11870.0 7.8424e-05
11890.0 7.7539e-05
11910.0 7.6645e-05
11930.0 7.5762e-05
11950.0 7.4932e-05
11970.0 7.4118e-05
11990.0 7.33e-05
12010.0 7.2531e-05
12030.0 7.1805e-05
12050.0 7.1091e-05
12070.0 7.0399e-05
12090.0 6.9776e-05
12110.0 6.9181e-05
12130.0 6.861e-05
12150.0 6.8092e-05
12170.0 6.7627e-05
12190.0 6.7186e-05
12210.0 6.68e-05
12230.0 6.6475e-05
12250.0 6.6198e-05
12270.0 6.597e-05
12290.0 6.5799e-05
12310.0 6.5677e-05
12330.0 6.5602e-05
12350.0 6.557e-05
12370.0 6.5572e-05
12390.0 6.5605e-05
12410.0 6.567e-05
12430.0 6.574e-05
12450.0 6.5815e-05
12470.0 6.5893e-05
12490.0 6.596e-05
12510.0 6.6001e-05
12530.0 6.602e-05
12550.0 6.6007e-05
12570.0 6.5948e-05
12590.0 6.5843e-05
12610.0 6.5685e-05
12630.0 6.5468e-05
12650.0 6.52e-05
12670.0 6.4872e-05
12690.0 6.4481e-05
12710.0 6.4046e-05
12730.0 6.3567e-05
12750.0 6.3022e-05
12770.0 6.2446e-05
12790.0 6.1853e-05
12810.0 6.1224e-05
12830.0 6.0562e-05
12850.0 5.9914e-05
12870.0 5.9261e-05
12890.0 5.8586e-05
12910.0 5.7919e-05
12930.0 5.7275e-05
12950.0 5.6616e-05
12970.0 5.5953e-05
12990.0 5.5326e-05
13010.0 5.4706e-05
13030.0 5.4078e-05
13050.0 5.347e-05
13070.0 5.2891e-05
13090.0 5.2306e-05
13110.0 5.1731e-05
13130.0 5.1188e-05
13150.0 5.0663e-05
13170.0 5.0136e-05
13190.0 4.9648e-05
13210.0 4.9193e-05
13230.0 4.8751e-05
13250.0 4.8329e-05
13270.0 4.7944e-05
13290.0 4.7575e-05
13310.0 4.7214e-05
13330.0 4.6877e-05
13350.0 4.6558e-05
13370.0 4.6239e-05
13390.0 4.5923e-05
13410.0 4.5623e-05
13430.0 4.532e-05
13450.0 4.5007e-05
13470.0 4.4696e-05
13490.0 4.4388e-05
13510.0 4.4057e-05
13530.0 4.3723e-05
13550.0 4.3394e-05
13570.0 4.3056e-05
13590.0 4.2704e-05
13610.0 4.2358e-05
13630.0 4.2017e-05
13650.0 4.1661e-05
13670.0 4.1305e-05
13690.0 4.096e-05
13710.0 4.061e-05
13730.0 4.0245e-05
13750.0 3.9898e-05
13770.0 3.9554e-05
13790.0 3.9199e-05
13810.0 3.8844e-05
13830.0 3.8502e-05
13850.0 3.8149e-05
13870.0 3.7787e-05
13890.0 3.7434e-05
13910.0 3.7082e-05
13930.0 3.6715e-05
13950.0 3.6346e-05
13970.0 3.5994e-05
13990.0 3.563e-05
14010.0 3.5257e-05
14030.0 3.4895e-05
14050.0 3.4535e-05
14070.0 3.4154e-05
14090.0 3.3783e-05
14110.0 3.3423e-05
14130.0 3.3058e-05
14150.0 3.2689e-05
14170.0 3.2344e-05
14190.0 3.2007e-05
14210.0 3.1668e-05
14230.0 3.1348e-05
14250.0 3.105e-05
14270.0 3.0755e-05
14290.0 3.0473e-05
14310.0 3.022e-05
14330.0 2.9982e-05
14350.0 2.9752e-05
14370.0 2.9542e-05
14390.0 2.9352e-05
14410.0 2.9166e-05
14430.0 2.899e-05
14450.0 2.8831e-05
14470.0 2.8678e-05
14490.0 2.8526e-05
14510.0 2.8385e-05
14530.0 2.8253e-05
14550.0 2.8121e-05
14570.0 2.7991e-05
14590.0 2.787e-05
14610.0 2.7749e-05
14630.0 2.7625e-05
14650.0 2.751e-05
14670.0 2.74e-05
14690.0 2.7292e-05
14710.0 2.7189e-05
14730.0 2.7102e-05
14750.0 2.7023e-05
14770.0 2.6957e-05
14790.0 2.6911e-05
14810.0 2.6886e-05
14830.0 2.6883e-05
14850.0 2.6908e-05
14870.0 2.6961e-05
14890.0 2.7041e-05
14910.0 2.7148e-05
14930.0 2.7272e-05
14950.0 2.7405e-05
14970.0 2.7544e-05
14990.0 2.7673e-05
15010.0 2.7784e-05
15030.0 2.7877e-05
15050.0 2.7948e-05
15070.0 2.7999e-05
15090.0 2.8035e-05
15110.0 2.8062e-05
15130.0 2.8081e-05
15150.0 2.8099e-05
15170.0 2.8115e-05
15190.0 2.8131e-05
15210.0 2.8147e-05
15230.0 2.8165e-05
15250.0 2.8182e-05
15270.0 2.8201e-05
15290.0 2.8222e-05
15310.0 2.8243e-05
15330.0 2.8264e-05
15350.0 2.8287e-05
15370.0 2.8311e-05
15390.0 2.8334e-05
15410.0 2.8359e-05
15430.0 2.8386e-05
15450.0 2.8412e-05
15470.0 2.8439e-05
15490.0 2.8468e-05
15510.0 2.8498e-05
15530.0 2.8528e-05
15550.0 2.8558e-05
15570.0 2.8591e-05
15590.0 2.8623e-05
15610.0 2.8655e-05
15630.0 2.8689e-05
15650.0 2.8724e-05
15670.0 2.8758e-05
15690.0 2.8794e-05
15710.0 2.8832e-05
15730.0 2.8869e-05
15750.0 2.8906e-05
15770.0 2.8945e-05
15790.0 2.8984e-05
15810.0 2.9023e-05
15830.0 2.9063e-05
15850.0 2.9105e-05
15870.0 2.9146e-05
15890.0 2.9187e-05
15910.0 2.9231e-05
15930.0 2.9274e-05
15950.0 2.9316e-05
15970.0 2.936e-05
15990.0 2.9405e-05
16010.0 2.945e-05
16030.0 2.9494e-05
16050.0 2.9541e-05
16070.0 2.9587e-05
16090.0 2.9633e-05
16110.0 2.968e-05
16130.0 2.9729e-05
16150.0 2.9775e-05
16170.0 2.9822e-05
16190.0 2.9871e-05
16210.0 2.992e-05
16230.0 2.9967e-05
16250.0 3.0017e-05
16270.0 3.0067e-05
16290.0 3.0115e-05
16310.0 3.0165e-05
16330.0 3.0215e-05
16350.0 3.0265e-05
16370.0 3.0313e-05
16390.0 3.0364e-05
16410.0 3.0415e-05
16430.0 3.0464e-05
16450.0 3.0514e-05
16470.0 3.0566e-05
16490.0 3.0616e-05
16510.0 3.0665e-05
16530.0 3.0716e-05
16550.0 3.0766e-05
16570.0 3.0815e-05
16590.0 3.0865e-05
16610.0 3.0916e-05
16630.0 3.0965e-05
16650.0 3.1014e-05
16670.0 3.1064e-05
16690.0 3.1114e-05
16710.0 3.1161e-05
16730.0 3.121e-05
16750.0 3.1259e-05
16770.0 3.1307e-05
16790.0 3.1354e-05
16810.0 3.1402e-05
16830.0 3.1449e-05
16850.0 3.1495e-05
16870.0 3.1541e-05
16890.0 3.1588e-05
16910.0 3.1633e-05
16930.0 3.1677e-05
16950.0 3.1722e-05
16970.0 3.1766e-05
16990.0 3.1808e-05
17010.0 3.1851e-05
17030.0 3.1895e-05
17050.0 3.1935e-05
17070.0 3.1976e-05
17090.0 3.2017e-05
17110.0 3.2057e-05
17130.0 3.2094e-05
17150.0 3.2132e-05
17170.0 3.2171e-05
17190.0 3.2207e-05
17210.0 3.2242e-05
17230.0 3.2278e-05
17250.0 3.2313e-05
17270.0 3.2345e-05
17290.0 3.2377e-05
17310.0 3.241e-05
17330.0 3.244e-05
17350.0 3.2469e-05
17370.0 3.2499e-05
17390.0 3.2527e-05
17410.0 3.2553e-05
17430.0 3.2579e-05
17450.0 3.2605e-05
17470.0 3.2627e-05
17490.0 3.2649e-05
17510.0 3.2671e-05
17530.0 3.2692e-05
17550.0 3.271e-05
17570.0 3.2729e-05
17590.0 3.2747e-05
17610.0 3.2762e-05
17630.0 3.2776e-05
17650.0 3.279e-05
17670.0 3.2802e-05
17690.0 3.2811e-05
17710.0 3.2822e-05
17730.0 3.2831e-05
17750.0 3.2837e-05
17770.0 3.2842e-05
17790.0 3.2848e-05
17810.0 3.285e-05
17830.0 3.2851e-05
17850.0 3.2852e-05
17870.0 3.2851e-05
17890.0 3.2847e-05
17910.0 3.2843e-05
17930.0 3.2839e-05
17950.0 3.2832e-05
17970.0 3.2823e-05
17990.0 3.2814e-05
18010.0 3.2803e-05
18030.0 3.2789e-05
18050.0 3.2774e-05
18070.0 3.2759e-05
18090.0 3.2742e-05
18110.0 3.2722e-05
18130.0 3.2702e-05
18150.0 3.2681e-05
18170.0 3.2656e-05
18190.0 3.2632e-05
18210.0 3.2606e-05
18230.0 3.2577e-05
18250.0 3.2546e-05
18270.0 3.2515e-05
18290.0 3.2483e-05
18310.0 3.2447e-05
18330.0 3.2411e-05
18350.0 3.2375e-05
18370.0 3.2335e-05
18390.0 3.2293e-05
18410.0 3.2251e-05
18430.0 3.2207e-05
18450.0 3.216e-05
18470.0 3.2113e-05
18490.0 3.2065e-05
18510.0 3.2014e-05
18530.0 3.1961e-05
18550.0 3.1909e-05
18570.0 3.1853e-05
18590.0 3.1795e-05
18610.0 3.1737e-05
18630.0 3.1677e-05
18650.0 3.1614e-05
18670.0 3.155e-05
18690.0 3.1487e-05
18710.0 3.142e-05
18730.0 3.1351e-05
18750.0 3.1282e-05
18770.0 3.1212e-05
18790.0 3.1137e-05
18810.0 3.1063e-05
18830.0 3.0988e-05
18850.0 3.091e-05
18870.0 3.0831e-05
18890.0 3.0751e-05
18910.0 3.067e-05
18930.0 3.0586e-05
18950.0 3.0501e-05
18970.0 3.0415e-05
18990.0 3.0327e-05
19010.0 3.0236e-05
19030.0 3.0147e-05
19050.0 3.0055e-05
19070.0 2.9961e-05
19090.0 2.9866e-05
19110.0 2.9772e-05
19130.0 2.9673e-05
19150.0 2.9574e-05
19170.0 2.9474e-05
19190.0 2.9373e-05
19210.0 2.9269e-05
19230.0 2.9165e-05
19250.0 2.9061e-05
19270.0 2.8954e-05
19290.0 2.8846e-05
19310.0 2.8737e-05
19330.0 2.8628e-05
19350.0 2.8515e-05
19370.0 2.8402e-05
19390.0 2.829e-05
19410.0 2.8174e-05
19430.0 2.8058e-05
19450.0 2.7942e-05
19470.0 2.7824e-05
19490.0 2.7704e-05
19510.0 2.7585e-05
19530.0 2.7464e-05
19550.0 2.7342e-05
19570.0 2.7218e-05
19590.0 2.7095e-05
19610.0 2.697e-05
19630.0 2.6844e-05
19650.0 2.6717e-05
19670.0 2.6591e-05
19690.0 2.6462e-05
19710.0 2.6332e-05
19730.0 2.6203e-05
19750.0 2.6073e-05
19770.0 2.594e-05
19790.0 2.5808e-05
19810.0 2.5676e-05
19830.0 2.5542e-05
19850.0 2.5406e-05
19870.0 2.527e-05
19890.0 2.5128e-05
19910.0 2.4979e-05
19930.0 2.4821e-05
19950.0 2.4648e-05
19970.0 2.4451e-05
19990.0 2.4226e-05
20010.0 2.3979e-05
20030.0 2.3697e-05
20050.0 2.3381e-05
20070.0 2.3047e-05
20090.0 2.2697e-05
20110.0 2.2317e-05
20130.0 2.1938e-05
20150.0 2.1565e-05
20170.0 2.1186e-05
20190.0 2.0806e-05
20210.0 2.0444e-05
20230.0 2.0089e-05
20250.0 1.9733e-05
20270.0 1.9394e-05
20290.0 1.9072e-05
20310.0 1.8756e-05
20330.0 1.8448e-05
20350.0 1.8167e-05
20370.0 1.7898e-05
20390.0 1.7638e-05
20410.0 1.7396e-05
20430.0 1.7173e-05
20450.0 1.6957e-05
20470.0 1.6755e-05
20490.0 1.6571e-05
20510.0 1.6398e-05
20530.0 1.6235e-05
20550.0 1.6085e-05
20570.0 1.5947e-05
20590.0 1.5816e-05
20610.0 1.5694e-05
20630.0 1.5581e-05
20650.0 1.5474e-05
20670.0 1.5372e-05
20690.0 1.5275e-05
20710.0 1.5182e-05
20730.0 1.509e-05
20750.0 1.5e-05
20770.0 1.491e-05
20790.0 1.4818e-05
20810.0 1.4724e-05
20830.0 1.4628e-05
20850.0 1.4527e-05
20870.0 1.4421e-05
20890.0 1.4309e-05
20910.0 1.4192e-05
20930.0 1.4069e-05
20950.0 1.3938e-05
20970.0 1.3802e-05
20990.0 1.3661e-05
21010.0 1.3511e-05
21030.0 1.3355e-05
21050.0 1.3197e-05
21070.0 1.3033e-05
21090.0 1.2862e-05
21110.0 1.2692e-05
21130.0 1.2521e-05
21150.0 1.2344e-05
21170.0 1.2168e-05
21190.0 1.1995e-05
21210.0 1.1819e-05
21230.0 1.1642e-05
21250.0 1.1471e-05
21270.0 1.1303e-05
21290.0 1.1135e-05
21310.0 1.0971e-05
21330.0 1.0814e-05
21350.0 1.0659e-05
21370.0 1.0506e-05
21390.0 1.036e-05
21410.0 1.0219e-05
21430.0 1.0077e-05
21450.0 9.9423e-06
21470.0 9.8129e-06
21490.0 9.6852e-06
21510.0 9.5601e-06
21530.0 9.4403e-06
21550.0 9.3229e-06
21570.0 9.206e-06
21590.0 9.0927e-06
21610.0 8.9826e-06
21630.0 8.873e-06
21650.0 8.7639e-06
21670.0 8.6594e-06
21690.0 8.5556e-06
21710.0 8.4518e-06
21730.0 8.3501e-06
21750.0 8.2507e-06
21770.0 8.1498e-06
21790.0 8.05e-06
21810.0 7.9522e-06
21830.0 7.8545e-06
21850.0 7.7557e-06
21870.0 7.6582e-06
21890.0 7.5621e-06
21910.0 7.4644e-06
21930.0 7.3665e-06
21950.0 7.2701e-06
21970.0 7.1729e-06
21990.0 7.0735e-06
22010.0 6.9762e-06
22030.0 6.8796e-06
22050.0 6.7817e-06
22070.0 6.6841e-06
22090.0 6.589e-06
22110.0 6.4935e-06
22130.0 6.3976e-06
22150.0 6.3042e-06
22170.0 6.2125e-06
22190.0 6.1202e-06
22210.0 6.0295e-06
22230.0 5.9426e-06
22250.0 5.8563e-06
22270.0 5.7707e-06
22290.0 5.6882e-06
22310.0 5.6078e-06
22330.0 5.5269e-06
22350.0 5.4483e-06
22370.0 5.3721e-06
22390.0 5.2964e-06
22410.0 5.2206e-06
22430.0 5.1475e-06
22450.0 5.0754e-06
22470.0 5.0026e-06
22490.0 4.9308e-06
22510.0 4.8606e-06
22530.0 4.7894e-06
22550.0 4.7178e-06
22570.0 4.648e-06
22590.0 4.5785e-06
22610.0 4.5082e-06
22630.0 4.4388e-06
22650.0 4.3715e-06
22670.0 4.3035e-06
