#lamb flux
1010.0 6.9451e-07
1030.0 7.6968e-07
1050.0 8.5616e-07
1070.0 9.5352e-07
1090.0 1.0641e-06
1110.0 1.1775e-06
1130.0 1.2917e-06
1150.0 1.4113e-06
1170.0 1.5348e-06
1190.0 1.6518e-06
1210.0 1.7704e-06
1230.0 1.8931e-06
1250.0 2.0132e-06
1270.0 2.1299e-06
1290.0 2.2533e-06
1310.0 2.3766e-06
1330.0 2.4948e-06
1350.0 2.6144e-06
1370.0 2.738e-06
1390.0 2.8584e-06
1410.0 2.9753e-06
1430.0 3.0976e-06
1450.0 3.2198e-06
1470.0 3.338e-06
1490.0 3.4575e-06
1510.0 3.5837e-06
1530.0 3.7033e-06
1550.0 3.8213e-06
1570.0 3.9433e-06
1590.0 4.0654e-06
1610.0 4.1821e-06
1630.0 4.3023e-06
1650.0 4.4256e-06
1670.0 4.5447e-06
1690.0 4.6622e-06
1710.0 4.7841e-06
1730.0 4.9065e-06
1750.0 5.0214e-06
1770.0 5.1394e-06
1790.0 5.2595e-06
1810.0 5.3753e-06
1830.0 5.4886e-06
1850.0 5.6086e-06
1870.0 5.7248e-06
1890.0 5.8364e-06
1910.0 5.9495e-06
1930.0 6.0647e-06
1950.0 6.1735e-06
1970.0 6.2798e-06
1990.0 6.3894e-06
2010.0 6.4957e-06
2030.0 6.5964e-06
2050.0 6.6991e-06
2070.0 6.803e-06
2090.0 6.8982e-06
2110.0 6.9911e-06
2130.0 7.0853e-06
2150.0 7.1749e-06
2170.0 7.2571e-06
2190.0 7.3407e-06
2210.0 7.4222e-06
2230.0 7.4961e-06
2250.0 7.5664e-06
2270.0 7.6382e-06
2290.0 7.7029e-06
2310.0 7.7595e-06
2330.0 7.8157e-06
2350.0 7.8689e-06
2370.0 7.9141e-06
2390.0 7.9573e-06
2410.0 8.0034e-06
2430.0 8.0459e-06
2450.0 8.0882e-06
2470.0 8.1404e-06
2490.0 8.2093e-06
2510.0 8.2953e-06
2530.0 8.4328e-06
2550.0 8.673e-06
2570.0 9.062e-06
2590.0 9.6549e-06
2610.0 1.0608e-05
2630.0 1.1938e-05
2650.0 1.3554e-05
2670.0 1.5456e-05
2690.0 1.755e-05
2710.0 1.9523e-05
2730.0 2.1233e-05
2750.0 2.2714e-05
2770.0 2.3819e-05
2790.0 2.4556e-05
2810.0 2.5054e-05
2830.0 2.5405e-05
2850.0 2.5606e-05
2870.0 2.5749e-05
2890.0 2.5884e-05
2910.0 2.6008e-05
2930.0 2.6108e-05
2950.0 2.6225e-05
2970.0 2.6354e-05
2990.0 2.6468e-05
3010.0 0.00034664
3030.0 0.00034731
3050.0 0.0003479
3070.0 0.00034801
3090.0 0.00034786
3110.0 0.00034698
3130.0 0.00034477
3150.0 0.00034094
3170.0 0.00033499
3190.0 0.000327
3210.0 0.00031774
3230.0 0.00030824
3250.0 0.00030485
3270.0 0.00029903
3290.0 0.0003048
3310.0 0.0003026
3330.0 0.00031023
3350.0 0.00032163
3370.0 0.00033641
3390.0 0.00035406
3410.0 0.00037264
3430.0 0.000393
3450.0 0.00041568
3470.0 0.00043956
3490.0 0.00046378
3510.0 0.00049184
3530.0 0.00052269
3550.0 0.00054867
3570.0 0.00057277
3590.0 0.00060723
3610.0 0.00063021
3630.0 0.00066833
3650.0 0.00070233
3670.0 0.00073665
3690.0 0.000756
3710.0 0.00076083
3730.0 0.0007716
3750.0 0.00077174
3770.0 0.00071519
3790.0 0.00065628
3810.0 0.00061292
3830.0 0.00055481
3850.0 0.00048253
3870.0 0.00047875
3890.0 0.00061996
3910.0 0.0008299
3930.0 0.00099314
3950.0 0.0010521
3970.0 0.0010304
3990.0 0.0010503
4010.0 0.0011874
4030.0 0.001273
4050.0 0.001233
4070.0 0.0010915
4090.0 0.00096392
4110.0 0.0010816
4130.0 0.0011711
4150.0 0.0011499
4170.0 0.0011497
4190.0 0.0011446
4210.0 0.0011876
4230.0 0.0012638
4250.0 0.0013643
4270.0 0.0013897
4290.0 0.001377
4310.0 0.0014498
4330.0 0.0015923
4350.0 0.0018071
4370.0 0.0020167
4390.0 0.0019436
4410.0 0.0016419
4430.0 0.0013668
4450.0 0.001145
4470.0 0.0011222
4490.0 0.0012277
4510.0 0.0014178
4530.0 0.0015426
4550.0 0.0017332
4570.0 0.0020677
4590.0 0.0025431
4610.0 0.0032568
4630.0 0.0039193
4650.0 0.0040307
4670.0 0.0040193
4690.0 0.0042528
4710.0 0.0043329
4730.0 0.0036514
4750.0 0.0027
4770.0 0.0022093
4790.0 0.0020798
4810.0 0.0019718
4830.0 0.0019366
4850.0 0.0022281
4870.0 0.0027491
4890.0 0.0030565
4910.0 0.002678
4930.0 0.0025039
4950.0 0.0028795
4970.0 0.0037394
4990.0 0.0046357
5010.0 0.0047662
5030.0 0.0039298
5050.0 0.0026857
5070.0 0.0019113
5090.0 0.0016687
5110.0 0.0017088
5130.0 0.0018393
5150.0 0.0018985
5170.0 0.0018845
5190.0 0.0018607
5210.0 0.0018276
5230.0 0.0018936
5250.0 0.0020307
5270.0 0.0023279
5290.0 0.0026847
5310.0 0.0029439
5330.0 0.0030416
5350.0 0.0031197
5370.0 0.0033905
5390.0 0.0035653
5410.0 0.0033746
5430.0 0.0029855
5450.0 0.0028768
5470.0 0.0033203
5490.0 0.0042135
5510.0 0.0052012
5530.0 0.0056427
5550.0 0.0055109
5570.0 0.0050996
5590.0 0.004637
5610.0 0.004344
5630.0 0.0042479
5650.0 0.0043322
5670.0 0.0042311
5690.0 0.0039743
5710.0 0.0037714
5730.0 0.0033566
5750.0 0.0025988
5770.0 0.0022913
5790.0 0.0025284
5810.0 0.0029658
5830.0 0.0033218
5850.0 0.003519
5870.0 0.0035437
5890.0 0.0033816
5910.0 0.003232
5930.0 0.0032433
5950.0 0.0034024
5970.0 0.00352
5990.0 0.0032545
6010.0 0.0027328
6030.0 0.0022689
6050.0 0.0020188
6070.0 0.0020486
6090.0 0.0022779
6110.0 0.0024088
6130.0 0.0022925
6150.0 0.0022046
6170.0 0.0024454
6190.0 0.0029167
6210.0 0.0034766
6230.0 0.003884
6250.0 0.0038269
6270.0 0.0034086
6290.0 0.0028334
6310.0 0.0022703
6330.0 0.0018547
6350.0 0.001737
6370.0 0.0019094
6390.0 0.0022057
6410.0 0.0025392
6430.0 0.0029601
6450.0 0.0034752
6470.0 0.0042525
6490.0 0.0051315
6510.0 0.005546
6530.0 0.005225
6550.0 0.0049013
6570.0 0.0048463
6590.0 0.0046806
6610.0 0.0043186
6630.0 0.003954
6650.0 0.0037056
6670.0 0.0037586
6690.0 0.0036931
6710.0 0.0033259
6730.0 0.0030106
6750.0 0.0026985
6770.0 0.0026944
6790.0 0.0028764
6810.0 0.0030364
6830.0 0.0030934
6850.0 0.0029975
6870.0 0.0028858
6890.0 0.0028153
6910.0 0.0026641
6930.0 0.0025565
6950.0 0.0025631
6970.0 0.0026364
6990.0 0.0028948
7010.0 0.0030513
7030.0 0.0028422
7050.0 0.002623
7070.0 0.0024245
7090.0 0.0021299
7110.0 0.0019734
7130.0 0.0020267
7150.0 0.0021031
7170.0 0.0021993
7190.0 0.0021863
7210.0 0.0021943
7230.0 0.0023708
7250.0 0.0027262
7270.0 0.0031096
7290.0 0.0032908
7310.0 0.0031543
7330.0 0.0028228
7350.0 0.0025595
7370.0 0.0025028
7390.0 0.0025464
7410.0 0.0026831
7430.0 0.0029758
7450.0 0.0032426
7470.0 0.0035653
7490.0 0.003821
7510.0 0.0034109
7530.0 0.0032546
7550.0 0.0028256
7570.0 0.0024113
7590.0 0.0019986
7610.0 0.0018566
7630.0 0.0019658
7650.0 0.0022655
7670.0 0.0025217
7690.0 0.0028153
7710.0 0.0031333
7730.0 0.0033045
7750.0 0.0033797
7770.0 0.003403
7790.0 0.0034005
7810.0 0.003486
7830.0 0.0033798
7850.0 0.0031323
7870.0 0.0029038
7890.0 0.0026995
7910.0 0.0024272
7930.0 0.0021284
7950.0 0.001939
7970.0 0.0019033
7990.0 0.0019759
8010.0 0.0021088
8030.0 0.0021407
8050.0 0.0021489
8070.0 0.0020987
8090.0 0.0020835
8110.0 0.0019994
8130.0 0.0018893
8150.0 0.0017811
8170.0 0.0017619
8190.0 0.0018014
8210.0 0.0017978
8230.0 0.0018078
8250.0 0.0017849
8270.0 0.0015869
8290.0 0.0012284
8310.0 0.00087263
8330.0 0.00058966
8350.0 0.00042235
8370.0 0.00047046
8390.0 0.0005303
8410.0 0.00066811
8430.0 0.00081362
8450.0 0.00089078
8470.0 0.00092213
8490.0 0.00096982
8510.0 0.0010245
8530.0 0.0011536
8550.0 0.0012954
8570.0 0.0015063
8590.0 0.0017999
8610.0 0.0020909
8630.0 0.0024377
8650.0 0.0027121
8670.0 0.0026833
8690.0 0.0025407
8710.0 0.0024136
8730.0 0.0022935
8750.0 0.0022008
8770.0 0.0021451
8790.0 0.0020668
8810.0 0.0019164
8830.0 0.0017659
8850.0 0.0015375
8870.0 0.001348
8890.0 0.0012192
8910.0 0.0012526
8930.0 0.0012222
8950.0 0.0012817
8970.0 0.0013067
8990.0 0.0013477
9010.0 0.0013995
9030.0 0.0013953
9050.0 0.0013958
9070.0 0.0013974
9090.0 0.0013987
9110.0 0.0013991
9130.0 0.0014003
9150.0 0.0014024
9170.0 0.0014039
9190.0 0.0014046
9210.0 0.0014114
9230.0 0.0014129
9250.0 0.0014153
9270.0 0.0014179
9290.0 0.0014208
9310.0 0.0014241
9330.0 0.0014276
9350.0 0.0014313
9370.0 0.0014352
9390.0 0.0014393
9410.0 0.0014436
9430.0 0.001448
9450.0 0.0014528
9470.0 0.0014577
9490.0 0.0014627
9510.0 0.0014679
9530.0 0.0014734
9550.0 0.0014789
9570.0 0.0014846
9590.0 0.0014905
9610.0 0.0014966
9630.0 0.0015027
9650.0 0.001509
9670.0 0.0015156
9690.0 0.0015222
9710.0 0.0015289
9730.0 0.0015358
9750.0 0.0015428
9770.0 0.0015498
9790.0 0.001557
9810.0 0.0015644
9830.0 0.0015718
9850.0 0.0015792
9870.0 0.0015868
9890.0 0.0015945
9910.0 0.0016022
9930.0 0.0016099
9950.0 0.0016175
9970.0 0.0016254
9990.0 0.0016333
10010.0 0.0016273
10030.0 0.0016351
10050.0 0.0016427
10070.0 0.0016492
10090.0 0.0016576
10110.0 0.0016658
10130.0 0.0016738
10150.0 0.0016819
10170.0 0.0016897
10190.0 0.0016973
10210.0 0.001705
10230.0 0.0017127
10250.0 0.0017201
10270.0 0.0017275
10290.0 0.0017349
10310.0 0.0017421
10330.0 0.001749
10350.0 0.001756
10370.0 0.0017629
10390.0 0.0017695
10410.0 0.001776
10430.0 0.0017826
10450.0 0.0017889
10470.0 0.0017948
10490.0 0.0018008
10510.0 0.0018066
10530.0 0.0018119
10550.0 0.0018172
10570.0 0.0018225
10590.0 0.0018274
10610.0 0.0018319
10630.0 0.0018365
10650.0 0.0018408
10670.0 0.0018446
10690.0 0.0018484
10710.0 0.001852
10730.0 0.0018552
10750.0 0.001858
10770.0 0.0018608
10790.0 0.0018633
10810.0 0.0018654
10830.0 0.0018672
10850.0 0.0018687
10870.0 0.0018693
10890.0 0.0018689
10910.0 0.0018671
10930.0 0.0018628
10950.0 0.0018543
10970.0 0.001841
10990.0 0.0018227
11010.0 0.0017886
11030.0 0.0017544
11050.0 0.0017148
11070.0 0.001669
11090.0 0.0016153
11110.0 0.0015611
11130.0 0.0015058
11150.0 0.0014478
11170.0 0.0013901
11190.0 0.0013363
11210.0 0.0012833
11230.0 0.0012318
11250.0 0.0011854
11270.0 0.0011436
11290.0 0.0011042
11310.0 0.0010693
11330.0 0.0010403
11350.0 0.0010141
11370.0 0.00099065
11390.0 0.00097045
11410.0 0.00095228
11430.0 0.00093421
11450.0 0.00091682
11470.0 0.00089962
11490.0 0.00088121
11510.0 0.00086089
11530.0 0.00083992
11550.0 0.00081765
11570.0 0.00079305
11590.0 0.00076742
11610.0 0.00074175
11630.0 0.00071468
11650.0 0.00068692
11670.0 0.00066082
11690.0 0.00063558
11710.0 0.00061078
11730.0 0.00058784
11750.0 0.00056742
11770.0 0.00054808
11790.0 0.00053043
11810.0 0.00051509
11830.0 0.00050133
11850.0 0.00048838
11870.0 0.00047696
11890.0 0.00046666
11910.0 0.00045661
11930.0 0.00044672
11950.0 0.00043719
11970.0 0.00042742
11990.0 0.00041697
12010.0 0.00040639
12030.0 0.00039567
12050.0 0.00038437
12070.0 0.00037272
12090.0 0.00036177
12110.0 0.00035098
12130.0 0.00034053
12150.0 0.00033115
12170.0 0.00032309
12190.0 0.00031605
12210.0 0.00031077
12230.0 0.0003074
12250.0 0.00030587
12270.0 0.00030639
12290.0 0.00030884
12310.0 0.00031296
12330.0 0.00031904
12350.0 0.0003267
12370.0 0.0003353
12390.0 0.000345
12410.0 0.00035604
12430.0 0.00036674
12450.0 0.00037731
12470.0 0.00038797
12490.0 0.00039799
12510.0 0.00040665
12530.0 0.00041456
12550.0 0.00042138
12570.0 0.00042651
12590.0 0.00043013
12610.0 0.00043241
12630.0 0.00043307
12650.0 0.00043217
12670.0 0.00042997
12690.0 0.00042645
12710.0 0.00042186
12730.0 0.00041637
12750.0 0.0004098
12770.0 0.00040262
12790.0 0.00039505
12810.0 0.00038691
12830.0 0.00037823
12850.0 0.00036959
12870.0 0.00036077
12890.0 0.00035147
12910.0 0.00034207
12930.0 0.00033275
12950.0 0.00032294
12970.0 0.00031276
12990.0 0.00030285
13010.0 0.00029281
13030.0 0.00028242
13050.0 0.00027219
13070.0 0.00026243
13090.0 0.00025253
13110.0 0.00024292
13130.0 0.00023408
13150.0 0.00022582
13170.0 0.00021797
13190.0 0.00021123
13210.0 0.00020559
13230.0 0.0002008
13250.0 0.00019708
13270.0 0.00019454
13290.0 0.00019302
13310.0 0.00019256
13330.0 0.00019311
13350.0 0.0001945
13370.0 0.00019675
13390.0 0.00019976
13410.0 0.00020306
13430.0 0.00020679
13450.0 0.00021088
13470.0 0.00021495
13490.0 0.00021885
13510.0 0.0002229
13530.0 0.00022662
13550.0 0.00022987
13570.0 0.00023281
13590.0 0.00023544
13610.0 0.00023754
13630.0 0.00023916
13650.0 0.00024048
13670.0 0.00024138
13690.0 0.00024186
13710.0 0.00024203
13730.0 0.00024188
13750.0 0.00024139
13770.0 0.00024063
13790.0 0.0002396
13810.0 0.0002383
13830.0 0.0002368
13850.0 0.00023503
13870.0 0.000233
13890.0 0.00023078
13910.0 0.00022838
13930.0 0.00022569
13950.0 0.00022283
13970.0 0.00021997
13990.0 0.00021693
14010.0 0.0002138
14030.0 0.00021076
14050.0 0.00020779
14070.0 0.00020478
14090.0 0.000202
14110.0 0.0001995
14130.0 0.00019719
14150.0 0.00019514
14170.0 0.0001935
14190.0 0.00019218
14210.0 0.0001912
14230.0 0.00019061
14250.0 0.0001904
14270.0 0.00019059
14290.0 0.00019118
14310.0 0.0001921
14330.0 0.00019334
14350.0 0.00019495
14370.0 0.00019679
14390.0 0.00019877
14410.0 0.00020102
14430.0 0.00020343
14450.0 0.00020584
14470.0 0.00020833
14490.0 0.00021102
14510.0 0.00021367
14530.0 0.00021632
14550.0 0.0002192
14570.0 0.00022228
14590.0 0.00022547
14610.0 0.00022903
14630.0 0.00023314
14650.0 0.00023758
14670.0 0.00024242
14690.0 0.00024799
14710.0 0.00025422
14730.0 0.0002606
14750.0 0.00026758
14770.0 0.00027516
14790.0 0.00028285
14810.0 0.00029051
14830.0 0.00029871
14850.0 0.00030664
14870.0 0.00031399
14890.0 0.00032103
14910.0 0.00032762
14930.0 0.00033323
14950.0 0.0003379
14970.0 0.00034182
14990.0 0.0003447
15010.0 0.00034659
15030.0 0.00034771
15050.0 0.00034816
15070.0 0.00034806
15090.0 0.00034764
15110.0 0.00034697
15130.0 0.00034617
15150.0 0.00034535
15170.0 0.00034446
15190.0 0.00034355
15210.0 0.00034267
15230.0 0.00034179
15250.0 0.00034088
15270.0 0.00033999
15290.0 0.00033915
15310.0 0.00033828
15330.0 0.0003374
15350.0 0.00033656
15370.0 0.00033573
15390.0 0.00033484
15410.0 0.00033399
15430.0 0.00033317
15450.0 0.00033232
15470.0 0.00033146
15490.0 0.00033064
15510.0 0.00032983
15530.0 0.00032898
15550.0 0.00032815
15570.0 0.00032735
15590.0 0.00032651
15610.0 0.00032566
15630.0 0.00032485
15650.0 0.00032404
15670.0 0.0003232
15690.0 0.00032238
15710.0 0.00032159
15730.0 0.00032076
15750.0 0.00031992
15770.0 0.00031912
15790.0 0.0003183
15810.0 0.00031744
15830.0 0.00031662
15850.0 0.00031582
15870.0 0.00031499
15890.0 0.00031415
15910.0 0.00031334
15930.0 0.00031252
15950.0 0.00031165
15970.0 0.00031082
15990.0 0.00031001
16010.0 0.00030915
16030.0 0.00030828
16050.0 0.00030747
16070.0 0.00030663
16090.0 0.00030576
16110.0 0.00030491
16130.0 0.00030409
16150.0 0.00030319
16170.0 0.00030231
16190.0 0.00030147
16210.0 0.0003006
16230.0 0.0002997
16250.0 0.00029883
16270.0 0.00029798
16290.0 0.00029707
16310.0 0.00029617
16330.0 0.0002953
16350.0 0.0002944
16370.0 0.00029345
16390.0 0.00029257
16410.0 0.00029167
16430.0 0.00029074
16450.0 0.00028981
16470.0 0.00028892
16490.0 0.00028798
16510.0 0.00028702
16530.0 0.0002861
16550.0 0.00028517
16570.0 0.00028419
16590.0 0.00028322
16610.0 0.0002823
16630.0 0.00028133
16650.0 0.00028035
16670.0 0.00027939
16690.0 0.00027844
16710.0 0.00027741
16730.0 0.00027642
16750.0 0.00027545
16770.0 0.00027445
16790.0 0.00027342
16810.0 0.00027243
16830.0 0.00027144
16850.0 0.0002704
16870.0 0.00026938
16890.0 0.00026838
16910.0 0.00026733
16930.0 0.00026626
16950.0 0.00026524
16970.0 0.00026421
16990.0 0.00026313
17010.0 0.00026208
17030.0 0.00026105
17050.0 0.00025997
17070.0 0.00025888
17090.0 0.00025783
17110.0 0.00025676
17130.0 0.00025564
17150.0 0.00025456
17170.0 0.00025349
17190.0 0.00025238
17210.0 0.00025127
17230.0 0.0002502
17250.0 0.00024909
17270.0 0.00024795
17290.0 0.00024684
17310.0 0.00024574
17330.0 0.0002446
17350.0 0.00024344
17370.0 0.00024235
17390.0 0.00024122
17410.0 0.00024006
17430.0 0.00023893
17450.0 0.00023781
17470.0 0.00023663
17490.0 0.00023546
17510.0 0.00023433
17530.0 0.00023317
17550.0 0.00023199
17570.0 0.00023084
17590.0 0.0002297
17610.0 0.00022851
17630.0 0.00022733
17650.0 0.00022618
17670.0 0.000225
17690.0 0.00022378
17710.0 0.00022262
17730.0 0.00022145
17750.0 0.00022025
17770.0 0.00021906
17790.0 0.0002179
17810.0 0.0002167
17830.0 0.00021548
17850.0 0.0002143
17870.0 0.00021312
17890.0 0.00021189
17910.0 0.00021068
17930.0 0.00020951
17950.0 0.00020831
17970.0 0.00020709
17990.0 0.0002059
18010.0 0.00020472
18030.0 0.00020347
18050.0 0.00020227
18070.0 0.00020108
18090.0 0.00019986
18110.0 0.00019863
18130.0 0.00019745
18150.0 0.00019625
18170.0 0.00019502
18190.0 0.00019381
18210.0 0.00019263
18230.0 0.0001914
18250.0 0.00019016
18270.0 0.00018898
18290.0 0.00018778
18310.0 0.00018655
18330.0 0.00018534
18350.0 0.00018416
18370.0 0.00018294
18390.0 0.00018172
18410.0 0.00018053
18430.0 0.00017933
18450.0 0.00017809
18470.0 0.00017689
18490.0 0.00017571
18510.0 0.0001745
18530.0 0.00017329
18550.0 0.00017212
18570.0 0.00017092
18590.0 0.00016969
18610.0 0.00016851
18630.0 0.00016733
18650.0 0.00016612
18670.0 0.00016491
18690.0 0.00016375
18710.0 0.00016256
18730.0 0.00016136
18750.0 0.00016019
18770.0 0.00015903
18790.0 0.00015781
18810.0 0.00015662
18830.0 0.00015547
18850.0 0.00015429
18870.0 0.0001531
18890.0 0.00015195
18910.0 0.0001508
18930.0 0.00014961
18950.0 0.00014844
18970.0 0.00014731
18990.0 0.00014614
19010.0 0.00014495
19030.0 0.00014381
19050.0 0.00014268
19070.0 0.00014151
19090.0 0.00014036
19110.0 0.00013925
19130.0 0.0001381
19150.0 0.00013694
19170.0 0.00013582
19190.0 0.00013469
19210.0 0.00013354
19230.0 0.0001324
19250.0 0.00013131
19270.0 0.00013018
19290.0 0.00012905
19310.0 0.00012795
19330.0 0.00012685
19350.0 0.0001257
19370.0 0.0001246
19390.0 0.00012351
19410.0 0.0001224
19430.0 0.00012129
19450.0 0.00012022
19470.0 0.00011913
19490.0 0.00011802
19510.0 0.00011694
19530.0 0.00011588
19550.0 0.00011478
19570.0 0.00011368
19590.0 0.00011263
19610.0 0.00011157
19630.0 0.00011048
19650.0 0.00010942
19670.0 0.00010839
19690.0 0.00010731
19710.0 0.00010624
19730.0 0.00010521
19750.0 0.00010416
19770.0 0.00010309
19790.0 0.00010205
19810.0 0.00010103
19830.0 9.9982e-05
19850.0 9.8935e-05
19870.0 9.7916e-05
19890.0 9.6849e-05
19910.0 9.5723e-05
19930.0 9.458e-05
19950.0 9.336e-05
19970.0 9.1979e-05
19990.0 9.0452e-05
20010.0 8.9261e-05
20030.0 8.7438e-05
20050.0 8.5446e-05
20070.0 8.3417e-05
20090.0 8.1356e-05
20110.0 7.9168e-05
20130.0 7.7083e-05
20150.0 7.5132e-05
20170.0 7.3224e-05
20190.0 7.1403e-05
20210.0 6.9774e-05
20230.0 6.8271e-05
20250.0 6.6849e-05
20270.0 6.5602e-05
20290.0 6.4526e-05
20310.0 6.3567e-05
20330.0 6.2738e-05
20350.0 6.2106e-05
20370.0 6.1607e-05
20390.0 6.1243e-05
20410.0 6.103e-05
20430.0 6.0953e-05
20450.0 6.1013e-05
20470.0 6.1211e-05
20490.0 6.1522e-05
20510.0 6.1949e-05
20530.0 6.2508e-05
20550.0 6.3154e-05
20570.0 6.3858e-05
20590.0 6.4668e-05
20610.0 6.5546e-05
20630.0 6.6438e-05
20650.0 6.7375e-05
20670.0 6.8389e-05
20690.0 6.9366e-05
20710.0 7.0325e-05
20730.0 7.1308e-05
20750.0 7.2283e-05
20770.0 7.3191e-05
20790.0 7.4102e-05
20810.0 7.5025e-05
20830.0 7.5908e-05
20850.0 7.677e-05
20870.0 7.7679e-05
20890.0 7.8598e-05
20910.0 7.9484e-05
20930.0 8.0411e-05
20950.0 8.1386e-05
20970.0 8.235e-05
20990.0 8.3313e-05
21010.0 8.4339e-05
21030.0 8.5348e-05
21050.0 8.6309e-05
21070.0 8.7261e-05
21090.0 8.8202e-05
21110.0 8.9035e-05
21130.0 8.979e-05
21150.0 9.049e-05
21170.0 9.1085e-05
21190.0 9.1558e-05
21210.0 9.1942e-05
21230.0 9.2213e-05
21250.0 9.2352e-05
21270.0 9.2374e-05
21290.0 9.2275e-05
21310.0 9.2053e-05
21330.0 9.1724e-05
21350.0 9.1273e-05
21370.0 9.07e-05
21390.0 9.0036e-05
21410.0 8.9278e-05
21430.0 8.8375e-05
21450.0 8.7407e-05
21470.0 8.6391e-05
21490.0 8.528e-05
21510.0 8.4096e-05
21530.0 8.2919e-05
21550.0 8.171e-05
21570.0 8.0444e-05
21590.0 7.9217e-05
21610.0 7.8043e-05
21630.0 7.688e-05
21650.0 7.5754e-05
21670.0 7.478e-05
21690.0 7.3886e-05
21710.0 7.3082e-05
21730.0 7.2422e-05
21750.0 7.1911e-05
21770.0 7.1519e-05
21790.0 7.1289e-05
21810.0 7.1219e-05
21830.0 7.13e-05
21850.0 7.1546e-05
21870.0 7.1939e-05
21890.0 7.2455e-05
21910.0 7.313e-05
21930.0 7.3938e-05
21950.0 7.4831e-05
21970.0 7.5842e-05
21990.0 7.7005e-05
22010.0 7.8197e-05
22030.0 7.9437e-05
22050.0 8.0774e-05
22070.0 8.2153e-05
22090.0 8.3491e-05
22110.0 8.4871e-05
22130.0 8.6278e-05
22150.0 8.7617e-05
22170.0 8.8896e-05
22190.0 9.0173e-05
22210.0 9.1363e-05
22230.0 9.2401e-05
22250.0 9.3359e-05
22270.0 9.4207e-05
22290.0 9.4887e-05
22310.0 9.5414e-05
22330.0 9.5801e-05
22350.0 9.5999e-05
22370.0 9.6014e-05
22390.0 9.5847e-05
22410.0 9.5472e-05
22430.0 9.4925e-05
22450.0 9.4203e-05
22470.0 9.327e-05
22490.0 9.2166e-05
22510.0 9.0942e-05
22530.0 8.9507e-05
22550.0 8.7889e-05
22570.0 8.6207e-05
22590.0 8.4408e-05
22610.0 8.2439e-05
22630.0 8.0402e-05
22650.0 7.8381e-05
22670.0 7.6224e-05
22690.0 7.4e-05
22710.0 7.1827e-05
22730.0 6.9652e-05
22750.0 6.7359e-05
22770.0 6.5181e-05
22790.0 6.3108e-05
22810.0 6.1032e-05
22830.0 5.9017e-05
22850.0 5.7182e-05
22870.0 5.5436e-05
22890.0 5.3756e-05
22910.0 5.2272e-05
22930.0 5.0974e-05
22950.0 4.9811e-05
22970.0 4.8821e-05
22990.0 4.8091e-05
23010.0 4.7545e-05
