#lamb flux
1010.0 0.00014221
1030.0 0.00018588
1050.0 0.00024134
1070.0 0.00031054
1090.0 0.0003973
1110.0 0.00049824
1130.0 0.00061286
1150.0 0.00074218
1170.0 0.00088789
1190.0 0.0010415
1210.0 0.0012085
1230.0 0.0013877
1250.0 0.0015704
1270.0 0.0017509
1290.0 0.0019346
1310.0 0.00211
1330.0 0.0022665
1350.0 0.0024061
1370.0 0.0025272
1390.0 0.0026193
1410.0 0.0026801
1430.0 0.0027178
1450.0 0.0027274
1470.0 0.0027069
1490.0 0.0026642
1510.0 0.0026095
1530.0 0.0025339
1550.0 0.0024431
1570.0 0.0023344
1590.0 0.0022208
1610.0 0.0021029
1630.0 0.0019893
1650.0 0.0018815
1670.0 0.0017779
1690.0 0.0016816
1710.0 0.0015957
1730.0 0.0015189
1750.0 0.0014492
1770.0 0.0013901
1790.0 0.0013408
1810.0 0.0012993
1830.0 0.0012659
1850.0 0.0012443
1870.0 0.001231
1890.0 0.0012236
1910.0 0.0012232
1930.0 0.0012295
1950.0 0.0012378
1970.0 0.0012512
1990.0 0.0012727
2010.0 0.0013003
2030.0 0.0013336
2050.0 0.0013737
2070.0 0.0014162
2090.0 0.0014608
2110.0 0.0015095
2130.0 0.0015629
2150.0 0.0016194
2170.0 0.0016781
2190.0 0.001741
2210.0 0.0018083
2230.0 0.0018788
2250.0 0.0019516
2270.0 0.0020278
2290.0 0.0021049
2310.0 0.0021822
2330.0 0.0022613
2350.0 0.0023414
2370.0 0.0024202
2390.0 0.002499
2410.0 0.0025787
2430.0 0.0026563
2450.0 0.0027321
2470.0 0.0028086
2490.0 0.0028875
2510.0 0.0029683
2530.0 0.0030593
2550.0 0.0031713
2570.0 0.0033123
2590.0 0.0034933
2610.0 0.0037501
2630.0 0.0040954
2650.0 0.0045259
2670.0 0.0050691
2690.0 0.005743
2710.0 0.0064956
2730.0 0.007296
2750.0 0.008169
2770.0 0.0090295
2790.0 0.0098059
2810.0 0.010504
2830.0 0.011122
2850.0 0.011578
2870.0 0.011924
2890.0 0.012198
2910.0 0.012404
2930.0 0.012547
2950.0 0.012672
2970.0 0.012783
2990.0 0.012868
3010.0 0.01294
3030.0 0.013017
3050.0 0.013089
3070.0 0.013141
3090.0 0.0132
3110.0 0.01327
3130.0 0.013351
3150.0 0.013275
3170.0 0.013344
3190.0 0.013529
3210.0 0.013902
3230.0 0.014616
3250.0 0.016023
3270.0 0.017956
3290.0 0.020045
3310.0 0.022354
3330.0 0.023063
3350.0 0.023353
3370.0 0.023647
3390.0 0.02393
3410.0 0.024128
3430.0 0.024258
3450.0 0.024369
3470.0 0.024512
3490.0 0.024517
3510.0 0.023943
3530.0 0.022196
3550.0 0.020977
3570.0 0.022936
3590.0 0.026499
3610.0 0.02954
3630.0 0.033444
3650.0 0.032955
3670.0 0.028999
3690.0 0.025398
3710.0 0.024188
3730.0 0.025007
3750.0 0.025674
3770.0 0.026651
3790.0 0.02774
3810.0 0.028691
3830.0 0.026797
3850.0 0.024335
3870.0 0.023197
3890.0 0.024274
3910.0 0.0249
3930.0 0.02508
3950.0 0.026573
3970.0 0.028293
3990.0 0.028744
4010.0 0.028943
4030.0 0.027952
4050.0 0.027297
4070.0 0.026839
4090.0 0.02693
4110.0 0.027038
4130.0 0.026247
4150.0 0.025133
4170.0 0.024676
4190.0 0.024036
4210.0 0.022177
4230.0 0.020291
4250.0 0.018219
4270.0 0.01646
4290.0 0.015749
4310.0 0.015405
4330.0 0.015702
4350.0 0.016943
4370.0 0.017443
4390.0 0.018939
4410.0 0.020047
4430.0 0.020203
4450.0 0.018409
4470.0 0.016562
4490.0 0.015862
4510.0 0.015295
4530.0 0.01502
4550.0 0.014725
4570.0 0.014713
4590.0 0.015008
4610.0 0.015059
4630.0 0.015083
4650.0 0.014895
4670.0 0.01453
4690.0 0.013399
4710.0 0.012381
4730.0 0.011498
4750.0 0.010952
4770.0 0.010327
4790.0 0.010224
4810.0 0.0098575
4830.0 0.0087188
4850.0 0.0095285
4870.0 0.0083038
4890.0 0.0088125
4910.0 0.009087
4930.0 0.0085654
4950.0 0.0070316
4970.0 0.0065726
4990.0 0.0061569
5010.0 0.0054886
5030.0 0.0053388
5050.0 0.0060564
5070.0 0.0061116
5090.0 0.0063668
5110.0 0.0064133
5130.0 0.0062929
5150.0 0.0064289
5170.0 0.0059866
5190.0 0.0058189
5210.0 0.0061364
5230.0 0.0057737
5250.0 0.006059
5270.0 0.0066131
5290.0 0.0065092
5310.0 0.0060514
5330.0 0.0059381
5350.0 0.005493
5370.0 0.0054564
5390.0 0.0055176
5410.0 0.0053528
5430.0 0.0056182
5450.0 0.005336
5470.0 0.0054105
5490.0 0.0063539
5510.0 0.006515
5530.0 0.0066279
5550.0 0.006635
5570.0 0.0069007
5590.0 0.0071049
5610.0 0.0071292
5630.0 0.0071166
5650.0 0.0071419
5670.0 0.0070671
5690.0 0.0070638
5710.0 0.0069195
5730.0 0.007199
5750.0 0.0070402
5770.0 0.0067421
5790.0 0.0066476
5810.0 0.0062322
5830.0 0.0065902
5850.0 0.0069261
5870.0 0.0069986
5890.0 0.0071589
5910.0 0.0076045
5930.0 0.0076602
5950.0 0.0078106
5970.0 0.0079093
5990.0 0.0081018
6010.0 0.0079818
6030.0 0.0079613
6050.0 0.007987
6070.0 0.0079199
6090.0 0.0081113
6110.0 0.008108
6130.0 0.0079174
6150.0 0.0078121
6170.0 0.0077272
6190.0 0.0072183
6210.0 0.0071662
6230.0 0.0073142
6250.0 0.0072929
6270.0 0.007274
6290.0 0.0074833
6310.0 0.0077358
6330.0 0.0077306
6350.0 0.0075747
6370.0 0.0076099
6390.0 0.0073794
6410.0 0.0073536
6430.0 0.0071621
6450.0 0.007146
6470.0 0.0071322
6490.0 0.007132
6510.0 0.0069007
6530.0 0.0068293
6550.0 0.006723
6570.0 0.00656
6590.0 0.0066835
6610.0 0.0066776
6630.0 0.0065078
6650.0 0.0062547
6670.0 0.0061387
6690.0 0.0060106
6710.0 0.0058202
6730.0 0.0057181
6750.0 0.0057405
6770.0 0.005906
6790.0 0.0060003
6810.0 0.0058505
6830.0 0.0054293
6850.0 0.0050811
6870.0 0.0049619
6890.0 0.0048969
6910.0 0.0048452
6930.0 0.0047574
6950.0 0.0047586
6970.0 0.0045718
6990.0 0.0044693
7010.0 0.0044555
7030.0 0.0044764
7050.0 0.0043504
7070.0 0.0040546
7090.0 0.0038426
7110.0 0.0038063
7130.0 0.0038149
7150.0 0.0037929
7170.0 0.0037348
7190.0 0.0036055
7210.0 0.0037357
7230.0 0.0038481
7250.0 0.0038038
7270.0 0.0037835
7290.0 0.003832
7310.0 0.0036955
7330.0 0.003563
7350.0 0.0033911
7370.0 0.0033937
7390.0 0.0034628
7410.0 0.0031921
7430.0 0.0031974
7450.0 0.0031389
7470.0 0.0032497
7490.0 0.003205
7510.0 0.0030072
7530.0 0.0030612
7550.0 0.0027158
7570.0 0.0025846
7590.0 0.0026126
7610.0 0.0027298
7630.0 0.0026969
7650.0 0.0028055
7670.0 0.0025182
7690.0 0.0023758
7710.0 0.0025039
7730.0 0.0026807
7750.0 0.002566
7770.0 0.0027185
7790.0 0.0027254
7810.0 0.0026667
7830.0 0.002855
7850.0 0.0026612
7870.0 0.0028488
7890.0 0.0027139
7910.0 0.0026662
7930.0 0.0025053
7950.0 0.0024315
7970.0 0.0025144
7990.0 0.0024635
8010.0 0.0043892
8030.0 0.004283
8050.0 0.0042142
8070.0 0.0040861
8090.0 0.0036961
8110.0 0.0036358
8130.0 0.0040446
8150.0 0.0042868
8170.0 0.0044141
8190.0 0.0046075
8210.0 0.0044317
8230.0 0.0044425
8250.0 0.0044192
8270.0 0.0044121
8290.0 0.0043522
8310.0 0.0041369
8330.0 0.0040337
8350.0 0.0041603
8370.0 0.0042165
8390.0 0.0041133
8410.0 0.0040658
8430.0 0.003926
8450.0 0.0038389
8470.0 0.0041164
8490.0 0.0041395
8510.0 0.0038833
8530.0 0.0038487
8550.0 0.0038011
8570.0 0.003549
8590.0 0.0035828
8610.0 0.0036112
8630.0 0.003738
8650.0 0.0037492
8670.0 0.003763
8690.0 0.0036868
8710.0 0.0035852
8730.0 0.003465
8750.0 0.0033963
8770.0 0.0033838
8790.0 0.003511
8810.0 0.0033171
8830.0 0.0032769
8850.0 0.0034393
8870.0 0.003259
8890.0 0.0030232
8910.0 0.0029755
8930.0 0.0029898
8950.0 0.0027805
8970.0 0.0026655
8990.0 0.0026051
9010.0 0.0024545
9030.0 0.0024178
9050.0 0.0024059
9070.0 0.0023953
9090.0 0.0023845
9110.0 0.0023735
9130.0 0.0023625
9150.0 0.0023515
9170.0 0.0023404
9190.0 0.0023292
9210.0 0.0023179
9230.0 0.0023065
9250.0 0.002295
9270.0 0.0022835
9290.0 0.0022719
9310.0 0.0022614
9330.0 0.0022527
9350.0 0.0022439
9370.0 0.002235
9390.0 0.0022261
9410.0 0.0022171
9430.0 0.002208
9450.0 0.0021989
9470.0 0.0021908
9490.0 0.0021821
9510.0 0.0021722
9530.0 0.0021623
9550.0 0.0021527
9570.0 0.0021432
9590.0 0.0021336
9610.0 0.0021258
9630.0 0.0021183
9650.0 0.0021106
9670.0 0.0021027
9690.0 0.002095
9710.0 0.0020872
9730.0 0.0020792
9750.0 0.0020713
9770.0 0.0020635
9790.0 0.0020555
9810.0 0.0020474
9830.0 0.0020395
9850.0 0.0020304
9870.0 0.0020203
9890.0 0.0020135
9910.0 0.0020063
9930.0 0.0019975
9950.0 0.0019896
9970.0 0.0019821
9990.0 0.0019743
10010.0 0.0019665
10030.0 0.0019585
10050.0 0.0019505
10070.0 0.0019425
10090.0 0.0019344
10110.0 0.0019264
10130.0 0.0019184
10150.0 0.0019104
10170.0 0.0019024
10190.0 0.0018944
10210.0 0.0018865
10230.0 0.0018786
10250.0 0.0018708
10270.0 0.0018629
10290.0 0.0018552
10310.0 0.0018474
10330.0 0.0018397
10350.0 0.001832
10370.0 0.0018244
10390.0 0.0018166
10410.0 0.0018077
10430.0 0.0017984
10450.0 0.0017924
10470.0 0.0017857
10490.0 0.0017788
10510.0 0.0017719
10530.0 0.0017646
10550.0 0.0017574
10570.0 0.0017504
10590.0 0.0017433
10610.0 0.0017362
10630.0 0.0017292
10650.0 0.0017224
10670.0 0.0017153
10690.0 0.0017085
10710.0 0.0017018
10730.0 0.001695
10750.0 0.0016882
10770.0 0.0016817
10790.0 0.0016752
10810.0 0.0016686
10830.0 0.0016621
10850.0 0.0016559
10870.0 0.0016494
10890.0 0.0016429
10910.0 0.0016366
10930.0 0.0016301
10950.0 0.0016232
10970.0 0.0016161
10990.0 0.0016089
11010.0 0.0015723
11030.0 0.001564
11050.0 0.0015549
11070.0 0.0015451
11090.0 0.001534
11110.0 0.0015229
11130.0 0.0015116
11150.0 0.0014996
11170.0 0.0014873
11190.0 0.0014752
11210.0 0.0014627
11230.0 0.0014499
11250.0 0.0014374
11270.0 0.0014251
11290.0 0.0014125
11310.0 0.0014002
11330.0 0.0013887
11350.0 0.0013774
11370.0 0.0013663
11390.0 0.0013559
11410.0 0.0013461
11430.0 0.0013362
11450.0 0.0013269
11470.0 0.0013181
11490.0 0.0013093
11510.0 0.0013005
11530.0 0.0012921
11550.0 0.0012837
11570.0 0.0012751
11590.0 0.0012664
11610.0 0.0012578
11630.0 0.0012488
11650.0 0.0012394
11670.0 0.0012302
11690.0 0.0012208
11710.0 0.001211
11730.0 0.0012011
11750.0 0.0011914
11770.0 0.0011813
11790.0 0.001171
11810.0 0.001161
11830.0 0.0011509
11850.0 0.0011406
11870.0 0.0011306
11890.0 0.0011211
11910.0 0.0011116
11930.0 0.0011023
11950.0 0.0010936
11970.0 0.0010852
11990.0 0.001077
12010.0 0.0010694
12030.0 0.0010624
12050.0 0.0010557
12070.0 0.0010494
12090.0 0.0010438
12110.0 0.0010386
12130.0 0.0010337
12150.0 0.0010293
12170.0 0.0010253
12190.0 0.0010215
12210.0 0.0010178
12230.0 0.0010144
12250.0 0.001011
12270.0 0.0010075
12290.0 0.0010039
12310.0 0.0010002
12330.0 0.00099615
12350.0 0.00099173
12370.0 0.00098703
12390.0 0.00098188
12410.0 0.00097606
12430.0 0.00096999
12450.0 0.00096353
12470.0 0.00095645
12490.0 0.00094894
12510.0 0.00094131
12530.0 0.00093315
12550.0 0.00092447
12570.0 0.00091575
12590.0 0.00090688
12610.0 0.0008975
12630.0 0.00088798
12650.0 0.00087882
12670.0 0.0008694
12690.0 0.00085984
12710.0 0.00085063
12730.0 0.00084164
12750.0 0.00083236
12770.0 0.00082351
12790.0 0.00081514
12810.0 0.0008069
12830.0 0.0007988
12850.0 0.00079139
12870.0 0.00078439
12890.0 0.00077757
12910.0 0.00077129
12930.0 0.00076563
12950.0 0.00076027
12970.0 0.00075536
12990.0 0.00075118
13010.0 0.00074752
13030.0 0.00074431
13050.0 0.00074168
13070.0 0.0007396
13090.0 0.00073791
13110.0 0.00073662
13130.0 0.00073568
13150.0 0.00073497
13170.0 0.00073442
13190.0 0.00073393
13210.0 0.00073341
13230.0 0.00073278
13250.0 0.00073196
13270.0 0.00073093
13290.0 0.00072961
13310.0 0.00072791
13330.0 0.0007259
13350.0 0.00072357
13370.0 0.0007208
13390.0 0.00071758
13410.0 0.00071418
13430.0 0.00071037
13450.0 0.00070609
13470.0 0.00070158
13490.0 0.0006969
13510.0 0.00069161
13530.0 0.00068611
13550.0 0.00068059
13570.0 0.0006748
13590.0 0.00066866
13610.0 0.00066256
13630.0 0.00065652
13650.0 0.00065012
13670.0 0.00064368
13690.0 0.00063742
13710.0 0.00063102
13730.0 0.00062428
13750.0 0.00061794
13770.0 0.00061167
13790.0 0.00060523
13810.0 0.00059889
13830.0 0.00059291
13850.0 0.00058682
13870.0 0.00058073
13890.0 0.00057499
13910.0 0.00056945
13930.0 0.00056383
13950.0 0.00055843
13970.0 0.0005535
13990.0 0.00054859
14010.0 0.0005438
14030.0 0.00053938
14050.0 0.00053521
14070.0 0.000531
14090.0 0.00052714
14110.0 0.00052361
14130.0 0.00052018
14150.0 0.00051687
14170.0 0.00051393
14190.0 0.00051116
14210.0 0.00050841
14230.0 0.00050587
14250.0 0.00050353
14270.0 0.00050117
14290.0 0.00049887
14310.0 0.00049678
14330.0 0.00049475
14350.0 0.0004927
14370.0 0.00049077
14390.0 0.00048898
14410.0 0.00048715
14430.0 0.00048537
14450.0 0.00048373
14470.0 0.00048212
14490.0 0.00048045
14510.0 0.0004789
14530.0 0.00047744
14550.0 0.00047592
14570.0 0.0004744
14590.0 0.00047296
14610.0 0.00047148
14630.0 0.0004699
14650.0 0.00046837
14670.0 0.00046685
14690.0 0.00046524
14710.0 0.00046356
14730.0 0.00046197
14750.0 0.0004603
14770.0 0.00045853
14790.0 0.00045677
14810.0 0.00045501
14830.0 0.00045304
14850.0 0.00045106
14870.0 0.00044912
14890.0 0.0004471
14910.0 0.00044501
14930.0 0.00044304
14950.0 0.00044121
14970.0 0.0004394
14990.0 0.0004378
15010.0 0.00043647
15030.0 0.00043531
15050.0 0.00043428
15070.0 0.0004335
15090.0 0.00043283
15110.0 0.0004322
15130.0 0.00043163
15150.0 0.00043112
15170.0 0.00043058
15190.0 0.00043002
15210.0 0.00042949
15230.0 0.00042896
15250.0 0.00042838
15270.0 0.0004278
15290.0 0.00042727
15310.0 0.00042669
15330.0 0.00042609
15350.0 0.00042551
15370.0 0.00042494
15390.0 0.00042429
15410.0 0.00042366
15430.0 0.00042306
15450.0 0.00042242
15470.0 0.00042174
15490.0 0.00042111
15510.0 0.00042046
15530.0 0.00041977
15550.0 0.00041909
15570.0 0.00041842
15590.0 0.0004177
15610.0 0.00041696
15630.0 0.00041625
15650.0 0.00041553
15670.0 0.00041477
15690.0 0.00041401
15710.0 0.00041329
15730.0 0.0004125
15750.0 0.0004117
15770.0 0.00041092
15790.0 0.00041013
15810.0 0.00040927
15830.0 0.00040845
15850.0 0.00040764
15870.0 0.00040679
15890.0 0.00040592
15910.0 0.00040508
15930.0 0.00040421
15950.0 0.00040329
15970.0 0.0004024
15990.0 0.00040151
16010.0 0.00040058
16030.0 0.00039962
16050.0 0.00039872
16070.0 0.00039778
16090.0 0.00039681
16110.0 0.00039585
16130.0 0.00039491
16150.0 0.00039389
16170.0 0.00039288
16190.0 0.0003919
16210.0 0.00039089
16230.0 0.00038984
16250.0 0.00038882
16270.0 0.00038781
16290.0 0.00038675
16310.0 0.00038568
16330.0 0.00038464
16350.0 0.00038357
16370.0 0.00038244
16390.0 0.00038137
16410.0 0.00038029
16430.0 0.00037917
16450.0 0.00037805
16470.0 0.00037697
16490.0 0.00037583
16510.0 0.00037467
16530.0 0.00037354
16550.0 0.00037241
16570.0 0.00037122
16590.0 0.00037005
16610.0 0.00036891
16630.0 0.00036773
16650.0 0.00036654
16670.0 0.00036537
16690.0 0.0003642
16710.0 0.00036296
16730.0 0.00036175
16750.0 0.00036056
16770.0 0.00035934
16790.0 0.00035809
16810.0 0.00035689
16830.0 0.00035567
16850.0 0.00035442
16870.0 0.00035318
16890.0 0.00035196
16910.0 0.00035069
16930.0 0.00034941
16950.0 0.00034818
16970.0 0.00034692
16990.0 0.00034564
17010.0 0.00034437
17030.0 0.00034313
17050.0 0.00034184
17070.0 0.00034055
17090.0 0.00033929
17110.0 0.00033801
17130.0 0.00033668
17150.0 0.0003354
17170.0 0.00033414
17190.0 0.00033283
17210.0 0.00033152
17230.0 0.00033026
17250.0 0.00032896
17270.0 0.00032762
17290.0 0.00032633
17310.0 0.00032504
17330.0 0.00032371
17350.0 0.00032238
17370.0 0.00032111
17390.0 0.0003198
17410.0 0.00031847
17430.0 0.00031717
17450.0 0.00031589
17470.0 0.00031453
17490.0 0.00031321
17510.0 0.00031192
17530.0 0.0003106
17550.0 0.00030926
17570.0 0.00030796
17590.0 0.00030667
17610.0 0.00030534
17630.0 0.00030401
17650.0 0.00030272
17670.0 0.00030141
17690.0 0.00030005
17710.0 0.00029876
17730.0 0.00029746
17750.0 0.00029613
17770.0 0.00029482
17790.0 0.00029354
17810.0 0.00029222
17830.0 0.00029089
17850.0 0.00028959
17870.0 0.0002883
17890.0 0.00028697
17910.0 0.00028565
17930.0 0.00028438
17950.0 0.00028308
17970.0 0.00028176
17990.0 0.00028049
18010.0 0.00027921
18030.0 0.00027787
18050.0 0.00027658
18070.0 0.00027531
18090.0 0.00027401
18110.0 0.0002727
18130.0 0.00027144
18150.0 0.00027017
18170.0 0.00026887
18190.0 0.00026759
18210.0 0.00026634
18230.0 0.00026504
18250.0 0.00026374
18270.0 0.0002625
18290.0 0.00026124
18310.0 0.00025995
18330.0 0.00025869
18350.0 0.00025746
18370.0 0.00025618
18390.0 0.00025491
18410.0 0.00025368
18430.0 0.00025243
18450.0 0.00025115
18470.0 0.00024991
18490.0 0.00024869
18510.0 0.00024744
18530.0 0.00024619
18550.0 0.00024498
18570.0 0.00024375
18590.0 0.00024249
18610.0 0.00024127
18630.0 0.00024006
18650.0 0.00023882
18670.0 0.00023759
18690.0 0.0002364
18710.0 0.00023519
18730.0 0.00023396
18750.0 0.00023277
18770.0 0.00023159
18790.0 0.00023035
18810.0 0.00022914
18830.0 0.00022797
18850.0 0.00022677
18870.0 0.00022556
18890.0 0.00022439
18910.0 0.00022323
18930.0 0.00022203
18950.0 0.00022084
18970.0 0.00021969
18990.0 0.00021851
19010.0 0.0002173
19030.0 0.00021616
19050.0 0.00021501
19070.0 0.00021383
19090.0 0.00021267
19110.0 0.00021155
19130.0 0.00021038
19150.0 0.00020921
19170.0 0.00020808
19190.0 0.00020694
19210.0 0.00020577
19230.0 0.00020463
19250.0 0.00020352
19270.0 0.00020238
19290.0 0.00020124
19310.0 0.00020013
19330.0 0.00019902
19350.0 0.00019786
19370.0 0.00019674
19390.0 0.00019565
19410.0 0.00019452
19430.0 0.00019339
19450.0 0.00019231
19470.0 0.00019121
19490.0 0.00019008
19510.0 0.00018899
19530.0 0.00018791
19550.0 0.00018679
19570.0 0.00018567
19590.0 0.00018461
19610.0 0.00018352
19630.0 0.00018241
19650.0 0.00018134
19670.0 0.00018028
19690.0 0.00017918
19710.0 0.00017809
19730.0 0.00017703
19750.0 0.00017596
19770.0 0.00017485
19790.0 0.00017379
19810.0 0.00017275
19830.0 0.00017167
19850.0 0.0001706
19870.0 0.00016958
19890.0 0.00016853
19910.0 0.00016748
19930.0 0.00016649
19950.0 0.00016556
19970.0 0.00016467
19990.0 0.00016386
20010.0 0.00016317
20030.0 0.00016257
20050.0 0.00016204
20070.0 0.00016162
20090.0 0.00016127
20110.0 0.00016095
20130.0 0.00016069
20150.0 0.00016045
20170.0 0.00016022
20190.0 0.00016
20210.0 0.00015979
20230.0 0.00015958
20250.0 0.00015936
20270.0 0.00015914
20290.0 0.00015891
20310.0 0.00015868
20330.0 0.00015842
20350.0 0.00015816
20370.0 0.0001579
20390.0 0.00015761
20410.0 0.00015731
20430.0 0.00015701
20450.0 0.00015669
20470.0 0.00015635
20490.0 0.00015603
20510.0 0.00015569
20530.0 0.00015535
20550.0 0.00015502
20570.0 0.0001547
20590.0 0.00015437
20610.0 0.00015405
20630.0 0.00015375
20650.0 0.00015344
20670.0 0.00015314
20690.0 0.00015284
20710.0 0.00015254
20730.0 0.00015224
20750.0 0.00015192
20770.0 0.0001516
20790.0 0.00015125
20810.0 0.00015088
20830.0 0.00015049
20850.0 0.00015008
20870.0 0.00014962
20890.0 0.00014913
20910.0 0.00014863
20930.0 0.00014809
20950.0 0.00014751
20970.0 0.00014693
20990.0 0.00014633
21010.0 0.00014569
21030.0 0.00014504
21050.0 0.0001444
21070.0 0.00014375
21090.0 0.00014307
21110.0 0.00014242
21130.0 0.00014178
21150.0 0.00014112
21170.0 0.00014046
21190.0 0.00013983
21210.0 0.00013917
21230.0 0.00013851
21250.0 0.00013785
21270.0 0.0001372
21290.0 0.00013651
21310.0 0.00013581
21330.0 0.00013512
21350.0 0.0001344
21370.0 0.00013365
21390.0 0.00013291
21410.0 0.00013215
21430.0 0.00013134
21450.0 0.00013052
21470.0 0.00012971
21490.0 0.00012886
21510.0 0.00012798
21530.0 0.00012711
21550.0 0.00012622
21570.0 0.00012529
21590.0 0.00012437
21610.0 0.00012345
21630.0 0.0001225
21650.0 0.00012153
21670.0 0.00012059
21690.0 0.00011964
21710.0 0.00011867
21730.0 0.0001177
21750.0 0.00011676
21770.0 0.00011576
21790.0 0.00011477
21810.0 0.0001138
21830.0 0.00011281
21850.0 0.0001118
21870.0 0.0001108
21890.0 0.00010982
21910.0 0.0001088
21930.0 0.00010779
21950.0 0.00010679
21970.0 0.00010579
21990.0 0.00010476
22010.0 0.00010376
22030.0 0.00010279
22050.0 0.0001018
22070.0 0.00010078
22090.0 9.971e-05
22110.0 9.8643e-05
22130.0 9.7581e-05
22150.0 9.6559e-05
22170.0 9.5567e-05
22190.0 9.4572e-05
22210.0 9.3603e-05
22230.0 9.2679e-05
22250.0 9.1761e-05
22270.0 9.0851e-05
22290.0 8.997e-05
22310.0 8.9103e-05
22330.0 8.8227e-05
22350.0 8.7364e-05
22370.0 8.6514e-05
22390.0 8.5656e-05
22410.0 8.4788e-05
22430.0 8.393e-05
22450.0 8.3066e-05
22470.0 8.2185e-05
22490.0 8.1298e-05
22510.0 8.0411e-05
22530.0 7.9503e-05
22550.0 7.8581e-05
22570.0 7.766e-05
22590.0 7.6729e-05
22610.0 7.5782e-05
22630.0 7.4831e-05
22650.0 7.3883e-05
22670.0 7.2921e-05
22690.0 7.1952e-05
22710.0 7.0988e-05
22730.0 7.0022e-05
22750.0 6.9043e-05
22770.0 6.8072e-05
22790.0 6.7105e-05
22810.0 6.6132e-05
22830.0 6.5158e-05
22850.0 6.4188e-05
22870.0 6.3215e-05
22890.0 6.2234e-05
22910.0 6.1251e-05
22930.0 6.0262e-05
22950.0 5.9262e-05
22970.0 5.825e-05
22990.0 5.7229e-05
23010.0 5.6191e-05
23030.0 5.5135e-05
23050.0 5.4061e-05
23070.0 5.2969e-05
23090.0 5.1854e-05
23110.0 5.1717e-05
23130.0 5.1654e-05
23150.0 5.1594e-05
23170.0 5.1537e-05
23190.0 5.1485e-05
23210.0 5.1436e-05
23230.0 5.1392e-05
23250.0 5.1353e-05
23270.0 5.1318e-05
23290.0 5.1287e-05
23310.0 5.1263e-05
