#lamb flux
1010.0 2.1262e-05
1030.0 2.3657e-05
1050.0 2.6902e-05
1070.0 3.1755e-05
1090.0 3.8121e-05
1110.0 4.4951e-05
1130.0 5.2091e-05
1150.0 5.9734e-05
1170.0 6.7655e-05
1190.0 7.506e-05
1210.0 8.2207e-05
1230.0 8.9005e-05
1250.0 9.5297e-05
1270.0 0.00010041
1290.0 0.0001047
1310.0 0.00010769
1330.0 0.00010909
1350.0 0.00010928
1370.0 0.00010842
1390.0 0.00010634
1410.0 0.00010324
1430.0 9.9636e-05
1450.0 9.55e-05
1470.0 9.0915e-05
1490.0 8.6224e-05
1510.0 8.1677e-05
1530.0 7.7081e-05
1550.0 7.2676e-05
1570.0 6.8633e-05
1590.0 6.4924e-05
1610.0 6.1681e-05
1630.0 5.9637e-05
1650.0 5.8166e-05
1670.0 5.7224e-05
1690.0 5.688e-05
1710.0 5.7239e-05
1730.0 5.828e-05
1750.0 5.9933e-05
1770.0 6.2375e-05
1790.0 6.5635e-05
1810.0 6.9668e-05
1830.0 7.4537e-05
1850.0 8.0413e-05
1870.0 8.7182e-05
1890.0 9.4841e-05
1910.0 0.0001035
1930.0 0.00011318
1950.0 0.00012368
1970.0 0.00013503
1990.0 0.00014729
2010.0 0.00016023
2030.0 0.00017368
2050.0 0.00018769
2070.0 0.00020214
2090.0 0.00021657
2110.0 0.000231
2130.0 0.00024542
2150.0 0.00025948
2170.0 0.00027293
2190.0 0.00028599
2210.0 0.00029846
2230.0 0.00031003
2250.0 0.00032084
2270.0 0.00033111
2290.0 0.00034049
2310.0 0.00034898
2330.0 0.00035701
2350.0 0.00036459
2370.0 0.00037162
2390.0 0.00037857
2410.0 0.000386
2430.0 0.00039384
2450.0 0.00040251
2470.0 0.00041289
2490.0 0.00042544
2510.0 0.0004396
2530.0 0.00045671
2550.0 0.00047821
2570.0 0.00050464
2590.0 0.00053745
2610.0 0.00058236
2630.0 0.00064004
2650.0 0.00070842
2670.0 0.00078952
2690.0 0.00088232
2710.0 0.00097731
2730.0 0.0010705
2750.0 0.0011651
2770.0 0.001256
2790.0 0.0013425
2810.0 0.0014308
2830.0 0.0015267
2850.0 0.001624
2870.0 0.0017271
2890.0 0.0018398
2910.0 0.0019585
2930.0 0.0020784
2950.0 0.0022066
2970.0 0.0023418
2990.0 0.0024781
3010.0 0.002618
3030.0 0.0027661
3050.0 0.0029181
3070.0 0.0030663
3090.0 0.0032171
3110.0 0.0033644
3130.0 0.003498
3150.0 0.0036147
3170.0 0.0037105
3190.0 0.0037799
3210.0 0.0038302
3230.0 0.0038656
3250.0 0.0038855
3270.0 0.0038999
3290.0 0.0039175
3310.0 0.0039443
3330.0 0.0039812
3350.0 0.0040251
3370.0 0.0040729
3390.0 0.0040886
3410.0 0.0041144
3430.0 0.0042387
3450.0 0.0043264
3470.0 0.0043435
3490.0 0.0045087
3510.0 0.0051716
3530.0 0.0063672
3550.0 0.007212
3570.0 0.0078865
3590.0 0.0088768
3610.0 0.0088465
3630.0 0.0081528
3650.0 0.0085619
3670.0 0.010103
3690.0 0.011336
3710.0 0.011749
3730.0 0.011845
3750.0 0.012652
3770.0 0.012721
3790.0 0.01212
3810.0 0.011425
3830.0 0.010831
3850.0 0.010903
3870.0 0.011386
3890.0 0.011734
3910.0 0.011907
3930.0 0.011914
3950.0 0.01275
3970.0 0.013736
3990.0 0.013355
4010.0 0.011915
4030.0 0.010735
4050.0 0.010645
4070.0 0.011127
4090.0 0.011029
4110.0 0.010614
4130.0 0.010554
4150.0 0.011047
4170.0 0.012208
4190.0 0.012826
4210.0 0.012084
4230.0 0.011116
4250.0 0.010521
4270.0 0.010148
4290.0 0.010214
4310.0 0.010488
4330.0 0.0099792
4350.0 0.008844
4370.0 0.0078891
4390.0 0.0072248
4410.0 0.0068599
4430.0 0.0070562
4450.0 0.0077644
4470.0 0.0085276
4490.0 0.0091192
4510.0 0.01009
4530.0 0.011859
4550.0 0.013715
4570.0 0.014849
4590.0 0.015824
4610.0 0.016677
4630.0 0.016819
4650.0 0.015609
4670.0 0.013588
4690.0 0.012009
4710.0 0.011482
4730.0 0.01097
4750.0 0.0096544
4770.0 0.0086351
4790.0 0.0088978
4810.0 0.0096449
4830.0 0.0094298
4850.0 0.0083799
4870.0 0.0085731
4890.0 0.008793
4910.0 0.008919
4930.0 0.008774
4950.0 0.0086095
4970.0 0.0082282
4990.0 0.0076002
5010.0 0.0071545
5030.0 0.0070305
5050.0 0.0069926
5070.0 0.0069811
5090.0 0.0069708
5110.0 0.0069622
5130.0 0.007104
5150.0 0.0074554
5170.0 0.0081165
5190.0 0.0089877
5210.0 0.0096905
5230.0 0.010111
5250.0 0.010347
5270.0 0.010683
5290.0 0.010947
5310.0 0.010891
5330.0 0.010514
5350.0 0.010145
5370.0 0.010159
5390.0 0.010425
5410.0 0.010619
5430.0 0.010534
5450.0 0.010382
5470.0 0.010153
5490.0 0.00992
5510.0 0.0098345
5530.0 0.0098836
5550.0 0.0099876
5570.0 0.010026
5590.0 0.0097599
5610.0 0.0092714
5630.0 0.0088157
5650.0 0.0084063
5670.0 0.008121
5690.0 0.0077956
5710.0 0.0076063
5730.0 0.0076416
5750.0 0.0075631
5770.0 0.0074288
5790.0 0.0074985
5810.0 0.0077172
5830.0 0.007885
5850.0 0.0079326
5870.0 0.0077362
5890.0 0.007427
5910.0 0.0071522
5930.0 0.0067929
5950.0 0.0064893
5970.0 0.0065252
5990.0 0.006684
6010.0 0.0066809
6030.0 0.0064518
6050.0 0.0064101
6070.0 0.0066332
6090.0 0.0068603
6110.0 0.0068418
6130.0 0.0065003
6150.0 0.0060529
6170.0 0.0058052
6190.0 0.0056709
6210.0 0.0055522
6230.0 0.0054412
6250.0 0.0054375
6270.0 0.0055921
6290.0 0.005816
6310.0 0.0060685
6330.0 0.0063345
6350.0 0.0064965
6370.0 0.0065159
6390.0 0.0064792
6410.0 0.0065311
6430.0 0.0066131
6450.0 0.00661
6470.0 0.0066235
6490.0 0.0066622
6510.0 0.0066601
6530.0 0.0065794
6550.0 0.0064123
6570.0 0.0062081
6590.0 0.0060293
6610.0 0.0058896
6630.0 0.0057747
6650.0 0.0055869
6670.0 0.0053794
6690.0 0.0052189
6710.0 0.0051269
6730.0 0.0050756
6750.0 0.0050263
6770.0 0.0049597
6790.0 0.0048698
6810.0 0.0047827
6830.0 0.0047549
6850.0 0.0047304
6870.0 0.0046899
6890.0 0.004683
6910.0 0.0046198
6930.0 0.0045426
6950.0 0.0045319
6970.0 0.0044918
6990.0 0.0043985
7010.0 0.0043267
7030.0 0.0042495
7050.0 0.0041685
7070.0 0.0040695
7090.0 0.0039827
7110.0 0.0040405
7130.0 0.0041552
7150.0 0.0042456
7170.0 0.0043005
7190.0 0.0042934
7210.0 0.0042384
7230.0 0.0041694
7250.0 0.0041263
7270.0 0.0040535
7290.0 0.0039934
7310.0 0.0039602
7330.0 0.0040013
7350.0 0.0040128
7370.0 0.004
7390.0 0.0039632
7410.0 0.0039017
7430.0 0.003862
7450.0 0.0038216
7470.0 0.0037058
7490.0 0.0035818
7510.0 0.0034316
7530.0 0.0033109
7550.0 0.0032467
7570.0 0.0032904
7590.0 0.0032692
7610.0 0.003233
7630.0 0.0032003
7650.0 0.0032163
7670.0 0.0032831
7690.0 0.0034167
7710.0 0.0035082
7730.0 0.003639
7750.0 0.0037214
7770.0 0.0037883
7790.0 0.0037948
7810.0 0.003722
7830.0 0.0037333
7850.0 0.0036985
7870.0 0.0036057
7890.0 0.003484
7910.0 0.0033803
7930.0 0.0033023
7950.0 0.0032547
7970.0 0.003256
7990.0 0.0032821
8010.0 0.0032729
8030.0 0.0032382
8050.0 0.0031786
8070.0 0.0031206
8090.0 0.0030567
8110.0 0.0030681
8130.0 0.003095
8150.0 0.0031003
8170.0 0.0030743
8190.0 0.0030333
8210.0 0.0029142
8230.0 0.0027262
8250.0 0.0026104
8270.0 0.0025434
8290.0 0.002511
8310.0 0.0025222
8330.0 0.0025791
8350.0 0.0025337
8370.0 0.0024785
8390.0 0.0025126
8410.0 0.0025915
8430.0 0.002725
8450.0 0.0028474
8470.0 0.0028798
8490.0 0.0029062
8510.0 0.0028907
8530.0 0.0028735
8550.0 0.0028952
8570.0 0.0028986
8590.0 0.0028896
8610.0 0.0029688
8630.0 0.002991
8650.0 0.0029259
8670.0 0.00292
8690.0 0.0029308
8710.0 0.0028903
8730.0 0.0028655
8750.0 0.0027778
8770.0 0.0027407
8790.0 0.0027111
8810.0 0.002684
8830.0 0.0025667
8850.0 0.0023821
8870.0 0.0022392
8890.0 0.0021605
8910.0 0.0020282
8930.0 0.0018882
8950.0 0.0018382
8970.0 0.0018247
8990.0 0.0018266
9010.0 0.0018127
9030.0 0.0017997
9050.0 0.0017878
9070.0 0.0017762
9090.0 0.0017646
9110.0 0.0017531
9130.0 0.0017415
9150.0 0.00173
9170.0 0.0017186
9190.0 0.0017071
9210.0 0.0016956
9230.0 0.0016842
9250.0 0.0016728
9270.0 0.0016614
9290.0 0.0016501
9310.0 0.0016388
9330.0 0.0016276
9350.0 0.0016164
9370.0 0.0016052
9390.0 0.0015941
9410.0 0.0015829
9430.0 0.0015719
9450.0 0.0015607
9470.0 0.0015498
9490.0 0.0015392
9510.0 0.0015283
9530.0 0.0015175
9550.0 0.0015067
9570.0 0.001496
9590.0 0.0014853
9610.0 0.0014748
9630.0 0.0014642
9650.0 0.0014538
9670.0 0.0014434
9690.0 0.001433
9710.0 0.0014227
9730.0 0.0014125
9750.0 0.0014024
9770.0 0.0013923
9790.0 0.0013822
9810.0 0.0013723
9830.0 0.0013621
9850.0 0.0013505
9870.0 0.001341
9890.0 0.0013319
9910.0 0.0013227
9930.0 0.0013129
9950.0 0.0013036
9970.0 0.0012943
9990.0 0.0012849
10010.0 0.0012744
10030.0 0.0012646
10050.0 0.0012561
10070.0 0.0012474
10090.0 0.0012387
10110.0 0.0012295
10130.0 0.0012193
10150.0 0.0012107
10170.0 0.0012023
10190.0 0.0011935
10210.0 0.001185
10230.0 0.0011765
10250.0 0.0011677
10270.0 0.001159
10290.0 0.0011507
10310.0 0.0011421
10330.0 0.0011333
10350.0 0.0011249
10370.0 0.0011166
10390.0 0.001108
10410.0 0.0010996
10430.0 0.0010915
10450.0 0.0010832
10470.0 0.0010749
10490.0 0.0010668
10510.0 0.0010587
10530.0 0.0010503
10550.0 0.0010422
10570.0 0.0010343
10590.0 0.0010263
10610.0 0.0010181
10630.0 0.0010103
10650.0 0.0010025
10670.0 0.00099437
10690.0 0.00098646
10710.0 0.00097876
10730.0 0.00097086
10750.0 0.00096276
10770.0 0.00095517
10790.0 0.0009475
10810.0 0.00093961
10830.0 0.00093189
10850.0 0.00092445
10870.0 0.0009166
10890.0 0.00090883
10910.0 0.00090142
10930.0 0.00089406
10950.0 0.0008866
10970.0 0.00087952
10990.0 0.00087291
11010.0 0.00086553
11030.0 0.00085973
11050.0 0.00085428
11070.0 0.00084889
11090.0 0.00084325
11110.0 0.00083783
11130.0 0.00083242
11150.0 0.00082675
11170.0 0.00082097
11190.0 0.00081537
11210.0 0.00080961
11230.0 0.00080371
11250.0 0.00079802
11270.0 0.0007925
11290.0 0.00078688
11310.0 0.00078142
11330.0 0.00077641
11350.0 0.00077147
11370.0 0.00076662
11390.0 0.0007621
11410.0 0.00075779
11430.0 0.00075339
11450.0 0.00074917
11470.0 0.00074512
11490.0 0.00074101
11510.0 0.00073672
11530.0 0.00073255
11550.0 0.0007283
11570.0 0.00072374
11590.0 0.00071906
11610.0 0.00071436
11630.0 0.00070931
11650.0 0.00070396
11670.0 0.00069872
11690.0 0.00069336
11710.0 0.00068775
11730.0 0.00068216
11750.0 0.00067681
11770.0 0.0006713
11790.0 0.00066581
11810.0 0.00066061
11830.0 0.00065556
11850.0 0.0006504
11870.0 0.00064557
11890.0 0.00064109
11910.0 0.00063665
11930.0 0.00063236
11950.0 0.00062845
11970.0 0.00062471
11990.0 0.00062104
12010.0 0.00061773
12030.0 0.00061475
12050.0 0.00061195
12070.0 0.0006094
12090.0 0.00060733
12110.0 0.00060554
12130.0 0.00060405
12150.0 0.00060295
12170.0 0.00060223
12190.0 0.00060183
12210.0 0.00060182
12230.0 0.00060215
12250.0 0.00060281
12270.0 0.00060381
12290.0 0.00060507
12310.0 0.00060653
12330.0 0.00060824
12350.0 0.00061011
12370.0 0.00061201
12390.0 0.00061398
12410.0 0.000616
12430.0 0.00061784
12450.0 0.00061952
12470.0 0.00062101
12490.0 0.00062221
12510.0 0.00062304
12530.0 0.00062349
12550.0 0.00062348
12570.0 0.00062298
12590.0 0.00062199
12610.0 0.00062038
12630.0 0.00061818
12650.0 0.0006156
12670.0 0.00061242
12690.0 0.00060866
12710.0 0.00060459
12730.0 0.00060021
12750.0 0.0005952
12770.0 0.00059003
12790.0 0.00058483
12810.0 0.00057936
12830.0 0.00057363
12850.0 0.00056815
12870.0 0.00056271
12890.0 0.00055708
12910.0 0.00055161
12930.0 0.00054641
12950.0 0.00054109
12970.0 0.00053576
12990.0 0.00053081
13010.0 0.00052595
13030.0 0.00052104
13050.0 0.00051633
13070.0 0.00051194
13090.0 0.00050751
13110.0 0.00050319
13130.0 0.00049921
13150.0 0.00049541
13170.0 0.00049162
13190.0 0.00048819
13210.0 0.00048508
13230.0 0.00048207
13250.0 0.00047924
13270.0 0.00047671
13290.0 0.00047429
13310.0 0.0004719
13330.0 0.00046968
13350.0 0.00046757
13370.0 0.00046541
13390.0 0.0004632
13410.0 0.00046111
13430.0 0.00045893
13450.0 0.00045662
13470.0 0.00045428
13490.0 0.00045194
13510.0 0.00044935
13530.0 0.00044669
13550.0 0.00044407
13570.0 0.00044133
13590.0 0.00043842
13610.0 0.00043555
13630.0 0.00043271
13650.0 0.00042969
13670.0 0.00042664
13690.0 0.00042367
13710.0 0.00042062
13730.0 0.00041737
13750.0 0.0004143
13770.0 0.00041122
13790.0 0.000408
13810.0 0.00040475
13830.0 0.00040162
13850.0 0.00039833
13870.0 0.00039491
13890.0 0.00039155
13910.0 0.00038816
13930.0 0.00038456
13950.0 0.00038089
13970.0 0.00037734
13990.0 0.00037361
14010.0 0.00036975
14030.0 0.00036596
14050.0 0.00036216
14070.0 0.0003581
14090.0 0.00035416
14110.0 0.00035034
14130.0 0.00034646
14150.0 0.00034257
14170.0 0.00033895
14190.0 0.00033545
14210.0 0.00033194
14230.0 0.00032862
14250.0 0.00032554
14270.0 0.00032247
14290.0 0.00031947
14310.0 0.00031674
14330.0 0.00031408
14350.0 0.00031141
14370.0 0.00030887
14390.0 0.00030647
14410.0 0.00030402
14430.0 0.00030161
14450.0 0.00029933
14470.0 0.00029709
14490.0 0.00029481
14510.0 0.00029268
14530.0 0.00029068
14550.0 0.0002887
14570.0 0.00028678
14590.0 0.00028502
14610.0 0.0002833
14630.0 0.0002816
14650.0 0.00028003
14670.0 0.00027854
14690.0 0.00027708
14710.0 0.00027566
14730.0 0.0002744
14750.0 0.00027317
14770.0 0.00027201
14790.0 0.00027097
14810.0 0.00027005
14830.0 0.0002692
14850.0 0.0002685
14870.0 0.00026796
14890.0 0.00026755
14910.0 0.00026727
14930.0 0.00026711
14950.0 0.00026702
14970.0 0.00026697
14990.0 0.00026692
15010.0 0.00026682
15030.0 0.00026666
15050.0 0.00026642
15070.0 0.00026611
15090.0 0.00026575
15110.0 0.00026534
15130.0 0.0002649
15150.0 0.00026446
15170.0 0.000264
15190.0 0.00026353
15210.0 0.00026306
15230.0 0.0002626
15250.0 0.00026212
15270.0 0.00026165
15290.0 0.00026119
15310.0 0.00026072
15330.0 0.00026024
15350.0 0.00025978
15370.0 0.00025932
15390.0 0.00025883
15410.0 0.00025836
15430.0 0.0002579
15450.0 0.00025742
15470.0 0.00025694
15490.0 0.00025648
15510.0 0.00025602
15530.0 0.00025554
15550.0 0.00025508
15570.0 0.00025462
15590.0 0.00025415
15610.0 0.00025367
15630.0 0.00025321
15650.0 0.00025276
15670.0 0.00025228
15690.0 0.00025182
15710.0 0.00025138
15730.0 0.00025091
15750.0 0.00025045
15770.0 0.00025
15790.0 0.00024955
15810.0 0.00024908
15830.0 0.00024863
15850.0 0.00024819
15870.0 0.00024774
15890.0 0.00024729
15910.0 0.00024686
15930.0 0.00024642
15950.0 0.00024597
15970.0 0.00024553
15990.0 0.0002451
16010.0 0.00024466
16030.0 0.00024422
16050.0 0.0002438
16070.0 0.00024337
16090.0 0.00024294
16110.0 0.00024252
16130.0 0.00024211
16150.0 0.00024168
16170.0 0.00024125
16190.0 0.00024085
16210.0 0.00024044
16230.0 0.00024002
16250.0 0.00023961
16270.0 0.00023922
16290.0 0.00023881
16310.0 0.0002384
16330.0 0.00023801
16350.0 0.00023762
16370.0 0.0002372
16390.0 0.00023682
16410.0 0.00023644
16430.0 0.00023604
16450.0 0.00023566
16470.0 0.00023528
16490.0 0.0002349
16510.0 0.00023451
16530.0 0.00023414
16550.0 0.00023377
16570.0 0.00023339
16590.0 0.00023301
16610.0 0.00023266
16630.0 0.00023229
16650.0 0.00023192
16670.0 0.00023156
16690.0 0.00023121
16710.0 0.00023083
16730.0 0.00023048
16750.0 0.00023013
16770.0 0.00022977
16790.0 0.00022941
16810.0 0.00022907
16830.0 0.00022872
16850.0 0.00022837
16870.0 0.00022802
16890.0 0.00022768
16910.0 0.00022733
16930.0 0.00022698
16950.0 0.00022664
16970.0 0.00022631
16990.0 0.00022596
17010.0 0.00022562
17030.0 0.00022529
17050.0 0.00022495
17070.0 0.00022461
17090.0 0.00022428
17110.0 0.00022394
17130.0 0.00022359
17150.0 0.00022326
17170.0 0.00022293
17190.0 0.00022259
17210.0 0.00022225
17230.0 0.00022193
17250.0 0.0002216
17270.0 0.00022125
17290.0 0.00022092
17310.0 0.00022059
17330.0 0.00022024
17350.0 0.0002199
17370.0 0.00021957
17390.0 0.00021924
17410.0 0.00021889
17430.0 0.00021856
17450.0 0.00021823
17470.0 0.00021787
17490.0 0.00021752
17510.0 0.00021719
17530.0 0.00021684
17550.0 0.00021649
17570.0 0.00021615
17590.0 0.00021581
17610.0 0.00021545
17630.0 0.00021509
17650.0 0.00021475
17670.0 0.00021439
17690.0 0.00021402
17710.0 0.00021367
17730.0 0.00021331
17750.0 0.00021294
17770.0 0.00021258
17790.0 0.00021222
17810.0 0.00021184
17830.0 0.00021146
17850.0 0.00021109
17870.0 0.00021072
17890.0 0.00021033
17910.0 0.00020994
17930.0 0.00020957
17950.0 0.00020918
17970.0 0.00020878
17990.0 0.0002084
18010.0 0.00020801
18030.0 0.00020759
18050.0 0.00020719
18070.0 0.00020679
18090.0 0.00020638
18110.0 0.00020595
18130.0 0.00020555
18150.0 0.00020513
18170.0 0.0002047
18190.0 0.00020428
18210.0 0.00020386
18230.0 0.00020342
18250.0 0.00020297
18270.0 0.00020254
18290.0 0.0002021
18310.0 0.00020164
18330.0 0.00020119
18350.0 0.00020075
18370.0 0.00020029
18390.0 0.00019982
18410.0 0.00019936
18430.0 0.00019889
18450.0 0.0001984
18470.0 0.00019793
18490.0 0.00019746
18510.0 0.00019697
18530.0 0.00019648
18550.0 0.00019599
18570.0 0.0001955
18590.0 0.00019499
18610.0 0.00019449
18630.0 0.00019398
18650.0 0.00019347
18670.0 0.00019294
18690.0 0.00019244
18710.0 0.00019191
18730.0 0.00019138
18750.0 0.00019085
18770.0 0.00019033
18790.0 0.00018977
18810.0 0.00018923
18830.0 0.00018869
18850.0 0.00018814
18870.0 0.00018758
18890.0 0.00018703
18910.0 0.00018648
18930.0 0.0001859
18950.0 0.00018534
18970.0 0.00018477
18990.0 0.0001842
19010.0 0.0001836
19030.0 0.00018303
19050.0 0.00018245
19070.0 0.00018186
19090.0 0.00018127
19110.0 0.00018068
19130.0 0.00018008
19150.0 0.00017947
19170.0 0.00017887
19190.0 0.00017827
19210.0 0.00017765
19230.0 0.00017703
19250.0 0.00017643
19270.0 0.00017581
19290.0 0.00017518
19310.0 0.00017457
19330.0 0.00017395
19350.0 0.0001733
19370.0 0.00017267
19390.0 0.00017205
19410.0 0.00017141
19430.0 0.00017076
19450.0 0.00017013
19470.0 0.00016949
19490.0 0.00016884
19510.0 0.0001682
19530.0 0.00016756
19550.0 0.0001669
19570.0 0.00016624
19590.0 0.0001656
19610.0 0.00016494
19630.0 0.00016428
19650.0 0.00016363
19670.0 0.00016298
19690.0 0.00016231
19710.0 0.00016164
19730.0 0.00016099
19750.0 0.00016033
19770.0 0.00015965
19790.0 0.00015899
19810.0 0.00015833
19830.0 0.00015766
19850.0 0.00015698
19870.0 0.00015631
19890.0 0.00015561
19910.0 0.00015487
19930.0 0.0001541
19950.0 0.00015325
19970.0 0.00015229
19990.0 0.00015118
20010.0 0.00014997
20030.0 0.00014857
20050.0 0.000147
20070.0 0.00014533
20090.0 0.00014359
20110.0 0.00014167
20130.0 0.00013976
20150.0 0.00013789
20170.0 0.00013598
20190.0 0.00013406
20210.0 0.00013224
20230.0 0.00013046
20250.0 0.00012868
20270.0 0.00012699
20290.0 0.0001254
20310.0 0.00012384
20330.0 0.00012233
20350.0 0.00012097
20370.0 0.00011967
20390.0 0.00011841
20410.0 0.00011725
20430.0 0.00011619
20450.0 0.00011516
20470.0 0.00011421
20490.0 0.00011335
20510.0 0.00011254
20530.0 0.00011178
20550.0 0.00011109
20570.0 0.00011047
20590.0 0.00010988
20610.0 0.00010934
20630.0 0.00010886
20650.0 0.0001084
20670.0 0.00010797
20690.0 0.00010758
20710.0 0.00010721
20730.0 0.00010685
20750.0 0.0001065
20770.0 0.00010616
20790.0 0.0001058
20810.0 0.00010543
20830.0 0.00010504
20850.0 0.00010463
20870.0 0.00010418
20890.0 0.00010368
20910.0 0.00010316
20930.0 0.00010259
20950.0 0.00010197
20970.0 0.00010131
20990.0 0.00010062
21010.0 9.9863e-05
21030.0 9.9073e-05
21050.0 9.8269e-05
21070.0 9.7423e-05
21090.0 9.6529e-05
21110.0 9.5649e-05
21130.0 9.4763e-05
21150.0 9.3842e-05
21170.0 9.2925e-05
21190.0 9.2035e-05
21210.0 9.1123e-05
21230.0 9.0204e-05
21250.0 8.9331e-05
21270.0 8.8475e-05
21290.0 8.7614e-05
21310.0 8.678e-05
21330.0 8.5999e-05
21350.0 8.5218e-05
21370.0 8.4453e-05
21390.0 8.3732e-05
21410.0 8.3036e-05
21430.0 8.233e-05
21450.0 8.1664e-05
21470.0 8.1034e-05
21490.0 8.0406e-05
21510.0 7.9786e-05
21530.0 7.92e-05
21550.0 7.8623e-05
21570.0 7.8037e-05
21590.0 7.747e-05
21610.0 7.6921e-05
21630.0 7.6364e-05
21650.0 7.5797e-05
21670.0 7.5265e-05
21690.0 7.4729e-05
21710.0 7.4181e-05
21730.0 7.3644e-05
21750.0 7.3123e-05
21770.0 7.2575e-05
21790.0 7.2029e-05
21810.0 7.1501e-05
21830.0 7.0967e-05
21850.0 7.0414e-05
21870.0 6.9873e-05
21890.0 6.9346e-05
21910.0 6.8797e-05
21930.0 6.8245e-05
21950.0 6.771e-05
21970.0 6.7166e-05
21990.0 6.6596e-05
22010.0 6.6052e-05
22030.0 6.5515e-05
22050.0 6.4963e-05
22070.0 6.4414e-05
22090.0 6.3893e-05
22110.0 6.3367e-05
22130.0 6.2835e-05
22150.0 6.2329e-05
22170.0 6.1842e-05
22190.0 6.1346e-05
22210.0 6.0868e-05
22230.0 6.043e-05
22250.0 5.9998e-05
22270.0 5.9576e-05
22290.0 5.9187e-05
22310.0 5.8821e-05
22330.0 5.8453e-05
22350.0 5.8111e-05
22370.0 5.7797e-05
22390.0 5.7491e-05
22410.0 5.719e-05
22430.0 5.6919e-05
22450.0 5.6661e-05
22470.0 5.6402e-05
22490.0 5.6157e-05
22510.0 5.593e-05
22530.0 5.5699e-05
22550.0 5.547e-05
22570.0 5.526e-05
22590.0 5.5057e-05
22610.0 5.4851e-05
22630.0 5.4655e-05
22650.0 5.4478e-05
22670.0 5.4299e-05
22690.0 5.4127e-05
22710.0 5.3973e-05
22730.0 5.383e-05
22750.0 5.3685e-05
22770.0 5.3563e-05
22790.0 5.3462e-05
22810.0 5.3369e-05
22830.0 5.3293e-05
22850.0 5.3242e-05
22870.0 5.3209e-05
22890.0 5.3193e-05
22910.0 5.3206e-05
22930.0 5.3246e-05
22950.0 5.3311e-05
22970.0 5.3407e-05
22990.0 5.3535e-05
23010.0 5.3695e-05
23030.0 5.3888e-05
23050.0 5.4114e-05
23070.0 5.4367e-05
23090.0 5.4659e-05
23110.0 5.498e-05
