#lamb flux
1010.0 2.6292e-06
1030.0 2.9535e-06
1050.0 3.3266e-06
1070.0 3.7466e-06
1090.0 4.2237e-06
1110.0 4.713e-06
1130.0 5.2055e-06
1150.0 5.7214e-06
1170.0 6.2536e-06
1190.0 6.7582e-06
1210.0 7.2696e-06
1230.0 7.7982e-06
1250.0 8.316e-06
1270.0 8.8189e-06
1290.0 9.3502e-06
1310.0 9.8812e-06
1330.0 1.039e-05
1350.0 1.0905e-05
1370.0 1.1437e-05
1390.0 1.1955e-05
1410.0 1.2458e-05
1430.0 1.2984e-05
1450.0 1.351e-05
1470.0 1.4018e-05
1490.0 1.4531e-05
1510.0 1.5073e-05
1530.0 1.5587e-05
1550.0 1.6093e-05
1570.0 1.6617e-05
1590.0 1.7141e-05
1610.0 1.7642e-05
1630.0 1.8157e-05
1650.0 1.8686e-05
1670.0 1.9197e-05
1690.0 1.9701e-05
1710.0 2.0224e-05
1730.0 2.0749e-05
1750.0 2.1241e-05
1770.0 2.1747e-05
1790.0 2.2262e-05
1810.0 2.2759e-05
1830.0 2.3245e-05
1850.0 2.3759e-05
1870.0 2.4258e-05
1890.0 2.4736e-05
1910.0 2.5221e-05
1930.0 2.5715e-05
1950.0 2.6182e-05
1970.0 2.6637e-05
1990.0 2.7107e-05
2010.0 2.7562e-05
2030.0 2.7992e-05
2050.0 2.8431e-05
2070.0 2.8874e-05
2090.0 2.9279e-05
2110.0 2.9674e-05
2130.0 3.0073e-05
2150.0 3.0452e-05
2170.0 3.0797e-05
2190.0 3.1148e-05
2210.0 3.1488e-05
2230.0 3.1793e-05
2250.0 3.2082e-05
2270.0 3.2375e-05
2290.0 3.2635e-05
2310.0 3.2859e-05
2330.0 3.3078e-05
2350.0 3.3283e-05
2370.0 3.3451e-05
2390.0 3.3607e-05
2410.0 3.3774e-05
2430.0 3.3922e-05
2450.0 3.4064e-05
2470.0 3.4243e-05
2490.0 3.448e-05
2510.0 3.4767e-05
2530.0 3.523e-05
2550.0 3.6055e-05
2570.0 3.7413e-05
2590.0 3.9523e-05
2610.0 4.2994e-05
2630.0 4.7935e-05
2650.0 5.4029e-05
2670.0 6.1306e-05
2690.0 6.942e-05
2710.0 7.7129e-05
2730.0 8.3848e-05
2750.0 8.9673e-05
2770.0 9.3973e-05
2790.0 9.6738e-05
2810.0 9.8468e-05
2830.0 9.9498e-05
2850.0 9.9839e-05
2870.0 9.9867e-05
2890.0 9.9792e-05
2910.0 9.9627e-05
2930.0 9.9357e-05
2950.0 9.913e-05
2970.0 9.8934e-05
2990.0 9.8693e-05
3010.0 0.0017796
3030.0 0.0017739
3050.0 0.0017681
3070.0 0.0017605
3090.0 0.0017522
3110.0 0.0017412
3130.0 0.0017252
3150.0 0.0017033
3170.0 0.0016736
3190.0 0.0016369
3210.0 0.0015967
3230.0 0.0015566
3250.0 0.0015259
3270.0 0.0015055
3290.0 0.0015064
3310.0 0.0015202
3330.0 0.0015567
3350.0 0.001609
3370.0 0.0016781
3390.0 0.0017618
3410.0 0.0018512
3430.0 0.0019505
3450.0 0.0020632
3470.0 0.0021843
3490.0 0.0023103
3510.0 0.0024506
3530.0 0.0025989
3550.0 0.0027441
3570.0 0.0028929
3590.0 0.0030597
3610.0 0.0032248
3630.0 0.0034027
3650.0 0.0035843
3670.0 0.0037557
3690.0 0.0038876
3710.0 0.00397
3730.0 0.0039981
3750.0 0.0039691
3770.0 0.0036182
3790.0 0.0032461
3810.0 0.0030303
3830.0 0.0026149
3850.0 0.0018845
3870.0 0.0014464
3890.0 0.0024315
3910.0 0.0038692
3930.0 0.0046845
3950.0 0.004681
3970.0 0.0046789
3990.0 0.0054881
4010.0 0.0068118
4030.0 0.0070091
4050.0 0.0063097
4070.0 0.0054875
4090.0 0.005143
4110.0 0.0061706
4130.0 0.0063905
4150.0 0.006087
4170.0 0.0062847
4190.0 0.0064507
4210.0 0.0063574
4230.0 0.0069014
4250.0 0.0075174
4270.0 0.0075954
4290.0 0.0077135
4310.0 0.0080181
4330.0 0.008865
4350.0 0.010111
4370.0 0.011431
4390.0 0.011011
4410.0 0.0092319
4430.0 0.0077802
4450.0 0.0066191
4470.0 0.006478
4490.0 0.0070324
4510.0 0.0076959
4530.0 0.00842
4550.0 0.0098078
4570.0 0.011796
4590.0 0.01444
4610.0 0.018146
4630.0 0.021741
4650.0 0.022497
4670.0 0.022062
4690.0 0.023495
4710.0 0.024555
4730.0 0.020872
4750.0 0.015178
4770.0 0.012456
4790.0 0.011887
4810.0 0.011041
4830.0 0.010469
4850.0 0.012058
4870.0 0.015392
4890.0 0.017463
4910.0 0.01502
4930.0 0.01341
4950.0 0.015088
4970.0 0.020097
4990.0 0.025716
5010.0 0.026951
5030.0 0.022319
5050.0 0.014694
5070.0 0.010167
5090.0 0.0090419
5110.0 0.0094488
5130.0 0.010133
5150.0 0.010667
5170.0 0.010667
5190.0 0.010485
5210.0 0.010146
5230.0 0.010311
5250.0 0.010978
5270.0 0.01282
5290.0 0.014808
5310.0 0.016092
5330.0 0.016508
5350.0 0.016766
5370.0 0.018207
5390.0 0.019343
5410.0 0.018813
5430.0 0.016471
5450.0 0.015256
5470.0 0.017198
5490.0 0.022018
5510.0 0.027909
5530.0 0.030765
5550.0 0.030037
5570.0 0.027395
5590.0 0.024653
5610.0 0.022736
5630.0 0.021551
5650.0 0.022125
5670.0 0.021672
5690.0 0.020348
5710.0 0.019175
5730.0 0.017202
5750.0 0.012808
5770.0 0.011231
5790.0 0.012528
5810.0 0.015106
5830.0 0.016911
5850.0 0.018231
5870.0 0.018644
5890.0 0.017956
5910.0 0.017193
5930.0 0.017303
5950.0 0.018162
5970.0 0.019011
5990.0 0.018055
6010.0 0.015275
6030.0 0.012696
6050.0 0.011075
6070.0 0.010975
6090.0 0.012313
6110.0 0.013425
6130.0 0.012931
6150.0 0.012148
6170.0 0.013449
6190.0 0.016169
6210.0 0.019401
6230.0 0.02187
6250.0 0.021778
6270.0 0.019647
6290.0 0.016263
6310.0 0.012976
6330.0 0.010417
6350.0 0.0094485
6370.0 0.010302
6390.0 0.012092
6410.0 0.013858
6430.0 0.01603
6450.0 0.018632
6470.0 0.02302
6490.0 0.028229
6510.0 0.030991
6530.0 0.028812
6550.0 0.026595
6570.0 0.026164
6590.0 0.025142
6610.0 0.022728
6630.0 0.020406
6650.0 0.018864
6670.0 0.019588
6690.0 0.019481
6710.0 0.017271
6730.0 0.016006
6750.0 0.014234
6770.0 0.013703
6790.0 0.01478
6810.0 0.015575
6830.0 0.015956
6850.0 0.015682
6870.0 0.015034
6890.0 0.014729
6910.0 0.014003
6930.0 0.013229
6950.0 0.013305
6970.0 0.013582
6990.0 0.015121
7010.0 0.016089
7030.0 0.014653
7050.0 0.013725
7070.0 0.013202
7090.0 0.011878
7110.0 0.011066
7130.0 0.011264
7150.0 0.011698
7170.0 0.012322
7190.0 0.012342
7210.0 0.012403
7230.0 0.013064
7250.0 0.015045
7270.0 0.017574
7290.0 0.018835
7310.0 0.018249
7330.0 0.016231
7350.0 0.01459
7370.0 0.014348
7390.0 0.014484
7410.0 0.015014
7430.0 0.016439
7450.0 0.017819
7470.0 0.019746
7490.0 0.021819
7510.0 0.02006
7530.0 0.019204
7550.0 0.016128
7570.0 0.013555
7590.0 0.011171
7610.0 0.010254
7630.0 0.010729
7650.0 0.012271
7670.0 0.013368
7690.0 0.015079
7710.0 0.016809
7730.0 0.017578
7750.0 0.017621
7770.0 0.017556
7790.0 0.0173
7810.0 0.017971
7830.0 0.017373
7850.0 0.015501
7870.0 0.013999
7890.0 0.013044
7910.0 0.011765
7930.0 0.010068
7950.0 0.0092169
7970.0 0.0091637
7990.0 0.0095914
8010.0 0.010183
8030.0 0.010332
8050.0 0.01029
8070.0 0.0099985
8090.0 0.0099527
8110.0 0.0094583
8130.0 0.0088155
8150.0 0.008288
8170.0 0.0080861
8190.0 0.0082589
8210.0 0.008281
8230.0 0.0086114
8250.0 0.0085594
8270.0 0.0076508
8290.0 0.005877
8310.0 0.0040021
8330.0 0.0026396
8350.0 0.0018737
8370.0 0.0022246
8390.0 0.0024618
8410.0 0.003153
8430.0 0.0038206
8450.0 0.0041861
8470.0 0.0043419
8490.0 0.004459
8510.0 0.0046581
8530.0 0.0052091
8550.0 0.0057555
8570.0 0.0067626
8590.0 0.0082943
8610.0 0.0097127
8630.0 0.011354
8650.0 0.012771
8670.0 0.012582
8690.0 0.011791
8710.0 0.011144
8730.0 0.010533
8750.0 0.010075
8770.0 0.0097777
8790.0 0.0094739
8810.0 0.0088266
8830.0 0.0079593
8850.0 0.0068921
8870.0 0.0058887
8890.0 0.0053192
8910.0 0.0053797
8930.0 0.0053728
8950.0 0.0058342
8970.0 0.0059697
8990.0 0.0062015
9010.0 0.0064316
9030.0 0.0064829
9050.0 0.006507
9070.0 0.0065252
9090.0 0.0065386
9110.0 0.0065453
9130.0 0.006556
9150.0 0.0065708
9170.0 0.0065855
9190.0 0.0066
9210.0 0.0066227
9230.0 0.0066396
9250.0 0.006659
9270.0 0.0066795
9290.0 0.0067012
9310.0 0.006725
9330.0 0.0067501
9350.0 0.006776
9370.0 0.0068035
9390.0 0.0068326
9410.0 0.0068626
9430.0 0.0068933
9450.0 0.0069262
9470.0 0.0069602
9490.0 0.0069948
9510.0 0.0070308
9530.0 0.0070685
9550.0 0.0071064
9570.0 0.0071453
9590.0 0.0071858
9610.0 0.0072273
9630.0 0.0072691
9650.0 0.0073122
9670.0 0.0073568
9690.0 0.0074017
9710.0 0.0074472
9730.0 0.0074941
9750.0 0.0075417
9770.0 0.007589
9790.0 0.0076378
9810.0 0.0076876
9830.0 0.0077374
9850.0 0.0077876
9870.0 0.0078392
9890.0 0.0078909
9910.0 0.0079424
9930.0 0.0079948
9950.0 0.0080475
9970.0 0.0081002
9990.0 0.008153
10010.0 0.0080196
10030.0 0.0080713
10050.0 0.0081221
10070.0 0.0081716
10090.0 0.0082246
10110.0 0.0082762
10130.0 0.0083278
10150.0 0.0083797
10170.0 0.0084309
10190.0 0.0084808
10210.0 0.0085314
10230.0 0.008582
10250.0 0.008631
10270.0 0.0086798
10290.0 0.0087289
10310.0 0.0087766
10330.0 0.0088228
10350.0 0.0088695
10370.0 0.0089156
10390.0 0.0089598
10410.0 0.0090034
10430.0 0.0090473
10450.0 0.0090893
10470.0 0.0091297
10490.0 0.00917
10510.0 0.0092093
10530.0 0.0092459
10550.0 0.0092821
10570.0 0.009318
10590.0 0.0093517
10610.0 0.0093837
10630.0 0.0094154
10650.0 0.0094456
10670.0 0.0094731
10690.0 0.0094997
10710.0 0.0095256
10730.0 0.0095491
10750.0 0.00957
10770.0 0.0095913
10790.0 0.0096105
10810.0 0.009627
10830.0 0.009642
10850.0 0.0096556
10870.0 0.0096638
10890.0 0.0096666
10910.0 0.0096626
10930.0 0.0096458
10950.0 0.009608
10970.0 0.0095464
10990.0 0.0094592
11010.0 0.0091398
11030.0 0.008979
11050.0 0.0087918
11070.0 0.008573
11090.0 0.0083135
11110.0 0.0080483
11130.0 0.0077745
11150.0 0.0074828
11170.0 0.0071874
11190.0 0.0069073
11210.0 0.0066257
11230.0 0.0063461
11250.0 0.006089
11270.0 0.0058517
11290.0 0.0056235
11310.0 0.0054166
11330.0 0.0052417
11350.0 0.0050818
11370.0 0.0049378
11390.0 0.0048147
11410.0 0.0047063
11430.0 0.004602
11450.0 0.0045063
11470.0 0.004416
11490.0 0.004323
11510.0 0.0042236
11530.0 0.0041227
11550.0 0.0040162
11570.0 0.0038982
11590.0 0.0037742
11610.0 0.0036486
11630.0 0.0035143
11650.0 0.0033743
11670.0 0.0032406
11690.0 0.0031095
11710.0 0.0029789
11730.0 0.0028566
11750.0 0.0027468
11770.0 0.0026422
11790.0 0.0025466
11810.0 0.0024639
11830.0 0.0023906
11850.0 0.0023229
11870.0 0.0022649
11890.0 0.0022143
11910.0 0.0021668
11930.0 0.0021218
11950.0 0.0020796
11970.0 0.0020373
11990.0 0.0019925
12010.0 0.001947
12030.0 0.0019005
12050.0 0.001851
12070.0 0.0017989
12090.0 0.0017489
12110.0 0.0016987
12130.0 0.0016489
12150.0 0.0016031
12170.0 0.0015627
12190.0 0.001526
12210.0 0.0014971
12230.0 0.0014769
12250.0 0.001465
12270.0 0.0014627
12290.0 0.0014698
12310.0 0.0014852
12330.0 0.0015103
12350.0 0.0015435
12370.0 0.001582
12390.0 0.0016266
12410.0 0.0016785
12430.0 0.0017299
12450.0 0.0017815
12470.0 0.0018347
12490.0 0.0018858
12510.0 0.001931
12530.0 0.0019734
12550.0 0.0020113
12570.0 0.0020413
12590.0 0.002064
12610.0 0.0020806
12630.0 0.0020892
12650.0 0.0020897
12670.0 0.0020836
12690.0 0.0020707
12710.0 0.0020519
12730.0 0.0020281
12750.0 0.0019986
12770.0 0.0019653
12790.0 0.0019295
12810.0 0.0018905
12830.0 0.0018482
12850.0 0.0018056
12870.0 0.0017619
12890.0 0.0017155
12910.0 0.0016685
12930.0 0.0016218
12950.0 0.0015727
12970.0 0.0015218
12990.0 0.0014725
13010.0 0.0014226
13030.0 0.001371
13050.0 0.0013204
13070.0 0.0012719
13090.0 0.0012228
13110.0 0.0011748
13130.0 0.0011304
13150.0 0.0010885
13170.0 0.0010481
13190.0 0.0010129
13210.0 0.00098273
13230.0 0.0009564
13250.0 0.00093511
13270.0 0.00091963
13290.0 0.00090917
13310.0 0.00090405
13330.0 0.00090431
13350.0 0.00090925
13370.0 0.00091903
13390.0 0.00093335
13410.0 0.00094991
13430.0 0.00096942
13450.0 0.00099164
13470.0 0.0010145
13490.0 0.0010371
13510.0 0.0010613
13530.0 0.0010842
13550.0 0.0011049
13570.0 0.0011242
13590.0 0.001142
13610.0 0.0011567
13630.0 0.0011686
13650.0 0.0011785
13670.0 0.0011857
13690.0 0.0011901
13710.0 0.0011923
13730.0 0.0011922
13750.0 0.0011898
13770.0 0.0011855
13790.0 0.0011794
13810.0 0.0011716
13830.0 0.0011626
13850.0 0.0011521
13870.0 0.00114
13890.0 0.0011272
13910.0 0.0011134
13930.0 0.0010982
13950.0 0.0010823
13970.0 0.0010665
13990.0 0.0010498
14010.0 0.0010327
14030.0 0.001016
14050.0 0.00099962
14070.0 0.00098293
14090.0 0.00096743
14110.0 0.00095329
14130.0 0.00094011
14150.0 0.00092823
14170.0 0.00091855
14190.0 0.00091068
14210.0 0.00090464
14230.0 0.00090084
14250.0 0.0008992
14270.0 0.00089975
14290.0 0.00090261
14310.0 0.00090732
14330.0 0.00091387
14350.0 0.00092242
14370.0 0.00093229
14390.0 0.00094297
14410.0 0.00095513
14430.0 0.00096816
14450.0 0.00098127
14470.0 0.00099484
14490.0 0.0010095
14510.0 0.0010239
14530.0 0.0010383
14550.0 0.0010537
14570.0 0.0010701
14590.0 0.0010868
14610.0 0.0011051
14630.0 0.0011259
14650.0 0.0011481
14670.0 0.001172
14690.0 0.0011992
14710.0 0.0012295
14730.0 0.0012604
14750.0 0.0012941
14770.0 0.0013309
14790.0 0.0013684
14810.0 0.0014059
14830.0 0.0014465
14850.0 0.0014862
14870.0 0.0015236
14890.0 0.0015599
14910.0 0.0015947
14930.0 0.0016249
14950.0 0.0016506
14970.0 0.0016728
14990.0 0.0016898
15010.0 0.0017015
15030.0 0.001709
15050.0 0.0017129
15070.0 0.0017136
15090.0 0.0017125
15110.0 0.0017099
15130.0 0.0017066
15150.0 0.0017031
15170.0 0.0016992
15190.0 0.0016951
15210.0 0.0016913
15230.0 0.0016874
15250.0 0.0016834
15270.0 0.0016794
15290.0 0.0016757
15310.0 0.0016719
15330.0 0.001668
15350.0 0.0016642
15370.0 0.0016606
15390.0 0.0016566
15410.0 0.0016528
15430.0 0.0016492
15450.0 0.0016454
15470.0 0.0016416
15490.0 0.001638
15510.0 0.0016343
15530.0 0.0016305
15550.0 0.0016268
15570.0 0.0016233
15590.0 0.0016195
15610.0 0.0016157
15630.0 0.0016121
15650.0 0.0016084
15670.0 0.0016046
15690.0 0.0016009
15710.0 0.0015974
15730.0 0.0015936
15750.0 0.0015898
15770.0 0.0015861
15790.0 0.0015824
15810.0 0.0015785
15830.0 0.0015748
15850.0 0.0015711
15870.0 0.0015673
15890.0 0.0015634
15910.0 0.0015597
15930.0 0.0015559
15950.0 0.001552
15970.0 0.0015481
15990.0 0.0015443
16010.0 0.0015404
16030.0 0.0015363
16050.0 0.0015325
16070.0 0.0015286
16090.0 0.0015245
16110.0 0.0015206
16130.0 0.0015167
16150.0 0.0015125
16170.0 0.0015084
16190.0 0.0015044
16210.0 0.0015003
16230.0 0.001496
16250.0 0.0014919
16270.0 0.0014879
16290.0 0.0014835
16310.0 0.0014793
16330.0 0.0014751
16350.0 0.0014708
16370.0 0.0014663
16390.0 0.001462
16410.0 0.0014577
16430.0 0.0014532
16450.0 0.0014488
16470.0 0.0014445
16490.0 0.0014399
16510.0 0.0014353
16530.0 0.0014308
16550.0 0.0014263
16570.0 0.0014216
16590.0 0.0014168
16610.0 0.0014123
16630.0 0.0014076
16650.0 0.0014028
16670.0 0.0013981
16690.0 0.0013935
16710.0 0.0013885
16730.0 0.0013836
16750.0 0.0013788
16770.0 0.0013739
16790.0 0.0013688
16810.0 0.001364
16830.0 0.0013591
16850.0 0.0013539
16870.0 0.0013489
16890.0 0.001344
16910.0 0.0013388
16930.0 0.0013335
16950.0 0.0013284
16970.0 0.0013233
16990.0 0.001318
17010.0 0.0013127
17030.0 0.0013076
17050.0 0.0013022
17070.0 0.0012969
17090.0 0.0012916
17110.0 0.0012863
17130.0 0.0012807
17150.0 0.0012753
17170.0 0.00127
17190.0 0.0012644
17210.0 0.0012589
17230.0 0.0012535
17250.0 0.001248
17270.0 0.0012423
17290.0 0.0012367
17310.0 0.0012312
17330.0 0.0012255
17350.0 0.0012197
17370.0 0.0012142
17390.0 0.0012086
17410.0 0.0012028
17430.0 0.0011971
17450.0 0.0011915
17470.0 0.0011856
17490.0 0.0011797
17510.0 0.001174
17530.0 0.0011682
17550.0 0.0011623
17570.0 0.0011565
17590.0 0.0011508
17610.0 0.0011448
17630.0 0.0011389
17650.0 0.0011331
17670.0 0.0011272
17690.0 0.0011211
17710.0 0.0011153
17730.0 0.0011094
17750.0 0.0011034
17770.0 0.0010974
17790.0 0.0010916
17810.0 0.0010856
17830.0 0.0010795
17850.0 0.0010735
17870.0 0.0010676
17890.0 0.0010615
17910.0 0.0010554
17930.0 0.0010495
17950.0 0.0010435
17970.0 0.0010374
17990.0 0.0010314
18010.0 0.0010255
18030.0 0.0010192
18050.0 0.0010132
18070.0 0.0010073
18090.0 0.0010012
18110.0 0.00099502
18130.0 0.00098909
18150.0 0.0009831
18170.0 0.00097695
18190.0 0.00097092
18210.0 0.00096499
18230.0 0.00095885
18250.0 0.00095268
18270.0 0.00094676
18290.0 0.00094076
18310.0 0.00093463
18330.0 0.00092863
18350.0 0.00092274
18370.0 0.00091664
18390.0 0.00091056
18410.0 0.00090464
18430.0 0.00089867
18450.0 0.0008925
18470.0 0.00088655
18490.0 0.00088068
18510.0 0.00087465
18530.0 0.00086865
18550.0 0.00086282
18570.0 0.00085687
18590.0 0.0008508
18610.0 0.00084491
18630.0 0.00083906
18650.0 0.00083308
18670.0 0.00082709
18690.0 0.00082135
18710.0 0.00081549
18730.0 0.00080954
18750.0 0.00080374
18770.0 0.00079802
18790.0 0.00079202
18810.0 0.00078616
18830.0 0.00078047
18850.0 0.00077467
18870.0 0.0007688
18890.0 0.00076312
18910.0 0.00075746
18930.0 0.00075163
18950.0 0.0007459
18970.0 0.00074029
18990.0 0.00073459
19010.0 0.00072873
19030.0 0.00072318
19050.0 0.0007176
19070.0 0.0007119
19090.0 0.00070628
19110.0 0.00070084
19130.0 0.00069519
19150.0 0.00068954
19170.0 0.00068406
19190.0 0.00067858
19210.0 0.00067295
19230.0 0.00066742
19250.0 0.00066208
19270.0 0.00065659
19290.0 0.00065109
19310.0 0.00064576
19330.0 0.00064041
19350.0 0.00063486
19370.0 0.00062949
19390.0 0.00062423
19410.0 0.00061885
19430.0 0.00061345
19450.0 0.00060826
19470.0 0.00060302
19490.0 0.00059767
19510.0 0.00059245
19530.0 0.00058732
19550.0 0.00058202
19570.0 0.00057673
19590.0 0.00057166
19610.0 0.00056654
19630.0 0.00056132
19650.0 0.00055625
19670.0 0.00055127
19690.0 0.0005461
19710.0 0.00054099
19730.0 0.00053603
19750.0 0.00053102
19770.0 0.00052587
19790.0 0.00052093
19810.0 0.00051606
19830.0 0.00051104
19850.0 0.00050605
19870.0 0.00050118
19890.0 0.0004961
19910.0 0.00049075
19930.0 0.00048531
19950.0 0.00047951
19970.0 0.00047294
19990.0 0.00046565
20010.0 0.0004649
20030.0 0.00045602
20050.0 0.00044624
20070.0 0.00043616
20090.0 0.00042581
20110.0 0.00041467
20130.0 0.00040386
20150.0 0.00039356
20170.0 0.00038328
20190.0 0.00037324
20210.0 0.00036406
20230.0 0.00035537
20250.0 0.00034693
20270.0 0.00033931
20290.0 0.00033253
20310.0 0.00032627
20330.0 0.00032061
20350.0 0.00031606
20370.0 0.00031219
20390.0 0.00030901
20410.0 0.00030666
20430.0 0.0003051
20450.0 0.00030423
20470.0 0.0003041
20490.0 0.00030463
20510.0 0.00030577
20530.0 0.00030756
20550.0 0.00030983
20570.0 0.00031244
20590.0 0.00031556
20610.0 0.00031903
20630.0 0.00032262
20650.0 0.00032646
20670.0 0.00033068
20690.0 0.00033481
20710.0 0.00033893
20730.0 0.00034322
20750.0 0.00034755
20770.0 0.00035166
20790.0 0.00035586
20810.0 0.00036018
20830.0 0.00036439
20850.0 0.00036853
20870.0 0.00037294
20890.0 0.00037741
20910.0 0.00038171
20930.0 0.0003862
20950.0 0.00039091
20970.0 0.00039553
20990.0 0.00040013
21010.0 0.00040503
21030.0 0.00040986
21050.0 0.00041449
21070.0 0.00041912
21090.0 0.00042379
21110.0 0.00042802
21130.0 0.00043197
21150.0 0.00043579
21170.0 0.00043924
21190.0 0.00044218
21210.0 0.00044485
21230.0 0.00044712
21250.0 0.00044881
21270.0 0.00045
21290.0 0.00045073
21310.0 0.00045087
21330.0 0.00045046
21350.0 0.00044949
21370.0 0.00044789
21390.0 0.00044573
21410.0 0.000443
21430.0 0.00043948
21450.0 0.00043544
21470.0 0.00043096
21490.0 0.00042581
21510.0 0.00042007
21530.0 0.00041412
21550.0 0.00040778
21570.0 0.0004009
21590.0 0.00039396
21610.0 0.0003871
21630.0 0.00038005
21650.0 0.00037295
21670.0 0.00036655
21690.0 0.00036039
21710.0 0.00035454
21730.0 0.00034938
21750.0 0.00034499
21770.0 0.00034108
21790.0 0.00033802
21810.0 0.00033587
21830.0 0.00033453
21850.0 0.00033405
21870.0 0.00033446
21890.0 0.00033565
21910.0 0.0003377
21930.0 0.00034055
21950.0 0.000344
21970.0 0.00034816
21990.0 0.00035319
22010.0 0.00035854
22030.0 0.00036428
22050.0 0.00037061
22070.0 0.00037731
22090.0 0.00038393
22110.0 0.00039088
22130.0 0.0003981
22150.0 0.0004051
22170.0 0.00041192
22190.0 0.00041887
22210.0 0.0004255
22230.0 0.00043144
22250.0 0.00043711
22270.0 0.00044235
22290.0 0.00044681
22310.0 0.00045058
22330.0 0.00045379
22350.0 0.00045612
22370.0 0.00045755
22390.0 0.00045815
22410.0 0.0004578
22430.0 0.00045654
22450.0 0.00045441
22470.0 0.00045128
22490.0 0.00044725
22510.0 0.00044252
22530.0 0.00043675
22550.0 0.00043
22570.0 0.00042277
22590.0 0.00041484
22610.0 0.00040595
22630.0 0.00039656
22650.0 0.00038705
22670.0 0.00037671
22690.0 0.00036584
22710.0 0.00035504
22730.0 0.00034403
22750.0 0.00033223
22770.0 0.00032082
22790.0 0.00030978
22810.0 0.00029855
22830.0 0.00028746
22850.0 0.00027719
22870.0 0.00026724
22890.0 0.00025748
22910.0 0.00024866
22930.0 0.00024076
22950.0 0.00023345
22970.0 0.00022697
22990.0 0.0002219
23010.0 0.00021775
23030.0 0.00021462
23050.0 0.00021273
23070.0 0.00021198
23090.0 0.00021237
23110.0 0.00021397
23130.0 0.00021659
23150.0 0.00022026
23170.0 0.00022506
23190.0 0.0002306
23210.0 0.0002367
23230.0 0.00024369
23250.0 0.00025117
23270.0 0.00025872
23290.0 0.00026662
23310.0 0.00027492
23330.0 0.0002827
23350.0 0.00029017
23370.0 0.0002975
23390.0 0.00030429
23410.0 0.00031018
23430.0 0.00031555
23450.0 0.00032021
23470.0 0.00032385
23490.0 0.00032657
23510.0 0.00032841
23530.0 0.00032921
23550.0 0.00032902
23570.0 0.00032788
