#lamb flux
1010.0 0.00014763
1030.0 0.00016159
1050.0 0.00017605
1070.0 0.00019232
1090.0 0.00021128
1110.0 0.00023063
1130.0 0.00025005
1150.0 0.00027038
1170.0 0.00029139
1190.0 0.00031143
1210.0 0.00033192
1230.0 0.00035333
1250.0 0.00037454
1270.0 0.00039553
1290.0 0.00041808
1310.0 0.00044107
1330.0 0.00046361
1350.0 0.00048679
1370.0 0.00051099
1390.0 0.00053492
1410.0 0.0005584
1430.0 0.0005829
1450.0 0.00060739
1470.0 0.00063103
1490.0 0.00065467
1510.0 0.00067923
1530.0 0.00070219
1550.0 0.00072439
1570.0 0.00074681
1590.0 0.00076864
1610.0 0.00078881
1630.0 0.00080878
1650.0 0.00082859
1670.0 0.00084693
1690.0 0.00086426
1710.0 0.00088167
1730.0 0.00089852
1750.0 0.00091343
1770.0 0.00092841
1790.0 0.00094335
1810.0 0.00095728
1830.0 0.00097066
1850.0 0.00098522
1870.0 0.00099933
1890.0 0.001013
1910.0 0.0010275
1930.0 0.0010431
1950.0 0.0010585
1970.0 0.0010744
1990.0 0.0010919
2010.0 0.00111
2030.0 0.0011284
2050.0 0.0011482
2070.0 0.0011693
2090.0 0.0011899
2110.0 0.0012111
2130.0 0.0012333
2150.0 0.0012553
2170.0 0.0012765
2190.0 0.0012983
2210.0 0.0013199
2230.0 0.0013402
2250.0 0.0013597
2270.0 0.0013793
2290.0 0.0013974
2310.0 0.0014137
2330.0 0.0014295
2350.0 0.0014443
2370.0 0.0014571
2390.0 0.001469
2410.0 0.0014806
2430.0 0.0014905
2450.0 0.0014988
2470.0 0.0015066
2490.0 0.0015139
2510.0 0.0015204
2530.0 0.0015301
2550.0 0.0015487
2570.0 0.0015829
2590.0 0.0016408
2610.0 0.0017424
2630.0 0.0018943
2650.0 0.0020891
2670.0 0.00233
2690.0 0.0026075
2710.0 0.0028793
2730.0 0.0031199
2750.0 0.0033215
2770.0 0.0034492
2790.0 0.0034926
2810.0 0.0034575
2830.0 0.0033424
2850.0 0.0031703
2870.0 0.0029569
2890.0 0.0027059
2910.0 0.0024346
2930.0 0.0021619
2950.0 0.0018729
2970.0 0.0015728
2990.0 0.0012777
3010.0 0.0015528
3030.0 0.0010649
3050.0 0.00057441
3070.0 0.00017175
3090.0 0.00017175
3110.0 0.00017175
3130.0 0.00017175
3150.0 0.00017175
3170.0 0.00017175
3190.0 0.00017175
3210.0 0.0054222
3230.0 0.015082
3250.0 0.020518
3270.0 0.018005
3290.0 0.013647
3310.0 0.010811
3330.0 0.010085
3350.0 0.010578
3370.0 0.011444
3390.0 0.012349
3410.0 0.013297
3430.0 0.014456
3450.0 0.015564
3470.0 0.016714
3490.0 0.016928
3510.0 0.014764
3530.0 0.013824
3550.0 0.017678
3570.0 0.022512
3590.0 0.025055
3610.0 0.025938
3630.0 0.027497
3650.0 0.027522
3670.0 0.028677
3690.0 0.033727
3710.0 0.039202
3730.0 0.0428
3750.0 0.045021
3770.0 0.045737
3790.0 0.044355
3810.0 0.041122
3830.0 0.035998
3850.0 0.028323
3870.0 0.025182
3890.0 0.028367
3910.0 0.037577
3930.0 0.046971
3950.0 0.051351
3970.0 0.053152
3990.0 0.05732
4010.0 0.059268
4030.0 0.053585
4050.0 0.040397
4070.0 0.034178
4090.0 0.038276
4110.0 0.042489
4130.0 0.045381
4150.0 0.045408
4170.0 0.04366
4190.0 0.041704
4210.0 0.044404
4230.0 0.047689
4250.0 0.050541
4270.0 0.050677
4290.0 0.049082
4310.0 0.049321
4330.0 0.054217
4350.0 0.059684
4370.0 0.060462
4390.0 0.056382
4410.0 0.050121
4430.0 0.040623
4450.0 0.033558
4470.0 0.033405
4490.0 0.037072
4510.0 0.040401
4530.0 0.042475
4550.0 0.045816
4570.0 0.059566
4590.0 0.081854
4610.0 0.097267
4630.0 0.10332
4650.0 0.11236
4670.0 0.12511
4690.0 0.12736
4710.0 0.11033
4730.0 0.086571
4750.0 0.067951
4770.0 0.057158
4790.0 0.05209
4810.0 0.050612
4830.0 0.055001
4850.0 0.064837
4870.0 0.072409
4890.0 0.074276
4910.0 0.074634
4930.0 0.082476
4950.0 0.095049
4970.0 0.10319
4990.0 0.10243
5010.0 0.092272
5030.0 0.076377
5050.0 0.06193
5070.0 0.052892
5090.0 0.049476
5110.0 0.049527
5130.0 0.050178
5150.0 0.049543
5170.0 0.047156
5190.0 0.046044
5210.0 0.048007
5230.0 0.054033
5250.0 0.064173
5270.0 0.074666
5290.0 0.081261
5310.0 0.086336
5330.0 0.093982
5350.0 0.10024
5370.0 0.09869
5390.0 0.090343
5410.0 0.082855
5430.0 0.08332
5450.0 0.093947
5470.0 0.10821
5490.0 0.11821
5510.0 0.12074
5530.0 0.11757
5550.0 0.11164
5570.0 0.10534
5590.0 0.099337
5610.0 0.094889
5630.0 0.092694
5650.0 0.090312
5670.0 0.083822
5690.0 0.073651
5710.0 0.063778
5730.0 0.057083
5750.0 0.054129
5770.0 0.054169
5790.0 0.05425
5810.0 0.053436
5830.0 0.051906
5850.0 0.048863
5870.0 0.045453
5890.0 0.043498
5910.0 0.042816
5930.0 0.041064
5950.0 0.036721
5970.0 0.030645
5990.0 0.0241
6010.0 0.019768
6030.0 0.018822
6050.0 0.020212
6070.0 0.021236
6090.0 0.020108
6110.0 0.018454
6130.0 0.018972
6150.0 0.021218
6170.0 0.023287
6190.0 0.024548
6210.0 0.024996
6230.0 0.024535
6250.0 0.022312
6270.0 0.018814
6290.0 0.015888
6310.0 0.014674
6330.0 0.01484
6350.0 0.015348
6370.0 0.016175
6390.0 0.01852
6410.0 0.022316
6430.0 0.025687
6450.0 0.027388
6470.0 0.028142
6490.0 0.028569
6510.0 0.028821
6530.0 0.02907
6550.0 0.029394
6570.0 0.030134
6590.0 0.030796
6610.0 0.030715
6630.0 0.029414
6650.0 0.027201
6670.0 0.025062
6690.0 0.023622
6710.0 0.022612
6730.0 0.021672
6750.0 0.021311
6770.0 0.021876
6790.0 0.022691
6810.0 0.023065
6830.0 0.022706
6850.0 0.021613
6870.0 0.020468
6890.0 0.019964
6910.0 0.019954
6930.0 0.020441
6950.0 0.020971
6970.0 0.021378
6990.0 0.021459
7010.0 0.020759
7030.0 0.019191
7050.0 0.017208
7070.0 0.01586
7090.0 0.015581
7110.0 0.015718
7130.0 0.014989
7150.0 0.013547
7170.0 0.013226
7190.0 0.014619
7210.0 0.016753
7230.0 0.018582
7250.0 0.019257
7270.0 0.018815
7290.0 0.017672
7310.0 0.016723
7330.0 0.016564
7350.0 0.01685
7370.0 0.01714
7390.0 0.017966
7410.0 0.019734
7430.0 0.02196
7450.0 0.023817
7470.0 0.024453
7490.0 0.02333
7510.0 0.021923
7530.0 0.021234
7550.0 0.020525
7570.0 0.01962
7590.0 0.019372
7610.0 0.019972
7630.0 0.021413
7650.0 0.023668
7670.0 0.026388
7690.0 0.028912
7710.0 0.031056
7730.0 0.033046
7750.0 0.034815
7770.0 0.035729
7790.0 0.036826
7810.0 0.037575
7830.0 0.037133
7850.0 0.036429
7870.0 0.036282
7890.0 0.037128
7910.0 0.037672
7930.0 0.037366
7950.0 0.036442
7970.0 0.035615
7990.0 0.034801
8010.0 0.034029
8030.0 0.034601
8050.0 0.03504
8070.0 0.034997
8090.0 0.03509
8110.0 0.034771
8130.0 0.035187
8150.0 0.035281
8170.0 0.034952
8190.0 0.034377
8210.0 0.03387
8230.0 0.03328
8250.0 0.033257
8270.0 0.03137
8290.0 0.026991
8310.0 0.021926
8330.0 0.018463
8350.0 0.017788
8370.0 0.020377
8390.0 0.023922
8410.0 0.025759
8430.0 0.026754
8450.0 0.028697
8470.0 0.031263
8490.0 0.034947
8510.0 0.039391
8530.0 0.044202
8550.0 0.048233
8570.0 0.051382
8590.0 0.053855
8610.0 0.055344
8630.0 0.055481
8650.0 0.054955
8670.0 0.055377
8690.0 0.058729
8710.0 0.063207
8730.0 0.065764
8750.0 0.065815
8770.0 0.067041
8790.0 0.067441
8810.0 0.064517
8830.0 0.060354
8850.0 0.054915
8870.0 0.050725
8890.0 0.049656
8910.0 0.049354
8930.0 0.046566
8950.0 0.043308
8970.0 0.042059
8990.0 0.042272
9010.0 0.041354
9030.0 0.04054
9050.0 0.04016
9070.0 0.039971
9090.0 0.039806
9110.0 0.039647
9130.0 0.039489
9150.0 0.039334
9170.0 0.039172
9190.0 0.039047
9210.0 0.038998
9230.0 0.038802
9250.0 0.03863
9270.0 0.038472
9290.0 0.038323
9310.0 0.038179
9330.0 0.038039
9350.0 0.037906
9370.0 0.037775
9390.0 0.037643
9410.0 0.037516
9430.0 0.037383
9450.0 0.037197
9470.0 0.037031
9490.0 0.036965
9510.0 0.036871
9530.0 0.036772
9550.0 0.036666
9570.0 0.036556
9590.0 0.036447
9610.0 0.036337
9630.0 0.036226
9650.0 0.036117
9670.0 0.036011
9690.0 0.035903
9710.0 0.035797
9730.0 0.035692
9750.0 0.035588
9770.0 0.035482
9790.0 0.035378
9810.0 0.035276
9830.0 0.035173
9850.0 0.035069
9870.0 0.034968
9890.0 0.034866
9910.0 0.034761
9930.0 0.034657
9950.0 0.034387
9970.0 0.034331
9990.0 0.034265
10010.0 0.034197
10030.0 0.034113
10050.0 0.034015
10070.0 0.033917
10090.0 0.033818
10110.0 0.033701
10130.0 0.033564
10150.0 0.03346
10170.0 0.033355
10190.0 0.033236
10210.0 0.033125
10230.0 0.033015
10250.0 0.03289
10270.0 0.032765
10290.0 0.032648
10310.0 0.032518
10330.0 0.032377
10350.0 0.032247
10370.0 0.032116
10390.0 0.031971
10410.0 0.031826
10430.0 0.031691
10450.0 0.031542
10470.0 0.031385
10490.0 0.031235
10510.0 0.031083
10530.0 0.03091
10550.0 0.030742
10570.0 0.030582
10590.0 0.030408
10610.0 0.030226
10630.0 0.030053
10650.0 0.029874
10670.0 0.029678
10690.0 0.029485
10710.0 0.029295
10730.0 0.029092
10750.0 0.028875
10770.0 0.028675
10790.0 0.028466
10810.0 0.028242
10830.0 0.02802
10850.0 0.027805
10870.0 0.027565
10890.0 0.027321
10910.0 0.027085
10930.0 0.02684
10950.0 0.026576
10970.0 0.026314
10990.0 0.026058
11010.0 0.028202
11030.0 0.027913
11050.0 0.027634
11070.0 0.027349
11090.0 0.027042
11110.0 0.026755
11130.0 0.026475
11150.0 0.026184
11170.0 0.025894
11190.0 0.02562
11210.0 0.02534
11230.0 0.025052
11250.0 0.024777
11270.0 0.02451
11290.0 0.024233
11310.0 0.023959
11330.0 0.023706
11350.0 0.023447
11370.0 0.023182
11390.0 0.022925
11410.0 0.022669
11430.0 0.02239
11450.0 0.022107
11470.0 0.021821
11490.0 0.021514
11510.0 0.02118
11530.0 0.020843
11550.0 0.020492
11570.0 0.020111
11590.0 0.019718
11610.0 0.019326
11630.0 0.018909
11650.0 0.018475
11670.0 0.018056
11690.0 0.017636
11710.0 0.017204
11730.0 0.01678
11750.0 0.016377
11770.0 0.015967
11790.0 0.015559
11810.0 0.015172
11830.0 0.014793
11850.0 0.014405
11870.0 0.014035
11890.0 0.013685
11910.0 0.013333
11930.0 0.012986
11950.0 0.012661
11970.0 0.012342
11990.0 0.012024
12010.0 0.011725
12030.0 0.011445
12050.0 0.011171
12070.0 0.010909
12090.0 0.010677
12110.0 0.010459
12130.0 0.010256
12150.0 0.010076
12170.0 0.0099215
12190.0 0.009783
12210.0 0.0096699
12230.0 0.0095826
12250.0 0.0095181
12270.0 0.0094777
12290.0 0.0094606
12310.0 0.0094631
12330.0 0.0094882
12350.0 0.0095323
12370.0 0.0095889
12390.0 0.0096604
12410.0 0.0097509
12430.0 0.0098425
12450.0 0.0099383
12470.0 0.010043
12490.0 0.010148
12510.0 0.010246
12530.0 0.010344
12550.0 0.01044
12570.0 0.010522
12590.0 0.010592
12610.0 0.010654
12630.0 0.010699
12650.0 0.010721
12670.0 0.010727
12690.0 0.010714
12710.0 0.010677
12730.0 0.01062
12750.0 0.010541
12770.0 0.01044
12790.0 0.010323
12810.0 0.010187
12830.0 0.010033
12850.0 0.009872
12870.0 0.0097026
12890.0 0.0095227
12910.0 0.0093407
12930.0 0.0091616
12950.0 0.0089787
12970.0 0.008796
12990.0 0.0086233
13010.0 0.0084551
13030.0 0.0082885
13050.0 0.0081292
13070.0 0.0079793
13090.0 0.0078304
13110.0 0.0076857
13130.0 0.007549
13150.0 0.0074165
13170.0 0.0072839
13190.0 0.0071584
13210.0 0.0070393
13230.0 0.0069216
13250.0 0.0068073
13270.0 0.0067001
13290.0 0.0065962
13310.0 0.0064943
13330.0 0.0063992
13350.0 0.0063101
13370.0 0.0062246
13390.0 0.0061438
13410.0 0.0060712
13430.0 0.006003
13450.0 0.0059388
13470.0 0.0058801
13490.0 0.005826
13510.0 0.0057737
13530.0 0.0057241
13550.0 0.0056768
13570.0 0.00563
13590.0 0.0055824
13610.0 0.0055348
13630.0 0.0054868
13650.0 0.0054363
13670.0 0.0053846
13690.0 0.0053327
13710.0 0.0052793
13730.0 0.0052238
13750.0 0.0051703
13770.0 0.0051176
13790.0 0.0050648
13810.0 0.0050138
13830.0 0.0049662
13850.0 0.0049196
13870.0 0.0048747
13890.0 0.0048333
13910.0 0.0047942
13930.0 0.0047561
13950.0 0.0047198
13970.0 0.004686
13990.0 0.0046521
14010.0 0.0046181
14030.0 0.0045847
14050.0 0.0045508
14070.0 0.0045144
14090.0 0.0044773
14110.0 0.0044395
14130.0 0.0043995
14150.0 0.0043571
14170.0 0.0043154
14190.0 0.0042731
14210.0 0.0042292
14230.0 0.0041865
14250.0 0.0041461
14270.0 0.004106
14290.0 0.004068
14310.0 0.0040347
14330.0 0.0040048
14350.0 0.0039779
14370.0 0.0039555
14390.0 0.0039377
14410.0 0.0039228
14430.0 0.0039115
14450.0 0.0039036
14470.0 0.0038981
14490.0 0.0038945
14510.0 0.0038927
14530.0 0.0038924
14550.0 0.0038931
14570.0 0.003895
14590.0 0.0038984
14610.0 0.0039036
14630.0 0.0039114
14650.0 0.0039223
14670.0 0.003937
14690.0 0.0039568
14710.0 0.0039828
14730.0 0.004014
14750.0 0.0040526
14770.0 0.0041002
14790.0 0.0041553
14810.0 0.0042178
14830.0 0.0042936
14850.0 0.0043785
14870.0 0.0044699
14890.0 0.0045709
14910.0 0.004681
14930.0 0.0047911
14950.0 0.0048983
14970.0 0.0050043
14990.0 0.0050993
15010.0 0.0051791
15030.0 0.0052462
15050.0 0.0053006
15070.0 0.0053409
15090.0 0.0053728
15110.0 0.005399
15130.0 0.0054215
15150.0 0.0054421
15170.0 0.005462
15190.0 0.0054817
15210.0 0.0055017
15230.0 0.005522
15250.0 0.0055426
15270.0 0.0055637
15290.0 0.0055852
15310.0 0.005607
15330.0 0.0056293
15350.0 0.005652
15370.0 0.005675
15390.0 0.0056984
15410.0 0.0057222
15430.0 0.0057463
15450.0 0.0057708
15470.0 0.0057956
15490.0 0.0058208
15510.0 0.0058464
15530.0 0.0058722
15550.0 0.0058984
15570.0 0.0059249
15590.0 0.0059517
15610.0 0.0059788
15630.0 0.0060062
15650.0 0.0060339
15670.0 0.0060618
15690.0 0.0060901
15710.0 0.0061186
15730.0 0.0061474
15750.0 0.0061764
15770.0 0.0062056
15790.0 0.0062351
15810.0 0.0062648
15830.0 0.0062947
15850.0 0.0063248
15870.0 0.0063551
15890.0 0.0063856
15910.0 0.0064163
15930.0 0.0064471
15950.0 0.006478
15970.0 0.0065092
15990.0 0.0065404
16010.0 0.0065718
16030.0 0.0066033
16050.0 0.0066349
16070.0 0.0066666
16090.0 0.0066984
16110.0 0.0067302
16130.0 0.0067622
16150.0 0.0067941
16170.0 0.0068261
16190.0 0.0068581
16210.0 0.0068901
16230.0 0.0069221
16250.0 0.0069542
16270.0 0.0069862
16290.0 0.0070182
16310.0 0.0070501
16330.0 0.007082
16350.0 0.0071138
16370.0 0.0071454
16390.0 0.0071771
16410.0 0.0072086
16430.0 0.00724
16450.0 0.0072713
16470.0 0.0073024
16490.0 0.0073334
16510.0 0.0073641
16530.0 0.0073948
16550.0 0.0074252
16570.0 0.0074554
16590.0 0.0074853
16610.0 0.0075151
16630.0 0.0075446
16650.0 0.0075738
16670.0 0.0076028
16690.0 0.0076315
16710.0 0.0076599
16730.0 0.007688
16750.0 0.0077157
16770.0 0.0077432
16790.0 0.0077702
16810.0 0.0077969
16830.0 0.0078233
16850.0 0.0078492
16870.0 0.0078748
16890.0 0.0079
16910.0 0.0079247
16930.0 0.007949
16950.0 0.0079729
16970.0 0.0079963
16990.0 0.0080192
17010.0 0.0080417
17030.0 0.0080637
17050.0 0.0080852
17070.0 0.0081062
17090.0 0.0081267
17110.0 0.0081466
17130.0 0.0081659
17150.0 0.0081848
17170.0 0.0082031
17190.0 0.0082209
17210.0 0.008238
17230.0 0.0082546
17250.0 0.0082706
17270.0 0.0082859
17290.0 0.0083007
17310.0 0.0083149
17330.0 0.0083284
17350.0 0.0083413
17370.0 0.0083536
17390.0 0.0083653
17410.0 0.0083762
17430.0 0.0083866
17450.0 0.0083963
17470.0 0.0084053
17490.0 0.0084136
17510.0 0.0084213
17530.0 0.0084283
17550.0 0.0084345
17570.0 0.0084402
17590.0 0.0084452
17610.0 0.0084494
17630.0 0.0084529
17650.0 0.0084558
17670.0 0.0084579
17690.0 0.0084593
17710.0 0.0084601
17730.0 0.0084602
17750.0 0.0084595
17770.0 0.0084581
17790.0 0.0084561
17810.0 0.0084533
17830.0 0.0084498
17850.0 0.0084457
17870.0 0.0084408
17890.0 0.0084352
17910.0 0.0084289
17930.0 0.008422
17950.0 0.0084143
17970.0 0.008406
17990.0 0.008397
18010.0 0.0083873
18030.0 0.0083768
18050.0 0.0083658
18070.0 0.0083541
18090.0 0.0083417
18110.0 0.0083286
18130.0 0.0083149
18150.0 0.0083006
18170.0 0.0082856
18190.0 0.0082699
18210.0 0.0082537
18230.0 0.0082368
18250.0 0.0082192
18270.0 0.0082011
18290.0 0.0081824
18310.0 0.0081631
18330.0 0.0081432
18350.0 0.0081227
18370.0 0.0081017
18390.0 0.00808
18410.0 0.0080579
18430.0 0.0080351
18450.0 0.0080118
18470.0 0.007988
18490.0 0.0079638
18510.0 0.0079389
18530.0 0.0079136
18550.0 0.0078878
18570.0 0.0078615
18590.0 0.0078347
18610.0 0.0078075
18630.0 0.0077798
18650.0 0.0077516
18670.0 0.007723
18690.0 0.0076941
18710.0 0.0076647
18730.0 0.0076348
18750.0 0.0076047
18770.0 0.0075741
18790.0 0.0075431
18810.0 0.0075118
18830.0 0.0074802
18850.0 0.0074481
18870.0 0.0074158
18890.0 0.0073832
18910.0 0.0073502
18930.0 0.0073169
18950.0 0.0072834
18970.0 0.0072496
18990.0 0.0072155
19010.0 0.0071811
19030.0 0.0071465
19050.0 0.0071117
19070.0 0.0070767
19090.0 0.0070414
19110.0 0.007006
19130.0 0.0069703
19150.0 0.0069344
19170.0 0.0068984
19190.0 0.0068623
19210.0 0.0068259
19230.0 0.0067894
19250.0 0.0067528
19270.0 0.0067161
19290.0 0.0066792
19310.0 0.0066423
19330.0 0.0066052
19350.0 0.006568
19370.0 0.0065308
19390.0 0.0064936
19410.0 0.0064562
19430.0 0.0064188
19450.0 0.0063814
19470.0 0.0063439
19490.0 0.0063063
19510.0 0.0062688
19530.0 0.0062313
19550.0 0.0061937
19570.0 0.0061562
19590.0 0.0061187
19610.0 0.0060812
19630.0 0.0060437
19650.0 0.0060062
19670.0 0.0059689
19690.0 0.0059315
19710.0 0.0058942
19730.0 0.005857
19750.0 0.0058198
19770.0 0.0057827
19790.0 0.0057457
19810.0 0.0057088
19830.0 0.0056718
19850.0 0.0056346
19870.0 0.0055971
19890.0 0.0055585
19910.0 0.0055179
19930.0 0.0054742
19950.0 0.0054258
19970.0 0.00537
19990.0 0.0053054
20010.0 0.0052333
20030.0 0.0051505
20050.0 0.0050576
20070.0 0.0049596
20090.0 0.0048572
20110.0 0.0047472
20130.0 0.0046384
20150.0 0.0045326
20170.0 0.0044262
20190.0 0.004321
20210.0 0.0042219
20230.0 0.004126
20250.0 0.004031
20270.0 0.0039415
20290.0 0.0038578
20310.0 0.0037767
20330.0 0.0036985
20350.0 0.0036283
20370.0 0.0035617
20390.0 0.0034984
20410.0 0.0034401
20430.0 0.003387
20450.0 0.0033363
20470.0 0.0032896
20490.0 0.0032474
20510.0 0.0032083
20530.0 0.0031719
20550.0 0.0031387
20570.0 0.0031085
20590.0 0.0030801
20610.0 0.0030538
20630.0 0.0030293
20650.0 0.0030062
20670.0 0.0029842
20690.0 0.0029631
20710.0 0.0029426
20730.0 0.0029224
20750.0 0.0029023
20770.0 0.002882
20790.0 0.0028615
20810.0 0.0028403
20830.0 0.0028186
20850.0 0.0027962
20870.0 0.0027728
20890.0 0.0027484
20910.0 0.0027235
20930.0 0.0026976
20950.0 0.0026706
20970.0 0.0026432
20990.0 0.0026153
21010.0 0.0025862
21030.0 0.0025568
21050.0 0.0025275
21070.0 0.0024976
21090.0 0.0024671
21110.0 0.0024373
21130.0 0.0024076
21150.0 0.0023776
21170.0 0.002348
21190.0 0.0023192
21210.0 0.0022903
21230.0 0.0022615
21250.0 0.0022339
21270.0 0.0022068
21290.0 0.00218
21310.0 0.0021539
21330.0 0.002129
21350.0 0.0021045
21370.0 0.0020807
21390.0 0.002058
21410.0 0.0020363
21430.0 0.0020149
21450.0 0.0019948
21470.0 0.0019758
21490.0 0.0019576
21510.0 0.0019403
21530.0 0.0019241
21550.0 0.0019088
21570.0 0.0018942
21590.0 0.0018806
21610.0 0.0018678
21630.0 0.0018557
21650.0 0.0018443
21670.0 0.0018336
21690.0 0.0018234
21710.0 0.0018138
21730.0 0.0018046
21750.0 0.0017957
21770.0 0.0017873
21790.0 0.0017792
21810.0 0.0017713
21830.0 0.0017637
21850.0 0.0017563
21870.0 0.0017489
21890.0 0.0017416
21910.0 0.0017345
21930.0 0.0017273
21950.0 0.0017201
21970.0 0.0017128
21990.0 0.0017055
22010.0 0.0016979
22030.0 0.0016902
22050.0 0.0016823
22070.0 0.0016742
22090.0 0.0016658
22110.0 0.0016572
22130.0 0.0016483
22150.0 0.0016393
22170.0 0.00163
22190.0 0.0016204
22210.0 0.0016105
22230.0 0.0016005
22250.0 0.0015903
22270.0 0.0015797
22290.0 0.0015689
22310.0 0.0015579
22330.0 0.0015464
22350.0 0.0015345
22370.0 0.0015224
22390.0 0.0015096
22410.0 0.001496
22430.0 0.0014821
22450.0 0.0014677
22470.0 0.0014522
22490.0 0.0014361
22510.0 0.0014196
22530.0 0.001402
22550.0 0.0013834
22570.0 0.0013646
22590.0 0.0013454
22610.0 0.0013251
22630.0 0.0013047
22650.0 0.0012847
22670.0 0.001264
22690.0 0.0012432
22710.0 0.001223
22730.0 0.0012032
22750.0 0.0011829
22770.0 0.0011638
22790.0 0.0011457
22810.0 0.0011279
22830.0 0.0011108
22850.0 0.001095
22870.0 0.00108
22890.0 0.0010653
22910.0 0.0010519
22930.0 0.0010394
22950.0 0.0010275
22970.0 0.0010161
22990.0 0.0010059
23010.0 0.00099608
23030.0 0.00098664
23050.0 0.00097778
23070.0 0.00096943
23090.0 0.00096106
23110.0 0.00095298
23130.0 0.00094524
23150.0 0.00093756
23170.0 0.00092983
23190.0 0.00092232
23210.0 0.00091502
23230.0 0.00090762
23250.0 0.00090035
23270.0 0.00089339
23290.0 0.00088653
23310.0 0.00087971
23330.0 0.00087337
23350.0 0.00086734
23370.0 0.00086152
23390.0 0.00085604
23410.0 0.000851
23430.0 0.00084619
23450.0 0.00084162
23470.0 0.0008374
23490.0 0.00083343
23510.0 0.00082961
23530.0 0.000826
23550.0 0.00082263
23570.0 0.00081938
23590.0 0.00081628
23610.0 0.00081339
23630.0 0.0008107
23650.0 0.00080825
23670.0 0.00080613
23690.0 0.00080438
23710.0 0.00080311
23730.0 0.00080247
23750.0 0.00080242
23770.0 0.00080311
23790.0 0.00080476
23810.0 0.00080734
23830.0 0.00081075
23850.0 0.00081547
23870.0 0.00082147
23890.0 0.00082822
23910.0 0.00083602
23930.0 0.00084514
23950.0 0.00085496
23970.0 0.00086501
23990.0 0.00087609
24010.0 0.00088766
24030.0 0.00089898
24050.0 0.00091035
24070.0 0.00092233
24090.0 0.00093354
24110.0 0.00094411
24130.0 0.00095472
24150.0 0.00096503
24170.0 0.00097446
24190.0 0.00098375
24210.0 0.00099311
24230.0 0.0010019
