#lamb flux
1010.0 5.59e-09
1030.0 6.1825e-09
1050.0 6.8641e-09
1070.0 7.6313e-09
1090.0 8.5028e-09
1110.0 9.3967e-09
1130.0 1.0296e-08
1150.0 1.1239e-08
1170.0 1.2211e-08
1190.0 1.3133e-08
1210.0 1.4067e-08
1230.0 1.5032e-08
1250.0 1.5978e-08
1270.0 1.6896e-08
1290.0 1.7867e-08
1310.0 1.8837e-08
1330.0 1.9767e-08
1350.0 2.0708e-08
1370.0 2.1679e-08
1390.0 2.2626e-08
1410.0 2.3544e-08
1430.0 2.4505e-08
1450.0 2.5465e-08
1470.0 2.6393e-08
1490.0 2.7332e-08
1510.0 2.8323e-08
1530.0 2.9262e-08
1550.0 3.0189e-08
1570.0 3.1148e-08
1590.0 3.2108e-08
1610.0 3.3026e-08
1630.0 3.3973e-08
1650.0 3.4944e-08
1670.0 3.5885e-08
1690.0 3.6814e-08
1710.0 3.7779e-08
1730.0 3.8751e-08
1750.0 3.9665e-08
1770.0 4.0608e-08
1790.0 4.157e-08
1810.0 4.2503e-08
1830.0 4.3421e-08
1850.0 4.4397e-08
1870.0 4.5349e-08
1890.0 4.6271e-08
1910.0 4.7212e-08
1930.0 4.8179e-08
1950.0 4.9104e-08
1970.0 5.0019e-08
1990.0 5.0971e-08
2010.0 5.191e-08
2030.0 5.2817e-08
2050.0 5.3754e-08
2070.0 5.4717e-08
2090.0 5.5627e-08
2110.0 5.6537e-08
2130.0 5.7476e-08
2150.0 5.8399e-08
2170.0 5.9283e-08
2190.0 6.0203e-08
2210.0 6.113e-08
2230.0 6.2021e-08
2250.0 6.2909e-08
2270.0 6.3839e-08
2290.0 6.4741e-08
2310.0 6.5608e-08
2330.0 6.651e-08
2350.0 6.7436e-08
2370.0 6.8358e-08
2390.0 6.9357e-08
2410.0 7.0541e-08
2430.0 7.1902e-08
2450.0 7.3529e-08
2470.0 7.5614e-08
2490.0 7.8242e-08
2510.0 8.1228e-08
2530.0 8.4824e-08
2550.0 8.9324e-08
2570.0 9.4923e-08
2590.0 1.0221e-07
2610.0 1.1311e-07
2630.0 1.2868e-07
2650.0 1.4903e-07
2670.0 1.7535e-07
2690.0 2.0769e-07
2710.0 2.4221e-07
2730.0 2.7632e-07
2750.0 3.0992e-07
2770.0 3.3915e-07
2790.0 3.6235e-07
2810.0 3.8077e-07
2830.0 3.9516e-07
2850.0 4.0498e-07
2870.0 4.1219e-07
2890.0 4.179e-07
2910.0 4.2246e-07
2930.0 4.2618e-07
2950.0 4.2973e-07
2970.0 4.3321e-07
2990.0 4.3646e-07
3010.0 1.2337e-05
3030.0 1.2429e-05
3050.0 1.2518e-05
3070.0 1.2595e-05
3090.0 1.266e-05
3110.0 1.2701e-05
3130.0 1.2699e-05
3150.0 1.2643e-05
3170.0 1.2508e-05
3190.0 1.2295e-05
3210.0 1.2025e-05
3230.0 1.1717e-05
3250.0 1.1412e-05
3270.0 1.1189e-05
3290.0 1.1066e-05
3310.0 1.1086e-05
3330.0 1.1246e-05
3350.0 1.1525e-05
3370.0 1.1924e-05
3390.0 1.2427e-05
3410.0 1.2974e-05
3430.0 1.3588e-05
3450.0 1.4296e-05
3470.0 1.5068e-05
3490.0 1.5886e-05
3510.0 1.6811e-05
3530.0 1.7802e-05
3550.0 1.8805e-05
3570.0 1.9851e-05
3590.0 2.0989e-05
3610.0 2.2161e-05
3630.0 2.333e-05
3650.0 2.4542e-05
3670.0 2.5649e-05
3690.0 2.6477e-05
3710.0 2.6951e-05
3730.0 2.6967e-05
3750.0 2.6591e-05
3770.0 2.6444e-05
3790.0 2.6287e-05
3810.0 2.5641e-05
3830.0 2.6434e-05
3850.0 2.9557e-05
3870.0 3.1271e-05
3890.0 3.1128e-05
3910.0 3.1261e-05
3930.0 3.2084e-05
3950.0 3.259e-05
3970.0 2.9693e-05
3990.0 2.5549e-05
4010.0 7.6574e-05
4030.0 9.2781e-05
4050.0 0.00010637
4070.0 9.2291e-05
4090.0 8.3588e-05
4110.0 7.3758e-05
4130.0 6.7887e-05
4150.0 7.2211e-05
4170.0 7.1131e-05
4190.0 7.5821e-05
4210.0 7.5127e-05
4230.0 7.9464e-05
4250.0 9.4008e-05
4270.0 9.5113e-05
4290.0 8.7646e-05
4310.0 9.107e-05
4330.0 9.6872e-05
4350.0 0.00010862
4370.0 0.00012361
4390.0 0.00011599
4410.0 8.5699e-05
4430.0 7.2549e-05
4450.0 6.6665e-05
4470.0 5.1168e-05
4490.0 5.5216e-05
4510.0 8.3405e-05
4530.0 9.6191e-05
4550.0 9.7025e-05
4570.0 0.00010918
4590.0 0.00012436
4610.0 0.00016774
4630.0 0.00021786
4650.0 0.00023626
4670.0 0.0002188
4690.0 0.00020878
4710.0 0.00022069
4730.0 0.00020827
4750.0 0.00015571
4770.0 0.00011422
4790.0 0.00010666
4810.0 0.00010166
4830.0 9.307e-05
4850.0 0.00010213
4870.0 0.00013492
4890.0 0.00015911
4910.0 0.0001396
4930.0 0.00012353
4950.0 0.00013571
4970.0 0.00017404
4990.0 0.00023587
5010.0 0.00027133
5030.0 0.00023925
5050.0 0.00016187
5070.0 0.00010668
5090.0 8.6021e-05
5110.0 8.8464e-05
5130.0 0.0001021
5150.0 0.00011062
5170.0 0.00010896
5190.0 0.00010182
5210.0 0.00010642
5230.0 0.00011187
5250.0 0.00012057
5270.0 0.00013008
5290.0 0.00014416
5310.0 0.0001678
5330.0 0.00018569
5350.0 0.00018451
5370.0 0.00019381
5390.0 0.0002224
5410.0 0.0002222
5430.0 0.0001965
5450.0 0.00018054
5470.0 0.0001917
5490.0 0.00023421
5510.0 0.00029285
5530.0 0.00033588
5550.0 0.00032463
5570.0 0.00029512
5590.0 0.00025661
5610.0 0.00023665
5630.0 0.00022948
5650.0 0.00021856
5670.0 0.0002071
5690.0 0.00018515
5710.0 0.00018052
5730.0 0.00016629
5750.0 0.00011724
5770.0 9.147e-05
5790.0 0.00010366
5810.0 0.00011705
5830.0 0.00014363
5850.0 0.00017098
5870.0 0.0001897
5890.0 0.00019292
5910.0 0.00018927
5930.0 0.00018016
5950.0 0.00018358
5970.0 0.00020926
5990.0 0.00019676
6010.0 0.00016495
6030.0 0.00013935
6050.0 0.00012136
6070.0 0.0001207
6090.0 0.00013088
6110.0 0.00014634
6130.0 0.00014858
6150.0 0.00012784
6170.0 0.00011246
6190.0 0.00012656
6210.0 0.00016731
6230.0 0.00021956
6250.0 0.00023781
6270.0 0.00020781
6290.0 0.00017484
6310.0 0.0001365
6330.0 0.00010458
6350.0 9.3285e-05
6370.0 9.8099e-05
6390.0 0.00011341
6410.0 0.00013984
6430.0 0.00016329
6450.0 0.00018685
6470.0 0.00021394
6490.0 0.00025843
6510.0 0.00028896
6530.0 0.00028349
6550.0 0.00025635
6570.0 0.00021762
6590.0 0.00019623
6610.0 0.0001692
6630.0 0.00015329
6650.0 0.0001449
6670.0 0.00014077
6690.0 0.00012719
6710.0 0.00011562
6730.0 8.328e-05
6750.0 8.2564e-05
6770.0 8.9741e-05
6790.0 0.00010315
6810.0 9.4384e-05
6830.0 9.719e-05
6850.0 9.0904e-05
6870.0 8.304e-05
6890.0 7.9731e-05
6910.0 8.4964e-05
6930.0 7.9581e-05
6950.0 8.1875e-05
6970.0 8.6118e-05
6990.0 9.7751e-05
7010.0 9.8584e-05
7030.0 0.00010015
7050.0 9.5509e-05
7070.0 9.1003e-05
7090.0 9.1269e-05
7110.0 9.3909e-05
7130.0 0.00010106
7150.0 0.00010733
7170.0 0.00011844
7190.0 0.00013019
7210.0 0.00012793
7230.0 0.00013152
7250.0 0.00014134
7270.0 0.00015402
7290.0 0.00018281
7310.0 0.00019837
7330.0 0.00019174
7350.0 0.00017341
7370.0 0.00015089
7390.0 0.00014638
7410.0 0.00015556
7430.0 0.00017288
7450.0 0.0001883
7470.0 0.00018657
7490.0 0.00017011
7510.0 0.0001927
7530.0 0.00019059
7550.0 0.0001713
7570.0 0.00013382
7590.0 9.1996e-05
7610.0 7.8961e-05
7630.0 8.9714e-05
7650.0 0.00010607
7670.0 0.00013202
7690.0 0.00014527
7710.0 0.00015139
7730.0 0.0001591
7750.0 0.0001786
7770.0 0.00018141
7790.0 0.00016663
7810.0 0.00015204
7830.0 0.00015679
7850.0 0.00015242
7870.0 0.00013974
7890.0 0.00011741
7910.0 9.5437e-05
7930.0 9.1128e-05
7950.0 8.302e-05
7970.0 7.685e-05
7990.0 7.6411e-05
8010.0 5.6592e-06
8030.0 5.5857e-06
8050.0 5.5103e-06
8070.0 5.5825e-06
8090.0 5.9982e-06
8110.0 5.896e-06
8130.0 4.8635e-06
8150.0 4.7365e-06
8170.0 4.0798e-06
8190.0 3.8665e-06
8210.0 5.021e-06
8230.0 5.5902e-06
8250.0 5.0384e-06
8270.0 4.3852e-06
8290.0 4.2748e-06
8310.0 3.29e-06
8330.0 2.2175e-06
8350.0 1.5737e-06
8370.0 9.9152e-07
8390.0 1.8125e-06
8410.0 2.112e-06
8430.0 2.6034e-06
8450.0 3.0571e-06
8470.0 3.7998e-06
8490.0 3.773e-06
8510.0 3.7113e-06
8530.0 3.8732e-06
8550.0 5.2257e-06
8570.0 6.1865e-06
8590.0 6.6752e-06
8610.0 8.4322e-06
8630.0 1.0158e-05
8650.0 1.0626e-05
8670.0 1.1292e-05
8690.0 1.1356e-05
8710.0 1.0284e-05
8730.0 9.5658e-06
8750.0 8.4436e-06
8770.0 8.0117e-06
8790.0 7.8711e-06
8810.0 7.5422e-06
8830.0 6.0312e-06
8850.0 4.4152e-06
8870.0 3.3807e-06
8890.0 3.3052e-06
8910.0 3.7878e-06
8930.0 4.3083e-06
8950.0 4.3908e-06
8970.0 4.4116e-06
8990.0 3.9346e-06
9010.0 4.1233e-05
9030.0 3.7362e-05
9050.0 3.7542e-05
9070.0 3.7838e-05
9090.0 3.8098e-05
9110.0 3.8419e-05
9130.0 3.8667e-05
9150.0 3.886e-05
9170.0 3.9065e-05
9190.0 3.9284e-05
9210.0 3.9515e-05
9230.0 3.9758e-05
9250.0 4.0005e-05
9270.0 4.0262e-05
9290.0 4.0527e-05
9310.0 4.0793e-05
9330.0 4.1064e-05
9350.0 4.1346e-05
9370.0 4.163e-05
9390.0 4.1918e-05
9410.0 4.2214e-05
9430.0 4.2519e-05
9450.0 4.2822e-05
9470.0 4.3132e-05
9490.0 4.3451e-05
9510.0 4.3774e-05
9530.0 4.4098e-05
9550.0 4.4434e-05
9570.0 4.4775e-05
9590.0 4.5117e-05
9610.0 4.5466e-05
9630.0 4.5823e-05
9650.0 4.6184e-05
9670.0 4.6545e-05
9690.0 4.6916e-05
9710.0 4.7293e-05
9730.0 4.767e-05
9750.0 4.8053e-05
9770.0 4.8448e-05
9790.0 4.8842e-05
9810.0 4.9238e-05
9830.0 4.9642e-05
9850.0 5.0051e-05
9870.0 5.0459e-05
9890.0 5.0874e-05
9910.0 5.1296e-05
9930.0 5.1719e-05
9950.0 5.2143e-05
9970.0 5.2575e-05
9990.0 5.3012e-05
10010.0 4.6001e-05
10030.0 4.6378e-05
10050.0 4.6764e-05
10070.0 4.7162e-05
10090.0 4.7538e-05
10110.0 4.7923e-05
10130.0 4.8309e-05
10150.0 4.8694e-05
10170.0 4.9084e-05
10190.0 4.9481e-05
10210.0 4.9873e-05
10230.0 5.0264e-05
10250.0 5.0661e-05
10270.0 5.1058e-05
10290.0 5.1449e-05
10310.0 5.1846e-05
10330.0 5.2247e-05
10350.0 5.2641e-05
10370.0 5.3034e-05
10390.0 5.3431e-05
10410.0 5.3826e-05
10430.0 5.4214e-05
10450.0 5.4605e-05
10470.0 5.4998e-05
10490.0 5.5384e-05
10510.0 5.5767e-05
10530.0 5.6156e-05
10550.0 5.6539e-05
10570.0 5.6914e-05
10590.0 5.7292e-05
10610.0 5.7668e-05
10630.0 5.8036e-05
10650.0 5.84e-05
10670.0 5.8768e-05
10690.0 5.9129e-05
10710.0 5.9483e-05
10730.0 5.9837e-05
10750.0 6.0191e-05
10770.0 6.0531e-05
10790.0 6.0869e-05
10810.0 6.1206e-05
10830.0 6.1532e-05
10850.0 6.1842e-05
10870.0 6.2142e-05
10890.0 6.2407e-05
10910.0 6.261e-05
10930.0 6.2725e-05
10950.0 6.2698e-05
10970.0 6.2486e-05
10990.0 6.2069e-05
11010.0 6.1372e-05
11030.0 6.0396e-05
11050.0 5.9206e-05
11070.0 5.7783e-05
11090.0 5.6074e-05
11110.0 5.4305e-05
11130.0 5.2461e-05
11150.0 5.0474e-05
11170.0 4.8427e-05
11190.0 4.6441e-05
11210.0 4.4391e-05
11230.0 4.2288e-05
11250.0 4.0278e-05
11270.0 3.8349e-05
11290.0 3.6415e-05
11310.0 3.4584e-05
11330.0 3.2971e-05
11350.0 3.1447e-05
11370.0 3.0039e-05
11390.0 2.8821e-05
11410.0 2.7756e-05
11430.0 2.6766e-05
11450.0 2.5912e-05
11470.0 2.5175e-05
11490.0 2.4488e-05
11510.0 2.3827e-05
11530.0 2.3213e-05
11550.0 2.2603e-05
11570.0 2.1953e-05
11590.0 2.1279e-05
11610.0 2.0594e-05
11630.0 1.9847e-05
11650.0 1.9048e-05
11670.0 1.8261e-05
11690.0 1.7462e-05
11710.0 1.6639e-05
11730.0 1.584e-05
11750.0 1.5102e-05
11770.0 1.4377e-05
11790.0 1.3698e-05
11810.0 1.3101e-05
11830.0 1.2566e-05
11850.0 1.2074e-05
11870.0 1.1662e-05
11890.0 1.132e-05
11910.0 1.1019e-05
11930.0 1.076e-05
11950.0 1.0545e-05
11970.0 1.0352e-05
11990.0 1.0171e-05
12010.0 1.0002e-05
12030.0 9.8402e-06
12050.0 9.6726e-06
12070.0 9.4983e-06
12090.0 9.3302e-06
12110.0 9.1596e-06
12130.0 8.9887e-06
12150.0 8.8311e-06
12170.0 8.6935e-06
12190.0 8.5745e-06
12210.0 8.4915e-06
12230.0 8.4514e-06
12250.0 8.4578e-06
12270.0 8.5216e-06
12290.0 8.6422e-06
12310.0 8.8151e-06
12330.0 9.0571e-06
12350.0 9.359e-06
12370.0 9.7028e-06
12390.0 1.0099e-05
12410.0 1.0564e-05
12430.0 1.1036e-05
12450.0 1.1525e-05
12470.0 1.2044e-05
12490.0 1.2566e-05
12510.0 1.3056e-05
12530.0 1.3544e-05
12550.0 1.4014e-05
12570.0 1.4429e-05
12590.0 1.4793e-05
12610.0 1.5117e-05
12630.0 1.5376e-05
12650.0 1.5555e-05
12670.0 1.5672e-05
12690.0 1.5719e-05
12710.0 1.5693e-05
12730.0 1.5602e-05
12750.0 1.544e-05
12770.0 1.5217e-05
12790.0 1.4947e-05
12810.0 1.4625e-05
12830.0 1.4252e-05
12850.0 1.3861e-05
12870.0 1.3449e-05
12890.0 1.3002e-05
12910.0 1.2548e-05
12930.0 1.2101e-05
12950.0 1.1634e-05
12970.0 1.1159e-05
12990.0 1.071e-05
13010.0 1.0266e-05
13030.0 9.8169e-06
13050.0 9.3858e-06
13070.0 8.9819e-06
13090.0 8.5766e-06
13110.0 8.1845e-06
13130.0 7.823e-06
13150.0 7.4807e-06
13170.0 7.1455e-06
13190.0 6.8472e-06
13210.0 6.5847e-06
13230.0 6.3447e-06
13250.0 6.138e-06
13270.0 5.975e-06
13290.0 5.8482e-06
13310.0 5.7609e-06
13330.0 5.7212e-06
13350.0 5.7258e-06
13370.0 5.7771e-06
13390.0 5.878e-06
13410.0 6.0144e-06
13430.0 6.1916e-06
13450.0 6.4105e-06
13470.0 6.6536e-06
13490.0 6.9109e-06
13510.0 7.2013e-06
13530.0 7.4955e-06
13550.0 7.7772e-06
13570.0 8.055e-06
13590.0 8.3257e-06
13610.0 8.5665e-06
13630.0 8.7767e-06
13650.0 8.9687e-06
13670.0 9.128e-06
13690.0 9.2512e-06
13710.0 9.3465e-06
13730.0 9.4145e-06
13750.0 9.4486e-06
13770.0 9.4563e-06
13790.0 9.4391e-06
13810.0 9.3974e-06
13830.0 9.3359e-06
13850.0 9.2524e-06
13870.0 9.1473e-06
13890.0 9.027e-06
13910.0 8.8914e-06
13930.0 8.7344e-06
13950.0 8.5631e-06
13970.0 8.3879e-06
13990.0 8.197e-06
14010.0 7.9942e-06
14030.0 7.7918e-06
14050.0 7.5878e-06
14070.0 7.3725e-06
14090.0 7.1661e-06
14110.0 6.9722e-06
14130.0 6.7843e-06
14150.0 6.6074e-06
14170.0 6.4564e-06
14190.0 6.3258e-06
14210.0 6.2151e-06
14230.0 6.1331e-06
14250.0 6.0801e-06
14270.0 6.0544e-06
14290.0 6.0599e-06
14310.0 6.0936e-06
14330.0 6.1543e-06
14350.0 6.2435e-06
14370.0 6.3547e-06
14390.0 6.481e-06
14410.0 6.6298e-06
14430.0 6.7931e-06
14450.0 6.9599e-06
14470.0 7.133e-06
14490.0 7.317e-06
14510.0 7.493e-06
14530.0 7.6602e-06
14550.0 7.8273e-06
14570.0 7.9877e-06
14590.0 8.1337e-06
14610.0 8.2749e-06
14630.0 8.4147e-06
14650.0 8.5449e-06
14670.0 8.6706e-06
14690.0 8.8016e-06
14710.0 8.9395e-06
14730.0 9.0772e-06
14750.0 9.2299e-06
14770.0 9.4031e-06
14790.0 9.5909e-06
14810.0 9.7943e-06
14830.0 1.0035e-05
14850.0 1.0297e-05
14870.0 1.0571e-05
14890.0 1.0865e-05
14910.0 1.1179e-05
14930.0 1.148e-05
14950.0 1.1761e-05
14970.0 1.2027e-05
14990.0 1.2251e-05
15010.0 1.2422e-05
15030.0 1.2548e-05
15050.0 1.2632e-05
15070.0 1.2673e-05
15090.0 1.2687e-05
15110.0 1.2683e-05
15130.0 1.2667e-05
15150.0 1.2645e-05
15170.0 1.262e-05
15190.0 1.2593e-05
15210.0 1.2566e-05
15230.0 1.254e-05
15250.0 1.2512e-05
15270.0 1.2484e-05
15290.0 1.2459e-05
15310.0 1.2432e-05
15330.0 1.2405e-05
15350.0 1.2379e-05
15370.0 1.2353e-05
15390.0 1.2326e-05
15410.0 1.23e-05
15430.0 1.2275e-05
15450.0 1.2249e-05
15470.0 1.2223e-05
15490.0 1.2198e-05
15510.0 1.2173e-05
15530.0 1.2148e-05
15550.0 1.2122e-05
15570.0 1.2098e-05
15590.0 1.2073e-05
15610.0 1.2047e-05
15630.0 1.2023e-05
15650.0 1.1999e-05
15670.0 1.1973e-05
15690.0 1.1949e-05
15710.0 1.1925e-05
15730.0 1.1901e-05
15750.0 1.1876e-05
15770.0 1.1852e-05
15790.0 1.1828e-05
15810.0 1.1803e-05
15830.0 1.1779e-05
15850.0 1.1756e-05
15870.0 1.1732e-05
15890.0 1.1708e-05
15910.0 1.1684e-05
15930.0 1.1661e-05
15950.0 1.1636e-05
15970.0 1.1612e-05
15990.0 1.1589e-05
16010.0 1.1565e-05
16030.0 1.1541e-05
16050.0 1.1518e-05
16070.0 1.1495e-05
16090.0 1.147e-05
16110.0 1.1447e-05
16130.0 1.1424e-05
16150.0 1.14e-05
16170.0 1.1376e-05
16190.0 1.1353e-05
16210.0 1.1329e-05
16230.0 1.1305e-05
16250.0 1.1282e-05
16270.0 1.1259e-05
16290.0 1.1235e-05
16310.0 1.1211e-05
16330.0 1.1188e-05
16350.0 1.1164e-05
16370.0 1.114e-05
16390.0 1.1116e-05
16410.0 1.1093e-05
16430.0 1.1069e-05
16450.0 1.1045e-05
16470.0 1.1022e-05
16490.0 1.0998e-05
16510.0 1.0974e-05
16530.0 1.095e-05
16550.0 1.0927e-05
16570.0 1.0902e-05
16590.0 1.0878e-05
16610.0 1.0855e-05
16630.0 1.0831e-05
16650.0 1.0806e-05
16670.0 1.0782e-05
16690.0 1.0759e-05
16710.0 1.0734e-05
16730.0 1.0709e-05
16750.0 1.0685e-05
16770.0 1.0661e-05
16790.0 1.0636e-05
16810.0 1.0612e-05
16830.0 1.0588e-05
16850.0 1.0563e-05
16870.0 1.0538e-05
16890.0 1.0514e-05
16910.0 1.0489e-05
16930.0 1.0463e-05
16950.0 1.0439e-05
16970.0 1.0414e-05
16990.0 1.0389e-05
17010.0 1.0364e-05
17030.0 1.0339e-05
17050.0 1.0314e-05
17070.0 1.0288e-05
17090.0 1.0263e-05
17110.0 1.0238e-05
17130.0 1.0212e-05
17150.0 1.0186e-05
17170.0 1.0161e-05
17190.0 1.0136e-05
17210.0 1.011e-05
17230.0 1.0085e-05
17250.0 1.0059e-05
17270.0 1.0032e-05
17290.0 1.0006e-05
17310.0 9.9807e-06
17330.0 9.9542e-06
17350.0 9.9274e-06
17370.0 9.902e-06
17390.0 9.8759e-06
17410.0 9.849e-06
17430.0 9.8229e-06
17450.0 9.7971e-06
17470.0 9.7695e-06
17490.0 9.7426e-06
17510.0 9.7165e-06
17530.0 9.6898e-06
17550.0 9.6623e-06
17570.0 9.6358e-06
17590.0 9.6096e-06
17610.0 9.582e-06
17630.0 9.5547e-06
17650.0 9.5283e-06
17670.0 9.501e-06
17690.0 9.4725e-06
17710.0 9.4458e-06
17730.0 9.4189e-06
17750.0 9.391e-06
17770.0 9.3634e-06
17790.0 9.3368e-06
17810.0 9.3088e-06
17830.0 9.2805e-06
17850.0 9.2532e-06
17870.0 9.2258e-06
17890.0 9.1972e-06
17910.0 9.169e-06
17930.0 9.142e-06
17950.0 9.1138e-06
17970.0 9.0854e-06
17990.0 9.0579e-06
18010.0 9.0302e-06
18030.0 9.0009e-06
18050.0 8.9726e-06
18070.0 8.9449e-06
18090.0 8.9164e-06
18110.0 8.8873e-06
18130.0 8.8596e-06
18150.0 8.8315e-06
18170.0 8.8024e-06
18190.0 8.7739e-06
18210.0 8.746e-06
18230.0 8.7168e-06
18250.0 8.6874e-06
18270.0 8.6593e-06
18290.0 8.6308e-06
18310.0 8.6014e-06
18330.0 8.5728e-06
18350.0 8.5447e-06
18370.0 8.5153e-06
18390.0 8.486e-06
18410.0 8.4575e-06
18430.0 8.4287e-06
18450.0 8.3986e-06
18470.0 8.3698e-06
18490.0 8.3414e-06
18510.0 8.3119e-06
18530.0 8.2825e-06
18550.0 8.2542e-06
18570.0 8.225e-06
18590.0 8.1949e-06
18610.0 8.1659e-06
18630.0 8.1371e-06
18650.0 8.1073e-06
18670.0 8.0775e-06
18690.0 8.0491e-06
18710.0 8.0198e-06
18730.0 7.9899e-06
18750.0 7.9609e-06
18770.0 7.9322e-06
18790.0 7.9017e-06
18810.0 7.872e-06
18830.0 7.8432e-06
18850.0 7.8137e-06
18870.0 7.7836e-06
18890.0 7.7547e-06
18910.0 7.7258e-06
18930.0 7.6957e-06
18950.0 7.666e-06
18970.0 7.6372e-06
18990.0 7.6075e-06
19010.0 7.5768e-06
19030.0 7.548e-06
19050.0 7.5189e-06
19070.0 7.4888e-06
19090.0 7.4593e-06
19110.0 7.4307e-06
19130.0 7.4007e-06
19150.0 7.3705e-06
19170.0 7.3414e-06
19190.0 7.3122e-06
19210.0 7.2818e-06
19230.0 7.2521e-06
19250.0 7.2235e-06
19270.0 7.1937e-06
19290.0 7.1638e-06
19310.0 7.1349e-06
19330.0 7.1057e-06
19350.0 7.0751e-06
19370.0 7.0456e-06
19390.0 7.0167e-06
19410.0 6.9869e-06
19430.0 6.9568e-06
19450.0 6.9281e-06
19470.0 6.8989e-06
19490.0 6.8688e-06
19510.0 6.8395e-06
19530.0 6.8107e-06
19550.0 6.7807e-06
19570.0 6.7505e-06
19590.0 6.7218e-06
19610.0 6.6926e-06
19630.0 6.6626e-06
19650.0 6.6335e-06
19670.0 6.6049e-06
19690.0 6.5749e-06
19710.0 6.5452e-06
19730.0 6.5165e-06
19750.0 6.4872e-06
19770.0 6.4569e-06
19790.0 6.4279e-06
19810.0 6.3993e-06
19830.0 6.3695e-06
19850.0 6.3396e-06
19870.0 6.3102e-06
19890.0 6.2787e-06
19910.0 6.2441e-06
19930.0 6.207e-06
19950.0 6.1646e-06
19970.0 6.1125e-06
19990.0 6.0497e-06
20010.0 5.3823e-06
20030.0 5.3045e-06
20050.0 5.2133e-06
20070.0 5.1145e-06
20090.0 5.0082e-06
20110.0 4.888e-06
20130.0 4.7663e-06
20150.0 4.6458e-06
20170.0 4.5207e-06
20190.0 4.3939e-06
20210.0 4.2741e-06
20230.0 4.1573e-06
20250.0 4.0402e-06
20270.0 3.9316e-06
20290.0 3.8323e-06
20310.0 3.7381e-06
20330.0 3.65e-06
20350.0 3.5768e-06
20370.0 3.5119e-06
20390.0 3.455e-06
20410.0 3.409e-06
20430.0 3.3736e-06
20450.0 3.3455e-06
20470.0 3.3267e-06
20490.0 3.3166e-06
20510.0 3.3137e-06
20530.0 3.3178e-06
20550.0 3.328e-06
20570.0 3.3429e-06
20590.0 3.3631e-06
20610.0 3.3875e-06
20630.0 3.4144e-06
20650.0 3.4445e-06
20670.0 3.4789e-06
20690.0 3.514e-06
20710.0 3.5503e-06
20730.0 3.5894e-06
20750.0 3.6303e-06
20770.0 3.6704e-06
20790.0 3.7126e-06
20810.0 3.7573e-06
20830.0 3.8017e-06
20850.0 3.8463e-06
20870.0 3.894e-06
20890.0 3.9427e-06
20910.0 3.9897e-06
20930.0 4.0384e-06
20950.0 4.0889e-06
20970.0 4.1382e-06
20990.0 4.1867e-06
21010.0 4.2378e-06
21030.0 4.2878e-06
21050.0 4.3354e-06
21070.0 4.383e-06
21090.0 4.4307e-06
21110.0 4.4742e-06
21130.0 4.5151e-06
21150.0 4.5547e-06
21170.0 4.5906e-06
21190.0 4.6215e-06
21210.0 4.6492e-06
21230.0 4.6723e-06
21250.0 4.6888e-06
21270.0 4.6992e-06
21290.0 4.7031e-06
21310.0 4.6994e-06
21330.0 4.6883e-06
21350.0 4.6688e-06
21370.0 4.6402e-06
21390.0 4.6039e-06
21410.0 4.5594e-06
21430.0 4.5031e-06
21450.0 4.4398e-06
21470.0 4.3709e-06
21490.0 4.293e-06
21510.0 4.2075e-06
21530.0 4.1207e-06
21550.0 4.0297e-06
21570.0 3.9327e-06
21590.0 3.8373e-06
21610.0 3.7451e-06
21630.0 3.6528e-06
21650.0 3.5627e-06
21670.0 3.4845e-06
21690.0 3.4124e-06
21710.0 3.3475e-06
21730.0 3.2943e-06
21750.0 3.2533e-06
21770.0 3.2221e-06
21790.0 3.2041e-06
21810.0 3.1991e-06
21830.0 3.2062e-06
21850.0 3.2263e-06
21870.0 3.2575e-06
21890.0 3.2979e-06
21910.0 3.3497e-06
21930.0 3.4104e-06
21950.0 3.4762e-06
21970.0 3.5491e-06
21990.0 3.6309e-06
22010.0 3.7127e-06
22030.0 3.7957e-06
22050.0 3.8829e-06
22070.0 3.9706e-06
22090.0 4.0537e-06
22110.0 4.1374e-06
22130.0 4.2209e-06
22150.0 4.299e-06
22170.0 4.3726e-06
22190.0 4.4455e-06
22210.0 4.5134e-06
22230.0 4.5731e-06
22250.0 4.6293e-06
22270.0 4.6811e-06
22290.0 4.7254e-06
22310.0 4.7633e-06
22330.0 4.7968e-06
22350.0 4.8227e-06
22370.0 4.8409e-06
22390.0 4.8523e-06
22410.0 4.8559e-06
22430.0 4.8513e-06
22450.0 4.8388e-06
22470.0 4.8172e-06
22490.0 4.7868e-06
22510.0 4.749e-06
22530.0 4.7007e-06
22550.0 4.6418e-06
22570.0 4.5766e-06
22590.0 4.5029e-06
22610.0 4.4183e-06
