#lamb flux
1010.0 1.2881e-06
1030.0 1.3542e-06
1050.0 1.4304e-06
1070.0 1.5162e-06
1090.0 1.6137e-06
1110.0 1.7138e-06
1130.0 1.8146e-06
1150.0 1.9204e-06
1170.0 2.0297e-06
1190.0 2.1334e-06
1210.0 2.2388e-06
1230.0 2.3478e-06
1250.0 2.4549e-06
1270.0 2.5591e-06
1290.0 2.6694e-06
1310.0 2.7798e-06
1330.0 2.8861e-06
1350.0 2.9938e-06
1370.0 3.1052e-06
1390.0 3.2142e-06
1410.0 3.3203e-06
1430.0 3.4314e-06
1450.0 3.5429e-06
1470.0 3.6511e-06
1490.0 3.7606e-06
1510.0 3.8765e-06
1530.0 3.9869e-06
1550.0 4.096e-06
1570.0 4.2091e-06
1590.0 4.3225e-06
1610.0 4.4312e-06
1630.0 4.5434e-06
1650.0 4.6585e-06
1670.0 4.7702e-06
1690.0 4.8805e-06
1710.0 4.9949e-06
1730.0 5.11e-06
1750.0 5.2183e-06
1770.0 5.3296e-06
1790.0 5.443e-06
1810.0 5.5526e-06
1830.0 5.6602e-06
1850.0 5.774e-06
1870.0 5.8847e-06
1890.0 5.9915e-06
1910.0 6.1002e-06
1930.0 6.2113e-06
1950.0 6.3173e-06
1970.0 6.4219e-06
1990.0 6.5304e-06
2010.0 6.6373e-06
2030.0 6.7405e-06
2050.0 6.8473e-06
2070.0 6.9573e-06
2090.0 7.0617e-06
2110.0 7.1667e-06
2130.0 7.2758e-06
2150.0 7.3843e-06
2170.0 7.4897e-06
2190.0 7.6008e-06
2210.0 7.7146e-06
2230.0 7.8264e-06
2250.0 7.9404e-06
2270.0 8.0619e-06
2290.0 8.1831e-06
2310.0 8.3035e-06
2330.0 8.4308e-06
2350.0 8.5631e-06
2370.0 8.6952e-06
2390.0 8.8331e-06
2410.0 8.9808e-06
2430.0 9.1295e-06
2450.0 9.2789e-06
2470.0 9.4318e-06
2490.0 9.5827e-06
2510.0 9.724e-06
2530.0 9.8691e-06
2550.0 1.0041e-05
2570.0 1.0277e-05
2590.0 1.0628e-05
2610.0 1.1206e-05
2630.0 1.2081e-05
2650.0 1.3251e-05
2670.0 1.476e-05
2690.0 1.6605e-05
2710.0 1.8593e-05
2730.0 2.0613e-05
2750.0 2.27e-05
2770.0 2.4698e-05
2790.0 2.6541e-05
2810.0 2.8326e-05
2830.0 3.0137e-05
2850.0 3.1862e-05
2870.0 3.36e-05
2890.0 3.5434e-05
2910.0 3.7318e-05
2930.0 3.9192e-05
2950.0 4.1168e-05
2970.0 4.3226e-05
2990.0 4.5276e-05
3010.0 9.0095e-05
3030.0 9.422e-05
3050.0 9.838e-05
3070.0 0.00010232
3090.0 0.00010618
3110.0 0.00010959
3130.0 0.00011203
3150.0 0.00011305
3170.0 0.00011178
3190.0 0.00010769
3210.0 0.00010073
3230.0 9.2255e-05
3250.0 9.2357e-05
3270.0 6.8648e-05
3290.0 7.7072e-05
3310.0 5.5376e-05
3330.0 5.9591e-05
3350.0 6.7122e-05
3370.0 7.5056e-05
3390.0 8.3179e-05
3410.0 9.1267e-05
3430.0 9.9518e-05
3450.0 0.00010771
3470.0 0.00011548
3490.0 0.00012112
3510.0 0.00013143
3530.0 0.00015363
3550.0 0.00017499
3570.0 0.00019612
3590.0 0.00024076
3610.0 0.00023398
3630.0 0.00025285
3650.0 0.00024831
3670.0 0.00027008
3690.0 0.00029495
3710.0 0.00031207
3730.0 0.00036006
3750.0 0.00037515
3770.0 0.00038
3790.0 0.00036145
3810.0 0.0003187
3830.0 0.00029299
3850.0 0.00025762
3870.0 0.00028079
3890.0 0.00031948
3910.0 0.00037671
3930.0 0.00043708
3950.0 0.00047492
3970.0 0.00054032
3990.0 0.00055592
4010.0 0.00054049
4030.0 0.00054907
4050.0 0.00050389
4070.0 0.00048236
4090.0 0.00046958
4110.0 0.00044803
4130.0 0.00048343
4150.0 0.00046604
4170.0 0.00046539
4190.0 0.00045633
4210.0 0.00048918
4230.0 0.00046895
4250.0 0.00050567
4270.0 0.0005043
4290.0 0.00050661
4310.0 0.00054073
4330.0 0.00057584
4350.0 0.00057998
4370.0 0.00056805
4390.0 0.00054108
4410.0 0.00047884
4430.0 0.00039883
4450.0 0.00036803
4470.0 0.00037893
4490.0 0.00037867
4510.0 0.00042866
4530.0 0.00047021
4550.0 0.00055488
4570.0 0.00071855
4590.0 0.00087841
4610.0 0.00096119
4630.0 0.0011026
4650.0 0.0012061
4670.0 0.0012143
4690.0 0.0011077
4710.0 0.0010288
4730.0 0.00091376
4750.0 0.00074932
4770.0 0.00063294
4790.0 0.00056401
4810.0 0.00061552
4830.0 0.00068375
4850.0 0.00076784
4870.0 0.00073358
4890.0 0.00083955
4910.0 0.00087694
4930.0 0.00095664
4950.0 0.0011216
4970.0 0.0011927
4990.0 0.0012563
5010.0 0.0011624
5030.0 0.00097572
5050.0 0.00079573
5070.0 0.00063174
5090.0 0.00056893
5110.0 0.00055891
5130.0 0.00054958
5150.0 0.00057538
5170.0 0.00055635
5190.0 0.00058684
5210.0 0.00059796
5230.0 0.00064389
5250.0 0.00075546
5270.0 0.00082216
5290.0 0.00089423
5310.0 0.0010086
5330.0 0.0010936
5350.0 0.0011216
5370.0 0.0011253
5390.0 0.0011038
5410.0 0.0010855
5430.0 0.0011021
5450.0 0.0012368
5470.0 0.0014537
5490.0 0.0016653
5510.0 0.0018639
5530.0 0.0019161
5550.0 0.0019014
5570.0 0.001856
5590.0 0.0018138
5610.0 0.0017975
5630.0 0.0018028
5650.0 0.0018158
5670.0 0.0017963
5690.0 0.0016768
5710.0 0.0015353
5730.0 0.0013747
5750.0 0.0012892
5770.0 0.0012223
5790.0 0.0012504
5810.0 0.001319
5830.0 0.0013679
5850.0 0.0013287
5870.0 0.0012654
5890.0 0.0012436
5910.0 0.00121
5930.0 0.0011868
5950.0 0.0011599
5970.0 0.0011149
5990.0 0.00098646
6010.0 0.00085769
6030.0 0.00078363
6050.0 0.00075807
6070.0 0.00074032
6090.0 0.00073949
6110.0 0.00075463
6130.0 0.00076165
6150.0 0.00080723
6170.0 0.0008934
6190.0 0.00098429
6210.0 0.0010329
6230.0 0.0010469
6250.0 0.00096288
6270.0 0.0008504
6290.0 0.00073087
6310.0 0.00063893
6330.0 0.00059045
6350.0 0.00057365
6370.0 0.00060232
6390.0 0.00067529
6410.0 0.00079353
6430.0 0.00094699
6450.0 0.0010756
6470.0 0.001173
6490.0 0.0012565
6510.0 0.001291
6530.0 0.0012817
6550.0 0.0012877
6570.0 0.0013013
6590.0 0.0012851
6610.0 0.0012981
6630.0 0.0012746
6650.0 0.0012343
6670.0 0.0011628
6690.0 0.0010641
6710.0 0.0010214
6730.0 0.00096661
6750.0 0.00096624
6770.0 0.00099244
6790.0 0.0010269
6810.0 0.0010455
6830.0 0.0010257
6850.0 0.00098385
6870.0 0.00095305
6890.0 0.00090814
6910.0 0.00086528
6930.0 0.00088695
6950.0 0.00089825
6970.0 0.00093457
6990.0 0.00097118
7010.0 0.00096274
7030.0 0.00090604
7050.0 0.00081078
7070.0 0.00072087
7090.0 0.00063865
7110.0 0.00059447
7130.0 0.00057114
7150.0 0.00055597
7170.0 0.00057515
7190.0 0.00058782
7210.0 0.00061972
7230.0 0.00068763
7250.0 0.00073636
7270.0 0.00075394
7290.0 0.00074408
7310.0 0.00071013
7330.0 0.00066607
7350.0 0.00064317
7370.0 0.00064734
7390.0 0.00068123
7410.0 0.00075284
7430.0 0.00084029
7450.0 0.0009483
7470.0 0.0010302
7490.0 0.0010699
7510.0 0.0010284
7530.0 0.00094189
7550.0 0.00082234
7570.0 0.00069989
7590.0 0.00064815
7610.0 0.00065103
7630.0 0.00069464
7650.0 0.0007875
7670.0 0.00087816
7690.0 0.00096024
7710.0 0.0010346
7730.0 0.0010939
7750.0 0.0011432
7770.0 0.0011655
7790.0 0.0012032
7810.0 0.001228
7830.0 0.0012227
7850.0 0.0012261
7870.0 0.001182
7890.0 0.0011447
7910.0 0.0010787
7930.0 0.0010498
7950.0 0.0010102
7970.0 0.0010171
7990.0 0.0010068
8010.0 0.00098998
8030.0 0.00099086
8050.0 0.0010214
8070.0 0.0010012
8090.0 0.0010012
8110.0 0.00096464
8130.0 0.00095908
8150.0 0.00092867
8170.0 0.00090189
8190.0 0.00088924
8210.0 0.00089515
8230.0 0.00082889
8250.0 0.00077069
8270.0 0.00067213
8290.0 0.00054479
8310.0 0.00043251
8330.0 0.00033564
8350.0 0.00029232
8370.0 0.00032142
8390.0 0.00036085
8410.0 0.00039622
8430.0 0.00045028
8450.0 0.00047593
8470.0 0.00049824
8490.0 0.00055615
8510.0 0.00061502
8530.0 0.00071323
8550.0 0.0008395
8570.0 0.00095022
8590.0 0.0010379
8610.0 0.0011196
8630.0 0.0011878
8650.0 0.0011995
8670.0 0.0012037
8690.0 0.0012431
8710.0 0.0012548
8730.0 0.0012703
8750.0 0.0012351
8770.0 0.0012367
8790.0 0.0012181
8810.0 0.0011318
8830.0 0.0011086
8850.0 0.0010468
8870.0 0.0010027
8890.0 0.00094849
8910.0 0.00098056
8930.0 0.00091727
8950.0 0.00088775
8970.0 0.00087746
8990.0 0.00085401
9010.0 0.00084612
9030.0 0.0008216
9050.0 0.00081681
9070.0 0.0008148
9090.0 0.00081278
9110.0 0.0008109
9130.0 0.00080871
9150.0 0.00080642
9170.0 0.00080286
9190.0 0.00079755
9210.0 0.00080256
9230.0 0.00079837
9250.0 0.00079506
9270.0 0.00079192
9290.0 0.00078888
9310.0 0.00078591
9330.0 0.00078296
9350.0 0.00078
9370.0 0.00077702
9390.0 0.00077399
9410.0 0.00077092
9430.0 0.00076778
9450.0 0.00076442
9470.0 0.00076108
9490.0 0.00075805
9510.0 0.0007549
9530.0 0.00075168
9550.0 0.00074841
9570.0 0.00074509
9590.0 0.00074176
9610.0 0.0007384
9630.0 0.000735
9650.0 0.0007316
9670.0 0.00072819
9690.0 0.00072477
9710.0 0.00072133
9730.0 0.0007179
9750.0 0.00071445
9770.0 0.000711
9790.0 0.00070755
9810.0 0.00070411
9830.0 0.00070066
9850.0 0.00069722
9870.0 0.00069379
9890.0 0.00069035
9910.0 0.00068692
9930.0 0.00068345
9950.0 0.00067637
9970.0 0.00067406
9990.0 0.00067156
10010.0 0.00066896
10030.0 0.00066607
10050.0 0.00066288
10070.0 0.00065941
10090.0 0.0006564
10110.0 0.00065314
10130.0 0.00065001
10150.0 0.00064686
10170.0 0.00064361
10190.0 0.00064022
10210.0 0.00063704
10230.0 0.00063394
10250.0 0.00063069
10270.0 0.0006275
10290.0 0.00062447
10310.0 0.00062131
10330.0 0.00061806
10350.0 0.00061501
10370.0 0.000612
10390.0 0.00060886
10410.0 0.00060576
10430.0 0.00060286
10450.0 0.00059983
10470.0 0.00059675
10490.0 0.00059381
10510.0 0.00059091
10530.0 0.0005878
10550.0 0.00058481
10570.0 0.00058198
10590.0 0.00057904
10610.0 0.00057604
10630.0 0.00057322
10650.0 0.00057039
10670.0 0.00056739
10690.0 0.0005645
10710.0 0.00056172
10730.0 0.00055882
10750.0 0.0005558
10770.0 0.00055306
10790.0 0.00055027
10810.0 0.00054735
10830.0 0.0005445
10850.0 0.00054177
10870.0 0.00053875
10890.0 0.00053564
10910.0 0.00053253
10930.0 0.00052909
10950.0 0.00052503
10970.0 0.0005205
10990.0 0.0005155
11010.0 0.00047682
11030.0 0.0004706
11050.0 0.00046419
11070.0 0.00045732
11090.0 0.00044969
11110.0 0.00044237
11130.0 0.00043515
11150.0 0.00042764
11170.0 0.00042016
11190.0 0.00041316
11210.0 0.00040604
11230.0 0.00039878
11250.0 0.00039194
11270.0 0.00038537
11290.0 0.00037867
11310.0 0.00037219
11330.0 0.00036643
11350.0 0.00036076
11370.0 0.00035524
11390.0 0.00035024
11410.0 0.00034561
11430.0 0.00034088
11450.0 0.00033645
11470.0 0.00033233
11490.0 0.00032815
11510.0 0.00032375
11530.0 0.00031953
11550.0 0.0003152
11570.0 0.00031042
11590.0 0.00030544
11610.0 0.0003004
11630.0 0.00029484
11650.0 0.00028879
11670.0 0.00028284
11690.0 0.00027669
11710.0 0.00027013
11730.0 0.00026359
11750.0 0.00025736
11770.0 0.00025091
11790.0 0.00024451
11810.0 0.00023858
11830.0 0.00023291
11850.0 0.00022718
11870.0 0.00022201
11890.0 0.00021736
11910.0 0.00021286
11930.0 0.00020863
11950.0 0.0002049
11970.0 0.00020139
11990.0 0.00019795
12010.0 0.00019485
12030.0 0.00019203
12050.0 0.00018927
12070.0 0.0001866
12090.0 0.0001843
12110.0 0.0001821
12130.0 0.00017997
12150.0 0.00017808
12170.0 0.00017647
12190.0 0.00017492
12210.0 0.00017368
12230.0 0.00017281
12250.0 0.00017227
12270.0 0.00017209
12290.0 0.00017238
12310.0 0.00017314
12330.0 0.0001744
12350.0 0.00017619
12370.0 0.00017844
12390.0 0.00018119
12410.0 0.00018454
12430.0 0.00018816
12450.0 0.00019208
12470.0 0.00019634
12490.0 0.00020078
12510.0 0.00020515
12530.0 0.0002096
12550.0 0.00021405
12570.0 0.00021821
12590.0 0.00022212
12610.0 0.00022584
12630.0 0.00022921
12650.0 0.0002321
12670.0 0.00023467
12690.0 0.00023685
12710.0 0.00023861
12730.0 0.00023998
12750.0 0.00024097
12770.0 0.00024157
12790.0 0.00024185
12810.0 0.00024177
12830.0 0.00024134
12850.0 0.00024068
12870.0 0.00023979
12890.0 0.00023858
12910.0 0.00023718
12930.0 0.00023566
12950.0 0.00023387
12970.0 0.00023185
12990.0 0.00022981
13010.0 0.00022762
13030.0 0.00022518
13050.0 0.00022265
13070.0 0.00022013
13090.0 0.00021736
13110.0 0.00021446
13130.0 0.00021162
13150.0 0.00020875
13170.0 0.00020573
13190.0 0.00020292
13210.0 0.00020035
13230.0 0.00019788
13250.0 0.00019567
13270.0 0.0001939
13290.0 0.00019247
13310.0 0.00019139
13330.0 0.00019079
13350.0 0.00019062
13370.0 0.00019081
13390.0 0.00019134
13410.0 0.00019209
13430.0 0.00019298
13450.0 0.00019391
13470.0 0.00019474
13490.0 0.00019537
13510.0 0.00019572
13530.0 0.00019568
13550.0 0.00019522
13570.0 0.00019431
13590.0 0.00019289
13610.0 0.00019109
13630.0 0.00018898
13650.0 0.00018646
13670.0 0.00018371
13690.0 0.00018092
13710.0 0.000178
13730.0 0.00017492
13750.0 0.00017209
13770.0 0.00016938
13790.0 0.00016673
13810.0 0.00016426
13830.0 0.00016207
13850.0 0.00015998
13870.0 0.00015802
13890.0 0.00015628
13910.0 0.0001547
13930.0 0.00015319
13950.0 0.00015181
13970.0 0.00015059
13990.0 0.00014942
14010.0 0.00014832
14030.0 0.00014733
14050.0 0.00014641
14070.0 0.00014553
14090.0 0.00014473
14110.0 0.00014402
14130.0 0.00014335
14150.0 0.00014273
14170.0 0.00014218
14190.0 0.00014168
14210.0 0.00014123
14230.0 0.00014084
14250.0 0.0001405
14270.0 0.00014022
14290.0 0.00014001
14310.0 0.00013986
14330.0 0.00013977
14350.0 0.00013976
14370.0 0.00013979
14390.0 0.00013986
14410.0 0.00013998
14430.0 0.00014012
14450.0 0.00014025
14470.0 0.00014035
14490.0 0.00014045
14510.0 0.00014048
14530.0 0.00014045
14550.0 0.00014039
14570.0 0.00014029
14590.0 0.00014016
14610.0 0.00014002
14630.0 0.00013991
14650.0 0.00013984
14670.0 0.00013985
14690.0 0.00013998
14710.0 0.00014027
14730.0 0.00014068
14750.0 0.00014129
14770.0 0.00014215
14790.0 0.0001432
14810.0 0.00014443
14830.0 0.00014603
14850.0 0.00014784
14870.0 0.00014976
14890.0 0.00015189
14910.0 0.00015419
14930.0 0.00015639
14950.0 0.00015842
14970.0 0.00016031
14990.0 0.00016181
15010.0 0.00016283
15030.0 0.00016343
15050.0 0.00016365
15070.0 0.00016346
15090.0 0.00016301
15110.0 0.0001624
15130.0 0.00016168
15150.0 0.00016089
15170.0 0.00016007
15190.0 0.00015924
15210.0 0.0001584
15230.0 0.00015756
15250.0 0.00015671
15270.0 0.00015586
15290.0 0.00015502
15310.0 0.00015417
15330.0 0.00015332
15350.0 0.00015248
15370.0 0.00015164
15390.0 0.00015079
15410.0 0.00014995
15430.0 0.00014911
15450.0 0.00014827
15470.0 0.00014742
15490.0 0.00014659
15510.0 0.00014575
15530.0 0.00014492
15550.0 0.00014408
15570.0 0.00014326
15590.0 0.00014243
15610.0 0.0001416
15630.0 0.00014078
15650.0 0.00013996
15670.0 0.00013914
15690.0 0.00013832
15710.0 0.00013751
15730.0 0.0001367
15750.0 0.00013589
15770.0 0.00013509
15790.0 0.0001343
15810.0 0.00013349
15830.0 0.0001327
15850.0 0.00013192
15870.0 0.00013113
15890.0 0.00013035
15910.0 0.00012958
15930.0 0.0001288
15950.0 0.00012803
15970.0 0.00012727
15990.0 0.00012651
16010.0 0.00012575
16030.0 0.00012499
16050.0 0.00012425
16070.0 0.00012351
16090.0 0.00012277
16110.0 0.00012204
16130.0 0.00012131
16150.0 0.00012058
16170.0 0.00011986
16190.0 0.00011915
16210.0 0.00011844
16230.0 0.00011773
16250.0 0.00011703
16270.0 0.00011633
16290.0 0.00011564
16310.0 0.00011495
16330.0 0.00011428
16350.0 0.0001136
16370.0 0.00011292
16390.0 0.00011226
16410.0 0.0001116
16430.0 0.00011094
16450.0 0.00011029
16470.0 0.00010965
16490.0 0.000109
16510.0 0.00010837
16530.0 0.00010774
16550.0 0.00010711
16570.0 0.00010649
16590.0 0.00010587
16610.0 0.00010527
16630.0 0.00010466
16650.0 0.00010406
16670.0 0.00010346
16690.0 0.00010288
16710.0 0.00010229
16730.0 0.00010171
16750.0 0.00010113
16770.0 0.00010056
16790.0 9.9996e-05
16810.0 9.9439e-05
16830.0 9.8886e-05
16850.0 9.8333e-05
16870.0 9.7789e-05
16890.0 9.7252e-05
16910.0 9.6715e-05
16930.0 9.6181e-05
16950.0 9.5659e-05
16970.0 9.514e-05
16990.0 9.4622e-05
17010.0 9.4112e-05
17030.0 9.361e-05
17050.0 9.3107e-05
17070.0 9.2609e-05
17090.0 9.212e-05
17110.0 9.1634e-05
17130.0 9.1148e-05
17150.0 9.0671e-05
17170.0 9.0201e-05
17190.0 8.9732e-05
17210.0 8.9267e-05
17230.0 8.8811e-05
17250.0 8.8357e-05
17270.0 8.7904e-05
17290.0 8.7459e-05
17310.0 8.702e-05
17330.0 8.6581e-05
17350.0 8.6147e-05
17370.0 8.5722e-05
17390.0 8.5299e-05
17410.0 8.4878e-05
17430.0 8.4464e-05
17450.0 8.4056e-05
17470.0 8.3645e-05
17490.0 8.3242e-05
17510.0 8.2846e-05
17530.0 8.2451e-05
17550.0 8.2059e-05
17570.0 8.1674e-05
17590.0 8.1294e-05
17610.0 8.0914e-05
17630.0 8.0539e-05
17650.0 8.0171e-05
17670.0 7.9804e-05
17690.0 7.9437e-05
17710.0 7.908e-05
17730.0 7.8727e-05
17750.0 7.8373e-05
17770.0 7.8025e-05
17790.0 7.7685e-05
17810.0 7.7343e-05
17830.0 7.7004e-05
17850.0 7.6672e-05
17870.0 7.6343e-05
17890.0 7.6014e-05
17910.0 7.569e-05
17930.0 7.5374e-05
17950.0 7.5057e-05
17970.0 7.4743e-05
17990.0 7.4436e-05
18010.0 7.4131e-05
18030.0 7.3824e-05
18050.0 7.3525e-05
18070.0 7.323e-05
18090.0 7.2936e-05
18110.0 7.2644e-05
18130.0 7.2359e-05
18150.0 7.2077e-05
18170.0 7.1794e-05
18190.0 7.1516e-05
18210.0 7.1243e-05
18230.0 7.0969e-05
18250.0 7.0698e-05
18270.0 7.0434e-05
18290.0 7.0171e-05
18310.0 6.9908e-05
18330.0 6.9651e-05
18350.0 6.9399e-05
18370.0 6.9145e-05
18390.0 6.8894e-05
18410.0 6.8649e-05
18430.0 6.8405e-05
18450.0 6.816e-05
18470.0 6.7921e-05
18490.0 6.7687e-05
18510.0 6.7452e-05
18530.0 6.7219e-05
18550.0 6.6993e-05
18570.0 6.6766e-05
18590.0 6.6539e-05
18610.0 6.6317e-05
18630.0 6.6099e-05
18650.0 6.588e-05
18670.0 6.5664e-05
18690.0 6.5454e-05
18710.0 6.5243e-05
18730.0 6.5033e-05
18750.0 6.4828e-05
18770.0 6.4627e-05
18790.0 6.4421e-05
18810.0 6.4221e-05
18830.0 6.4025e-05
18850.0 6.3829e-05
18870.0 6.3634e-05
18890.0 6.3444e-05
18910.0 6.3256e-05
18930.0 6.3067e-05
18950.0 6.288e-05
18970.0 6.2699e-05
18990.0 6.2516e-05
19010.0 6.2332e-05
19030.0 6.2156e-05
19050.0 6.1981e-05
19070.0 6.1805e-05
19090.0 6.1632e-05
19110.0 6.1464e-05
19130.0 6.1293e-05
19150.0 6.1123e-05
19170.0 6.0959e-05
19190.0 6.0795e-05
19210.0 6.063e-05
19230.0 6.0468e-05
19250.0 6.0311e-05
19270.0 6.0153e-05
19290.0 5.9995e-05
19310.0 5.9842e-05
19330.0 5.9689e-05
19350.0 5.9534e-05
19370.0 5.9384e-05
19390.0 5.9236e-05
19410.0 5.9088e-05
19430.0 5.894e-05
19450.0 5.8797e-05
19470.0 5.8654e-05
19490.0 5.851e-05
19510.0 5.837e-05
19530.0 5.8232e-05
19550.0 5.8092e-05
19570.0 5.7953e-05
19590.0 5.7819e-05
19610.0 5.7685e-05
19630.0 5.755e-05
19650.0 5.7419e-05
19670.0 5.729e-05
19690.0 5.7158e-05
19710.0 5.7029e-05
19730.0 5.6903e-05
19750.0 5.6777e-05
19770.0 5.6648e-05
19790.0 5.6525e-05
19810.0 5.6403e-05
19830.0 5.6278e-05
19850.0 5.6153e-05
19870.0 5.6027e-05
19890.0 5.589e-05
19910.0 5.5732e-05
19930.0 5.5549e-05
19950.0 5.5323e-05
19970.0 5.5026e-05
19990.0 5.4644e-05
20010.0 5.4191e-05
20030.0 5.3627e-05
20050.0 5.2955e-05
20070.0 5.222e-05
20090.0 5.1428e-05
20110.0 5.0534e-05
20130.0 4.9633e-05
20150.0 4.8744e-05
20170.0 4.7827e-05
20190.0 4.6899e-05
20210.0 4.6024e-05
20230.0 4.5168e-05
20250.0 4.4308e-05
20270.0 4.3503e-05
20290.0 4.2761e-05
20310.0 4.2046e-05
20330.0 4.1366e-05
20350.0 4.0789e-05
20370.0 4.0264e-05
20390.0 3.979e-05
20410.0 3.9393e-05
20430.0 3.9073e-05
20450.0 3.8804e-05
20470.0 3.8606e-05
20490.0 3.8479e-05
20510.0 3.841e-05
20530.0 3.84e-05
20550.0 3.8445e-05
20570.0 3.8534e-05
20590.0 3.8668e-05
20610.0 3.8839e-05
20630.0 3.9033e-05
20650.0 3.9251e-05
20670.0 3.9497e-05
20690.0 3.974e-05
20710.0 3.9981e-05
20730.0 4.0225e-05
20750.0 4.0459e-05
20770.0 4.0665e-05
20790.0 4.0855e-05
20810.0 4.1024e-05
20830.0 4.1157e-05
20850.0 4.1256e-05
20870.0 4.1324e-05
20890.0 4.1352e-05
20910.0 4.1343e-05
20930.0 4.1297e-05
20950.0 4.1213e-05
20970.0 4.1096e-05
20990.0 4.0951e-05
21010.0 4.0767e-05
21030.0 4.0558e-05
21050.0 4.0332e-05
21070.0 4.0083e-05
21090.0 3.9808e-05
21110.0 3.9534e-05
21130.0 3.9255e-05
21150.0 3.8963e-05
21170.0 3.8675e-05
21190.0 3.8401e-05
21210.0 3.8126e-05
21230.0 3.7857e-05
21250.0 3.7617e-05
21270.0 3.7396e-05
21290.0 3.719e-05
21310.0 3.7012e-05
21330.0 3.6867e-05
21350.0 3.6746e-05
21370.0 3.6654e-05
21390.0 3.6596e-05
21410.0 3.6568e-05
21430.0 3.6571e-05
21450.0 3.6605e-05
21470.0 3.6667e-05
21490.0 3.6758e-05
21510.0 3.6878e-05
21530.0 3.7016e-05
21550.0 3.7178e-05
21570.0 3.7367e-05
21590.0 3.7572e-05
21610.0 3.7788e-05
21630.0 3.8026e-05
21650.0 3.8285e-05
21670.0 3.8539e-05
21690.0 3.8806e-05
21710.0 3.909e-05
21730.0 3.9376e-05
21750.0 3.9658e-05
21770.0 3.9961e-05
21790.0 4.0266e-05
21810.0 4.0563e-05
21830.0 4.0862e-05
21850.0 4.1172e-05
21870.0 4.1471e-05
21890.0 4.1757e-05
21910.0 4.205e-05
21930.0 4.2336e-05
21950.0 4.2604e-05
21970.0 4.2865e-05
21990.0 4.3125e-05
22010.0 4.3357e-05
22030.0 4.3569e-05
22050.0 4.3768e-05
22070.0 4.3943e-05
22090.0 4.4086e-05
22110.0 4.4206e-05
22130.0 4.4297e-05
22150.0 4.4352e-05
22170.0 4.4374e-05
22190.0 4.4359e-05
22210.0 4.4303e-05
22230.0 4.4212e-05
22250.0 4.4081e-05
22270.0 4.3905e-05
22290.0 4.3696e-05
22310.0 4.3453e-05
22330.0 4.3157e-05
22350.0 4.283e-05
22370.0 4.2479e-05
22390.0 4.2089e-05
22410.0 4.1655e-05
22430.0 4.1216e-05
22450.0 4.0758e-05
22470.0 4.0263e-05
22490.0 3.9758e-05
22510.0 3.9259e-05
22530.0 3.8731e-05
22550.0 3.8188e-05
22570.0 3.7668e-05
22590.0 3.7151e-05
22610.0 3.6623e-05
22630.0 3.6111e-05
22650.0 3.5634e-05
22670.0 3.5152e-05
22690.0 3.4683e-05
22710.0 3.425e-05
