#lamb flux
1010.0 3.5806e-09
1030.0 3.9522e-09
1050.0 4.3795e-09
1070.0 4.8605e-09
1090.0 5.407e-09
1110.0 5.9674e-09
1130.0 6.5314e-09
1150.0 7.1223e-09
1170.0 7.7318e-09
1190.0 8.3097e-09
1210.0 8.8954e-09
1230.0 9.5007e-09
1250.0 1.0094e-08
1270.0 1.067e-08
1290.0 1.1278e-08
1310.0 1.1886e-08
1330.0 1.2469e-08
1350.0 1.3059e-08
1370.0 1.3668e-08
1390.0 1.4262e-08
1410.0 1.4838e-08
1430.0 1.544e-08
1450.0 1.6042e-08
1470.0 1.6624e-08
1490.0 1.7212e-08
1510.0 1.7834e-08
1530.0 1.8422e-08
1550.0 1.9003e-08
1570.0 1.9605e-08
1590.0 2.0206e-08
1610.0 2.0782e-08
1630.0 2.1375e-08
1650.0 2.1984e-08
1670.0 2.2573e-08
1690.0 2.3155e-08
1710.0 2.376e-08
1730.0 2.4369e-08
1750.0 2.4941e-08
1770.0 2.5532e-08
1790.0 2.6134e-08
1810.0 2.6718e-08
1830.0 2.7292e-08
1850.0 2.7903e-08
1870.0 2.8498e-08
1890.0 2.9074e-08
1910.0 2.9662e-08
1930.0 3.0266e-08
1950.0 3.0842e-08
1970.0 3.1413e-08
1990.0 3.2007e-08
2010.0 3.2591e-08
2030.0 3.3155e-08
2050.0 3.3737e-08
2070.0 3.4335e-08
2090.0 3.4899e-08
2110.0 3.5462e-08
2130.0 3.6042e-08
2150.0 3.6612e-08
2170.0 3.7157e-08
2190.0 3.7723e-08
2210.0 3.8292e-08
2230.0 3.8838e-08
2250.0 3.9381e-08
2270.0 3.9949e-08
2290.0 4.0498e-08
2310.0 4.1024e-08
2330.0 4.1571e-08
2350.0 4.2132e-08
2370.0 4.2689e-08
2390.0 4.3294e-08
2410.0 4.4015e-08
2430.0 4.4849e-08
2450.0 4.5851e-08
2470.0 4.7142e-08
2490.0 4.8777e-08
2510.0 5.064e-08
2530.0 5.2888e-08
2550.0 5.5706e-08
2570.0 5.9215e-08
2590.0 6.3777e-08
2610.0 7.0604e-08
2630.0 8.0338e-08
2650.0 9.3043e-08
2670.0 1.0944e-07
2690.0 1.2957e-07
2710.0 1.51e-07
2730.0 1.7214e-07
2750.0 1.9291e-07
2770.0 2.1093e-07
2790.0 2.2516e-07
2810.0 2.364e-07
2830.0 2.4511e-07
2850.0 2.5098e-07
2870.0 2.5523e-07
2890.0 2.5854e-07
2910.0 2.6113e-07
2930.0 2.6322e-07
2950.0 2.652e-07
2970.0 2.6713e-07
2990.0 2.6894e-07
3010.0 7.7136e-06
3030.0 7.765e-06
3050.0 7.8147e-06
3070.0 7.8566e-06
3090.0 7.892e-06
3110.0 7.9121e-06
3130.0 7.906e-06
3150.0 7.8661e-06
3170.0 7.7771e-06
3190.0 7.6403e-06
3210.0 7.4682e-06
3230.0 7.2718e-06
3250.0 7.0769e-06
3270.0 6.934e-06
3290.0 6.851e-06
3310.0 6.8595e-06
3330.0 6.9541e-06
3350.0 7.1226e-06
3370.0 7.3651e-06
3390.0 7.6721e-06
3410.0 8.0067e-06
3430.0 8.3829e-06
3450.0 8.8163e-06
3470.0 9.2901e-06
3490.0 9.7925e-06
3510.0 1.0361e-05
3530.0 1.097e-05
3550.0 1.159e-05
3570.0 1.224e-05
3590.0 1.2948e-05
3610.0 1.3682e-05
3630.0 1.4413e-05
3650.0 1.5172e-05
3670.0 1.5864e-05
3690.0 1.638e-05
3710.0 1.6673e-05
3730.0 1.6667e-05
3750.0 1.6403e-05
3770.0 1.6365e-05
3790.0 1.6262e-05
3810.0 1.5593e-05
3830.0 1.603e-05
3850.0 1.8356e-05
3870.0 1.9361e-05
3890.0 1.886e-05
3910.0 1.8784e-05
3930.0 1.9498e-05
3950.0 2.0083e-05
3970.0 1.8608e-05
3990.0 1.5583e-05
4010.0 4.5537e-05
4030.0 5.4632e-05
4050.0 6.2623e-05
4070.0 5.5125e-05
4090.0 5.004e-05
4110.0 4.3922e-05
4130.0 4.1235e-05
4150.0 4.4911e-05
4170.0 4.329e-05
4190.0 4.548e-05
4210.0 4.5533e-05
4230.0 4.8793e-05
4250.0 5.7881e-05
4270.0 5.8987e-05
4290.0 5.4044e-05
4310.0 5.5561e-05
4330.0 5.8675e-05
4350.0 6.6534e-05
4370.0 7.6238e-05
4390.0 7.0417e-05
4410.0 5.0809e-05
4430.0 4.2533e-05
4450.0 3.9171e-05
4470.0 2.9546e-05
4490.0 3.2837e-05
4510.0 5.1556e-05
4530.0 5.9855e-05
4550.0 5.9756e-05
4570.0 6.5761e-05
4590.0 7.4443e-05
4610.0 0.00010428
4630.0 0.00013683
4650.0 0.00014622
4670.0 0.00013465
4690.0 0.00012915
4710.0 0.00013628
4730.0 0.00012703
4750.0 9.3894e-05
4770.0 6.8349e-05
4790.0 6.4719e-05
4810.0 6.2342e-05
4830.0 5.7524e-05
4850.0 6.3007e-05
4870.0 8.3259e-05
4890.0 9.7977e-05
4910.0 8.5011e-05
4930.0 7.5976e-05
4950.0 8.3896e-05
4970.0 0.00010792
4990.0 0.00014624
5010.0 0.00016847
5030.0 0.00014713
5050.0 9.8701e-05
5070.0 6.5507e-05
5090.0 5.2413e-05
5110.0 5.3404e-05
5130.0 6.1943e-05
5150.0 6.6489e-05
5170.0 6.5219e-05
5190.0 6.0651e-05
5210.0 6.3813e-05
5230.0 6.8102e-05
5250.0 7.3981e-05
5270.0 7.8609e-05
5290.0 8.6837e-05
5310.0 0.00010249
5330.0 0.00011322
5350.0 0.00011241
5370.0 0.00011882
5390.0 0.00013761
5410.0 0.00013536
5430.0 0.00011826
5450.0 0.00010959
5470.0 0.00011733
5490.0 0.00014358
5510.0 0.00017891
5530.0 0.00020547
5550.0 0.00019731
5570.0 0.00017919
5590.0 0.00015498
5610.0 0.00014419
5630.0 0.00014203
5650.0 0.00013464
5670.0 0.00012713
5690.0 0.00011247
5710.0 0.00011027
5730.0 0.00010212
5750.0 7.032e-05
5770.0 5.4392e-05
5790.0 6.2082e-05
5810.0 6.9611e-05
5830.0 8.732e-05
5850.0 0.00010502
5870.0 0.00011624
5890.0 0.00011751
5910.0 0.00011523
5930.0 0.00010974
5950.0 0.00011192
5970.0 0.00012877
5990.0 0.00011942
6010.0 9.9333e-05
6030.0 8.3687e-05
6050.0 7.3054e-05
6070.0 7.3931e-05
6090.0 8.0418e-05
6110.0 8.9064e-05
6130.0 8.9668e-05
6150.0 7.6521e-05
6170.0 6.6469e-05
6190.0 7.5175e-05
6210.0 0.00010106
6230.0 0.0001344
6250.0 0.00014564
6270.0 0.00012556
6290.0 0.00010585
6310.0 8.2444e-05
6330.0 6.286e-05
6350.0 5.6595e-05
6370.0 5.9504e-05
6390.0 6.8979e-05
6410.0 8.5541e-05
6430.0 0.00010022
6450.0 0.00011554
6470.0 0.00013103
6490.0 0.00015805
6510.0 0.00017676
6530.0 0.00017432
6550.0 0.00015794
6570.0 0.00013301
6590.0 0.00012052
6610.0 0.00010345
6630.0 9.5231e-05
6650.0 9.04e-05
6670.0 8.6604e-05
6690.0 7.6848e-05
6710.0 7.0407e-05
6730.0 4.8345e-05
6750.0 4.9212e-05
6770.0 5.5795e-05
6790.0 6.5353e-05
6810.0 5.7826e-05
6830.0 5.9482e-05
6850.0 5.4885e-05
6870.0 5.0222e-05
6890.0 4.7592e-05
6910.0 5.1474e-05
6930.0 4.8253e-05
6950.0 5.0493e-05
6970.0 5.3089e-05
6990.0 6.0109e-05
7010.0 6.0238e-05
7030.0 6.2191e-05
7050.0 5.8628e-05
7070.0 5.4996e-05
7090.0 5.561e-05
7110.0 5.7501e-05
7130.0 6.2415e-05
7150.0 6.6808e-05
7170.0 7.3899e-05
7190.0 8.103e-05
7210.0 7.8715e-05
7230.0 8.0794e-05
7250.0 8.6733e-05
7270.0 9.4247e-05
7290.0 0.00011246
7310.0 0.00012181
7330.0 0.00011744
7350.0 0.00010613
7370.0 9.0779e-05
7390.0 8.8549e-05
7410.0 9.5538e-05
7430.0 0.00010652
7450.0 0.00011588
7470.0 0.00011366
7490.0 0.00010189
7510.0 0.00012013
7530.0 0.00011774
7550.0 0.00010662
7570.0 8.1941e-05
7590.0 5.4054e-05
7610.0 4.5752e-05
7630.0 5.3135e-05
7650.0 6.3573e-05
7670.0 8.1246e-05
7690.0 8.9489e-05
7710.0 9.1791e-05
7730.0 9.5955e-05
7750.0 0.00010961
7770.0 0.00011153
7790.0 0.00010236
7810.0 9.2086e-05
7830.0 9.552e-05
7850.0 9.4203e-05
7870.0 8.7072e-05
7890.0 7.2473e-05
7910.0 5.769e-05
7930.0 5.5617e-05
7950.0 5.0637e-05
7970.0 4.64e-05
7990.0 4.5711e-05
8010.0 6.2922e-06
8030.0 5.8541e-06
8050.0 6.1345e-06
8070.0 6.8178e-06
8090.0 8.1951e-06
8110.0 7.844e-06
8130.0 4.9934e-06
8150.0 5.1852e-06
8170.0 3.2644e-06
8190.0 2.3327e-06
8210.0 4.9863e-06
8230.0 5.9167e-06
8250.0 3.2094e-06
8270.0 2.6119e-06
8290.0 3.9107e-06
8310.0 3.3622e-06
8330.0 2.1532e-06
8350.0 1.6347e-06
8370.0 5.285e-07
8390.0 1.8098e-06
8410.0 2.0655e-06
8430.0 2.5457e-06
8450.0 2.932e-06
8470.0 4.5188e-06
8490.0 3.9525e-06
8510.0 3.3276e-06
8530.0 2.4123e-06
8550.0 5.5461e-06
8570.0 7.8208e-06
8590.0 6.3069e-06
8610.0 8.9384e-06
8630.0 1.016e-05
8650.0 7.5043e-06
8670.0 9.4142e-06
8690.0 1.2171e-05
8710.0 1.058e-05
8730.0 1.0757e-05
8750.0 8.7587e-06
8770.0 7.9541e-06
8790.0 8.4151e-06
8810.0 8.7695e-06
8830.0 5.5171e-06
8850.0 2.935e-06
8870.0 2.1173e-06
8890.0 3.6146e-06
8910.0 5.2747e-06
8930.0 6.803e-06
8950.0 7.3084e-06
8970.0 7.0729e-06
8990.0 5.3821e-06
9010.0 2.2933e-05
9030.0 1.9929e-05
9050.0 2.0138e-05
9070.0 2.0414e-05
9090.0 2.0649e-05
9110.0 2.0939e-05
9130.0 2.1155e-05
9150.0 2.1315e-05
9170.0 2.1486e-05
9190.0 2.1668e-05
9210.0 2.186e-05
9230.0 2.2063e-05
9250.0 2.2268e-05
9270.0 2.248e-05
9290.0 2.2698e-05
9310.0 2.2916e-05
9330.0 2.3137e-05
9350.0 2.3367e-05
9370.0 2.3598e-05
9390.0 2.383e-05
9410.0 2.4068e-05
9430.0 2.4314e-05
9450.0 2.4557e-05
9470.0 2.4805e-05
9490.0 2.5059e-05
9510.0 2.5316e-05
9530.0 2.5573e-05
9550.0 2.584e-05
9570.0 2.6111e-05
9590.0 2.6381e-05
9610.0 2.6656e-05
9630.0 2.6938e-05
9650.0 2.7222e-05
9670.0 2.7506e-05
9690.0 2.7798e-05
9710.0 2.8094e-05
9730.0 2.839e-05
9750.0 2.869e-05
9770.0 2.9e-05
9790.0 2.9308e-05
9810.0 2.9617e-05
9830.0 2.9934e-05
9850.0 3.0254e-05
9870.0 3.0572e-05
9890.0 3.0896e-05
9910.0 3.1226e-05
9930.0 3.1556e-05
9950.0 3.1887e-05
9970.0 3.2225e-05
9990.0 3.2567e-05
10010.0 2.8353e-05
10030.0 2.8648e-05
10050.0 2.8949e-05
10070.0 2.9254e-05
10090.0 2.955e-05
10110.0 2.9853e-05
10130.0 3.0157e-05
10150.0 3.0459e-05
10170.0 3.0764e-05
10190.0 3.1075e-05
10210.0 3.1382e-05
10230.0 3.1687e-05
10250.0 3.1998e-05
10270.0 3.2309e-05
10290.0 3.2615e-05
10310.0 3.2926e-05
10330.0 3.324e-05
10350.0 3.3548e-05
10370.0 3.3855e-05
10390.0 3.4166e-05
10410.0 3.4475e-05
10430.0 3.4778e-05
10450.0 3.5084e-05
10470.0 3.5392e-05
10490.0 3.5693e-05
10510.0 3.5993e-05
10530.0 3.6298e-05
10550.0 3.6597e-05
10570.0 3.689e-05
10590.0 3.7185e-05
10610.0 3.7479e-05
10630.0 3.7766e-05
10650.0 3.805e-05
10670.0 3.8338e-05
10690.0 3.8619e-05
10710.0 3.8894e-05
10730.0 3.917e-05
10750.0 3.9447e-05
10770.0 3.9711e-05
10790.0 3.9973e-05
10810.0 4.0235e-05
10830.0 4.0489e-05
10850.0 4.073e-05
10870.0 4.0965e-05
10890.0 4.1175e-05
10910.0 4.1342e-05
10930.0 4.1448e-05
10950.0 4.1457e-05
10970.0 4.1339e-05
10990.0 4.108e-05
11010.0 3.8601e-05
11030.0 3.799e-05
11050.0 3.7241e-05
11070.0 3.6345e-05
11090.0 3.5267e-05
11110.0 3.4152e-05
11130.0 3.2988e-05
11150.0 3.1736e-05
11170.0 3.0447e-05
11190.0 2.9197e-05
11210.0 2.7907e-05
11230.0 2.6586e-05
11250.0 2.5324e-05
11270.0 2.4113e-05
11290.0 2.29e-05
11310.0 2.1752e-05
11330.0 2.074e-05
11350.0 1.9784e-05
11370.0 1.89e-05
11390.0 1.8134e-05
11410.0 1.7463e-05
11430.0 1.6838e-05
11450.0 1.6298e-05
11470.0 1.583e-05
11490.0 1.5394e-05
11510.0 1.4973e-05
11530.0 1.4582e-05
11550.0 1.4193e-05
11570.0 1.3779e-05
11590.0 1.3351e-05
11610.0 1.2916e-05
11630.0 1.2443e-05
11650.0 1.1938e-05
11670.0 1.1441e-05
11690.0 1.0938e-05
11710.0 1.0419e-05
11730.0 9.9158e-06
11750.0 9.4503e-06
11770.0 8.9937e-06
11790.0 8.5655e-06
11810.0 8.188e-06
11830.0 7.8498e-06
11850.0 7.5377e-06
11870.0 7.2759e-06
11890.0 7.0573e-06
11910.0 6.8647e-06
11930.0 6.6984e-06
11950.0 6.5592e-06
11970.0 6.4346e-06
11990.0 6.3166e-06
12010.0 6.2074e-06
12030.0 6.1022e-06
12050.0 5.9939e-06
12070.0 5.8815e-06
12090.0 5.7733e-06
12110.0 5.6636e-06
12130.0 5.5537e-06
12150.0 5.4522e-06
12170.0 5.363e-06
12190.0 5.2851e-06
12210.0 5.2293e-06
12230.0 5.1999e-06
12250.0 5.1991e-06
12270.0 5.2333e-06
12290.0 5.3024e-06
12310.0 5.4037e-06
12330.0 5.5472e-06
12350.0 5.7274e-06
12370.0 5.9333e-06
12390.0 6.1713e-06
12410.0 6.4509e-06
12430.0 6.7353e-06
12450.0 7.0298e-06
12470.0 7.3433e-06
12490.0 7.6581e-06
12510.0 7.9533e-06
12530.0 8.2469e-06
12550.0 8.5301e-06
12570.0 8.7797e-06
12590.0 8.9986e-06
12610.0 9.1933e-06
12630.0 9.3481e-06
12650.0 9.454e-06
12670.0 9.5229e-06
12690.0 9.549e-06
12710.0 9.5307e-06
12730.0 9.4729e-06
12750.0 9.3718e-06
12770.0 9.234e-06
12790.0 9.0675e-06
12810.0 8.8692e-06
12830.0 8.6403e-06
12850.0 8.401e-06
12870.0 8.1484e-06
12890.0 7.8754e-06
12910.0 7.5981e-06
12930.0 7.3249e-06
12950.0 7.0403e-06
12970.0 6.7508e-06
12990.0 6.477e-06
13010.0 6.2069e-06
13030.0 5.9339e-06
13050.0 5.6718e-06
13070.0 5.4262e-06
13090.0 5.1799e-06
13110.0 4.9416e-06
13130.0 4.7218e-06
13150.0 4.5135e-06
13170.0 4.3095e-06
13190.0 4.1278e-06
13210.0 3.9676e-06
13230.0 3.8208e-06
13250.0 3.6941e-06
13270.0 3.5937e-06
13290.0 3.5151e-06
13310.0 3.4601e-06
13330.0 3.4338e-06
13350.0 3.4344e-06
13370.0 3.463e-06
13390.0 3.5216e-06
13410.0 3.6018e-06
13430.0 3.7068e-06
13450.0 3.8372e-06
13470.0 3.9823e-06
13490.0 4.1364e-06
13510.0 4.3107e-06
13530.0 4.4878e-06
13550.0 4.6576e-06
13570.0 4.8253e-06
13590.0 4.9891e-06
13610.0 5.1351e-06
13630.0 5.2628e-06
13650.0 5.3797e-06
13670.0 5.477e-06
13690.0 5.5524e-06
13710.0 5.6111e-06
13730.0 5.6534e-06
13750.0 5.6749e-06
13770.0 5.6804e-06
13790.0 5.6709e-06
13810.0 5.6464e-06
13830.0 5.6098e-06
13850.0 5.5599e-06
13870.0 5.4968e-06
13890.0 5.4245e-06
13910.0 5.3429e-06
13930.0 5.2484e-06
13950.0 5.1452e-06
13970.0 5.0396e-06
13990.0 4.9247e-06
14010.0 4.8024e-06
14030.0 4.6805e-06
14050.0 4.5577e-06
14070.0 4.4281e-06
14090.0 4.3038e-06
14110.0 4.1871e-06
14130.0 4.0739e-06
14150.0 3.9673e-06
14170.0 3.8763e-06
14190.0 3.7975e-06
14210.0 3.7305e-06
14230.0 3.6808e-06
14250.0 3.6485e-06
14270.0 3.6326e-06
14290.0 3.6354e-06
14310.0 3.6552e-06
14330.0 3.6913e-06
14350.0 3.7445e-06
14370.0 3.8111e-06
14390.0 3.8869e-06
14410.0 3.9762e-06
14430.0 4.0745e-06
14450.0 4.1751e-06
14470.0 4.2795e-06
14490.0 4.3908e-06
14510.0 4.4973e-06
14530.0 4.5986e-06
14550.0 4.7e-06
14570.0 4.7974e-06
14590.0 4.8861e-06
14610.0 4.972e-06
14630.0 5.057e-06
14650.0 5.1361e-06
14670.0 5.2125e-06
14690.0 5.292e-06
14710.0 5.3756e-06
14730.0 5.4591e-06
14750.0 5.5516e-06
14770.0 5.6564e-06
14790.0 5.7701e-06
14810.0 5.8934e-06
14830.0 6.0394e-06
14850.0 6.1983e-06
14870.0 6.3641e-06
14890.0 6.5432e-06
14910.0 6.7335e-06
14930.0 6.9167e-06
14950.0 7.0879e-06
14970.0 7.2503e-06
14990.0 7.3866e-06
15010.0 7.4911e-06
15030.0 7.5688e-06
15050.0 7.6206e-06
15070.0 7.6464e-06
15090.0 7.6562e-06
15110.0 7.6547e-06
15130.0 7.6461e-06
15150.0 7.6342e-06
15170.0 7.6199e-06
15190.0 7.6045e-06
15210.0 7.5893e-06
15230.0 7.5742e-06
15250.0 7.5585e-06
15270.0 7.543e-06
15290.0 7.5284e-06
15310.0 7.5134e-06
15330.0 7.4982e-06
15350.0 7.4836e-06
15370.0 7.4692e-06
15390.0 7.454e-06
15410.0 7.4393e-06
15430.0 7.4252e-06
15450.0 7.4106e-06
15470.0 7.3958e-06
15490.0 7.3819e-06
15510.0 7.368e-06
15530.0 7.3535e-06
15550.0 7.3394e-06
15570.0 7.3258e-06
15590.0 7.3116e-06
15610.0 7.2972e-06
15630.0 7.2836e-06
15650.0 7.27e-06
15670.0 7.2559e-06
15690.0 7.2422e-06
15710.0 7.229e-06
15730.0 7.2151e-06
15750.0 7.2013e-06
15770.0 7.188e-06
15790.0 7.1746e-06
15810.0 7.1605e-06
15830.0 7.1471e-06
15850.0 7.134e-06
15870.0 7.1204e-06
15890.0 7.1068e-06
15910.0 7.0939e-06
15930.0 7.0806e-06
15950.0 7.0667e-06
15970.0 7.0535e-06
15990.0 7.0405e-06
16010.0 7.0269e-06
16030.0 7.0131e-06
16050.0 7.0003e-06
16070.0 6.9871e-06
16090.0 6.9735e-06
16110.0 6.9603e-06
16130.0 6.9475e-06
16150.0 6.9336e-06
16170.0 6.92e-06
16190.0 6.9071e-06
16210.0 6.8938e-06
16230.0 6.88e-06
16250.0 6.8668e-06
16270.0 6.8538e-06
16290.0 6.8401e-06
16310.0 6.8266e-06
16330.0 6.8135e-06
16350.0 6.8e-06
16370.0 6.7858e-06
16390.0 6.7726e-06
16410.0 6.7594e-06
16430.0 6.7455e-06
16450.0 6.7318e-06
16470.0 6.7187e-06
16490.0 6.7049e-06
16510.0 6.6908e-06
16530.0 6.6773e-06
16550.0 6.6638e-06
16570.0 6.6495e-06
16590.0 6.6354e-06
16610.0 6.6221e-06
16630.0 6.6081e-06
16650.0 6.5939e-06
16670.0 6.5802e-06
16690.0 6.5665e-06
16710.0 6.5518e-06
16730.0 6.5376e-06
16750.0 6.5238e-06
16770.0 6.5094e-06
16790.0 6.4947e-06
16810.0 6.4808e-06
16830.0 6.4666e-06
16850.0 6.4519e-06
16870.0 6.4374e-06
16890.0 6.4233e-06
16910.0 6.4085e-06
16930.0 6.3933e-06
16950.0 6.379e-06
16970.0 6.3645e-06
16990.0 6.3493e-06
17010.0 6.3345e-06
17030.0 6.3202e-06
17050.0 6.3049e-06
17070.0 6.2897e-06
17090.0 6.2749e-06
17110.0 6.2599e-06
17130.0 6.2441e-06
17150.0 6.229e-06
17170.0 6.2141e-06
17190.0 6.1986e-06
17210.0 6.183e-06
17230.0 6.1681e-06
17250.0 6.1526e-06
17270.0 6.1365e-06
17290.0 6.121e-06
17310.0 6.1057e-06
17330.0 6.0896e-06
17350.0 6.0735e-06
17370.0 6.0582e-06
17390.0 6.0424e-06
17410.0 6.0261e-06
17430.0 6.0103e-06
17450.0 5.9947e-06
17470.0 5.9779e-06
17490.0 5.9616e-06
17510.0 5.9457e-06
17530.0 5.9295e-06
17550.0 5.9127e-06
17570.0 5.8966e-06
17590.0 5.8806e-06
17610.0 5.8637e-06
17630.0 5.8471e-06
17650.0 5.8309e-06
17670.0 5.8142e-06
17690.0 5.7968e-06
17710.0 5.7804e-06
17730.0 5.7639e-06
17750.0 5.7468e-06
17770.0 5.7298e-06
17790.0 5.7135e-06
17810.0 5.6963e-06
17830.0 5.6788e-06
17850.0 5.662e-06
17870.0 5.6451e-06
17890.0 5.6275e-06
17910.0 5.6101e-06
17930.0 5.5934e-06
17950.0 5.576e-06
17970.0 5.5584e-06
17990.0 5.5414e-06
18010.0 5.5242e-06
18030.0 5.5061e-06
18050.0 5.4886e-06
18070.0 5.4714e-06
18090.0 5.4537e-06
18110.0 5.4357e-06
18130.0 5.4185e-06
18150.0 5.401e-06
18170.0 5.3829e-06
18190.0 5.3652e-06
18210.0 5.3479e-06
18230.0 5.3297e-06
18250.0 5.3114e-06
18270.0 5.2939e-06
18290.0 5.2761e-06
18310.0 5.2578e-06
18330.0 5.24e-06
18350.0 5.2225e-06
18370.0 5.2041e-06
18390.0 5.1858e-06
18410.0 5.1681e-06
18430.0 5.1501e-06
18450.0 5.1313e-06
18470.0 5.1133e-06
18490.0 5.0955e-06
18510.0 5.0771e-06
18530.0 5.0587e-06
18550.0 5.041e-06
18570.0 5.0227e-06
18590.0 5.0039e-06
18610.0 4.9857e-06
18630.0 4.9677e-06
18650.0 4.9491e-06
18670.0 4.9304e-06
18690.0 4.9126e-06
18710.0 4.8943e-06
18730.0 4.8755e-06
18750.0 4.8573e-06
18770.0 4.8394e-06
18790.0 4.8203e-06
18810.0 4.8017e-06
18830.0 4.7836e-06
18850.0 4.7651e-06
18870.0 4.7463e-06
18890.0 4.7281e-06
18910.0 4.71e-06
18930.0 4.6911e-06
18950.0 4.6725e-06
18970.0 4.6544e-06
18990.0 4.6358e-06
19010.0 4.6165e-06
19030.0 4.5984e-06
19050.0 4.5802e-06
19070.0 4.5613e-06
19090.0 4.5428e-06
19110.0 4.5249e-06
19130.0 4.506e-06
19150.0 4.4871e-06
19170.0 4.4689e-06
19190.0 4.4505e-06
19210.0 4.4315e-06
19230.0 4.4128e-06
19250.0 4.3949e-06
19270.0 4.3762e-06
19290.0 4.3575e-06
19310.0 4.3393e-06
19330.0 4.321e-06
19350.0 4.3018e-06
19370.0 4.2834e-06
19390.0 4.2652e-06
19410.0 4.2465e-06
19430.0 4.2277e-06
19450.0 4.2097e-06
19470.0 4.1914e-06
19490.0 4.1725e-06
19510.0 4.1542e-06
19530.0 4.1361e-06
19550.0 4.1173e-06
19570.0 4.0984e-06
19590.0 4.0804e-06
19610.0 4.0621e-06
19630.0 4.0434e-06
19650.0 4.0251e-06
19670.0 4.0072e-06
19690.0 3.9885e-06
19710.0 3.9699e-06
19730.0 3.9519e-06
19750.0 3.9336e-06
19770.0 3.9147e-06
19790.0 3.8966e-06
19810.0 3.8786e-06
19830.0 3.86e-06
19850.0 3.8414e-06
19870.0 3.823e-06
19890.0 3.8034e-06
19910.0 3.7819e-06
19930.0 3.7589e-06
19950.0 3.7327e-06
19970.0 3.7006e-06
19990.0 3.6621e-06
20010.0 3.265e-06
20030.0 3.2173e-06
20050.0 3.1616e-06
20070.0 3.1014e-06
20090.0 3.0366e-06
20110.0 2.9634e-06
20130.0 2.8893e-06
20150.0 2.816e-06
20170.0 2.74e-06
20190.0 2.663e-06
20210.0 2.5903e-06
20230.0 2.5193e-06
20250.0 2.4483e-06
20270.0 2.3823e-06
20290.0 2.3221e-06
20310.0 2.2649e-06
20330.0 2.2114e-06
20350.0 2.1669e-06
20370.0 2.1274e-06
20390.0 2.0927e-06
20410.0 2.0647e-06
20430.0 2.0429e-06
20450.0 2.0257e-06
20470.0 2.014e-06
20490.0 2.0076e-06
20510.0 2.0055e-06
20530.0 2.0077e-06
20550.0 2.0137e-06
20570.0 2.0225e-06
20590.0 2.0345e-06
20610.0 2.0491e-06
20630.0 2.0652e-06
20650.0 2.0833e-06
20670.0 2.1041e-06
20690.0 2.1252e-06
20710.0 2.1471e-06
20730.0 2.1708e-06
20750.0 2.1955e-06
20770.0 2.2197e-06
20790.0 2.2452e-06
20810.0 2.2722e-06
20830.0 2.299e-06
20850.0 2.3259e-06
20870.0 2.3546e-06
20890.0 2.3839e-06
20910.0 2.4122e-06
20930.0 2.4415e-06
20950.0 2.4718e-06
20970.0 2.5013e-06
20990.0 2.5305e-06
21010.0 2.5611e-06
21030.0 2.591e-06
21050.0 2.6195e-06
21070.0 2.648e-06
21090.0 2.6766e-06
21110.0 2.7026e-06
21130.0 2.727e-06
21150.0 2.7507e-06
21170.0 2.7721e-06
21190.0 2.7904e-06
21210.0 2.807e-06
21230.0 2.8207e-06
21250.0 2.8304e-06
21270.0 2.8365e-06
21290.0 2.8387e-06
21310.0 2.8363e-06
21330.0 2.8295e-06
21350.0 2.8177e-06
21370.0 2.8004e-06
21390.0 2.7784e-06
21410.0 2.7515e-06
21430.0 2.7175e-06
21450.0 2.6793e-06
21470.0 2.6377e-06
21490.0 2.5907e-06
21510.0 2.5392e-06
21530.0 2.4868e-06
21550.0 2.432e-06
21570.0 2.3735e-06
21590.0 2.316e-06
21610.0 2.2604e-06
21630.0 2.2048e-06
21650.0 2.1505e-06
21670.0 2.1034e-06
21690.0 2.0599e-06
21710.0 2.0208e-06
21730.0 1.9887e-06
21750.0 1.9639e-06
21770.0 1.945e-06
21790.0 1.9341e-06
21810.0 1.9309e-06
21830.0 1.9351e-06
21850.0 1.947e-06
21870.0 1.9656e-06
21890.0 1.9897e-06
21910.0 2.0206e-06
21930.0 2.0569e-06
21950.0 2.0963e-06
21970.0 2.1399e-06
21990.0 2.1889e-06
22010.0 2.2378e-06
22030.0 2.2875e-06
22050.0 2.3397e-06
22070.0 2.3922e-06
22090.0 2.4419e-06
22110.0 2.4921e-06
22130.0 2.5421e-06
22150.0 2.5889e-06
22170.0 2.6329e-06
22190.0 2.6766e-06
22210.0 2.7173e-06
22230.0 2.753e-06
22250.0 2.7867e-06
22270.0 2.8177e-06
22290.0 2.8442e-06
22310.0 2.8669e-06
22330.0 2.8868e-06
22350.0 2.9023e-06
22370.0 2.9131e-06
22390.0 2.9199e-06
22410.0 2.9219e-06
22430.0 2.919e-06
22450.0 2.9114e-06
22470.0 2.8984e-06
22490.0 2.88e-06
22510.0 2.8573e-06
22530.0 2.8282e-06
22550.0 2.7928e-06
22570.0 2.7535e-06
22590.0 2.7093e-06
22610.0 2.6584e-06
22630.0 2.6033e-06
