#lamb flux
1010.0 0.00022995
1030.0 0.00030275
1050.0 0.00039538
1070.0 0.00051108
1090.0 0.00065608
1110.0 0.00082462
1130.0 0.0010161
1150.0 0.0012368
1170.0 0.0014858
1190.0 0.0017488
1210.0 0.0020324
1230.0 0.0023362
1250.0 0.0026452
1270.0 0.0029495
1290.0 0.0032578
1310.0 0.0035508
1330.0 0.0038103
1350.0 0.0040395
1370.0 0.0042357
1390.0 0.004381
1410.0 0.0044716
1430.0 0.0045215
1450.0 0.004522
1470.0 0.0044701
1490.0 0.0043793
1510.0 0.0042622
1530.0 0.004107
1550.0 0.0039288
1570.0 0.0037404
1590.0 0.0035434
1610.0 0.003339
1630.0 0.0031407
1650.0 0.0029512
1670.0 0.0027683
1690.0 0.0025966
1710.0 0.0024413
1730.0 0.0023005
1750.0 0.002171
1770.0 0.0020584
1790.0 0.0019613
1810.0 0.0018769
1830.0 0.0018055
1850.0 0.0017495
1870.0 0.0017047
1890.0 0.0016703
1910.0 0.0016476
1930.0 0.0016363
1950.0 0.0016333
1970.0 0.0016396
1990.0 0.0016562
2010.0 0.0016811
2030.0 0.0017135
2050.0 0.0017552
2070.0 0.0018058
2090.0 0.0018625
2110.0 0.0019269
2130.0 0.0019999
2150.0 0.0020798
2170.0 0.0021656
2190.0 0.0022597
2210.0 0.0023612
2230.0 0.002468
2250.0 0.0025813
2270.0 0.0027027
2290.0 0.0028291
2310.0 0.0029597
2330.0 0.003097
2350.0 0.0032398
2370.0 0.0033853
2390.0 0.0035351
2410.0 0.0036905
2430.0 0.0038472
2450.0 0.0040053
2470.0 0.004168
2490.0 0.0043365
2510.0 0.00451
2530.0 0.0046996
2550.0 0.004921
2570.0 0.0051874
2590.0 0.0055175
2610.0 0.0059689
2630.0 0.0065679
2650.0 0.0073169
2670.0 0.0082659
2690.0 0.0094528
2710.0 0.010799
2730.0 0.012254
2750.0 0.013861
2770.0 0.015471
2790.0 0.016955
2810.0 0.018313
2830.0 0.019532
2850.0 0.020463
2870.0 0.021192
2890.0 0.021781
2910.0 0.022236
2930.0 0.022569
2950.0 0.022856
2970.0 0.023103
2990.0 0.023291
3010.0 0.023441
3030.0 0.023583
3050.0 0.023699
3070.0 0.02376
3090.0 0.023814
3110.0 0.023856
3130.0 0.023881
3150.0 0.02372
3170.0 0.023699
3190.0 0.023782
3210.0 0.024051
3230.0 0.024677
3250.0 0.026028
3270.0 0.027936
3290.0 0.029925
3310.0 0.031892
3330.0 0.032448
3350.0 0.032597
3370.0 0.032716
3390.0 0.032782
3410.0 0.032707
3430.0 0.032525
3450.0 0.032357
3470.0 0.032346
3490.0 0.032013
3510.0 0.030649
3530.0 0.028322
3550.0 0.027264
3570.0 0.031299
3590.0 0.036503
3610.0 0.040403
3630.0 0.046065
3650.0 0.045231
3670.0 0.039172
3690.0 0.03349
3710.0 0.031259
3730.0 0.032186
3750.0 0.03291
3770.0 0.033724
3790.0 0.034547
3810.0 0.035697
3830.0 0.032947
3850.0 0.02916
3870.0 0.027283
3890.0 0.028925
3910.0 0.030035
3930.0 0.030152
3950.0 0.031791
3970.0 0.033805
3990.0 0.034163
4010.0 0.034783
4030.0 0.033651
4050.0 0.03272
4070.0 0.032134
4090.0 0.032433
4110.0 0.032873
4130.0 0.032185
4150.0 0.030999
4170.0 0.030621
4190.0 0.030378
4210.0 0.02836
4230.0 0.026197
4250.0 0.023639
4270.0 0.021317
4290.0 0.020571
4310.0 0.020261
4330.0 0.020924
4350.0 0.023213
4370.0 0.024355
4390.0 0.026949
4410.0 0.029043
4430.0 0.029902
4450.0 0.027844
4470.0 0.025583
4490.0 0.025017
4510.0 0.024628
4530.0 0.02465
4550.0 0.024604
4570.0 0.025018
4590.0 0.025971
4610.0 0.026574
4630.0 0.027168
4650.0 0.027444
4670.0 0.027324
4690.0 0.025787
4710.0 0.024356
4730.0 0.02321
4750.0 0.022587
4770.0 0.021799
4790.0 0.021903
4810.0 0.021533
4830.0 0.020562
4850.0 0.021739
4870.0 0.020864
4890.0 0.02116
4910.0 0.021278
4930.0 0.020242
4950.0 0.017501
4970.0 0.016339
4990.0 0.015472
5010.0 0.014421
5030.0 0.014421
5050.0 0.015433
5070.0 0.015885
5090.0 0.016624
5110.0 0.016937
5130.0 0.016909
5150.0 0.017204
5170.0 0.016577
5190.0 0.016479
5210.0 0.016761
5230.0 0.016097
5250.0 0.016459
5270.0 0.01736
5290.0 0.017076
5310.0 0.016175
5330.0 0.01568
5350.0 0.014699
5370.0 0.014399
5390.0 0.014227
5410.0 0.013928
5430.0 0.014165
5450.0 0.01364
5470.0 0.013644
5490.0 0.015049
5510.0 0.0153
5530.0 0.015271
5550.0 0.015208
5570.0 0.015479
5590.0 0.015606
5610.0 0.015391
5630.0 0.015169
5650.0 0.014932
5670.0 0.014664
5690.0 0.014357
5710.0 0.013993
5730.0 0.014182
5750.0 0.01373
5770.0 0.013105
5790.0 0.012691
5810.0 0.01191
5830.0 0.012286
5850.0 0.012612
5870.0 0.012545
5890.0 0.012615
5910.0 0.013105
5930.0 0.013091
5950.0 0.01312
5970.0 0.013165
5990.0 0.013299
6010.0 0.013022
6030.0 0.012847
6050.0 0.01267
6070.0 0.012457
6090.0 0.012619
6110.0 0.012462
6130.0 0.012048
6150.0 0.011752
6170.0 0.011451
6190.0 0.010553
6210.0 0.01041
6230.0 0.010495
6250.0 0.010378
6270.0 0.01036
6290.0 0.010606
6310.0 0.010888
6330.0 0.010891
6350.0 0.010712
6370.0 0.010711
6390.0 0.01028
6410.0 0.010209
6430.0 0.0099156
6450.0 0.0098394
6470.0 0.0097969
6490.0 0.0098186
6510.0 0.0095002
6530.0 0.0094428
6550.0 0.0093041
6570.0 0.0090869
6590.0 0.0092435
6610.0 0.0092204
6630.0 0.0090651
6650.0 0.0087748
6670.0 0.0086065
6690.0 0.0084001
6710.0 0.0081652
6730.0 0.008061
6750.0 0.0081123
6770.0 0.0082866
6790.0 0.0081734
6810.0 0.0081345
6830.0 0.0078307
6850.0 0.0074535
6870.0 0.0073177
6890.0 0.0072578
6910.0 0.0072536
6930.0 0.0071422
6950.0 0.0072338
6970.0 0.0070552
6990.0 0.0069768
7010.0 0.006947
7030.0 0.0070305
7050.0 0.006929
7070.0 0.0065387
7090.0 0.0062281
7110.0 0.0062149
7130.0 0.0063104
7150.0 0.0063424
7170.0 0.0063395
7190.0 0.0062238
7210.0 0.0065162
7230.0 0.0067316
7250.0 0.0067679
7270.0 0.0067361
7290.0 0.0068714
7310.0 0.0067021
7330.0 0.0065622
7350.0 0.0063313
7370.0 0.0063629
7390.0 0.0065187
7410.0 0.0061661
7430.0 0.0062438
7450.0 0.0061553
7470.0 0.0063451
7490.0 0.0062402
7510.0 0.0059213
7530.0 0.0060684
7550.0 0.0055658
7570.0 0.0054562
7590.0 0.0054251
7610.0 0.0056738
7630.0 0.0056465
7650.0 0.0058663
7670.0 0.0054328
7690.0 0.0052963
7710.0 0.0054769
7730.0 0.0058355
7750.0 0.005667
7770.0 0.0059637
7790.0 0.0060124
7810.0 0.0059857
7830.0 0.0063757
7850.0 0.0060791
7870.0 0.0064746
7890.0 0.0062599
7910.0 0.0061734
7930.0 0.0059327
7950.0 0.0058502
7970.0 0.0059999
7990.0 0.0058669
8010.0 0.0056388
8030.0 0.0055838
8050.0 0.0054709
8070.0 0.0053717
8090.0 0.0049848
8110.0 0.0050068
8130.0 0.0053002
8150.0 0.0054842
8170.0 0.0055145
8190.0 0.0056687
8210.0 0.0055694
8230.0 0.0054353
8250.0 0.0054189
8270.0 0.0053148
8290.0 0.0052064
8310.0 0.0049547
8330.0 0.0049662
8350.0 0.0050228
8370.0 0.0050542
8390.0 0.0050589
8410.0 0.0049883
8430.0 0.0049354
8450.0 0.0049385
8470.0 0.005096
8490.0 0.0051567
8510.0 0.0049759
8530.0 0.0047889
8550.0 0.0047827
8570.0 0.0046852
8590.0 0.0045807
8610.0 0.0046675
8630.0 0.0046467
8650.0 0.0045963
8670.0 0.0045631
8690.0 0.0045173
8710.0 0.0043129
8730.0 0.0043375
8750.0 0.0042253
8770.0 0.0042383
8790.0 0.0041657
8810.0 0.0040692
8830.0 0.0040893
8850.0 0.0040677
8870.0 0.003878
8890.0 0.003758
8910.0 0.0036129
8930.0 0.0034144
8950.0 0.0033505
8970.0 0.0032079
8990.0 0.0031625
9010.0 0.003071
9030.0 0.0030395
9050.0 0.0030201
9070.0 0.0030011
9090.0 0.002982
9110.0 0.0029623
9130.0 0.0029428
9150.0 0.0029235
9170.0 0.0029041
9190.0 0.0028845
9210.0 0.0028648
9230.0 0.002845
9250.0 0.0028251
9270.0 0.0028052
9290.0 0.0027851
9310.0 0.0027653
9330.0 0.0027458
9350.0 0.0027263
9370.0 0.0027067
9390.0 0.0026872
9410.0 0.0026676
9430.0 0.0026481
9450.0 0.0026286
9470.0 0.0026109
9490.0 0.0025923
9510.0 0.002572
9530.0 0.0025519
9550.0 0.0025323
9570.0 0.0025129
9590.0 0.0024936
9610.0 0.0024748
9630.0 0.0024561
9650.0 0.0024376
9670.0 0.002419
9690.0 0.0024006
9710.0 0.0023824
9730.0 0.0023642
9750.0 0.0023462
9770.0 0.0023284
9790.0 0.0023107
9810.0 0.002293
9830.0 0.0022755
9850.0 0.0022565
9870.0 0.0022377
9890.0 0.0022221
9910.0 0.0022062
9930.0 0.0021871
9950.0 0.0021705
9970.0 0.0021555
9990.0 0.0021401
10010.0 0.0021249
10030.0 0.0021094
10050.0 0.0020937
10070.0 0.0020783
10090.0 0.0020632
10110.0 0.0020479
10130.0 0.0020328
10150.0 0.0020182
10170.0 0.0020036
10190.0 0.001989
10210.0 0.0019749
10230.0 0.001961
10250.0 0.001947
10270.0 0.0019333
10290.0 0.00192
10310.0 0.0019067
10330.0 0.0018934
10350.0 0.0018805
10370.0 0.0018679
10390.0 0.0018552
10410.0 0.0018419
10430.0 0.0018289
10450.0 0.0018177
10470.0 0.0018062
10490.0 0.0017949
10510.0 0.0017837
10530.0 0.0017722
10550.0 0.0017611
10570.0 0.0017504
10590.0 0.0017396
10610.0 0.0017288
10630.0 0.0017185
10650.0 0.0017084
10670.0 0.0016981
10690.0 0.0016882
10710.0 0.0016785
10730.0 0.0016689
10750.0 0.0016592
10770.0 0.0016501
10790.0 0.001641
10810.0 0.0016319
10830.0 0.0016231
10850.0 0.0016146
10870.0 0.0016059
10890.0 0.0015974
10910.0 0.0015893
10930.0 0.0015812
10950.0 0.0015731
10970.0 0.0015652
10990.0 0.0015576
11010.0 0.001757
11030.0 0.0017472
11050.0 0.0017366
11070.0 0.001725
11090.0 0.0017123
11110.0 0.0016995
11130.0 0.0016865
11150.0 0.0016729
11170.0 0.0016591
11190.0 0.0016458
11210.0 0.0016321
11230.0 0.0016182
11250.0 0.0016048
11270.0 0.0015917
11290.0 0.0015785
11310.0 0.0015656
11330.0 0.0015539
11350.0 0.0015424
11370.0 0.0015313
11390.0 0.0015211
11410.0 0.0015116
11430.0 0.0015022
11450.0 0.0014934
11470.0 0.0014854
11490.0 0.0014775
11510.0 0.0014697
11530.0 0.0014623
11550.0 0.0014552
11570.0 0.0014478
11590.0 0.0014404
11610.0 0.0014333
11630.0 0.0014257
11650.0 0.0014178
11670.0 0.0014102
11690.0 0.0014024
11710.0 0.0013941
11730.0 0.0013858
11750.0 0.0013777
11770.0 0.0013692
11790.0 0.0013605
11810.0 0.0013521
11830.0 0.0013437
11850.0 0.0013349
11870.0 0.0013265
11890.0 0.0013187
11910.0 0.0013108
11930.0 0.0013032
11950.0 0.0012964
11970.0 0.0012899
11990.0 0.0012836
12010.0 0.0012781
12030.0 0.0012734
12050.0 0.0012691
12070.0 0.0012653
12090.0 0.0012624
12110.0 0.0012601
12130.0 0.0012582
12150.0 0.001257
12170.0 0.0012563
12190.0 0.0012559
12210.0 0.0012558
12230.0 0.0012559
12250.0 0.0012562
12270.0 0.0012563
12290.0 0.0012564
12310.0 0.0012563
12330.0 0.0012558
12350.0 0.0012548
12370.0 0.0012534
12390.0 0.0012514
12410.0 0.0012486
12430.0 0.0012453
12450.0 0.0012415
12470.0 0.0012368
12490.0 0.0012314
12510.0 0.0012257
12530.0 0.0012192
12550.0 0.0012119
12570.0 0.0012043
12590.0 0.0011964
12610.0 0.0011876
12630.0 0.0011785
12650.0 0.0011696
12670.0 0.0011602
12690.0 0.0011504
12710.0 0.0011409
12730.0 0.0011315
12750.0 0.0011215
12770.0 0.0011118
12790.0 0.0011027
12810.0 0.0010935
12830.0 0.0010843
12850.0 0.001076
12870.0 0.001068
12890.0 0.0010602
12910.0 0.001053
12930.0 0.0010465
12950.0 0.0010403
12970.0 0.0010347
12990.0 0.00103
13010.0 0.001026
13030.0 0.0010225
13050.0 0.0010198
13070.0 0.0010178
13090.0 0.0010163
13110.0 0.0010154
13130.0 0.001015
13150.0 0.0010149
13170.0 0.001015
13190.0 0.0010152
13210.0 0.0010155
13230.0 0.0010156
13250.0 0.0010156
13270.0 0.0010152
13290.0 0.0010146
13310.0 0.0010134
13330.0 0.0010118
13350.0 0.0010098
13370.0 0.0010072
13390.0 0.001004
13410.0 0.0010005
13430.0 0.0009963
13450.0 0.00099143
13470.0 0.00098615
13490.0 0.00098051
13510.0 0.000974
13530.0 0.00096707
13550.0 0.00096001
13570.0 0.00095248
13590.0 0.00094438
13610.0 0.00093625
13630.0 0.0009281
13650.0 0.00091938
13670.0 0.00091053
13690.0 0.00090181
13710.0 0.00089283
13730.0 0.00088328
13750.0 0.00087416
13770.0 0.00086504
13790.0 0.00085558
13810.0 0.00084614
13830.0 0.00083709
13850.0 0.00082779
13870.0 0.00081837
13890.0 0.00080935
13910.0 0.00080054
13930.0 0.00079153
13950.0 0.00078276
13970.0 0.00077462
13990.0 0.00076646
14010.0 0.00075842
14030.0 0.00075089
14050.0 0.00074366
14070.0 0.00073635
14090.0 0.00072951
14110.0 0.0007231
14130.0 0.00071681
14150.0 0.00071064
14170.0 0.00070496
14190.0 0.00069947
14210.0 0.00069399
14230.0 0.00068875
14250.0 0.00068377
14270.0 0.00067874
14290.0 0.00067376
14310.0 0.00066907
14330.0 0.00066446
14350.0 0.00065982
14370.0 0.00065535
14390.0 0.0006511
14410.0 0.0006468
14430.0 0.00064259
14450.0 0.00063859
14470.0 0.00063466
14490.0 0.00063066
14510.0 0.00062685
14530.0 0.00062315
14550.0 0.0006194
14570.0 0.00061564
14590.0 0.00061199
14610.0 0.00060829
14630.0 0.00060446
14650.0 0.0006007
14670.0 0.00059694
14690.0 0.00059306
14710.0 0.00058909
14730.0 0.00058525
14750.0 0.0005813
14770.0 0.00057721
14790.0 0.00057315
14810.0 0.00056909
14830.0 0.00056478
14850.0 0.00056045
14870.0 0.00055618
14890.0 0.00055182
14910.0 0.00054737
14930.0 0.00054308
14950.0 0.00053897
14970.0 0.0005349
14990.0 0.00053109
15010.0 0.00052763
15030.0 0.00052438
15050.0 0.0005213
15070.0 0.00051853
15090.0 0.00051591
15110.0 0.00051334
15130.0 0.00051084
15150.0 0.00050843
15170.0 0.00050598
15190.0 0.00050352
15210.0 0.0005011
15230.0 0.0004987
15250.0 0.00049624
15270.0 0.00049379
15290.0 0.0004914
15310.0 0.00048898
15330.0 0.00048653
15350.0 0.00048413
15370.0 0.00048173
15390.0 0.00047927
15410.0 0.00047685
15430.0 0.00047446
15450.0 0.00047204
15470.0 0.00046959
15490.0 0.00046721
15510.0 0.00046483
15530.0 0.0004624
15550.0 0.00046
15570.0 0.00045764
15590.0 0.00045523
15610.0 0.00045281
15630.0 0.00045045
15650.0 0.00044808
15670.0 0.00044569
15690.0 0.00044332
15710.0 0.00044099
15730.0 0.00043862
15750.0 0.00043625
15770.0 0.00043392
15790.0 0.00043159
15810.0 0.00042922
15830.0 0.00042689
15850.0 0.0004246
15870.0 0.00042227
15890.0 0.00041995
15910.0 0.00041768
15930.0 0.00041539
15950.0 0.00041307
15970.0 0.00041079
15990.0 0.00040854
16010.0 0.00040626
16030.0 0.00040398
16050.0 0.00040177
16070.0 0.00039953
16090.0 0.00039728
16110.0 0.00039507
16130.0 0.00039289
16150.0 0.00039064
16170.0 0.00038843
16190.0 0.00038627
16210.0 0.0003841
16230.0 0.0003819
16250.0 0.00037976
16270.0 0.00037764
16290.0 0.00037548
16310.0 0.00037334
16330.0 0.00037125
16350.0 0.00036914
16370.0 0.00036699
16390.0 0.00036493
16410.0 0.00036287
16430.0 0.00036079
16450.0 0.00035873
16470.0 0.00035672
16490.0 0.00035467
16510.0 0.00035263
16530.0 0.00035063
16550.0 0.00034864
16570.0 0.00034663
16590.0 0.00034464
16610.0 0.00034271
16630.0 0.00034075
16650.0 0.00033879
16670.0 0.00033688
16690.0 0.00033498
16710.0 0.00033303
16730.0 0.00033114
16750.0 0.00032927
16770.0 0.0003274
16790.0 0.00032551
16810.0 0.00032369
16830.0 0.00032187
16850.0 0.00032003
16870.0 0.00031822
16890.0 0.00031644
16910.0 0.00031464
16930.0 0.00031284
16950.0 0.0003111
16970.0 0.00030936
16990.0 0.0003076
17010.0 0.00030588
17030.0 0.0003042
17050.0 0.00030248
17070.0 0.00030078
17090.0 0.00029912
17110.0 0.00029747
17130.0 0.00029578
17150.0 0.00029415
17170.0 0.00029255
17190.0 0.00029092
17210.0 0.00028931
17230.0 0.00028775
17250.0 0.00028618
17270.0 0.00028459
17290.0 0.00028304
17310.0 0.00028152
17330.0 0.00027997
17350.0 0.00027844
17370.0 0.00027697
17390.0 0.00027548
17410.0 0.00027398
17430.0 0.00027253
17450.0 0.0002711
17470.0 0.00026962
17490.0 0.00026818
17510.0 0.00026678
17530.0 0.00026537
17550.0 0.00026395
17570.0 0.00026258
17590.0 0.00026123
17610.0 0.00025985
17630.0 0.0002585
17650.0 0.00025718
17670.0 0.00025585
17690.0 0.0002545
17710.0 0.00025321
17730.0 0.00025193
17750.0 0.00025064
17770.0 0.00024936
17790.0 0.00024813
17810.0 0.00024687
17830.0 0.00024561
17850.0 0.0002444
17870.0 0.00024319
17890.0 0.00024196
17910.0 0.00024075
17930.0 0.0002396
17950.0 0.00023842
17970.0 0.00023724
17990.0 0.0002361
18010.0 0.00023497
18030.0 0.0002338
18050.0 0.00023267
18070.0 0.00023158
18090.0 0.00023046
18110.0 0.00022935
18130.0 0.00022828
18150.0 0.00022722
18170.0 0.00022613
18190.0 0.00022507
18210.0 0.00022404
18230.0 0.00022299
18250.0 0.00022193
18270.0 0.00022093
18290.0 0.00021992
18310.0 0.00021889
18330.0 0.0002179
18350.0 0.00021694
18370.0 0.00021594
18390.0 0.00021496
18410.0 0.00021401
18430.0 0.00021306
18450.0 0.00021208
18470.0 0.00021114
18490.0 0.00021023
18510.0 0.0002093
18530.0 0.00020837
18550.0 0.00020749
18570.0 0.00020658
18590.0 0.00020566
18610.0 0.00020478
18630.0 0.00020391
18650.0 0.00020302
18670.0 0.00020214
18690.0 0.00020131
18710.0 0.00020045
18730.0 0.00019959
18750.0 0.00019876
18770.0 0.00019794
18790.0 0.00019708
18810.0 0.00019625
18830.0 0.00019545
18850.0 0.00019464
18870.0 0.00019382
18890.0 0.00019303
18910.0 0.00019226
18930.0 0.00019145
18950.0 0.00019066
18970.0 0.0001899
18990.0 0.00018912
19010.0 0.00018832
19030.0 0.00018758
19050.0 0.00018683
19070.0 0.00018606
19090.0 0.00018531
19110.0 0.0001846
19130.0 0.00018384
19150.0 0.00018309
19170.0 0.00018237
19190.0 0.00018165
19210.0 0.0001809
19230.0 0.00018018
19250.0 0.00017949
19270.0 0.00017877
19290.0 0.00017805
19310.0 0.00017736
19330.0 0.00017667
19350.0 0.00017594
19370.0 0.00017525
19390.0 0.00017457
19410.0 0.00017387
19430.0 0.00017317
19450.0 0.00017251
19470.0 0.00017183
19490.0 0.00017113
19510.0 0.00017046
19530.0 0.00016981
19550.0 0.00016912
19570.0 0.00016842
19590.0 0.00016778
19610.0 0.00016712
19630.0 0.00016643
19650.0 0.00016578
19670.0 0.00016514
19690.0 0.00016446
19710.0 0.00016379
19730.0 0.00016315
19750.0 0.0001625
19770.0 0.00016181
19790.0 0.00016116
19810.0 0.00016053
19830.0 0.00015987
19850.0 0.00015921
19870.0 0.00015859
19890.0 0.00015795
19910.0 0.0001573
19930.0 0.00015672
19950.0 0.00015618
19970.0 0.00015567
19990.0 0.00015525
20010.0 0.00015494
20030.0 0.00015469
20050.0 0.00015454
20070.0 0.00015448
20090.0 0.00015449
20110.0 0.00015454
20130.0 0.00015465
20150.0 0.00015479
20170.0 0.00015496
20190.0 0.00015514
20210.0 0.00015533
20230.0 0.00015553
20250.0 0.00015573
20270.0 0.00015594
20290.0 0.00015614
20310.0 0.00015634
20330.0 0.00015652
20350.0 0.00015671
20370.0 0.00015687
20390.0 0.00015703
20410.0 0.00015717
20430.0 0.00015731
20450.0 0.00015742
20470.0 0.00015753
20490.0 0.00015764
20510.0 0.00015774
20530.0 0.00015784
20550.0 0.00015794
20570.0 0.00015806
20590.0 0.00015817
20610.0 0.00015829
20630.0 0.00015842
20650.0 0.00015856
20670.0 0.00015869
20690.0 0.00015884
20710.0 0.00015899
20730.0 0.00015912
20750.0 0.00015925
20770.0 0.00015938
20790.0 0.00015948
20810.0 0.00015956
20830.0 0.00015961
20850.0 0.00015964
20870.0 0.00015962
20890.0 0.00015957
20910.0 0.00015951
20930.0 0.0001594
20950.0 0.00015925
20970.0 0.00015908
20990.0 0.0001589
21010.0 0.00015867
21030.0 0.00015843
21050.0 0.00015819
21070.0 0.00015793
21090.0 0.00015764
21110.0 0.00015738
21130.0 0.00015712
21150.0 0.00015684
21170.0 0.00015656
21190.0 0.0001563
21210.0 0.00015601
21230.0 0.00015571
21250.0 0.00015542
21270.0 0.00015512
21290.0 0.00015478
21310.0 0.00015443
21330.0 0.00015408
21350.0 0.00015369
21370.0 0.00015327
21390.0 0.00015284
21410.0 0.00015238
21430.0 0.00015186
21450.0 0.00015133
21470.0 0.00015079
21490.0 0.00015021
21510.0 0.00014958
21530.0 0.00014897
21550.0 0.00014833
21570.0 0.00014763
21590.0 0.00014694
21610.0 0.00014624
21630.0 0.00014551
21650.0 0.00014473
21670.0 0.000144
21690.0 0.00014324
21710.0 0.00014245
21730.0 0.00014166
21750.0 0.00014089
21770.0 0.00014005
21790.0 0.00013921
21810.0 0.00013839
21830.0 0.00013754
21850.0 0.00013665
21870.0 0.00013578
21890.0 0.00013493
21910.0 0.00013402
21930.0 0.00013311
21950.0 0.00013223
21970.0 0.00013133
21990.0 0.00013038
22010.0 0.00012948
22030.0 0.0001286
22050.0 0.00012771
22070.0 0.00012682
22090.0 0.000126
22110.0 0.00012517
22130.0 0.00012435
22150.0 0.00012357
22170.0 0.00012283
22190.0 0.00012209
22210.0 0.00012138
22230.0 0.00012072
22250.0 0.00012007
22270.0 0.00011943
22290.0 0.00011883
22310.0 0.00011825
22330.0 0.00011766
22350.0 0.00011708
22370.0 0.00011652
22390.0 0.00011596
22410.0 0.00011538
22430.0 0.00011482
22450.0 0.00011426
22470.0 0.00011368
22490.0 0.00011309
22510.0 0.00011251
22530.0 0.0001119
22550.0 0.00011128
22570.0 0.00011067
22590.0 0.00011005
22610.0 0.00010941
22630.0 0.00010877
22650.0 0.00010814
22670.0 0.00010749
22690.0 0.00010684
22710.0 0.0001062
22730.0 0.00010556
22750.0 0.0001049
22770.0 0.00010426
22790.0 0.00010363
22810.0 0.00010299
22830.0 0.00010236
22850.0 0.00010174
22870.0 0.00010113
22890.0 0.00010051
22910.0 9.9896e-05
22930.0 9.9292e-05
22950.0 9.8684e-05
22970.0 9.8074e-05
22990.0 9.7472e-05
23010.0 9.6866e-05
23030.0 9.6254e-05
23050.0 9.5642e-05
23070.0 9.5026e-05
23090.0 9.4404e-05
23110.0 9.3779e-05
23130.0 9.3151e-05
23150.0 9.2521e-05
23170.0 9.189e-05
23190.0 9.1258e-05
23210.0 9.0624e-05
23230.0 8.9993e-05
23250.0 8.9362e-05
23270.0 8.8727e-05
23290.0 8.8091e-05
23310.0 8.7461e-05
23330.0 8.6816e-05
23350.0 8.6158e-05
23370.0 8.5494e-05
23390.0 8.4812e-05
23410.0 8.4097e-05
23430.0 8.3362e-05
23450.0 8.2601e-05
23470.0 8.1797e-05
