#lamb flux
1010.0 1.1191e-05
1030.0 1.2344e-05
1050.0 1.3467e-05
1070.0 1.4732e-05
1090.0 1.623e-05
1110.0 1.7757e-05
1130.0 1.9289e-05
1150.0 2.0895e-05
1170.0 2.256e-05
1190.0 2.4158e-05
1210.0 2.5804e-05
1230.0 2.7541e-05
1250.0 2.9277e-05
1270.0 3.1019e-05
1290.0 3.2912e-05
1310.0 3.4867e-05
1330.0 3.6814e-05
1350.0 3.8837e-05
1370.0 4.0967e-05
1390.0 4.3095e-05
1410.0 4.5201e-05
1430.0 4.7402e-05
1450.0 4.9609e-05
1470.0 5.1747e-05
1490.0 5.3883e-05
1510.0 5.6088e-05
1530.0 5.8148e-05
1550.0 6.0129e-05
1570.0 6.2109e-05
1590.0 6.4019e-05
1610.0 6.5762e-05
1630.0 6.7452e-05
1650.0 6.9098e-05
1670.0 7.0587e-05
1690.0 7.1957e-05
1710.0 7.33e-05
1730.0 7.456e-05
1750.0 7.5625e-05
1770.0 7.6664e-05
1790.0 7.7671e-05
1810.0 7.8568e-05
1830.0 7.9401e-05
1850.0 8.0315e-05
1870.0 8.1183e-05
1890.0 8.2016e-05
1910.0 8.2919e-05
1930.0 8.3919e-05
1950.0 8.4916e-05
1970.0 8.5982e-05
1990.0 8.7201e-05
2010.0 8.8494e-05
2030.0 8.9833e-05
2050.0 9.1316e-05
2070.0 9.2926e-05
2090.0 9.4522e-05
2110.0 9.6173e-05
2130.0 9.7911e-05
2150.0 9.964e-05
2170.0 0.0001013
2190.0 0.00010299
2210.0 0.00010464
2230.0 0.00010616
2250.0 0.00010759
2270.0 0.00010899
2290.0 0.00011022
2310.0 0.00011126
2330.0 0.00011222
2350.0 0.00011304
2370.0 0.00011366
2390.0 0.00011414
2410.0 0.00011454
2430.0 0.00011473
2450.0 0.00011473
2470.0 0.0001146
2490.0 0.00011434
2510.0 0.00011393
2530.0 0.00011367
2550.0 0.00011398
2570.0 0.00011536
2590.0 0.00011839
2610.0 0.00012447
2630.0 0.00013403
2650.0 0.00014653
2670.0 0.00016212
2690.0 0.00018009
2710.0 0.00019747
2730.0 0.00021248
2750.0 0.00022454
2770.0 0.00023117
2790.0 0.00023165
2810.0 0.00022629
2830.0 0.00021486
2850.0 0.00019912
2870.0 0.00018012
2890.0 0.00015807
2910.0 0.00013429
2930.0 0.00011027
2950.0 8.4797e-05
2970.0 5.827e-05
2990.0 3.2016e-05
3010.0 1.3777e-05
3030.0 1.3777e-05
3050.0 1.3777e-05
3070.0 1.3777e-05
3090.0 1.3777e-05
3110.0 1.3777e-05
3130.0 1.3777e-05
3150.0 1.3777e-05
3170.0 1.3777e-05
3190.0 1.3777e-05
3210.0 0.00023748
3230.0 0.0010037
3250.0 0.0014726
3270.0 0.0013003
3290.0 0.0010132
3310.0 0.00077686
3330.0 0.00072738
3350.0 0.00077913
3370.0 0.00086353
3390.0 0.00095257
3410.0 0.0010473
3430.0 0.0011722
3450.0 0.0012895
3470.0 0.0014101
3490.0 0.0014253
3510.0 0.0011991
3530.0 0.0010826
3550.0 0.0013502
3570.0 0.0016695
3590.0 0.0018561
3610.0 0.0019022
3630.0 0.0021082
3650.0 0.0021528
3670.0 0.0022326
3690.0 0.0025125
3710.0 0.0027622
3730.0 0.002954
3750.0 0.003039
3770.0 0.0030734
3790.0 0.0029844
3810.0 0.0027811
3830.0 0.0024953
3850.0 0.0017804
3870.0 0.0016494
3890.0 0.001872
3910.0 0.0025232
3930.0 0.0032316
3950.0 0.0035113
3970.0 0.0036704
3990.0 0.0041053
4010.0 0.0041352
4030.0 0.0037168
4050.0 0.0027089
4070.0 0.0023005
4090.0 0.0027956
4110.0 0.0030588
4130.0 0.0033066
4150.0 0.0032762
4170.0 0.0031159
4190.0 0.002905
4210.0 0.0032906
4230.0 0.0035467
4250.0 0.0038076
4270.0 0.0037568
4290.0 0.0036158
4310.0 0.0036856
4330.0 0.0041794
4350.0 0.0046165
4370.0 0.0046976
4390.0 0.0043769
4410.0 0.0039331
4430.0 0.0031162
4450.0 0.002513
4470.0 0.0025431
4490.0 0.0028739
4510.0 0.0030767
4530.0 0.0031234
4550.0 0.0032077
4570.0 0.0043525
4590.0 0.0063062
4610.0 0.0074873
4630.0 0.0078222
4650.0 0.0086166
4670.0 0.0099388
4690.0 0.01042
4710.0 0.0089292
4730.0 0.0068907
4750.0 0.0053437
4770.0 0.0044811
4790.0 0.0040279
4810.0 0.0038401
4830.0 0.004224
4850.0 0.0050793
4870.0 0.0056737
4890.0 0.0058396
4910.0 0.0057478
4930.0 0.0063547
4950.0 0.0075111
4970.0 0.0083681
4990.0 0.0084558
5010.0 0.0076762
5030.0 0.0063354
5050.0 0.005021
5070.0 0.0041704
5090.0 0.0038557
5110.0 0.0038478
5130.0 0.0039074
5150.0 0.003856
5170.0 0.0036114
5190.0 0.0034379
5210.0 0.0035027
5230.0 0.003987
5250.0 0.0048325
5270.0 0.005739
5290.0 0.0063613
5310.0 0.0068341
5330.0 0.0075783
5350.0 0.0082768
5370.0 0.0083015
5390.0 0.0075567
5410.0 0.006833
5430.0 0.006841
5450.0 0.0078985
5470.0 0.0094215
5490.0 0.010611
5510.0 0.011071
5530.0 0.010904
5550.0 0.01045
5570.0 0.010008
5590.0 0.0095701
5610.0 0.0092986
5630.0 0.0092547
5650.0 0.0092336
5670.0 0.0088126
5690.0 0.0078638
5710.0 0.0068002
5730.0 0.0061554
5750.0 0.0059528
5770.0 0.0061005
5790.0 0.0062647
5810.0 0.006369
5830.0 0.0063773
5850.0 0.0061306
5870.0 0.0058458
5890.0 0.0057713
5910.0 0.0059289
5930.0 0.0059922
5950.0 0.0055975
5970.0 0.0048782
5990.0 0.003986
6010.0 0.0032849
6030.0 0.0031036
6050.0 0.0033678
6070.0 0.0035474
6090.0 0.0033299
6110.0 0.0029939
6130.0 0.0030894
6150.0 0.0035338
6170.0 0.003954
6190.0 0.0042264
6210.0 0.0043089
6230.0 0.0042488
6250.0 0.003864
6270.0 0.0032242
6290.0 0.00268
6310.0 0.0024316
6330.0 0.0024226
6350.0 0.0024773
6370.0 0.0025789
6390.0 0.0029674
6410.0 0.003654
6430.0 0.0043156
6450.0 0.0046681
6470.0 0.0047938
6490.0 0.0048353
6510.0 0.004894
6530.0 0.0049653
6550.0 0.0049977
6570.0 0.005156
6590.0 0.0052971
6610.0 0.0053278
6630.0 0.0051352
6650.0 0.0047466
6670.0 0.0043505
6690.0 0.0040583
6710.0 0.003877
6730.0 0.0037452
6750.0 0.0037169
6770.0 0.0038189
6790.0 0.0039653
6810.0 0.0040471
6830.0 0.0039813
6850.0 0.003774
6870.0 0.0035484
6890.0 0.0034634
6910.0 0.0034353
6930.0 0.0035404
6950.0 0.0036756
6970.0 0.0037619
6990.0 0.003797
7010.0 0.0036734
7030.0 0.00338
7050.0 0.0030114
7070.0 0.0027534
7090.0 0.0026719
7110.0 0.0026776
7130.0 0.0025498
7150.0 0.0022694
7170.0 0.0021896
7190.0 0.0024337
7210.0 0.0028289
7230.0 0.0031942
7250.0 0.0033287
7270.0 0.0032564
7290.0 0.0030343
7310.0 0.0028428
7330.0 0.0027853
7350.0 0.0028173
7370.0 0.0028643
7390.0 0.0030085
7410.0 0.0033324
7430.0 0.0037739
7450.0 0.0041606
7470.0 0.0043089
7490.0 0.0041317
7510.0 0.003826
7530.0 0.0035212
7550.0 0.0032839
7570.0 0.0030214
7590.0 0.002892
7610.0 0.0029322
7630.0 0.0031098
7650.0 0.0033963
7670.0 0.0037263
7690.0 0.0040012
7710.0 0.0042366
7730.0 0.0044542
7750.0 0.004634
7770.0 0.0046501
7790.0 0.0047084
7810.0 0.0047502
7830.0 0.004654
7850.0 0.004504
7870.0 0.0044156
7890.0 0.0044764
7910.0 0.0044576
7930.0 0.0043767
7950.0 0.0041936
7970.0 0.0040572
7990.0 0.0039119
8010.0 0.0038435
8030.0 0.0038741
8050.0 0.0038909
8070.0 0.0038488
8090.0 0.0038246
8110.0 0.003734
8130.0 0.0037431
8150.0 0.0037158
8170.0 0.0036415
8190.0 0.0035575
8210.0 0.0035043
8230.0 0.0034264
8250.0 0.003394
8270.0 0.003147
8290.0 0.0026437
8310.0 0.0020732
8330.0 0.0016829
8350.0 0.0016014
8370.0 0.0018627
8390.0 0.0022102
8410.0 0.0023699
8430.0 0.002434
8450.0 0.0025837
8470.0 0.0027958
8490.0 0.0031263
8510.0 0.003538
8530.0 0.0039952
8550.0 0.0043843
8570.0 0.0046865
8590.0 0.0049162
8610.0 0.0050396
8630.0 0.005028
8650.0 0.0049634
8670.0 0.0049757
8690.0 0.0052553
8710.0 0.005634
8730.0 0.0058543
8750.0 0.0058401
8770.0 0.0059311
8790.0 0.0059362
8810.0 0.0056273
8830.0 0.0052601
8850.0 0.0047845
8870.0 0.004411
8890.0 0.0043044
8910.0 0.0042835
8930.0 0.0040359
8950.0 0.0037444
8970.0 0.0036245
8990.0 0.003619
9010.0 0.0035119
9030.0 0.0034377
9050.0 0.0034059
9070.0 0.0033907
9090.0 0.0033777
9110.0 0.0033651
9130.0 0.0033525
9150.0 0.0033403
9170.0 0.0033272
9190.0 0.0033176
9210.0 0.0033165
9230.0 0.0032998
9250.0 0.0032855
9270.0 0.0032725
9290.0 0.0032606
9310.0 0.003249
9330.0 0.0032378
9350.0 0.0032273
9370.0 0.003217
9390.0 0.0032065
9410.0 0.0031964
9430.0 0.0031859
9450.0 0.0031708
9470.0 0.0031575
9490.0 0.0031525
9510.0 0.0031452
9530.0 0.0031374
9550.0 0.0031291
9570.0 0.0031204
9590.0 0.0031118
9610.0 0.0031031
9630.0 0.0030943
9650.0 0.0030857
9670.0 0.0030772
9690.0 0.0030686
9710.0 0.0030602
9730.0 0.0030518
9750.0 0.0030435
9770.0 0.0030351
9790.0 0.0030268
9810.0 0.0030186
9830.0 0.0030104
9850.0 0.0030021
9870.0 0.0029939
9890.0 0.0029857
9910.0 0.0029774
9930.0 0.0029688
9950.0 0.0029428
9970.0 0.0029396
9990.0 0.0029353
10010.0 0.0029306
10030.0 0.0029243
10050.0 0.0029166
10070.0 0.0029088
10090.0 0.0029009
10110.0 0.0028914
10130.0 0.0028811
10150.0 0.0028726
10170.0 0.0028636
10190.0 0.0028535
10210.0 0.0028443
10230.0 0.0028351
10250.0 0.0028248
10270.0 0.0028144
10290.0 0.0028047
10310.0 0.0027939
10330.0 0.0027822
10350.0 0.0027714
10370.0 0.0027605
10390.0 0.0027484
10410.0 0.0027363
10430.0 0.002725
10450.0 0.0027126
10470.0 0.0026994
10490.0 0.0026868
10510.0 0.0026741
10530.0 0.0026596
10550.0 0.0026454
10570.0 0.002632
10590.0 0.0026173
10610.0 0.002602
10630.0 0.0025873
10650.0 0.0025723
10670.0 0.0025556
10690.0 0.0025393
10710.0 0.0025233
10730.0 0.0025061
10750.0 0.0024877
10770.0 0.0024707
10790.0 0.002453
10810.0 0.002434
10830.0 0.0024151
10850.0 0.0023968
10870.0 0.0023764
10890.0 0.0023556
10910.0 0.0023354
10930.0 0.0023144
10950.0 0.0022918
10970.0 0.0022691
10990.0 0.0022468
11010.0 0.0024302
11030.0 0.0024046
11050.0 0.0023798
11070.0 0.0023543
11090.0 0.002327
11110.0 0.0023015
11130.0 0.0022767
11150.0 0.002251
11170.0 0.0022255
11190.0 0.0022015
11210.0 0.002177
11230.0 0.0021518
11250.0 0.0021277
11270.0 0.0021042
11290.0 0.0020797
11310.0 0.0020555
11330.0 0.0020329
11350.0 0.0020097
11370.0 0.0019859
11390.0 0.0019626
11410.0 0.0019394
11430.0 0.001914
11450.0 0.0018882
11470.0 0.0018621
11490.0 0.0018341
11510.0 0.0018036
11530.0 0.001773
11550.0 0.0017412
11570.0 0.0017067
11590.0 0.0016713
11610.0 0.001636
11630.0 0.0015986
11650.0 0.0015597
11670.0 0.0015224
11690.0 0.0014851
11710.0 0.0014469
11730.0 0.0014097
11750.0 0.0013745
11770.0 0.0013389
11790.0 0.0013037
11810.0 0.0012705
11830.0 0.0012382
11850.0 0.0012054
11870.0 0.0011744
11890.0 0.0011452
11910.0 0.001116
11930.0 0.0010873
11950.0 0.0010606
11970.0 0.0010345
11990.0 0.0010084
12010.0 0.00098391
12030.0 0.00096095
12050.0 0.00093855
12070.0 0.00091706
12090.0 0.00089801
12110.0 0.00088014
12130.0 0.00086346
12150.0 0.00084879
12170.0 0.00083612
12190.0 0.00082482
12210.0 0.00081564
12230.0 0.00080861
12250.0 0.00080348
12270.0 0.00080038
12290.0 0.00079922
12310.0 0.00079972
12330.0 0.00080215
12350.0 0.00080621
12370.0 0.00081137
12390.0 0.00081786
12410.0 0.00082608
12430.0 0.0008345
12450.0 0.00084338
12470.0 0.00085318
12490.0 0.00086321
12510.0 0.00087261
12530.0 0.00088225
12550.0 0.0008918
12570.0 0.00090022
12590.0 0.00090761
12610.0 0.00091436
12630.0 0.00091963
12650.0 0.0009228
12670.0 0.00092451
12690.0 0.0009244
12710.0 0.00092216
12730.0 0.00091798
12750.0 0.0009118
12770.0 0.00090366
12790.0 0.00089388
12810.0 0.00088244
12830.0 0.0008694
12850.0 0.00085562
12870.0 0.00084112
12890.0 0.00082567
12910.0 0.00081005
12930.0 0.0007947
12950.0 0.00077905
12970.0 0.00076343
12990.0 0.00074873
13010.0 0.00073445
13030.0 0.00072033
13050.0 0.00070687
13070.0 0.00069422
13090.0 0.00068166
13110.0 0.00066944
13130.0 0.00065788
13150.0 0.00064663
13170.0 0.00063531
13190.0 0.00062454
13210.0 0.00061427
13230.0 0.00060405
13250.0 0.00059407
13270.0 0.00058469
13290.0 0.00057559
13310.0 0.00056668
13330.0 0.00055842
13350.0 0.00055077
13370.0 0.00054355
13390.0 0.00053688
13410.0 0.00053105
13430.0 0.00052574
13450.0 0.00052093
13470.0 0.00051668
13490.0 0.00051287
13510.0 0.00050928
13530.0 0.0005059
13550.0 0.00050262
13570.0 0.00049927
13590.0 0.00049572
13610.0 0.00049198
13630.0 0.00048802
13650.0 0.00048367
13670.0 0.00047902
13690.0 0.00047421
13710.0 0.00046916
13730.0 0.00046378
13750.0 0.00045856
13770.0 0.00045341
13790.0 0.00044826
13810.0 0.00044331
13830.0 0.00043875
13850.0 0.00043436
13870.0 0.00043022
13890.0 0.00042648
13910.0 0.00042306
13930.0 0.0004198
13950.0 0.00041678
13970.0 0.00041403
13990.0 0.00041133
14010.0 0.00040864
14030.0 0.00040602
14050.0 0.00040335
14070.0 0.00040045
14090.0 0.00039745
14110.0 0.00039435
14130.0 0.000391
14150.0 0.00038739
14170.0 0.00038375
14190.0 0.00038
14210.0 0.00037603
14230.0 0.0003721
14250.0 0.00036831
14270.0 0.00036449
14290.0 0.00036079
14310.0 0.00035752
14330.0 0.00035452
14350.0 0.00035178
14370.0 0.00034949
14390.0 0.00034764
14410.0 0.00034609
14430.0 0.00034492
14450.0 0.00034412
14470.0 0.00034361
14490.0 0.00034332
14510.0 0.00034327
14530.0 0.00034339
14550.0 0.00034367
14570.0 0.0003441
14590.0 0.0003447
14610.0 0.0003455
14630.0 0.00034658
14650.0 0.00034796
14670.0 0.00034967
14690.0 0.00035186
14710.0 0.0003546
14730.0 0.00035774
14750.0 0.00036151
14770.0 0.00036601
14790.0 0.00037109
14810.0 0.00037673
14830.0 0.00038344
14850.0 0.00039085
14870.0 0.00039874
14890.0 0.00040738
14910.0 0.00041676
14930.0 0.00042609
14950.0 0.00043516
14970.0 0.0004441
14990.0 0.00045209
15010.0 0.00045879
15030.0 0.00046438
15050.0 0.0004689
15070.0 0.0004722
15090.0 0.00047477
15110.0 0.00047686
15130.0 0.00047863
15150.0 0.00048023
15170.0 0.00048176
15190.0 0.00048328
15210.0 0.00048482
15230.0 0.00048638
15250.0 0.00048796
15270.0 0.00048958
15290.0 0.00049123
15310.0 0.00049291
15330.0 0.00049462
15350.0 0.00049635
15370.0 0.00049812
15390.0 0.00049991
15410.0 0.00050173
15430.0 0.00050358
15450.0 0.00050546
15470.0 0.00050736
15490.0 0.00050928
15510.0 0.00051124
15530.0 0.00051321
15550.0 0.00051521
15570.0 0.00051724
15590.0 0.00051928
15610.0 0.00052135
15630.0 0.00052344
15650.0 0.00052555
15670.0 0.00052768
15690.0 0.00052983
15710.0 0.000532
15730.0 0.00053419
15750.0 0.00053639
15770.0 0.00053861
15790.0 0.00054085
15810.0 0.0005431
15830.0 0.00054537
15850.0 0.00054765
15870.0 0.00054995
15890.0 0.00055225
15910.0 0.00055458
15930.0 0.00055691
15950.0 0.00055925
15970.0 0.0005616
15990.0 0.00056396
16010.0 0.00056633
16030.0 0.0005687
16050.0 0.00057108
16070.0 0.00057347
16090.0 0.00057586
16110.0 0.00057825
16130.0 0.00058065
16150.0 0.00058305
16170.0 0.00058545
16190.0 0.00058785
16210.0 0.00059025
16230.0 0.00059264
16250.0 0.00059504
16270.0 0.00059744
16290.0 0.00059982
16310.0 0.0006022
16330.0 0.00060458
16350.0 0.00060695
16370.0 0.0006093
16390.0 0.00061166
16410.0 0.000614
16430.0 0.00061633
16450.0 0.00061864
16470.0 0.00062095
16490.0 0.00062324
16510.0 0.00062551
16530.0 0.00062777
16550.0 0.00063002
16570.0 0.00063224
16590.0 0.00063444
16610.0 0.00063663
16630.0 0.0006388
16650.0 0.00064094
16670.0 0.00064306
16690.0 0.00064516
16710.0 0.00064722
16730.0 0.00064927
16750.0 0.00065129
16770.0 0.00065328
16790.0 0.00065524
16810.0 0.00065718
16830.0 0.00065908
16850.0 0.00066095
16870.0 0.00066279
16890.0 0.0006646
16910.0 0.00066637
16930.0 0.0006681
16950.0 0.0006698
16970.0 0.00067147
16990.0 0.00067309
17010.0 0.00067468
17030.0 0.00067624
17050.0 0.00067774
17070.0 0.00067921
17090.0 0.00068064
17110.0 0.00068203
17130.0 0.00068336
17150.0 0.00068466
17170.0 0.00068592
17190.0 0.00068713
17210.0 0.00068829
17230.0 0.00068941
17250.0 0.00069048
17270.0 0.0006915
17290.0 0.00069247
17310.0 0.0006934
17330.0 0.00069427
17350.0 0.00069509
17370.0 0.00069587
17390.0 0.0006966
17410.0 0.00069727
17430.0 0.0006979
17450.0 0.00069847
17470.0 0.00069898
17490.0 0.00069945
17510.0 0.00069986
17530.0 0.00070022
17550.0 0.00070052
17570.0 0.00070078
17590.0 0.00070098
17610.0 0.00070112
17630.0 0.0007012
17650.0 0.00070124
17670.0 0.00070122
17690.0 0.00070114
17710.0 0.00070101
17730.0 0.00070083
17750.0 0.00070059
17770.0 0.00070029
17790.0 0.00069995
17810.0 0.00069954
17830.0 0.00069908
17850.0 0.00069857
17870.0 0.000698
17890.0 0.00069737
17910.0 0.0006967
17930.0 0.00069597
17950.0 0.00069519
17970.0 0.00069435
17990.0 0.00069346
18010.0 0.00069252
18030.0 0.00069152
18050.0 0.00069047
18070.0 0.00068937
18090.0 0.00068822
18110.0 0.00068702
18130.0 0.00068577
18150.0 0.00068447
18170.0 0.00068312
18190.0 0.00068172
18210.0 0.00068027
18230.0 0.00067877
18250.0 0.00067722
18270.0 0.00067564
18290.0 0.000674
18310.0 0.00067232
18330.0 0.00067059
18350.0 0.00066882
18370.0 0.00066701
18390.0 0.00066515
18410.0 0.00066325
18430.0 0.00066131
18450.0 0.00065932
18470.0 0.0006573
18490.0 0.00065524
18510.0 0.00065313
18530.0 0.00065099
18550.0 0.00064882
18570.0 0.00064661
18590.0 0.00064435
18610.0 0.00064207
18630.0 0.00063976
18650.0 0.0006374
18670.0 0.00063502
18690.0 0.00063261
18710.0 0.00063016
18730.0 0.00062768
18750.0 0.00062518
18770.0 0.00062265
18790.0 0.00062009
18810.0 0.0006175
18830.0 0.00061489
18850.0 0.00061225
18870.0 0.00060958
18890.0 0.0006069
18910.0 0.0006042
18930.0 0.00060146
18950.0 0.00059871
18970.0 0.00059594
18990.0 0.00059315
19010.0 0.00059034
19030.0 0.00058752
19050.0 0.00058468
19070.0 0.00058182
19090.0 0.00057894
19110.0 0.00057606
19130.0 0.00057316
19150.0 0.00057024
19170.0 0.00056731
19190.0 0.00056438
19210.0 0.00056143
19230.0 0.00055847
19250.0 0.00055551
19270.0 0.00055253
19290.0 0.00054955
19310.0 0.00054656
19330.0 0.00054357
19350.0 0.00054057
19370.0 0.00053756
19390.0 0.00053456
19410.0 0.00053155
19430.0 0.00052853
19450.0 0.00052552
19470.0 0.00052251
19490.0 0.00051949
19510.0 0.00051647
19530.0 0.00051346
19550.0 0.00051044
19570.0 0.00050742
19590.0 0.00050442
19610.0 0.00050141
19630.0 0.00049841
19650.0 0.00049541
19670.0 0.00049242
19690.0 0.00048943
19710.0 0.00048644
19730.0 0.00048347
19750.0 0.0004805
19770.0 0.00047753
19790.0 0.00047458
19810.0 0.00047163
19830.0 0.00046868
19850.0 0.00046571
19870.0 0.00046272
19890.0 0.00045964
19910.0 0.00045639
19930.0 0.00045288
19950.0 0.00044898
19970.0 0.00044446
19990.0 0.0004392
20010.0 0.00043332
20030.0 0.00042653
20050.0 0.00041891
20070.0 0.00041084
20090.0 0.00040242
20110.0 0.00039335
20130.0 0.00038438
20150.0 0.00037567
20170.0 0.00036691
20190.0 0.00035826
20210.0 0.00035011
20230.0 0.00034224
20250.0 0.00033444
20270.0 0.00032711
20290.0 0.00032024
20310.0 0.00031358
20330.0 0.00030714
20350.0 0.00030136
20370.0 0.00029586
20390.0 0.0002906
20410.0 0.00028574
20430.0 0.0002813
20450.0 0.00027702
20470.0 0.00027306
20490.0 0.00026946
20510.0 0.00026611
20530.0 0.00026296
20550.0 0.0002601
20570.0 0.00025749
20590.0 0.00025503
20610.0 0.00025276
20630.0 0.00025067
20650.0 0.00024872
20670.0 0.00024687
20690.0 0.00024514
20710.0 0.00024349
20730.0 0.0002419
20750.0 0.00024035
20770.0 0.00023882
20790.0 0.0002373
20810.0 0.00023577
20830.0 0.00023422
20850.0 0.00023263
20870.0 0.00023099
20890.0 0.0002293
20910.0 0.00022756
20930.0 0.00022575
20950.0 0.00022387
20970.0 0.00022194
20990.0 0.00021996
21010.0 0.00021788
21030.0 0.00021576
21050.0 0.00021361
21070.0 0.00021141
21090.0 0.00020913
21110.0 0.00020687
21130.0 0.0002046
21150.0 0.00020228
21170.0 0.00019995
21190.0 0.00019767
21210.0 0.00019535
21230.0 0.00019301
21250.0 0.00019074
21270.0 0.0001885
21290.0 0.00018625
21310.0 0.00018404
21330.0 0.00018192
21350.0 0.00017981
21370.0 0.00017774
21390.0 0.00017577
21410.0 0.00017386
21430.0 0.00017197
21450.0 0.00017019
21470.0 0.00016851
21490.0 0.00016689
21510.0 0.00016536
21530.0 0.00016394
21550.0 0.0001626
21570.0 0.00016134
21590.0 0.00016018
21610.0 0.00015912
21630.0 0.00015813
21650.0 0.00015723
21670.0 0.00015641
21690.0 0.00015566
21710.0 0.00015498
21730.0 0.00015436
21750.0 0.00015379
21770.0 0.00015327
21790.0 0.0001528
21810.0 0.00015235
21830.0 0.00015192
21850.0 0.00015153
21870.0 0.00015114
21890.0 0.00015074
21910.0 0.00015035
21930.0 0.00014995
21950.0 0.00014953
21970.0 0.00014909
21990.0 0.00014864
22010.0 0.00014816
22030.0 0.00014764
22050.0 0.0001471
22070.0 0.00014653
22090.0 0.00014592
22110.0 0.00014529
22130.0 0.00014463
22150.0 0.00014394
22170.0 0.00014323
22190.0 0.0001425
22210.0 0.00014174
22230.0 0.00014097
22250.0 0.00014017
22270.0 0.00013935
22290.0 0.00013851
22310.0 0.00013764
22330.0 0.00013673
22350.0 0.00013579
22370.0 0.00013481
22390.0 0.00013378
22410.0 0.00013267
22430.0 0.00013153
22450.0 0.00013033
22470.0 0.00012902
22490.0 0.00012766
22510.0 0.00012624
22530.0 0.00012472
22550.0 0.0001231
22570.0 0.00012146
22590.0 0.00011976
22610.0 0.00011797
22630.0 0.00011615
22650.0 0.00011436
22670.0 0.00011251
22690.0 0.00011064
22710.0 0.00010883
22730.0 0.00010705
22750.0 0.00010523
22770.0 0.00010352
22790.0 0.0001019
22810.0 0.00010031
22830.0 9.879e-05
22850.0 9.7393e-05
22870.0 9.6063e-05
22890.0 9.4779e-05
22910.0 9.3603e-05
22930.0 9.252e-05
22950.0 9.1487e-05
22970.0 9.0508e-05
22990.0 8.9633e-05
23010.0 8.8799e-05
23030.0 8.7996e-05
23050.0 8.7243e-05
23070.0 8.6532e-05
23090.0 8.5816e-05
