#lamb flux
1010.0 1.4642e-07
1030.0 1.5892e-07
1050.0 1.7331e-07
1070.0 1.8951e-07
1090.0 2.0792e-07
1110.0 2.2682e-07
1130.0 2.4585e-07
1150.0 2.658e-07
1170.0 2.864e-07
1190.0 3.0595e-07
1210.0 3.2579e-07
1230.0 3.4631e-07
1250.0 3.6644e-07
1270.0 3.8602e-07
1290.0 4.0673e-07
1310.0 4.2746e-07
1330.0 4.4737e-07
1350.0 4.6754e-07
1370.0 4.8839e-07
1390.0 5.0875e-07
1410.0 5.2856e-07
1430.0 5.4929e-07
1450.0 5.7005e-07
1470.0 5.9016e-07
1490.0 6.1052e-07
1510.0 6.3204e-07
1530.0 6.5248e-07
1550.0 6.7267e-07
1570.0 6.9357e-07
1590.0 7.145e-07
1610.0 7.3453e-07
1630.0 7.5517e-07
1650.0 7.7633e-07
1670.0 7.9679e-07
1690.0 8.1697e-07
1710.0 8.3788e-07
1730.0 8.5886e-07
1750.0 8.7853e-07
1770.0 8.987e-07
1790.0 9.1919e-07
1810.0 9.3891e-07
1830.0 9.5815e-07
1850.0 9.7847e-07
1870.0 9.9808e-07
1890.0 1.0168e-06
1910.0 1.0358e-06
1930.0 1.055e-06
1950.0 1.0731e-06
1970.0 1.0907e-06
1990.0 1.1088e-06
2010.0 1.1262e-06
2030.0 1.1427e-06
2050.0 1.1595e-06
2070.0 1.1764e-06
2090.0 1.1918e-06
2110.0 1.2069e-06
2130.0 1.2221e-06
2150.0 1.2366e-06
2170.0 1.2499e-06
2190.0 1.2636e-06
2210.0 1.2769e-06
2230.0 1.2891e-06
2250.0 1.3007e-06
2270.0 1.3128e-06
2290.0 1.3239e-06
2310.0 1.3337e-06
2330.0 1.3437e-06
2350.0 1.3535e-06
2370.0 1.362e-06
2390.0 1.3703e-06
2410.0 1.3791e-06
2430.0 1.3871e-06
2450.0 1.3946e-06
2470.0 1.403e-06
2490.0 1.4132e-06
2510.0 1.4254e-06
2530.0 1.4455e-06
2550.0 1.4825e-06
2570.0 1.5458e-06
2590.0 1.6461e-06
2610.0 1.8116e-06
2630.0 2.0486e-06
2650.0 2.3432e-06
2670.0 2.6976e-06
2690.0 3.0974e-06
2710.0 3.4863e-06
2730.0 3.8373e-06
2750.0 4.1566e-06
2770.0 4.4142e-06
2790.0 4.608e-06
2810.0 4.7626e-06
2830.0 4.896e-06
2850.0 5.0028e-06
2870.0 5.1014e-06
2890.0 5.2035e-06
2910.0 5.3061e-06
2930.0 5.4038e-06
2950.0 5.5087e-06
2970.0 5.6186e-06
2990.0 5.7251e-06
3010.0 3.9287e-05
3030.0 4.0042e-05
3050.0 4.0779e-05
3070.0 4.1404e-05
3090.0 4.1922e-05
3110.0 4.2176e-05
3130.0 4.1975e-05
3150.0 4.1156e-05
3170.0 3.9388e-05
3190.0 3.6661e-05
3210.0 3.3084e-05
3230.0 2.9129e-05
3250.0 3.2153e-05
3270.0 2.8202e-05
3290.0 3.6367e-05
3310.0 2.779e-05
3330.0 2.8109e-05
3350.0 2.9799e-05
3370.0 3.1921e-05
3390.0 3.4338e-05
3410.0 3.6796e-05
3430.0 3.9403e-05
3450.0 4.2111e-05
3470.0 4.4711e-05
3490.0 4.6876e-05
3510.0 5.1445e-05
3530.0 5.8537e-05
3550.0 5.8988e-05
3570.0 5.5747e-05
3590.0 6.447e-05
3610.0 5.6257e-05
3630.0 6.9517e-05
3650.0 7.6243e-05
3670.0 8.6828e-05
3690.0 8.3981e-05
3710.0 7.0067e-05
3730.0 7.7233e-05
3750.0 7.7767e-05
3770.0 8.3976e-05
3790.0 8.843e-05
3810.0 9.9835e-05
3830.0 0.00014032
3850.0 0.00017562
3870.0 0.00020902
3890.0 0.00021618
3910.0 0.00020741
3930.0 0.00020944
3950.0 0.00021912
3970.0 0.00020407
3990.0 0.00012415
4010.0 8.3945e-05
4030.0 0.00013838
4050.0 0.00018809
4070.0 0.00017809
4090.0 0.00010609
4110.0 8.3883e-05
4130.0 0.0001379
4150.0 0.00015473
4170.0 0.00012923
4190.0 0.0001084
4210.0 0.00015555
4230.0 0.00014305
4250.0 0.00013795
4270.0 0.00013734
4290.0 0.00012375
4310.0 0.00015009
4330.0 0.00017308
4350.0 0.00017833
4370.0 0.00016466
4390.0 0.00017322
4410.0 0.0001629
4430.0 0.00012229
4450.0 9.6116e-05
4470.0 0.00011437
4490.0 0.00010819
4510.0 0.00015582
4530.0 0.00016031
4550.0 0.00016326
4570.0 0.00020373
4590.0 0.00023672
4610.0 0.00028032
4630.0 0.00037247
4650.0 0.00041028
4670.0 0.00041563
4690.0 0.00039837
4710.0 0.00039543
4730.0 0.00035004
4750.0 0.0002585
4770.0 0.0002099
4790.0 0.00016534
4810.0 0.00017784
4830.0 0.00020438
4850.0 0.00020664
4870.0 0.00018567
4890.0 0.00025386
4910.0 0.00026096
4930.0 0.00028274
4950.0 0.00033197
4970.0 0.00034301
4990.0 0.00039016
5010.0 0.00040433
5030.0 0.00037282
5050.0 0.00029834
5070.0 0.00021511
5090.0 0.0001812
5110.0 0.00018369
5130.0 0.00019215
5150.0 0.00018236
5170.0 0.00017548
5190.0 0.00018529
5210.0 0.0001907
5230.0 0.00021008
5250.0 0.00022575
5270.0 0.00021742
5290.0 0.00025174
5310.0 0.0003154
5330.0 0.00034538
5350.0 0.0003255
5370.0 0.0003283
5390.0 0.00035573
5410.0 0.00035729
5430.0 0.00034747
5450.0 0.00036194
5470.0 0.00040118
5490.0 0.00047798
5510.0 0.00057345
5530.0 0.00059859
5550.0 0.00059848
5570.0 0.00059069
5590.0 0.00056665
5610.0 0.00053746
5630.0 0.00054128
5650.0 0.0005626
5670.0 0.0005448
5690.0 0.00049456
5710.0 0.00048825
5730.0 0.00045252
5750.0 0.00040445
5770.0 0.00036081
5790.0 0.00038334
5810.0 0.00041079
5830.0 0.00045367
5850.0 0.00044796
5870.0 0.00043934
5890.0 0.00045232
5910.0 0.00041853
5930.0 0.00038701
5950.0 0.00038853
5970.0 0.0004064
5990.0 0.0003594
6010.0 0.00030424
6030.0 0.00026453
6050.0 0.0002394
6070.0 0.00022571
6090.0 0.00024121
6110.0 0.0002674
6130.0 0.00026862
6150.0 0.00027094
6170.0 0.00028422
6190.0 0.00030671
6210.0 0.00035246
6230.0 0.00041057
6250.0 0.00038278
6270.0 0.00033532
6290.0 0.00028939
6310.0 0.00023993
6330.0 0.00021098
6350.0 0.00020246
6370.0 0.0002162
6390.0 0.00024124
6410.0 0.00028928
6430.0 0.00035535
6450.0 0.00041211
6470.0 0.00045665
6490.0 0.00052006
6510.0 0.00056688
6530.0 0.00054764
6550.0 0.00052389
6570.0 0.00052877
6590.0 0.00052841
6610.0 0.00052378
6630.0 0.00049278
6650.0 0.00044487
6670.0 0.00042985
6690.0 0.00042141
6710.0 0.00042678
6730.0 0.00037325
6750.0 0.00032041
6770.0 0.00031494
6790.0 0.00033588
6810.0 0.00037554
6830.0 0.00038059
6850.0 0.00034982
6870.0 0.0003485
6890.0 0.00034384
6910.0 0.00032387
6930.0 0.00032839
6950.0 0.0003214
6970.0 0.00031702
6990.0 0.00032629
7010.0 0.00034652
7030.0 0.00034116
7050.0 0.00031356
7070.0 0.00030089
7090.0 0.00026589
7110.0 0.00023034
7130.0 0.00022687
7150.0 0.00024083
7170.0 0.00026282
7190.0 0.00026415
7210.0 0.00025651
7230.0 0.0002813
7250.0 0.00030334
7270.0 0.00031462
7290.0 0.00032169
7310.0 0.00032174
7330.0 0.00030305
7350.0 0.00028099
7370.0 0.0002617
7390.0 0.00025649
7410.0 0.00028141
7430.0 0.00032546
7450.0 0.00035738
7470.0 0.00039071
7490.0 0.00045246
7510.0 0.00044569
7530.0 0.00037229
7550.0 0.0003228
7570.0 0.00027032
7590.0 0.00023606
7610.0 0.00022916
7630.0 0.00022729
7650.0 0.00024597
7670.0 0.00027944
7690.0 0.00030638
7710.0 0.00034881
7730.0 0.00036184
7750.0 0.00037416
7770.0 0.00040045
7790.0 0.00041627
7810.0 0.00040965
7830.0 0.00037612
7850.0 0.00037278
7870.0 0.00036259
7890.0 0.00034635
7910.0 0.00032061
7930.0 0.00030326
7950.0 0.00025366
7970.0 0.0002447
7990.0 0.0002456
8010.0 0.00028491
8030.0 0.00028517
8050.0 0.0003005
8070.0 0.00029223
8090.0 0.00029277
8110.0 0.00028733
8130.0 0.00027622
8150.0 0.00025627
8170.0 0.00025344
8190.0 0.00025543
8210.0 0.00025791
8230.0 0.00023268
8250.0 0.0002154
8270.0 0.00018978
8290.0 0.00015919
8310.0 0.00013334
8330.0 0.00010028
8350.0 7.799e-05
8370.0 7.2935e-05
8390.0 7.4498e-05
8410.0 8.2756e-05
8430.0 0.00010576
8450.0 0.00011643
8470.0 0.00012562
8490.0 0.00014308
8510.0 0.00015491
8530.0 0.00017331
8550.0 0.00020491
8570.0 0.00022859
8590.0 0.000244
8610.0 0.00027661
8630.0 0.00031855
8650.0 0.00033089
8670.0 0.00033759
8690.0 0.00034277
8710.0 0.0003338
8730.0 0.00032029
8750.0 0.00029599
8770.0 0.0002933
8790.0 0.00028596
8810.0 0.00026356
8830.0 0.0002562
8850.0 0.00022759
8870.0 0.00021283
8890.0 0.00019294
8910.0 0.00021521
8930.0 0.00019841
8950.0 0.00020097
8970.0 0.00020559
8990.0 0.0002019
9010.0 0.00020554
9030.0 0.00019611
9050.0 0.0001954
9070.0 0.0001956
9090.0 0.00019578
9110.0 0.0001961
9130.0 0.00019626
9150.0 0.00019635
9170.0 0.00019603
9190.0 0.00019514
9210.0 0.00019784
9230.0 0.00019734
9250.0 0.00019717
9270.0 0.00019707
9290.0 0.00019704
9310.0 0.00019703
9330.0 0.00019704
9350.0 0.00019707
9370.0 0.0001971
9390.0 0.00019712
9410.0 0.00019714
9430.0 0.00019717
9450.0 0.00019719
9470.0 0.0001972
9490.0 0.00019722
9510.0 0.00019724
9530.0 0.00019724
9550.0 0.00019727
9570.0 0.00019729
9590.0 0.00019731
9610.0 0.00019733
9630.0 0.00019737
9650.0 0.00019741
9670.0 0.00019744
9690.0 0.00019748
9710.0 0.00019754
9730.0 0.00019759
9750.0 0.00019764
9770.0 0.00019773
9790.0 0.0001978
9810.0 0.00019788
9830.0 0.00019798
9850.0 0.00019808
9870.0 0.00019818
9890.0 0.00019829
9910.0 0.00019842
9930.0 0.00019855
9950.0 0.00019849
9970.0 0.00019871
9990.0 0.00019892
10010.0 0.00019911
10030.0 0.00019931
10050.0 0.00019943
10070.0 0.00019912
10090.0 0.00019949
10110.0 0.00019985
10130.0 0.00020017
10150.0 0.00020047
10170.0 0.00020074
10190.0 0.00020098
10210.0 0.00020124
10230.0 0.0002015
10250.0 0.00020175
10270.0 0.000202
10290.0 0.00020227
10310.0 0.00020253
10330.0 0.00020279
10350.0 0.00020307
10370.0 0.00020335
10390.0 0.00020362
10410.0 0.00020389
10430.0 0.00020419
10450.0 0.00020447
10470.0 0.00020474
10490.0 0.00020503
10510.0 0.00020532
10530.0 0.00020559
10550.0 0.00020587
10570.0 0.00020616
10590.0 0.00020643
10610.0 0.0002067
10630.0 0.00020698
10650.0 0.00020725
10670.0 0.00020751
10690.0 0.00020777
10710.0 0.00020804
10730.0 0.00020829
10750.0 0.00020853
10770.0 0.00020877
10790.0 0.00020901
10810.0 0.00020924
10830.0 0.00020945
10850.0 0.00020965
10870.0 0.00020977
10890.0 0.0002098
10910.0 0.00020967
10930.0 0.00020926
10950.0 0.00020839
10970.0 0.00020695
10990.0 0.00020491
11010.0 0.00020938
11030.0 0.00020522
11050.0 0.00020042
11070.0 0.0001949
11090.0 0.00018853
11110.0 0.00018221
11130.0 0.0001759
11150.0 0.00016947
11170.0 0.00016326
11190.0 0.00015765
11210.0 0.0001523
11230.0 0.00014728
11250.0 0.00014292
11270.0 0.00013911
11290.0 0.00013563
11310.0 0.00013262
11330.0 0.00013015
11350.0 0.0001279
11370.0 0.00012583
11390.0 0.00012396
11410.0 0.00012216
11430.0 0.00012024
11450.0 0.00011825
11470.0 0.00011618
11490.0 0.00011391
11510.0 0.00011138
11530.0 0.00010879
11550.0 0.00010608
11570.0 0.00010314
11590.0 0.00010016
11610.0 9.7233e-05
11630.0 9.4207e-05
11650.0 9.1153e-05
11670.0 8.8312e-05
11690.0 8.557e-05
11710.0 8.286e-05
11730.0 8.0314e-05
11750.0 7.7992e-05
11770.0 7.5713e-05
11790.0 7.3534e-05
11810.0 7.1533e-05
11830.0 6.9628e-05
11850.0 6.7711e-05
11870.0 6.5913e-05
11890.0 6.4216e-05
11910.0 6.2499e-05
11930.0 6.0781e-05
11950.0 5.9138e-05
11970.0 5.7484e-05
11990.0 5.5767e-05
12010.0 5.4099e-05
12030.0 5.2479e-05
12050.0 5.0837e-05
12070.0 4.9207e-05
12090.0 4.7733e-05
12110.0 4.632e-05
12130.0 4.4982e-05
12150.0 4.381e-05
12170.0 4.2821e-05
12190.0 4.1966e-05
12210.0 4.1337e-05
12230.0 4.095e-05
12250.0 4.0792e-05
12270.0 4.0888e-05
12290.0 4.1231e-05
12310.0 4.1787e-05
12330.0 4.2594e-05
12350.0 4.3606e-05
12370.0 4.4743e-05
12390.0 4.6025e-05
12410.0 4.7478e-05
12430.0 4.8894e-05
12450.0 5.0292e-05
12470.0 5.1702e-05
12490.0 5.3031e-05
12510.0 5.4193e-05
12530.0 5.5266e-05
12550.0 5.6211e-05
12570.0 5.696e-05
12590.0 5.7538e-05
12610.0 5.7975e-05
12630.0 5.8238e-05
12650.0 5.8331e-05
12670.0 5.8293e-05
12690.0 5.8121e-05
12710.0 5.7834e-05
12730.0 5.7452e-05
12750.0 5.696e-05
12770.0 5.6396e-05
12790.0 5.5779e-05
12810.0 5.5091e-05
12830.0 5.4328e-05
12850.0 5.3543e-05
12870.0 5.2711e-05
12890.0 5.1796e-05
12910.0 5.0832e-05
12930.0 4.9839e-05
12950.0 4.8747e-05
12970.0 4.7564e-05
12990.0 4.6373e-05
13010.0 4.5126e-05
13030.0 4.3791e-05
13050.0 4.2444e-05
13070.0 4.1131e-05
13090.0 3.9772e-05
13110.0 3.8428e-05
13130.0 3.7179e-05
13150.0 3.5998e-05
13170.0 3.4858e-05
13190.0 3.3872e-05
13210.0 3.3038e-05
13230.0 3.2314e-05
13250.0 3.173e-05
13270.0 3.1305e-05
13290.0 3.1005e-05
13310.0 3.0825e-05
13330.0 3.076e-05
13350.0 3.0784e-05
13370.0 3.0877e-05
13390.0 3.1021e-05
13410.0 3.1177e-05
13430.0 3.1335e-05
13450.0 3.1481e-05
13470.0 3.159e-05
13490.0 3.1654e-05
13510.0 3.1672e-05
13530.0 3.1637e-05
13550.0 3.1555e-05
13570.0 3.1433e-05
13590.0 3.1277e-05
13610.0 3.1103e-05
13630.0 3.0925e-05
13650.0 3.074e-05
13670.0 3.0565e-05
13690.0 3.0409e-05
13710.0 3.0269e-05
13730.0 3.0145e-05
13750.0 3.0043e-05
13770.0 2.9954e-05
13790.0 2.9872e-05
13810.0 2.979e-05
13830.0 2.9704e-05
13850.0 2.9603e-05
13870.0 2.948e-05
13890.0 2.9335e-05
13910.0 2.9164e-05
13930.0 2.8958e-05
13950.0 2.8725e-05
13970.0 2.848e-05
13990.0 2.8214e-05
14010.0 2.7936e-05
14030.0 2.7667e-05
14050.0 2.7406e-05
14070.0 2.715e-05
14090.0 2.6921e-05
14110.0 2.6723e-05
14130.0 2.6548e-05
14150.0 2.6401e-05
14170.0 2.6286e-05
14190.0 2.6198e-05
14210.0 2.6134e-05
14230.0 2.6097e-05
14250.0 2.6085e-05
14270.0 2.6099e-05
14290.0 2.6145e-05
14310.0 2.6214e-05
14330.0 2.6312e-05
14350.0 2.6445e-05
14370.0 2.6605e-05
14390.0 2.6784e-05
14410.0 2.6996e-05
14430.0 2.7233e-05
14450.0 2.7477e-05
14470.0 2.7738e-05
14490.0 2.8027e-05
14510.0 2.8317e-05
14530.0 2.8611e-05
14550.0 2.8933e-05
14570.0 2.9281e-05
14590.0 2.9641e-05
14610.0 3.0043e-05
14630.0 3.051e-05
14650.0 3.1014e-05
14670.0 3.1565e-05
14690.0 3.22e-05
14710.0 3.2913e-05
14730.0 3.3644e-05
14750.0 3.4448e-05
14770.0 3.5326e-05
14790.0 3.6221e-05
14810.0 3.7116e-05
14830.0 3.8083e-05
14850.0 3.9024e-05
14870.0 3.99e-05
14890.0 4.0745e-05
14910.0 4.1542e-05
14930.0 4.2221e-05
14950.0 4.2784e-05
14970.0 4.3257e-05
14990.0 4.3599e-05
15010.0 4.3813e-05
15030.0 4.3928e-05
15050.0 4.3953e-05
15070.0 4.3906e-05
15090.0 4.3814e-05
15110.0 4.369e-05
15130.0 4.3549e-05
15150.0 4.3403e-05
15170.0 4.3249e-05
15190.0 4.3091e-05
15210.0 4.2937e-05
15230.0 4.2784e-05
15250.0 4.2628e-05
15270.0 4.2472e-05
15290.0 4.2323e-05
15310.0 4.2171e-05
15330.0 4.2018e-05
15350.0 4.187e-05
15370.0 4.1723e-05
15390.0 4.157e-05
15410.0 4.1421e-05
15430.0 4.1276e-05
15450.0 4.1128e-05
15470.0 4.0979e-05
15490.0 4.0835e-05
15510.0 4.0692e-05
15530.0 4.0546e-05
15550.0 4.0402e-05
15570.0 4.0262e-05
15590.0 4.0118e-05
15610.0 3.9972e-05
15630.0 3.9833e-05
15650.0 3.9694e-05
15670.0 3.9551e-05
15690.0 3.9411e-05
15710.0 3.9276e-05
15730.0 3.9135e-05
15750.0 3.8995e-05
15770.0 3.886e-05
15790.0 3.8724e-05
15810.0 3.8583e-05
15830.0 3.8447e-05
15850.0 3.8314e-05
15870.0 3.8178e-05
15890.0 3.8041e-05
15910.0 3.791e-05
15930.0 3.7777e-05
15950.0 3.764e-05
15970.0 3.7507e-05
15990.0 3.7376e-05
16010.0 3.7242e-05
16030.0 3.7107e-05
16050.0 3.6978e-05
16070.0 3.6847e-05
16090.0 3.6714e-05
16110.0 3.6584e-05
16130.0 3.6457e-05
16150.0 3.6322e-05
16170.0 3.619e-05
16190.0 3.6063e-05
16210.0 3.5934e-05
16230.0 3.5801e-05
16250.0 3.5673e-05
16270.0 3.5547e-05
16290.0 3.5416e-05
16310.0 3.5286e-05
16330.0 3.5161e-05
16350.0 3.5032e-05
16370.0 3.4899e-05
16390.0 3.4773e-05
16410.0 3.4647e-05
16430.0 3.4517e-05
16450.0 3.4388e-05
16470.0 3.4264e-05
16490.0 3.4136e-05
16510.0 3.4005e-05
16530.0 3.3879e-05
16550.0 3.3753e-05
16570.0 3.3623e-05
16590.0 3.3493e-05
16610.0 3.337e-05
16630.0 3.3242e-05
16650.0 3.3113e-05
16670.0 3.2987e-05
16690.0 3.2862e-05
16710.0 3.273e-05
16730.0 3.2602e-05
16750.0 3.2477e-05
16770.0 3.2349e-05
16790.0 3.2218e-05
16810.0 3.2093e-05
16830.0 3.1967e-05
16850.0 3.1837e-05
16870.0 3.1709e-05
16890.0 3.1584e-05
16910.0 3.1454e-05
16930.0 3.1322e-05
16950.0 3.1196e-05
16970.0 3.1069e-05
16990.0 3.0938e-05
17010.0 3.081e-05
17030.0 3.0685e-05
17050.0 3.0554e-05
17070.0 3.0423e-05
17090.0 3.0296e-05
17110.0 3.0168e-05
17130.0 3.0034e-05
17150.0 2.9905e-05
17170.0 2.9778e-05
17190.0 2.9647e-05
17210.0 2.9516e-05
17230.0 2.9389e-05
17250.0 2.926e-05
17270.0 2.9126e-05
17290.0 2.8996e-05
17310.0 2.8867e-05
17330.0 2.8735e-05
17350.0 2.8601e-05
17370.0 2.8474e-05
17390.0 2.8343e-05
17410.0 2.821e-05
17430.0 2.808e-05
17450.0 2.7952e-05
17470.0 2.7816e-05
17490.0 2.7682e-05
17510.0 2.7553e-05
17530.0 2.7421e-05
17550.0 2.7286e-05
17570.0 2.7156e-05
17590.0 2.7026e-05
17610.0 2.6891e-05
17630.0 2.6758e-05
17650.0 2.6628e-05
17670.0 2.6495e-05
17690.0 2.6357e-05
17710.0 2.6226e-05
17730.0 2.6095e-05
17750.0 2.596e-05
17770.0 2.5826e-05
17790.0 2.5697e-05
17810.0 2.5562e-05
17830.0 2.5426e-05
17850.0 2.5294e-05
17870.0 2.5162e-05
17890.0 2.5025e-05
17910.0 2.489e-05
17930.0 2.476e-05
17950.0 2.4625e-05
17970.0 2.449e-05
17990.0 2.4358e-05
18010.0 2.4226e-05
18030.0 2.4088e-05
18050.0 2.3954e-05
18070.0 2.3822e-05
18090.0 2.3687e-05
18110.0 2.355e-05
18130.0 2.3419e-05
18150.0 2.3287e-05
18170.0 2.3151e-05
18190.0 2.3017e-05
18210.0 2.2886e-05
18230.0 2.275e-05
18250.0 2.2613e-05
18270.0 2.2482e-05
18290.0 2.2349e-05
18310.0 2.2212e-05
18330.0 2.208e-05
18350.0 2.1949e-05
18370.0 2.1814e-05
18390.0 2.1679e-05
18410.0 2.1548e-05
18430.0 2.1415e-05
18450.0 2.1277e-05
18470.0 2.1145e-05
18490.0 2.1015e-05
18510.0 2.0881e-05
18530.0 2.0747e-05
18550.0 2.0618e-05
18570.0 2.0485e-05
18590.0 2.0349e-05
18610.0 2.0218e-05
18630.0 2.0088e-05
18650.0 1.9954e-05
18670.0 1.9819e-05
18690.0 1.9692e-05
18710.0 1.956e-05
18730.0 1.9427e-05
18750.0 1.9297e-05
18770.0 1.9169e-05
18790.0 1.9034e-05
18810.0 1.8902e-05
18830.0 1.8774e-05
18850.0 1.8644e-05
18870.0 1.8511e-05
18890.0 1.8384e-05
18910.0 1.8256e-05
18930.0 1.8124e-05
18950.0 1.7995e-05
18970.0 1.7868e-05
18990.0 1.7739e-05
19010.0 1.7606e-05
19030.0 1.748e-05
19050.0 1.7354e-05
19070.0 1.7224e-05
19090.0 1.7096e-05
19110.0 1.6973e-05
19130.0 1.6844e-05
19150.0 1.6715e-05
19170.0 1.659e-05
19190.0 1.6465e-05
19210.0 1.6335e-05
19230.0 1.6209e-05
19250.0 1.6087e-05
19270.0 1.5961e-05
19290.0 1.5834e-05
19310.0 1.5712e-05
19330.0 1.5589e-05
19350.0 1.546e-05
19370.0 1.5337e-05
19390.0 1.5216e-05
19410.0 1.5091e-05
19430.0 1.4966e-05
19450.0 1.4846e-05
19470.0 1.4725e-05
19490.0 1.46e-05
19510.0 1.4479e-05
19530.0 1.436e-05
19550.0 1.4236e-05
19570.0 1.4112e-05
19590.0 1.3995e-05
19610.0 1.3875e-05
19630.0 1.3753e-05
19650.0 1.3634e-05
19670.0 1.3518e-05
19690.0 1.3396e-05
19710.0 1.3276e-05
19730.0 1.3159e-05
19750.0 1.3042e-05
19770.0 1.292e-05
19790.0 1.2803e-05
19810.0 1.2688e-05
19830.0 1.2569e-05
19850.0 1.245e-05
19870.0 1.2334e-05
19890.0 1.2211e-05
19910.0 1.2078e-05
19930.0 1.194e-05
19950.0 1.1787e-05
19970.0 1.1608e-05
19990.0 1.1401e-05
20010.0 1.1178e-05
20030.0 1.0922e-05
20050.0 1.0638e-05
20070.0 1.0349e-05
20090.0 1.0057e-05
20110.0 9.751e-06
20130.0 9.4652e-06
20150.0 9.2046e-06
20170.0 8.9568e-06
20190.0 8.7282e-06
20210.0 8.5318e-06
20230.0 8.3576e-06
20250.0 8.2e-06
20270.0 8.069e-06
20290.0 7.9623e-06
20310.0 7.8733e-06
20330.0 7.8031e-06
20350.0 7.7564e-06
20370.0 7.7266e-06
20390.0 7.7144e-06
20410.0 7.7203e-06
20430.0 7.7423e-06
20450.0 7.7833e-06
20470.0 7.8427e-06
20490.0 7.9169e-06
20510.0 8.0083e-06
20530.0 8.1208e-06
20550.0 8.2468e-06
20570.0 8.382e-06
20590.0 8.5357e-06
20610.0 8.7011e-06
20630.0 8.8685e-06
20650.0 9.0433e-06
20670.0 9.2297e-06
20690.0 9.4072e-06
20710.0 9.5782e-06
20730.0 9.7488e-06
20750.0 9.9121e-06
20770.0 1.0058e-05
20790.0 1.0199e-05
20810.0 1.0333e-05
20830.0 1.0454e-05
20850.0 1.0567e-05
20870.0 1.0679e-05
20890.0 1.0788e-05
20910.0 1.0889e-05
20930.0 1.0994e-05
20950.0 1.1102e-05
20970.0 1.1208e-05
20990.0 1.1314e-05
21010.0 1.1425e-05
21030.0 1.1532e-05
21050.0 1.1632e-05
21070.0 1.1727e-05
21090.0 1.1815e-05
21110.0 1.1887e-05
21130.0 1.1946e-05
21150.0 1.1991e-05
21170.0 1.202e-05
21190.0 1.2031e-05
21210.0 1.2027e-05
21230.0 1.2006e-05
21250.0 1.1971e-05
21270.0 1.1922e-05
21290.0 1.1859e-05
21310.0 1.1784e-05
21330.0 1.1704e-05
21350.0 1.1612e-05
21370.0 1.1513e-05
21390.0 1.1411e-05
21410.0 1.1307e-05
21430.0 1.1194e-05
21450.0 1.1084e-05
21470.0 1.0978e-05
21490.0 1.0871e-05
21510.0 1.0766e-05
21530.0 1.067e-05
21550.0 1.0579e-05
21570.0 1.0492e-05
21590.0 1.0415e-05
21610.0 1.0349e-05
21630.0 1.0291e-05
21650.0 1.0244e-05
21670.0 1.0212e-05
21690.0 1.0191e-05
21710.0 1.0185e-05
21730.0 1.0192e-05
21750.0 1.0212e-05
21770.0 1.0249e-05
21790.0 1.0301e-05
21810.0 1.0365e-05
21830.0 1.0442e-05
21850.0 1.0537e-05
21870.0 1.0642e-05
21890.0 1.0754e-05
21910.0 1.0882e-05
21930.0 1.102e-05
21950.0 1.1161e-05
21970.0 1.131e-05
21990.0 1.1472e-05
22010.0 1.1631e-05
22030.0 1.1789e-05
22050.0 1.1952e-05
22070.0 1.2114e-05
22090.0 1.2265e-05
22110.0 1.2414e-05
22130.0 1.256e-05
22150.0 1.2692e-05
22170.0 1.281e-05
22190.0 1.2921e-05
22210.0 1.3016e-05
22230.0 1.3088e-05
22250.0 1.3145e-05
22270.0 1.3182e-05
22290.0 1.3197e-05
22310.0 1.3191e-05
22330.0 1.3161e-05
22350.0 1.3106e-05
22370.0 1.3031e-05
22390.0 1.2931e-05
22410.0 1.2803e-05
22430.0 1.2659e-05
22450.0 1.2496e-05
22470.0 1.2308e-05
22490.0 1.2103e-05
22510.0 1.1891e-05
22530.0 1.1656e-05
22550.0 1.1404e-05
22570.0 1.1154e-05
22590.0 1.0896e-05
22610.0 1.0625e-05
22630.0 1.0355e-05
