#lamb flux
1010.0 3.4364e-05
1030.0 3.8685e-05
1050.0 4.3363e-05
1070.0 4.8656e-05
1090.0 5.479e-05
1110.0 6.1117e-05
1130.0 6.7539e-05
1150.0 7.4328e-05
1170.0 8.1418e-05
1190.0 8.8278e-05
1210.0 9.5364e-05
1230.0 0.00010284
1250.0 0.00011034
1270.0 0.00011785
1290.0 0.00012597
1310.0 0.00013433
1330.0 0.00014264
1350.0 0.00015126
1370.0 0.00016036
1390.0 0.00016951
1410.0 0.00017864
1430.0 0.00018829
1450.0 0.00019812
1470.0 0.00020783
1490.0 0.00021773
1510.0 0.00022815
1530.0 0.0002382
1550.0 0.00024817
1570.0 0.00025839
1590.0 0.00026858
1610.0 0.00027831
1630.0 0.00028812
1650.0 0.00029798
1670.0 0.00030736
1690.0 0.00031638
1710.0 0.00032543
1730.0 0.00033421
1750.0 0.00034212
1770.0 0.00034988
1790.0 0.00035738
1810.0 0.00036418
1830.0 0.00037038
1850.0 0.00037659
1870.0 0.0003821
1890.0 0.00038684
1910.0 0.00039125
1930.0 0.00039534
1950.0 0.00039857
1970.0 0.00040122
1990.0 0.00040364
2010.0 0.00040543
2030.0 0.00040645
2050.0 0.00040718
2070.0 0.00040756
2090.0 0.000407
2110.0 0.00040589
2130.0 0.00040443
2150.0 0.0004023
2170.0 0.00039934
2190.0 0.00039607
2210.0 0.00039228
2230.0 0.00038771
2250.0 0.0003826
2270.0 0.00037722
2290.0 0.00037117
2310.0 0.00036445
2330.0 0.00035746
2350.0 0.0003501
2370.0 0.00034216
2390.0 0.0003339
2410.0 0.00032545
2430.0 0.00031643
2450.0 0.00030688
2470.0 0.00029689
2490.0 0.00028637
2510.0 0.00027536
2530.0 0.00026447
2550.0 0.00025456
2570.0 0.00024675
2590.0 0.0002422
2610.0 0.00024319
2630.0 0.00025039
2650.0 0.00026256
2670.0 0.00027964
2690.0 0.0003003
2710.0 0.00031974
2730.0 0.00033552
2750.0 0.00034763
2770.0 0.00035293
2790.0 0.00035078
2810.0 0.00034249
2830.0 0.00032858
2850.0 0.00031
2870.0 0.00028845
2890.0 0.00026457
2910.0 0.00023931
2930.0 0.0002138
2950.0 0.00018758
2970.0 0.00016097
2990.0 0.00013485
3010.0 0.00024547
3030.0 0.00018666
3050.0 0.00012795
3070.0 7.0905e-05
3090.0 5.3397e-05
3110.0 5.3397e-05
3130.0 5.3397e-05
3150.0 5.3397e-05
3170.0 5.3397e-05
3190.0 5.3397e-05
3210.0 0.00022454
3230.0 0.0010478
3250.0 0.0020924
3270.0 0.002275
3290.0 0.0028135
3310.0 0.0023711
3330.0 0.0024418
3350.0 0.0027012
3370.0 0.0030568
3390.0 0.0034667
3410.0 0.0039037
3430.0 0.0044362
3450.0 0.0049981
3470.0 0.0055908
3490.0 0.006032
3510.0 0.0062546
3530.0 0.006614
3550.0 0.0067904
3570.0 0.0066134
3590.0 0.0069709
3610.0 0.0066659
3630.0 0.0081661
3650.0 0.0092475
3670.0 0.009921
3690.0 0.009139
3710.0 0.0071974
3730.0 0.0065273
3750.0 0.0056972
3770.0 0.0050592
3790.0 0.0044309
3810.0 0.004323
3830.0 0.0053202
3850.0 0.0021027
3870.0 0.0049088
3890.0 0.0059714
3910.0 0.0063448
3930.0 0.0075489
3950.0 0.0082134
3970.0 0.009769
3990.0 0.01208
4010.0 0.0084589
4030.0 0.0068197
4050.0 0.0056541
4070.0 0.0061099
4090.0 0.0095158
4110.0 0.0088058
4130.0 0.0093105
4150.0 0.0087098
4170.0 0.0083401
4190.0 0.0076843
4210.0 0.011425
4230.0 0.011894
4250.0 0.01279
4270.0 0.011937
4290.0 0.012315
4310.0 0.014054
4330.0 0.01643
4350.0 0.016093
4370.0 0.015413
4390.0 0.013458
4410.0 0.012494
4430.0 0.0099966
4450.0 0.0086272
4470.0 0.0097596
4490.0 0.011807
4510.0 0.012268
4530.0 0.012994
4550.0 0.013873
4570.0 0.01916
4590.0 0.027851
4610.0 0.033125
4630.0 0.033047
4650.0 0.033391
4670.0 0.037281
4690.0 0.040982
4710.0 0.033564
4730.0 0.025479
4750.0 0.020444
4770.0 0.018511
4790.0 0.017856
4810.0 0.017091
4830.0 0.01878
4850.0 0.021518
4870.0 0.023716
4890.0 0.024332
4910.0 0.021921
4930.0 0.023076
4950.0 0.028818
4970.0 0.035256
4990.0 0.036919
5010.0 0.033869
5030.0 0.027936
5050.0 0.021038
5070.0 0.016645
5090.0 0.014935
5110.0 0.014579
5130.0 0.014938
5150.0 0.014913
5170.0 0.014605
5190.0 0.013939
5210.0 0.013666
5230.0 0.015055
5250.0 0.016828
5270.0 0.019949
5290.0 0.023135
5310.0 0.023957
5330.0 0.025338
5350.0 0.028078
5370.0 0.030011
5390.0 0.027424
5410.0 0.024178
5430.0 0.023117
5450.0 0.026526
5470.0 0.033149
5490.0 0.039356
5510.0 0.042141
5530.0 0.041509
5550.0 0.039315
5570.0 0.037865
5590.0 0.036579
5610.0 0.036245
5630.0 0.035878
5650.0 0.035594
5670.0 0.035482
5690.0 0.033068
5710.0 0.027792
5730.0 0.02426
5750.0 0.022336
5770.0 0.022576
5790.0 0.023448
5810.0 0.024605
5830.0 0.025095
5850.0 0.02388
5870.0 0.02207
5890.0 0.020499
5910.0 0.0208
5930.0 0.021985
5950.0 0.020842
5970.0 0.018507
5990.0 0.015556
6010.0 0.012579
6030.0 0.011192
6050.0 0.011782
6070.0 0.01283
6090.0 0.012829
6110.0 0.011365
6130.0 0.011247
6150.0 0.012837
6170.0 0.015048
6190.0 0.01705
6210.0 0.017358
6230.0 0.016874
6250.0 0.015496
6270.0 0.013195
6290.0 0.010993
6310.0 0.0095843
6330.0 0.0092071
6350.0 0.0095136
6370.0 0.0095803
6390.0 0.010312
6410.0 0.012514
6430.0 0.015855
6450.0 0.018688
6470.0 0.019691
6490.0 0.019305
6510.0 0.01966
6530.0 0.020506
6550.0 0.020325
6570.0 0.020998
6590.0 0.021276
6610.0 0.021563
6630.0 0.021648
6650.0 0.020716
6670.0 0.01907
6690.0 0.016964
6710.0 0.015563
6730.0 0.015603
6750.0 0.01638
6770.0 0.016985
6790.0 0.017395
6810.0 0.017598
6830.0 0.017234
6850.0 0.016629
6870.0 0.01563
6890.0 0.015207
6910.0 0.014454
6930.0 0.014755
6950.0 0.01585
6970.0 0.016414
6990.0 0.016894
7010.0 0.016599
7030.0 0.015391
7050.0 0.013544
7070.0 0.011639
7090.0 0.010404
7110.0 0.01023
7130.0 0.010461
7150.0 0.009749
7170.0 0.0091097
7190.0 0.0095518
7210.0 0.01073
7230.0 0.012451
7250.0 0.013529
7270.0 0.01366
7290.0 0.01257
7310.0 0.011427
7330.0 0.01074
7350.0 0.010698
7370.0 0.010957
7390.0 0.0114
7410.0 0.012431
7430.0 0.014417
7450.0 0.016548
7470.0 0.017918
7490.0 0.018024
7510.0 0.017126
7530.0 0.0144
7550.0 0.012717
7570.0 0.011111
7590.0 0.010334
7610.0 0.010835
7630.0 0.012124
7650.0 0.013702
7670.0 0.015183
7690.0 0.016167
7710.0 0.017291
7730.0 0.018518
7750.0 0.019628
7770.0 0.01961
7790.0 0.019745
7810.0 0.020328
7830.0 0.020796
7850.0 0.020346
7870.0 0.019622
7890.0 0.019319
7910.0 0.018404
7930.0 0.018172
7950.0 0.017386
7970.0 0.01712
7990.0 0.016781
8010.0 0.017481
8030.0 0.017678
8050.0 0.017974
8070.0 0.017858
8090.0 0.01785
8110.0 0.017172
8130.0 0.01715
8150.0 0.016896
8170.0 0.016486
8190.0 0.016251
8210.0 0.016362
8230.0 0.015859
8250.0 0.015328
8270.0 0.013661
8290.0 0.011041
8310.0 0.0082463
8330.0 0.0062658
8350.0 0.0057625
8370.0 0.0068701
8390.0 0.0083768
8410.0 0.0092128
8430.0 0.0096743
8450.0 0.010177
8470.0 0.010809
8490.0 0.012089
8510.0 0.013799
8530.0 0.016059
8550.0 0.018459
8570.0 0.020596
8590.0 0.022305
8610.0 0.023472
8630.0 0.023909
8650.0 0.023905
8670.0 0.02397
8690.0 0.025035
8710.0 0.026315
8730.0 0.027348
8750.0 0.027228
8770.0 0.027574
8790.0 0.027411
8810.0 0.02569
8830.0 0.024557
8850.0 0.022904
8870.0 0.021569
8890.0 0.021005
8910.0 0.021231
8930.0 0.020151
8950.0 0.019085
8970.0 0.018674
8990.0 0.018456
9010.0 0.017797
9030.0 0.017391
9050.0 0.017263
9070.0 0.017204
9090.0 0.01715
9110.0 0.017099
9130.0 0.017045
9150.0 0.016993
9170.0 0.016928
9190.0 0.01687
9210.0 0.016912
9230.0 0.016826
9250.0 0.016755
9270.0 0.016692
9290.0 0.016635
9310.0 0.016578
9330.0 0.016524
9350.0 0.016472
9370.0 0.016421
9390.0 0.016368
9410.0 0.016317
9430.0 0.016264
9450.0 0.016197
9470.0 0.016134
9490.0 0.016098
9510.0 0.016053
9530.0 0.016006
9550.0 0.015959
9570.0 0.01591
9590.0 0.01586
9610.0 0.01581
9630.0 0.015761
9650.0 0.015711
9670.0 0.01566
9690.0 0.01561
9710.0 0.015561
9730.0 0.01551
9750.0 0.01546
9770.0 0.015411
9790.0 0.015361
9810.0 0.01531
9830.0 0.01526
9850.0 0.01521
9870.0 0.01516
9890.0 0.015109
9910.0 0.015058
9930.0 0.015005
9950.0 0.014832
9970.0 0.014817
9990.0 0.014795
10010.0 0.014768
10030.0 0.014731
10050.0 0.014685
10070.0 0.014637
10090.0 0.014591
10110.0 0.014536
10130.0 0.014486
10150.0 0.014433
10170.0 0.014377
10190.0 0.014316
10210.0 0.01426
10230.0 0.014206
10250.0 0.014146
10270.0 0.014087
10290.0 0.014032
10310.0 0.013972
10330.0 0.013907
10350.0 0.013847
10370.0 0.013787
10390.0 0.013722
10410.0 0.013657
10430.0 0.013596
10450.0 0.01353
10470.0 0.013461
10490.0 0.013396
10510.0 0.013329
10530.0 0.013255
10550.0 0.013183
10570.0 0.013115
10590.0 0.013041
10610.0 0.012964
10630.0 0.012892
10650.0 0.012817
10670.0 0.012736
10690.0 0.012656
10710.0 0.012579
10730.0 0.012496
10750.0 0.012408
10770.0 0.012327
10790.0 0.012243
10810.0 0.012154
10830.0 0.012065
10850.0 0.01198
10870.0 0.011884
10890.0 0.011787
10910.0 0.011692
10930.0 0.011592
10950.0 0.011482
10970.0 0.011368
10990.0 0.011254
11010.0 0.011285
11030.0 0.011142
11050.0 0.011004
11070.0 0.010864
11090.0 0.010716
11110.0 0.010581
11130.0 0.010453
11150.0 0.010323
11170.0 0.010197
11190.0 0.010082
11210.0 0.0099658
11230.0 0.0098475
11250.0 0.0097356
11270.0 0.0096269
11290.0 0.0095133
11310.0 0.0094
11330.0 0.0092948
11350.0 0.0091861
11370.0 0.0090739
11390.0 0.0089647
11410.0 0.0088557
11430.0 0.0087362
11450.0 0.0086156
11470.0 0.0084949
11490.0 0.008366
11510.0 0.0082264
11530.0 0.0080877
11550.0 0.0079445
11570.0 0.0077891
11590.0 0.0076301
11610.0 0.0074726
11630.0 0.0073051
11650.0 0.0071304
11670.0 0.006963
11690.0 0.0067958
11710.0 0.0066236
11730.0 0.006456
11750.0 0.0062987
11770.0 0.0061393
11790.0 0.005983
11810.0 0.0058377
11830.0 0.0056985
11850.0 0.0055579
11870.0 0.005428
11890.0 0.0053084
11910.0 0.0051904
11930.0 0.0050764
11950.0 0.004972
11970.0 0.0048711
11990.0 0.0047703
12010.0 0.0046768
12030.0 0.0045893
12050.0 0.0045035
12070.0 0.0044204
12090.0 0.0043472
12110.0 0.0042778
12130.0 0.004212
12150.0 0.0041539
12170.0 0.0041036
12190.0 0.0040574
12210.0 0.0040195
12230.0 0.0039907
12250.0 0.0039694
12270.0 0.0039562
12290.0 0.003952
12310.0 0.0039562
12330.0 0.0039692
12350.0 0.0039912
12370.0 0.0040205
12390.0 0.0040583
12410.0 0.0041067
12430.0 0.0041598
12450.0 0.0042185
12470.0 0.0042851
12490.0 0.0043565
12510.0 0.0044278
12530.0 0.0045032
12550.0 0.004581
12570.0 0.0046548
12590.0 0.0047246
12610.0 0.0047924
12630.0 0.004853
12650.0 0.0049021
12670.0 0.0049434
12690.0 0.0049745
12710.0 0.0049933
12730.0 0.0050006
12750.0 0.0049964
12770.0 0.0049804
12790.0 0.0049543
12810.0 0.0049183
12830.0 0.0048727
12850.0 0.0048221
12870.0 0.0047668
12890.0 0.0047056
12910.0 0.0046428
12930.0 0.0045808
12950.0 0.0045166
12970.0 0.004452
12990.0 0.0043918
13010.0 0.004333
13030.0 0.0042744
13050.0 0.0042185
13070.0 0.0041659
13090.0 0.0041126
13110.0 0.0040599
13130.0 0.0040095
13150.0 0.0039595
13170.0 0.0039076
13190.0 0.0038578
13210.0 0.0038102
13230.0 0.0037623
13250.0 0.0037161
13270.0 0.003674
13290.0 0.0036346
13310.0 0.0035983
13330.0 0.0035679
13350.0 0.0035435
13370.0 0.0035244
13390.0 0.0035115
13410.0 0.0035045
13430.0 0.0035022
13450.0 0.0035038
13470.0 0.0035077
13490.0 0.003512
13510.0 0.003516
13530.0 0.0035169
13550.0 0.0035135
13570.0 0.0035047
13590.0 0.003489
13610.0 0.0034667
13630.0 0.0034383
13650.0 0.0034022
13670.0 0.0033602
13690.0 0.0033149
13710.0 0.0032655
13730.0 0.0032114
13750.0 0.0031594
13770.0 0.0031084
13790.0 0.0030575
13810.0 0.0030097
13830.0 0.002967
13850.0 0.0029269
13870.0 0.0028903
13890.0 0.0028592
13910.0 0.0028322
13930.0 0.0028081
13950.0 0.0027877
13970.0 0.002771
13990.0 0.0027562
14010.0 0.0027431
14030.0 0.0027317
14050.0 0.0027211
14070.0 0.0027104
14090.0 0.0026998
14110.0 0.0026887
14130.0 0.0026765
14150.0 0.0026627
14170.0 0.0026481
14190.0 0.002632
14210.0 0.0026139
14230.0 0.0025947
14250.0 0.0025751
14270.0 0.0025541
14290.0 0.0025327
14310.0 0.0025125
14330.0 0.002493
14350.0 0.0024743
14370.0 0.0024577
14390.0 0.0024435
14410.0 0.0024309
14430.0 0.0024206
14450.0 0.0024128
14470.0 0.0024069
14490.0 0.0024029
14510.0 0.0024006
14530.0 0.0023997
14550.0 0.0024001
14570.0 0.0024018
14590.0 0.0024044
14610.0 0.0024083
14630.0 0.0024139
14650.0 0.002421
14670.0 0.0024296
14690.0 0.0024407
14710.0 0.0024543
14730.0 0.0024694
14750.0 0.0024872
14770.0 0.0025082
14790.0 0.0025314
14810.0 0.0025567
14830.0 0.002587
14850.0 0.0026203
14870.0 0.0026555
14890.0 0.0026944
14910.0 0.0027368
14930.0 0.0027789
14950.0 0.0028194
14970.0 0.0028591
14990.0 0.0028935
15010.0 0.0029208
15030.0 0.002942
15050.0 0.0029571
15070.0 0.0029655
15090.0 0.0029699
15110.0 0.0029714
15130.0 0.0029709
15150.0 0.0029695
15170.0 0.0029675
15190.0 0.0029653
15210.0 0.002963
15230.0 0.0029607
15250.0 0.0029584
15270.0 0.002956
15290.0 0.0029538
15310.0 0.0029515
15330.0 0.0029492
15350.0 0.002947
15370.0 0.0029448
15390.0 0.0029426
15410.0 0.0029403
15430.0 0.0029382
15450.0 0.002936
15470.0 0.0029338
15490.0 0.0029316
15510.0 0.0029295
15530.0 0.0029273
15550.0 0.0029252
15570.0 0.0029231
15590.0 0.0029209
15610.0 0.0029188
15630.0 0.0029167
15650.0 0.0029146
15670.0 0.0029124
15690.0 0.0029103
15710.0 0.0029082
15730.0 0.0029061
15750.0 0.002904
15770.0 0.0029019
15790.0 0.0028998
15810.0 0.0028976
15830.0 0.0028955
15850.0 0.0028934
15870.0 0.0028913
15890.0 0.0028891
15910.0 0.002887
15930.0 0.0028849
15950.0 0.0028827
15970.0 0.0028805
15990.0 0.0028784
16010.0 0.0028762
16030.0 0.0028739
16050.0 0.0028718
16070.0 0.0028696
16090.0 0.0028673
16110.0 0.0028651
16130.0 0.0028629
16150.0 0.0028606
16170.0 0.0028582
16190.0 0.002856
16210.0 0.0028536
16230.0 0.0028513
16250.0 0.0028489
16270.0 0.0028466
16290.0 0.0028441
16310.0 0.0028417
16330.0 0.0028393
16350.0 0.0028368
16370.0 0.0028343
16390.0 0.0028318
16410.0 0.0028292
16430.0 0.0028266
16450.0 0.002824
16470.0 0.0028214
16490.0 0.0028188
16510.0 0.002816
16530.0 0.0028133
16550.0 0.0028106
16570.0 0.0028078
16590.0 0.002805
16610.0 0.0028021
16630.0 0.0027992
16650.0 0.0027963
16670.0 0.0027934
16690.0 0.0027904
16710.0 0.0027873
16730.0 0.0027842
16750.0 0.0027811
16770.0 0.002778
16790.0 0.0027747
16810.0 0.0027715
16830.0 0.0027683
16850.0 0.0027649
16870.0 0.0027616
16890.0 0.0027582
16910.0 0.0027547
16930.0 0.0027512
16950.0 0.0027476
16970.0 0.0027441
16990.0 0.0027404
17010.0 0.0027367
17030.0 0.002733
17050.0 0.0027292
17070.0 0.0027253
17090.0 0.0027215
17110.0 0.0027175
17130.0 0.0027135
17150.0 0.0027094
17170.0 0.0027054
17190.0 0.0027012
17210.0 0.002697
17230.0 0.0026928
17250.0 0.0026885
17270.0 0.002684
17290.0 0.0026796
17310.0 0.0026752
17330.0 0.0026706
17350.0 0.002666
17370.0 0.0026614
17390.0 0.0026567
17410.0 0.0026519
17430.0 0.0026471
17450.0 0.0026423
17470.0 0.0026373
17490.0 0.0026323
17510.0 0.0026273
17530.0 0.0026222
17550.0 0.002617
17570.0 0.0026118
17590.0 0.0026066
17610.0 0.0026012
17630.0 0.0025959
17650.0 0.0025904
17670.0 0.002585
17690.0 0.0025793
17710.0 0.0025738
17730.0 0.0025681
17750.0 0.0025624
17770.0 0.0025566
17790.0 0.0025508
17810.0 0.0025449
17830.0 0.002539
17850.0 0.002533
17870.0 0.002527
17890.0 0.0025209
17910.0 0.0025147
17930.0 0.0025085
17950.0 0.0025023
17970.0 0.002496
17990.0 0.0024896
18010.0 0.0024833
18030.0 0.0024768
18050.0 0.0024703
18070.0 0.0024638
18090.0 0.0024572
18110.0 0.0024505
18130.0 0.0024438
18150.0 0.0024371
18170.0 0.0024303
18190.0 0.0024235
18210.0 0.0024167
18230.0 0.0024098
18250.0 0.0024028
18270.0 0.0023958
18290.0 0.0023888
18310.0 0.0023818
18330.0 0.0023747
18350.0 0.0023676
18370.0 0.0023604
18390.0 0.0023532
18410.0 0.0023459
18430.0 0.0023387
18450.0 0.0023313
18470.0 0.002324
18490.0 0.0023167
18510.0 0.0023093
18530.0 0.0023019
18550.0 0.0022944
18570.0 0.002287
18590.0 0.0022794
18610.0 0.0022719
18630.0 0.0022644
18650.0 0.0022568
18670.0 0.0022492
18690.0 0.0022416
18710.0 0.002234
18730.0 0.0022264
18750.0 0.0022187
18770.0 0.0022111
18790.0 0.0022033
18810.0 0.0021956
18830.0 0.0021879
18850.0 0.0021802
18870.0 0.0021724
18890.0 0.0021647
18910.0 0.002157
18930.0 0.0021492
18950.0 0.0021414
18970.0 0.0021337
18990.0 0.0021259
19010.0 0.0021181
19030.0 0.0021103
19050.0 0.0021025
19070.0 0.0020947
19090.0 0.0020869
19110.0 0.0020792
19130.0 0.0020714
19150.0 0.0020636
19170.0 0.0020558
19190.0 0.0020481
19210.0 0.0020403
19230.0 0.0020325
19250.0 0.0020248
19270.0 0.002017
19290.0 0.0020093
19310.0 0.0020016
19330.0 0.0019939
19350.0 0.0019861
19370.0 0.0019785
19390.0 0.0019708
19410.0 0.0019631
19430.0 0.0019555
19450.0 0.0019479
19470.0 0.0019403
19490.0 0.0019326
19510.0 0.0019251
19530.0 0.0019175
19550.0 0.00191
19570.0 0.0019024
19590.0 0.001895
19610.0 0.0018875
19630.0 0.00188
19650.0 0.0018726
19670.0 0.0018652
19690.0 0.0018578
19710.0 0.0018504
19730.0 0.0018431
19750.0 0.0018358
19770.0 0.0018285
19790.0 0.0018212
19810.0 0.001814
19830.0 0.0018067
19850.0 0.0017994
19870.0 0.001792
19890.0 0.0017842
19910.0 0.0017758
19930.0 0.0017664
19950.0 0.0017554
19970.0 0.0017421
19990.0 0.0017259
20010.0 0.0017072
20030.0 0.0016849
20050.0 0.0016593
20070.0 0.0016318
20090.0 0.0016028
20110.0 0.0015712
20130.0 0.0015399
20150.0 0.0015094
20170.0 0.0014787
20190.0 0.0014483
20210.0 0.0014197
20230.0 0.0013921
20250.0 0.0013646
20270.0 0.0013386
20290.0 0.0013143
20310.0 0.0012904
20330.0 0.001267
20350.0 0.0012458
20370.0 0.0012254
20390.0 0.0012054
20410.0 0.0011867
20430.0 0.0011693
20450.0 0.0011521
20470.0 0.001136
20490.0 0.0011212
20510.0 0.0011074
20530.0 0.0010943
20550.0 0.0010825
20570.0 0.001072
20590.0 0.0010623
20610.0 0.0010537
20630.0 0.0010464
20650.0 0.00104
20670.0 0.0010346
20690.0 0.0010303
20710.0 0.0010269
20730.0 0.0010243
20750.0 0.0010225
20770.0 0.0010213
20790.0 0.0010207
20810.0 0.0010206
20830.0 0.0010208
20850.0 0.0010211
20870.0 0.0010217
20890.0 0.0010222
20910.0 0.0010225
20930.0 0.0010226
20950.0 0.0010224
20970.0 0.0010216
20990.0 0.0010203
21010.0 0.0010185
21030.0 0.001016
21050.0 0.0010128
21070.0 0.0010089
21090.0 0.0010042
21110.0 0.00099882
21130.0 0.00099284
21150.0 0.00098609
21170.0 0.00097876
21190.0 0.00097106
21210.0 0.00096269
21230.0 0.00095373
21250.0 0.00094466
21270.0 0.00093533
21290.0 0.00092552
21310.0 0.00091561
21330.0 0.00090596
21350.0 0.00089603
21370.0 0.00088606
21390.0 0.00087648
21410.0 0.00086714
21430.0 0.00085771
21450.0 0.00084891
21470.0 0.00084075
21490.0 0.00083296
21510.0 0.00082572
21530.0 0.00081934
21550.0 0.00081363
21570.0 0.00080858
21590.0 0.00080443
21610.0 0.00080112
21630.0 0.00079862
21650.0 0.00079701
21670.0 0.00079617
21690.0 0.00079608
21710.0 0.00079679
21730.0 0.00079811
21750.0 0.00079985
21770.0 0.00080233
21790.0 0.00080519
21810.0 0.00080817
21830.0 0.00081137
21850.0 0.00081486
21870.0 0.00081817
21890.0 0.0008212
21910.0 0.00082426
21930.0 0.00082704
21950.0 0.00082932
21970.0 0.00083131
21990.0 0.00083304
22010.0 0.00083414
22030.0 0.00083476
22050.0 0.000835
22070.0 0.00083478
22090.0 0.00083406
22110.0 0.00083297
22130.0 0.00083149
22150.0 0.00082962
22170.0 0.00082742
22190.0 0.00082487
22210.0 0.00082199
22230.0 0.00081886
22250.0 0.00081541
22270.0 0.00081164
22290.0 0.00080762
22310.0 0.00080334
22330.0 0.00079861
22350.0 0.00079356
22370.0 0.00078826
22390.0 0.00078249
22410.0 0.00077615
22430.0 0.0007696
22450.0 0.00076265
22470.0 0.00075505
22490.0 0.00074704
22510.0 0.00073882
22530.0 0.0007299
22550.0 0.00072042
22570.0 0.00071092
22590.0 0.00070113
22610.0 0.00069081
22630.0 0.00068044
22650.0 0.00067037
22670.0 0.00065997
22690.0 0.00064956
22710.0 0.00063963
22730.0 0.00062995
22750.0 0.00062013
22770.0 0.00061103
22790.0 0.00060257
22810.0 0.00059436
22830.0 0.00058659
22850.0 0.0005796
22870.0 0.00057305
22890.0 0.0005668
22910.0 0.00056119
22930.0 0.00055612
22950.0 0.00055134
22970.0 0.00054687
22990.0 0.00054294
23010.0 0.00053921
23030.0 0.00053564
23050.0 0.00053229
23070.0 0.00052911
23090.0 0.00052585
23110.0 0.00052262
23130.0 0.00051943
23150.0 0.00051615
23170.0 0.00051268
23190.0 0.00050919
23210.0 0.00050567
23230.0 0.00050194
23250.0 0.00049814
23270.0 0.00049441
23290.0 0.00049062
23310.0 0.00048672
23330.0 0.00048303
23350.0 0.00047947
23370.0 0.00047593
23390.0 0.00047253
23410.0 0.00046937
23430.0 0.00046628
23450.0 0.00046327
23470.0 0.00046044
23490.0 0.00045773
23510.0 0.00045502
23530.0 0.00045238
23550.0 0.00044988
23570.0 0.00044735
23590.0 0.00044482
23610.0 0.00044237
23630.0 0.00043995
23650.0 0.00043748
23670.0 0.00043509
23690.0 0.00043281
23710.0 0.00043059
23730.0 0.00042847
23750.0 0.0004266
23770.0 0.00042496
23790.0 0.00042358
23810.0 0.00042258
23830.0 0.000422
23850.0 0.00042194
23870.0 0.0004225
23890.0 0.00042363
23910.0 0.00042543
23930.0 0.00042804
23950.0 0.00043133
