#lamb flux
1010.0 4.6765e-05
1030.0 4.6765e-05
1050.0 4.6765e-05
1070.0 4.6765e-05
1090.0 4.6765e-05
1110.0 4.6765e-05
1130.0 4.6765e-05
1150.0 4.6765e-05
1170.0 4.6765e-05
1190.0 4.6765e-05
1210.0 4.6765e-05
1230.0 4.6765e-05
1250.0 4.6765e-05
1270.0 4.6765e-05
1290.0 4.6765e-05
1310.0 4.6765e-05
1330.0 4.6765e-05
1350.0 4.6765e-05
1370.0 4.6765e-05
1390.0 4.6765e-05
1410.0 4.6765e-05
1430.0 4.6765e-05
1450.0 5.186e-05
1470.0 5.8939e-05
1490.0 6.691e-05
1510.0 7.5922e-05
1530.0 8.572e-05
1550.0 9.6436e-05
1570.0 0.00010829
1590.0 0.00012128
1610.0 0.00013523
1630.0 0.00015031
1650.0 0.00016687
1670.0 0.00018472
1690.0 0.000204
1710.0 0.00022507
1730.0 0.00024783
1750.0 0.00027186
1770.0 0.0002977
1790.0 0.00032531
1810.0 0.00035422
1830.0 0.0003844
1850.0 0.00041636
1870.0 0.00044921
1890.0 0.00048257
1910.0 0.00051671
1930.0 0.00055143
1950.0 0.00058561
1970.0 0.00061927
1990.0 0.00065266
2010.0 0.00068482
2030.0 0.00071513
2050.0 0.00074413
2070.0 0.00077151
2090.0 0.00079588
2110.0 0.00081779
2130.0 0.00083751
2150.0 0.00085427
2170.0 0.00086768
2190.0 0.00087882
2210.0 0.00088732
2230.0 0.00089262
2250.0 0.00089533
2270.0 0.00089624
2290.0 0.00089452
2310.0 0.00089027
2330.0 0.00088463
2350.0 0.00087753
2370.0 0.00086861
2390.0 0.00085877
2410.0 0.00084871
2430.0 0.00083782
2450.0 0.0008265
2470.0 0.0008157
2490.0 0.00080575
2510.0 0.00079646
2530.0 0.00079018
2550.0 0.00078995
2570.0 0.00079847
2590.0 0.00081917
2610.0 0.00086149
2630.0 0.00092734
2650.0 0.001013
2670.0 0.0011212
2690.0 0.0012509
2710.0 0.001387
2730.0 0.0015238
2750.0 0.0016687
2770.0 0.0018123
2790.0 0.0019511
2810.0 0.0020943
2830.0 0.0022503
2850.0 0.0024043
2870.0 0.0025645
2890.0 0.0027388
2910.0 0.0029219
2930.0 0.003107
2950.0 0.0033077
2970.0 0.0035224
2990.0 0.0037418
3010.0 0.0039703
3030.0 0.0042159
3050.0 0.0044706
3070.0 0.0047203
3090.0 0.004974
3110.0 0.0052178
3130.0 0.0054318
3150.0 0.005607
3170.0 0.0057316
3190.0 0.0057886
3210.0 0.0057668
3230.0 0.0056909
3250.0 0.0056623
3270.0 0.0057394
3290.0 0.0058907
3310.0 0.006079
3330.0 0.0063114
3350.0 0.0065731
3370.0 0.0068681
3390.0 0.0072124
3410.0 0.0075394
3430.0 0.0080492
3450.0 0.0084558
3470.0 0.0088821
3490.0 0.0092434
3510.0 0.0096818
3530.0 0.011133
3550.0 0.01316
3570.0 0.014398
3590.0 0.014939
3610.0 0.014995
3630.0 0.014535
3650.0 0.015708
3670.0 0.018683
3690.0 0.021037
3710.0 0.022287
3730.0 0.023329
3750.0 0.024475
3770.0 0.024274
3790.0 0.022995
3810.0 0.021531
3830.0 0.020058
3850.0 0.019918
3870.0 0.021561
3890.0 0.023268
3910.0 0.024446
3930.0 0.025192
3950.0 0.027407
3970.0 0.029469
3990.0 0.028162
4010.0 0.024776
4030.0 0.021702
4050.0 0.020781
4070.0 0.021306
4090.0 0.021312
4110.0 0.020842
4130.0 0.020496
4150.0 0.020709
4170.0 0.022565
4190.0 0.02478
4210.0 0.024502
4230.0 0.023178
4250.0 0.022593
4270.0 0.022578
4290.0 0.023545
4310.0 0.024578
4330.0 0.0234
4350.0 0.020301
4370.0 0.017773
4390.0 0.015973
4410.0 0.014441
4430.0 0.014356
4450.0 0.015582
4470.0 0.016663
4490.0 0.018099
4510.0 0.020708
4530.0 0.026196
4550.0 0.033286
4570.0 0.03753
4590.0 0.040009
4610.0 0.043941
4630.0 0.046765
4650.0 0.043743
4670.0 0.035865
4690.0 0.029347
4710.0 0.026681
4730.0 0.025897
4750.0 0.023875
4770.0 0.022141
4790.0 0.023263
4810.0 0.025437
4830.0 0.025687
4850.0 0.024004
4870.0 0.023292
4890.0 0.024846
4910.0 0.02643
4930.0 0.026627
4950.0 0.02571
4970.0 0.024099
4990.0 0.021786
5010.0 0.019724
5030.0 0.018525
5050.0 0.017972
5070.0 0.017529
5090.0 0.017011
5110.0 0.016862
5130.0 0.016965
5150.0 0.01776
5170.0 0.019737
5190.0 0.022253
5210.0 0.025072
5230.0 0.026856
5250.0 0.027725
5270.0 0.029152
5290.0 0.03085
5310.0 0.031429
5330.0 0.030154
5350.0 0.028373
5370.0 0.028207
5390.0 0.030102
5410.0 0.032511
5430.0 0.033939
5450.0 0.03414
5470.0 0.033259
5490.0 0.03185
5510.0 0.03087
5530.0 0.030582
5550.0 0.030662
5570.0 0.030614
5590.0 0.029758
5610.0 0.028272
5630.0 0.026288
5650.0 0.024214
5670.0 0.022905
5690.0 0.022186
5710.0 0.021756
5730.0 0.021758
5750.0 0.021461
5770.0 0.020933
5790.0 0.020907
5810.0 0.020981
5830.0 0.02113
5850.0 0.021195
5870.0 0.020691
5890.0 0.019727
5910.0 0.018475
5930.0 0.016603
5950.0 0.015059
5970.0 0.014645
5990.0 0.015077
6010.0 0.015382
6030.0 0.014869
6050.0 0.014375
6070.0 0.014917
6090.0 0.016075
6110.0 0.016752
6130.0 0.016337
6150.0 0.015392
6170.0 0.014713
6190.0 0.014084
6210.0 0.013242
6230.0 0.012363
6250.0 0.011945
6270.0 0.01221
6290.0 0.012679
6310.0 0.013428
6330.0 0.014518
6350.0 0.01568
6370.0 0.016329
6390.0 0.016489
6410.0 0.01665
6430.0 0.016813
6450.0 0.016995
6470.0 0.01733
6490.0 0.017694
6510.0 0.017948
6530.0 0.017944
6550.0 0.017661
6570.0 0.017063
6590.0 0.016271
6610.0 0.015704
6630.0 0.015379
6650.0 0.014899
6670.0 0.014226
6690.0 0.013652
6710.0 0.013353
6730.0 0.013216
6750.0 0.013014
6770.0 0.012768
6790.0 0.01256
6810.0 0.0123
6830.0 0.012154
6850.0 0.012365
6870.0 0.0125
6890.0 0.012373
6910.0 0.012102
6930.0 0.011848
6950.0 0.011629
6970.0 0.011235
6990.0 0.010807
7010.0 0.010619
7030.0 0.010514
7050.0 0.010204
7070.0 0.0097462
7090.0 0.0095506
7110.0 0.0097929
7130.0 0.010392
7150.0 0.011034
7170.0 0.011449
7190.0 0.011368
7210.0 0.010923
7230.0 0.010638
7250.0 0.010615
7270.0 0.010589
7290.0 0.010502
7310.0 0.01058
7330.0 0.010895
7350.0 0.01131
7370.0 0.011564
7390.0 0.011531
7410.0 0.011282
7430.0 0.010954
7450.0 0.010572
7470.0 0.010068
7490.0 0.0097207
7510.0 0.0094346
7530.0 0.0092843
7550.0 0.0093703
7570.0 0.0095058
7590.0 0.0096031
7610.0 0.0095923
7630.0 0.0095702
7650.0 0.0096695
7670.0 0.0099424
7690.0 0.010281
7710.0 0.010673
7730.0 0.010984
7750.0 0.011346
7770.0 0.011621
7790.0 0.011785
7810.0 0.011823
7830.0 0.011845
7850.0 0.011663
7870.0 0.011186
7890.0 0.010689
7910.0 0.010382
7930.0 0.010164
7950.0 0.009954
7970.0 0.0098597
7990.0 0.0099399
8010.0 0.0095828
8030.0 0.0095034
8050.0 0.0093934
8070.0 0.0092512
8090.0 0.0091059
8110.0 0.00912
8130.0 0.0091885
8150.0 0.0091719
8170.0 0.0091206
8190.0 0.0089029
8210.0 0.0084091
8230.0 0.0078678
8250.0 0.007562
8270.0 0.0073288
8290.0 0.0070874
8310.0 0.0069806
8330.0 0.0069761
8350.0 0.0068137
8370.0 0.0067357
8390.0 0.0069693
8410.0 0.0073877
8430.0 0.0079259
8450.0 0.0084923
8470.0 0.0088272
8490.0 0.0091259
8510.0 0.009341
8530.0 0.0095562
8550.0 0.0097722
8570.0 0.0099217
8590.0 0.010059
8610.0 0.010343
8630.0 0.01047
8650.0 0.010283
8670.0 0.010308
8690.0 0.010494
8710.0 0.010668
8730.0 0.010661
8750.0 0.010422
8770.0 0.01034
8790.0 0.010309
8810.0 0.010159
8830.0 0.0095122
8850.0 0.0086955
8870.0 0.0081132
8890.0 0.0078252
8910.0 0.0074229
8930.0 0.0069151
8950.0 0.0065912
8970.0 0.0065441
8990.0 0.0066181
9010.0 0.0066174
9030.0 0.0065682
9050.0 0.0065229
9070.0 0.0064849
9090.0 0.0064482
9110.0 0.0064118
9130.0 0.0063755
9150.0 0.0063396
9170.0 0.0063037
9190.0 0.0062681
9210.0 0.0062325
9230.0 0.0061973
9250.0 0.0061624
9270.0 0.0061276
9290.0 0.0060931
9310.0 0.0060587
9330.0 0.0060245
9350.0 0.0059906
9370.0 0.0059568
9390.0 0.0059234
9410.0 0.00589
9430.0 0.0058563
9450.0 0.0058202
9470.0 0.0057853
9490.0 0.0057556
9510.0 0.0057246
9530.0 0.0056936
9550.0 0.005662
9570.0 0.0056304
9590.0 0.0055992
9610.0 0.0055679
9630.0 0.0055367
9650.0 0.0055056
9670.0 0.0054751
9690.0 0.0054443
9710.0 0.0054137
9730.0 0.0053836
9750.0 0.0053534
9770.0 0.0053231
9790.0 0.0052932
9810.0 0.0052636
9830.0 0.0052335
9850.0 0.0052013
9870.0 0.0051727
9890.0 0.0051443
9910.0 0.0051155
9930.0 0.0050866
9950.0 0.0050581
9970.0 0.0050291
9990.0 0.0049995
10010.0 0.0049673
10030.0 0.0049373
10050.0 0.0049104
10070.0 0.0048832
10090.0 0.0048559
10110.0 0.0048259
10130.0 0.0047869
10150.0 0.0047604
10170.0 0.0047358
10190.0 0.0047088
10210.0 0.0046822
10230.0 0.0046553
10250.0 0.0046266
10270.0 0.0045979
10290.0 0.0045702
10310.0 0.0045412
10330.0 0.0045111
10350.0 0.0044825
10370.0 0.0044539
10390.0 0.004424
10410.0 0.0043943
10430.0 0.0043661
10450.0 0.0043365
10470.0 0.0043061
10490.0 0.0042768
10510.0 0.0042476
10530.0 0.0042163
10550.0 0.0041857
10570.0 0.0041563
10590.0 0.0041257
10610.0 0.0040943
10630.0 0.0040642
10650.0 0.0040339
10670.0 0.0040017
10690.0 0.0039702
10710.0 0.0039394
10730.0 0.0039073
10750.0 0.0038739
10770.0 0.0038427
10790.0 0.0038109
10810.0 0.0037776
10830.0 0.0037448
10850.0 0.0037131
10870.0 0.003679
10890.0 0.0036449
10910.0 0.0036122
10930.0 0.0035792
10950.0 0.0035451
10970.0 0.0035121
10990.0 0.0034809
11010.0 0.0033791
11030.0 0.0033465
11050.0 0.003316
11070.0 0.0032859
11090.0 0.0032551
11110.0 0.0032267
11130.0 0.0031996
11150.0 0.0031728
11170.0 0.0031472
11190.0 0.0031241
11210.0 0.003102
11230.0 0.003081
11250.0 0.0030623
11270.0 0.0030456
11290.0 0.0030299
11310.0 0.0030158
11330.0 0.0030038
11350.0 0.0029927
11370.0 0.0029822
11390.0 0.0029728
11410.0 0.0029639
11430.0 0.0029547
11450.0 0.0029456
11470.0 0.0029363
11490.0 0.0029263
11510.0 0.0029151
11530.0 0.0029034
11550.0 0.0028906
11570.0 0.0028759
11590.0 0.0028599
11610.0 0.0028428
11630.0 0.0028235
11650.0 0.0028018
11670.0 0.0027792
11690.0 0.0027548
11710.0 0.0027277
11730.0 0.0026989
11750.0 0.0026695
11770.0 0.0026372
11790.0 0.0026027
11810.0 0.0025678
11830.0 0.0025316
11850.0 0.0024923
11870.0 0.0024531
11890.0 0.0024145
11910.0 0.0023745
11930.0 0.002334
11950.0 0.0022952
11970.0 0.0022568
11990.0 0.0022176
12010.0 0.0021805
12030.0 0.0021455
12050.0 0.0021108
12070.0 0.002077
12090.0 0.0020467
12110.0 0.0020175
12130.0 0.0019893
12150.0 0.0019635
12170.0 0.0019401
12190.0 0.0019175
12210.0 0.0018972
12230.0 0.0018797
12250.0 0.0018641
12270.0 0.0018505
12290.0 0.0018395
12310.0 0.0018309
12330.0 0.001824
12350.0 0.0018192
12370.0 0.0018162
12390.0 0.0018146
12410.0 0.0018146
12430.0 0.0018154
12450.0 0.0018169
12470.0 0.0018191
12490.0 0.0018217
12510.0 0.001824
12530.0 0.0018265
12550.0 0.0018287
12570.0 0.0018302
12590.0 0.001831
12610.0 0.001831
12630.0 0.0018298
12650.0 0.0018272
12670.0 0.0018231
12690.0 0.0018175
12710.0 0.0018102
12730.0 0.0018013
12750.0 0.0017903
12770.0 0.0017778
12790.0 0.001764
12810.0 0.0017485
12830.0 0.0017315
12850.0 0.0017142
12870.0 0.0016962
12890.0 0.0016772
12910.0 0.0016582
12930.0 0.0016396
12950.0 0.0016206
12970.0 0.0016016
12990.0 0.0015838
13010.0 0.0015664
13030.0 0.001549
13050.0 0.0015325
13070.0 0.001517
13090.0 0.0015016
13110.0 0.0014866
13130.0 0.0014726
13150.0 0.0014592
13170.0 0.0014459
13190.0 0.0014335
13210.0 0.001422
13230.0 0.0014108
13250.0 0.0014001
13270.0 0.0013903
13290.0 0.0013809
13310.0 0.0013717
13330.0 0.0013631
13350.0 0.0013548
13370.0 0.0013465
13390.0 0.0013382
13410.0 0.0013301
13430.0 0.0013218
13450.0 0.001313
13470.0 0.001304
13490.0 0.0012948
13510.0 0.0012846
13530.0 0.001274
13550.0 0.0012633
13570.0 0.001252
13590.0 0.0012399
13610.0 0.0012278
13630.0 0.0012157
13650.0 0.0012028
13670.0 0.0011899
13690.0 0.0011772
13710.0 0.0011644
13730.0 0.0011509
13750.0 0.0011382
13770.0 0.0011257
13790.0 0.0011129
13810.0 0.0011002
13830.0 0.0010883
13850.0 0.0010761
13870.0 0.0010639
13890.0 0.0010523
13910.0 0.0010412
13930.0 0.0010299
13950.0 0.0010191
13970.0 0.0010091
13990.0 0.00099929
14010.0 0.00098973
14030.0 0.00098089
14050.0 0.0009725
14070.0 0.00096406
14090.0 0.00095619
14110.0 0.00094885
14130.0 0.00094162
14150.0 0.00093451
14170.0 0.00092794
14190.0 0.0009216
14210.0 0.00091523
14230.0 0.00090916
14250.0 0.00090345
14270.0 0.00089768
14290.0 0.00089201
14310.0 0.00088678
14330.0 0.00088169
14350.0 0.00087661
14370.0 0.00087178
14390.0 0.00086728
14410.0 0.00086273
14430.0 0.00085831
14450.0 0.00085419
14470.0 0.00085019
14490.0 0.00084611
14510.0 0.00084229
14530.0 0.00083866
14550.0 0.00083494
14570.0 0.00083118
14590.0 0.00082756
14610.0 0.00082378
14630.0 0.00081973
14650.0 0.00081573
14670.0 0.00081173
14690.0 0.00080757
14710.0 0.00080345
14730.0 0.00079985
14750.0 0.00079657
14770.0 0.00079383
14790.0 0.00079203
14810.0 0.0007913
14830.0 0.00079181
14850.0 0.00079385
14870.0 0.00079736
14890.0 0.00080239
14910.0 0.00080897
14930.0 0.00081638
14950.0 0.00082421
14970.0 0.00083237
14990.0 0.00083994
15010.0 0.0008464
15030.0 0.00085181
15050.0 0.0008561
15070.0 0.00085911
15090.0 0.00086132
15110.0 0.00086297
15130.0 0.00086426
15150.0 0.00086537
15170.0 0.00086638
15190.0 0.00086736
15210.0 0.00086837
15230.0 0.0008694
15250.0 0.00087043
15270.0 0.0008715
15290.0 0.00087262
15310.0 0.00087375
15330.0 0.00087491
15350.0 0.0008761
15370.0 0.00087733
15390.0 0.00087856
15410.0 0.00087982
15430.0 0.00088113
15450.0 0.00088245
15470.0 0.00088379
15490.0 0.00088517
15510.0 0.00088658
15530.0 0.00088799
15550.0 0.00088944
15570.0 0.00089092
15590.0 0.00089241
15610.0 0.00089391
15630.0 0.00089546
15650.0 0.00089703
15670.0 0.0008986
15690.0 0.00090021
15710.0 0.00090185
15730.0 0.00090349
15750.0 0.00090514
15770.0 0.00090684
15790.0 0.00090855
15810.0 0.00091025
15830.0 0.00091199
15850.0 0.00091376
15870.0 0.00091553
15890.0 0.00091731
15910.0 0.00091913
15930.0 0.00092096
15950.0 0.00092278
15970.0 0.00092463
15990.0 0.00092651
16010.0 0.00092838
16030.0 0.00093026
16050.0 0.00093218
16070.0 0.0009341
16090.0 0.00093601
16110.0 0.00093795
16130.0 0.00093992
16150.0 0.00094185
16170.0 0.00094381
16190.0 0.0009458
16210.0 0.00094778
16230.0 0.00094975
16250.0 0.00095176
16270.0 0.00095377
16290.0 0.00095577
16310.0 0.00095777
16330.0 0.0009598
16350.0 0.00096182
16370.0 0.00096381
16390.0 0.00096585
16410.0 0.00096788
16430.0 0.0009699
16450.0 0.00097192
16470.0 0.00097397
16490.0 0.00097599
16510.0 0.000978
16530.0 0.00098002
16550.0 0.00098205
16570.0 0.00098405
16590.0 0.00098605
16610.0 0.00098807
16630.0 0.00099007
16650.0 0.00099205
16670.0 0.00099405
16690.0 0.00099603
16710.0 0.00099798
16730.0 0.00099994
16750.0 0.0010019
16770.0 0.0010038
16790.0 0.0010057
16810.0 0.0010077
16830.0 0.0010096
16850.0 0.0010115
16870.0 0.0010133
16890.0 0.0010152
16910.0 0.0010171
16930.0 0.0010189
16950.0 0.0010207
16970.0 0.0010225
16990.0 0.0010242
17010.0 0.001026
17030.0 0.0010278
17050.0 0.0010295
17070.0 0.0010311
17090.0 0.0010328
17110.0 0.0010345
17130.0 0.0010361
17150.0 0.0010377
17170.0 0.0010393
17190.0 0.0010408
17210.0 0.0010423
17230.0 0.0010439
17250.0 0.0010453
17270.0 0.0010468
17290.0 0.0010482
17310.0 0.0010496
17330.0 0.0010509
17350.0 0.0010522
17370.0 0.0010535
17390.0 0.0010548
17410.0 0.001056
17430.0 0.0010572
17450.0 0.0010584
17470.0 0.0010595
17490.0 0.0010605
17510.0 0.0010616
17530.0 0.0010626
17550.0 0.0010636
17570.0 0.0010645
17590.0 0.0010654
17610.0 0.0010663
17630.0 0.0010671
17650.0 0.0010679
17670.0 0.0010686
17690.0 0.0010692
17710.0 0.0010699
17730.0 0.0010705
17750.0 0.0010711
17770.0 0.0010716
17790.0 0.0010721
17810.0 0.0010725
17830.0 0.0010729
17850.0 0.0010732
17870.0 0.0010735
17890.0 0.0010737
17910.0 0.0010739
17930.0 0.0010741
17950.0 0.0010741
17970.0 0.0010742
17990.0 0.0010742
18010.0 0.0010741
18030.0 0.001074
18050.0 0.0010739
18070.0 0.0010737
18090.0 0.0010734
18110.0 0.0010731
18130.0 0.0010727
18150.0 0.0010723
18170.0 0.0010718
18190.0 0.0010713
18210.0 0.0010708
18230.0 0.0010701
18250.0 0.0010694
18270.0 0.0010687
18290.0 0.0010679
18310.0 0.001067
18330.0 0.0010662
18350.0 0.0010652
18370.0 0.0010642
18390.0 0.0010631
18410.0 0.001062
18430.0 0.0010608
18450.0 0.0010596
18470.0 0.0010583
18490.0 0.001057
18510.0 0.0010556
18530.0 0.0010541
18550.0 0.0010526
18570.0 0.0010511
18590.0 0.0010494
18610.0 0.0010478
18630.0 0.001046
18650.0 0.0010443
18670.0 0.0010424
18690.0 0.0010405
18710.0 0.0010386
18730.0 0.0010366
18750.0 0.0010345
18770.0 0.0010324
18790.0 0.0010302
18810.0 0.001028
18830.0 0.0010257
18850.0 0.0010234
18870.0 0.001021
18890.0 0.0010186
18910.0 0.0010161
18930.0 0.0010136
18950.0 0.001011
18970.0 0.0010084
18990.0 0.0010057
19010.0 0.0010029
19030.0 0.0010001
19050.0 0.00099727
19070.0 0.00099437
19090.0 0.00099143
19110.0 0.00098846
19130.0 0.00098541
19150.0 0.0009823
19170.0 0.00097918
19190.0 0.00097601
19210.0 0.00097276
19230.0 0.00096948
19250.0 0.00096618
19270.0 0.00096282
19290.0 0.0009594
19310.0 0.00095596
19330.0 0.00095248
19350.0 0.00094891
19370.0 0.00094534
19390.0 0.00094173
19410.0 0.00093806
19430.0 0.00093435
19450.0 0.00093063
19470.0 0.00092686
19490.0 0.00092303
19510.0 0.00091918
19530.0 0.0009153
19550.0 0.00091136
19570.0 0.00090739
19590.0 0.00090341
19610.0 0.00089938
19630.0 0.0008953
19650.0 0.00089121
19670.0 0.0008871
19690.0 0.00088293
19710.0 0.00087874
19730.0 0.00087453
19750.0 0.00087028
19770.0 0.00086599
19790.0 0.00086169
19810.0 0.00085737
19830.0 0.00085298
19850.0 0.00084855
19870.0 0.00084406
19890.0 0.0008394
19910.0 0.00083446
19930.0 0.00082916
19950.0 0.00082331
19970.0 0.00081656
19990.0 0.00080879
20010.0 0.00080014
20030.0 0.00079022
20050.0 0.00077909
20070.0 0.00076731
20090.0 0.00075497
20110.0 0.00074163
20130.0 0.00072833
20150.0 0.00071529
20170.0 0.00070204
20190.0 0.00068878
20210.0 0.00067611
20230.0 0.00066369
20250.0 0.00065121
20270.0 0.00063926
20290.0 0.00062789
20310.0 0.00061669
20330.0 0.00060569
20350.0 0.00059564
20370.0 0.00058595
20390.0 0.00057656
20410.0 0.00056779
20430.0 0.00055968
20450.0 0.00055179
20470.0 0.00054444
20490.0 0.00053772
20510.0 0.00053143
20530.0 0.00052551
20550.0 0.0005201
20570.0 0.00051514
20590.0 0.00051049
20610.0 0.00050619
20630.0 0.00050222
20650.0 0.00049851
20670.0 0.00049501
20690.0 0.00049172
20710.0 0.00048857
20730.0 0.00048553
20750.0 0.00048254
20770.0 0.00047956
20790.0 0.00047657
20810.0 0.00047352
20830.0 0.00047037
20850.0 0.0004671
20870.0 0.00046368
20890.0 0.00046007
20910.0 0.0004563
20930.0 0.00045231
20950.0 0.00044809
20970.0 0.00044368
20990.0 0.0004391
21010.0 0.00043424
21030.0 0.0004292
21050.0 0.00042405
21070.0 0.0004187
21090.0 0.00041312
21110.0 0.00040754
21130.0 0.00040189
21150.0 0.00039607
21170.0 0.00039022
21190.0 0.00038445
21210.0 0.00037856
21230.0 0.00037262
21250.0 0.00036683
21270.0 0.00036111
21290.0 0.00035535
21310.0 0.0003497
21330.0 0.00034427
21350.0 0.00033885
21370.0 0.00033352
21390.0 0.00032839
21410.0 0.00032341
21430.0 0.00031843
21450.0 0.00031369
21470.0 0.00030916
21490.0 0.00030473
21510.0 0.00030042
21530.0 0.00029634
21550.0 0.0002924
21570.0 0.00028854
21590.0 0.00028485
21610.0 0.00028133
21630.0 0.00027789
21650.0 0.00027454
21670.0 0.00027136
21690.0 0.00026825
21710.0 0.0002652
21730.0 0.00026223
21750.0 0.00025933
21770.0 0.00025645
21790.0 0.0002536
21810.0 0.00025079
21830.0 0.000248
21850.0 0.00024519
21870.0 0.0002424
21890.0 0.00023962
21910.0 0.0002368
21930.0 0.00023397
21950.0 0.00023115
21970.0 0.0002283
21990.0 0.00022538
22010.0 0.00022249
22030.0 0.00021959
22050.0 0.00021664
22070.0 0.00021366
22090.0 0.00021072
22110.0 0.00020773
22130.0 0.0002047
22150.0 0.00020169
22170.0 0.00019869
22190.0 0.00019562
22210.0 0.00019255
22230.0 0.00018953
22250.0 0.00018648
22270.0 0.00018341
22290.0 0.00018037
22310.0 0.00017736
22330.0 0.00017428
22350.0 0.00017123
22370.0 0.00016823
22390.0 0.00016521
22410.0 0.00016216
22430.0 0.00015919
22450.0 0.00015625
22470.0 0.00015327
22490.0 0.00015034
22510.0 0.00014747
22530.0 0.00014458
22550.0 0.00014169
22570.0 0.0001389
22590.0 0.00013615
22610.0 0.0001334
22630.0 0.00013071
22650.0 0.00012814
22670.0 0.00012559
22690.0 0.00012308
22710.0 0.00012069
22730.0 0.00011837
22750.0 0.00011608
22770.0 0.00011391
22790.0 0.00011184
22810.0 0.00010984
22830.0 0.00010791
22850.0 0.0001061
22870.0 0.00010437
22890.0 0.0001027
22910.0 0.00010113
22930.0 9.9644e-05
22950.0 9.8229e-05
22970.0 9.6887e-05
22990.0 9.5633e-05
23010.0 9.4439e-05
23030.0 9.3303e-05
23050.0 9.2222e-05
23070.0 9.1184e-05
23090.0 9.0182e-05
23110.0 8.9205e-05
23130.0 8.8242e-05
23150.0 8.7284e-05
23170.0 8.6321e-05
23190.0 8.5341e-05
23210.0 8.434e-05
23230.0 8.3307e-05
23250.0 8.2236e-05
23270.0 8.1129e-05
23290.0 7.9975e-05
23310.0 7.876e-05
23330.0 7.7508e-05
23350.0 7.6213e-05
23370.0 7.486e-05
23390.0 7.3463e-05
23410.0 7.2053e-05
23430.0 7.0599e-05
23450.0 6.9099e-05
23470.0 6.7603e-05
23490.0 6.6111e-05
23510.0 6.4597e-05
23530.0 6.3105e-05
23550.0 6.1672e-05
23570.0 6.026e-05
