#lamb flux
1010.0 1.006e-05
1030.0 1.2937e-05
1050.0 1.6307e-05
1070.0 2.0156e-05
1090.0 2.4566e-05
1110.0 2.9112e-05
1130.0 3.3652e-05
1150.0 3.8283e-05
1170.0 4.2843e-05
1190.0 4.6835e-05
1210.0 5.0452e-05
1230.0 5.3671e-05
1250.0 5.6157e-05
1270.0 5.782e-05
1290.0 5.8954e-05
1310.0 5.9306e-05
1330.0 5.876e-05
1350.0 5.7555e-05
1370.0 5.5767e-05
1390.0 5.3398e-05
1410.0 5.0575e-05
1430.0 4.7586e-05
1450.0 4.442e-05
1470.0 4.1124e-05
1490.0 3.7881e-05
1510.0 3.5171e-05
1530.0 3.2913e-05
1550.0 3.0721e-05
1570.0 2.8665e-05
1590.0 2.6709e-05
1610.0 2.4806e-05
1630.0 2.305e-05
1650.0 2.1428e-05
1670.0 1.9896e-05
1690.0 1.8461e-05
1710.0 1.7133e-05
1730.0 1.5989e-05
1750.0 1.5894e-05
1770.0 1.608e-05
1790.0 1.6547e-05
1810.0 1.7278e-05
1830.0 1.8286e-05
1850.0 1.9674e-05
1870.0 2.135e-05
1890.0 2.333e-05
1910.0 2.5653e-05
1930.0 2.834e-05
1950.0 3.1364e-05
1970.0 3.4753e-05
1990.0 3.8556e-05
2010.0 4.2746e-05
2030.0 4.7308e-05
2050.0 5.2301e-05
2070.0 5.7728e-05
2090.0 6.3496e-05
2110.0 6.9645e-05
2130.0 7.6202e-05
2150.0 8.3089e-05
2170.0 9.0235e-05
2190.0 9.7725e-05
2210.0 0.00010549
2230.0 0.0001134
2250.0 0.00012148
2270.0 0.00012978
2290.0 0.00013811
2310.0 0.00014639
2330.0 0.00015472
2350.0 0.00016301
2370.0 0.00017107
2390.0 0.00017895
2410.0 0.00018662
2430.0 0.00019376
2450.0 0.00020027
2470.0 0.00020605
2490.0 0.00021089
2510.0 0.00021473
2530.0 0.00021781
2550.0 0.00022057
2570.0 0.00022388
2590.0 0.0002288
2610.0 0.00023736
2630.0 0.00025136
2650.0 0.00027151
2670.0 0.00029963
2690.0 0.0003373
2710.0 0.00038188
2730.0 0.00043145
2750.0 0.00048757
2770.0 0.00054496
2790.0 0.00059887
2810.0 0.00064941
2830.0 0.00069612
2850.0 0.00073326
2870.0 0.00076395
2890.0 0.00079057
2910.0 0.00081322
2930.0 0.00083241
2950.0 0.00085102
2970.0 0.00086936
2990.0 0.00088668
3010.0 0.00090377
3030.0 0.00092167
3050.0 0.00093965
3070.0 0.00095643
3090.0 0.00097362
3110.0 0.00099063
3130.0 0.0010063
3150.0 0.0010203
3170.0 0.0010343
3190.0 0.0010473
3210.0 0.0010599
3230.0 0.0010738
3250.0 0.0010904
3270.0 0.001109
3290.0 0.0011275
3310.0 0.0011443
3330.0 0.0011588
3350.0 0.0011713
3370.0 0.0011824
3390.0 0.0011918
3410.0 0.0011994
3430.0 0.0012059
3450.0 0.0012135
3470.0 0.0012349
3490.0 0.0012229
3510.0 0.0011741
3530.0 0.0013074
3550.0 0.0015357
3570.0 0.0018308
3590.0 0.0019389
3610.0 0.0022056
3630.0 0.0022549
3650.0 0.0020185
3670.0 0.0018589
3690.0 0.0018581
3710.0 0.0019488
3730.0 0.0021196
3750.0 0.0021191
3770.0 0.0021098
3790.0 0.0020885
3810.0 0.0020216
3830.0 0.001832
3850.0 0.0016588
3870.0 0.0016525
3890.0 0.0018359
3910.0 0.0019152
3930.0 0.0018977
3950.0 0.0018641
3970.0 0.0019437
3990.0 0.0020701
4010.0 0.0020668
4030.0 0.0019209
4050.0 0.0018307
4070.0 0.0018343
4090.0 0.0019148
4110.0 0.0019195
4130.0 0.0018771
4150.0 0.001827
4170.0 0.0018358
4190.0 0.0018642
4210.0 0.0017827
4230.0 0.0016589
4250.0 0.0015
4270.0 0.0013359
4290.0 0.0012297
4310.0 0.0011356
4330.0 0.0011767
4350.0 0.0012876
4370.0 0.0013294
4390.0 0.0014048
4410.0 0.0014951
4430.0 0.0015281
4450.0 0.0014724
4470.0 0.0014554
4490.0 0.0015029
4510.0 0.0015203
4530.0 0.00152
4550.0 0.0015292
4570.0 0.0015551
4590.0 0.001613
4610.0 0.0016811
4630.0 0.0017369
4650.0 0.0017199
4670.0 0.0016997
4690.0 0.0015875
4710.0 0.0014765
4730.0 0.001459
4750.0 0.001438
4770.0 0.0013714
4790.0 0.0013018
4810.0 0.0012942
4830.0 0.001307
4850.0 0.0012419
4870.0 0.00097041
4890.0 0.00099279
4910.0 0.0010883
4930.0 0.0011352
4950.0 0.0010256
4970.0 0.00093096
4990.0 0.00091889
5010.0 0.00083918
5030.0 0.00081227
5050.0 0.00083628
5070.0 0.00090103
5090.0 0.00094175
5110.0 0.0010282
5130.0 0.0010436
5150.0 0.0010954
5170.0 0.0011022
5190.0 0.0010787
5210.0 0.0011044
5230.0 0.0011092
5250.0 0.0011124
5270.0 0.0011167
5290.0 0.0011103
5310.0 0.0010689
5330.0 0.0010189
5350.0 0.00095352
5370.0 0.00091113
5390.0 0.00094782
5410.0 0.00093289
5430.0 0.00095436
5450.0 0.00095222
5470.0 0.00094699
5490.0 0.00094666
5510.0 0.000913
5530.0 0.0009095
5550.0 0.00089894
5570.0 0.00090273
5590.0 0.00091449
5610.0 0.00091776
5630.0 0.00090257
5650.0 0.00090601
5670.0 0.00086789
5690.0 0.00086062
5710.0 0.00081887
5730.0 0.00082404
5750.0 0.00081121
5770.0 0.0007793
5790.0 0.00078571
5810.0 0.00077905
5830.0 0.00079461
5850.0 0.0008108
5870.0 0.00080601
5890.0 0.0007965
5910.0 0.00080029
5930.0 0.0007962
5950.0 0.0008033
5970.0 0.00078247
5990.0 0.00078289
6010.0 0.00078591
6030.0 0.00078229
6050.0 0.0007762
6070.0 0.00075397
6090.0 0.00074861
6110.0 0.00075763
6130.0 0.00074891
6150.0 0.00073197
6170.0 0.00069603
6190.0 0.00064578
6210.0 0.00061736
6230.0 0.00061153
6250.0 0.00061471
6270.0 0.00062183
6290.0 0.00064377
6310.0 0.00067528
6330.0 0.00069205
6350.0 0.00068422
6370.0 0.00069226
6390.0 0.00068299
6410.0 0.00066957
6430.0 0.00064318
6450.0 0.00063707
6470.0 0.00063564
6490.0 0.00062741
6510.0 0.00062004
6530.0 0.00061211
6550.0 0.00060645
6570.0 0.00059297
6590.0 0.0005861
6610.0 0.00057966
6630.0 0.00056494
6650.0 0.00054388
6670.0 0.00053005
6690.0 0.0005289
6710.0 0.00052131
6730.0 0.00051111
6750.0 0.00050012
6770.0 0.00048956
6790.0 0.00049068
6810.0 0.0004873
6830.0 0.00047907
6850.0 0.00046444
6870.0 0.00045682
6890.0 0.00045622
6910.0 0.00044673
6930.0 0.00044457
6950.0 0.00043591
6970.0 0.00043121
6990.0 0.00042768
7010.0 0.00043105
7030.0 0.00042995
7050.0 0.00041914
7070.0 0.00041345
7090.0 0.00040661
7110.0 0.00039611
7130.0 0.00040013
7150.0 0.00039912
7170.0 0.00040141
7190.0 0.00039896
7210.0 0.00040593
7230.0 0.00041731
7250.0 0.00041426
7270.0 0.0004175
7290.0 0.00041161
7310.0 0.00039851
7330.0 0.00038567
7350.0 0.0003881
7370.0 0.00038101
7390.0 0.0003797
7410.0 0.00036728
7430.0 0.000361
7450.0 0.00036039
7470.0 0.00036005
7490.0 0.00036651
7510.0 0.00035356
7530.0 0.00035734
7550.0 0.00035592
7570.0 0.00033064
7590.0 0.00031597
7610.0 0.00031143
7630.0 0.00031573
7650.0 0.00031379
7670.0 0.00032227
7690.0 0.00030814
7710.0 0.00031842
7730.0 0.00032135
7750.0 0.00034401
7770.0 0.00035497
7790.0 0.00036759
7810.0 0.00038566
7830.0 0.00039185
7850.0 0.00040886
7870.0 0.00040447
7890.0 0.00040671
7910.0 0.00040063
7930.0 0.00038569
7950.0 0.00037508
7970.0 0.00037258
7990.0 0.00036884
8010.0 0.00033589
8030.0 0.00033374
8050.0 0.00032688
8070.0 0.00032361
8090.0 0.00031192
8110.0 0.0003142
8130.0 0.00032032
8150.0 0.00032719
8170.0 0.00032485
8190.0 0.00033125
8210.0 0.00032701
8230.0 0.00031206
8250.0 0.00030822
8270.0 0.00030271
8290.0 0.00029721
8310.0 0.00028455
8330.0 0.0002872
8350.0 0.00028686
8370.0 0.00028794
8390.0 0.0002924
8410.0 0.00028967
8430.0 0.00029188
8450.0 0.00029449
8470.0 0.00029799
8490.0 0.00030194
8510.0 0.00029563
8530.0 0.00028435
8550.0 0.00028634
8570.0 0.00028573
8590.0 0.0002767
8610.0 0.00028235
8630.0 0.00027825
8650.0 0.00027318
8670.0 0.00027124
8690.0 0.00027024
8710.0 0.00025847
8730.0 0.00026279
8750.0 0.00025418
8770.0 0.00025365
8790.0 0.00024637
8810.0 0.00024288
8830.0 0.00024376
8850.0 0.00023482
8870.0 0.00022343
8890.0 0.00022033
8910.0 0.00020846
8930.0 0.00019297
8950.0 0.0001927
8970.0 0.0001853
8990.0 0.00018366
9010.0 0.00018145
9030.0 0.0001801
9050.0 0.00017884
9070.0 0.00017757
9090.0 0.00017629
9110.0 0.00017499
9130.0 0.0001737
9150.0 0.00017241
9170.0 0.00017112
9190.0 0.00016983
9210.0 0.00016853
9230.0 0.00016722
9250.0 0.00016591
9270.0 0.00016461
9290.0 0.0001633
9310.0 0.00016199
9330.0 0.00016068
9350.0 0.00015938
9370.0 0.00015808
9390.0 0.00015678
9410.0 0.00015548
9430.0 0.00015419
9450.0 0.0001529
9470.0 0.00015172
9490.0 0.00015049
9510.0 0.00014916
9530.0 0.00014785
9550.0 0.00014656
9570.0 0.00014529
9590.0 0.00014403
9610.0 0.00014279
9630.0 0.00014156
9650.0 0.00014033
9670.0 0.00013911
9690.0 0.00013791
9710.0 0.00013671
9730.0 0.00013552
9750.0 0.00013434
9770.0 0.00013318
9790.0 0.00013202
9810.0 0.00013087
9830.0 0.00012972
9850.0 0.00012843
9870.0 0.00012726
9890.0 0.00012625
9910.0 0.00012522
9930.0 0.00012397
9950.0 0.0001229
9970.0 0.00012194
9990.0 0.00012094
10010.0 0.00011996
10030.0 0.00011896
10050.0 0.00011795
10070.0 0.00011697
10090.0 0.000116
10110.0 0.00011501
10130.0 0.00011404
10150.0 0.0001131
10170.0 0.00011217
10190.0 0.00011124
10210.0 0.00011033
10230.0 0.00010944
10250.0 0.00010855
10270.0 0.00010767
10290.0 0.00010682
10310.0 0.00010597
10330.0 0.00010512
10350.0 0.0001043
10370.0 0.00010349
10390.0 0.00010268
10410.0 0.00010188
10430.0 0.00010109
10450.0 0.00010034
10470.0 9.9588e-05
10490.0 9.8857e-05
10510.0 9.8137e-05
10530.0 9.7404e-05
10550.0 9.6693e-05
10570.0 9.6007e-05
10590.0 9.532e-05
10610.0 9.4637e-05
10630.0 9.3981e-05
10650.0 9.3335e-05
10670.0 9.268e-05
10690.0 9.2046e-05
10710.0 9.1433e-05
10730.0 9.0817e-05
10750.0 9.0199e-05
10770.0 8.9617e-05
10790.0 8.904e-05
10810.0 8.8459e-05
10830.0 8.7896e-05
10850.0 8.7356e-05
10870.0 8.6802e-05
10890.0 8.626e-05
10910.0 8.5747e-05
10930.0 8.5245e-05
10950.0 8.4745e-05
10970.0 8.4273e-05
10990.0 8.3832e-05
11010.0 8.6591e-05
11030.0 8.6251e-05
11050.0 8.5936e-05
11070.0 8.5623e-05
11090.0 8.5285e-05
11110.0 8.4953e-05
11130.0 8.4611e-05
11150.0 8.4236e-05
11170.0 8.3841e-05
11190.0 8.3451e-05
11210.0 8.3039e-05
11230.0 8.2605e-05
11250.0 8.2185e-05
11270.0 8.1778e-05
11290.0 8.1359e-05
11310.0 8.0953e-05
11330.0 8.0593e-05
11350.0 8.024e-05
11370.0 7.9898e-05
11390.0 7.9591e-05
11410.0 7.9308e-05
11430.0 7.9015e-05
11450.0 7.8741e-05
11470.0 7.8484e-05
11490.0 7.8219e-05
11510.0 7.7935e-05
11530.0 7.7661e-05
11550.0 7.7379e-05
11570.0 7.7065e-05
11590.0 7.6741e-05
11610.0 7.6419e-05
11630.0 7.6066e-05
11650.0 7.5689e-05
11670.0 7.5329e-05
11690.0 7.4965e-05
11710.0 7.4579e-05
11730.0 7.4201e-05
11750.0 7.3847e-05
11770.0 7.3477e-05
11790.0 7.3105e-05
11810.0 7.2758e-05
11830.0 7.2419e-05
11850.0 7.2061e-05
11870.0 7.173e-05
11890.0 7.1428e-05
11910.0 7.1125e-05
11930.0 7.0835e-05
11950.0 7.0585e-05
11970.0 7.0356e-05
11990.0 7.0142e-05
12010.0 6.9973e-05
12030.0 6.9849e-05
12050.0 6.9756e-05
12070.0 6.9704e-05
12090.0 6.9709e-05
12110.0 6.9753e-05
12130.0 6.9835e-05
12150.0 6.9959e-05
12170.0 7.0117e-05
12190.0 7.0305e-05
12210.0 7.0517e-05
12230.0 7.0745e-05
12250.0 7.0984e-05
12270.0 7.1229e-05
12290.0 7.147e-05
12310.0 7.1703e-05
12330.0 7.1925e-05
12350.0 7.2129e-05
12370.0 7.2311e-05
12390.0 7.2468e-05
12410.0 7.2594e-05
12430.0 7.2688e-05
12450.0 7.2749e-05
12470.0 7.2766e-05
12490.0 7.274e-05
12510.0 7.2679e-05
12530.0 7.2566e-05
12550.0 7.2396e-05
12570.0 7.2186e-05
12590.0 7.1933e-05
12610.0 7.1612e-05
12630.0 7.1243e-05
12650.0 7.0857e-05
12670.0 7.0417e-05
12690.0 6.9928e-05
12710.0 6.9426e-05
12730.0 6.8906e-05
12750.0 6.8326e-05
12770.0 6.7745e-05
12790.0 6.7174e-05
12810.0 6.6582e-05
12830.0 6.5973e-05
12850.0 6.5401e-05
12870.0 6.4844e-05
12890.0 6.4278e-05
12910.0 6.374e-05
12930.0 6.3244e-05
12950.0 6.2752e-05
12970.0 6.2276e-05
12990.0 6.1854e-05
13010.0 6.1457e-05
13030.0 6.1073e-05
13050.0 6.0721e-05
13070.0 6.0406e-05
13090.0 6.0096e-05
13110.0 5.9802e-05
13130.0 5.9535e-05
13150.0 5.9281e-05
13170.0 5.9024e-05
13190.0 5.8788e-05
13210.0 5.8568e-05
13230.0 5.8346e-05
13250.0 5.8128e-05
13270.0 5.7922e-05
13290.0 5.7714e-05
13310.0 5.7496e-05
13330.0 5.728e-05
13350.0 5.7063e-05
13370.0 5.6828e-05
13390.0 5.6575e-05
13410.0 5.6322e-05
13430.0 5.6048e-05
13450.0 5.5747e-05
13470.0 5.5433e-05
13490.0 5.5108e-05
13510.0 5.4745e-05
13530.0 5.4366e-05
13550.0 5.3983e-05
13570.0 5.358e-05
13590.0 5.3151e-05
13610.0 5.2721e-05
13630.0 5.2289e-05
13650.0 5.1829e-05
13670.0 5.1362e-05
13690.0 5.0899e-05
13710.0 5.0422e-05
13730.0 4.9915e-05
13750.0 4.9426e-05
13770.0 4.8935e-05
13790.0 4.8425e-05
13810.0 4.7913e-05
13830.0 4.742e-05
13850.0 4.6911e-05
13870.0 4.6397e-05
13890.0 4.5901e-05
13910.0 4.5414e-05
13930.0 4.4918e-05
13950.0 4.4433e-05
13970.0 4.3978e-05
13990.0 4.3522e-05
14010.0 4.307e-05
14030.0 4.264e-05
14050.0 4.2223e-05
14070.0 4.1795e-05
14090.0 4.1386e-05
14110.0 4.0992e-05
14130.0 4.0595e-05
14150.0 4.0197e-05
14170.0 3.9816e-05
14190.0 3.9439e-05
14210.0 3.9053e-05
14230.0 3.8675e-05
14250.0 3.831e-05
14270.0 3.7937e-05
14290.0 3.7564e-05
14310.0 3.7213e-05
14330.0 3.6867e-05
14350.0 3.6522e-05
14370.0 3.6193e-05
14390.0 3.5883e-05
14410.0 3.5574e-05
14430.0 3.5275e-05
14450.0 3.4995e-05
14470.0 3.4723e-05
14490.0 3.4452e-05
14510.0 3.4194e-05
14530.0 3.3947e-05
14550.0 3.37e-05
14570.0 3.3454e-05
14590.0 3.3217e-05
14610.0 3.2979e-05
14630.0 3.2736e-05
14650.0 3.2497e-05
14670.0 3.2261e-05
14690.0 3.202e-05
14710.0 3.1778e-05
14730.0 3.1544e-05
14750.0 3.1308e-05
14770.0 3.1069e-05
14790.0 3.0835e-05
14810.0 3.0605e-05
14830.0 3.0368e-05
14850.0 3.0133e-05
14870.0 2.9905e-05
14890.0 2.9676e-05
14910.0 2.9445e-05
14930.0 2.9223e-05
14950.0 2.9008e-05
14970.0 2.8795e-05
14990.0 2.8593e-05
15010.0 2.8404e-05
15030.0 2.8223e-05
15050.0 2.8048e-05
15070.0 2.7887e-05
15090.0 2.7732e-05
15110.0 2.7578e-05
15130.0 2.7428e-05
15150.0 2.7283e-05
15170.0 2.7137e-05
15190.0 2.6991e-05
15210.0 2.6848e-05
15230.0 2.6706e-05
15250.0 2.6562e-05
15270.0 2.6419e-05
15290.0 2.6281e-05
15310.0 2.6141e-05
15330.0 2.6001e-05
15350.0 2.5864e-05
15370.0 2.5728e-05
15390.0 2.559e-05
15410.0 2.5454e-05
15430.0 2.5321e-05
15450.0 2.5186e-05
15470.0 2.5052e-05
15490.0 2.4921e-05
15510.0 2.4791e-05
15530.0 2.466e-05
15550.0 2.4531e-05
15570.0 2.4404e-05
15590.0 2.4276e-05
15610.0 2.4148e-05
15630.0 2.4023e-05
15650.0 2.3899e-05
15670.0 2.3774e-05
15690.0 2.3652e-05
15710.0 2.3532e-05
15730.0 2.341e-05
15750.0 2.3289e-05
15770.0 2.3171e-05
15790.0 2.3054e-05
15810.0 2.2934e-05
15830.0 2.2818e-05
15850.0 2.2704e-05
15870.0 2.259e-05
15890.0 2.2475e-05
15910.0 2.2364e-05
15930.0 2.2253e-05
15950.0 2.2141e-05
15970.0 2.2031e-05
15990.0 2.1924e-05
16010.0 2.1815e-05
16030.0 2.1706e-05
16050.0 2.1602e-05
16070.0 2.1497e-05
16090.0 2.1392e-05
16110.0 2.1289e-05
16130.0 2.1188e-05
16150.0 2.1085e-05
16170.0 2.0983e-05
16190.0 2.0884e-05
16210.0 2.0786e-05
16230.0 2.0686e-05
16250.0 2.059e-05
16270.0 2.0495e-05
16290.0 2.0398e-05
16310.0 2.0303e-05
16330.0 2.0211e-05
16350.0 2.0118e-05
16370.0 2.0023e-05
16390.0 1.9933e-05
16410.0 1.9843e-05
16430.0 1.9753e-05
16450.0 1.9664e-05
16470.0 1.9578e-05
16490.0 1.949e-05
16510.0 1.9402e-05
16530.0 1.9317e-05
16550.0 1.9233e-05
16570.0 1.9148e-05
16590.0 1.9064e-05
16610.0 1.8983e-05
16630.0 1.8901e-05
16650.0 1.8819e-05
16670.0 1.874e-05
16690.0 1.8661e-05
16710.0 1.858e-05
16730.0 1.8502e-05
16750.0 1.8426e-05
16770.0 1.8349e-05
16790.0 1.8272e-05
16810.0 1.8198e-05
16830.0 1.8124e-05
16850.0 1.8049e-05
16870.0 1.7976e-05
16890.0 1.7905e-05
16910.0 1.7832e-05
16930.0 1.7759e-05
16950.0 1.7689e-05
16970.0 1.762e-05
16990.0 1.7549e-05
17010.0 1.7481e-05
17030.0 1.7414e-05
17050.0 1.7346e-05
17070.0 1.7278e-05
17090.0 1.7213e-05
17110.0 1.7148e-05
17130.0 1.708e-05
17150.0 1.7016e-05
17170.0 1.6953e-05
17190.0 1.6889e-05
17210.0 1.6826e-05
17230.0 1.6765e-05
17250.0 1.6703e-05
17270.0 1.664e-05
17290.0 1.6579e-05
17310.0 1.652e-05
17330.0 1.6459e-05
17350.0 1.6399e-05
17370.0 1.6341e-05
17390.0 1.6283e-05
17410.0 1.6224e-05
17430.0 1.6167e-05
17450.0 1.6111e-05
17470.0 1.6053e-05
17490.0 1.5996e-05
17510.0 1.5941e-05
17530.0 1.5886e-05
17550.0 1.5829e-05
17570.0 1.5775e-05
17590.0 1.5722e-05
17610.0 1.5667e-05
17630.0 1.5613e-05
17650.0 1.5561e-05
17670.0 1.5508e-05
17690.0 1.5454e-05
17710.0 1.5403e-05
17730.0 1.5352e-05
17750.0 1.5299e-05
17770.0 1.5248e-05
17790.0 1.5199e-05
17810.0 1.5147e-05
17830.0 1.5096e-05
17850.0 1.5046e-05
17870.0 1.4997e-05
17890.0 1.4946e-05
17910.0 1.4896e-05
17930.0 1.4849e-05
17950.0 1.48e-05
17970.0 1.475e-05
17990.0 1.4703e-05
18010.0 1.4655e-05
18030.0 1.4605e-05
18050.0 1.4557e-05
18070.0 1.4511e-05
18090.0 1.4463e-05
18110.0 1.4414e-05
18130.0 1.4368e-05
18150.0 1.4322e-05
18170.0 1.4274e-05
18190.0 1.4227e-05
18210.0 1.4182e-05
18230.0 1.4134e-05
18250.0 1.4086e-05
18270.0 1.4041e-05
18290.0 1.3996e-05
18310.0 1.3948e-05
18330.0 1.3903e-05
18350.0 1.3858e-05
18370.0 1.3811e-05
18390.0 1.3764e-05
18410.0 1.372e-05
18430.0 1.3674e-05
18450.0 1.3626e-05
18470.0 1.3581e-05
18490.0 1.3536e-05
18510.0 1.349e-05
18530.0 1.3444e-05
18550.0 1.34e-05
18570.0 1.3354e-05
18590.0 1.3306e-05
18610.0 1.3261e-05
18630.0 1.3216e-05
18650.0 1.3169e-05
18670.0 1.3122e-05
18690.0 1.3078e-05
18710.0 1.3032e-05
18730.0 1.2985e-05
18750.0 1.294e-05
18770.0 1.2895e-05
18790.0 1.2846e-05
18810.0 1.2799e-05
18830.0 1.2754e-05
18850.0 1.2707e-05
18870.0 1.266e-05
18890.0 1.2614e-05
18910.0 1.2568e-05
18930.0 1.252e-05
18950.0 1.2472e-05
18970.0 1.2426e-05
18990.0 1.2378e-05
19010.0 1.2329e-05
19030.0 1.2282e-05
19050.0 1.2235e-05
19070.0 1.2186e-05
19090.0 1.2138e-05
19110.0 1.2091e-05
19130.0 1.2042e-05
19150.0 1.1992e-05
19170.0 1.1944e-05
19190.0 1.1896e-05
19210.0 1.1845e-05
19230.0 1.1795e-05
19250.0 1.1747e-05
19270.0 1.1697e-05
19290.0 1.1646e-05
19310.0 1.1597e-05
19330.0 1.1548e-05
19350.0 1.1495e-05
19370.0 1.1444e-05
19390.0 1.1395e-05
19410.0 1.1343e-05
19430.0 1.129e-05
19450.0 1.124e-05
19470.0 1.1189e-05
19490.0 1.1136e-05
19510.0 1.1084e-05
19530.0 1.1033e-05
19550.0 1.0979e-05
19570.0 1.0924e-05
19590.0 1.0873e-05
19610.0 1.082e-05
19630.0 1.0765e-05
19650.0 1.0712e-05
19670.0 1.0659e-05
19690.0 1.0604e-05
19710.0 1.0548e-05
19730.0 1.0495e-05
19750.0 1.044e-05
19770.0 1.0383e-05
19790.0 1.0328e-05
19810.0 1.0274e-05
19830.0 1.0217e-05
19850.0 1.0161e-05
19870.0 1.0107e-05
19890.0 1.005e-05
19910.0 9.9928e-06
19930.0 9.9382e-06
19950.0 9.8847e-06
19970.0 9.8309e-06
19990.0 9.7793e-06
20010.0 9.7321e-06
20030.0 9.6857e-06
20050.0 9.6411e-06
20070.0 9.5998e-06
20090.0 9.5606e-06
20110.0 9.5207e-06
20130.0 9.483e-06
20150.0 9.4471e-06
20170.0 9.4111e-06
20190.0 9.375e-06
20210.0 9.3406e-06
20230.0 9.3065e-06
20250.0 9.2716e-06
20270.0 9.2378e-06
20290.0 9.205e-06
20310.0 9.1719e-06
20330.0 9.1384e-06
20350.0 9.1071e-06
20370.0 9.0759e-06
20390.0 9.0446e-06
20410.0 9.0143e-06
20430.0 8.9853e-06
20450.0 8.9559e-06
20470.0 8.9274e-06
20490.0 8.9005e-06
20510.0 8.8745e-06
20530.0 8.8491e-06
20550.0 8.8256e-06
20570.0 8.8039e-06
20590.0 8.7833e-06
20610.0 8.7644e-06
20630.0 8.7476e-06
20650.0 8.7323e-06
20670.0 8.7188e-06
20690.0 8.7069e-06
20710.0 8.6965e-06
20730.0 8.6872e-06
20750.0 8.6789e-06
20770.0 8.6709e-06
20790.0 8.6631e-06
20810.0 8.6552e-06
20830.0 8.6464e-06
20850.0 8.6364e-06
20870.0 8.6249e-06
20890.0 8.6114e-06
20910.0 8.5955e-06
20930.0 8.577e-06
20950.0 8.5554e-06
20970.0 8.5311e-06
20990.0 8.5038e-06
21010.0 8.4728e-06
21030.0 8.4386e-06
21050.0 8.4019e-06
21070.0 8.362e-06
21090.0 8.3183e-06
21110.0 8.2732e-06
21130.0 8.2262e-06
21150.0 8.1761e-06
21170.0 8.1245e-06
21190.0 8.0726e-06
21210.0 8.0181e-06
21230.0 7.9618e-06
21250.0 7.9062e-06
21270.0 7.8501e-06
21290.0 7.792e-06
21310.0 7.7337e-06
21330.0 7.6767e-06
21350.0 7.6179e-06
21370.0 7.558e-06
21390.0 7.4988e-06
21410.0 7.4392e-06
21430.0 7.3765e-06
21450.0 7.3145e-06
21470.0 7.2528e-06
21490.0 7.1892e-06
21510.0 7.124e-06
21530.0 7.0598e-06
21550.0 6.9945e-06
21570.0 6.9266e-06
21590.0 6.859e-06
21610.0 6.7919e-06
21630.0 6.7229e-06
21650.0 6.6519e-06
21670.0 6.584e-06
21690.0 6.5151e-06
21710.0 6.4447e-06
21730.0 6.3754e-06
21750.0 6.3077e-06
21770.0 6.2376e-06
21790.0 6.1682e-06
21810.0 6.1009e-06
21830.0 6.0337e-06
21850.0 5.9655e-06
21870.0 5.8992e-06
21890.0 5.8348e-06
21910.0 5.7694e-06
21930.0 5.7047e-06
21950.0 5.6421e-06
21970.0 5.5795e-06
21990.0 5.5156e-06
22010.0 5.4541e-06
22030.0 5.3936e-06
22050.0 5.3323e-06
22070.0 5.2712e-06
22090.0 5.2121e-06
22110.0 5.1522e-06
22130.0 5.0915e-06
22150.0 5.0319e-06
22170.0 4.9729e-06
22190.0 4.9121e-06
22210.0 4.8514e-06
22230.0 4.7924e-06
22250.0 4.7324e-06
22270.0 4.6715e-06
22290.0 4.6118e-06
22310.0 4.5524e-06
22330.0 4.4912e-06
22350.0 4.4308e-06
22370.0 4.3715e-06
22390.0 4.3117e-06
22410.0 4.2511e-06
22430.0 4.1926e-06
22450.0 4.1348e-06
22470.0 4.0763e-06
22490.0 4.019e-06
22510.0 3.9634e-06
22530.0 3.9074e-06
22550.0 3.8517e-06
22570.0 3.7982e-06
22590.0 3.7456e-06
22610.0 3.693e-06
22630.0 3.6416e-06
22650.0 3.5921e-06
22670.0 3.5425e-06
22690.0 3.4933e-06
22710.0 3.4456e-06
22730.0 3.3985e-06
