#lamb flux
1010.0 0.0002064
1030.0 0.00027933
1050.0 0.00037792
1070.0 0.00050795
1090.0 0.00067855
1110.0 0.00088714
1130.0 0.0011345
1150.0 0.001428
1170.0 0.0017682
1190.0 0.0021377
1210.0 0.0025424
1230.0 0.0029808
1250.0 0.0034313
1270.0 0.0038782
1290.0 0.0043292
1310.0 0.0047557
1330.0 0.00513
1350.0 0.0054527
1370.0 0.0057176
1390.0 0.0058985
1410.0 0.0059887
1430.0 0.0060065
1450.0 0.0059405
1470.0 0.005788
1490.0 0.0055685
1510.0 0.0053003
1530.0 0.004972
1550.0 0.0046057
1570.0 0.0042193
1590.0 0.0038191
1610.0 0.0034107
1630.0 0.0030116
1650.0 0.0026266
1670.0 0.0022563
1690.0 0.0019073
1710.0 0.0015844
1730.0 0.0012867
1750.0 0.0010135
1770.0 0.0007678
1790.0 0.00054802
1810.0 0.00035266
1830.0 0.00018128
1850.0 8.1754e-05
1870.0 4.2777e-05
1890.0 1.0251e-05
1910.0 1e-99
1930.0 1e-99
1950.0 1e-99
1970.0 1e-99
1990.0 1e-99
2010.0 1e-99
2030.0 1e-99
2050.0 1e-99
2070.0 1e-99
2090.0 1e-99
2110.0 1e-99
2130.0 2.3243e-05
2150.0 5.1336e-05
2170.0 8.2546e-05
2190.0 0.00011668
2210.0 0.00018913
2230.0 0.000309
2250.0 0.00043535
2270.0 0.00056769
2290.0 0.00070458
2310.0 0.00084467
2330.0 0.00098775
2350.0 0.0011326
2370.0 0.0012774
2390.0 0.0014215
2410.0 0.0015646
2430.0 0.0017038
2450.0 0.0018375
2470.0 0.001965
2490.0 0.0020847
2510.0 0.0021945
2530.0 0.0022971
2550.0 0.0023978
2570.0 0.0025044
2590.0 0.0026288
2610.0 0.0027981
2630.0 0.0030356
2650.0 0.0033528
2670.0 0.0037812
2690.0 0.0043521
2710.0 0.0050315
2730.0 0.0057888
2750.0 0.0066476
2770.0 0.0075119
2790.0 0.0082867
2810.0 0.0089668
2830.0 0.0095439
2850.0 0.0099109
2870.0 0.010127
2890.0 0.010241
2910.0 0.010252
2930.0 0.010162
2950.0 0.010033
2970.0 0.0098668
2990.0 0.0096469
3010.0 0.0093942
3030.0 0.0091371
3050.0 0.0088658
3070.0 0.0085615
3090.0 0.0082663
3110.0 0.0079815
3130.0 0.0077011
3150.0 0.0068853
3170.0 0.0062126
3190.0 0.005493
3210.0 0.0048152
3230.0 0.0044174
3250.0 0.0052672
3270.0 0.0079282
3290.0 0.0090972
3310.0 0.0053611
3330.0 0.0048906
3350.0 0.0051687
3370.0 0.0055516
3390.0 0.0058974
3410.0 0.0059925
3430.0 0.0058886
3450.0 0.0057287
3470.0 0.005671
3490.0 0.0052548
3510.0 0.0033104
3530.0 0.00067627
3550.0 0.00033328
3570.0 0.0043033
3590.0 0.011182
3610.0 0.014651
3630.0 0.023902
3650.0 0.025685
3670.0 0.020281
3690.0 0.013461
3710.0 0.0093706
3730.0 0.0096774
3750.0 0.01034
3770.0 0.010701
3790.0 0.010992
3810.0 0.014066
3830.0 0.012644
3850.0 0.0091219
3870.0 0.0071076
3890.0 0.0099159
3910.0 0.012015
3930.0 0.012125
3950.0 0.013472
3970.0 0.014986
3990.0 0.014184
4010.0 0.015647
4030.0 0.014876
4050.0 0.013788
4070.0 0.012902
4090.0 0.013169
4110.0 0.01405
4130.0 0.013852
4150.0 0.012917
4170.0 0.012347
4190.0 0.012834
4210.0 0.011339
4230.0 0.010111
4250.0 0.0083662
4270.0 0.006381
4290.0 0.0064511
4310.0 0.0061904
4330.0 0.0061275
4350.0 0.0084782
4370.0 0.0085702
4390.0 0.010335
4410.0 0.011461
4430.0 0.012599
4450.0 0.01089
4470.0 0.008697
4490.0 0.0081904
4510.0 0.007433
4530.0 0.0069149
4550.0 0.0063169
4570.0 0.0061505
4590.0 0.0062709
4610.0 0.0051465
4630.0 0.0044531
4650.0 0.003565
4670.0 0.0035016
4690.0 0.0026345
4710.0 0.0021214
4730.0 0.001249
4750.0 0.00080919
4770.0 0.00017988
4790.0 0.00021711
4810.0 0.00017902
4830.0 1e-99
4850.0 1e-99
4870.0 1e-99
4890.0 1e-99
4910.0 9.9509e-05
4930.0 0.00023341
4950.0 1e-99
4970.0 1e-99
4990.0 1e-99
5010.0 1e-99
5030.0 1e-99
5050.0 1e-99
5070.0 1e-99
5090.0 1e-99
5110.0 1e-99
5130.0 1e-99
5150.0 1e-99
5170.0 1e-99
5190.0 1e-99
5210.0 1e-99
5230.0 1e-99
5250.0 1e-99
5270.0 0.0006239
5290.0 0.00053232
5310.0 7.6626e-05
5330.0 0.00014156
5350.0 1e-99
5370.0 1e-99
5390.0 8.918e-05
5410.0 2.3273e-05
5430.0 0.00034659
5450.0 1e-99
5470.0 1e-99
5490.0 0.0015643
5510.0 0.0015182
5530.0 0.001598
5550.0 0.0013097
5570.0 0.0019398
5590.0 0.0027739
5610.0 0.0028419
5630.0 0.0025278
5650.0 0.0026391
5670.0 0.0026254
5690.0 0.0029255
5710.0 0.0023368
5730.0 0.0026885
5750.0 0.0027263
5770.0 0.0024942
5790.0 0.0032887
5810.0 0.0038007
5830.0 0.0034512
5850.0 0.0024473
5870.0 0.0019216
5890.0 0.001896
5910.0 0.0025977
5930.0 0.0023757
5950.0 0.0026872
5970.0 0.0027565
5990.0 0.0031318
6010.0 0.0029463
6030.0 0.0031138
6050.0 0.0030401
6070.0 0.0024855
6090.0 0.0028684
6110.0 0.0030761
6130.0 0.0027744
6150.0 0.002837
6170.0 0.00299
6190.0 0.0020094
6210.0 0.0021333
6230.0 0.0024424
6250.0 0.0024095
6270.0 0.0023903
6290.0 0.0027825
6310.0 0.0032839
6330.0 0.0033645
6350.0 0.0032327
6370.0 0.0034026
6390.0 0.0028522
6410.0 0.0030408
6430.0 0.0027632
6450.0 0.0029011
6470.0 0.0030501
6490.0 0.0031466
6510.0 0.0026458
6530.0 0.0027468
6550.0 0.0027074
6570.0 0.0024123
6590.0 0.0027152
6610.0 0.0027466
6630.0 0.0027705
6650.0 0.0024803
6670.0 0.0023093
6690.0 0.0021975
6710.0 0.0020431
6730.0 0.001925
6750.0 0.0019348
6770.0 0.0016308
6790.0 0.0003763
6810.0 0.00076081
6830.0 0.0015917
6850.0 0.0012677
6870.0 0.0012543
6890.0 0.0012026
6910.0 0.0011722
6930.0 0.001047
6950.0 0.0012456
6970.0 0.0011883
6990.0 0.0011696
7010.0 0.0011331
7030.0 0.0013157
7050.0 0.0013041
7070.0 0.00076347
7090.0 0.00028244
7110.0 0.0002257
7130.0 0.00030766
7150.0 0.00040145
7170.0 0.00037887
7190.0 0.0001957
7210.0 0.00053022
7230.0 0.00093926
7250.0 0.00088519
7270.0 0.00093713
7290.0 0.0011231
7310.0 0.00076515
7330.0 0.00066619
7350.0 0.00057069
7370.0 0.00088484
7390.0 0.0012812
7410.0 0.00066332
7430.0 0.00075123
7450.0 0.00070842
7470.0 0.0010756
7490.0 0.0011611
7510.0 0.00084965
7530.0 0.0010686
7550.0 0.00012209
7570.0 5.1364e-05
7590.0 0.00042448
7610.0 0.00094514
7630.0 0.00060746
7650.0 0.00090684
7670.0 0.00018248
7690.0 1e-99
7710.0 5.5602e-05
7730.0 0.00042205
7750.0 5.1668e-05
7770.0 0.00059229
7790.0 0.00089106
7810.0 0.00043699
7830.0 0.00080874
7850.0 0.00019347
7870.0 0.00068549
7890.0 0.00035324
7910.0 0.00037043
7930.0 7.6542e-05
7950.0 1e-99
7970.0 3.8491e-05
7990.0 0.00028199
8010.0 0.0029268
8030.0 0.002817
8050.0 0.0027684
8070.0 0.0027028
8090.0 0.0025582
8110.0 0.0024661
8130.0 0.002697
8150.0 0.0028915
8170.0 0.0030085
8190.0 0.0031835
8210.0 0.0030151
8230.0 0.0030099
8250.0 0.0029723
8270.0 0.0030365
8290.0 0.0030273
8310.0 0.0028586
8330.0 0.0027087
8350.0 0.0028117
8370.0 0.0028817
8390.0 0.0027941
8410.0 0.002763
8430.0 0.0026569
8450.0 0.0025461
8470.0 0.0027735
8490.0 0.0027845
8510.0 0.0025823
8530.0 0.0026289
8550.0 0.0026012
8570.0 0.0023654
8590.0 0.0024193
8610.0 0.0024028
8630.0 0.0025438
8650.0 0.0025615
8670.0 0.0026037
8690.0 0.0025402
8710.0 0.0025123
8730.0 0.0023831
8750.0 0.0023122
8770.0 0.002284
8790.0 0.0024566
8810.0 0.002258
8830.0 0.0022
8850.0 0.00236
8870.0 0.0022308
8890.0 0.0020254
8910.0 0.0020076
8930.0 0.0020983
8950.0 0.0018887
8970.0 0.0018023
8990.0 0.0017582
9010.0 0.0016404
9030.0 0.0016139
9050.0 0.001607
9070.0 0.0016011
9090.0 0.0015952
9110.0 0.0015892
9130.0 0.0015832
9150.0 0.001577
9170.0 0.0015708
9190.0 0.0015645
9210.0 0.0015582
9230.0 0.0015519
9250.0 0.0015455
9270.0 0.001539
9290.0 0.0015325
9310.0 0.0015273
9330.0 0.0015242
9350.0 0.0015211
9370.0 0.0015179
9390.0 0.0015145
9410.0 0.0015111
9430.0 0.0015077
9450.0 0.0015042
9470.0 0.0015013
9490.0 0.001498
9510.0 0.0014939
9530.0 0.0014897
9550.0 0.0014857
9570.0 0.0014817
9590.0 0.0014776
9610.0 0.0014758
9630.0 0.0014742
9650.0 0.0014725
9670.0 0.0014705
9690.0 0.0014686
9710.0 0.0014666
9730.0 0.0014644
9750.0 0.0014622
9770.0 0.0014601
9790.0 0.0014577
9810.0 0.0014551
9830.0 0.0014526
9850.0 0.0014491
9870.0 0.0014446
9890.0 0.0014429
9910.0 0.0014408
9930.0 0.0014377
9950.0 0.0014349
9970.0 0.0014322
9990.0 0.0014293
10010.0 0.0014262
10030.0 0.001423
10050.0 0.0014198
10070.0 0.0014164
10090.0 0.001413
10110.0 0.0014096
10130.0 0.0014061
10150.0 0.0014025
10170.0 0.0013989
10190.0 0.0013953
10210.0 0.0013916
10230.0 0.0013879
10250.0 0.0013842
10270.0 0.0013804
10290.0 0.0013765
10310.0 0.0013727
10330.0 0.0013689
10350.0 0.0013649
10370.0 0.001361
10390.0 0.001357
10410.0 0.001352
10430.0 0.0013467
10450.0 0.0013438
10470.0 0.0013403
10490.0 0.0013366
10510.0 0.0013329
10530.0 0.0013288
10550.0 0.0013248
10570.0 0.0013208
10590.0 0.0013168
10610.0 0.0013127
10630.0 0.0013086
10650.0 0.0013046
10670.0 0.0013004
10690.0 0.0012964
10710.0 0.0012923
10730.0 0.0012882
10750.0 0.0012841
10770.0 0.0012801
10790.0 0.0012761
10810.0 0.001272
10830.0 0.001268
10850.0 0.001264
10870.0 0.0012599
10890.0 0.0012557
10910.0 0.0012516
10930.0 0.0012472
10950.0 0.0012425
10970.0 0.0012374
10990.0 0.0012321
11010.0 0.0010578
11030.0 0.0010515
11050.0 0.0010433
11070.0 0.0010336
11090.0 0.0010224
11110.0 0.0010104
11130.0 0.00099797
11150.0 0.00098495
11170.0 0.00097165
11190.0 0.00095846
11210.0 0.00094502
11230.0 0.00093138
11250.0 0.00091792
11270.0 0.00090462
11290.0 0.00089119
11310.0 0.00087794
11330.0 0.00086524
11350.0 0.00085268
11370.0 0.00084032
11390.0 0.00082846
11410.0 0.00081698
11430.0 0.00080562
11450.0 0.00079465
11470.0 0.00078408
11490.0 0.00077369
11510.0 0.0007634
11530.0 0.00075343
11550.0 0.0007436
11570.0 0.00073375
11590.0 0.00072399
11610.0 0.00071436
11630.0 0.00070464
11650.0 0.00069483
11670.0 0.00068512
11690.0 0.00067537
11710.0 0.00066546
11730.0 0.00065553
11750.0 0.00064567
11770.0 0.00063563
11790.0 0.00062549
11810.0 0.00061546
11830.0 0.00060544
11850.0 0.00059525
11870.0 0.00058526
11890.0 0.00057552
11910.0 0.00056583
11930.0 0.00055632
11950.0 0.00054721
11970.0 0.00053836
11990.0 0.00052974
12010.0 0.00052158
12030.0 0.00051387
12050.0 0.00050653
12070.0 0.00049961
12090.0 0.00049323
12110.0 0.00048728
12130.0 0.00048175
12150.0 0.00047667
12170.0 0.00047196
12190.0 0.00046766
12210.0 0.0004637
12230.0 0.00045997
12250.0 0.0004565
12270.0 0.00045324
12290.0 0.00045008
12310.0 0.00044694
12330.0 0.00044389
12350.0 0.00044081
12370.0 0.00043763
12390.0 0.00043437
12410.0 0.000431
12430.0 0.00042741
12450.0 0.00042364
12470.0 0.00041966
12490.0 0.00041544
12510.0 0.00041101
12530.0 0.00040632
12550.0 0.00040133
12570.0 0.00039615
12590.0 0.00039075
12610.0 0.00038502
12630.0 0.00037905
12650.0 0.00037305
12670.0 0.00036678
12690.0 0.00036029
12710.0 0.00035379
12730.0 0.00034724
12750.0 0.00034039
12770.0 0.00033359
12790.0 0.00032691
12810.0 0.00032014
12830.0 0.00031331
12850.0 0.00030676
12870.0 0.00030035
12890.0 0.00029392
12910.0 0.00028773
12930.0 0.00028189
12950.0 0.00027616
12970.0 0.00027065
12990.0 0.00026566
13010.0 0.00026102
13030.0 0.00025669
13050.0 0.00025283
13070.0 0.00024948
13090.0 0.00024649
13110.0 0.00024394
13130.0 0.00024186
13150.0 0.00024018
13170.0 0.00023889
13190.0 0.00023798
13210.0 0.00023741
13230.0 0.00023715
13250.0 0.00023718
13270.0 0.00023742
13290.0 0.00023789
13310.0 0.00023859
13330.0 0.00023939
13350.0 0.00024026
13370.0 0.00024122
13390.0 0.00024221
13410.0 0.00024307
13430.0 0.00024387
13450.0 0.00024458
13470.0 0.00024512
13490.0 0.00024549
13510.0 0.00024573
13530.0 0.00024578
13550.0 0.00024569
13570.0 0.00024548
13590.0 0.00024514
13610.0 0.00024472
13630.0 0.00024424
13650.0 0.00024365
13670.0 0.00024298
13690.0 0.00024227
13710.0 0.00024144
13730.0 0.00024043
13750.0 0.00023937
13770.0 0.00023818
13790.0 0.00023678
13810.0 0.00023522
13830.0 0.00023361
13850.0 0.00023177
13870.0 0.00022974
13890.0 0.00022768
13910.0 0.00022557
13930.0 0.00022329
13950.0 0.000221
13970.0 0.00021888
13990.0 0.00021672
14010.0 0.00021458
14030.0 0.00021264
14050.0 0.00021084
14070.0 0.00020902
14090.0 0.00020743
14110.0 0.00020605
14130.0 0.00020476
14150.0 0.00020356
14170.0 0.00020259
14190.0 0.00020173
14210.0 0.00020091
14230.0 0.00020021
14250.0 0.00019965
14270.0 0.00019909
14290.0 0.00019858
14310.0 0.00019822
14330.0 0.00019792
14350.0 0.00019764
14370.0 0.00019747
14390.0 0.00019743
14410.0 0.00019742
14430.0 0.00019749
14450.0 0.00019769
14470.0 0.00019796
14490.0 0.00019826
14510.0 0.00019867
14530.0 0.00019916
14550.0 0.00019967
14570.0 0.0002002
14590.0 0.00020079
14610.0 0.00020138
14630.0 0.00020193
14650.0 0.00020251
14670.0 0.0002031
14690.0 0.00020364
14710.0 0.00020415
14730.0 0.00020469
14750.0 0.00020518
14770.0 0.00020561
14790.0 0.00020602
14810.0 0.00020642
14830.0 0.00020669
14850.0 0.00020693
14870.0 0.00020716
14890.0 0.00020732
14910.0 0.00020741
14930.0 0.00020754
14950.0 0.00020772
14970.0 0.00020789
14990.0 0.00020816
15010.0 0.00020856
15030.0 0.00020904
15050.0 0.00020959
15070.0 0.00021026
15090.0 0.00021098
15110.0 0.00021172
15130.0 0.00021247
15150.0 0.00021325
15170.0 0.000214
15190.0 0.00021472
15210.0 0.00021545
15230.0 0.00021617
15250.0 0.00021684
15270.0 0.0002175
15290.0 0.00021816
15310.0 0.00021879
15330.0 0.00021939
15350.0 0.00021998
15370.0 0.00022056
15390.0 0.00022108
15410.0 0.0002216
15430.0 0.00022211
15450.0 0.00022258
15470.0 0.00022301
15490.0 0.00022345
15510.0 0.00022387
15530.0 0.00022423
15550.0 0.00022459
15570.0 0.00022493
15590.0 0.00022522
15610.0 0.00022548
15630.0 0.00022575
15650.0 0.00022598
15670.0 0.00022617
15690.0 0.00022634
15710.0 0.00022651
15730.0 0.00022662
15750.0 0.00022671
15770.0 0.00022679
15790.0 0.00022684
15810.0 0.00022683
15830.0 0.00022682
15850.0 0.0002268
15870.0 0.00022673
15890.0 0.00022664
15910.0 0.00022654
15930.0 0.0002264
15950.0 0.00022621
15970.0 0.00022602
15990.0 0.00022582
16010.0 0.00022556
16030.0 0.00022528
16050.0 0.000225
16070.0 0.00022468
16090.0 0.00022433
16110.0 0.00022396
16130.0 0.00022359
16150.0 0.00022315
16170.0 0.00022269
16190.0 0.00022224
16210.0 0.00022175
16230.0 0.00022122
16250.0 0.0002207
16270.0 0.00022016
16290.0 0.00021956
16310.0 0.00021896
16330.0 0.00021835
16350.0 0.0002177
16370.0 0.00021701
16390.0 0.00021634
16410.0 0.00021564
16430.0 0.0002149
16450.0 0.00021416
16470.0 0.00021341
16490.0 0.00021262
16510.0 0.00021181
16530.0 0.000211
16550.0 0.00021017
16570.0 0.0002093
16590.0 0.00020842
16610.0 0.00020755
16630.0 0.00020665
16650.0 0.00020572
16670.0 0.0002048
16690.0 0.00020386
16710.0 0.00020287
16730.0 0.0002019
16750.0 0.00020092
16770.0 0.00019991
16790.0 0.00019888
16810.0 0.00019787
16830.0 0.00019684
16850.0 0.00019577
16870.0 0.00019471
16890.0 0.00019365
16910.0 0.00019256
16930.0 0.00019145
16950.0 0.00019036
16970.0 0.00018925
16990.0 0.00018812
17010.0 0.00018699
17030.0 0.00018587
17050.0 0.00018472
17070.0 0.00018355
17090.0 0.00018241
17110.0 0.00018125
17130.0 0.00018005
17150.0 0.00017888
17170.0 0.00017771
17190.0 0.00017651
17210.0 0.00017531
17230.0 0.00017413
17250.0 0.00017293
17270.0 0.00017171
17290.0 0.0001705
17310.0 0.0001693
17330.0 0.00016808
17350.0 0.00016685
17370.0 0.00016565
17390.0 0.00016443
17410.0 0.00016319
17430.0 0.00016198
17450.0 0.00016077
17470.0 0.00015952
17490.0 0.00015829
17510.0 0.00015707
17530.0 0.00015585
17550.0 0.00015461
17570.0 0.00015339
17590.0 0.00015218
17610.0 0.00015094
17630.0 0.00014972
17650.0 0.00014851
17670.0 0.00014729
17690.0 0.00014605
17710.0 0.00014485
17730.0 0.00014365
17750.0 0.00014243
17770.0 0.00014122
17790.0 0.00014004
17810.0 0.00013883
17830.0 0.00013762
17850.0 0.00013644
17870.0 0.00013526
17890.0 0.00013406
17910.0 0.00013287
17930.0 0.00013171
17950.0 0.00013054
17970.0 0.00012937
17990.0 0.00012822
18010.0 0.00012707
18030.0 0.0001259
18050.0 0.00012476
18070.0 0.00012363
18090.0 0.00012249
18110.0 0.00012135
18130.0 0.00012024
18150.0 0.00011913
18170.0 0.00011801
18190.0 0.00011691
18210.0 0.00011582
18230.0 0.00011472
18250.0 0.00011362
18270.0 0.00011256
18290.0 0.00011149
18310.0 0.00011042
18330.0 0.00010936
18350.0 0.00010833
18370.0 0.00010728
18390.0 0.00010623
18410.0 0.00010521
18430.0 0.0001042
18450.0 0.00010317
18470.0 0.00010216
18490.0 0.00010118
18510.0 0.00010018
18530.0 9.9193e-05
18550.0 9.823e-05
18570.0 9.7262e-05
18590.0 9.6289e-05
18610.0 9.534e-05
18630.0 9.4403e-05
18650.0 9.3459e-05
18670.0 9.2522e-05
18690.0 9.1616e-05
18710.0 9.0704e-05
18730.0 8.9791e-05
18750.0 8.89e-05
18770.0 8.8021e-05
18790.0 8.7125e-05
18810.0 8.6248e-05
18830.0 8.5393e-05
18850.0 8.4536e-05
18870.0 8.3678e-05
18890.0 8.2844e-05
18910.0 8.202e-05
18930.0 8.1186e-05
18950.0 8.0368e-05
18970.0 7.9568e-05
18990.0 7.8765e-05
19010.0 7.7956e-05
19030.0 7.718e-05
19050.0 7.6408e-05
19070.0 7.5632e-05
19090.0 7.487e-05
19110.0 7.4129e-05
19130.0 7.3376e-05
19150.0 7.263e-05
19170.0 7.1905e-05
19190.0 7.1185e-05
19210.0 7.0459e-05
19230.0 6.9748e-05
19250.0 6.9059e-05
19270.0 6.8363e-05
19290.0 6.7672e-05
19310.0 6.7001e-05
19330.0 6.6334e-05
19350.0 6.5655e-05
19370.0 6.4998e-05
19390.0 6.4355e-05
19410.0 6.3708e-05
19430.0 6.3064e-05
19450.0 6.2444e-05
19470.0 6.1824e-05
19490.0 6.12e-05
19510.0 6.0592e-05
19530.0 5.9996e-05
19550.0 5.9391e-05
19570.0 5.8792e-05
19590.0 5.8216e-05
19610.0 5.7639e-05
19630.0 5.7059e-05
19650.0 5.6496e-05
19670.0 5.5945e-05
19690.0 5.5382e-05
19710.0 5.4828e-05
19730.0 5.4291e-05
19750.0 5.3753e-05
19770.0 5.3208e-05
19790.0 5.2684e-05
19810.0 5.2169e-05
19830.0 5.1646e-05
19850.0 5.1131e-05
19870.0 5.0634e-05
19890.0 5.0132e-05
19910.0 4.9629e-05
19930.0 4.915e-05
19950.0 4.8685e-05
19970.0 4.8227e-05
19990.0 4.7793e-05
20010.0 4.7398e-05
20030.0 4.7024e-05
20050.0 4.6681e-05
20070.0 4.6379e-05
20090.0 4.6111e-05
20110.0 4.5872e-05
20130.0 4.5671e-05
20150.0 4.5501e-05
20170.0 4.5359e-05
20190.0 4.5243e-05
20210.0 4.5149e-05
20230.0 4.5074e-05
20250.0 4.5018e-05
20270.0 4.4973e-05
20290.0 4.4935e-05
20310.0 4.4905e-05
20330.0 4.488e-05
20350.0 4.4847e-05
20370.0 4.4813e-05
20390.0 4.4776e-05
20410.0 4.473e-05
20430.0 4.4675e-05
20450.0 4.4616e-05
20470.0 4.4549e-05
20490.0 4.4473e-05
20510.0 4.4392e-05
20530.0 4.4308e-05
20550.0 4.4219e-05
20570.0 4.4127e-05
20590.0 4.4036e-05
20610.0 4.3944e-05
20630.0 4.3852e-05
20650.0 4.376e-05
20670.0 4.3672e-05
20690.0 4.3581e-05
20710.0 4.3487e-05
20730.0 4.3393e-05
20750.0 4.3295e-05
20770.0 4.3188e-05
20790.0 4.3075e-05
20810.0 4.2953e-05
20830.0 4.2818e-05
20850.0 4.2669e-05
20870.0 4.2506e-05
20890.0 4.2326e-05
20910.0 4.2129e-05
20930.0 4.1914e-05
20950.0 4.168e-05
20970.0 4.1429e-05
20990.0 4.1162e-05
21010.0 4.0874e-05
21030.0 4.0571e-05
21050.0 4.0256e-05
21070.0 3.9926e-05
21090.0 3.9579e-05
21110.0 3.9224e-05
21130.0 3.886e-05
21150.0 3.848e-05
21170.0 3.8091e-05
21190.0 3.7695e-05
21210.0 3.7283e-05
21230.0 3.6857e-05
21250.0 3.6422e-05
21270.0 3.5973e-05
21290.0 3.5505e-05
21310.0 3.5021e-05
21330.0 3.4526e-05
21350.0 3.4008e-05
21370.0 3.3471e-05
21390.0 3.3269e-05
21410.0 3.306e-05
21430.0 3.2839e-05
21450.0 3.2613e-05
21470.0 3.2384e-05
21490.0 3.2144e-05
21510.0 3.1897e-05
21530.0 3.1647e-05
21550.0 3.1391e-05
21570.0 3.1123e-05
21590.0 3.0853e-05
21610.0 3.0578e-05
21630.0 3.0295e-05
21650.0 3.0002e-05
21670.0 2.9711e-05
21690.0 2.9412e-05
21710.0 2.9104e-05
21730.0 2.8792e-05
21750.0 2.8478e-05
21770.0 2.8152e-05
21790.0 2.782e-05
21810.0 2.7486e-05
21830.0 2.7145e-05
21850.0 2.6795e-05
21870.0 2.6442e-05
21890.0 2.6087e-05
21910.0 2.5722e-05
21930.0 2.5352e-05
21950.0 2.4981e-05
21970.0 2.4604e-05
21990.0 2.4217e-05
22010.0 2.3832e-05
22030.0 2.3445e-05
22050.0 2.3051e-05
22070.0 2.2831e-05
22090.0 2.2926e-05
22110.0 2.3021e-05
22130.0 2.3116e-05
22150.0 2.3209e-05
22170.0 2.3299e-05
22190.0 2.3391e-05
22210.0 2.348e-05
22230.0 2.3567e-05
22250.0 2.3653e-05
22270.0 2.3738e-05
22290.0 2.3822e-05
22310.0 2.3905e-05
22330.0 2.3989e-05
22350.0 2.4072e-05
22370.0 2.4154e-05
22390.0 2.4237e-05
22410.0 2.4321e-05
22430.0 2.4404e-05
22450.0 2.4488e-05
22470.0 2.4574e-05
22490.0 2.4659e-05
22510.0 2.4746e-05
22530.0 2.4834e-05
22550.0 2.4923e-05
22570.0 2.5012e-05
22590.0 2.5103e-05
22610.0 2.5195e-05
22630.0 2.5288e-05
22650.0 2.5382e-05
22670.0 2.5476e-05
22690.0 2.5572e-05
22710.0 2.5668e-05
22730.0 2.5765e-05
22750.0 2.5864e-05
22770.0 2.5962e-05
22790.0 2.6062e-05
22810.0 2.6162e-05
22830.0 2.6263e-05
22850.0 2.6365e-05
22870.0 2.6468e-05
22890.0 2.6573e-05
22910.0 2.6678e-05
22930.0 2.6785e-05
22950.0 2.6894e-05
22970.0 2.7004e-05
22990.0 2.7116e-05
23010.0 2.7231e-05
23030.0 2.7348e-05
23050.0 2.7467e-05
23070.0 2.7589e-05
23090.0 2.7714e-05
23110.0 2.7717e-05
23130.0 2.7711e-05
23150.0 2.7705e-05
23170.0 2.7699e-05
23190.0 2.7693e-05
23210.0 2.7688e-05
23230.0 2.7682e-05
23250.0 2.7677e-05
