#lamb flux
1010.0 7.3877e-07
1030.0 7.8652e-07
1050.0 8.4169e-07
1070.0 9.0386e-07
1090.0 9.7453e-07
1110.0 1.0472e-06
1130.0 1.1205e-06
1150.0 1.1975e-06
1170.0 1.2772e-06
1190.0 1.353e-06
1210.0 1.4302e-06
1230.0 1.5102e-06
1250.0 1.589e-06
1270.0 1.666e-06
1290.0 1.7475e-06
1310.0 1.8294e-06
1330.0 1.9085e-06
1350.0 1.989e-06
1370.0 2.0724e-06
1390.0 2.1543e-06
1410.0 2.2344e-06
1430.0 2.3184e-06
1450.0 2.403e-06
1470.0 2.4854e-06
1490.0 2.5691e-06
1510.0 2.6578e-06
1530.0 2.7425e-06
1550.0 2.8266e-06
1570.0 2.9137e-06
1590.0 3.0012e-06
1610.0 3.0853e-06
1630.0 3.1719e-06
1650.0 3.2607e-06
1670.0 3.3466e-06
1690.0 3.4314e-06
1710.0 3.5189e-06
1730.0 3.6064e-06
1750.0 3.6884e-06
1770.0 3.7719e-06
1790.0 3.8562e-06
1810.0 3.9368e-06
1830.0 4.0149e-06
1850.0 4.0965e-06
1870.0 4.1745e-06
1890.0 4.2482e-06
1910.0 4.3218e-06
1930.0 4.3956e-06
1950.0 4.4639e-06
1970.0 4.5293e-06
1990.0 4.5957e-06
2010.0 4.6588e-06
2030.0 4.7171e-06
2050.0 4.7759e-06
2070.0 4.8348e-06
2090.0 4.8874e-06
2110.0 4.9381e-06
2130.0 4.9895e-06
2150.0 5.0381e-06
2170.0 5.0822e-06
2190.0 5.128e-06
2210.0 5.1734e-06
2230.0 5.2153e-06
2250.0 5.2565e-06
2270.0 5.3007e-06
2290.0 5.3426e-06
2310.0 5.3821e-06
2330.0 5.4242e-06
2350.0 5.4677e-06
2370.0 5.5094e-06
2390.0 5.553e-06
2410.0 5.6013e-06
2430.0 5.6492e-06
2450.0 5.6978e-06
2470.0 5.7517e-06
2490.0 5.8128e-06
2510.0 5.8824e-06
2530.0 5.9805e-06
2550.0 6.1398e-06
2570.0 6.3966e-06
2590.0 6.7943e-06
2610.0 7.442e-06
2630.0 8.3751e-06
2650.0 9.5532e-06
2670.0 1.0996e-05
2690.0 1.2661e-05
2710.0 1.4338e-05
2730.0 1.5921e-05
2750.0 1.7436e-05
2770.0 1.8758e-05
2790.0 1.9867e-05
2810.0 2.0857e-05
2830.0 2.1806e-05
2850.0 2.267e-05
2870.0 2.3531e-05
2890.0 2.4442e-05
2910.0 2.5388e-05
2930.0 2.6338e-05
2950.0 2.7357e-05
2970.0 2.8435e-05
2990.0 2.9523e-05
3010.0 0.00010446
3030.0 0.00010845
3050.0 0.00011242
3070.0 0.000116
3090.0 0.00011904
3110.0 0.00012069
3130.0 0.00011997
3150.0 0.00011583
3170.0 0.00010611
3190.0 9.0642e-05
3210.0 6.9707e-05
3230.0 4.6213e-05
3250.0 7.0847e-05
3270.0 4.4306e-05
3290.0 0.00010199
3310.0 4.0204e-05
3330.0 3.98e-05
3350.0 4.7666e-05
3370.0 5.7075e-05
3390.0 6.7363e-05
3410.0 7.7672e-05
3430.0 8.8536e-05
3450.0 9.9502e-05
3470.0 0.00010962
3490.0 0.0001167
3510.0 0.00014013
3530.0 0.00018147
3550.0 0.00017677
3570.0 0.00014576
3590.0 0.00019731
3610.0 0.0001277
3630.0 0.00020795
3650.0 0.00024222
3670.0 0.000308
3690.0 0.00028597
3710.0 0.00019149
3730.0 0.00024714
3750.0 0.00025306
3770.0 0.0002716
3790.0 0.00026355
3810.0 0.00027131
3830.0 0.00042642
3850.0 0.00052342
3870.0 0.00064547
3890.0 0.00062728
3910.0 0.00056064
3930.0 0.00056786
3950.0 0.00061339
3970.0 0.00067633
3990.0 0.00043366
4010.0 0.00023475
4030.0 0.00041744
4050.0 0.00055216
4070.0 0.0005907
4090.0 0.00041317
4110.0 0.00026152
4130.0 0.00043012
4150.0 0.00043913
4170.0 0.00040875
4190.0 0.0003709
4210.0 0.00052498
4230.0 0.00038676
4250.0 0.00041903
4270.0 0.0004163
4290.0 0.00039441
4310.0 0.00050561
4330.0 0.00054634
4350.0 0.0004552
4370.0 0.00038428
4390.0 0.00046835
4410.0 0.00047966
4430.0 0.00035268
4450.0 0.00032
4470.0 0.00039548
4490.0 0.00030257
4510.0 0.00042235
4530.0 0.00043895
4550.0 0.00052092
4570.0 0.00073437
4590.0 0.00072625
4610.0 0.00057583
4630.0 0.00091899
4650.0 0.0012247
4670.0 0.0011679
4690.0 0.00082588
4710.0 0.00087578
4730.0 0.00099202
4750.0 0.00081722
4770.0 0.00062476
4790.0 0.00042165
4810.0 0.00057553
4830.0 0.00067783
4850.0 0.0005958
4870.0 0.00025047
4890.0 0.00067609
4910.0 0.00088639
4930.0 0.00096339
4950.0 0.00099269
4970.0 0.0006973
4990.0 0.00081147
5010.0 0.00094252
5030.0 0.0010103
5050.0 0.00094313
5070.0 0.00066693
5090.0 0.0005411
5110.0 0.0005231
5130.0 0.00049701
5150.0 0.0005177
5170.0 0.00046196
5190.0 0.00055076
5210.0 0.00056051
5230.0 0.00062367
5250.0 0.0007439
5270.0 0.00061957
5290.0 0.00064724
5310.0 0.00095566
5330.0 0.0011036
5350.0 0.00093043
5370.0 0.00084037
5390.0 0.00097949
5410.0 0.0011742
5430.0 0.0012566
5450.0 0.0013279
5470.0 0.0013429
5490.0 0.0013893
5510.0 0.0016706
5530.0 0.0017433
5550.0 0.0018492
5570.0 0.0019506
5590.0 0.001926
5610.0 0.0018115
5630.0 0.0017767
5650.0 0.001846
5670.0 0.0018121
5690.0 0.0015586
5710.0 0.0015489
5730.0 0.0015585
5750.0 0.0016282
5770.0 0.0014089
5790.0 0.0013503
5810.0 0.0013899
5830.0 0.0015071
5850.0 0.0014097
5870.0 0.0014232
5890.0 0.0016676
5910.0 0.0015632
5930.0 0.001297
5950.0 0.0011772
5970.0 0.0012891
5990.0 0.0011761
6010.0 0.0010777
6030.0 0.0010568
6050.0 0.00096796
6070.0 0.00075002
6090.0 0.00071328
6110.0 0.00091507
6130.0 0.0010269
6150.0 0.0010607
6170.0 0.0010315
6190.0 0.00098384
6210.0 0.0010258
6230.0 0.0012449
6250.0 0.0011503
6270.0 0.0010342
6290.0 0.0009401
6310.0 0.0008515
6330.0 0.00078989
6350.0 0.00070598
6370.0 0.00071555
6390.0 0.00083262
6410.0 0.0010338
6430.0 0.001222
6450.0 0.0012267
6470.0 0.0012404
6490.0 0.0015149
6510.0 0.0017392
6530.0 0.0016527
6550.0 0.0015682
6570.0 0.0015908
6590.0 0.0015679
6610.0 0.0016595
6630.0 0.0015475
6650.0 0.0013445
6670.0 0.0012403
6690.0 0.0012296
6710.0 0.0014554
6730.0 0.0012959
6750.0 0.0010659
6770.0 0.00096219
6790.0 0.0010222
6810.0 0.0011739
6830.0 0.0011684
6850.0 0.001048
6870.0 0.0010854
6890.0 0.0010787
6910.0 0.0010138
6930.0 0.0011255
6950.0 0.001047
6970.0 0.00097536
6990.0 0.0009723
7010.0 0.00097943
7030.0 0.00095136
7050.0 0.00091095
7070.0 0.00097704
7090.0 0.00091001
7110.0 0.00077158
7130.0 0.00066274
7150.0 0.00065082
7170.0 0.00082173
7190.0 0.00087118
7210.0 0.00082604
7230.0 0.00086874
7250.0 0.00084378
7270.0 0.00082307
7290.0 0.00089163
7310.0 0.00097739
7330.0 0.00095228
7350.0 0.00088349
7370.0 0.0008173
7390.0 0.00081975
7410.0 0.00094187
7430.0 0.0010605
7450.0 0.0011291
7470.0 0.0011453
7490.0 0.001274
7510.0 0.0012575
7530.0 0.001136
7550.0 0.001073
7570.0 0.00092516
7590.0 0.00087881
7610.0 0.00084692
7630.0 0.0007784
7650.0 0.00083433
7670.0 0.00092223
7690.0 0.0010018
7710.0 0.0011405
7730.0 0.0011935
7750.0 0.0012372
7770.0 0.0012832
7790.0 0.0013888
7810.0 0.0013958
7830.0 0.0012499
7850.0 0.0012521
7870.0 0.0012029
7890.0 0.0012289
7910.0 0.0011548
7930.0 0.0011438
7950.0 0.00095833
7970.0 0.00095928
7990.0 0.00092496
8010.0 0.0010026
8030.0 0.00099607
8050.0 0.0010556
8070.0 0.0010103
8090.0 0.001012
8110.0 0.00099383
8130.0 0.00098003
8150.0 0.00091786
8170.0 0.00089811
8190.0 0.0008934
8210.0 0.00089969
8230.0 0.00078486
8250.0 0.00071567
8270.0 0.0006308
8290.0 0.00053489
8310.0 0.00046992
8330.0 0.00037123
8350.0 0.00029975
8370.0 0.00028863
8390.0 0.00027907
8410.0 0.00029128
8430.0 0.00037365
8450.0 0.00040583
8470.0 0.00043562
8490.0 0.0005084
8510.0 0.00055177
8530.0 0.00062573
8550.0 0.0007382
8570.0 0.00080868
8590.0 0.00084822
8610.0 0.00093954
8630.0 0.001066
8650.0 0.0010906
8670.0 0.0011103
8690.0 0.001149
8710.0 0.0011237
8730.0 0.0010853
8750.0 0.00099731
8770.0 0.0009949
8790.0 0.00097813
8810.0 0.00089707
8830.0 0.00089571
8850.0 0.00081809
8870.0 0.00077793
8890.0 0.00069505
8910.0 0.00077267
8930.0 0.000697
8950.0 0.00069691
8970.0 0.00070971
8990.0 0.00068736
9010.0 0.00070499
9030.0 0.00066923
9050.0 0.00066599
9070.0 0.00066627
9090.0 0.00066643
9110.0 0.00066703
9130.0 0.000667
9150.0 0.00066662
9170.0 0.00066443
9190.0 0.00065957
9210.0 0.00067
9230.0 0.00066704
9250.0 0.00066534
9270.0 0.0006639
9290.0 0.00066262
9310.0 0.00066143
9330.0 0.00066027
9350.0 0.00065911
9370.0 0.00065791
9390.0 0.00065665
9410.0 0.00065535
9430.0 0.00065402
9450.0 0.00065261
9470.0 0.00065115
9490.0 0.00064968
9510.0 0.00064815
9530.0 0.00064657
9550.0 0.000645
9570.0 0.0006434
9590.0 0.00064176
9610.0 0.0006401
9630.0 0.00063846
9650.0 0.0006368
9670.0 0.0006351
9690.0 0.00063342
9710.0 0.00063176
9730.0 0.00063007
9750.0 0.00062839
9770.0 0.00062677
9790.0 0.00062513
9810.0 0.00062348
9830.0 0.00062188
9850.0 0.00062031
9870.0 0.00061871
9890.0 0.00061716
9910.0 0.00061567
9930.0 0.00061417
9950.0 0.00061173
9970.0 0.00061062
9990.0 0.00060949
10010.0 0.00060831
10030.0 0.0006071
10050.0 0.00060568
10070.0 0.00060309
10090.0 0.00060238
10110.0 0.00060164
10130.0 0.00060082
10150.0 0.00059995
10170.0 0.00059903
10190.0 0.00059806
10210.0 0.00059716
10230.0 0.0005963
10250.0 0.00059542
10270.0 0.0005946
10290.0 0.00059386
10310.0 0.00059312
10330.0 0.0005924
10350.0 0.00059177
10370.0 0.00059119
10390.0 0.00059061
10410.0 0.00059008
10430.0 0.00058964
10450.0 0.00058921
10470.0 0.0005888
10490.0 0.00058846
10510.0 0.00058817
10530.0 0.00058787
10550.0 0.00058763
10570.0 0.00058746
10590.0 0.00058731
10610.0 0.00058717
10630.0 0.00058711
10650.0 0.00058708
10670.0 0.00058705
10690.0 0.00058707
10710.0 0.00058715
10730.0 0.00058723
10750.0 0.00058734
10770.0 0.00058751
10790.0 0.0005877
10810.0 0.0005879
10830.0 0.00058812
10850.0 0.00058833
10870.0 0.00058842
10890.0 0.00058829
10910.0 0.00058779
10930.0 0.00058661
10950.0 0.00058426
10970.0 0.00058049
10990.0 0.00057518
11010.0 0.00058514
11030.0 0.00057493
11050.0 0.00056294
11070.0 0.00054905
11090.0 0.00053295
11110.0 0.00051689
11130.0 0.00050082
11150.0 0.00048437
11170.0 0.00046838
11190.0 0.00045382
11210.0 0.00043978
11230.0 0.00042642
11250.0 0.0004146
11270.0 0.00040404
11290.0 0.00039417
11310.0 0.00038537
11330.0 0.00037797
11350.0 0.00037113
11370.0 0.00036476
11390.0 0.00035904
11410.0 0.00035365
11430.0 0.00034805
11450.0 0.0003425
11470.0 0.00033697
11490.0 0.00033107
11510.0 0.00032464
11530.0 0.00031818
11550.0 0.00031148
11570.0 0.00030421
11590.0 0.00029678
11610.0 0.00028942
11630.0 0.00028167
11650.0 0.00027368
11670.0 0.00026608
11690.0 0.00025857
11710.0 0.00025094
11730.0 0.0002436
11750.0 0.00023677
11770.0 0.00022992
11790.0 0.00022326
11810.0 0.0002171
11830.0 0.00021123
11850.0 0.00020531
11870.0 0.00019984
11890.0 0.00019478
11910.0 0.00018976
11930.0 0.00018486
11950.0 0.00018032
11970.0 0.00017587
11990.0 0.00017134
12010.0 0.00016704
12030.0 0.00016296
12050.0 0.00015886
12070.0 0.0001548
12090.0 0.00015118
12110.0 0.00014769
12130.0 0.00014434
12150.0 0.00014138
12170.0 0.00013885
12190.0 0.00013657
12210.0 0.00013481
12230.0 0.00013365
12250.0 0.00013304
12270.0 0.00013304
12290.0 0.00013371
12310.0 0.00013498
12330.0 0.00013693
12350.0 0.00013949
12370.0 0.0001425
12390.0 0.00014599
12410.0 0.00015005
12430.0 0.00015415
12450.0 0.00015835
12470.0 0.00016269
12490.0 0.00016694
12510.0 0.00017085
12530.0 0.00017462
12550.0 0.00017813
12570.0 0.00018118
12590.0 0.00018382
12610.0 0.00018614
12630.0 0.00018803
12650.0 0.00018946
12670.0 0.00019057
12690.0 0.00019133
12710.0 0.00019176
12730.0 0.00019191
12750.0 0.00019178
12770.0 0.00019141
12790.0 0.00019085
12810.0 0.00019006
12830.0 0.00018903
12850.0 0.00018786
12870.0 0.00018651
12890.0 0.00018488
12910.0 0.00018306
12930.0 0.00018109
12950.0 0.0001788
12970.0 0.00017619
12990.0 0.0001735
13010.0 0.0001706
13030.0 0.00016738
13050.0 0.00016404
13070.0 0.00016073
13090.0 0.00015719
13110.0 0.00015359
13130.0 0.00015017
13150.0 0.00014685
13170.0 0.00014353
13190.0 0.00014057
13210.0 0.000138
13230.0 0.00013567
13250.0 0.0001337
13270.0 0.00013221
13290.0 0.00013107
13310.0 0.00013028
13330.0 0.00012987
13350.0 0.00012976
13370.0 0.00012987
13390.0 0.00013016
13410.0 0.00013052
13430.0 0.00013088
13450.0 0.00013118
13470.0 0.00013135
13490.0 0.00013134
13510.0 0.00013111
13530.0 0.00013063
13550.0 0.00012996
13570.0 0.00012907
13590.0 0.00012797
13610.0 0.00012678
13630.0 0.00012554
13650.0 0.00012419
13670.0 0.00012286
13690.0 0.00012162
13710.0 0.00012041
13730.0 0.00011923
13750.0 0.00011821
13770.0 0.00011729
13790.0 0.0001164
13810.0 0.00011558
13830.0 0.00011482
13850.0 0.00011404
13870.0 0.00011324
13890.0 0.00011244
13910.0 0.00011159
13930.0 0.00011067
13950.0 0.00010969
13970.0 0.00010872
13990.0 0.00010769
14010.0 0.00010664
14030.0 0.00010563
14050.0 0.00010466
14070.0 0.0001037
14090.0 0.00010285
14110.0 0.00010211
14130.0 0.00010145
14150.0 0.0001009
14170.0 0.00010047
14190.0 0.00010015
14210.0 9.9926e-05
14230.0 9.9816e-05
14250.0 9.9803e-05
14270.0 9.9902e-05
14290.0 0.00010012
14310.0 0.00010041
14330.0 0.0001008
14350.0 0.0001013
14370.0 0.00010188
14390.0 0.00010249
14410.0 0.00010319
14430.0 0.00010395
14450.0 0.00010468
14470.0 0.00010544
14490.0 0.00010623
14510.0 0.00010698
14530.0 0.0001077
14550.0 0.00010844
14570.0 0.0001092
14590.0 0.00010994
14610.0 0.00011076
14630.0 0.0001117
14650.0 0.00011271
14670.0 0.00011383
14690.0 0.00011515
14710.0 0.00011668
14730.0 0.00011828
14750.0 0.00012009
14770.0 0.00012216
14790.0 0.00012432
14810.0 0.00012655
14830.0 0.00012906
14850.0 0.00013159
14870.0 0.00013403
14890.0 0.00013647
14910.0 0.00013886
14930.0 0.00014095
14950.0 0.00014272
14970.0 0.00014425
14990.0 0.00014535
15010.0 0.00014601
15030.0 0.00014631
15050.0 0.00014628
15070.0 0.00014596
15090.0 0.00014546
15110.0 0.00014483
15130.0 0.00014413
15150.0 0.0001434
15170.0 0.00014264
15190.0 0.00014186
15210.0 0.0001411
15230.0 0.00014033
15250.0 0.00013955
15270.0 0.00013878
15290.0 0.00013802
15310.0 0.00013726
15330.0 0.00013649
15350.0 0.00013574
15370.0 0.00013499
15390.0 0.00013422
15410.0 0.00013347
15430.0 0.00013272
15450.0 0.00013197
15470.0 0.00013122
15490.0 0.00013049
15510.0 0.00012975
15530.0 0.00012901
15550.0 0.00012828
15570.0 0.00012756
15590.0 0.00012683
15610.0 0.00012609
15630.0 0.00012538
15650.0 0.00012467
15670.0 0.00012395
15690.0 0.00012324
15710.0 0.00012255
15730.0 0.00012184
15750.0 0.00012114
15770.0 0.00012045
15790.0 0.00011976
15810.0 0.00011907
15830.0 0.00011838
15850.0 0.00011771
15870.0 0.00011704
15890.0 0.00011636
15910.0 0.00011571
15930.0 0.00011505
15950.0 0.00011438
15970.0 0.00011373
15990.0 0.00011308
16010.0 0.00011243
16030.0 0.00011178
16050.0 0.00011115
16070.0 0.00011052
16090.0 0.00010989
16110.0 0.00010927
16130.0 0.00010865
16150.0 0.00010803
16170.0 0.00010741
16190.0 0.00010681
16210.0 0.0001062
16230.0 0.0001056
16250.0 0.000105
16270.0 0.00010442
16290.0 0.00010383
16310.0 0.00010324
16330.0 0.00010267
16350.0 0.00010209
16370.0 0.0001015
16390.0 0.00010094
16410.0 0.00010038
16430.0 9.9818e-05
16450.0 9.926e-05
16470.0 9.8717e-05
16490.0 9.8165e-05
16510.0 9.7614e-05
16530.0 9.7076e-05
16550.0 9.6543e-05
16570.0 9.6001e-05
16590.0 9.5467e-05
16610.0 9.495e-05
16630.0 9.4426e-05
16650.0 9.3902e-05
16670.0 9.3391e-05
16690.0 9.2884e-05
16710.0 9.2365e-05
16730.0 9.1859e-05
16750.0 9.1363e-05
16770.0 9.0862e-05
16790.0 9.036e-05
16810.0 8.9874e-05
16830.0 8.939e-05
16850.0 8.8899e-05
16870.0 8.8417e-05
16890.0 8.7945e-05
16910.0 8.7464e-05
16930.0 8.6983e-05
16950.0 8.6519e-05
16970.0 8.6055e-05
16990.0 8.5585e-05
17010.0 8.5126e-05
17030.0 8.4676e-05
17050.0 8.4216e-05
17070.0 8.376e-05
17090.0 8.3316e-05
17110.0 8.2871e-05
17130.0 8.2417e-05
17150.0 8.1977e-05
17170.0 8.1546e-05
17190.0 8.1107e-05
17210.0 8.0671e-05
17230.0 8.0249e-05
17250.0 7.9821e-05
17270.0 7.9387e-05
17290.0 7.8966e-05
17310.0 7.8551e-05
17330.0 7.8128e-05
17350.0 7.7706e-05
17370.0 7.7302e-05
17390.0 7.6892e-05
17410.0 7.6478e-05
17430.0 7.6075e-05
17450.0 7.5679e-05
17470.0 7.5267e-05
17490.0 7.4864e-05
17510.0 7.4473e-05
17530.0 7.4078e-05
17550.0 7.3679e-05
17570.0 7.3292e-05
17590.0 7.291e-05
17610.0 7.2517e-05
17630.0 7.2131e-05
17650.0 7.1755e-05
17670.0 7.1374e-05
17690.0 7.0983e-05
17710.0 7.0612e-05
17730.0 7.0242e-05
17750.0 6.9865e-05
17770.0 6.9493e-05
17790.0 6.9134e-05
17810.0 6.8763e-05
17830.0 6.8392e-05
17850.0 6.8032e-05
17870.0 6.7674e-05
17890.0 6.7307e-05
17910.0 6.6946e-05
17930.0 6.6598e-05
17950.0 6.6242e-05
17970.0 6.5885e-05
17990.0 6.554e-05
18010.0 6.5195e-05
18030.0 6.4837e-05
18050.0 6.4491e-05
18070.0 6.4152e-05
18090.0 6.3807e-05
18110.0 6.3459e-05
18130.0 6.3127e-05
18150.0 6.2792e-05
18170.0 6.245e-05
18190.0 6.2116e-05
18210.0 6.179e-05
18230.0 6.1452e-05
18250.0 6.1115e-05
18270.0 6.0792e-05
18290.0 6.0467e-05
18310.0 6.0136e-05
18330.0 5.9814e-05
18350.0 5.9499e-05
18370.0 5.9172e-05
18390.0 5.8849e-05
18410.0 5.8536e-05
18430.0 5.822e-05
18450.0 5.7895e-05
18470.0 5.7583e-05
18490.0 5.7276e-05
18510.0 5.6962e-05
18530.0 5.6649e-05
18550.0 5.6349e-05
18570.0 5.6041e-05
18590.0 5.5727e-05
18610.0 5.5425e-05
18630.0 5.5126e-05
18650.0 5.4819e-05
18670.0 5.4514e-05
18690.0 5.4223e-05
18710.0 5.3926e-05
18730.0 5.3624e-05
18750.0 5.3332e-05
18770.0 5.3044e-05
18790.0 5.2742e-05
18810.0 5.2447e-05
18830.0 5.2163e-05
18850.0 5.1874e-05
18870.0 5.158e-05
18890.0 5.1298e-05
18910.0 5.1018e-05
18930.0 5.0728e-05
18950.0 5.0444e-05
18970.0 5.0168e-05
18990.0 4.9886e-05
19010.0 4.9595e-05
19030.0 4.9323e-05
19050.0 4.905e-05
19070.0 4.877e-05
19090.0 4.8495e-05
19110.0 4.823e-05
19130.0 4.7953e-05
19150.0 4.7676e-05
19170.0 4.7409e-05
19190.0 4.7143e-05
19210.0 4.6868e-05
19230.0 4.6599e-05
19250.0 4.6341e-05
19270.0 4.6074e-05
19290.0 4.5807e-05
19310.0 4.555e-05
19330.0 4.5292e-05
19350.0 4.5021e-05
19370.0 4.4762e-05
19390.0 4.4509e-05
19410.0 4.4248e-05
19430.0 4.3986e-05
19450.0 4.3738e-05
19470.0 4.3486e-05
19490.0 4.3227e-05
19510.0 4.2975e-05
19530.0 4.273e-05
19550.0 4.2474e-05
19570.0 4.2217e-05
19590.0 4.1975e-05
19610.0 4.1729e-05
19630.0 4.1477e-05
19650.0 4.1233e-05
19670.0 4.0995e-05
19690.0 4.0745e-05
19710.0 4.0499e-05
19730.0 4.0262e-05
19750.0 4.0021e-05
19770.0 3.9771e-05
19790.0 3.9534e-05
19810.0 3.9301e-05
19830.0 3.9058e-05
19850.0 3.8815e-05
19870.0 3.8578e-05
19890.0 3.8324e-05
19910.0 3.8046e-05
19930.0 3.7751e-05
19950.0 3.7417e-05
19970.0 3.7011e-05
19990.0 3.6531e-05
20010.0 3.5998e-05
20030.0 3.537e-05
20050.0 3.4657e-05
20070.0 3.3914e-05
20090.0 3.3147e-05
20110.0 3.2317e-05
20130.0 3.1521e-05
20150.0 3.0773e-05
20170.0 3.0037e-05
20190.0 2.933e-05
20210.0 2.8699e-05
20230.0 2.8114e-05
20250.0 2.7559e-05
20270.0 2.7072e-05
20290.0 2.6654e-05
20310.0 2.6281e-05
20330.0 2.596e-05
20350.0 2.5723e-05
20370.0 2.5542e-05
20390.0 2.5419e-05
20410.0 2.5364e-05
20430.0 2.5372e-05
20450.0 2.5445e-05
20470.0 2.5586e-05
20490.0 2.5785e-05
20510.0 2.6045e-05
20530.0 2.6376e-05
20550.0 2.6756e-05
20570.0 2.7169e-05
20590.0 2.7641e-05
20610.0 2.815e-05
20630.0 2.8667e-05
20650.0 2.9206e-05
20670.0 2.9779e-05
20690.0 3.0324e-05
20710.0 3.0848e-05
20730.0 3.1366e-05
20750.0 3.1856e-05
20770.0 3.2291e-05
20790.0 3.2698e-05
20810.0 3.3075e-05
20830.0 3.3401e-05
20850.0 3.3687e-05
20870.0 3.3951e-05
20890.0 3.4183e-05
20910.0 3.4379e-05
20930.0 3.456e-05
20950.0 3.4728e-05
20970.0 3.4876e-05
20990.0 3.501e-05
21010.0 3.5136e-05
21030.0 3.5245e-05
21050.0 3.5333e-05
21070.0 3.5403e-05
21090.0 3.5451e-05
21110.0 3.5471e-05
21130.0 3.5465e-05
21150.0 3.543e-05
21170.0 3.5367e-05
21190.0 3.5281e-05
21210.0 3.5167e-05
21230.0 3.5028e-05
21250.0 3.4876e-05
21270.0 3.4711e-05
21290.0 3.453e-05
21310.0 3.4345e-05
21330.0 3.4167e-05
21350.0 3.3984e-05
21370.0 3.3805e-05
21390.0 3.364e-05
21410.0 3.3488e-05
21430.0 3.3341e-05
21450.0 3.3216e-05
21470.0 3.3112e-05
21490.0 3.3023e-05
21510.0 3.2954e-05
21530.0 3.2907e-05
21550.0 3.288e-05
21570.0 3.2874e-05
21590.0 3.289e-05
21610.0 3.2927e-05
21630.0 3.2987e-05
21650.0 3.3073e-05
21670.0 3.3177e-05
21690.0 3.3305e-05
21710.0 3.3462e-05
21730.0 3.364e-05
21750.0 3.3837e-05
21770.0 3.4071e-05
21790.0 3.4331e-05
21810.0 3.4607e-05
21830.0 3.491e-05
21850.0 3.5249e-05
21870.0 3.5602e-05
21890.0 3.5965e-05
21910.0 3.6362e-05
21930.0 3.6777e-05
21950.0 3.7192e-05
21970.0 3.7623e-05
21990.0 3.8082e-05
22010.0 3.8523e-05
22030.0 3.8957e-05
22050.0 3.9397e-05
22070.0 3.9826e-05
22090.0 4.022e-05
22110.0 4.0601e-05
22130.0 4.0962e-05
22150.0 4.1279e-05
22170.0 4.1553e-05
22190.0 4.1794e-05
22210.0 4.1982e-05
22230.0 4.2108e-05
22250.0 4.2181e-05
22270.0 4.2192e-05
22290.0 4.214e-05
22310.0 4.2027e-05
22330.0 4.1841e-05
22350.0 4.1588e-05
22370.0 4.1281e-05
22390.0 4.0905e-05
22410.0 4.0453e-05
22430.0 3.9967e-05
22450.0 3.9435e-05
22470.0 3.8836e-05
22490.0 3.8202e-05
22510.0 3.7558e-05
22530.0 3.6859e-05
22550.0 3.6124e-05
22570.0 3.5406e-05
22590.0 3.468e-05
22610.0 3.3926e-05
22630.0 3.3186e-05
22650.0 3.2486e-05
22670.0 3.1772e-05
22690.0 3.1069e-05
22710.0 3.0411e-05
22730.0 2.9779e-05
22750.0 2.9139e-05
