#lamb flux
1010.0 3.7672e-07
1030.0 4.1473e-07
1050.0 4.5845e-07
1070.0 5.0767e-07
1090.0 5.6358e-07
1110.0 6.2091e-07
1130.0 6.7862e-07
1150.0 7.3907e-07
1170.0 8.0143e-07
1190.0 8.6055e-07
1210.0 9.2048e-07
1230.0 9.824e-07
1250.0 1.0431e-06
1270.0 1.102e-06
1290.0 1.1642e-06
1310.0 1.2264e-06
1330.0 1.2861e-06
1350.0 1.3464e-06
1370.0 1.4087e-06
1390.0 1.4694e-06
1410.0 1.5283e-06
1430.0 1.5899e-06
1450.0 1.6515e-06
1470.0 1.711e-06
1490.0 1.7711e-06
1510.0 1.8346e-06
1530.0 1.8947e-06
1550.0 1.954e-06
1570.0 2.0154e-06
1590.0 2.0767e-06
1610.0 2.1354e-06
1630.0 2.1957e-06
1650.0 2.2577e-06
1670.0 2.3175e-06
1690.0 2.3765e-06
1710.0 2.4378e-06
1730.0 2.4993e-06
1750.0 2.557e-06
1770.0 2.6162e-06
1790.0 2.6766e-06
1810.0 2.7348e-06
1830.0 2.7918e-06
1850.0 2.8522e-06
1870.0 2.9107e-06
1890.0 2.9668e-06
1910.0 3.0238e-06
1930.0 3.0818e-06
1950.0 3.1367e-06
1970.0 3.1903e-06
1990.0 3.2455e-06
2010.0 3.2992e-06
2030.0 3.35e-06
2050.0 3.4018e-06
2070.0 3.4542e-06
2090.0 3.5022e-06
2110.0 3.549e-06
2130.0 3.5964e-06
2150.0 3.6415e-06
2170.0 3.6828e-06
2190.0 3.7247e-06
2210.0 3.7655e-06
2230.0 3.8024e-06
2250.0 3.8374e-06
2270.0 3.873e-06
2290.0 3.905e-06
2310.0 3.9329e-06
2330.0 3.9607e-06
2350.0 3.9878e-06
2370.0 4.0121e-06
2390.0 4.0382e-06
2410.0 4.0715e-06
2430.0 4.1111e-06
2450.0 4.1611e-06
2470.0 4.2314e-06
2490.0 4.3259e-06
2510.0 4.4358e-06
2530.0 4.5756e-06
2550.0 4.763e-06
2570.0 5.0098e-06
2590.0 5.3451e-06
2610.0 5.8648e-06
2630.0 6.6069e-06
2650.0 7.5574e-06
2670.0 8.7553e-06
2690.0 1.0181e-05
2710.0 1.164e-05
2730.0 1.3014e-05
2750.0 1.4301e-05
2770.0 1.5342e-05
2790.0 1.6085e-05
2810.0 1.6599e-05
2830.0 1.6926e-05
2850.0 1.7059e-05
2870.0 1.7086e-05
2890.0 1.7052e-05
2910.0 1.6975e-05
2930.0 1.6871e-05
2950.0 1.6763e-05
2970.0 1.6655e-05
2990.0 1.6546e-05
3010.0 0.00051808
3030.0 0.00051499
3050.0 0.00051194
3070.0 0.00050863
3090.0 0.00050509
3110.0 0.00050079
3130.0 0.00049514
3150.0 0.0004877
3170.0 0.00047755
3190.0 0.00046487
3210.0 0.00045049
3230.0 0.00043497
3250.0 0.00041928
3270.0 0.00040754
3290.0 0.00039866
3310.0 0.00039657
3330.0 0.00039906
3350.0 0.00040599
3370.0 0.00041734
3390.0 0.00043252
3410.0 0.00044957
3430.0 0.00046911
3450.0 0.00049193
3470.0 0.00051716
3490.0 0.00054432
3510.0 0.00057531
3530.0 0.00060923
3550.0 0.00064572
3570.0 0.00068614
3590.0 0.00073157
3610.0 0.00078242
3630.0 0.00083338
3650.0 0.00088754
3670.0 0.00093654
3690.0 0.00097315
3710.0 0.00099159
3730.0 0.00098071
3750.0 0.00094065
3770.0 0.0009557
3790.0 0.00092473
3810.0 0.00070423
3830.0 0.00066196
3850.0 0.0009572
3870.0 0.00088508
3890.0 0.00067371
3910.0 0.00070389
3930.0 0.00092644
3950.0 0.0010979
3970.0 0.0012747
3990.0 0.00092586
4010.0 0.0015571
4030.0 0.0014413
4050.0 0.0014353
4070.0 0.0016731
4090.0 0.0015996
4110.0 0.0014839
4130.0 0.0018638
4150.0 0.0024731
4170.0 0.0019651
4190.0 0.0017231
4210.0 0.001941
4230.0 0.0024265
4250.0 0.0028711
4270.0 0.0031226
4290.0 0.0028066
4310.0 0.0025852
4330.0 0.0025761
4350.0 0.0033149
4370.0 0.0040258
4390.0 0.0032042
4410.0 0.0018236
4430.0 0.0012971
4450.0 0.0011939
4470.0 0.00079943
4490.0 0.0013596
4510.0 0.0027532
4530.0 0.003344
4550.0 0.0032126
4570.0 0.0029154
4590.0 0.0031566
4610.0 0.0061386
4630.0 0.0085464
4650.0 0.008028
4670.0 0.0070748
4690.0 0.0073708
4710.0 0.0077441
4730.0 0.0062434
4750.0 0.003987
4770.0 0.0027869
4790.0 0.003122
4810.0 0.0032622
4830.0 0.0032331
4850.0 0.0035315
4870.0 0.004677
4890.0 0.0054254
4910.0 0.0041815
4930.0 0.0040349
4950.0 0.0046543
4970.0 0.006257
4990.0 0.0084233
5010.0 0.0096562
5030.0 0.0076356
5050.0 0.0045945
5070.0 0.0032825
5090.0 0.0025392
5110.0 0.0023848
5130.0 0.0028276
5150.0 0.0027151
5170.0 0.002556
5190.0 0.0022924
5210.0 0.0025094
5230.0 0.0031282
5250.0 0.0036558
5270.0 0.003394
5290.0 0.0036934
5310.0 0.004948
5330.0 0.0052304
5350.0 0.0051513
5370.0 0.0058371
5390.0 0.0072597
5410.0 0.0061687
5430.0 0.0046597
5450.0 0.0047084
5470.0 0.0055424
5490.0 0.0070147
5510.0 0.0086024
5530.0 0.009955
5550.0 0.0089574
5570.0 0.008001
5590.0 0.0065707
5610.0 0.0066967
5630.0 0.0075296
5650.0 0.0070143
5670.0 0.0064788
5690.0 0.0052396
5710.0 0.0053775
5730.0 0.0052444
5750.0 0.0027894
5770.0 0.0020307
5790.0 0.0025315
5810.0 0.0027217
5830.0 0.0042095
5850.0 0.0054558
5870.0 0.0057885
5890.0 0.0054604
5910.0 0.0052839
5930.0 0.0051321
5950.0 0.0053229
5970.0 0.0065932
5990.0 0.0053979
6010.0 0.0041306
6030.0 0.003349
6050.0 0.0029843
6070.0 0.0035926
6090.0 0.0040862
6110.0 0.0041535
6130.0 0.0037696
6150.0 0.0029734
6170.0 0.0024146
6190.0 0.0030169
6210.0 0.0047222
6230.0 0.0068498
6250.0 0.0072797
6270.0 0.0055543
6290.0 0.0047425
6310.0 0.0036223
6330.0 0.002647
6350.0 0.002605
6370.0 0.0027399
6390.0 0.0033112
6410.0 0.0042478
6430.0 0.0051192
6450.0 0.0063212
6470.0 0.0067217
6490.0 0.0081025
6510.0 0.0090988
6530.0 0.0091819
6550.0 0.008463
6570.0 0.0069518
6590.0 0.0067223
6610.0 0.0055798
6630.0 0.0057914
6650.0 0.0055802
6670.0 0.004946
6690.0 0.0039225
6710.0 0.0038068
6730.0 0.0018299
6750.0 0.0023227
6770.0 0.0035184
6790.0 0.0046606
6810.0 0.0033924
6830.0 0.0034674
6850.0 0.0029324
6870.0 0.0027786
6890.0 0.0023728
6910.0 0.0027989
6930.0 0.0026256
6950.0 0.0031394
6970.0 0.0032158
6990.0 0.003561
7010.0 0.0035042
7030.0 0.00391
7050.0 0.0033791
7070.0 0.0028535
7090.0 0.0030073
7110.0 0.0031197
7130.0 0.0035578
7150.0 0.0040523
7170.0 0.0045188
7190.0 0.00474
7210.0 0.004186
7230.0 0.0042286
7250.0 0.0045895
7270.0 0.005012
7290.0 0.0060817
7310.0 0.0062874
7330.0 0.0057606
7350.0 0.0051372
7370.0 0.0038075
7390.0 0.0039897
7410.0 0.0049419
7430.0 0.005615
7450.0 0.0060379
7470.0 0.0056097
7490.0 0.0047381
7510.0 0.0075742
7530.0 0.0067828
7550.0 0.0062868
7570.0 0.0042306
7590.0 0.0018621
7610.0 0.0013169
7630.0 0.0019877
7650.0 0.0026657
7670.0 0.0042363
7690.0 0.0047616
7710.0 0.0042871
7730.0 0.004206
7750.0 0.0054867
7770.0 0.0056131
7790.0 0.0051682
7810.0 0.0042299
7830.0 0.0045391
7850.0 0.0049401
7870.0 0.0048372
7890.0 0.0038052
7910.0 0.002545
7930.0 0.0025946
7950.0 0.0023329
7970.0 0.0019721
7990.0 0.0017821
8010.0 0.0014638
8030.0 0.0013763
8050.0 0.001465
8070.0 0.0015854
8090.0 0.0018496
8110.0 0.0017312
8130.0 0.0011379
8150.0 0.0011353
8170.0 0.00074712
8190.0 0.00055671
8210.0 0.0010285
8230.0 0.001202
8250.0 0.00063561
8270.0 0.00052841
8290.0 0.00074108
8310.0 0.00060605
8330.0 0.00037399
8350.0 0.0002969
8370.0 0.00012035
8390.0 0.00032537
8410.0 0.0003881
8430.0 0.00048318
8450.0 0.00054158
8470.0 0.00082599
8490.0 0.00069461
8510.0 0.00056832
8530.0 0.00035617
8550.0 0.00092225
8570.0 0.0013864
8590.0 0.001064
8610.0 0.0015216
8630.0 0.0016708
8650.0 0.0010649
8670.0 0.0014095
8690.0 0.0020009
8710.0 0.0017524
8730.0 0.0018511
8750.0 0.0015016
8770.0 0.0013587
8790.0 0.0014796
8810.0 0.0015653
8830.0 0.00094799
8850.0 0.00050837
8870.0 0.00038439
8890.0 0.00071629
8910.0 0.0010532
8930.0 0.0013434
8950.0 0.0015183
8970.0 0.0014775
8990.0 0.0011699
9010.0 0.00086483
9030.0 0.00069862
9050.0 0.00072531
9070.0 0.00075116
9090.0 0.00077176
9110.0 0.00079588
9130.0 0.00081345
9150.0 0.00082623
9170.0 0.00083983
9190.0 0.00085439
9210.0 0.00086965
9230.0 0.00088581
9250.0 0.00090222
9270.0 0.00091918
9290.0 0.00093659
9310.0 0.00095408
9330.0 0.00097187
9350.0 0.00099023
9370.0 0.0010088
9390.0 0.0010274
9410.0 0.0010466
9430.0 0.0010663
9450.0 0.0010859
9470.0 0.0011058
9490.0 0.0011263
9510.0 0.001147
9530.0 0.0011678
9550.0 0.0011892
9570.0 0.001211
9590.0 0.0012328
9610.0 0.001255
9630.0 0.0012777
9650.0 0.0013007
9670.0 0.0013236
9690.0 0.0013472
9710.0 0.001371
9730.0 0.001395
9750.0 0.0014192
9770.0 0.0014442
9790.0 0.0014691
9810.0 0.0014941
9830.0 0.0015197
9850.0 0.0015455
9870.0 0.0015713
9890.0 0.0015975
9910.0 0.0016241
9930.0 0.0016507
9950.0 0.0016775
9970.0 0.0017047
9990.0 0.0017322
10010.0 0.00158
10030.0 0.0016044
10050.0 0.0016291
10070.0 0.0016535
10090.0 0.0016783
10110.0 0.0017035
10130.0 0.0017287
10150.0 0.0017537
10170.0 0.0017789
10190.0 0.0018043
10210.0 0.0018295
10230.0 0.0018546
10250.0 0.0018799
10270.0 0.0019052
10290.0 0.0019302
10310.0 0.0019554
10330.0 0.0019806
10350.0 0.0020056
10370.0 0.0020304
10390.0 0.0020553
10410.0 0.00208
10430.0 0.0021043
10450.0 0.0021286
10470.0 0.0021529
10490.0 0.0021767
10510.0 0.0022003
10530.0 0.0022241
10550.0 0.0022474
10570.0 0.0022702
10590.0 0.0022929
10610.0 0.0023155
10630.0 0.0023374
10650.0 0.0023591
10670.0 0.0023807
10690.0 0.0024018
10710.0 0.0024223
10730.0 0.0024427
10750.0 0.0024628
10770.0 0.0024821
10790.0 0.0025011
10810.0 0.0025198
10830.0 0.0025378
10850.0 0.0025549
10870.0 0.0025713
10890.0 0.002586
10910.0 0.0025978
10930.0 0.0026058
10950.0 0.0026075
10970.0 0.0026013
10990.0 0.0025862
11010.0 0.0026406
11030.0 0.0026009
11050.0 0.0025513
11070.0 0.0024912
11090.0 0.0024182
11110.0 0.0023424
11130.0 0.0022632
11150.0 0.002178
11170.0 0.0020905
11190.0 0.0020059
11210.0 0.0019192
11230.0 0.0018309
11250.0 0.0017471
11270.0 0.0016673
11290.0 0.0015879
11310.0 0.0015132
11330.0 0.0014475
11350.0 0.0013856
11370.0 0.0013283
11390.0 0.0012784
11410.0 0.0012342
11430.0 0.0011925
11450.0 0.0011558
11470.0 0.0011231
11490.0 0.0010919
11510.0 0.0010611
11530.0 0.0010318
11550.0 0.0010024
11570.0 0.00097114
11590.0 0.00093887
11610.0 0.00090625
11630.0 0.00087124
11650.0 0.00083427
11670.0 0.00079815
11690.0 0.00076185
11710.0 0.00072477
11730.0 0.00068902
11750.0 0.00065593
11770.0 0.00062356
11790.0 0.00059315
11810.0 0.00056615
11830.0 0.00054174
11850.0 0.00051901
11870.0 0.00049953
11890.0 0.00048285
11910.0 0.00046776
11930.0 0.00045432
11950.0 0.00044261
11970.0 0.00043176
11990.0 0.00042124
12010.0 0.00041126
12030.0 0.00040153
12050.0 0.0003915
12070.0 0.00038114
12090.0 0.0003711
12110.0 0.00036089
12130.0 0.00035057
12150.0 0.00034075
12170.0 0.00033169
12190.0 0.00032311
12210.0 0.00031581
12230.0 0.00031011
12250.0 0.000306
12270.0 0.00030378
12290.0 0.00030359
12310.0 0.00030528
12330.0 0.00030919
12350.0 0.00031512
12370.0 0.00032253
12390.0 0.00033163
12410.0 0.00034283
12430.0 0.00035436
12450.0 0.00036642
12470.0 0.00037938
12490.0 0.00039238
12510.0 0.0004044
12530.0 0.00041629
12550.0 0.00042762
12570.0 0.00043731
12590.0 0.00044551
12610.0 0.00045256
12630.0 0.00045774
12650.0 0.00046068
12670.0 0.00046196
12690.0 0.00046135
12710.0 0.00045879
12730.0 0.00045452
12750.0 0.00044843
12770.0 0.00044079
12790.0 0.00043197
12810.0 0.00042185
12830.0 0.0004105
12850.0 0.00039876
12870.0 0.00038652
12890.0 0.00037349
12910.0 0.00036032
12930.0 0.00034737
12950.0 0.00033397
12970.0 0.00032038
12990.0 0.00030747
13010.0 0.00029469
13030.0 0.00028178
13050.0 0.00026929
13070.0 0.00025748
13090.0 0.00024559
13110.0 0.00023399
13130.0 0.00022317
13150.0 0.00021282
13170.0 0.0002026
13190.0 0.00019335
13210.0 0.00018506
13230.0 0.00017734
13250.0 0.00017049
13270.0 0.00016483
13290.0 0.00016012
13310.0 0.00015642
13330.0 0.000154
13350.0 0.00015275
13370.0 0.0001527
13390.0 0.00015393
13410.0 0.00015613
13430.0 0.0001594
13450.0 0.00016376
13470.0 0.00016882
13490.0 0.00017433
13510.0 0.00018075
13530.0 0.00018741
13550.0 0.00019388
13570.0 0.00020038
13590.0 0.00020685
13610.0 0.00021269
13630.0 0.00021785
13650.0 0.00022267
13670.0 0.00022673
13690.0 0.00022991
13710.0 0.00023241
13730.0 0.00023426
13750.0 0.0002352
13770.0 0.00023545
13790.0 0.00023506
13810.0 0.00023402
13830.0 0.00023245
13850.0 0.00023033
13870.0 0.00022768
13890.0 0.00022465
13910.0 0.00022127
13930.0 0.00021742
13950.0 0.00021326
13970.0 0.00020904
13990.0 0.00020451
14010.0 0.00019976
14030.0 0.00019506
14050.0 0.00019038
14070.0 0.00018549
14090.0 0.00018083
14110.0 0.00017647
14130.0 0.00017227
14150.0 0.00016832
14170.0 0.00016494
14190.0 0.000162
14210.0 0.00015947
14230.0 0.00015756
14250.0 0.00015627
14270.0 0.00015556
14290.0 0.0001555
14310.0 0.00015608
14330.0 0.00015724
14350.0 0.00015904
14370.0 0.00016136
14390.0 0.00016406
14410.0 0.00016732
14430.0 0.00017098
14450.0 0.0001748
14470.0 0.00017887
14490.0 0.00018331
14510.0 0.00018769
14530.0 0.00019199
14550.0 0.00019644
14570.0 0.00020088
14590.0 0.0002051
14610.0 0.00020936
14630.0 0.00021375
14650.0 0.00021802
14670.0 0.00022228
14690.0 0.00022682
14710.0 0.00023165
14730.0 0.00023648
14750.0 0.00024177
14770.0 0.00024764
14790.0 0.00025385
14810.0 0.00026042
14830.0 0.00026797
14850.0 0.00027595
14870.0 0.0002841
14890.0 0.0002927
14910.0 0.00030167
14930.0 0.00031018
14950.0 0.00031808
14970.0 0.0003255
14990.0 0.00033176
15010.0 0.00033661
15030.0 0.00034031
15050.0 0.0003429
15070.0 0.00034439
15090.0 0.00034522
15110.0 0.00034557
15130.0 0.00034563
15150.0 0.00034556
15170.0 0.0003454
15190.0 0.00034519
15210.0 0.000345
15230.0 0.00034482
15250.0 0.00034461
15270.0 0.00034441
15290.0 0.00034427
15310.0 0.0003441
15330.0 0.00034393
15350.0 0.00034379
15370.0 0.00034365
15390.0 0.00034348
15410.0 0.00034334
15430.0 0.00034323
15450.0 0.00034309
15470.0 0.00034294
15490.0 0.00034284
15510.0 0.00034273
15530.0 0.0003426
15550.0 0.00034249
15570.0 0.0003424
15590.0 0.00034227
15610.0 0.00034213
15630.0 0.00034204
15650.0 0.00034194
15670.0 0.00034181
15690.0 0.0003417
15710.0 0.00034162
15730.0 0.00034149
15750.0 0.00034137
15770.0 0.00034127
15790.0 0.00034116
15810.0 0.000341
15830.0 0.00034088
15850.0 0.00034078
15870.0 0.00034064
15890.0 0.00034049
15910.0 0.00034038
15930.0 0.00034024
15950.0 0.00034007
15970.0 0.00033992
15990.0 0.00033978
16010.0 0.0003396
16030.0 0.0003394
16050.0 0.00033926
16070.0 0.00033908
16090.0 0.00033887
16110.0 0.00033869
16130.0 0.00033851
16150.0 0.00033827
16170.0 0.00033803
16190.0 0.00033783
16210.0 0.0003376
16230.0 0.00033733
16250.0 0.00033709
16270.0 0.00033685
16290.0 0.00033656
16310.0 0.00033628
16330.0 0.00033601
16350.0 0.00033571
16370.0 0.00033536
16390.0 0.00033506
16410.0 0.00033475
16430.0 0.0003344
16450.0 0.00033405
16470.0 0.00033372
16490.0 0.00033334
16510.0 0.00033294
16530.0 0.00033256
16550.0 0.00033217
16570.0 0.00033173
16590.0 0.00033129
16610.0 0.00033088
16630.0 0.00033043
16650.0 0.00032995
16670.0 0.0003295
16690.0 0.00032904
16710.0 0.0003285
16730.0 0.00032799
16750.0 0.00032749
16770.0 0.00032695
16790.0 0.00032639
16810.0 0.00032585
16830.0 0.0003253
16850.0 0.0003247
16870.0 0.00032411
16890.0 0.00032353
16910.0 0.00032289
16930.0 0.00032223
16950.0 0.00032161
16970.0 0.00032097
16990.0 0.00032028
17010.0 0.0003196
17030.0 0.00031894
17050.0 0.00031822
17070.0 0.00031749
17090.0 0.00031678
17110.0 0.00031605
17130.0 0.00031526
17150.0 0.0003145
17170.0 0.00031375
17190.0 0.00031295
17210.0 0.00031214
17230.0 0.00031136
17250.0 0.00031053
17270.0 0.00030967
17290.0 0.00030883
17310.0 0.00030799
17330.0 0.0003071
17350.0 0.0003062
17370.0 0.00030534
17390.0 0.00030444
17410.0 0.0003035
17430.0 0.00030259
17450.0 0.00030168
17470.0 0.0003007
17490.0 0.00029973
17510.0 0.00029878
17530.0 0.0002978
17550.0 0.00029679
17570.0 0.00029581
17590.0 0.00029482
17610.0 0.00029378
17630.0 0.00029275
17650.0 0.00029174
17670.0 0.00029069
17690.0 0.00028959
17710.0 0.00028855
17730.0 0.00028749
17750.0 0.00028639
17770.0 0.0002853
17790.0 0.00028423
17810.0 0.00028311
17830.0 0.00028197
17850.0 0.00028086
17870.0 0.00027974
17890.0 0.00027858
17910.0 0.00027742
17930.0 0.0002763
17950.0 0.00027513
17970.0 0.00027395
17990.0 0.0002728
18010.0 0.00027163
18030.0 0.0002704
18050.0 0.00026921
18070.0 0.00026803
18090.0 0.00026682
18110.0 0.00026558
18130.0 0.00026439
18150.0 0.00026318
18170.0 0.00026193
18190.0 0.0002607
18210.0 0.00025949
18230.0 0.00025823
18250.0 0.00025695
18270.0 0.00025572
18290.0 0.00025448
18310.0 0.00025319
18330.0 0.00025194
18350.0 0.0002507
18370.0 0.00024941
18390.0 0.00024812
18410.0 0.00024686
18430.0 0.00024559
18450.0 0.00024427
18470.0 0.00024299
18490.0 0.00024172
18510.0 0.00024042
18530.0 0.00023911
18550.0 0.00023785
18570.0 0.00023655
18590.0 0.00023522
18610.0 0.00023392
18630.0 0.00023264
18650.0 0.00023132
18670.0 0.00022999
18690.0 0.00022872
18710.0 0.00022741
18730.0 0.00022608
18750.0 0.00022479
18770.0 0.0002235
18790.0 0.00022216
18810.0 0.00022084
18830.0 0.00021955
18850.0 0.00021824
18870.0 0.0002169
18890.0 0.00021561
18910.0 0.00021432
18930.0 0.00021299
18950.0 0.00021168
18970.0 0.00021039
18990.0 0.00020908
19010.0 0.00020774
19030.0 0.00020645
19050.0 0.00020517
19070.0 0.00020385
19090.0 0.00020254
19110.0 0.00020128
19130.0 0.00019996
19150.0 0.00019865
19170.0 0.00019737
19190.0 0.00019609
19210.0 0.00019477
19230.0 0.00019348
19250.0 0.00019222
19270.0 0.00019093
19290.0 0.00018964
19310.0 0.00018838
19330.0 0.00018712
19350.0 0.00018581
19370.0 0.00018454
19390.0 0.00018329
19410.0 0.00018202
19430.0 0.00018074
19450.0 0.0001795
19470.0 0.00017826
19490.0 0.00017698
19510.0 0.00017574
19530.0 0.00017452
19550.0 0.00017325
19570.0 0.00017199
19590.0 0.00017078
19610.0 0.00016955
19630.0 0.0001683
19650.0 0.00016709
19670.0 0.00016589
19690.0 0.00016466
19710.0 0.00016343
19730.0 0.00016224
19750.0 0.00016104
19770.0 0.0001598
19790.0 0.00015861
19810.0 0.00015744
19830.0 0.00015623
19850.0 0.00015503
19870.0 0.00015385
19890.0 0.00015262
19910.0 0.00015131
19930.0 0.00014996
19950.0 0.00014849
19970.0 0.00014679
19990.0 0.00014485
20010.0 0.00013821
20030.0 0.00013583
20050.0 0.00013313
20070.0 0.00013029
20090.0 0.00012729
20110.0 0.00012397
20130.0 0.00012067
20150.0 0.00011743
20170.0 0.00011412
20190.0 0.00011079
20210.0 0.00010768
20230.0 0.00010465
20250.0 0.00010164
20270.0 9.8845e-05
20290.0 9.6286e-05
20310.0 9.3848e-05
20330.0 9.1557e-05
20350.0 8.9624e-05
20370.0 8.7882e-05
20390.0 8.6325e-05
20410.0 8.5027e-05
20430.0 8.398e-05
20450.0 8.3107e-05
20470.0 8.2459e-05
20490.0 8.2029e-05
20510.0 8.1783e-05
20530.0 8.1718e-05
20550.0 8.1821e-05
20570.0 8.2056e-05
20590.0 8.2441e-05
20610.0 8.2952e-05
20630.0 8.3543e-05
20650.0 8.4232e-05
20670.0 8.5049e-05
20690.0 8.5893e-05
20710.0 8.6773e-05
20730.0 8.7732e-05
20750.0 8.8735e-05
20770.0 8.971e-05
20790.0 9.073e-05
20810.0 9.1801e-05
20830.0 9.2848e-05
20850.0 9.3883e-05
20870.0 9.4981e-05
20890.0 9.6083e-05
20910.0 9.7122e-05
20930.0 9.819e-05
20950.0 9.9288e-05
20970.0 0.00010034
20990.0 0.00010137
21010.0 0.00010245
21030.0 0.0001035
21050.0 0.00010449
21070.0 0.00010548
21090.0 0.00010648
21110.0 0.00010738
21130.0 0.00010823
21150.0 0.00010906
21170.0 0.00010982
21190.0 0.00011048
21210.0 0.00011109
21230.0 0.00011162
21250.0 0.00011202
21270.0 0.00011231
21290.0 0.00011248
21310.0 0.0001125
21330.0 0.00011236
21350.0 0.00011207
21370.0 0.0001116
21390.0 0.00011095
21410.0 0.00011012
21430.0 0.00010905
21450.0 0.00010781
21470.0 0.00010642
21490.0 0.00010482
21510.0 0.00010303
21530.0 0.00010118
21550.0 9.9204e-05
21570.0 9.7066e-05
21590.0 9.4921e-05
21610.0 9.2806e-05
21630.0 9.0649e-05
21650.0 8.8494e-05
21670.0 8.6567e-05
21690.0 8.4735e-05
21710.0 8.3018e-05
21730.0 8.1527e-05
21750.0 8.028e-05
21770.0 7.9204e-05
21790.0 7.8395e-05
21810.0 7.7861e-05
21830.0 7.7573e-05
21850.0 7.7545e-05
21870.0 7.7767e-05
21890.0 7.8201e-05
21910.0 7.8876e-05
21930.0 7.9758e-05
21950.0 8.0782e-05
21970.0 8.1977e-05
21990.0 8.3385e-05
22010.0 8.4839e-05
22030.0 8.636e-05
22050.0 8.8006e-05
22070.0 8.9706e-05
22090.0 9.1351e-05
22110.0 9.305e-05
22130.0 9.4788e-05
22150.0 9.6443e-05
22170.0 9.8032e-05
22190.0 9.9643e-05
22210.0 0.00010117
22230.0 0.00010253
22250.0 0.00010383
22270.0 0.00010505
22290.0 0.0001061
22310.0 0.00010701
22330.0 0.00010783
22350.0 0.00010847
22370.0 0.00010893
22390.0 0.00010924
22410.0 0.00010937
22430.0 0.0001093
22450.0 0.00010905
22470.0 0.0001086
22490.0 0.00010794
22510.0 0.00010712
22530.0 0.00010607
22550.0 0.00010478
22570.0 0.00010335
22590.0 0.00010174
22610.0 9.9884e-05
22630.0 9.7871e-05
22650.0 9.5783e-05
22670.0 9.3473e-05
22690.0 9.1001e-05
22710.0 8.8496e-05
22730.0 8.5907e-05
22750.0 8.3094e-05
22770.0 8.0332e-05
22790.0 7.7624e-05
22810.0 7.4835e-05
22830.0 7.2044e-05
22850.0 6.9421e-05
22870.0 6.6842e-05
22890.0 6.4272e-05
22910.0 6.1898e-05
22930.0 5.9717e-05
22950.0 5.7636e-05
22970.0 5.5707e-05
22990.0 5.4103e-05
