#lamb flux
1010.0 9.6026e-10
1030.0 1.2391e-09
1050.0 1.583e-09
1070.0 2.0003e-09
1090.0 2.5106e-09
1110.0 3.0872e-09
1130.0 3.7269e-09
1150.0 4.4527e-09
1170.0 5.261e-09
1190.0 6.1021e-09
1210.0 7.0024e-09
1230.0 7.9648e-09
1250.0 8.9411e-09
1270.0 9.9042e-09
1290.0 1.0888e-08
1310.0 1.1833e-08
1330.0 1.2684e-08
1350.0 1.3455e-08
1370.0 1.4143e-08
1390.0 1.4691e-08
1410.0 1.5086e-08
1430.0 1.5378e-08
1450.0 1.5536e-08
1470.0 1.5548e-08
1490.0 1.5457e-08
1510.0 1.5301e-08
1530.0 1.5035e-08
1550.0 1.4706e-08
1570.0 1.4358e-08
1590.0 1.3989e-08
1610.0 1.3595e-08
1630.0 1.3224e-08
1650.0 1.2882e-08
1670.0 1.2554e-08
1690.0 1.2258e-08
1710.0 1.2013e-08
1730.0 1.1809e-08
1750.0 1.1629e-08
1770.0 1.15e-08
1790.0 1.1418e-08
1810.0 1.1367e-08
1830.0 1.1349e-08
1850.0 1.1535e-08
1870.0 1.187e-08
1890.0 1.2186e-08
1910.0 1.2497e-08
1930.0 1.2806e-08
1950.0 1.3079e-08
1970.0 1.334e-08
1990.0 1.3613e-08
2010.0 1.3885e-08
2030.0 1.4149e-08
2050.0 1.4424e-08
2070.0 1.4683e-08
2090.0 1.4918e-08
2110.0 1.5146e-08
2130.0 1.5378e-08
2150.0 1.5601e-08
2170.0 1.5809e-08
2190.0 1.6023e-08
2210.0 1.6346e-08
2230.0 1.6796e-08
2250.0 1.7257e-08
2270.0 1.7741e-08
2290.0 1.8226e-08
2310.0 1.8708e-08
2330.0 1.9204e-08
2350.0 1.9708e-08
2370.0 2.0202e-08
2390.0 2.0699e-08
2410.0 2.1208e-08
2430.0 2.1707e-08
2450.0 2.2203e-08
2470.0 2.2721e-08
2490.0 2.3277e-08
2510.0 2.3874e-08
2530.0 2.4585e-08
2550.0 2.5503e-08
2570.0 2.6692e-08
2590.0 2.8238e-08
2610.0 3.0435e-08
2630.0 3.3368e-08
2650.0 3.6998e-08
2670.0 4.1539e-08
2690.0 4.712e-08
2710.0 5.3324e-08
2730.0 5.9919e-08
2750.0 6.7119e-08
2770.0 7.4288e-08
2790.0 8.0913e-08
2810.0 8.7065e-08
2830.0 9.2734e-08
2850.0 9.7316e-08
2870.0 1.012e-07
2890.0 1.0469e-07
2910.0 1.078e-07
2930.0 1.106e-07
2950.0 1.1342e-07
2970.0 1.163e-07
2990.0 1.1916e-07
3010.0 1.2211e-07
3030.0 1.2528e-07
3050.0 1.286e-07
3070.0 1.3193e-07
3090.0 1.3551e-07
3110.0 1.3936e-07
3130.0 1.4353e-07
3150.0 1.4749e-07
3170.0 1.5311e-07
3190.0 1.6067e-07
3210.0 1.7097e-07
3230.0 1.8547e-07
3250.0 2.0602e-07
3270.0 2.2854e-07
3290.0 2.594e-07
3310.0 3.1285e-07
3330.0 3.3192e-07
3350.0 3.4215e-07
3370.0 3.5219e-07
3390.0 3.6232e-07
3410.0 3.7216e-07
3430.0 3.8176e-07
3450.0 3.9126e-07
3470.0 4.0076e-07
3490.0 4.0935e-07
3510.0 4.1465e-07
3530.0 4.0825e-07
3550.0 3.9752e-07
3570.0 4.0736e-07
3590.0 4.4359e-07
3610.0 4.8741e-07
3630.0 5.1734e-07
3650.0 5.0125e-07
3670.0 4.5514e-07
3690.0 4.225e-07
3710.0 4.2108e-07
3730.0 4.3492e-07
3750.0 4.4313e-07
3770.0 4.5804e-07
3790.0 4.745e-07
3810.0 4.7284e-07
3830.0 4.3986e-07
3850.0 4.0678e-07
3870.0 3.9049e-07
3890.0 3.9052e-07
3910.0 3.8535e-07
3930.0 3.8118e-07
3950.0 3.934e-07
3970.0 4.076e-07
3990.0 4.0966e-07
4010.0 3.9761e-07
4030.0 3.7595e-07
4050.0 3.6104e-07
4070.0 3.4845e-07
4090.0 3.3979e-07
4110.0 3.2937e-07
4130.0 3.1054e-07
4150.0 2.9044e-07
4170.0 2.7844e-07
4190.0 2.6159e-07
4210.0 2.3624e-07
4230.0 2.1106e-07
4250.0 1.8626e-07
4270.0 1.6665e-07
4290.0 1.5458e-07
4310.0 1.4768e-07
4330.0 1.4727e-07
4350.0 1.5159e-07
4370.0 1.5298e-07
4390.0 1.6085e-07
4410.0 1.6611e-07
4430.0 1.6272e-07
4450.0 1.4682e-07
4470.0 1.3182e-07
4490.0 1.2474e-07
4510.0 1.195e-07
4530.0 1.1665e-07
4550.0 1.1396e-07
4570.0 1.1325e-07
4590.0 1.1485e-07
4610.0 1.1629e-07
4630.0 1.1711e-07
4650.0 1.1667e-07
4670.0 1.1388e-07
4690.0 1.0608e-07
4710.0 9.8872e-08
4730.0 9.3357e-08
4750.0 9.0134e-08
4770.0 9.1114e-08
4790.0 9.0694e-08
4810.0 8.8806e-08
4830.0 9.0009e-08
4850.0 9.2381e-08
4870.0 9.3605e-08
4890.0 9.2081e-08
4910.0 8.9021e-08
4930.0 8.3723e-08
4950.0 7.7407e-08
4970.0 7.2199e-08
4990.0 6.7923e-08
5010.0 6.7223e-08
5030.0 6.9429e-08
5050.0 7.1068e-08
5070.0 7.3787e-08
5090.0 7.8213e-08
5110.0 7.9273e-08
5130.0 8.0039e-08
5150.0 8.1282e-08
5170.0 8.2425e-08
5190.0 8.453e-08
5210.0 8.4861e-08
5230.0 8.4117e-08
5250.0 8.4441e-08
5270.0 8.5344e-08
5290.0 8.5446e-08
5310.0 8.4904e-08
5330.0 8.3182e-08
5350.0 8.2536e-08
5370.0 8.1542e-08
5390.0 8.018e-08
5410.0 7.9399e-08
5430.0 7.9033e-08
5450.0 8.0604e-08
5470.0 8.2118e-08
5490.0 8.5892e-08
5510.0 8.834e-08
5530.0 8.9519e-08
5550.0 9.0348e-08
5570.0 9.1525e-08
5590.0 9.1001e-08
5610.0 9.0465e-08
5630.0 9.0597e-08
5650.0 8.9706e-08
5670.0 8.7769e-08
5690.0 8.5717e-08
5710.0 8.4545e-08
5730.0 8.5928e-08
5750.0 8.248e-08
5770.0 7.8074e-08
5790.0 7.3325e-08
5810.0 6.5579e-08
5830.0 6.964e-08
5850.0 7.4885e-08
5870.0 7.5553e-08
5890.0 7.5863e-08
5910.0 7.7528e-08
5930.0 7.6979e-08
5950.0 7.6218e-08
5970.0 7.5424e-08
5990.0 7.4949e-08
6010.0 7.2479e-08
6030.0 7.0376e-08
6050.0 6.9192e-08
6070.0 6.7977e-08
6090.0 6.7566e-08
6110.0 6.575e-08
6130.0 6.3157e-08
6150.0 6.0856e-08
6170.0 5.8702e-08
6190.0 5.469e-08
6210.0 5.3031e-08
6230.0 5.2764e-08
6250.0 5.164e-08
6270.0 5.0576e-08
6290.0 5.0801e-08
6310.0 5.1263e-08
6330.0 5.0348e-08
6350.0 4.8647e-08
6370.0 4.8057e-08
6390.0 4.6319e-08
6410.0 4.5429e-08
6430.0 4.3867e-08
6450.0 4.3198e-08
6470.0 4.259e-08
6490.0 4.2153e-08
6510.0 4.0703e-08
6530.0 3.9924e-08
6550.0 3.9064e-08
6570.0 3.8052e-08
6590.0 3.847e-08
6610.0 3.83e-08
6630.0 3.72e-08
6650.0 3.5812e-08
6670.0 3.5211e-08
6690.0 3.4539e-08
6710.0 3.3552e-08
6730.0 3.3102e-08
6750.0 3.3358e-08
6770.0 3.4685e-08
6790.0 3.672e-08
6810.0 3.5295e-08
6830.0 3.2477e-08
6850.0 3.0792e-08
6870.0 3.0343e-08
6890.0 3.0279e-08
6910.0 3.0306e-08
6930.0 3.0188e-08
6950.0 3.043e-08
6970.0 2.9634e-08
6990.0 2.9371e-08
7010.0 2.974e-08
7030.0 3.0178e-08
7050.0 2.977e-08
7070.0 2.8652e-08
7090.0 2.8086e-08
7110.0 2.8827e-08
7130.0 2.8901e-08
7150.0 2.9174e-08
7170.0 2.931e-08
7190.0 2.9643e-08
7210.0 3.0302e-08
7230.0 3.1287e-08
7250.0 3.1619e-08
7270.0 3.2005e-08
7290.0 3.2801e-08
7310.0 3.2825e-08
7330.0 3.2443e-08
7350.0 3.1652e-08
7370.0 3.175e-08
7390.0 3.2322e-08
7410.0 3.1486e-08
7430.0 3.2022e-08
7450.0 3.2162e-08
7470.0 3.32e-08
7490.0 3.3171e-08
7510.0 3.2352e-08
7530.0 3.3078e-08
7550.0 3.2736e-08
7570.0 3.2771e-08
7590.0 3.1324e-08
7610.0 3.1907e-08
7630.0 3.3108e-08
7650.0 3.4239e-08
7670.0 3.3325e-08
7690.0 3.507e-08
7710.0 3.6051e-08
7730.0 3.667e-08
7750.0 3.8302e-08
7770.0 3.7871e-08
7790.0 3.7478e-08
7810.0 3.8912e-08
7830.0 4.0977e-08
7850.0 4.1006e-08
7870.0 4.2597e-08
7890.0 4.24e-08
7910.0 4.2129e-08
7930.0 4.2149e-08
7950.0 4.4297e-08
7970.0 4.4106e-08
7990.0 4.1188e-08
8010.0 2.9669e-08
8030.0 3.1135e-08
8050.0 3.2287e-08
8070.0 2.8256e-08
8090.0 1.4541e-08
8110.0 1.6294e-08
8130.0 2.7207e-08
8150.0 2.9245e-08
8170.0 3.0295e-08
8190.0 3.03e-08
8210.0 3.0657e-08
8230.0 3.4473e-08
8250.0 3.5763e-08
8270.0 3.2561e-08
8290.0 3.0653e-08
8310.0 3.0846e-08
8330.0 3.4191e-08
8350.0 3.5864e-08
8370.0 3.4518e-08
8390.0 3.275e-08
8410.0 3.2845e-08
8430.0 3.0489e-08
8450.0 3.2094e-08
8470.0 3.4971e-08
8490.0 3.5075e-08
8510.0 3.2615e-08
8530.0 2.9402e-08
8550.0 2.7788e-08
8570.0 2.6782e-08
8590.0 2.7513e-08
8610.0 3.0056e-08
8630.0 3.0333e-08
8650.0 3.095e-08
8670.0 2.9475e-08
8690.0 2.8835e-08
8710.0 2.5999e-08
8730.0 2.5382e-08
8750.0 2.7282e-08
8770.0 2.8065e-08
8790.0 2.6882e-08
8810.0 2.7825e-08
8830.0 2.8995e-08
8850.0 3.0068e-08
8870.0 2.7975e-08
8890.0 2.6876e-08
8910.0 2.6389e-08
8930.0 2.3595e-08
8950.0 2.3544e-08
8970.0 2.3947e-08
8990.0 2.2787e-08
9010.0 2.1481e-08
9030.0 2.0953e-08
9050.0 2.0748e-08
9070.0 2.0563e-08
9090.0 2.0377e-08
9110.0 2.0189e-08
9130.0 2.0001e-08
9150.0 1.9814e-08
9170.0 1.9625e-08
9190.0 1.9437e-08
9210.0 1.9248e-08
9230.0 1.9059e-08
9250.0 1.887e-08
9270.0 1.8682e-08
9290.0 1.8494e-08
9310.0 1.83e-08
9330.0 1.8093e-08
9350.0 1.7887e-08
9370.0 1.7682e-08
9390.0 1.748e-08
9410.0 1.7278e-08
9430.0 1.7078e-08
9450.0 1.688e-08
9470.0 1.6679e-08
9490.0 1.6483e-08
9510.0 1.6292e-08
9530.0 1.6103e-08
9550.0 1.5915e-08
9570.0 1.5728e-08
9590.0 1.5544e-08
9610.0 1.5347e-08
9630.0 1.5151e-08
9650.0 1.4957e-08
9670.0 1.4767e-08
9690.0 1.4579e-08
9710.0 1.4393e-08
9730.0 1.421e-08
9750.0 1.403e-08
9770.0 1.3851e-08
9790.0 1.3676e-08
9810.0 1.3504e-08
9830.0 1.3333e-08
9850.0 1.317e-08
9870.0 1.3015e-08
9890.0 1.2847e-08
9910.0 1.2683e-08
9930.0 1.2526e-08
9950.0 1.237e-08
9970.0 1.2216e-08
9990.0 1.2066e-08
10010.0 1.1918e-08
10030.0 1.1773e-08
10050.0 1.163e-08
10070.0 1.149e-08
10090.0 1.1353e-08
10110.0 1.1217e-08
10130.0 1.1084e-08
10150.0 1.0953e-08
10170.0 1.0825e-08
10190.0 1.0698e-08
10210.0 1.0574e-08
10230.0 1.0452e-08
10250.0 1.0332e-08
10270.0 1.0214e-08
10290.0 1.0098e-08
10310.0 9.9836e-09
10330.0 9.8713e-09
10350.0 9.7611e-09
10370.0 9.6528e-09
10390.0 9.5447e-09
10410.0 9.4196e-09
10430.0 9.2903e-09
10450.0 9.2113e-09
10470.0 9.1216e-09
10490.0 9.0312e-09
10510.0 8.94e-09
10530.0 8.8455e-09
10550.0 8.7527e-09
10570.0 8.6629e-09
10590.0 8.5725e-09
10610.0 8.4826e-09
10630.0 8.3962e-09
10650.0 8.3109e-09
10670.0 8.2244e-09
10690.0 8.1405e-09
10710.0 8.0593e-09
10730.0 7.9776e-09
10750.0 7.8954e-09
10770.0 7.8179e-09
10790.0 7.7409e-09
10810.0 7.6631e-09
10830.0 7.5875e-09
10850.0 7.5147e-09
10870.0 7.4397e-09
10890.0 7.3661e-09
10910.0 7.2958e-09
10930.0 7.2263e-09
10950.0 7.1566e-09
10970.0 7.0899e-09
10990.0 7.0269e-09
11010.0 1.3315e-08
11030.0 1.322e-08
11050.0 1.3122e-08
11070.0 1.302e-08
11090.0 1.2911e-08
11110.0 1.2804e-08
11130.0 1.2696e-08
11150.0 1.2583e-08
11170.0 1.2469e-08
11190.0 1.2358e-08
11210.0 1.2245e-08
11230.0 1.2129e-08
11250.0 1.2017e-08
11270.0 1.1907e-08
11290.0 1.1796e-08
11310.0 1.1687e-08
11330.0 1.1587e-08
11350.0 1.1488e-08
11370.0 1.1392e-08
11390.0 1.1302e-08
11410.0 1.1217e-08
11430.0 1.1132e-08
11450.0 1.1052e-08
11470.0 1.0976e-08
11490.0 1.0902e-08
11510.0 1.0827e-08
11530.0 1.0756e-08
11550.0 1.0685e-08
11570.0 1.0613e-08
11590.0 1.054e-08
11610.0 1.0468e-08
11630.0 1.0393e-08
11650.0 1.0316e-08
11670.0 1.0239e-08
11690.0 1.0162e-08
11710.0 1.0081e-08
11730.0 1e-08
11750.0 9.9208e-09
11770.0 9.8386e-09
11790.0 9.7553e-09
11810.0 9.6743e-09
11830.0 9.594e-09
11850.0 9.5111e-09
11870.0 9.4316e-09
11890.0 9.3559e-09
11910.0 9.2805e-09
11930.0 9.207e-09
11950.0 9.1387e-09
11970.0 9.0731e-09
11990.0 9.0087e-09
12010.0 8.9495e-09
12030.0 8.8949e-09
12050.0 8.8428e-09
12070.0 8.7939e-09
12090.0 8.7508e-09
12110.0 8.7106e-09
12130.0 8.673e-09
12150.0 8.6389e-09
12170.0 8.6079e-09
12190.0 8.5778e-09
12210.0 8.5494e-09
12230.0 8.5224e-09
12250.0 8.4954e-09
12270.0 8.4673e-09
12290.0 8.4383e-09
12310.0 8.4082e-09
12330.0 8.3747e-09
12350.0 8.3381e-09
12370.0 8.2993e-09
12390.0 8.2565e-09
12410.0 8.2078e-09
12430.0 8.1573e-09
12450.0 8.1036e-09
12470.0 8.0447e-09
12490.0 7.9822e-09
12510.0 7.9191e-09
12530.0 7.8516e-09
12550.0 7.7799e-09
12570.0 7.7082e-09
12590.0 7.6356e-09
12610.0 7.5588e-09
12630.0 7.4812e-09
12650.0 7.4071e-09
12670.0 7.331e-09
12690.0 7.254e-09
12710.0 7.1803e-09
12730.0 7.1086e-09
12750.0 7.0349e-09
12770.0 6.965e-09
12790.0 6.8993e-09
12810.0 6.8349e-09
12830.0 6.772e-09
12850.0 6.715e-09
12870.0 6.6614e-09
12890.0 6.6095e-09
12910.0 6.5621e-09
12930.0 6.5198e-09
12950.0 6.4801e-09
12970.0 6.4441e-09
12990.0 6.4139e-09
13010.0 6.3879e-09
13030.0 6.3654e-09
13050.0 6.3475e-09
13070.0 6.3337e-09
13090.0 6.3229e-09
13110.0 6.315e-09
13130.0 6.3095e-09
13150.0 6.3054e-09
13170.0 6.3021e-09
13190.0 6.2987e-09
13210.0 6.2946e-09
13230.0 6.2888e-09
13250.0 6.2808e-09
13270.0 6.2705e-09
13290.0 6.2572e-09
13310.0 6.2401e-09
13330.0 6.2198e-09
13350.0 6.1967e-09
13370.0 6.1693e-09
13390.0 6.1377e-09
13410.0 6.1047e-09
13430.0 6.0681e-09
13450.0 6.0274e-09
13470.0 5.9848e-09
13490.0 5.9409e-09
13510.0 5.8917e-09
13530.0 5.8409e-09
13550.0 5.7901e-09
13570.0 5.7371e-09
13590.0 5.681e-09
13610.0 5.6256e-09
13630.0 5.5707e-09
13650.0 5.5127e-09
13670.0 5.4545e-09
13690.0 5.398e-09
13710.0 5.3405e-09
13730.0 5.2801e-09
13750.0 5.2234e-09
13770.0 5.1677e-09
13790.0 5.1107e-09
13810.0 5.0549e-09
13830.0 5.0025e-09
13850.0 4.9494e-09
13870.0 4.8966e-09
13890.0 4.8471e-09
13910.0 4.7995e-09
13930.0 4.7515e-09
13950.0 4.7054e-09
13970.0 4.6634e-09
13990.0 4.6216e-09
14010.0 4.5809e-09
14030.0 4.5432e-09
14050.0 4.5075e-09
14070.0 4.4715e-09
14090.0 4.4383e-09
14110.0 4.4077e-09
14130.0 4.378e-09
14150.0 4.3492e-09
14170.0 4.3233e-09
14190.0 4.2988e-09
14210.0 4.2745e-09
14230.0 4.2517e-09
14250.0 4.2307e-09
14270.0 4.2094e-09
14290.0 4.1886e-09
14310.0 4.1695e-09
14330.0 4.1507e-09
14350.0 4.1319e-09
14370.0 4.1138e-09
14390.0 4.0969e-09
14410.0 4.0796e-09
14430.0 4.0626e-09
14450.0 4.0465e-09
14470.0 4.0308e-09
14490.0 4.0144e-09
14510.0 3.9989e-09
14530.0 3.9841e-09
14550.0 3.9687e-09
14570.0 3.9533e-09
14590.0 3.9386e-09
14610.0 3.9234e-09
14630.0 3.9075e-09
14650.0 3.8919e-09
14670.0 3.8765e-09
14690.0 3.8603e-09
14710.0 3.8435e-09
14730.0 3.8276e-09
14750.0 3.811e-09
14770.0 3.7935e-09
14790.0 3.7762e-09
14810.0 3.759e-09
14830.0 3.7401e-09
14850.0 3.721e-09
14870.0 3.7025e-09
14890.0 3.6833e-09
14910.0 3.6636e-09
14930.0 3.645e-09
14950.0 3.6275e-09
14970.0 3.6102e-09
14990.0 3.5947e-09
15010.0 3.5814e-09
15030.0 3.5695e-09
15050.0 3.5587e-09
15070.0 3.5499e-09
15090.0 3.5421e-09
15110.0 3.5346e-09
15130.0 3.5275e-09
15150.0 3.521e-09
15170.0 3.5143e-09
15190.0 3.5074e-09
15210.0 3.5009e-09
15230.0 3.4943e-09
15250.0 3.4874e-09
15270.0 3.4805e-09
15290.0 3.474e-09
15310.0 3.4672e-09
15330.0 3.4602e-09
15350.0 3.4535e-09
15370.0 3.4468e-09
15390.0 3.4396e-09
15410.0 3.4326e-09
15430.0 3.4258e-09
15450.0 3.4187e-09
15470.0 3.4114e-09
15490.0 3.4045e-09
15510.0 3.3975e-09
15530.0 3.3901e-09
15550.0 3.3829e-09
15570.0 3.3759e-09
15590.0 3.3684e-09
15610.0 3.3608e-09
15630.0 3.3536e-09
15650.0 3.3463e-09
15670.0 3.3387e-09
15690.0 3.3312e-09
15710.0 3.3239e-09
15730.0 3.3162e-09
15750.0 3.3084e-09
15770.0 3.3009e-09
15790.0 3.2933e-09
15810.0 3.2852e-09
15830.0 3.2775e-09
15850.0 3.2699e-09
15870.0 3.2619e-09
15890.0 3.2539e-09
15910.0 3.2462e-09
15930.0 3.2383e-09
15950.0 3.23e-09
15970.0 3.2219e-09
15990.0 3.214e-09
16010.0 3.2057e-09
16030.0 3.1973e-09
16050.0 3.1893e-09
16070.0 3.1811e-09
16090.0 3.1727e-09
16110.0 3.1644e-09
16130.0 3.1563e-09
16150.0 3.1475e-09
16170.0 3.139e-09
16190.0 3.1307e-09
16210.0 3.1222e-09
16230.0 3.1134e-09
16250.0 3.1049e-09
16270.0 3.0965e-09
16290.0 3.0876e-09
16310.0 3.0789e-09
16330.0 3.0703e-09
16350.0 3.0616e-09
16370.0 3.0524e-09
16390.0 3.0437e-09
16410.0 3.035e-09
16430.0 3.0259e-09
16450.0 3.017e-09
16470.0 3.0083e-09
16490.0 2.9992e-09
16510.0 2.99e-09
16530.0 2.9811e-09
16550.0 2.9721e-09
16570.0 2.9628e-09
16590.0 2.9536e-09
16610.0 2.9447e-09
16630.0 2.9355e-09
16650.0 2.9262e-09
16670.0 2.9171e-09
16690.0 2.908e-09
16710.0 2.8985e-09
16730.0 2.8892e-09
16750.0 2.88e-09
16770.0 2.8706e-09
16790.0 2.8611e-09
16810.0 2.8519e-09
16830.0 2.8427e-09
16850.0 2.8331e-09
16870.0 2.8237e-09
16890.0 2.8145e-09
16910.0 2.8049e-09
16930.0 2.7952e-09
16950.0 2.7859e-09
16970.0 2.7765e-09
16990.0 2.7668e-09
17010.0 2.7573e-09
17030.0 2.748e-09
17050.0 2.7383e-09
17070.0 2.7286e-09
17090.0 2.7192e-09
17110.0 2.7097e-09
17130.0 2.6998e-09
17150.0 2.6903e-09
17170.0 2.6809e-09
17190.0 2.6712e-09
17210.0 2.6615e-09
17230.0 2.6521e-09
17250.0 2.6425e-09
17270.0 2.6326e-09
17290.0 2.623e-09
17310.0 2.6135e-09
17330.0 2.6037e-09
17350.0 2.5939e-09
17370.0 2.5845e-09
17390.0 2.5749e-09
17410.0 2.565e-09
17430.0 2.5555e-09
17450.0 2.546e-09
17470.0 2.5361e-09
17490.0 2.5263e-09
17510.0 2.5168e-09
17530.0 2.5072e-09
17550.0 2.4973e-09
17570.0 2.4878e-09
17590.0 2.4783e-09
17610.0 2.4685e-09
17630.0 2.4588e-09
17650.0 2.4493e-09
17670.0 2.4397e-09
17690.0 2.4296e-09
17710.0 2.4202e-09
17730.0 2.4107e-09
17750.0 2.4009e-09
17770.0 2.3912e-09
17790.0 2.3819e-09
17810.0 2.3722e-09
17830.0 2.3624e-09
17850.0 2.3529e-09
17870.0 2.3434e-09
17890.0 2.3336e-09
17910.0 2.3239e-09
17930.0 2.3146e-09
17950.0 2.305e-09
17970.0 2.2953e-09
17990.0 2.2859e-09
18010.0 2.2765e-09
18030.0 2.2666e-09
18050.0 2.2571e-09
18070.0 2.2478e-09
18090.0 2.2382e-09
18110.0 2.2285e-09
18130.0 2.2192e-09
18150.0 2.2098e-09
18170.0 2.2002e-09
18190.0 2.1907e-09
18210.0 2.1815e-09
18230.0 2.1719e-09
18250.0 2.1622e-09
18270.0 2.153e-09
18290.0 2.1437e-09
18310.0 2.1341e-09
18330.0 2.1247e-09
18350.0 2.1156e-09
18370.0 2.1061e-09
18390.0 2.0966e-09
18410.0 2.0874e-09
18430.0 2.0782e-09
18450.0 2.0685e-09
18470.0 2.0593e-09
18490.0 2.0502e-09
18510.0 2.0408e-09
18530.0 2.0315e-09
18550.0 2.0224e-09
18570.0 2.0132e-09
18590.0 2.0037e-09
18610.0 1.9945e-09
18630.0 1.9855e-09
18650.0 1.9761e-09
18670.0 1.9668e-09
18690.0 1.9579e-09
18710.0 1.9487e-09
18730.0 1.9394e-09
18750.0 1.9304e-09
18770.0 1.9215e-09
18790.0 1.9121e-09
18810.0 1.9029e-09
18830.0 1.894e-09
18850.0 1.8849e-09
18870.0 1.8757e-09
18890.0 1.8668e-09
18910.0 1.8579e-09
18930.0 1.8487e-09
18950.0 1.8397e-09
18970.0 1.8309e-09
18990.0 1.8219e-09
19010.0 1.8125e-09
19030.0 1.8038e-09
19050.0 1.795e-09
19070.0 1.7859e-09
19090.0 1.7769e-09
19110.0 1.7683e-09
19130.0 1.7593e-09
19150.0 1.7502e-09
19170.0 1.7415e-09
19190.0 1.7327e-09
19210.0 1.7236e-09
19230.0 1.7147e-09
19250.0 1.7062e-09
19270.0 1.6973e-09
19290.0 1.6884e-09
19310.0 1.6798e-09
19330.0 1.6711e-09
19350.0 1.662e-09
19370.0 1.6533e-09
19390.0 1.6447e-09
19410.0 1.6359e-09
19430.0 1.627e-09
19450.0 1.6185e-09
19470.0 1.6099e-09
19490.0 1.601e-09
19510.0 1.5923e-09
19530.0 1.5839e-09
19550.0 1.575e-09
19570.0 1.5662e-09
19590.0 1.5577e-09
19610.0 1.5491e-09
19630.0 1.5404e-09
19650.0 1.5318e-09
19670.0 1.5234e-09
19690.0 1.5147e-09
19710.0 1.506e-09
19730.0 1.4976e-09
19750.0 1.489e-09
19770.0 1.4802e-09
19790.0 1.4717e-09
19810.0 1.4633e-09
19830.0 1.4547e-09
19850.0 1.4461e-09
19870.0 1.4379e-09
19890.0 1.4295e-09
19910.0 1.4211e-09
19930.0 1.4132e-09
19950.0 1.4058e-09
19970.0 1.3987e-09
19990.0 1.3923e-09
20010.0 1.387e-09
20030.0 1.3823e-09
20050.0 1.3783e-09
20070.0 1.3752e-09
20090.0 1.3726e-09
20110.0 1.3704e-09
20130.0 1.3685e-09
20150.0 1.3668e-09
20170.0 1.3651e-09
20190.0 1.3635e-09
20210.0 1.3619e-09
20230.0 1.3603e-09
20250.0 1.3586e-09
20270.0 1.3569e-09
20290.0 1.3551e-09
20310.0 1.3532e-09
20330.0 1.3511e-09
20350.0 1.349e-09
20370.0 1.3468e-09
20390.0 1.3444e-09
20410.0 1.342e-09
20430.0 1.3396e-09
20450.0 1.3369e-09
20470.0 1.3342e-09
20490.0 1.3315e-09
20510.0 1.3288e-09
20530.0 1.3261e-09
20550.0 1.3234e-09
20570.0 1.3208e-09
20590.0 1.3182e-09
20610.0 1.3156e-09
20630.0 1.3132e-09
20650.0 1.3108e-09
20670.0 1.3083e-09
20690.0 1.3059e-09
20710.0 1.3036e-09
20730.0 1.3011e-09
20750.0 1.2986e-09
20770.0 1.296e-09
20790.0 1.2932e-09
20810.0 1.2902e-09
20830.0 1.2871e-09
20850.0 1.2837e-09
20870.0 1.28e-09
20890.0 1.276e-09
20910.0 1.272e-09
20930.0 1.2677e-09
20950.0 1.263e-09
20970.0 1.2583e-09
20990.0 1.2535e-09
21010.0 1.2483e-09
21030.0 1.2431e-09
21050.0 1.238e-09
21070.0 1.2328e-09
21090.0 1.2274e-09
21110.0 1.2222e-09
21130.0 1.2171e-09
21150.0 1.2119e-09
21170.0 1.2068e-09
21190.0 1.2018e-09
21210.0 1.1967e-09
21230.0 1.1915e-09
21250.0 1.1865e-09
21270.0 1.1814e-09
21290.0 1.1761e-09
21310.0 1.1707e-09
21330.0 1.1654e-09
21350.0 1.1599e-09
21370.0 1.1541e-09
21390.0 1.1494e-09
21410.0 1.1446e-09
21430.0 1.1394e-09
21450.0 1.1343e-09
21470.0 1.1292e-09
21490.0 1.1238e-09
21510.0 1.1183e-09
21530.0 1.1129e-09
21550.0 1.1074e-09
21570.0 1.1016e-09
21590.0 1.096e-09
21610.0 1.0904e-09
21630.0 1.0846e-09
21650.0 1.0786e-09
21670.0 1.0731e-09
21690.0 1.0675e-09
21710.0 1.0617e-09
21730.0 1.0561e-09
21750.0 1.0507e-09
21770.0 1.045e-09
21790.0 1.0393e-09
21810.0 1.0339e-09
21830.0 1.0285e-09
21850.0 1.0228e-09
21870.0 1.0173e-09
21890.0 1.0121e-09
21910.0 1.0066e-09
21930.0 1.0011e-09
21950.0 9.9594e-10
21970.0 9.9071e-10
21990.0 9.8529e-10
22010.0 9.8025e-10
22030.0 9.754e-10
22050.0 9.7053e-10
22070.0 9.6551e-10
22090.0 9.6038e-10
22110.0 9.5531e-10
22130.0 9.5033e-10
22150.0 9.4571e-10
22170.0 9.4137e-10
22190.0 9.3705e-10
22210.0 9.3297e-10
22230.0 9.2929e-10
22250.0 9.2569e-10
22270.0 9.2218e-10
22290.0 9.1893e-10
22310.0 9.1583e-10
22330.0 9.1267e-10
22350.0 9.0964e-10
22370.0 9.0674e-10
22390.0 9.0381e-10
22410.0 9.008e-10
22430.0 8.9793e-10
22450.0 8.9505e-10
22470.0 8.9204e-10
22490.0 8.8904e-10
22510.0 8.861e-10
22530.0 8.8302e-10
22550.0 8.7985e-10
22570.0 8.768e-10
22590.0 8.7375e-10
22610.0 8.706e-10
22630.0 8.6752e-10
