#lamb flux
1010.0 4.0735e-07
1030.0 4.4852e-07
1050.0 4.9588e-07
1070.0 5.4919e-07
1090.0 6.0974e-07
1110.0 6.7184e-07
1130.0 7.3435e-07
1150.0 7.9982e-07
1170.0 8.6736e-07
1190.0 9.314e-07
1210.0 9.9631e-07
1230.0 1.0634e-06
1250.0 1.1291e-06
1270.0 1.1929e-06
1290.0 1.2603e-06
1310.0 1.3277e-06
1330.0 1.3924e-06
1350.0 1.4577e-06
1370.0 1.5252e-06
1390.0 1.5909e-06
1410.0 1.6548e-06
1430.0 1.7215e-06
1450.0 1.7882e-06
1470.0 1.8527e-06
1490.0 1.9179e-06
1510.0 1.9867e-06
1530.0 2.052e-06
1550.0 2.1163e-06
1570.0 2.1829e-06
1590.0 2.2496e-06
1610.0 2.3133e-06
1630.0 2.379e-06
1650.0 2.4465e-06
1670.0 2.5117e-06
1690.0 2.5762e-06
1710.0 2.6431e-06
1730.0 2.7105e-06
1750.0 2.7738e-06
1770.0 2.8391e-06
1790.0 2.9057e-06
1810.0 2.9703e-06
1830.0 3.0337e-06
1850.0 3.1011e-06
1870.0 3.1668e-06
1890.0 3.2303e-06
1910.0 3.2951e-06
1930.0 3.3616e-06
1950.0 3.4251e-06
1970.0 3.4878e-06
1990.0 3.5529e-06
2010.0 3.617e-06
2030.0 3.6787e-06
2050.0 3.7424e-06
2070.0 3.8076e-06
2090.0 3.8691e-06
2110.0 3.9303e-06
2130.0 3.9933e-06
2150.0 4.0549e-06
2170.0 4.1137e-06
2190.0 4.1747e-06
2210.0 4.2358e-06
2230.0 4.2942e-06
2250.0 4.3521e-06
2270.0 4.4125e-06
2290.0 4.4707e-06
2310.0 4.5262e-06
2330.0 4.5837e-06
2350.0 4.6426e-06
2370.0 4.701e-06
2390.0 4.7645e-06
2410.0 4.8408e-06
2430.0 4.9297e-06
2450.0 5.0372e-06
2470.0 5.1771e-06
2490.0 5.3554e-06
2510.0 5.559e-06
2530.0 5.8056e-06
2550.0 6.1158e-06
2570.0 6.5023e-06
2590.0 7.0049e-06
2610.0 7.7571e-06
2630.0 8.8276e-06
2650.0 1.0221e-05
2670.0 1.2017e-05
2690.0 1.4215e-05
2710.0 1.6549e-05
2730.0 1.8843e-05
2750.0 2.1091e-05
2770.0 2.303e-05
2790.0 2.4553e-05
2810.0 2.5744e-05
2830.0 2.6658e-05
2850.0 2.7261e-05
2870.0 2.7686e-05
2890.0 2.8009e-05
2910.0 2.8255e-05
2930.0 2.8446e-05
2950.0 2.8626e-05
2970.0 2.8802e-05
2990.0 2.8965e-05
3010.0 0.00084686
3030.0 0.00085152
3050.0 0.000856
3070.0 0.00085968
3090.0 0.00086268
3110.0 0.00086403
3130.0 0.00086256
3150.0 0.00085744
3170.0 0.00084699
3190.0 0.00083136
3210.0 0.00081193
3230.0 0.00078986
3250.0 0.00076779
3270.0 0.00075155
3290.0 0.00074159
3310.0 0.0007419
3330.0 0.00075141
3350.0 0.00076896
3370.0 0.00079455
3390.0 0.00082711
3410.0 0.00086272
3430.0 0.00090282
3450.0 0.00094907
3470.0 0.00099968
3490.0 0.0010534
3510.0 0.0011143
3530.0 0.0011798
3550.0 0.0012467
3570.0 0.0013174
3590.0 0.0013945
3610.0 0.0014753
3630.0 0.0015556
3650.0 0.0016392
3670.0 0.0017152
3690.0 0.0017718
3710.0 0.0018033
3730.0 0.0018002
3750.0 0.0017669
3770.0 0.0017705
3790.0 0.0017582
3810.0 0.0016448
3830.0 0.0016832
3850.0 0.0019929
3870.0 0.0020911
3890.0 0.0019757
3910.0 0.0019463
3930.0 0.0020556
3950.0 0.0021592
3970.0 0.0020492
3990.0 0.0016542
4010.0 0.0046586
4030.0 0.0055044
4050.0 0.0063027
4070.0 0.0056668
4090.0 0.0051614
4110.0 0.0045011
4130.0 0.0043474
4150.0 0.0048859
4170.0 0.0045754
4190.0 0.0047103
4210.0 0.0047843
4230.0 0.00522
4250.0 0.0062126
4270.0 0.0063921
4290.0 0.0058146
4310.0 0.0058922
4330.0 0.0061623
4350.0 0.0070969
4370.0 0.0082064
4390.0 0.0074196
4410.0 0.0051789
4430.0 0.0042642
4450.0 0.0039394
4470.0 0.0028975
4490.0 0.0033655
4510.0 0.0055652
4530.0 0.0065167
4550.0 0.0064225
4570.0 0.0068579
4590.0 0.0076972
4610.0 0.01135
4630.0 0.015084
4650.0 0.015814
4670.0 0.014452
4690.0 0.013965
4710.0 0.014704
4730.0 0.013476
4750.0 0.0098016
4770.0 0.0070615
4790.0 0.0068196
4810.0 0.0066626
4830.0 0.0062125
4850.0 0.0067893
4870.0 0.0089746
4890.0 0.010532
4910.0 0.0090001
4930.0 0.0081507
4950.0 0.009061
4970.0 0.011707
4990.0 0.015858
5010.0 0.0183
5030.0 0.015777
5050.0 0.01046
5070.0 0.0070086
5090.0 0.0055518
5110.0 0.0055857
5130.0 0.0065214
5150.0 0.0069091
5170.0 0.0067378
5190.0 0.0062243
5210.0 0.0066082
5230.0 0.0072013
5250.0 0.0079073
5270.0 0.0082299
5290.0 0.0090531
5310.0 0.010891
5330.0 0.011998
5350.0 0.0119
5370.0 0.012685
5390.0 0.014871
5410.0 0.014328
5430.0 0.012308
5450.0 0.01154
5470.0 0.012495
5490.0 0.015329
5510.0 0.019018
5530.0 0.021879
5550.0 0.020826
5570.0 0.018884
5590.0 0.016215
5610.0 0.01527
5630.0 0.015357
5650.0 0.014474
5670.0 0.013603
5690.0 0.011867
5710.0 0.011722
5730.0 0.010933
5750.0 0.0072874
5770.0 0.0055704
5790.0 0.0064236
5810.0 0.0071339
5830.0 0.0092265
5850.0 0.01125
5870.0 0.012408
5890.0 0.012443
5910.0 0.012193
5930.0 0.01162
5950.0 0.011868
5970.0 0.013824
5990.0 0.012584
6010.0 0.010356
6030.0 0.0086904
6050.0 0.0076109
6070.0 0.0078874
6090.0 0.0086171
6110.0 0.0094222
6130.0 0.0093753
6150.0 0.0079102
6170.0 0.0067525
6190.0 0.0076949
6210.0 0.010591
6230.0 0.014336
6250.0 0.01554
6270.0 0.013156
6290.0 0.011119
6310.0 0.008633
6330.0 0.0065384
6350.0 0.0059626
6370.0 0.0062672
6390.0 0.0072939
6410.0 0.0091134
6430.0 0.010724
6450.0 0.012488
6470.0 0.013985
6490.0 0.01684
6510.0 0.01884
6530.0 0.018705
6550.0 0.01699
6570.0 0.014165
6590.0 0.012921
6610.0 0.011025
6630.0 0.010364
6650.0 0.0098893
6670.0 0.0093066
6690.0 0.0080626
6710.0 0.0074658
6730.0 0.0047926
6750.0 0.0050685
6770.0 0.0060806
6790.0 0.0072944
6810.0 0.0061846
6830.0 0.0063528
6850.0 0.0057564
6870.0 0.005281
6890.0 0.0049141
6910.0 0.0054235
6930.0 0.0050894
6950.0 0.0054485
6970.0 0.0057237
6990.0 0.0064587
7010.0 0.0064208
7030.0 0.0067679
7050.0 0.0062842
7070.0 0.0057734
7090.0 0.0059017
7110.0 0.00614
7130.0 0.0067396
7150.0 0.0072879
7170.0 0.0080859
7190.0 0.0088342
7210.0 0.0084536
7230.0 0.0086584
7250.0 0.0092837
7270.0 0.010053
7290.0 0.012077
7310.0 0.013046
7330.0 0.012531
7350.0 0.01131
7370.0 0.0094538
7390.0 0.0092931
7410.0 0.010234
7430.0 0.011458
7450.0 0.012445
7470.0 0.012047
7490.0 0.010561
7510.0 0.013139
7530.0 0.012721
7550.0 0.011626
7570.0 0.0087448
7590.0 0.0054451
7610.0 0.0045141
7630.0 0.0054142
7650.0 0.0065867
7670.0 0.0087245
7690.0 0.009623
7710.0 0.0096632
7730.0 0.010027
7750.0 0.011725
7770.0 0.011955
7790.0 0.010961
7810.0 0.0096783
7830.0 0.010117
7850.0 0.010168
7870.0 0.0094969
7890.0 0.00781
7910.0 0.006045
7930.0 0.0059024
7950.0 0.0053689
7970.0 0.0048526
7990.0 0.0047199
8010.0 0.00089662
8030.0 0.00082049
8050.0 0.00087643
8070.0 0.00099611
8090.0 0.0012264
8110.0 0.001165
8130.0 0.00069366
8150.0 0.00073164
8170.0 0.00041285
8190.0 0.0002549
8210.0 0.00067971
8230.0 0.0008222
8250.0 0.00035627
8270.0 0.00027952
8290.0 0.00051569
8310.0 0.00045908
8330.0 0.00028838
8350.0 0.00022454
8370.0 5.3313e-05
8390.0 0.00024478
8410.0 0.00027812
8430.0 0.00034324
8450.0 0.00039229
8470.0 0.00064514
8490.0 0.00054282
8510.0 0.00043235
8530.0 0.0002591
8550.0 0.00076204
8570.0 0.0011314
8590.0 0.00083429
8610.0 0.0012291
8630.0 0.001369
8650.0 0.00086337
8670.0 0.001178
8690.0 0.0016764
8710.0 0.0014397
8730.0 0.0015067
8750.0 0.001197
8770.0 0.0010716
8790.0 0.0011628
8810.0 0.0012422
8830.0 0.00072211
8850.0 0.00033029
8870.0 0.00023089
8890.0 0.00050616
8910.0 0.00078584
8930.0 0.0010388
8950.0 0.0011304
8970.0 0.0010873
8990.0 0.00080378
9010.0 0.0022777
9030.0 0.0019203
9050.0 0.0019494
9070.0 0.001985
9090.0 0.0020149
9110.0 0.0020519
9130.0 0.002079
9150.0 0.0020989
9170.0 0.00212
9190.0 0.0021426
9210.0 0.0021663
9230.0 0.0021914
9250.0 0.0022166
9270.0 0.0022428
9290.0 0.0022696
9310.0 0.0022964
9330.0 0.0023236
9350.0 0.0023518
9370.0 0.0023801
9390.0 0.0024085
9410.0 0.0024377
9430.0 0.0024677
9450.0 0.0024973
9470.0 0.0025275
9490.0 0.0025586
9510.0 0.0025898
9530.0 0.0026211
9550.0 0.0026535
9570.0 0.0026864
9590.0 0.0027192
9610.0 0.0027525
9630.0 0.0027868
9650.0 0.0028212
9670.0 0.0028556
9690.0 0.0028909
9710.0 0.0029268
9730.0 0.0029625
9750.0 0.0029988
9770.0 0.0030364
9790.0 0.0030736
9810.0 0.003111
9830.0 0.0031493
9850.0 0.0031881
9870.0 0.0032265
9890.0 0.0032656
9910.0 0.0033056
9930.0 0.0033454
9950.0 0.0033854
9970.0 0.0034263
9990.0 0.0034676
10010.0 0.0030276
10030.0 0.0030634
10050.0 0.0030997
10070.0 0.0031363
10090.0 0.0031722
10110.0 0.003209
10130.0 0.0032459
10150.0 0.0032824
10170.0 0.0033194
10190.0 0.003357
10210.0 0.0033941
10230.0 0.0034311
10250.0 0.0034687
10270.0 0.0035063
10290.0 0.0035433
10310.0 0.0035809
10330.0 0.0036189
10350.0 0.0036561
10370.0 0.0036933
10390.0 0.0037309
10410.0 0.0037683
10430.0 0.0038049
10450.0 0.0038419
10470.0 0.0038791
10490.0 0.0039155
10510.0 0.0039517
10530.0 0.0039885
10550.0 0.0040247
10570.0 0.00406
10590.0 0.0040956
10610.0 0.0041311
10630.0 0.0041656
10650.0 0.0041999
10670.0 0.0042346
10690.0 0.0042685
10710.0 0.0043016
10730.0 0.0043348
10750.0 0.0043681
10770.0 0.0043998
10790.0 0.0044313
10810.0 0.0044628
10830.0 0.0044933
10850.0 0.0045223
10870.0 0.0045506
10890.0 0.004576
10910.0 0.0045964
10930.0 0.0046099
10950.0 0.0046126
10970.0 0.0046007
10990.0 0.0045729
11010.0 0.0042671
11030.0 0.0042
11050.0 0.0041173
11070.0 0.0040181
11090.0 0.0038986
11110.0 0.0037749
11130.0 0.0036459
11150.0 0.0035072
11170.0 0.0033645
11190.0 0.0032262
11210.0 0.0030837
11230.0 0.0029378
11250.0 0.0027986
11270.0 0.0026651
11290.0 0.0025315
11310.0 0.0024051
11330.0 0.0022936
11350.0 0.0021883
11370.0 0.0020908
11390.0 0.0020062
11410.0 0.001932
11430.0 0.0018627
11450.0 0.0018027
11470.0 0.0017504
11490.0 0.0017015
11510.0 0.0016543
11530.0 0.0016103
11550.0 0.0015666
11570.0 0.0015201
11590.0 0.0014721
11610.0 0.0014235
11630.0 0.0013708
11650.0 0.0013146
11670.0 0.0012594
11690.0 0.0012035
11710.0 0.001146
11730.0 0.0010902
11750.0 0.0010386
11770.0 0.00098799
11790.0 0.00094048
11810.0 0.00089851
11830.0 0.00086083
11850.0 0.00082599
11870.0 0.00079664
11890.0 0.00077202
11910.0 0.00075023
11930.0 0.00073133
11950.0 0.00071542
11970.0 0.00070111
11990.0 0.00068755
12010.0 0.00067498
12030.0 0.00066289
12050.0 0.00065048
12070.0 0.00063765
12090.0 0.00062531
12110.0 0.00061281
12130.0 0.0006003
12150.0 0.00058869
12170.0 0.00057841
12190.0 0.00056933
12210.0 0.00056262
12230.0 0.00055875
12250.0 0.00055792
12270.0 0.00056084
12290.0 0.00056749
12310.0 0.00057759
12330.0 0.00059218
12350.0 0.00061069
12370.0 0.00063195
12390.0 0.00065664
12410.0 0.00068573
12430.0 0.00071535
12450.0 0.00074605
12470.0 0.00077876
12490.0 0.00081161
12510.0 0.00084238
12530.0 0.00087299
12550.0 0.0009025
12570.0 0.00092846
12590.0 0.00095117
12610.0 0.00097134
12630.0 0.00098729
12650.0 0.00099808
12670.0 0.001005
12690.0 0.0010074
12710.0 0.0010051
12730.0 0.00099859
12750.0 0.00098757
12770.0 0.00097268
12790.0 0.00095477
12810.0 0.00093352
12830.0 0.00090906
12850.0 0.00088353
12870.0 0.0008566
12890.0 0.00082756
12910.0 0.0007981
12930.0 0.00076911
12950.0 0.00073894
12970.0 0.00070829
12990.0 0.00067933
13010.0 0.00065076
13030.0 0.00062193
13050.0 0.00059425
13070.0 0.00056832
13090.0 0.00054232
13110.0 0.00051715
13130.0 0.00049393
13150.0 0.00047191
13170.0 0.00045033
13190.0 0.00043107
13210.0 0.00041405
13230.0 0.00039843
13250.0 0.00038488
13270.0 0.00037408
13290.0 0.00036554
13310.0 0.00035946
13330.0 0.00035638
13350.0 0.00035609
13370.0 0.00035874
13390.0 0.00036453
13410.0 0.00037259
13430.0 0.00038327
13450.0 0.00039662
13470.0 0.00041155
13490.0 0.00042747
13510.0 0.00044553
13530.0 0.00046394
13550.0 0.00048163
13570.0 0.00049915
13590.0 0.00051632
13610.0 0.00053165
13630.0 0.0005451
13650.0 0.00055745
13670.0 0.00056777
13690.0 0.00057581
13710.0 0.00058209
13730.0 0.00058667
13750.0 0.00058905
13770.0 0.00058975
13790.0 0.00058887
13810.0 0.0005864
13830.0 0.00058265
13850.0 0.0005775
13870.0 0.00057095
13890.0 0.00056344
13910.0 0.00055494
13930.0 0.0005451
13950.0 0.00053435
13970.0 0.00052335
13990.0 0.00051137
14010.0 0.00049865
14030.0 0.00048596
14050.0 0.00047317
14070.0 0.00045968
14090.0 0.00044675
14110.0 0.0004346
14130.0 0.00042282
14150.0 0.00041172
14170.0 0.00040223
14190.0 0.00039401
14210.0 0.00038701
14230.0 0.00038179
14250.0 0.00037838
14270.0 0.00037665
14290.0 0.00037687
14310.0 0.00037887
14330.0 0.00038254
14350.0 0.00038802
14370.0 0.00039489
14390.0 0.00040273
14410.0 0.000412
14430.0 0.00042222
14450.0 0.0004327
14470.0 0.0004436
14490.0 0.00045524
14510.0 0.00046641
14530.0 0.00047705
14550.0 0.00048772
14570.0 0.00049799
14590.0 0.00050735
14610.0 0.00051642
14630.0 0.0005254
14650.0 0.00053377
14670.0 0.00054184
14690.0 0.00055024
14710.0 0.00055905
14730.0 0.00056785
14750.0 0.00057759
14770.0 0.00058862
14790.0 0.00060058
14810.0 0.00061356
14830.0 0.00062893
14850.0 0.00064566
14870.0 0.00066314
14890.0 0.00068202
14910.0 0.0007021
14930.0 0.00072145
14950.0 0.00073956
14970.0 0.00075674
14990.0 0.00077121
15010.0 0.00078233
15030.0 0.00079064
15050.0 0.00079623
15070.0 0.00079909
15090.0 0.00080027
15110.0 0.00080027
15130.0 0.00079951
15150.0 0.00079841
15170.0 0.00079707
15190.0 0.0007956
15210.0 0.00079417
15230.0 0.00079274
15250.0 0.00079124
15270.0 0.00078978
15290.0 0.0007884
15310.0 0.00078698
15330.0 0.00078554
15350.0 0.00078418
15370.0 0.00078282
15390.0 0.00078139
15410.0 0.00078001
15430.0 0.00077868
15450.0 0.00077732
15470.0 0.00077593
15490.0 0.00077463
15510.0 0.00077333
15530.0 0.00077197
15550.0 0.00077066
15570.0 0.00076939
15590.0 0.00076806
15610.0 0.00076671
15630.0 0.00076545
15650.0 0.00076418
15670.0 0.00076286
15690.0 0.00076158
15710.0 0.00076036
15730.0 0.00075906
15750.0 0.00075777
15770.0 0.00075653
15790.0 0.00075529
15810.0 0.00075396
15830.0 0.00075271
15850.0 0.00075149
15870.0 0.00075022
15890.0 0.00074895
15910.0 0.00074774
15930.0 0.0007465
15950.0 0.0007452
15970.0 0.00074395
15990.0 0.00074273
16010.0 0.00074146
16030.0 0.00074016
16050.0 0.00073896
16070.0 0.00073772
16090.0 0.00073643
16110.0 0.00073519
16130.0 0.00073398
16150.0 0.00073266
16170.0 0.00073137
16190.0 0.00073014
16210.0 0.00072888
16230.0 0.00072756
16250.0 0.00072631
16270.0 0.00072507
16290.0 0.00072376
16310.0 0.00072246
16330.0 0.00072121
16350.0 0.00071992
16370.0 0.00071854
16390.0 0.00071727
16410.0 0.00071599
16430.0 0.00071465
16450.0 0.00071332
16470.0 0.00071206
16490.0 0.00071071
16510.0 0.00070933
16530.0 0.00070802
16550.0 0.0007067
16570.0 0.00070529
16590.0 0.00070391
16610.0 0.0007026
16630.0 0.00070123
16650.0 0.00069982
16670.0 0.00069847
16690.0 0.00069711
16710.0 0.00069564
16730.0 0.00069423
16750.0 0.00069286
16770.0 0.00069143
16790.0 0.00068995
16810.0 0.00068856
16830.0 0.00068714
16850.0 0.00068566
16870.0 0.0006842
16890.0 0.00068278
16910.0 0.00068128
16930.0 0.00067974
16950.0 0.00067829
16970.0 0.00067681
16990.0 0.00067527
17010.0 0.00067376
17030.0 0.0006723
17050.0 0.00067074
17070.0 0.00066917
17090.0 0.00066766
17110.0 0.00066612
17130.0 0.00066449
17150.0 0.00066293
17170.0 0.00066139
17190.0 0.00065979
17210.0 0.00065817
17230.0 0.00065662
17250.0 0.00065501
17270.0 0.00065333
17290.0 0.00065172
17310.0 0.00065011
17330.0 0.00064844
17350.0 0.00064674
17370.0 0.00064514
17390.0 0.00064348
17410.0 0.00064177
17430.0 0.0006401
17450.0 0.00063846
17470.0 0.00063669
17490.0 0.00063496
17510.0 0.00063329
17530.0 0.00063156
17550.0 0.00062978
17570.0 0.00062807
17590.0 0.00062637
17610.0 0.00062457
17630.0 0.0006228
17650.0 0.00062107
17670.0 0.00061929
17690.0 0.00061743
17710.0 0.00061567
17730.0 0.00061391
17750.0 0.00061207
17770.0 0.00061025
17790.0 0.00060849
17810.0 0.00060664
17830.0 0.00060477
17850.0 0.00060295
17870.0 0.00060113
17890.0 0.00059923
17910.0 0.00059735
17930.0 0.00059554
17950.0 0.00059366
17970.0 0.00059176
17990.0 0.00058991
18010.0 0.00058806
18030.0 0.00058609
18050.0 0.00058419
18070.0 0.00058232
18090.0 0.0005804
18110.0 0.00057844
18130.0 0.00057656
18150.0 0.00057466
18170.0 0.00057269
18190.0 0.00057076
18210.0 0.00056887
18230.0 0.00056688
18250.0 0.00056488
18270.0 0.00056297
18290.0 0.00056103
18310.0 0.00055903
18330.0 0.00055707
18350.0 0.00055516
18370.0 0.00055315
18390.0 0.00055114
18410.0 0.0005492
18430.0 0.00054722
18450.0 0.00054516
18470.0 0.00054319
18490.0 0.00054124
18510.0 0.00053922
18530.0 0.0005372
18550.0 0.00053525
18570.0 0.00053324
18590.0 0.00053117
18610.0 0.00052918
18630.0 0.00052719
18650.0 0.00052514
18670.0 0.00052309
18690.0 0.00052113
18710.0 0.00051911
18730.0 0.00051705
18750.0 0.00051505
18770.0 0.00051306
18790.0 0.00051096
18810.0 0.00050891
18830.0 0.00050693
18850.0 0.00050489
18870.0 0.00050281
18890.0 0.00050081
18910.0 0.00049881
18930.0 0.00049673
18950.0 0.00049468
18970.0 0.00049268
18990.0 0.00049064
19010.0 0.00048851
19030.0 0.00048652
19050.0 0.0004845
19070.0 0.00048243
19090.0 0.00048038
19110.0 0.0004784
19130.0 0.00047633
19150.0 0.00047425
19170.0 0.00047223
19190.0 0.00047021
19210.0 0.00046812
19230.0 0.00046606
19250.0 0.00046408
19270.0 0.00046202
19290.0 0.00045996
19310.0 0.00045796
19330.0 0.00045594
19350.0 0.00045383
19370.0 0.0004518
19390.0 0.0004498
19410.0 0.00044774
19430.0 0.00044567
19450.0 0.00044368
19470.0 0.00044167
19490.0 0.0004396
19510.0 0.00043758
19530.0 0.00043559
19550.0 0.00043352
19570.0 0.00043145
19590.0 0.00042947
19610.0 0.00042746
19630.0 0.0004254
19650.0 0.00042339
19670.0 0.00042143
19690.0 0.00041937
19710.0 0.00041733
19730.0 0.00041535
19750.0 0.00041335
19770.0 0.00041127
19790.0 0.00040928
19810.0 0.00040731
19830.0 0.00040527
19850.0 0.00040323
19870.0 0.00040122
19890.0 0.00039908
19910.0 0.00039673
19930.0 0.00039424
19950.0 0.00039141
19970.0 0.00038797
19990.0 0.00038385
20010.0 0.00034337
20030.0 0.00033829
20050.0 0.00033237
20070.0 0.00032598
20090.0 0.00031912
20110.0 0.00031138
20130.0 0.00030356
20150.0 0.00029582
20170.0 0.0002878
20190.0 0.00027969
20210.0 0.00027203
20230.0 0.00026456
20250.0 0.00025708
20270.0 0.00025014
20290.0 0.0002438
20310.0 0.00023777
20330.0 0.00023214
20350.0 0.00022745
20370.0 0.00022327
20390.0 0.0002196
20410.0 0.00021662
20430.0 0.00021431
20450.0 0.00021245
20470.0 0.00021119
20490.0 0.00021047
20510.0 0.00021021
20530.0 0.0002104
20550.0 0.00021099
20570.0 0.00021187
20590.0 0.0002131
20610.0 0.00021461
20630.0 0.00021628
20650.0 0.00021816
20670.0 0.00022032
20690.0 0.00022253
20710.0 0.00022482
20730.0 0.00022729
20750.0 0.00022987
20770.0 0.00023241
20790.0 0.00023508
20810.0 0.00023789
20830.0 0.00024069
20850.0 0.00024349
20870.0 0.00024649
20890.0 0.00024953
20910.0 0.00025247
20930.0 0.00025551
20950.0 0.00025865
20970.0 0.00026171
20990.0 0.00026472
21010.0 0.00026789
21030.0 0.00027098
21050.0 0.00027392
21070.0 0.00027686
21090.0 0.0002798
21110.0 0.00028248
21130.0 0.00028499
21150.0 0.00028743
21170.0 0.00028962
21190.0 0.00029151
21210.0 0.0002932
21230.0 0.0002946
21250.0 0.0002956
21270.0 0.00029621
21290.0 0.00029642
21310.0 0.00029616
21330.0 0.00029543
21350.0 0.00029419
21370.0 0.00029238
21390.0 0.00029008
21410.0 0.00028727
21430.0 0.00028373
21450.0 0.00027975
21470.0 0.00027541
21490.0 0.00027052
21510.0 0.00026515
21530.0 0.00025969
21550.0 0.00025398
21570.0 0.00024789
21590.0 0.00024189
21610.0 0.0002361
21630.0 0.00023031
21650.0 0.00022464
21670.0 0.00021973
21690.0 0.0002152
21710.0 0.00021111
21730.0 0.00020776
21750.0 0.00020516
21770.0 0.00020317
21790.0 0.00020201
21810.0 0.00020166
21830.0 0.00020205
21850.0 0.00020326
21870.0 0.00020516
21890.0 0.00020762
21910.0 0.0002108
21930.0 0.00021453
21950.0 0.00021858
21970.0 0.00022306
21990.0 0.00022811
22010.0 0.00023315
22030.0 0.00023827
22050.0 0.00024366
22070.0 0.00024908
22090.0 0.00025421
22110.0 0.00025938
22130.0 0.00026455
22150.0 0.00026938
22170.0 0.00027393
22190.0 0.00027844
22210.0 0.00028264
22230.0 0.00028633
22250.0 0.00028981
22270.0 0.00029301
22290.0 0.00029574
22310.0 0.00029809
22330.0 0.00030015
22350.0 0.00030173
22370.0 0.00030284
22390.0 0.00030353
22410.0 0.00030373
22430.0 0.00030342
22450.0 0.00030262
22470.0 0.00030125
22490.0 0.00029934
22510.0 0.00029697
22530.0 0.00029395
22550.0 0.00029027
22570.0 0.00028619
22590.0 0.0002816
22610.0 0.00027632
22630.0 0.00027061
22650.0 0.00026471
22670.0 0.00025819
22690.0 0.00025122
22710.0 0.0002442
22730.0 0.00023696
22750.0 0.00022912
22770.0 0.00022146
22790.0 0.00021397
22810.0 0.00020629
22830.0 0.00019863
22850.0 0.00019146
22870.0 0.00018443
22890.0 0.00017743
22910.0 0.00017099
22930.0 0.00016508
22950.0 0.00015946
22970.0 0.00015425
22990.0 0.00014993
23010.0 0.00014609
23030.0 0.00014279
23050.0 0.00014023
23070.0 0.00013837
23090.0 0.00013709
