#lamb flux
1010.0 2.4387e-06
1030.0 2.7237e-06
1050.0 3.045e-06
1070.0 3.4084e-06
1090.0 3.8256e-06
1110.0 4.2568e-06
1130.0 4.6949e-06
1150.0 5.1582e-06
1170.0 5.6417e-06
1190.0 6.1086e-06
1210.0 6.5895e-06
1230.0 7.0946e-06
1250.0 7.6e-06
1270.0 8.1033e-06
1290.0 8.6439e-06
1310.0 9.197e-06
1330.0 9.7437e-06
1350.0 1.0309e-05
1370.0 1.0903e-05
1390.0 1.1498e-05
1410.0 1.2091e-05
1430.0 1.2719e-05
1450.0 1.3358e-05
1470.0 1.3991e-05
1490.0 1.4638e-05
1510.0 1.5323e-05
1530.0 1.5987e-05
1550.0 1.6649e-05
1570.0 1.7333e-05
1590.0 1.8019e-05
1610.0 1.8679e-05
1630.0 1.9352e-05
1650.0 2.0034e-05
1670.0 2.069e-05
1690.0 2.1327e-05
1710.0 2.1971e-05
1730.0 2.2602e-05
1750.0 2.318e-05
1770.0 2.3751e-05
1790.0 2.4308e-05
1810.0 2.4818e-05
1830.0 2.529e-05
1850.0 2.5761e-05
1870.0 2.6183e-05
1890.0 2.6549e-05
1910.0 2.6888e-05
1930.0 2.72e-05
1950.0 2.7446e-05
1970.0 2.7644e-05
1990.0 2.7819e-05
2010.0 2.7941e-05
2030.0 2.8002e-05
2050.0 2.8034e-05
2070.0 2.8034e-05
2090.0 2.7962e-05
2110.0 2.7847e-05
2130.0 2.7703e-05
2150.0 2.751e-05
2170.0 2.7258e-05
2190.0 2.6984e-05
2210.0 2.6677e-05
2230.0 2.6318e-05
2250.0 2.5927e-05
2270.0 2.5522e-05
2290.0 2.5078e-05
2310.0 2.4596e-05
2330.0 2.4103e-05
2350.0 2.3592e-05
2370.0 2.3051e-05
2390.0 2.2497e-05
2410.0 2.194e-05
2430.0 2.1354e-05
2450.0 2.074e-05
2470.0 2.0105e-05
2490.0 1.944e-05
2510.0 1.8746e-05
2530.0 1.8059e-05
2550.0 1.7433e-05
2570.0 1.6943e-05
2590.0 1.6668e-05
2610.0 1.6763e-05
2630.0 1.7285e-05
2650.0 1.8164e-05
2670.0 1.9407e-05
2690.0 2.0942e-05
2710.0 2.2464e-05
2730.0 2.3821e-05
2750.0 2.505e-05
2770.0 2.5964e-05
2790.0 2.6523e-05
2810.0 2.6852e-05
2830.0 2.704e-05
2850.0 2.7037e-05
2870.0 2.6963e-05
2890.0 2.6889e-05
2910.0 2.6809e-05
2930.0 2.6712e-05
2950.0 2.6663e-05
2970.0 2.6658e-05
2990.0 2.6667e-05
3010.0 6.0914e-05
3030.0 6.1162e-05
3050.0 6.148e-05
3070.0 6.1746e-05
3090.0 6.194e-05
3110.0 6.1822e-05
3130.0 6.1156e-05
3150.0 5.9853e-05
3170.0 5.7533e-05
3190.0 5.7649e-05
3210.0 6.7985e-05
3230.0 8.7473e-05
3250.0 0.00012782
3270.0 0.00014429
3290.0 0.00018334
3310.0 0.0001716
3330.0 0.00018135
3350.0 0.00019843
3370.0 0.00022042
3390.0 0.00024602
3410.0 0.00027309
3430.0 0.00030425
3450.0 0.00033836
3470.0 0.00037462
3490.0 0.00040832
3510.0 0.00044236
3530.0 0.00047996
3550.0 0.00049396
3570.0 0.00048839
3590.0 0.00051437
3610.0 0.00050847
3630.0 0.00058891
3650.0 0.00065239
3670.0 0.0006923
3690.0 0.00064779
3710.0 0.00054039
3730.0 0.00049568
3750.0 0.00044302
3770.0 0.00039724
3790.0 0.00035283
3810.0 0.0003393
3830.0 0.00038343
3850.0 0.00017362
3870.0 0.00037264
3890.0 0.00047396
3910.0 0.0005151
3930.0 0.00059302
3950.0 0.00064058
3970.0 0.00073652
3990.0 0.00090367
4010.0 0.00067793
4030.0 0.00055743
4050.0 0.00049552
4070.0 0.00050981
4090.0 0.00071808
4110.0 0.00068651
4130.0 0.00070777
4150.0 0.00067201
4170.0 0.0006421
4190.0 0.00060133
4210.0 0.00083965
4230.0 0.0008944
4250.0 0.00094088
4270.0 0.00088485
4290.0 0.00091955
4310.0 0.001036
4330.0 0.0011959
4350.0 0.0011862
4370.0 0.0011357
4390.0 0.00096952
4410.0 0.00087796
4430.0 0.00072198
4450.0 0.00063516
4470.0 0.00070707
4490.0 0.00086772
4510.0 0.00091408
4530.0 0.00099236
4550.0 0.0010776
4570.0 0.001427
4590.0 0.0020527
4610.0 0.0025166
4630.0 0.0025102
4650.0 0.0024417
4670.0 0.0026605
4690.0 0.0029493
4710.0 0.0024301
4730.0 0.0018204
4750.0 0.0014576
4770.0 0.0013478
4790.0 0.0013385
4810.0 0.0012746
4830.0 0.0013925
4850.0 0.0016124
4870.0 0.0018396
4890.0 0.0018112
4910.0 0.0015929
4930.0 0.0016778
4950.0 0.0021356
4970.0 0.0026998
4990.0 0.0028188
5010.0 0.0025434
5030.0 0.0020503
5050.0 0.0015153
5070.0 0.0012147
5090.0 0.0011023
5110.0 0.0010826
5130.0 0.0011173
5150.0 0.0011116
5170.0 0.0011154
5190.0 0.0010713
5210.0 0.0010698
5230.0 0.0011735
5250.0 0.0012894
5270.0 0.0015589
5290.0 0.0018325
5310.0 0.0018754
5330.0 0.0019639
5350.0 0.0022127
5370.0 0.0024183
5390.0 0.002246
5410.0 0.0019798
5430.0 0.0018959
5450.0 0.002191
5470.0 0.0028034
5490.0 0.0034261
5510.0 0.0037345
5530.0 0.0037487
5550.0 0.003584
5570.0 0.0034612
5590.0 0.0033896
5610.0 0.0034302
5630.0 0.0034593
5650.0 0.0034702
5670.0 0.003514
5690.0 0.0033863
5710.0 0.0029238
5730.0 0.0025433
5750.0 0.0022946
5770.0 0.0023532
5790.0 0.0025242
5810.0 0.002718
5830.0 0.0028298
5850.0 0.0027694
5870.0 0.0025868
5890.0 0.0023698
5910.0 0.0024191
5930.0 0.0026454
5950.0 0.0026128
5970.0 0.0023841
5990.0 0.0020688
6010.0 0.001696
6030.0 0.0014705
6050.0 0.0015158
6070.0 0.0016892
6090.0 0.0017373
6110.0 0.0015447
6130.0 0.0014872
6150.0 0.0016623
6170.0 0.0019716
6190.0 0.0022823
6210.0 0.0023574
6230.0 0.0022732
6250.0 0.0020902
6270.0 0.0017956
6290.0 0.0014984
6310.0 0.0012863
6330.0 0.0012175
6350.0 0.001272
6370.0 0.0012988
6390.0 0.0013768
6410.0 0.0016292
6430.0 0.0020691
6450.0 0.0025154
6470.0 0.0027117
6490.0 0.0026522
6510.0 0.0026699
6530.0 0.0027855
6550.0 0.0027768
6570.0 0.0028502
6590.0 0.0028709
6610.0 0.0028774
6630.0 0.0029077
6650.0 0.0028318
6670.0 0.0026384
6690.0 0.0023352
6710.0 0.0020774
6730.0 0.0020761
6750.0 0.0022149
6770.0 0.0023283
6790.0 0.0023809
6810.0 0.0023878
6830.0 0.0023409
6850.0 0.0022768
6870.0 0.0021421
6890.0 0.0020683
6910.0 0.0019573
6930.0 0.001963
6950.0 0.0021161
6970.0 0.0022197
6990.0 0.0023022
7010.0 0.0022839
7030.0 0.0021317
7050.0 0.0018665
7070.0 0.0015636
7090.0 0.0013644
7110.0 0.0013373
7130.0 0.0014019
7150.0 0.0013469
7170.0 0.0012439
7190.0 0.0012694
7210.0 0.0014088
7230.0 0.0016347
7250.0 0.0018111
7270.0 0.0018567
7290.0 0.001712
7310.0 0.0015383
7330.0 0.0014297
7350.0 0.0014188
7370.0 0.0014575
7390.0 0.0015133
7410.0 0.0016322
7430.0 0.0018868
7450.0 0.0021814
7470.0 0.0024079
7490.0 0.0024679
7510.0 0.0023538
7530.0 0.0019438
7550.0 0.0016506
7570.0 0.0014024
7590.0 0.0012693
7610.0 0.0013213
7630.0 0.0014904
7650.0 0.0016816
7670.0 0.0018559
7690.0 0.001968
7710.0 0.0020836
7730.0 0.002206
7750.0 0.002316
7770.0 0.0023163
7790.0 0.002305
7810.0 0.0023479
7830.0 0.002405
7850.0 0.0023486
7870.0 0.0022468
7890.0 0.0021479
7910.0 0.0020099
7930.0 0.0019527
7950.0 0.0018767
7970.0 0.0018404
7990.0 0.0018101
8010.0 0.0018683
8030.0 0.0018727
8050.0 0.0018963
8070.0 0.0018688
8090.0 0.0018562
8110.0 0.001771
8130.0 0.0017533
8150.0 0.0017092
8170.0 0.0016548
8190.0 0.001622
8210.0 0.0016245
8230.0 0.0015512
8250.0 0.0014747
8270.0 0.0012951
8290.0 0.0010369
8310.0 0.00077443
8330.0 0.00058439
8350.0 0.00052745
8370.0 0.00061639
8390.0 0.00073952
8410.0 0.00081275
8430.0 0.00086215
8450.0 0.00090177
8470.0 0.00094672
8490.0 0.0010493
8510.0 0.0011835
8530.0 0.0013718
8550.0 0.0015821
8570.0 0.0017703
8590.0 0.0019187
8610.0 0.0020236
8630.0 0.002069
8650.0 0.0020643
8670.0 0.002059
8690.0 0.0021301
8710.0 0.0022059
8730.0 0.0022704
8750.0 0.0022409
8770.0 0.0022515
8790.0 0.002221
8810.0 0.0020675
8830.0 0.0019788
8850.0 0.0018468
8870.0 0.001741
8890.0 0.0016803
8910.0 0.0016968
8930.0 0.0016014
8950.0 0.001519
8970.0 0.0014834
8990.0 0.0014544
9010.0 0.0014054
9030.0 0.0013725
9050.0 0.0013632
9070.0 0.0013588
9090.0 0.0013547
9110.0 0.0013508
9130.0 0.0013467
9150.0 0.0013425
9170.0 0.0013373
9190.0 0.0013317
9210.0 0.0013359
9230.0 0.0013291
9250.0 0.0013236
9270.0 0.0013185
9290.0 0.0013138
9310.0 0.0013092
9330.0 0.0013047
9350.0 0.0013005
9370.0 0.0012962
9390.0 0.0012918
9410.0 0.0012874
9430.0 0.001283
9450.0 0.0012777
9470.0 0.0012726
9490.0 0.0012691
9510.0 0.0012652
9530.0 0.001261
9550.0 0.0012569
9570.0 0.0012526
9590.0 0.0012482
9610.0 0.0012439
9630.0 0.0012395
9650.0 0.0012351
9670.0 0.0012307
9690.0 0.0012263
9710.0 0.001222
9730.0 0.0012175
9750.0 0.0012131
9770.0 0.0012088
9790.0 0.0012043
9810.0 0.0011999
9830.0 0.0011955
9850.0 0.0011911
9870.0 0.0011866
9890.0 0.0011822
9910.0 0.0011777
9930.0 0.0011731
9950.0 0.0011595
9970.0 0.0011577
9990.0 0.0011554
10010.0 0.0011528
10030.0 0.0011494
10050.0 0.0011454
10070.0 0.0011411
10090.0 0.001137
10110.0 0.0011324
10130.0 0.0011281
10150.0 0.0011236
10170.0 0.0011188
10190.0 0.0011137
10210.0 0.001109
10230.0 0.0011044
10250.0 0.0010995
10270.0 0.0010946
10290.0 0.0010899
10310.0 0.001085
10330.0 0.0010797
10350.0 0.0010748
10370.0 0.0010699
10390.0 0.0010646
10410.0 0.0010594
10430.0 0.0010545
10450.0 0.0010492
10470.0 0.0010437
10490.0 0.0010385
10510.0 0.0010333
10530.0 0.0010274
10550.0 0.0010218
10570.0 0.0010164
10590.0 0.0010107
10610.0 0.0010048
10630.0 0.00099919
10650.0 0.00099348
10670.0 0.00098726
10690.0 0.0009812
10710.0 0.0009753
10730.0 0.00096904
10750.0 0.0009624
10770.0 0.00095632
10790.0 0.00095003
10810.0 0.00094334
10830.0 0.00093675
10850.0 0.00093039
10870.0 0.00092331
10890.0 0.00091607
10910.0 0.000909
10930.0 0.0009015
10950.0 0.00089315
10970.0 0.00088447
10990.0 0.00087558
11010.0 0.00084733
11030.0 0.00083622
11050.0 0.00082552
11070.0 0.00081472
11090.0 0.00080331
11110.0 0.00079293
11130.0 0.00078307
11150.0 0.0007731
11170.0 0.00076342
11190.0 0.00075455
11210.0 0.00074558
11230.0 0.00073644
11250.0 0.00072778
11270.0 0.00071939
11290.0 0.0007106
11310.0 0.00070187
11330.0 0.00069382
11350.0 0.00068555
11370.0 0.00067706
11390.0 0.00066891
11410.0 0.00066087
11430.0 0.00065212
11450.0 0.0006434
11470.0 0.00063478
11490.0 0.00062562
11510.0 0.00061575
11530.0 0.00060601
11550.0 0.00059598
11570.0 0.00058505
11590.0 0.00057386
11610.0 0.00056275
11630.0 0.00055085
11650.0 0.00053835
11670.0 0.00052632
11690.0 0.00051423
11710.0 0.00050169
11730.0 0.00048941
11750.0 0.00047786
11770.0 0.00046608
11790.0 0.00045449
11810.0 0.00044373
11830.0 0.00043341
11850.0 0.00042298
11870.0 0.0004134
11890.0 0.00040462
11910.0 0.00039599
11930.0 0.00038769
11950.0 0.00038016
11970.0 0.00037292
11990.0 0.00036571
12010.0 0.00035905
12030.0 0.00035287
12050.0 0.00034679
12070.0 0.00034091
12090.0 0.00033576
12110.0 0.00033087
12130.0 0.00032621
12150.0 0.0003221
12170.0 0.00031856
12190.0 0.00031527
12210.0 0.00031257
12230.0 0.00031056
12250.0 0.0003091
12270.0 0.00030825
12290.0 0.00030811
12310.0 0.00030864
12330.0 0.00030988
12350.0 0.00031185
12370.0 0.00031445
12390.0 0.00031776
12410.0 0.00032194
12430.0 0.00032654
12450.0 0.00033163
12470.0 0.00033735
12490.0 0.00034346
12510.0 0.00034958
12530.0 0.00035601
12550.0 0.00036262
12570.0 0.00036889
12590.0 0.00037485
12610.0 0.00038063
12630.0 0.00038584
12650.0 0.00039016
12670.0 0.00039387
12690.0 0.00039681
12710.0 0.0003988
12730.0 0.00039993
12750.0 0.00040018
12770.0 0.00039954
12790.0 0.00039814
12810.0 0.00039598
12830.0 0.00039307
12850.0 0.00038976
12870.0 0.00038606
12890.0 0.00038188
12910.0 0.00037753
12930.0 0.00037319
12950.0 0.00036861
12970.0 0.00036394
12990.0 0.00035953
13010.0 0.00035518
13030.0 0.00035075
13050.0 0.00034646
13070.0 0.00034238
13090.0 0.00033818
13110.0 0.00033396
13130.0 0.00032991
13150.0 0.00032586
13170.0 0.00032164
13190.0 0.00031763
13210.0 0.00031382
13230.0 0.00031005
13250.0 0.00030647
13270.0 0.00030332
13290.0 0.00030047
13310.0 0.00029796
13330.0 0.00029602
13350.0 0.00029464
13370.0 0.00029375
13390.0 0.0002934
13410.0 0.00029352
13430.0 0.00029401
13450.0 0.00029477
13470.0 0.00029563
13490.0 0.00029643
13510.0 0.00029708
13530.0 0.00029736
13550.0 0.00029716
13570.0 0.0002964
13590.0 0.00029496
13610.0 0.0002929
13630.0 0.00029029
13650.0 0.00028698
13670.0 0.00028317
13690.0 0.00027909
13710.0 0.00027468
13730.0 0.00026988
13750.0 0.00026532
13770.0 0.00026086
13790.0 0.00025644
13810.0 0.0002523
13830.0 0.00024862
13850.0 0.00024515
13870.0 0.000242
13890.0 0.0002393
13910.0 0.00023696
13930.0 0.00023486
13950.0 0.00023307
13970.0 0.00023161
13990.0 0.00023031
14010.0 0.00022918
14030.0 0.0002282
14050.0 0.00022732
14070.0 0.00022646
14090.0 0.00022563
14110.0 0.00022481
14130.0 0.00022393
14150.0 0.00022295
14170.0 0.00022192
14190.0 0.0002208
14210.0 0.00021955
14230.0 0.00021822
14250.0 0.00021686
14270.0 0.00021541
14290.0 0.00021392
14310.0 0.00021251
14330.0 0.00021116
14350.0 0.00020986
14370.0 0.0002087
14390.0 0.0002077
14410.0 0.00020681
14430.0 0.00020608
14450.0 0.0002055
14470.0 0.00020505
14490.0 0.00020471
14510.0 0.00020447
14530.0 0.00020431
14550.0 0.00020422
14570.0 0.0002042
14590.0 0.00020424
14610.0 0.00020437
14630.0 0.00020461
14650.0 0.00020495
14670.0 0.00020542
14690.0 0.00020608
14710.0 0.00020695
14730.0 0.00020794
14750.0 0.00020917
14770.0 0.00021068
14790.0 0.00021238
14810.0 0.00021429
14830.0 0.00021662
14850.0 0.00021921
14870.0 0.00022198
14890.0 0.00022505
14910.0 0.00022842
14930.0 0.00023175
14950.0 0.00023493
14970.0 0.00023803
14990.0 0.00024067
15010.0 0.00024271
15030.0 0.00024422
15050.0 0.00024521
15070.0 0.00024565
15090.0 0.00024573
15110.0 0.00024558
15130.0 0.00024527
15150.0 0.00024487
15170.0 0.00024442
15190.0 0.00024395
15210.0 0.00024347
15230.0 0.00024299
15250.0 0.00024251
15270.0 0.00024202
15290.0 0.00024154
15310.0 0.00024105
15330.0 0.00024056
15350.0 0.00024007
15370.0 0.00023959
15390.0 0.00023909
15410.0 0.0002386
15430.0 0.00023812
15450.0 0.00023763
15470.0 0.00023713
15490.0 0.00023664
15510.0 0.00023615
15530.0 0.00023566
15550.0 0.00023516
15570.0 0.00023467
15590.0 0.00023417
15610.0 0.00023368
15630.0 0.00023318
15650.0 0.00023269
15670.0 0.00023219
15690.0 0.00023169
15710.0 0.0002312
15730.0 0.0002307
15750.0 0.0002302
15770.0 0.0002297
15790.0 0.00022921
15810.0 0.0002287
15830.0 0.0002282
15850.0 0.00022771
15870.0 0.00022721
15890.0 0.0002267
15910.0 0.00022621
15930.0 0.00022571
15950.0 0.0002252
15970.0 0.0002247
15990.0 0.0002242
16010.0 0.0002237
16030.0 0.00022319
16050.0 0.00022269
16070.0 0.00022219
16090.0 0.00022169
16110.0 0.00022118
16130.0 0.00022068
16150.0 0.00022018
16170.0 0.00021967
16190.0 0.00021917
16210.0 0.00021866
16230.0 0.00021816
16250.0 0.00021765
16270.0 0.00021715
16290.0 0.00021664
16310.0 0.00021614
16330.0 0.00021563
16350.0 0.00021513
16370.0 0.00021462
16390.0 0.00021411
16410.0 0.00021361
16430.0 0.0002131
16450.0 0.00021259
16470.0 0.00021209
16490.0 0.00021158
16510.0 0.00021107
16530.0 0.00021056
16550.0 0.00021006
16570.0 0.00020955
16590.0 0.00020904
16610.0 0.00020853
16630.0 0.00020802
16650.0 0.00020751
16670.0 0.000207
16690.0 0.0002065
16710.0 0.00020598
16730.0 0.00020547
16750.0 0.00020497
16770.0 0.00020445
16790.0 0.00020394
16810.0 0.00020343
16830.0 0.00020292
16850.0 0.00020241
16870.0 0.0002019
16890.0 0.00020139
16910.0 0.00020087
16930.0 0.00020036
16950.0 0.00019985
16970.0 0.00019934
16990.0 0.00019882
17010.0 0.00019831
17030.0 0.0001978
17050.0 0.00019728
17070.0 0.00019677
17090.0 0.00019625
17110.0 0.00019574
17130.0 0.00019522
17150.0 0.00019471
17170.0 0.0001942
17190.0 0.00019368
17210.0 0.00019316
17230.0 0.00019265
17250.0 0.00019213
17270.0 0.00019161
17290.0 0.0001911
17310.0 0.00019058
17330.0 0.00019006
17350.0 0.00018954
17370.0 0.00018903
17390.0 0.00018851
17410.0 0.00018799
17430.0 0.00018747
17450.0 0.00018696
17470.0 0.00018643
17490.0 0.00018591
17510.0 0.0001854
17530.0 0.00018488
17550.0 0.00018435
17570.0 0.00018384
17590.0 0.00018332
17610.0 0.0001828
17630.0 0.00018227
17650.0 0.00018176
17670.0 0.00018124
17690.0 0.00018071
17710.0 0.00018019
17730.0 0.00017967
17750.0 0.00017915
17770.0 0.00017863
17790.0 0.00017811
17810.0 0.00017759
17830.0 0.00017706
17850.0 0.00017654
17870.0 0.00017602
17890.0 0.0001755
17910.0 0.00017498
17930.0 0.00017446
17950.0 0.00017394
17970.0 0.00017342
17990.0 0.0001729
18010.0 0.00017238
18030.0 0.00017185
18050.0 0.00017133
18070.0 0.00017081
18090.0 0.00017029
18110.0 0.00016977
18130.0 0.00016925
18150.0 0.00016874
18170.0 0.00016821
18190.0 0.0001677
18210.0 0.00016718
18230.0 0.00016666
18250.0 0.00016614
18270.0 0.00016562
18290.0 0.00016511
18310.0 0.00016459
18330.0 0.00016407
18350.0 0.00016356
18370.0 0.00016304
18390.0 0.00016252
18410.0 0.00016201
18430.0 0.0001615
18450.0 0.00016098
18470.0 0.00016047
18490.0 0.00015996
18510.0 0.00015945
18530.0 0.00015894
18550.0 0.00015843
18570.0 0.00015792
18590.0 0.00015741
18610.0 0.0001569
18630.0 0.00015639
18650.0 0.00015589
18670.0 0.00015538
18690.0 0.00015488
18710.0 0.00015437
18730.0 0.00015387
18750.0 0.00015337
18770.0 0.00015287
18790.0 0.00015237
18810.0 0.00015187
18830.0 0.00015137
18850.0 0.00015087
18870.0 0.00015038
18890.0 0.00014988
18910.0 0.00014939
18930.0 0.0001489
18950.0 0.00014841
18970.0 0.00014792
18990.0 0.00014743
19010.0 0.00014694
19030.0 0.00014645
19050.0 0.00014597
19070.0 0.00014548
19090.0 0.000145
19110.0 0.00014452
19130.0 0.00014404
19150.0 0.00014356
19170.0 0.00014309
19190.0 0.00014261
19210.0 0.00014214
19230.0 0.00014166
19250.0 0.00014119
19270.0 0.00014072
19290.0 0.00014025
19310.0 0.00013979
19330.0 0.00013933
19350.0 0.00013886
19370.0 0.0001384
19390.0 0.00013794
19410.0 0.00013748
19430.0 0.00013702
19450.0 0.00013657
19470.0 0.00013611
19490.0 0.00013566
19510.0 0.00013521
19530.0 0.00013476
19550.0 0.00013431
19570.0 0.00013387
19590.0 0.00013343
19610.0 0.00013298
19630.0 0.00013254
19650.0 0.0001321
19670.0 0.00013167
19690.0 0.00013123
19710.0 0.0001308
19730.0 0.00013037
19750.0 0.00012994
19770.0 0.00012951
19790.0 0.00012908
19810.0 0.00012866
19830.0 0.00012823
19850.0 0.0001278
19870.0 0.00012737
19890.0 0.00012691
19910.0 0.0001264
19930.0 0.00012582
19950.0 0.00012514
19970.0 0.00012428
19990.0 0.00012323
20010.0 0.00012199
20030.0 0.00012051
20050.0 0.00011878
20070.0 0.00011693
20090.0 0.00011496
20110.0 0.00011279
20130.0 0.00011064
20150.0 0.00010855
20170.0 0.00010644
20190.0 0.00010433
20210.0 0.00010236
20230.0 0.00010045
20250.0 9.8541e-05
20270.0 9.6742e-05
20290.0 9.5057e-05
20310.0 9.3405e-05
20330.0 9.1785e-05
20350.0 9.0331e-05
20370.0 8.8932e-05
20390.0 8.7569e-05
20410.0 8.6301e-05
20430.0 8.5138e-05
20450.0 8.3996e-05
20470.0 8.2934e-05
20490.0 8.1979e-05
20510.0 8.1096e-05
20530.0 8.0272e-05
20550.0 7.9548e-05
20570.0 7.8922e-05
20590.0 7.836e-05
20610.0 7.7881e-05
20630.0 7.7491e-05
20650.0 7.7172e-05
20670.0 7.6926e-05
20690.0 7.6753e-05
20710.0 7.6641e-05
20730.0 7.6588e-05
20750.0 7.6588e-05
20770.0 7.662e-05
20790.0 7.669e-05
20810.0 7.6795e-05
20830.0 7.6908e-05
20850.0 7.7026e-05
20870.0 7.7157e-05
20890.0 7.7278e-05
20910.0 7.7367e-05
20930.0 7.7436e-05
20950.0 7.7477e-05
20970.0 7.7472e-05
20990.0 7.7421e-05
21010.0 7.7325e-05
21030.0 7.7172e-05
21050.0 7.6965e-05
21070.0 7.6702e-05
21090.0 7.6377e-05
21110.0 7.6004e-05
21130.0 7.5586e-05
21150.0 7.511e-05
21170.0 7.4593e-05
21190.0 7.4052e-05
21210.0 7.3464e-05
21230.0 7.2836e-05
21250.0 7.2205e-05
21270.0 7.156e-05
21290.0 7.0887e-05
21310.0 7.0212e-05
21330.0 6.9562e-05
21350.0 6.8898e-05
21370.0 6.8239e-05
21390.0 6.7613e-05
21410.0 6.7011e-05
21430.0 6.6409e-05
21450.0 6.5858e-05
21470.0 6.5357e-05
21490.0 6.4887e-05
21510.0 6.4462e-05
21530.0 6.41e-05
21550.0 6.3789e-05
21570.0 6.3531e-05
21590.0 6.3338e-05
21610.0 6.3205e-05
21630.0 6.3134e-05
21650.0 6.313e-05
21670.0 6.3176e-05
21690.0 6.3279e-05
21710.0 6.3441e-05
21730.0 6.3645e-05
21750.0 6.3877e-05
21770.0 6.4165e-05
21790.0 6.4481e-05
21810.0 6.48e-05
21830.0 6.5135e-05
21850.0 6.5492e-05
21870.0 6.5832e-05
21890.0 6.6147e-05
21910.0 6.6466e-05
21930.0 6.6761e-05
21950.0 6.7015e-05
21970.0 6.7246e-05
21990.0 6.7456e-05
22010.0 6.7613e-05
22030.0 6.773e-05
22050.0 6.7816e-05
22070.0 6.7862e-05
22090.0 6.7863e-05
22110.0 6.783e-05
22130.0 6.7761e-05
22150.0 6.7655e-05
22170.0 6.7515e-05
22190.0 6.7339e-05
22210.0 6.7129e-05
22230.0 6.6892e-05
22250.0 6.6622e-05
22270.0 6.6315e-05
22290.0 6.5985e-05
22310.0 6.5627e-05
22330.0 6.5223e-05
22350.0 6.479e-05
22370.0 6.4335e-05
22390.0 6.3839e-05
22410.0 6.3293e-05
22430.0 6.2735e-05
22450.0 6.2146e-05
22470.0 6.1504e-05
22490.0 6.0835e-05
22510.0 6.0156e-05
22530.0 5.9423e-05
22550.0 5.8651e-05
22570.0 5.7886e-05
22590.0 5.7104e-05
22610.0 5.6286e-05
22630.0 5.547e-05
22650.0 5.4684e-05
22670.0 5.3876e-05
22690.0 5.3072e-05
22710.0 5.231e-05
22730.0 5.157e-05
22750.0 5.0821e-05
22770.0 5.013e-05
22790.0 4.9489e-05
22810.0 4.8868e-05
22830.0 4.828e-05
22850.0 4.7753e-05
22870.0 4.7257e-05
22890.0 4.6783e-05
22910.0 4.6358e-05
22930.0 4.5972e-05
22950.0 4.5607e-05
