#lamb flux
1010.0 2.0489e-07
1030.0 2.2661e-07
1050.0 2.5159e-07
1070.0 2.7971e-07
1090.0 3.1166e-07
1110.0 3.4442e-07
1130.0 3.7739e-07
1150.0 4.1193e-07
1170.0 4.4756e-07
1190.0 4.8135e-07
1210.0 5.1559e-07
1230.0 5.5097e-07
1250.0 5.8564e-07
1270.0 6.1931e-07
1290.0 6.5488e-07
1310.0 6.9043e-07
1330.0 7.2452e-07
1350.0 7.59e-07
1370.0 7.9459e-07
1390.0 8.293e-07
1410.0 8.6297e-07
1430.0 8.9818e-07
1450.0 9.3338e-07
1470.0 9.674e-07
1490.0 1.0018e-06
1510.0 1.0381e-06
1530.0 1.0726e-06
1550.0 1.1065e-06
1570.0 1.1417e-06
1590.0 1.1769e-06
1610.0 1.2105e-06
1630.0 1.2452e-06
1650.0 1.2808e-06
1670.0 1.3153e-06
1690.0 1.3493e-06
1710.0 1.3847e-06
1730.0 1.4203e-06
1750.0 1.4539e-06
1770.0 1.4884e-06
1790.0 1.5237e-06
1810.0 1.5579e-06
1830.0 1.5915e-06
1850.0 1.6273e-06
1870.0 1.6622e-06
1890.0 1.696e-06
1910.0 1.7305e-06
1930.0 1.7659e-06
1950.0 1.7998e-06
1970.0 1.8334e-06
1990.0 1.8683e-06
2010.0 1.9027e-06
2030.0 1.9359e-06
2050.0 1.9703e-06
2070.0 2.0055e-06
2090.0 2.0389e-06
2110.0 2.0723e-06
2130.0 2.1067e-06
2150.0 2.1405e-06
2170.0 2.1729e-06
2190.0 2.2066e-06
2210.0 2.2406e-06
2230.0 2.2733e-06
2250.0 2.3058e-06
2270.0 2.3399e-06
2290.0 2.3729e-06
2310.0 2.4047e-06
2330.0 2.4378e-06
2350.0 2.4717e-06
2370.0 2.5055e-06
2390.0 2.5422e-06
2410.0 2.5855e-06
2430.0 2.6354e-06
2450.0 2.6951e-06
2470.0 2.7715e-06
2490.0 2.8678e-06
2510.0 2.9773e-06
2530.0 3.109e-06
2550.0 3.274e-06
2570.0 3.4792e-06
2590.0 3.7462e-06
2610.0 4.1458e-06
2630.0 4.7164e-06
2650.0 5.4625e-06
2670.0 6.4271e-06
2690.0 7.6125e-06
2710.0 8.8778e-06
2730.0 1.0128e-05
2750.0 1.136e-05
2770.0 1.2431e-05
2790.0 1.3281e-05
2810.0 1.3956e-05
2830.0 1.4484e-05
2850.0 1.4844e-05
2870.0 1.5108e-05
2890.0 1.5317e-05
2910.0 1.5484e-05
2930.0 1.5621e-05
2950.0 1.5751e-05
2970.0 1.5878e-05
2990.0 1.5998e-05
3010.0 0.00045218
3030.0 0.00045557
3050.0 0.00045883
3070.0 0.00046163
3090.0 0.00046404
3110.0 0.00046553
3130.0 0.00046547
3150.0 0.0004634
3170.0 0.00045844
3190.0 0.00045064
3210.0 0.00044076
3230.0 0.00042945
3250.0 0.00041828
3270.0 0.00041012
3290.0 0.00040559
3310.0 0.00040632
3330.0 0.0004122
3350.0 0.00042244
3370.0 0.00043706
3390.0 0.00045549
3410.0 0.00047555
3430.0 0.00049806
3450.0 0.00052398
3470.0 0.00055228
3490.0 0.00058228
3510.0 0.00061618
3530.0 0.00065249
3550.0 0.00068925
3570.0 0.00072759
3590.0 0.00076929
3610.0 0.00081226
3630.0 0.0008551
3650.0 0.00089954
3670.0 0.00094012
3690.0 0.00097045
3710.0 0.00098783
3730.0 0.00098841
3750.0 0.00097465
3770.0 0.00096925
3790.0 0.00096348
3810.0 0.00093981
3830.0 0.0009689
3850.0 0.0010833
3870.0 0.0011462
3890.0 0.0011409
3910.0 0.0011458
3930.0 0.001176
3950.0 0.0011945
3970.0 0.0010883
3990.0 0.00093645
4010.0 0.0028067
4030.0 0.0034007
4050.0 0.0038987
4070.0 0.0033828
4090.0 0.0030638
4110.0 0.0027035
4130.0 0.0024883
4150.0 0.0026468
4170.0 0.0026072
4190.0 0.0027791
4210.0 0.0027536
4230.0 0.0029126
4250.0 0.0034457
4270.0 0.0034862
4290.0 0.0032125
4310.0 0.003338
4330.0 0.0035506
4350.0 0.0039812
4370.0 0.0045306
4390.0 0.0042515
4410.0 0.0031411
4430.0 0.0026592
4450.0 0.0024435
4470.0 0.0018754
4490.0 0.0020238
4510.0 0.003057
4530.0 0.0035257
4550.0 0.0035563
4570.0 0.0040017
4590.0 0.0045583
4610.0 0.0061481
4630.0 0.0079851
4650.0 0.0086598
4670.0 0.0080198
4690.0 0.0076523
4710.0 0.008089
4730.0 0.0076337
4750.0 0.0057072
4770.0 0.0041864
4790.0 0.0039093
4810.0 0.0037262
4830.0 0.0034113
4850.0 0.0037433
4870.0 0.0049453
4890.0 0.0058319
4910.0 0.0051167
4930.0 0.0045276
4950.0 0.0049742
4970.0 0.0063791
4990.0 0.0086453
5010.0 0.0099452
5030.0 0.0087694
5050.0 0.0059331
5070.0 0.0039101
5090.0 0.0031529
5110.0 0.0032425
5130.0 0.0037423
5150.0 0.0040545
5170.0 0.0039937
5190.0 0.0037319
5210.0 0.0039006
5230.0 0.0041004
5250.0 0.0044191
5270.0 0.0047679
5290.0 0.0052839
5310.0 0.0061502
5330.0 0.006806
5350.0 0.0067626
5370.0 0.0071035
5390.0 0.0081514
5410.0 0.0081441
5430.0 0.0072022
5450.0 0.0066172
5470.0 0.0070263
5490.0 0.0085842
5510.0 0.010733
5530.0 0.01231
5550.0 0.011898
5570.0 0.010816
5590.0 0.0094049
5610.0 0.0086735
5630.0 0.0084105
5650.0 0.0080103
5670.0 0.0075903
5690.0 0.0067858
5710.0 0.0066162
5730.0 0.0060946
5750.0 0.004297
5770.0 0.0033524
5790.0 0.003799
5810.0 0.0042897
5830.0 0.0052641
5850.0 0.0062663
5870.0 0.0069525
5890.0 0.0070703
5910.0 0.0069365
5930.0 0.0066027
5950.0 0.006728
5970.0 0.0076692
5990.0 0.0072111
6010.0 0.006045
6030.0 0.0051072
6050.0 0.0044477
6070.0 0.0044234
6090.0 0.0047964
6110.0 0.0053632
6130.0 0.0054453
6150.0 0.0046852
6170.0 0.0041216
6190.0 0.0046382
6210.0 0.0061316
6230.0 0.0080465
6250.0 0.0087154
6270.0 0.0076161
6290.0 0.0064078
6310.0 0.0050024
6330.0 0.0038328
6350.0 0.0034188
6370.0 0.0035952
6390.0 0.0041563
6410.0 0.0051249
6430.0 0.0059844
6450.0 0.0068477
6470.0 0.0078408
6490.0 0.0094712
6510.0 0.01059
6530.0 0.010389
6550.0 0.0093949
6570.0 0.0079754
6590.0 0.0071916
6610.0 0.006201
6630.0 0.0056179
6650.0 0.0053105
6670.0 0.0051591
6690.0 0.0046615
6710.0 0.0042374
6730.0 0.0030521
6750.0 0.0030258
6770.0 0.0032889
6790.0 0.0037803
6810.0 0.0034591
6830.0 0.0035619
6850.0 0.0033315
6870.0 0.0030433
6890.0 0.0029221
6910.0 0.0031138
6930.0 0.0029165
6950.0 0.0030006
6970.0 0.0031561
6990.0 0.0035824
7010.0 0.003613
7030.0 0.0036704
7050.0 0.0035003
7070.0 0.0033351
7090.0 0.0033449
7110.0 0.0034417
7130.0 0.0037038
7150.0 0.0039337
7170.0 0.0043405
7190.0 0.0047715
7210.0 0.0046886
7230.0 0.00482
7250.0 0.0051798
7270.0 0.0056447
7290.0 0.0066997
7310.0 0.0072699
7330.0 0.0070269
7350.0 0.0063554
7370.0 0.0055298
7390.0 0.0053646
7410.0 0.0057009
7430.0 0.0063358
7450.0 0.0069009
7470.0 0.0068375
7490.0 0.0062345
7510.0 0.0070621
7530.0 0.0069848
7550.0 0.0062781
7570.0 0.0049044
7590.0 0.0033716
7610.0 0.0028938
7630.0 0.0032879
7650.0 0.0038875
7670.0 0.0048383
7690.0 0.0053242
7710.0 0.0055485
7730.0 0.0058308
7750.0 0.0065457
7770.0 0.0066486
7790.0 0.0061071
7810.0 0.0055724
7830.0 0.0057464
7850.0 0.005586
7870.0 0.0051214
7890.0 0.004303
7910.0 0.0034978
7930.0 0.0033398
7950.0 0.0030427
7970.0 0.0028166
7990.0 0.0028005
8010.0 0.00020741
8030.0 0.00020472
8050.0 0.00020196
8070.0 0.0002046
8090.0 0.00021984
8110.0 0.00021609
8130.0 0.00017825
8150.0 0.00017359
8170.0 0.00014953
8190.0 0.00014171
8210.0 0.00018402
8230.0 0.00020489
8250.0 0.00018466
8270.0 0.00016072
8290.0 0.00015668
8310.0 0.00012058
8330.0 8.1273e-05
8350.0 5.7679e-05
8370.0 3.634e-05
8390.0 6.6429e-05
8410.0 7.7408e-05
8430.0 9.5418e-05
8450.0 0.00011205
8470.0 0.00013927
8490.0 0.00013829
8510.0 0.00013602
8530.0 0.00014196
8550.0 0.00019153
8570.0 0.00022675
8590.0 0.00024466
8610.0 0.00030906
8630.0 0.0003723
8650.0 0.00038947
8670.0 0.00041389
8690.0 0.00041621
8710.0 0.00037693
8730.0 0.00035061
8750.0 0.00030948
8770.0 0.00029365
8790.0 0.00028849
8810.0 0.00027644
8830.0 0.00022106
8850.0 0.00016183
8870.0 0.00012391
8890.0 0.00012114
8910.0 0.00013883
8930.0 0.00015791
8950.0 0.00016094
8970.0 0.0001617
8990.0 0.00014422
9010.0 0.0015113
9030.0 0.0013694
9050.0 0.001376
9070.0 0.0013869
9090.0 0.0013964
9110.0 0.0014082
9130.0 0.0014173
9150.0 0.0014243
9170.0 0.0014318
9190.0 0.0014399
9210.0 0.0014483
9230.0 0.0014573
9250.0 0.0014663
9270.0 0.0014757
9290.0 0.0014854
9310.0 0.0014952
9330.0 0.0015051
9350.0 0.0015154
9370.0 0.0015259
9390.0 0.0015364
9410.0 0.0015473
9430.0 0.0015584
9450.0 0.0015696
9470.0 0.0015809
9490.0 0.0015926
9510.0 0.0016044
9530.0 0.0016163
9550.0 0.0016286
9570.0 0.0016411
9590.0 0.0016537
9610.0 0.0016665
9630.0 0.0016796
9650.0 0.0016928
9670.0 0.001706
9690.0 0.0017196
9710.0 0.0017334
9730.0 0.0017473
9750.0 0.0017613
9770.0 0.0017758
9790.0 0.0017902
9810.0 0.0018047
9830.0 0.0018195
9850.0 0.0018345
9870.0 0.0018495
9890.0 0.0018647
9910.0 0.0018802
9930.0 0.0018956
9950.0 0.0019112
9970.0 0.001927
9990.0 0.0019431
10010.0 0.0016861
10030.0 0.0016999
10050.0 0.001714
10070.0 0.0017286
10090.0 0.0017424
10110.0 0.0017565
10130.0 0.0017707
10150.0 0.0017848
10170.0 0.0017991
10190.0 0.0018136
10210.0 0.001828
10230.0 0.0018423
10250.0 0.0018569
10270.0 0.0018714
10290.0 0.0018858
10310.0 0.0019003
10330.0 0.001915
10350.0 0.0019295
10370.0 0.0019439
10390.0 0.0019584
10410.0 0.0019729
10430.0 0.0019871
10450.0 0.0020015
10470.0 0.0020158
10490.0 0.00203
10510.0 0.002044
10530.0 0.0020583
10550.0 0.0020723
10570.0 0.0020861
10590.0 0.0020999
10610.0 0.0021137
10630.0 0.0021272
10650.0 0.0021405
10670.0 0.002154
10690.0 0.0021673
10710.0 0.0021802
10730.0 0.0021932
10750.0 0.0022062
10770.0 0.0022187
10790.0 0.002231
10810.0 0.0022434
10830.0 0.0022553
10850.0 0.0022667
10870.0 0.0022777
10890.0 0.0022874
10910.0 0.0022949
10930.0 0.0022991
10950.0 0.0022981
10970.0 0.0022903
10990.0 0.002275
11010.0 0.0022495
11030.0 0.0022137
11050.0 0.0021701
11070.0 0.0021179
11090.0 0.0020553
11110.0 0.0019904
11130.0 0.0019228
11150.0 0.00185
11170.0 0.001775
11190.0 0.0017022
11210.0 0.001627
11230.0 0.00155
11250.0 0.0014763
11270.0 0.0014056
11290.0 0.0013347
11310.0 0.0012676
11330.0 0.0012085
11350.0 0.0011526
11370.0 0.001101
11390.0 0.0010564
11410.0 0.0010173
11430.0 0.00098104
11450.0 0.00094977
11470.0 0.00092273
11490.0 0.00089757
11510.0 0.00087333
11530.0 0.00085083
11550.0 0.00082849
11570.0 0.00080464
11590.0 0.00077995
11610.0 0.00075482
11630.0 0.00072747
11650.0 0.00069818
11670.0 0.00066932
11690.0 0.00064005
11710.0 0.00060986
11730.0 0.0005806
11750.0 0.00055353
11770.0 0.00052697
11790.0 0.00050209
11810.0 0.00048018
11830.0 0.00046059
11850.0 0.00044254
11870.0 0.00042745
11890.0 0.0004149
11910.0 0.00040387
11930.0 0.00039439
11950.0 0.0003865
11970.0 0.00037945
11990.0 0.00037278
12010.0 0.00036662
12030.0 0.00036067
12050.0 0.00035453
12070.0 0.00034814
12090.0 0.00034198
12110.0 0.00033573
12130.0 0.00032946
12150.0 0.00032369
12170.0 0.00031864
12190.0 0.00031428
12210.0 0.00031124
12230.0 0.00030977
12250.0 0.00031001
12270.0 0.00031234
12290.0 0.00031676
12310.0 0.0003231
12330.0 0.00033197
12350.0 0.00034304
12370.0 0.00035564
12390.0 0.00037017
12410.0 0.00038719
12430.0 0.0004045
12450.0 0.00042241
12470.0 0.00044147
12490.0 0.0004606
12510.0 0.00047855
12530.0 0.00049641
12550.0 0.00051364
12570.0 0.00052885
12590.0 0.0005422
12610.0 0.0005541
12630.0 0.00056359
12650.0 0.00057013
12670.0 0.00057444
12690.0 0.00057616
12710.0 0.00057521
12730.0 0.00057187
12750.0 0.00056592
12770.0 0.00055776
12790.0 0.00054786
12810.0 0.00053604
12830.0 0.00052236
12850.0 0.00050806
12870.0 0.00049294
12890.0 0.00047657
12910.0 0.00045994
12930.0 0.00044354
12950.0 0.00042643
12970.0 0.00040902
12990.0 0.00039254
13010.0 0.00037627
13030.0 0.00035982
13050.0 0.00034402
13070.0 0.00032922
13090.0 0.00031436
13110.0 0.00029999
13130.0 0.00028674
13150.0 0.00027419
13170.0 0.0002619
13190.0 0.00025097
13210.0 0.00024135
13230.0 0.00023255
13250.0 0.00022498
13270.0 0.000219
13290.0 0.00021436
13310.0 0.00021116
13330.0 0.0002097
13350.0 0.00020987
13370.0 0.00021175
13390.0 0.00021545
13410.0 0.00022044
13430.0 0.00022694
13450.0 0.00023496
13470.0 0.00024387
13490.0 0.00025331
13510.0 0.00026395
13530.0 0.00027473
13550.0 0.00028506
13570.0 0.00029524
13590.0 0.00030516
13610.0 0.00031399
13630.0 0.00032169
13650.0 0.00032873
13670.0 0.00033457
13690.0 0.00033908
13710.0 0.00034258
13730.0 0.00034507
13750.0 0.00034632
13770.0 0.0003466
13790.0 0.00034597
13810.0 0.00034444
13830.0 0.00034219
13850.0 0.00033913
13870.0 0.00033528
13890.0 0.00033087
13910.0 0.0003259
13930.0 0.00032014
13950.0 0.00031386
13970.0 0.00030744
13990.0 0.00030045
14010.0 0.00029301
14030.0 0.00028559
14050.0 0.00027812
14070.0 0.00027022
14090.0 0.00026266
14110.0 0.00025555
14130.0 0.00024867
14150.0 0.00024218
14170.0 0.00023665
14190.0 0.00023186
14210.0 0.0002278
14230.0 0.0002248
14250.0 0.00022285
14270.0 0.00022191
14290.0 0.00022211
14310.0 0.00022335
14330.0 0.00022557
14350.0 0.00022884
14370.0 0.00023292
14390.0 0.00023755
14410.0 0.000243
14430.0 0.00024899
14450.0 0.0002551
14470.0 0.00026145
14490.0 0.00026819
14510.0 0.00027464
14530.0 0.00028077
14550.0 0.00028689
14570.0 0.00029277
14590.0 0.00029813
14610.0 0.0003033
14630.0 0.00030842
14650.0 0.0003132
14670.0 0.0003178
14690.0 0.00032261
14710.0 0.00032766
14730.0 0.00033271
14750.0 0.00033831
14770.0 0.00034465
14790.0 0.00035153
14810.0 0.00035899
14830.0 0.00036782
14850.0 0.00037743
14870.0 0.00038744
14890.0 0.00039825
14910.0 0.00040973
14930.0 0.00042077
14950.0 0.00043108
14970.0 0.00044084
14990.0 0.00044903
15010.0 0.00045529
15030.0 0.00045993
15050.0 0.00046299
15070.0 0.00046449
15090.0 0.00046502
15110.0 0.00046487
15130.0 0.00046428
15150.0 0.0004635
15170.0 0.00046257
15190.0 0.00046157
15210.0 0.00046059
15230.0 0.00045961
15250.0 0.0004586
15270.0 0.00045759
15290.0 0.00045664
15310.0 0.00045567
15330.0 0.00045468
15350.0 0.00045373
15370.0 0.00045279
15390.0 0.0004518
15410.0 0.00045085
15430.0 0.00044992
15450.0 0.00044898
15470.0 0.00044801
15490.0 0.0004471
15510.0 0.00044619
15530.0 0.00044525
15550.0 0.00044433
15570.0 0.00044344
15590.0 0.00044251
15610.0 0.00044157
15630.0 0.00044068
15650.0 0.00043979
15670.0 0.00043887
15690.0 0.00043797
15710.0 0.0004371
15730.0 0.0004362
15750.0 0.00043529
15770.0 0.00043442
15790.0 0.00043355
15810.0 0.00043263
15830.0 0.00043175
15850.0 0.00043089
15870.0 0.00043001
15890.0 0.00042912
15910.0 0.00042827
15930.0 0.0004274
15950.0 0.0004265
15970.0 0.00042563
15990.0 0.00042478
16010.0 0.0004239
16030.0 0.00042301
16050.0 0.00042217
16070.0 0.00042131
16090.0 0.00042043
16110.0 0.00041957
16130.0 0.00041874
16150.0 0.00041784
16170.0 0.00041696
16190.0 0.00041612
16210.0 0.00041526
16230.0 0.00041437
16250.0 0.00041352
16270.0 0.00041268
16290.0 0.00041179
16310.0 0.00041092
16330.0 0.00041008
16350.0 0.00040921
16370.0 0.0004083
16390.0 0.00040745
16410.0 0.0004066
16430.0 0.00040572
16450.0 0.00040484
16470.0 0.000404
16490.0 0.00040312
16510.0 0.00040223
16530.0 0.00040136
16550.0 0.0004005
16570.0 0.0003996
16590.0 0.00039871
16610.0 0.00039786
16630.0 0.00039697
16650.0 0.00039608
16670.0 0.00039521
16690.0 0.00039434
16710.0 0.00039342
16730.0 0.00039253
16750.0 0.00039166
16770.0 0.00039075
16790.0 0.00038983
16810.0 0.00038896
16830.0 0.00038808
16850.0 0.00038715
16870.0 0.00038625
16890.0 0.00038537
16910.0 0.00038445
16930.0 0.00038351
16950.0 0.00038262
16970.0 0.00038171
16990.0 0.00038078
17010.0 0.00037986
17030.0 0.00037897
17050.0 0.00037803
17070.0 0.00037709
17090.0 0.00037618
17110.0 0.00037526
17130.0 0.00037429
17150.0 0.00037336
17170.0 0.00037245
17190.0 0.0003715
17210.0 0.00037055
17230.0 0.00036963
17250.0 0.00036869
17270.0 0.00036771
17290.0 0.00036676
17310.0 0.00036582
17330.0 0.00036485
17350.0 0.00036387
17370.0 0.00036294
17390.0 0.00036198
17410.0 0.000361
17430.0 0.00036004
17450.0 0.00035909
17470.0 0.00035808
17490.0 0.0003571
17510.0 0.00035614
17530.0 0.00035516
17550.0 0.00035415
17570.0 0.00035318
17590.0 0.00035222
17610.0 0.00035121
17630.0 0.00035021
17650.0 0.00034924
17670.0 0.00034824
17690.0 0.0003472
17710.0 0.00034622
17730.0 0.00034523
17750.0 0.00034421
17770.0 0.0003432
17790.0 0.00034222
17810.0 0.0003412
17830.0 0.00034016
17850.0 0.00033916
17870.0 0.00033815
17890.0 0.00033711
17910.0 0.00033607
17930.0 0.00033508
17950.0 0.00033405
17970.0 0.00033301
17990.0 0.000332
18010.0 0.00033098
18030.0 0.00032991
18050.0 0.00032888
18070.0 0.00032786
18090.0 0.00032681
18110.0 0.00032575
18130.0 0.00032473
18150.0 0.0003237
18170.0 0.00032263
18190.0 0.00032159
18210.0 0.00032057
18230.0 0.0003195
18250.0 0.00031842
18270.0 0.00031739
18290.0 0.00031634
18310.0 0.00031527
18330.0 0.00031422
18350.0 0.00031319
18370.0 0.00031211
18390.0 0.00031104
18410.0 0.00031
18430.0 0.00030894
18450.0 0.00030784
18470.0 0.00030678
18490.0 0.00030574
18510.0 0.00030466
18530.0 0.00030358
18550.0 0.00030254
18570.0 0.00030147
18590.0 0.00030037
18610.0 0.0002993
18630.0 0.00029825
18650.0 0.00029716
18670.0 0.00029606
18690.0 0.00029502
18710.0 0.00029395
18730.0 0.00029285
18750.0 0.00029179
18770.0 0.00029074
18790.0 0.00028962
18810.0 0.00028853
18830.0 0.00028748
18850.0 0.0002864
18870.0 0.00028529
18890.0 0.00028423
18910.0 0.00028317
18930.0 0.00028207
18950.0 0.00028098
18970.0 0.00027993
18990.0 0.00027884
19010.0 0.00027771
19030.0 0.00027666
19050.0 0.00027559
19070.0 0.00027449
19090.0 0.0002734
19110.0 0.00027236
19130.0 0.00027126
19150.0 0.00027015
19170.0 0.00026909
19190.0 0.00026801
19210.0 0.0002669
19230.0 0.00026581
19250.0 0.00026476
19270.0 0.00026367
19290.0 0.00026257
19310.0 0.00026151
19330.0 0.00026045
19350.0 0.00025932
19370.0 0.00025824
19390.0 0.00025718
19410.0 0.00025609
19430.0 0.00025499
19450.0 0.00025394
19470.0 0.00025287
19490.0 0.00025176
19510.0 0.00025069
19530.0 0.00024963
19550.0 0.00024853
19570.0 0.00024743
19590.0 0.00024637
19610.0 0.0002453
19630.0 0.0002442
19650.0 0.00024314
19670.0 0.00024209
19690.0 0.00024099
19710.0 0.0002399
19730.0 0.00023885
19750.0 0.00023778
19770.0 0.00023667
19790.0 0.0002356
19810.0 0.00023455
19830.0 0.00023346
19850.0 0.00023237
19870.0 0.00023129
19890.0 0.00023013
19910.0 0.00022887
19930.0 0.00022751
19950.0 0.00022595
19970.0 0.00022404
19990.0 0.00022174
20010.0 0.00019728
20030.0 0.00019443
20050.0 0.00019108
20070.0 0.00018746
20090.0 0.00018357
20110.0 0.00017916
20130.0 0.0001747
20150.0 0.00017028
20170.0 0.0001657
20190.0 0.00016105
20210.0 0.00015666
20230.0 0.00015238
20250.0 0.00014809
20270.0 0.0001441
20290.0 0.00014047
20310.0 0.00013701
20330.0 0.00013378
20350.0 0.0001311
20370.0 0.00012872
20390.0 0.00012664
20410.0 0.00012495
20430.0 0.00012365
20450.0 0.00012262
20470.0 0.00012193
20490.0 0.00012156
20510.0 0.00012146
20530.0 0.00012161
20550.0 0.00012198
20570.0 0.00012253
20590.0 0.00012327
20610.0 0.00012416
20630.0 0.00012515
20650.0 0.00012625
20670.0 0.00012751
20690.0 0.0001288
20710.0 0.00013013
20730.0 0.00013156
20750.0 0.00013306
20770.0 0.00013453
20790.0 0.00013608
20810.0 0.00013771
20830.0 0.00013934
20850.0 0.00014098
20870.0 0.00014273
20890.0 0.00014451
20910.0 0.00014623
20930.0 0.00014802
20950.0 0.00014987
20970.0 0.00015168
20990.0 0.00015346
21010.0 0.00015533
21030.0 0.00015716
21050.0 0.00015891
21070.0 0.00016065
21090.0 0.0001624
21110.0 0.00016399
21130.0 0.00016549
21150.0 0.00016695
21170.0 0.00016826
21190.0 0.00016939
21210.0 0.00017041
21230.0 0.00017125
21250.0 0.00017186
21270.0 0.00017224
21290.0 0.00017238
21310.0 0.00017225
21330.0 0.00017184
21350.0 0.00017113
21370.0 0.00017008
21390.0 0.00016875
21410.0 0.00016712
21430.0 0.00016505
21450.0 0.00016273
21470.0 0.00016021
21490.0 0.00015735
21510.0 0.00015422
21530.0 0.00015104
21550.0 0.0001477
21570.0 0.00014415
21590.0 0.00014065
21610.0 0.00013727
21630.0 0.00013389
21650.0 0.00013058
21670.0 0.00012772
21690.0 0.00012508
21710.0 0.0001227
21730.0 0.00012075
21750.0 0.00011924
21770.0 0.0001181
21790.0 0.00011744
21810.0 0.00011726
21830.0 0.00011752
21850.0 0.00011825
21870.0 0.0001194
21890.0 0.00012088
21910.0 0.00012278
21930.0 0.000125
21950.0 0.00012741
21970.0 0.00013009
21990.0 0.00013308
22010.0 0.00013608
22030.0 0.00013913
22050.0 0.00014232
22070.0 0.00014554
22090.0 0.00014858
22110.0 0.00015165
22130.0 0.00015471
22150.0 0.00015757
22170.0 0.00016027
22190.0 0.00016294
22210.0 0.00016543
22230.0 0.00016762
22250.0 0.00016968
22270.0 0.00017158
22290.0 0.0001732
22310.0 0.00017459
22330.0 0.00017582
22350.0 0.00017677
22370.0 0.00017743
22390.0 0.00017785
22410.0 0.00017798
22430.0 0.00017781
22450.0 0.00017736
22470.0 0.00017656
22490.0 0.00017545
22510.0 0.00017407
22530.0 0.00017229
22550.0 0.00017014
22570.0 0.00016774
22590.0 0.00016505
22610.0 0.00016194
22630.0 0.00015858
22650.0 0.00015511
22670.0 0.00015127
22690.0 0.00014717
22710.0 0.00014304
22730.0 0.00013877
22750.0 0.00013415
22770.0 0.00012964
22790.0 0.00012523
22810.0 0.0001207
22830.0 0.00011619
22850.0 0.00011196
22870.0 0.00010782
22890.0 0.0001037
22910.0 9.99e-05
22930.0 9.642e-05
22950.0 9.3104e-05
22970.0 9.0037e-05
22990.0 8.7495e-05
