#lamb flux
1010.0 1.0072e-05
1030.0 1.3244e-05
1050.0 1.728e-05
1070.0 2.232e-05
1090.0 2.8638e-05
1110.0 3.5983e-05
1130.0 4.4331e-05
1150.0 5.3958e-05
1170.0 6.4833e-05
1190.0 7.6322e-05
1210.0 8.8701e-05
1230.0 0.00010197
1250.0 0.00011547
1270.0 0.00012878
1290.0 0.00014227
1310.0 0.0001551
1330.0 0.00016647
1350.0 0.00017652
1370.0 0.00018514
1390.0 0.00019154
1410.0 0.00019554
1430.0 0.00019778
1450.0 0.00019786
1470.0 0.00019565
1490.0 0.00019175
1510.0 0.00018666
1530.0 0.0001799
1550.0 0.00017213
1570.0 0.00016394
1590.0 0.00015537
1610.0 0.00014649
1630.0 0.00013788
1650.0 0.00012966
1670.0 0.00012173
1690.0 0.0001143
1710.0 0.0001076
1730.0 0.00010154
1750.0 9.597e-05
1770.0 9.1146e-05
1790.0 8.7011e-05
1810.0 8.3433e-05
1830.0 8.0429e-05
1850.0 7.8111e-05
1870.0 7.6282e-05
1890.0 7.4914e-05
1910.0 7.4069e-05
1930.0 7.3726e-05
1950.0 7.3754e-05
1970.0 7.4191e-05
1990.0 7.509e-05
2010.0 7.6357e-05
2030.0 7.7952e-05
2050.0 7.996e-05
2070.0 8.2365e-05
2090.0 8.5034e-05
2110.0 8.8039e-05
2130.0 9.1422e-05
2150.0 9.51e-05
2170.0 9.9024e-05
2190.0 0.00010331
2210.0 0.00010791
2230.0 0.00011272
2250.0 0.00011779
2270.0 0.00012321
2290.0 0.00012882
2310.0 0.00013458
2330.0 0.00014061
2350.0 0.00014686
2370.0 0.00015318
2390.0 0.00015966
2410.0 0.00016635
2430.0 0.00017306
2450.0 0.00017979
2470.0 0.0001867
2490.0 0.00019384
2510.0 0.00020117
2530.0 0.00020922
2550.0 0.00021867
2570.0 0.00023011
2590.0 0.00024437
2610.0 0.00026399
2630.0 0.00029009
2650.0 0.00032273
2670.0 0.00036407
2690.0 0.00041573
2710.0 0.0004742
2730.0 0.00053725
2750.0 0.00060676
2770.0 0.00067627
2790.0 0.00074011
2810.0 0.00079842
2830.0 0.00085066
2850.0 0.00089037
2870.0 0.00092129
2890.0 0.00094626
2910.0 0.00096543
2930.0 0.00097937
2950.0 0.00099134
2970.0 0.0010017
2990.0 0.0010095
3010.0 0.0010157
3030.0 0.0010217
3050.0 0.0010266
3070.0 0.0010292
3090.0 0.0010315
3110.0 0.0010335
3130.0 0.0010349
3150.0 0.0010276
3170.0 0.001027
3190.0 0.0010315
3210.0 0.001045
3230.0 0.0010753
3250.0 0.0011399
3270.0 0.001231
3290.0 0.0013264
3310.0 0.0014221
3330.0 0.0014489
3350.0 0.0014564
3370.0 0.0014629
3390.0 0.0014673
3410.0 0.0014652
3430.0 0.0014583
3450.0 0.0014513
3470.0 0.0014497
3490.0 0.0014348
3510.0 0.0013751
3530.0 0.0012654
3550.0 0.0012093
3570.0 0.0013744
3590.0 0.0016024
3610.0 0.0017739
3630.0 0.0020235
3650.0 0.0019873
3670.0 0.0017208
3690.0 0.0014704
3710.0 0.0013717
3730.0 0.001412
3750.0 0.0014438
3770.0 0.0014808
3790.0 0.001519
3810.0 0.0015702
3830.0 0.0014494
3850.0 0.001284
3870.0 0.0012014
3890.0 0.0012733
3910.0 0.0013216
3930.0 0.001327
3950.0 0.0014006
3970.0 0.0014902
3990.0 0.001506
4010.0 0.0015328
4030.0 0.0014826
4050.0 0.0014417
4070.0 0.0014161
4090.0 0.0014293
4110.0 0.0014492
4130.0 0.0014186
4150.0 0.0013662
4170.0 0.0013496
4190.0 0.0013383
4210.0 0.0012489
4230.0 0.0011536
4250.0 0.0010412
4270.0 0.00093987
4290.0 0.00090762
4310.0 0.00089478
4330.0 0.00092395
4350.0 0.0010246
4370.0 0.0010744
4390.0 0.0011888
4410.0 0.001281
4430.0 0.0013185
4450.0 0.0012269
4470.0 0.0011264
4490.0 0.001101
4510.0 0.0010837
4530.0 0.0010848
4550.0 0.0010831
4570.0 0.0011015
4590.0 0.0011438
4610.0 0.0011708
4630.0 0.0011971
4650.0 0.0012094
4670.0 0.0012042
4690.0 0.0011365
4710.0 0.0010731
4730.0 0.0010222
4750.0 0.00099507
4770.0 0.0009611
4790.0 0.00096617
4810.0 0.00094983
4830.0 0.00090113
4850.0 0.00095908
4870.0 0.00091532
4890.0 0.00093227
4910.0 0.00094147
4930.0 0.0008955
4950.0 0.0007721
4970.0 0.00072233
4990.0 0.00068355
5010.0 0.00063728
5030.0 0.0006373
5050.0 0.00068395
5070.0 0.00070254
5090.0 0.00073567
5110.0 0.0007482
5130.0 0.00074561
5150.0 0.00075864
5170.0 0.00072985
5190.0 0.00072506
5210.0 0.00073834
5230.0 0.00070837
5250.0 0.00072445
5270.0 0.00076388
5290.0 0.00075119
5310.0 0.00071062
5330.0 0.00068912
5350.0 0.00064568
5370.0 0.00063283
5390.0 0.00062622
5410.0 0.00061136
5430.0 0.00062269
5450.0 0.00059903
5470.0 0.00059955
5490.0 0.00066213
5510.0 0.0006725
5530.0 0.00067205
5550.0 0.00066877
5570.0 0.00068072
5590.0 0.00068601
5610.0 0.00067716
5630.0 0.00066783
5650.0 0.00065801
5670.0 0.0006452
5690.0 0.00063229
5710.0 0.00061561
5730.0 0.00062497
5750.0 0.00060452
5770.0 0.00057588
5790.0 0.00055769
5810.0 0.00052187
5830.0 0.00053968
5850.0 0.0005554
5870.0 0.00055277
5890.0 0.000556
5910.0 0.00057814
5930.0 0.00057684
5950.0 0.00057849
5970.0 0.00057982
5990.0 0.0005858
6010.0 0.00057291
6030.0 0.00056508
6050.0 0.00055787
6070.0 0.00054789
6090.0 0.00055492
6110.0 0.00054837
6130.0 0.00053013
6150.0 0.00051729
6170.0 0.0005046
6190.0 0.00046498
6210.0 0.00045838
6230.0 0.00046258
6250.0 0.00045758
6270.0 0.00045609
6290.0 0.00046713
6310.0 0.00048013
6330.0 0.00047986
6350.0 0.00047124
6370.0 0.0004714
6390.0 0.00045274
6410.0 0.00044978
6430.0 0.00043665
6450.0 0.00043378
6470.0 0.00043216
6490.0 0.0004329
6510.0 0.00041849
6530.0 0.00041573
6550.0 0.00040963
6570.0 0.00039988
6590.0 0.00040721
6610.0 0.00040648
6630.0 0.00039923
6650.0 0.00038595
6670.0 0.00037873
6690.0 0.00037022
6710.0 0.0003599
6730.0 0.00035518
6750.0 0.00035753
6770.0 0.00036561
6790.0 0.00036184
6810.0 0.00035975
6830.0 0.00034528
6850.0 0.00032794
6870.0 0.00032219
6890.0 0.00031973
6910.0 0.00031932
6930.0 0.00031475
6950.0 0.00031856
6970.0 0.0003104
6990.0 0.00030683
7010.0 0.00030619
7030.0 0.00030999
7050.0 0.00030527
7070.0 0.00028795
7090.0 0.00027463
7110.0 0.00027409
7130.0 0.00027822
7150.0 0.00027966
7170.0 0.00027929
7190.0 0.00027392
7210.0 0.00028669
7230.0 0.0002965
7250.0 0.00029763
7270.0 0.00029683
7290.0 0.0003027
7310.0 0.00029528
7330.0 0.00028878
7350.0 0.00027851
7370.0 0.00028002
7390.0 0.0002868
7410.0 0.00027093
7430.0 0.00027404
7450.0 0.00027052
7470.0 0.00027917
7490.0 0.00027521
7510.0 0.0002615
7530.0 0.0002677
7550.0 0.00024556
7570.0 0.00023971
7590.0 0.00023901
7610.0 0.00024945
7630.0 0.00024878
7650.0 0.0002584
7670.0 0.00023936
7690.0 0.00023286
7710.0 0.0002418
7730.0 0.00025733
7750.0 0.00025061
7770.0 0.00026322
7790.0 0.00026496
7810.0 0.00026412
7830.0 0.0002811
7850.0 0.0002685
7870.0 0.00028531
7890.0 0.00027604
7910.0 0.0002722
7930.0 0.00026146
7950.0 0.00025798
7970.0 0.00026452
7990.0 0.00025821
8010.0 0.00024828
8030.0 0.00024584
8050.0 0.00024088
8070.0 0.00023647
8090.0 0.00021928
8110.0 0.00022023
8130.0 0.00023331
8150.0 0.00024146
8170.0 0.00024286
8190.0 0.00024968
8210.0 0.00024527
8230.0 0.00023946
8250.0 0.00023876
8270.0 0.00023417
8290.0 0.00022939
8310.0 0.00021831
8330.0 0.00021878
8350.0 0.00022133
8370.0 0.00022271
8390.0 0.00022285
8410.0 0.00021974
8430.0 0.00021735
8450.0 0.00021745
8470.0 0.00022447
8490.0 0.00022713
8510.0 0.00021911
8530.0 0.0002109
8550.0 0.00021059
8570.0 0.00020621
8590.0 0.00020167
8610.0 0.00020549
8630.0 0.00020463
8650.0 0.00020244
8670.0 0.00020098
8690.0 0.00019895
8710.0 0.00018995
8730.0 0.00019097
8750.0 0.00018606
8770.0 0.00018664
8790.0 0.00018351
8810.0 0.00017922
8830.0 0.00018009
8850.0 0.00017924
8870.0 0.00017088
8890.0 0.00016553
8910.0 0.00015918
8930.0 0.00015051
8950.0 0.00014763
8970.0 0.00014134
8990.0 0.00013933
9010.0 0.00013526
9030.0 0.00013386
9050.0 0.00013301
9070.0 0.00013217
9090.0 0.00013133
9110.0 0.00013047
9130.0 0.00012961
9150.0 0.00012877
9170.0 0.00012791
9190.0 0.00012705
9210.0 0.00012618
9230.0 0.00012531
9250.0 0.00012444
9270.0 0.00012357
9290.0 0.00012269
9310.0 0.00012182
9330.0 0.00012096
9350.0 0.0001201
9370.0 0.00011924
9390.0 0.00011838
9410.0 0.00011753
9430.0 0.00011667
9450.0 0.00011581
9470.0 0.00011504
9490.0 0.00011422
9510.0 0.00011333
9530.0 0.00011244
9550.0 0.00011158
9570.0 0.00011073
9590.0 0.00010988
9610.0 0.00010906
9630.0 0.00010824
9650.0 0.00010742
9670.0 0.00010661
9690.0 0.0001058
9710.0 0.000105
9730.0 0.0001042
9750.0 0.00010341
9770.0 0.00010263
9790.0 0.00010185
9810.0 0.00010107
9830.0 0.0001003
9850.0 9.9469e-05
9870.0 9.8642e-05
9890.0 9.7958e-05
9910.0 9.7261e-05
9930.0 9.6421e-05
9950.0 9.5693e-05
9970.0 9.5033e-05
9990.0 9.4357e-05
10010.0 9.3686e-05
10030.0 9.3006e-05
10050.0 9.2318e-05
10070.0 9.1642e-05
10090.0 9.0975e-05
10110.0 9.0304e-05
10130.0 8.9642e-05
10150.0 8.8997e-05
10170.0 8.8356e-05
10190.0 8.7717e-05
10210.0 8.7094e-05
10230.0 8.6482e-05
10250.0 8.587e-05
10270.0 8.5268e-05
10290.0 8.4681e-05
10310.0 8.4096e-05
10330.0 8.3512e-05
10350.0 8.2946e-05
10370.0 8.2389e-05
10390.0 8.183e-05
10410.0 8.1249e-05
10430.0 8.0673e-05
10450.0 8.0183e-05
10470.0 7.9676e-05
10490.0 7.9179e-05
10510.0 7.8688e-05
10530.0 7.8184e-05
10550.0 7.7695e-05
10570.0 7.7222e-05
10590.0 7.6747e-05
10610.0 7.6275e-05
10630.0 7.5823e-05
10650.0 7.5376e-05
10670.0 7.4924e-05
10690.0 7.4486e-05
10710.0 7.4062e-05
10730.0 7.3637e-05
10750.0 7.3211e-05
10770.0 7.2809e-05
10790.0 7.2411e-05
10810.0 7.2011e-05
10830.0 7.1622e-05
10850.0 7.125e-05
10870.0 7.0867e-05
10890.0 7.0492e-05
10910.0 7.0134e-05
10930.0 6.9779e-05
10950.0 6.942e-05
10970.0 6.9072e-05
10990.0 6.8737e-05
11010.0 7.761e-05
11030.0 7.718e-05
11050.0 7.6713e-05
11070.0 7.6205e-05
11090.0 7.5644e-05
11110.0 7.5079e-05
11130.0 7.4506e-05
11150.0 7.3908e-05
11170.0 7.3302e-05
11190.0 7.2713e-05
11210.0 7.2111e-05
11230.0 7.1498e-05
11250.0 7.0906e-05
11270.0 7.0329e-05
11290.0 6.9747e-05
11310.0 6.9181e-05
11330.0 6.8662e-05
11350.0 6.8156e-05
11370.0 6.7666e-05
11390.0 6.7216e-05
11410.0 6.6797e-05
11430.0 6.6382e-05
11450.0 6.5998e-05
11470.0 6.5642e-05
11490.0 6.5295e-05
11510.0 6.4951e-05
11530.0 6.4628e-05
11550.0 6.4312e-05
11570.0 6.3986e-05
11590.0 6.3662e-05
11610.0 6.3345e-05
11630.0 6.3012e-05
11650.0 6.2664e-05
11670.0 6.2325e-05
11690.0 6.198e-05
11710.0 6.1615e-05
11730.0 6.1247e-05
11750.0 6.0889e-05
11770.0 6.0512e-05
11790.0 6.0126e-05
11810.0 5.9753e-05
11830.0 5.9381e-05
11850.0 5.8992e-05
11870.0 5.8622e-05
11890.0 5.8273e-05
11910.0 5.7925e-05
11930.0 5.7588e-05
11950.0 5.7284e-05
11970.0 5.6996e-05
11990.0 5.6718e-05
12010.0 5.6474e-05
12030.0 5.6261e-05
12050.0 5.6067e-05
12070.0 5.5898e-05
12090.0 5.5768e-05
12110.0 5.5661e-05
12130.0 5.5575e-05
12150.0 5.5516e-05
12170.0 5.548e-05
12190.0 5.5456e-05
12210.0 5.5446e-05
12230.0 5.5448e-05
12250.0 5.5452e-05
12270.0 5.5454e-05
12290.0 5.5451e-05
12310.0 5.5439e-05
12330.0 5.5408e-05
12350.0 5.5358e-05
12370.0 5.5289e-05
12390.0 5.5195e-05
12410.0 5.5062e-05
12430.0 5.491e-05
12450.0 5.4732e-05
12470.0 5.4517e-05
12490.0 5.4272e-05
12510.0 5.4014e-05
12530.0 5.3719e-05
12550.0 5.339e-05
12570.0 5.305e-05
12590.0 5.2695e-05
12610.0 5.2302e-05
12630.0 5.1893e-05
12650.0 5.1497e-05
12670.0 5.1077e-05
12690.0 5.064e-05
12710.0 5.0216e-05
12730.0 4.9796e-05
12750.0 4.9351e-05
12770.0 4.8923e-05
12790.0 4.8517e-05
12810.0 4.811e-05
12830.0 4.7704e-05
12850.0 4.7335e-05
12870.0 4.6983e-05
12890.0 4.6636e-05
12910.0 4.6316e-05
12930.0 4.603e-05
12950.0 4.5757e-05
12970.0 4.5507e-05
12990.0 4.5299e-05
13010.0 4.512e-05
13030.0 4.4965e-05
13050.0 4.4843e-05
13070.0 4.4755e-05
13090.0 4.4688e-05
13110.0 4.4645e-05
13130.0 4.4623e-05
13150.0 4.4616e-05
13170.0 4.4618e-05
13190.0 4.4625e-05
13210.0 4.4632e-05
13230.0 4.4634e-05
13250.0 4.4626e-05
13270.0 4.4606e-05
13290.0 4.457e-05
13310.0 4.4513e-05
13330.0 4.4437e-05
13350.0 4.4342e-05
13370.0 4.4221e-05
13390.0 4.4071e-05
13410.0 4.3908e-05
13430.0 4.3717e-05
13450.0 4.3496e-05
13470.0 4.3256e-05
13490.0 4.3002e-05
13510.0 4.2708e-05
13530.0 4.2398e-05
13550.0 4.2081e-05
13570.0 4.1744e-05
13590.0 4.1382e-05
13610.0 4.1019e-05
13630.0 4.0656e-05
13650.0 4.0267e-05
13670.0 3.9873e-05
13690.0 3.9486e-05
13710.0 3.9087e-05
13730.0 3.8664e-05
13750.0 3.826e-05
13770.0 3.7856e-05
13790.0 3.7438e-05
13810.0 3.702e-05
13830.0 3.6621e-05
13850.0 3.6211e-05
13870.0 3.5796e-05
13890.0 3.5399e-05
13910.0 3.5012e-05
13930.0 3.4616e-05
13950.0 3.4231e-05
13970.0 3.3873e-05
13990.0 3.3515e-05
14010.0 3.3163e-05
14030.0 3.2832e-05
14050.0 3.2515e-05
14070.0 3.2195e-05
14090.0 3.1895e-05
14110.0 3.1614e-05
14130.0 3.1339e-05
14150.0 3.1069e-05
14170.0 3.0821e-05
14190.0 3.0581e-05
14210.0 3.0342e-05
14230.0 3.0113e-05
14250.0 2.9896e-05
14270.0 2.9677e-05
14290.0 2.946e-05
14310.0 2.9256e-05
14330.0 2.9055e-05
14350.0 2.8853e-05
14370.0 2.8659e-05
14390.0 2.8474e-05
14410.0 2.8287e-05
14430.0 2.8104e-05
14450.0 2.793e-05
14470.0 2.7759e-05
14490.0 2.7585e-05
14510.0 2.7419e-05
14530.0 2.7258e-05
14550.0 2.7095e-05
14570.0 2.6932e-05
14590.0 2.6773e-05
14610.0 2.6612e-05
14630.0 2.6446e-05
14650.0 2.6283e-05
14670.0 2.612e-05
14690.0 2.5951e-05
14710.0 2.5779e-05
14730.0 2.5613e-05
14750.0 2.5442e-05
14770.0 2.5265e-05
14790.0 2.5089e-05
14810.0 2.4913e-05
14830.0 2.4726e-05
14850.0 2.4539e-05
14870.0 2.4354e-05
14890.0 2.4166e-05
14910.0 2.3973e-05
14930.0 2.3788e-05
14950.0 2.361e-05
14970.0 2.3434e-05
14990.0 2.327e-05
15010.0 2.3121e-05
15030.0 2.2982e-05
15050.0 2.2849e-05
15070.0 2.2731e-05
15090.0 2.2619e-05
15110.0 2.2509e-05
15130.0 2.2402e-05
15150.0 2.2299e-05
15170.0 2.2195e-05
15190.0 2.209e-05
15210.0 2.1987e-05
15230.0 2.1885e-05
15250.0 2.178e-05
15270.0 2.1676e-05
15290.0 2.1575e-05
15310.0 2.1471e-05
15330.0 2.1367e-05
15350.0 2.1265e-05
15370.0 2.1163e-05
15390.0 2.1059e-05
15410.0 2.0956e-05
15430.0 2.0854e-05
15450.0 2.0751e-05
15470.0 2.0647e-05
15490.0 2.0546e-05
15510.0 2.0445e-05
15530.0 2.0342e-05
15550.0 2.024e-05
15570.0 2.0139e-05
15590.0 2.0037e-05
15610.0 1.9934e-05
15630.0 1.9834e-05
15650.0 1.9733e-05
15670.0 1.9631e-05
15690.0 1.9531e-05
15710.0 1.9432e-05
15730.0 1.9331e-05
15750.0 1.923e-05
15770.0 1.9131e-05
15790.0 1.9032e-05
15810.0 1.8931e-05
15830.0 1.8832e-05
15850.0 1.8735e-05
15870.0 1.8636e-05
15890.0 1.8537e-05
15910.0 1.844e-05
15930.0 1.8343e-05
15950.0 1.8244e-05
15970.0 1.8147e-05
15990.0 1.8051e-05
16010.0 1.7954e-05
16030.0 1.7857e-05
16050.0 1.7762e-05
16070.0 1.7667e-05
16090.0 1.7571e-05
16110.0 1.7477e-05
16130.0 1.7384e-05
16150.0 1.7288e-05
16170.0 1.7194e-05
16190.0 1.7102e-05
16210.0 1.7009e-05
16230.0 1.6915e-05
16250.0 1.6823e-05
16270.0 1.6733e-05
16290.0 1.664e-05
16310.0 1.6549e-05
16330.0 1.646e-05
16350.0 1.6369e-05
16370.0 1.6278e-05
16390.0 1.6189e-05
16410.0 1.6101e-05
16430.0 1.6012e-05
16450.0 1.5924e-05
16470.0 1.5838e-05
16490.0 1.575e-05
16510.0 1.5662e-05
16530.0 1.5577e-05
16550.0 1.5491e-05
16570.0 1.5405e-05
16590.0 1.5319e-05
16610.0 1.5236e-05
16630.0 1.5152e-05
16650.0 1.5068e-05
16670.0 1.4986e-05
16690.0 1.4904e-05
16710.0 1.4821e-05
16730.0 1.4739e-05
16750.0 1.4659e-05
16770.0 1.4578e-05
16790.0 1.4497e-05
16810.0 1.4419e-05
16830.0 1.434e-05
16850.0 1.4261e-05
16870.0 1.4183e-05
16890.0 1.4106e-05
16910.0 1.4028e-05
16930.0 1.3951e-05
16950.0 1.3876e-05
16970.0 1.38e-05
16990.0 1.3724e-05
17010.0 1.365e-05
17030.0 1.3577e-05
17050.0 1.3503e-05
17070.0 1.343e-05
17090.0 1.3358e-05
17110.0 1.3286e-05
17130.0 1.3213e-05
17150.0 1.3143e-05
17170.0 1.3073e-05
17190.0 1.3003e-05
17210.0 1.2933e-05
17230.0 1.2865e-05
17250.0 1.2797e-05
17270.0 1.2728e-05
17290.0 1.2661e-05
17310.0 1.2595e-05
17330.0 1.2528e-05
17350.0 1.2461e-05
17370.0 1.2397e-05
17390.0 1.2332e-05
17410.0 1.2267e-05
17430.0 1.2204e-05
17450.0 1.2142e-05
17470.0 1.2077e-05
17490.0 1.2015e-05
17510.0 1.1954e-05
17530.0 1.1892e-05
17550.0 1.1831e-05
17570.0 1.1771e-05
17590.0 1.1712e-05
17610.0 1.1652e-05
17630.0 1.1593e-05
17650.0 1.1535e-05
17670.0 1.1477e-05
17690.0 1.1418e-05
17710.0 1.1362e-05
17730.0 1.1306e-05
17750.0 1.1249e-05
17770.0 1.1193e-05
17790.0 1.114e-05
17810.0 1.1084e-05
17830.0 1.1029e-05
17850.0 1.0976e-05
17870.0 1.0923e-05
17890.0 1.0869e-05
17910.0 1.0816e-05
17930.0 1.0765e-05
17950.0 1.0714e-05
17970.0 1.0662e-05
17990.0 1.0612e-05
18010.0 1.0562e-05
18030.0 1.0511e-05
18050.0 1.0461e-05
18070.0 1.0413e-05
18090.0 1.0364e-05
18110.0 1.0315e-05
18130.0 1.0268e-05
18150.0 1.0221e-05
18170.0 1.0173e-05
18190.0 1.0127e-05
18210.0 1.0081e-05
18230.0 1.0035e-05
18250.0 9.9881e-06
18270.0 9.9439e-06
18290.0 9.8994e-06
18310.0 9.8541e-06
18330.0 9.8103e-06
18350.0 9.7678e-06
18370.0 9.7236e-06
18390.0 9.6801e-06
18410.0 9.6382e-06
18430.0 9.5961e-06
18450.0 9.5526e-06
18470.0 9.5113e-06
18490.0 9.4709e-06
18510.0 9.4294e-06
18530.0 9.3883e-06
18550.0 9.3491e-06
18570.0 9.309e-06
18590.0 9.268e-06
18610.0 9.2288e-06
18630.0 9.1903e-06
18650.0 9.1507e-06
18670.0 9.1114e-06
18690.0 9.0744e-06
18710.0 9.0364e-06
18730.0 8.9979e-06
18750.0 8.9609e-06
18770.0 8.9246e-06
18790.0 8.8862e-06
18810.0 8.8491e-06
18830.0 8.8135e-06
18850.0 8.7773e-06
18870.0 8.7404e-06
18890.0 8.7053e-06
18910.0 8.6707e-06
18930.0 8.6345e-06
18950.0 8.5993e-06
18970.0 8.5654e-06
18990.0 8.5306e-06
19010.0 8.4945e-06
19030.0 8.4612e-06
19050.0 8.4278e-06
19070.0 8.3933e-06
19090.0 8.3596e-06
19110.0 8.3276e-06
19130.0 8.2936e-06
19150.0 8.2597e-06
19170.0 8.2275e-06
19190.0 8.1952e-06
19210.0 8.1615e-06
19230.0 8.1288e-06
19250.0 8.0978e-06
19270.0 8.0654e-06
19290.0 8.0329e-06
19310.0 8.002e-06
19330.0 7.9709e-06
19350.0 7.9377e-06
19370.0 7.9064e-06
19390.0 7.8759e-06
19410.0 7.8443e-06
19430.0 7.8124e-06
19450.0 7.7826e-06
19470.0 7.7521e-06
19490.0 7.7205e-06
19510.0 7.6901e-06
19530.0 7.6605e-06
19550.0 7.6291e-06
19570.0 7.5976e-06
19590.0 7.5683e-06
19610.0 7.5383e-06
19630.0 7.5073e-06
19650.0 7.4776e-06
19670.0 7.4487e-06
19690.0 7.4178e-06
19710.0 7.3873e-06
19730.0 7.3582e-06
19750.0 7.3285e-06
19770.0 7.2971e-06
19790.0 7.2677e-06
19810.0 7.239e-06
19830.0 7.2087e-06
19850.0 7.1788e-06
19870.0 7.1506e-06
19890.0 7.1214e-06
19910.0 7.0918e-06
19930.0 7.0652e-06
19950.0 7.0406e-06
19970.0 7.0173e-06
19990.0 6.9976e-06
20010.0 6.9832e-06
20030.0 6.972e-06
20050.0 6.9645e-06
20070.0 6.9614e-06
20090.0 6.9615e-06
20110.0 6.9635e-06
20130.0 6.9678e-06
20150.0 6.9737e-06
20170.0 6.9805e-06
20190.0 6.9879e-06
20210.0 6.996e-06
20230.0 7.0044e-06
20250.0 7.0128e-06
20270.0 7.0212e-06
20290.0 7.0297e-06
20310.0 7.0377e-06
20330.0 7.0452e-06
20350.0 7.0526e-06
20370.0 7.0594e-06
20390.0 7.0654e-06
20410.0 7.0709e-06
20430.0 7.0763e-06
20450.0 7.0806e-06
20470.0 7.0845e-06
20490.0 7.0885e-06
20510.0 7.0923e-06
20530.0 7.0956e-06
20550.0 7.0993e-06
20570.0 7.1035e-06
20590.0 7.1075e-06
20610.0 7.1118e-06
20630.0 7.1169e-06
20650.0 7.122e-06
20670.0 7.127e-06
20690.0 7.1325e-06
20710.0 7.1381e-06
20730.0 7.1432e-06
20750.0 7.1478e-06
20770.0 7.1523e-06
20790.0 7.1558e-06
20810.0 7.1579e-06
20830.0 7.1592e-06
20850.0 7.1594e-06
20870.0 7.1574e-06
20890.0 7.1538e-06
20910.0 7.1495e-06
20930.0 7.1434e-06
20950.0 7.1354e-06
20970.0 7.1267e-06
20990.0 7.1172e-06
21010.0 7.1056e-06
21030.0 7.0934e-06
21050.0 7.0814e-06
21070.0 7.0685e-06
21090.0 7.0543e-06
21110.0 7.0412e-06
21130.0 7.0283e-06
21150.0 7.0143e-06
21170.0 7.0004e-06
21190.0 6.9874e-06
21210.0 6.9732e-06
21230.0 6.9581e-06
21250.0 6.9436e-06
21270.0 6.9288e-06
21290.0 6.9122e-06
21310.0 6.8951e-06
21330.0 6.8782e-06
21350.0 6.8594e-06
21370.0 6.8388e-06
21390.0 6.8182e-06
21410.0 6.7964e-06
21430.0 6.7714e-06
21450.0 6.7462e-06
21470.0 6.7208e-06
21490.0 6.6932e-06
21510.0 6.6638e-06
21530.0 6.6349e-06
21550.0 6.6048e-06
21570.0 6.5721e-06
21590.0 6.5395e-06
21610.0 6.5071e-06
21630.0 6.4727e-06
21650.0 6.4364e-06
21670.0 6.4023e-06
21690.0 6.367e-06
21710.0 6.3299e-06
21730.0 6.2931e-06
21750.0 6.2573e-06
21770.0 6.2183e-06
21790.0 6.1792e-06
21810.0 6.141e-06
21830.0 6.1019e-06
21850.0 6.0607e-06
21870.0 6.0202e-06
21890.0 5.9805e-06
21910.0 5.9387e-06
21930.0 5.8964e-06
21950.0 5.8554e-06
21970.0 5.8137e-06
21990.0 5.7698e-06
22010.0 5.7283e-06
22030.0 5.6875e-06
22050.0 5.6459e-06
22070.0 5.6049e-06
22090.0 5.5664e-06
22110.0 5.5279e-06
22130.0 5.4894e-06
22150.0 5.4532e-06
22170.0 5.4185e-06
22190.0 5.3835e-06
22210.0 5.3499e-06
22230.0 5.3188e-06
22250.0 5.288e-06
22270.0 5.2576e-06
22290.0 5.2289e-06
22310.0 5.201e-06
22330.0 5.1725e-06
22350.0 5.1448e-06
22370.0 5.1179e-06
22390.0 5.0907e-06
22410.0 5.0628e-06
22430.0 5.0357e-06
22450.0 5.0085e-06
22470.0 4.9802e-06
22490.0 4.9518e-06
22510.0 4.9236e-06
22530.0 4.8943e-06
22550.0 4.8642e-06
22570.0 4.8345e-06
22590.0 4.8044e-06
22610.0 4.7734e-06
22630.0 4.7423e-06
22650.0 4.7117e-06
22670.0 4.6803e-06
22690.0 4.6486e-06
