#lamb flux
1010.0 1.3916e-06
1030.0 1.5613e-06
1050.0 1.7566e-06
1070.0 1.9764e-06
1090.0 2.226e-06
1110.0 2.4821e-06
1130.0 2.7398e-06
1150.0 3.0098e-06
1170.0 3.2882e-06
1190.0 3.5523e-06
1210.0 3.8199e-06
1230.0 4.0965e-06
1250.0 4.3674e-06
1270.0 4.6305e-06
1290.0 4.9086e-06
1310.0 5.1864e-06
1330.0 5.4528e-06
1350.0 5.7222e-06
1370.0 6.0004e-06
1390.0 6.2715e-06
1410.0 6.5346e-06
1430.0 6.8097e-06
1450.0 7.0846e-06
1470.0 7.3503e-06
1490.0 7.6188e-06
1510.0 7.9024e-06
1530.0 8.171e-06
1550.0 8.4359e-06
1570.0 8.7098e-06
1590.0 8.9839e-06
1610.0 9.2456e-06
1630.0 9.5152e-06
1650.0 9.7917e-06
1670.0 1.0059e-05
1690.0 1.0322e-05
1710.0 1.0595e-05
1730.0 1.087e-05
1750.0 1.1127e-05
1770.0 1.1391e-05
1790.0 1.166e-05
1810.0 1.192e-05
1830.0 1.2173e-05
1850.0 1.2442e-05
1870.0 1.2702e-05
1890.0 1.2951e-05
1910.0 1.3204e-05
1930.0 1.3462e-05
1950.0 1.3704e-05
1970.0 1.3941e-05
1990.0 1.4185e-05
2010.0 1.4422e-05
2030.0 1.4645e-05
2050.0 1.4872e-05
2070.0 1.5101e-05
2090.0 1.5311e-05
2110.0 1.5514e-05
2130.0 1.572e-05
2150.0 1.5914e-05
2170.0 1.609e-05
2190.0 1.6269e-05
2210.0 1.6442e-05
2230.0 1.6597e-05
2250.0 1.6742e-05
2270.0 1.6888e-05
2290.0 1.7018e-05
2310.0 1.7128e-05
2330.0 1.7235e-05
2350.0 1.7336e-05
2370.0 1.7419e-05
2390.0 1.7499e-05
2410.0 1.7593e-05
2430.0 1.7688e-05
2450.0 1.7794e-05
2470.0 1.794e-05
2490.0 1.8134e-05
2510.0 1.8359e-05
2530.0 1.8671e-05
2550.0 1.9151e-05
2570.0 1.9867e-05
2590.0 2.0933e-05
2610.0 2.2686e-05
2630.0 2.5232e-05
2650.0 2.8471e-05
2670.0 3.2481e-05
2690.0 3.7133e-05
2710.0 4.174e-05
2730.0 4.5925e-05
2750.0 4.9706e-05
2770.0 5.2622e-05
2790.0 5.4577e-05
2810.0 5.5829e-05
2830.0 5.6544e-05
2850.0 5.6719e-05
2870.0 5.6611e-05
2890.0 5.636e-05
2910.0 5.6005e-05
2930.0 5.5575e-05
2950.0 5.5149e-05
2970.0 5.4732e-05
2990.0 5.4304e-05
3010.0 0.0014071
3030.0 0.0013965
3050.0 0.001386
3070.0 0.0013747
3090.0 0.001363
3110.0 0.0013494
3130.0 0.0013323
3150.0 0.0013109
3170.0 0.0012833
3190.0 0.00125
3210.0 0.0012135
3230.0 0.0011757
3250.0 0.0011408
3270.0 0.0011157
3290.0 0.0011015
3310.0 0.0011028
3330.0 0.001118
3350.0 0.001145
3370.0 0.0011842
3390.0 0.0012342
3410.0 0.0012892
3430.0 0.0013515
3450.0 0.0014236
3470.0 0.0015027
3490.0 0.0015868
3510.0 0.0016817
3530.0 0.0017841
3550.0 0.0018902
3570.0 0.0020044
3590.0 0.002133
3610.0 0.0022718
3630.0 0.0024156
3650.0 0.0025676
3670.0 0.0027088
3690.0 0.0028174
3710.0 0.0028791
3730.0 0.0028702
3750.0 0.0027886
3770.0 0.0026719
3790.0 0.0024783
3810.0 0.0021276
3830.0 0.0019086
3850.0 0.0018798
3870.0 0.0014273
3890.0 0.0016651
3910.0 0.0024636
3930.0 0.0030799
3950.0 0.0031613
3970.0 0.003476
3990.0 0.0035416
4010.0 0.0049056
4030.0 0.0047218
4050.0 0.0041814
4070.0 0.0041345
4090.0 0.0039522
4110.0 0.0044889
4130.0 0.0050402
4150.0 0.0055677
4170.0 0.0051097
4190.0 0.0049221
4210.0 0.0050823
4230.0 0.0059476
4250.0 0.0066674
4270.0 0.0069648
4290.0 0.0067628
4310.0 0.0066093
4330.0 0.0070537
4350.0 0.0085173
4370.0 0.0099067
4390.0 0.008774
4410.0 0.0063933
4430.0 0.0051454
4450.0 0.0044909
4470.0 0.0040678
4490.0 0.004936
4510.0 0.0066464
4530.0 0.0076412
4550.0 0.0082937
4570.0 0.0089507
4590.0 0.01046
4610.0 0.015444
4630.0 0.019857
4650.0 0.019634
4670.0 0.018177
4690.0 0.019327
4710.0 0.020554
4730.0 0.017047
4750.0 0.011568
4770.0 0.009017
4790.0 0.0091923
4810.0 0.0088494
4830.0 0.0084695
4850.0 0.0095221
4870.0 0.01249
4890.0 0.014547
4910.0 0.011829
4930.0 0.010676
4950.0 0.012035
4970.0 0.016247
4990.0 0.021531
5010.0 0.023709
5030.0 0.019247
5050.0 0.011922
5070.0 0.0082712
5090.0 0.0070409
5110.0 0.0071311
5130.0 0.0079002
5150.0 0.0080495
5170.0 0.0079053
5190.0 0.0075529
5210.0 0.0075338
5230.0 0.0082424
5250.0 0.0090924
5270.0 0.0096588
5290.0 0.010969
5310.0 0.012951
5330.0 0.01337
5350.0 0.013288
5370.0 0.01466
5390.0 0.016813
5410.0 0.015577
5430.0 0.012742
5450.0 0.012003
5470.0 0.013634
5490.0 0.017466
5510.0 0.022171
5530.0 0.025105
5550.0 0.023607
5570.0 0.021173
5590.0 0.018278
5610.0 0.017448
5630.0 0.017561
5650.0 0.017373
5670.0 0.016619
5690.0 0.014634
5710.0 0.01426
5730.0 0.013372
5750.0 0.0084841
5770.0 0.0069986
5790.0 0.0081355
5810.0 0.0095858
5830.0 0.011998
5850.0 0.014024
5870.0 0.014608
5890.0 0.014001
5910.0 0.013426
5930.0 0.013302
5950.0 0.013871
5970.0 0.015734
5990.0 0.014163
6010.0 0.011508
6030.0 0.0094768
6050.0 0.0082558
6070.0 0.0087466
6090.0 0.0099463
6110.0 0.010705
6130.0 0.010102
6150.0 0.0087806
6170.0 0.0087834
6190.0 0.010727
6210.0 0.014133
6230.0 0.017703
6250.0 0.018128
6270.0 0.015348
6290.0 0.012823
6310.0 0.01004
6330.0 0.0077407
6350.0 0.0071072
6370.0 0.0075732
6390.0 0.0090798
6410.0 0.010891
6430.0 0.012815
6450.0 0.015246
6470.0 0.017684
6490.0 0.02172
6510.0 0.024277
6530.0 0.023126
6550.0 0.021187
6570.0 0.01941
6590.0 0.018743
6610.0 0.016219
6630.0 0.015287
6650.0 0.014204
6670.0 0.014025
6690.0 0.012998
6710.0 0.01184
6730.0 0.0092464
6750.0 0.0089012
6770.0 0.0097484
6790.0 0.0116
6810.0 0.010564
6830.0 0.010856
6850.0 0.010217
6870.0 0.009748
6890.0 0.0092016
6910.0 0.0093791
6930.0 0.0087596
6950.0 0.009401
6970.0 0.0094945
6990.0 0.010597
7010.0 0.011093
7030.0 0.010788
7050.0 0.0098827
7070.0 0.0093148
7090.0 0.0089614
7110.0 0.0086574
7130.0 0.0091658
7150.0 0.0099757
7170.0 0.010805
7190.0 0.011043
7210.0 0.010415
7230.0 0.010656
7250.0 0.01198
7270.0 0.013762
7290.0 0.015549
7310.0 0.015508
7330.0 0.013897
7350.0 0.012397
7370.0 0.010864
7390.0 0.011097
7410.0 0.012319
7430.0 0.013609
7450.0 0.014697
7470.0 0.015262
7490.0 0.01586
7510.0 0.018606
7530.0 0.017103
7550.0 0.014696
7570.0 0.011028
7590.0 0.0072682
7610.0 0.0062289
7630.0 0.0070947
7650.0 0.0084307
7670.0 0.010525
7690.0 0.011936
7710.0 0.012214
7730.0 0.012392
7750.0 0.013639
7770.0 0.013665
7790.0 0.012981
7810.0 0.012358
7830.0 0.012363
7850.0 0.01177
7870.0 0.010901
7890.0 0.0094358
7910.0 0.0075824
7930.0 0.0068442
7950.0 0.006176
7970.0 0.005825
7990.0 0.0058254
8010.0 0.0060394
8030.0 0.0059813
8050.0 0.0060957
8070.0 0.0060985
8090.0 0.0064188
8110.0 0.0060374
8130.0 0.0049894
8150.0 0.0047184
8170.0 0.0041135
8190.0 0.0039243
8210.0 0.0045417
8230.0 0.0049468
8250.0 0.0042209
8270.0 0.0037353
8290.0 0.0033143
8310.0 0.0023492
8330.0 0.0015082
8350.0 0.0011223
8370.0 0.0010315
8390.0 0.001361
8410.0 0.0017103
8430.0 0.0021036
8450.0 0.0023344
8470.0 0.0027652
8490.0 0.0026235
8510.0 0.0025385
8530.0 0.0024599
8550.0 0.0033443
8570.0 0.0043125
8590.0 0.0045394
8610.0 0.005666
8630.0 0.0065002
8650.0 0.0063112
8670.0 0.0066674
8690.0 0.0070867
8710.0 0.0065491
8730.0 0.0064111
8750.0 0.005764
8770.0 0.0054754
8790.0 0.0055438
8810.0 0.0054034
8830.0 0.0042574
8850.0 0.003306
8870.0 0.0027146
8890.0 0.0029193
8910.0 0.0033754
8930.0 0.0037589
8950.0 0.0042576
8970.0 0.0042829
8990.0 0.0040062
9010.0 0.0035763
9030.0 0.0034426
9050.0 0.0034934
9070.0 0.0035362
9090.0 0.0035688
9110.0 0.0036019
9130.0 0.0036283
9150.0 0.0036506
9170.0 0.0036743
9190.0 0.0036995
9210.0 0.0037261
9230.0 0.0037541
9250.0 0.0037834
9270.0 0.0038138
9290.0 0.0038452
9310.0 0.0038777
9330.0 0.0039113
9350.0 0.0039458
9370.0 0.0039813
9390.0 0.0040178
9410.0 0.0040554
9430.0 0.0040938
9450.0 0.0041333
9470.0 0.0041737
9490.0 0.0042151
9510.0 0.0042574
9530.0 0.0043006
9550.0 0.0043447
9570.0 0.0043898
9590.0 0.0044357
9610.0 0.0044825
9630.0 0.0045301
9650.0 0.0045786
9670.0 0.004628
9690.0 0.004678
9710.0 0.0047289
9730.0 0.0047806
9750.0 0.0048329
9770.0 0.0048859
9790.0 0.0049397
9810.0 0.0049941
9830.0 0.0050491
9850.0 0.0051047
9870.0 0.0051609
9890.0 0.0052176
9910.0 0.0052748
9930.0 0.0053325
9950.0 0.0053907
9970.0 0.0054491
9990.0 0.0055079
10010.0 0.0052363
10030.0 0.0052909
10050.0 0.0053456
10070.0 0.0054001
10090.0 0.0054555
10110.0 0.0055107
10130.0 0.005566
10150.0 0.0056215
10170.0 0.0056768
10190.0 0.0057318
10210.0 0.0057869
10230.0 0.005842
10250.0 0.0058966
10270.0 0.005951
10290.0 0.0060053
10310.0 0.0060591
10330.0 0.0061123
10350.0 0.0061654
10370.0 0.006218
10390.0 0.0062699
10410.0 0.0063213
10430.0 0.0063723
10450.0 0.0064224
10470.0 0.0064717
10490.0 0.0065205
10510.0 0.0065686
10530.0 0.0066154
10550.0 0.0066615
10570.0 0.006707
10590.0 0.0067513
10610.0 0.0067945
10630.0 0.0068369
10650.0 0.0068782
10670.0 0.0069181
10690.0 0.006957
10710.0 0.0069949
10730.0 0.0070314
10750.0 0.0070664
10770.0 0.0071006
10790.0 0.0071334
10810.0 0.0071645
10830.0 0.0071941
10850.0 0.0072219
10870.0 0.0072465
10890.0 0.0072667
10910.0 0.0072808
10930.0 0.0072849
10950.0 0.0072729
10970.0 0.0072416
10990.0 0.0071893
11010.0 0.0070766
11030.0 0.0069665
11050.0 0.006834
11070.0 0.0066757
11090.0 0.0064847
11110.0 0.006287
11130.0 0.0060804
11150.0 0.0058575
11170.0 0.0056284
11190.0 0.0054076
11210.0 0.0051814
11230.0 0.0049522
11250.0 0.0047364
11270.0 0.0045325
11290.0 0.0043315
11310.0 0.0041444
11330.0 0.0039822
11350.0 0.003831
11370.0 0.0036926
11390.0 0.0035733
11410.0 0.0034686
11430.0 0.0033699
11450.0 0.0032824
11470.0 0.0032037
11490.0 0.003127
11510.0 0.0030492
11530.0 0.0029734
11550.0 0.0028954
11570.0 0.0028105
11590.0 0.0027217
11610.0 0.0026312
11630.0 0.0025334
11650.0 0.0024301
11670.0 0.0023296
11690.0 0.0022291
11710.0 0.0021271
11730.0 0.0020297
11750.0 0.0019404
11770.0 0.001854
11790.0 0.0017736
11810.0 0.0017032
11830.0 0.0016402
11850.0 0.001582
11870.0 0.0015325
11890.0 0.0014903
11910.0 0.001452
11930.0 0.0014173
11950.0 0.0013865
11970.0 0.0013571
11990.0 0.0013275
12010.0 0.0012983
12030.0 0.001269
12050.0 0.001238
12070.0 0.0012053
12090.0 0.0011734
12110.0 0.0011407
12130.0 0.0011077
12150.0 0.0010764
12170.0 0.0010477
12190.0 0.0010207
12210.0 0.00099798
12230.0 0.00098057
12250.0 0.00096829
12270.0 0.00096199
12290.0 0.00096208
12310.0 0.00096796
12330.0 0.00098055
12350.0 0.00099915
12370.0 0.0010221
12390.0 0.0010498
12410.0 0.0010835
12430.0 0.0011179
12450.0 0.0011534
12470.0 0.0011911
12490.0 0.0012284
12510.0 0.0012624
12530.0 0.0012955
12550.0 0.0013264
12570.0 0.0013523
12590.0 0.0013736
12610.0 0.0013911
12630.0 0.0014033
12650.0 0.0014092
12670.0 0.0014105
12690.0 0.0014067
12710.0 0.0013979
12730.0 0.0013849
12750.0 0.0013673
12770.0 0.001346
12790.0 0.0013221
12810.0 0.0012951
12830.0 0.0012651
12850.0 0.0012343
12870.0 0.0012022
12890.0 0.0011679
12910.0 0.001133
12930.0 0.0010984
12950.0 0.0010622
12970.0 0.0010249
12990.0 0.00098892
13010.0 0.00095281
13030.0 0.00091574
13050.0 0.00087944
13070.0 0.00084477
13090.0 0.00080956
13110.0 0.00077504
13130.0 0.00074277
13150.0 0.00071196
13170.0 0.00068172
13190.0 0.00065466
13210.0 0.00063075
13230.0 0.00060898
13250.0 0.00059026
13270.0 0.00057541
13290.0 0.00056378
13310.0 0.00055558
13330.0 0.00055129
13350.0 0.00055052
13370.0 0.00055333
13390.0 0.00055973
13410.0 0.0005685
13430.0 0.00057998
13450.0 0.00059408
13470.0 0.0006095
13490.0 0.00062555
13510.0 0.0006435
13530.0 0.00066137
13550.0 0.00067815
13570.0 0.00069447
13590.0 0.00071016
13610.0 0.00072379
13630.0 0.00073538
13650.0 0.00074571
13670.0 0.0007539
13690.0 0.00075974
13710.0 0.00076373
13730.0 0.0007659
13750.0 0.00076588
13770.0 0.00076416
13790.0 0.00076082
13810.0 0.00075594
13830.0 0.0007499
13850.0 0.00074254
13870.0 0.00073392
13890.0 0.00072454
13910.0 0.00071441
13930.0 0.00070316
13950.0 0.00069128
13970.0 0.00067943
13990.0 0.00066689
14010.0 0.0006539
14030.0 0.0006412
14050.0 0.00062866
14070.0 0.00061573
14090.0 0.00060357
14110.0 0.00059233
14130.0 0.00058165
14150.0 0.00057181
14170.0 0.00056355
14190.0 0.00055657
14210.0 0.00055084
14230.0 0.00054677
14250.0 0.00054435
14270.0 0.00054352
14290.0 0.00054446
14310.0 0.00054691
14330.0 0.00055085
14350.0 0.00055639
14370.0 0.00056312
14390.0 0.00057067
14410.0 0.00057953
14430.0 0.00058928
14450.0 0.00059931
14470.0 0.00060989
14490.0 0.00062141
14510.0 0.00063283
14530.0 0.00064418
14550.0 0.00065619
14570.0 0.00066858
14590.0 0.00068083
14610.0 0.00069378
14630.0 0.0007079
14650.0 0.00072237
14670.0 0.0007375
14690.0 0.00075426
14710.0 0.00077257
14730.0 0.00079109
14750.0 0.00081133
14770.0 0.00083351
14790.0 0.00085639
14810.0 0.00087982
14830.0 0.00090575
14850.0 0.00093199
14870.0 0.00095757
14890.0 0.00098343
14910.0 0.0010092
14930.0 0.0010327
14950.0 0.0010536
14970.0 0.0010725
14990.0 0.0010878
15010.0 0.0010991
15030.0 0.0011072
15050.0 0.0011124
15070.0 0.0011148
15090.0 0.0011155
15110.0 0.001115
15130.0 0.0011138
15150.0 0.0011123
15170.0 0.0011106
15190.0 0.0011088
15210.0 0.001107
15230.0 0.0011052
15250.0 0.0011034
15270.0 0.0011016
15290.0 0.0010999
15310.0 0.0010982
15330.0 0.0010964
15350.0 0.0010948
15370.0 0.0010932
15390.0 0.0010914
15410.0 0.0010897
15430.0 0.0010881
15450.0 0.0010865
15470.0 0.0010848
15490.0 0.0010832
15510.0 0.0010816
15530.0 0.00108
15550.0 0.0010783
15570.0 0.0010768
15590.0 0.0010752
15610.0 0.0010735
15630.0 0.0010719
15650.0 0.0010703
15670.0 0.0010687
15690.0 0.001067
15710.0 0.0010655
15730.0 0.0010638
15750.0 0.0010622
15770.0 0.0010606
15790.0 0.001059
15810.0 0.0010572
15830.0 0.0010555
15850.0 0.0010539
15870.0 0.0010522
15890.0 0.0010505
15910.0 0.0010488
15930.0 0.0010471
15950.0 0.0010453
15970.0 0.0010436
15990.0 0.0010418
16010.0 0.00104
16030.0 0.0010381
16050.0 0.0010364
16070.0 0.0010346
16090.0 0.0010327
16110.0 0.0010308
16130.0 0.001029
16150.0 0.001027
16170.0 0.001025
16190.0 0.0010232
16210.0 0.0010212
16230.0 0.0010191
16250.0 0.0010171
16270.0 0.0010152
16290.0 0.001013
16310.0 0.0010109
16330.0 0.0010089
16350.0 0.0010068
16370.0 0.0010045
16390.0 0.0010023
16410.0 0.0010002
16430.0 0.00099789
16450.0 0.0009956
16470.0 0.00099342
16490.0 0.00099107
16510.0 0.00098866
16530.0 0.00098633
16550.0 0.00098398
16570.0 0.00098147
16590.0 0.00097898
16610.0 0.0009766
16630.0 0.00097409
16650.0 0.0009715
16670.0 0.000969
16690.0 0.00096647
16710.0 0.00096374
16730.0 0.00096109
16750.0 0.00095848
16770.0 0.00095576
16790.0 0.00095296
16810.0 0.00095028
16830.0 0.00094754
16850.0 0.00094467
16870.0 0.00094183
16890.0 0.00093905
16910.0 0.0009361
16930.0 0.00093309
16950.0 0.00093021
16970.0 0.00092727
16990.0 0.0009242
17010.0 0.00092119
17030.0 0.00091823
17050.0 0.00091509
17070.0 0.00091194
17090.0 0.00090887
17110.0 0.00090573
17130.0 0.00090243
17150.0 0.00089924
17170.0 0.00089608
17190.0 0.00089279
17210.0 0.00088947
17230.0 0.00088625
17250.0 0.00088293
17270.0 0.00087948
17290.0 0.00087612
17310.0 0.00087277
17330.0 0.0008693
17350.0 0.00086578
17370.0 0.00086241
17390.0 0.00085894
17410.0 0.00085537
17430.0 0.00085187
17450.0 0.0008484
17470.0 0.00084472
17490.0 0.00084109
17510.0 0.00083755
17530.0 0.00083392
17550.0 0.0008302
17570.0 0.00082657
17590.0 0.00082296
17610.0 0.0008192
17630.0 0.00081546
17650.0 0.0008118
17670.0 0.00080804
17690.0 0.00080414
17710.0 0.00080042
17730.0 0.00079667
17750.0 0.00079281
17770.0 0.00078898
17790.0 0.00078524
17810.0 0.00078135
17830.0 0.00077742
17850.0 0.00077358
17870.0 0.00076973
17890.0 0.00076575
17910.0 0.00076181
17930.0 0.00075799
17950.0 0.00075404
17970.0 0.00075006
17990.0 0.00074617
18010.0 0.00074226
18030.0 0.00073818
18050.0 0.00073421
18070.0 0.00073029
18090.0 0.00072627
18110.0 0.00072221
18130.0 0.00071829
18150.0 0.00071432
18170.0 0.00071025
18190.0 0.00070624
18210.0 0.0007023
18230.0 0.00069822
18250.0 0.00069411
18270.0 0.00069015
18290.0 0.00068614
18310.0 0.00068204
18330.0 0.00067803
18350.0 0.00067408
18370.0 0.00066998
18390.0 0.0006659
18410.0 0.00066192
18430.0 0.0006579
18450.0 0.00065375
18470.0 0.00064974
18490.0 0.00064577
18510.0 0.0006417
18530.0 0.00063764
18550.0 0.0006337
18570.0 0.00062966
18590.0 0.00062555
18610.0 0.00062155
18630.0 0.00061759
18650.0 0.00061352
18670.0 0.00060946
18690.0 0.00060555
18710.0 0.00060155
18730.0 0.00059751
18750.0 0.00059355
18770.0 0.00058964
18790.0 0.00058556
18810.0 0.00058156
18830.0 0.00057767
18850.0 0.00057371
18870.0 0.0005697
18890.0 0.0005658
18910.0 0.00056193
18930.0 0.00055794
18950.0 0.00055402
18970.0 0.00055017
18990.0 0.00054626
19010.0 0.00054225
19030.0 0.00053844
19050.0 0.00053461
19070.0 0.0005307
19090.0 0.00052685
19110.0 0.0005231
19130.0 0.00051922
19150.0 0.00051535
19170.0 0.00051158
19190.0 0.00050781
19210.0 0.00050395
19230.0 0.00050015
19250.0 0.00049647
19270.0 0.0004927
19290.0 0.00048892
19310.0 0.00048525
19330.0 0.00048157
19350.0 0.00047776
19370.0 0.00047407
19390.0 0.00047045
19410.0 0.00046675
19430.0 0.00046304
19450.0 0.00045947
19470.0 0.00045587
19490.0 0.00045219
19510.0 0.0004486
19530.0 0.00044507
19550.0 0.00044144
19570.0 0.00043781
19590.0 0.00043432
19610.0 0.0004308
19630.0 0.00042722
19650.0 0.00042374
19670.0 0.00042031
19690.0 0.00041678
19710.0 0.00041328
19730.0 0.00040987
19750.0 0.00040644
19770.0 0.00040292
19790.0 0.00039953
19810.0 0.00039619
19830.0 0.00039276
19850.0 0.00038934
19870.0 0.000386
19890.0 0.00038252
19910.0 0.00037884
19930.0 0.00037507
19950.0 0.00037101
19970.0 0.00036638
19990.0 0.00036117
20010.0 0.00036059
20030.0 0.00035406
20050.0 0.00034677
20070.0 0.00033914
20090.0 0.00033118
20110.0 0.00032249
20130.0 0.00031389
20150.0 0.00030555
20170.0 0.00029709
20190.0 0.00028867
20210.0 0.00028082
20230.0 0.00027325
20250.0 0.00026576
20270.0 0.00025884
20290.0 0.00025254
20310.0 0.00024659
20330.0 0.00024103
20350.0 0.00023638
20370.0 0.00023224
20390.0 0.00022861
20410.0 0.00022565
20430.0 0.00022333
20450.0 0.00022151
20470.0 0.00022028
20490.0 0.0002196
20510.0 0.00021942
20530.0 0.00021973
20550.0 0.00022045
20570.0 0.0002215
20590.0 0.00022294
20610.0 0.00022469
20630.0 0.00022661
20650.0 0.00022876
20670.0 0.00023124
20690.0 0.00023373
20710.0 0.00023629
20730.0 0.00023903
20750.0 0.00024186
20770.0 0.00024459
20790.0 0.00024743
20810.0 0.00025039
20830.0 0.00025328
20850.0 0.00025614
20870.0 0.00025918
20890.0 0.00026224
20910.0 0.00026515
20930.0 0.00026816
20950.0 0.00027127
20970.0 0.0002743
20990.0 0.00027727
21010.0 0.00028042
21030.0 0.00028351
21050.0 0.00028646
21070.0 0.00028943
21090.0 0.00029245
21110.0 0.00029521
21130.0 0.00029784
21150.0 0.00030046
21170.0 0.00030288
21190.0 0.00030503
21210.0 0.00030709
21230.0 0.00030895
21250.0 0.00031047
21270.0 0.0003117
21290.0 0.00031267
21310.0 0.00031327
21330.0 0.00031346
21350.0 0.00031328
21370.0 0.00031265
21390.0 0.00031157
21410.0 0.00031003
21430.0 0.00030788
21450.0 0.00030525
21470.0 0.0003022
21490.0 0.00029858
21510.0 0.00029441
21530.0 0.00028997
21550.0 0.00028514
21570.0 0.0002798
21590.0 0.00027432
21610.0 0.0002688
21630.0 0.00026306
21650.0 0.00025718
21670.0 0.0002518
21690.0 0.00024655
21710.0 0.00024148
21730.0 0.00023691
21750.0 0.00023293
21770.0 0.00022928
21790.0 0.00022627
21810.0 0.00022398
21830.0 0.00022231
21850.0 0.00022129
21870.0 0.00022098
21890.0 0.00022128
21910.0 0.00022223
21930.0 0.0002238
21950.0 0.00022585
21970.0 0.00022844
21990.0 0.00023167
22010.0 0.00023517
22030.0 0.00023897
22050.0 0.00024321
22070.0 0.00024773
22090.0 0.00025222
22110.0 0.00025697
22130.0 0.00026194
22150.0 0.00026677
22170.0 0.00027151
22190.0 0.00027639
22210.0 0.00028109
22230.0 0.00028535
22250.0 0.00028948
22270.0 0.00029338
22290.0 0.00029679
22310.0 0.00029978
22330.0 0.00030249
22350.0 0.00030464
22370.0 0.00030622
22390.0 0.00030731
22410.0 0.00030783
22430.0 0.00030774
22450.0 0.00030708
22470.0 0.00030579
22490.0 0.00030389
22510.0 0.00030148
22530.0 0.00029838
22550.0 0.0002946
22570.0 0.0002904
22590.0 0.00028567
22610.0 0.00028023
22630.0 0.00027435
22650.0 0.00026827
22670.0 0.00026154
22690.0 0.00025434
22710.0 0.00024705
22730.0 0.00023952
22750.0 0.00023132
22770.0 0.00022327
22790.0 0.00021538
22810.0 0.00020725
22830.0 0.0001991
22850.0 0.00019145
22870.0 0.00018394
22890.0 0.00017646
22910.0 0.00016957
22930.0 0.00016328
22950.0 0.00015732
22970.0 0.00015185
22990.0 0.00014739
23010.0 0.0001435
23030.0 0.00014027
23050.0 0.0001379
23070.0 0.00013633
23090.0 0.00013548
23110.0 0.00013548
23130.0 0.00013625
23150.0 0.00013775
23170.0 0.00014004
23190.0 0.00014292
23210.0 0.00014628
23230.0 0.0001503
23250.0 0.00015475
23270.0 0.00015939
23290.0 0.00016436
23310.0 0.00016973
23330.0 0.0001749
23350.0 0.00017998
