#lamb flux
1010.0 1.6943e-06
1030.0 1.7914e-06
1050.0 1.9037e-06
1070.0 2.0303e-06
1090.0 2.1742e-06
1110.0 2.3223e-06
1130.0 2.4719e-06
1150.0 2.6291e-06
1170.0 2.792e-06
1190.0 2.9473e-06
1210.0 3.1055e-06
1230.0 3.2697e-06
1250.0 3.4317e-06
1270.0 3.5901e-06
1290.0 3.7582e-06
1310.0 3.9274e-06
1330.0 4.0911e-06
1350.0 4.2578e-06
1370.0 4.4309e-06
1390.0 4.6014e-06
1410.0 4.7684e-06
1430.0 4.944e-06
1450.0 5.121e-06
1470.0 5.2939e-06
1490.0 5.4699e-06
1510.0 5.6562e-06
1530.0 5.835e-06
1550.0 6.0126e-06
1570.0 6.1967e-06
1590.0 6.3818e-06
1610.0 6.5601e-06
1630.0 6.7437e-06
1650.0 6.9318e-06
1670.0 7.1142e-06
1690.0 7.2939e-06
1710.0 7.4792e-06
1730.0 7.6643e-06
1750.0 7.8377e-06
1770.0 8.0139e-06
1790.0 8.1913e-06
1810.0 8.3605e-06
1830.0 8.5239e-06
1850.0 8.6939e-06
1870.0 8.8558e-06
1890.0 9.008e-06
1910.0 9.1594e-06
1930.0 9.3102e-06
1950.0 9.4488e-06
1970.0 9.5807e-06
1990.0 9.7139e-06
2010.0 9.8397e-06
2030.0 9.955e-06
2050.0 1.0071e-05
2070.0 1.0186e-05
2090.0 1.0288e-05
2110.0 1.0387e-05
2130.0 1.0486e-05
2150.0 1.058e-05
2170.0 1.0666e-05
2190.0 1.0756e-05
2210.0 1.0846e-05
2230.0 1.0929e-05
2250.0 1.1013e-05
2270.0 1.1105e-05
2290.0 1.1194e-05
2310.0 1.128e-05
2330.0 1.1374e-05
2350.0 1.1473e-05
2370.0 1.1572e-05
2390.0 1.1678e-05
2410.0 1.1798e-05
2430.0 1.192e-05
2450.0 1.2047e-05
2470.0 1.2188e-05
2490.0 1.2346e-05
2510.0 1.2523e-05
2530.0 1.2757e-05
2550.0 1.3113e-05
2570.0 1.3664e-05
2590.0 1.45e-05
2610.0 1.5843e-05
2630.0 1.7775e-05
2650.0 2.0228e-05
2670.0 2.325e-05
2690.0 2.6771e-05
2710.0 3.0368e-05
2730.0 3.3826e-05
2750.0 3.7203e-05
2770.0 4.0236e-05
2790.0 4.2869e-05
2810.0 4.53e-05
2830.0 4.7686e-05
2850.0 4.9923e-05
2870.0 5.2181e-05
2890.0 5.4584e-05
2910.0 5.7089e-05
2930.0 5.9627e-05
2950.0 6.2347e-05
2970.0 6.5229e-05
2990.0 6.8155e-05
3010.0 0.00019068
3030.0 0.00019914
3050.0 0.00020758
3070.0 0.00021527
3090.0 0.00022185
3110.0 0.00022556
3130.0 0.00022437
3150.0 0.000216
3170.0 0.00019587
3190.0 0.00016353
3210.0 0.00011948
3230.0 6.9914e-05
3250.0 0.00012304
3270.0 6.5189e-05
3290.0 0.00018848
3310.0 5.5301e-05
3330.0 5.4222e-05
3350.0 7.0668e-05
3370.0 9.0105e-05
3390.0 0.00011117
3410.0 0.00013223
3430.0 0.00015438
3450.0 0.00017664
3470.0 0.00019706
3490.0 0.00021089
3510.0 0.00025971
3530.0 0.00034749
3550.0 0.00033752
3570.0 0.00027153
3590.0 0.00038233
3610.0 0.00023136
3630.0 0.00040051
3650.0 0.00047024
3670.0 0.00060993
3690.0 0.00056484
3710.0 0.00036646
3730.0 0.00048978
3750.0 0.00050408
3770.0 0.00053567
3790.0 0.00050534
3810.0 0.00049729
3830.0 0.00078569
3850.0 0.00094397
3870.0 0.0011738
3890.0 0.0011217
3910.0 0.000989
3930.0 0.0010117
3950.0 0.0011072
3970.0 0.0012931
3990.0 0.0008683
4010.0 0.00046991
4030.0 0.00080399
4050.0 0.0010266
4070.0 0.0011347
4090.0 0.00084526
4110.0 0.00052447
4130.0 0.00082776
4150.0 0.00081546
4170.0 0.00079299
4190.0 0.00074189
4210.0 0.0010236
4230.0 0.00071679
4250.0 0.00080911
4270.0 0.00080491
4290.0 0.00077879
4310.0 0.00099802
4330.0 0.0010567
4350.0 0.00083414
4370.0 0.00069424
4390.0 0.00087508
4410.0 0.00091011
4430.0 0.00067288
4450.0 0.0006375
4470.0 0.00078227
4490.0 0.00057408
4510.0 0.00077784
4530.0 0.0008154
4550.0 0.0010167
4570.0 0.0014705
4590.0 0.0014101
4610.0 0.00098792
4630.0 0.0016594
4650.0 0.0023295
4670.0 0.0021828
4690.0 0.0013937
4710.0 0.0015151
4730.0 0.0018565
4750.0 0.001581
4770.0 0.0011926
4790.0 0.00078422
4810.0 0.0011299
4830.0 0.0013289
4850.0 0.0011426
4870.0 0.00036581
4890.0 0.0012686
4910.0 0.0017523
4930.0 0.0018962
4950.0 0.001893
4970.0 0.0011906
4990.0 0.0013991
5010.0 0.0016824
5030.0 0.0018696
5050.0 0.0018094
5070.0 0.0012781
5090.0 0.001031
5110.0 0.00098186
5130.0 0.00090554
5150.0 0.00097774
5170.0 0.00085546
5190.0 0.0010518
5210.0 0.0010626
5230.0 0.0011785
5250.0 0.0014439
5270.0 0.0011727
5290.0 0.001184
5310.0 0.0018025
5330.0 0.0020984
5350.0 0.0017296
5370.0 0.0015149
5390.0 0.0017851
5410.0 0.0022266
5430.0 0.002425
5450.0 0.0025655
5470.0 0.0025482
5490.0 0.0025401
5510.0 0.0030405
5530.0 0.0031667
5550.0 0.0033978
5570.0 0.0036236
5590.0 0.0035891
5610.0 0.0033673
5630.0 0.0032714
5650.0 0.0033821
5670.0 0.0033273
5690.0 0.0028251
5710.0 0.002792
5730.0 0.0028514
5750.0 0.0030677
5770.0 0.0026368
5790.0 0.0024618
5810.0 0.0025081
5830.0 0.0026946
5850.0 0.0024837
5870.0 0.002519
5890.0 0.0030229
5910.0 0.0028438
5930.0 0.0023074
5950.0 0.0020357
5970.0 0.0022409
5990.0 0.0020598
6010.0 0.0019222
6030.0 0.0019353
6050.0 0.0017818
6070.0 0.0013291
6090.0 0.0012237
6110.0 0.0016193
6130.0 0.0018594
6150.0 0.001932
6170.0 0.0018554
6190.0 0.0017267
6210.0 0.0017485
6230.0 0.0021276
6250.0 0.0019654
6270.0 0.0017827
6290.0 0.0016391
6310.0 0.0015184
6330.0 0.0014255
6350.0 0.0012531
6370.0 0.001254
6390.0 0.0014762
6410.0 0.0018445
6430.0 0.002153
6450.0 0.0020769
6470.0 0.0020505
6490.0 0.0025623
6510.0 0.0029748
6530.0 0.002812
6550.0 0.0026671
6570.0 0.0027083
6590.0 0.0026518
6610.0 0.002854
6630.0 0.0026577
6650.0 0.0022969
6670.0 0.0020913
6690.0 0.0020736
6710.0 0.0025459
6730.0 0.0022838
6750.0 0.0018741
6770.0 0.0016618
6790.0 0.0017611
6810.0 0.0020226
6830.0 0.0020001
6850.0 0.0017888
6870.0 0.0018671
6890.0 0.0018555
6910.0 0.0017442
6930.0 0.0019806
6950.0 0.0018229
6970.0 0.0016793
6990.0 0.0016646
7010.0 0.0016441
7030.0 0.0015841
7050.0 0.0015346
7070.0 0.0016876
7090.0 0.0015914
7110.0 0.0013487
7130.0 0.001116
7150.0 0.0010635
7170.0 0.0013991
7190.0 0.001505
7210.0 0.0014235
7230.0 0.0014818
7250.0 0.0013982
7270.0 0.0013407
7290.0 0.0014805
7310.0 0.0016603
7330.0 0.0016296
7350.0 0.0015134
7370.0 0.0014054
7390.0 0.0014266
7410.0 0.001657
7430.0 0.001846
7450.0 0.0019527
7470.0 0.0019389
7490.0 0.0021088
7510.0 0.0020698
7530.0 0.00194
7550.0 0.0018811
7570.0 0.0016388
7590.0 0.0015897
7610.0 0.0015321
7630.0 0.0013934
7650.0 0.0014986
7670.0 0.001646
7690.0 0.0017865
7710.0 0.0020294
7730.0 0.0021372
7750.0 0.0022216
7770.0 0.0022759
7790.0 0.0024868
7810.0 0.0025234
7830.0 0.0022633
7850.0 0.0022742
7870.0 0.0021773
7890.0 0.002261
7910.0 0.0021339
7930.0 0.0021354
7950.0 0.0018077
7970.0 0.0018291
7990.0 0.0017534
8010.0 0.0018571
8030.0 0.0018452
8050.0 0.0019547
8070.0 0.0018699
8090.0 0.0018749
8110.0 0.001841
8130.0 0.0018282
8150.0 0.0017231
8170.0 0.0016829
8190.0 0.0016702
8210.0 0.0016831
8230.0 0.0014676
8250.0 0.0013376
8270.0 0.0011798
8290.0 0.00099943
8310.0 0.00088109
8330.0 0.00070247
8350.0 0.00057377
8370.0 0.00056139
8390.0 0.00054456
8410.0 0.00056595
8430.0 0.00072154
8450.0 0.00078099
8470.0 0.00083591
8490.0 0.00097606
8510.0 0.0010604
8530.0 0.001209
8550.0 0.0014277
8570.0 0.0015666
8590.0 0.001648
8610.0 0.0018172
8630.0 0.0020499
8650.0 0.0020935
8670.0 0.0021295
8690.0 0.0022125
8710.0 0.002169
8730.0 0.0021068
8750.0 0.0019465
8770.0 0.001946
8790.0 0.001918
8810.0 0.0017611
8830.0 0.0017663
8850.0 0.0016282
8870.0 0.0015551
8890.0 0.0013931
8910.0 0.0015391
8930.0 0.0013894
8950.0 0.0013841
8970.0 0.001406
8990.0 0.0013601
9010.0 0.0013963
9030.0 0.0013274
9050.0 0.0013206
9070.0 0.0013207
9090.0 0.0013205
9110.0 0.0013211
9130.0 0.0013205
9150.0 0.0013192
9170.0 0.0013143
9190.0 0.0013039
9210.0 0.0013239
9230.0 0.0013176
9250.0 0.0013136
9270.0 0.0013101
9290.0 0.0013069
9310.0 0.0013039
9330.0 0.0013009
9350.0 0.0012979
9370.0 0.0012948
9390.0 0.0012915
9410.0 0.0012882
9430.0 0.0012847
9450.0 0.0012811
9470.0 0.0012774
9490.0 0.0012737
9510.0 0.0012698
9530.0 0.0012659
9550.0 0.0012619
9570.0 0.0012578
9590.0 0.0012537
9610.0 0.0012495
9630.0 0.0012453
9650.0 0.0012411
9670.0 0.0012369
9690.0 0.0012326
9710.0 0.0012284
9730.0 0.0012241
9750.0 0.0012198
9770.0 0.0012156
9790.0 0.0012114
9810.0 0.0012071
9830.0 0.001203
9850.0 0.0011989
9870.0 0.0011948
9890.0 0.0011907
9910.0 0.0011867
9930.0 0.0011828
9950.0 0.0011767
9970.0 0.0011736
9990.0 0.0011704
10010.0 0.0011671
10030.0 0.0011637
10050.0 0.00116
10070.0 0.0011543
10090.0 0.0011517
10110.0 0.0011492
10130.0 0.0011465
10150.0 0.0011437
10170.0 0.0011409
10190.0 0.001138
10210.0 0.0011352
10230.0 0.0011325
10250.0 0.0011298
10270.0 0.0011272
10290.0 0.0011248
10310.0 0.0011225
10330.0 0.0011201
10350.0 0.0011179
10370.0 0.0011159
10390.0 0.0011138
10410.0 0.0011119
10430.0 0.0011102
10450.0 0.0011084
10470.0 0.0011068
10490.0 0.0011053
10510.0 0.0011039
10530.0 0.0011025
10550.0 0.0011012
10570.0 0.0011001
10590.0 0.001099
10610.0 0.001098
10630.0 0.0010972
10650.0 0.0010964
10670.0 0.0010956
10690.0 0.001095
10710.0 0.0010945
10730.0 0.001094
10750.0 0.0010935
10770.0 0.0010933
10790.0 0.0010931
10810.0 0.0010929
10830.0 0.0010927
10850.0 0.0010926
10870.0 0.0010923
10890.0 0.0010916
10910.0 0.0010904
10930.0 0.0010879
10950.0 0.0010834
10970.0 0.0010764
10990.0 0.0010667
11010.0 0.0010792
11030.0 0.0010613
11050.0 0.0010403
11070.0 0.0010159
11090.0 0.00098757
11110.0 0.00095929
11130.0 0.00093096
11150.0 0.00090187
11170.0 0.00087351
11190.0 0.00084757
11210.0 0.00082241
11230.0 0.0007983
11250.0 0.00077678
11270.0 0.00075738
11290.0 0.00073905
11310.0 0.00072255
11330.0 0.00070854
11350.0 0.00069551
11370.0 0.00068335
11390.0 0.00067245
11410.0 0.00066229
11430.0 0.00065184
11450.0 0.00064165
11470.0 0.00063165
11490.0 0.00062111
11510.0 0.00060974
11530.0 0.00059839
11550.0 0.00058663
11570.0 0.00057386
11590.0 0.00056074
11610.0 0.0005477
11630.0 0.00053385
11650.0 0.00051941
11670.0 0.00050558
11690.0 0.00049179
11710.0 0.00047764
11730.0 0.0004639
11750.0 0.00045106
11770.0 0.00043811
11790.0 0.00042546
11810.0 0.00041377
11830.0 0.00040262
11850.0 0.00039141
11870.0 0.00038111
11890.0 0.00037166
11910.0 0.00036234
11930.0 0.00035334
11950.0 0.00034508
11970.0 0.00033706
11990.0 0.00032895
12010.0 0.00032135
12030.0 0.00031416
12050.0 0.00030697
12070.0 0.00029987
12090.0 0.00029354
12110.0 0.00028745
12130.0 0.00028157
12150.0 0.00027634
12170.0 0.00027186
12190.0 0.00026775
12210.0 0.00026454
12230.0 0.00026238
12250.0 0.00026116
12270.0 0.00026102
12290.0 0.00026209
12310.0 0.00026427
12330.0 0.00026768
12350.0 0.00027225
12370.0 0.00027771
12390.0 0.0002841
12410.0 0.00029159
12430.0 0.00029928
12450.0 0.00030722
12470.0 0.00031552
12490.0 0.00032375
12510.0 0.00033143
12530.0 0.00033892
12550.0 0.00034602
12570.0 0.00035231
12590.0 0.00035788
12610.0 0.00036291
12630.0 0.00036717
12650.0 0.00037057
12670.0 0.00037338
12690.0 0.00037556
12710.0 0.00037712
12730.0 0.00037816
12750.0 0.00037865
12770.0 0.00037867
12790.0 0.00037831
12810.0 0.00037749
12830.0 0.00037619
12850.0 0.00037461
12870.0 0.00037266
12890.0 0.00037016
12910.0 0.00036727
12930.0 0.00036409
12950.0 0.00036029
12970.0 0.0003559
12990.0 0.00035132
13010.0 0.00034632
13030.0 0.0003407
13050.0 0.00033484
13070.0 0.00032897
13090.0 0.00032263
13110.0 0.00031613
13130.0 0.0003099
13150.0 0.00030378
13170.0 0.00029759
13190.0 0.00029202
13210.0 0.00028714
13230.0 0.00028266
13250.0 0.00027883
13270.0 0.0002759
13290.0 0.00027362
13310.0 0.00027199
13330.0 0.00027112
13350.0 0.00027085
13370.0 0.00027104
13390.0 0.00027157
13410.0 0.00027229
13430.0 0.00027303
13450.0 0.00027365
13470.0 0.00027401
13490.0 0.00027402
13510.0 0.00027355
13530.0 0.00027257
13550.0 0.00027116
13570.0 0.00026928
13590.0 0.00026691
13610.0 0.00026431
13630.0 0.00026157
13650.0 0.00025856
13670.0 0.00025553
13690.0 0.00025266
13710.0 0.00024984
13730.0 0.00024704
13750.0 0.00024458
13770.0 0.00024232
13790.0 0.00024015
13810.0 0.00023812
13830.0 0.00023628
13850.0 0.00023443
13870.0 0.00023256
13890.0 0.00023073
13910.0 0.00022887
13930.0 0.00022686
13950.0 0.00022479
13970.0 0.00022277
13990.0 0.00022065
14010.0 0.0002185
14030.0 0.00021644
14050.0 0.00021448
14070.0 0.00021254
14090.0 0.0002108
14110.0 0.00020928
14130.0 0.00020793
14150.0 0.00020679
14170.0 0.0002059
14190.0 0.00020523
14210.0 0.00020476
14230.0 0.00020453
14250.0 0.00020449
14270.0 0.00020468
14290.0 0.00020511
14310.0 0.00020569
14330.0 0.00020646
14350.0 0.00020745
14370.0 0.00020857
14390.0 0.00020975
14410.0 0.00021109
14430.0 0.00021251
14450.0 0.00021388
14470.0 0.00021525
14490.0 0.00021668
14510.0 0.00021799
14530.0 0.00021919
14550.0 0.00022042
14570.0 0.00022165
14590.0 0.00022282
14610.0 0.00022408
14630.0 0.00022554
14650.0 0.00022711
14670.0 0.00022885
14690.0 0.00023096
14710.0 0.00023344
14730.0 0.00023607
14750.0 0.00023912
14770.0 0.00024264
14790.0 0.00024639
14810.0 0.00025031
14830.0 0.0002548
14850.0 0.0002594
14870.0 0.00026389
14890.0 0.00026843
14910.0 0.00027295
14930.0 0.00027696
14950.0 0.00028038
14970.0 0.00028335
14990.0 0.0002855
15010.0 0.00028677
15030.0 0.00028733
15050.0 0.00028723
15070.0 0.00028652
15090.0 0.00028545
15110.0 0.00028411
15130.0 0.00028262
15150.0 0.00028106
15170.0 0.00027944
15190.0 0.00027779
15210.0 0.00027616
15230.0 0.00027453
15250.0 0.00027288
15270.0 0.00027123
15290.0 0.00026961
15310.0 0.00026798
15330.0 0.00026635
15350.0 0.00026473
15370.0 0.00026313
15390.0 0.00026149
15410.0 0.00025988
15430.0 0.00025829
15450.0 0.00025669
15470.0 0.00025508
15490.0 0.00025351
15510.0 0.00025194
15530.0 0.00025035
15550.0 0.00024878
15570.0 0.00024724
15590.0 0.00024568
15610.0 0.00024411
15630.0 0.00024258
15650.0 0.00024106
15670.0 0.00023952
15690.0 0.00023801
15710.0 0.00023652
15730.0 0.00023501
15750.0 0.00023351
15770.0 0.00023204
15790.0 0.00023057
15810.0 0.00022908
15830.0 0.00022763
15850.0 0.00022619
15870.0 0.00022475
15890.0 0.00022331
15910.0 0.00022191
15930.0 0.0002205
15950.0 0.00021908
15970.0 0.00021769
15990.0 0.00021632
16010.0 0.00021494
16030.0 0.00021356
16050.0 0.00021222
16070.0 0.00021088
16090.0 0.00020954
16110.0 0.00020822
16130.0 0.00020691
16150.0 0.00020559
16170.0 0.00020429
16190.0 0.00020301
16210.0 0.00020174
16230.0 0.00020046
16250.0 0.0001992
16270.0 0.00019797
16290.0 0.00019672
16310.0 0.00019549
16330.0 0.00019428
16350.0 0.00019307
16370.0 0.00019185
16390.0 0.00019067
16410.0 0.0001895
16430.0 0.00018832
16450.0 0.00018716
16470.0 0.00018602
16490.0 0.00018487
16510.0 0.00018373
16530.0 0.00018261
16550.0 0.0001815
16570.0 0.00018038
16590.0 0.00017928
16610.0 0.00017821
16630.0 0.00017713
16650.0 0.00017605
16670.0 0.000175
16690.0 0.00017395
16710.0 0.00017289
16730.0 0.00017185
16750.0 0.00017084
16770.0 0.00016982
16790.0 0.00016879
16810.0 0.0001678
16830.0 0.00016682
16850.0 0.00016582
16870.0 0.00016485
16890.0 0.00016389
16910.0 0.00016292
16930.0 0.00016195
16950.0 0.00016102
16970.0 0.00016009
16990.0 0.00015915
17010.0 0.00015823
17030.0 0.00015733
17050.0 0.00015641
17070.0 0.0001555
17090.0 0.00015462
17110.0 0.00015374
17130.0 0.00015284
17150.0 0.00015197
17170.0 0.00015112
17190.0 0.00015026
17210.0 0.0001494
17230.0 0.00014857
17250.0 0.00014774
17270.0 0.00014689
17290.0 0.00014607
17310.0 0.00014526
17330.0 0.00014444
17350.0 0.00014363
17370.0 0.00014284
17390.0 0.00014205
17410.0 0.00014126
17430.0 0.00014048
17450.0 0.00013972
17470.0 0.00013894
17490.0 0.00013817
17510.0 0.00013742
17530.0 0.00013667
17550.0 0.00013591
17570.0 0.00013518
17590.0 0.00013446
17610.0 0.00013372
17630.0 0.00013299
17650.0 0.00013229
17670.0 0.00013157
17690.0 0.00013084
17710.0 0.00013015
17730.0 0.00012946
17750.0 0.00012876
17770.0 0.00012807
17790.0 0.0001274
17810.0 0.00012672
17830.0 0.00012604
17850.0 0.00012538
17870.0 0.00012472
17890.0 0.00012405
17910.0 0.00012339
17930.0 0.00012275
17950.0 0.0001221
17970.0 0.00012146
17990.0 0.00012083
18010.0 0.0001202
18030.0 0.00011956
18050.0 0.00011893
18070.0 0.00011832
18090.0 0.0001177
18110.0 0.00011708
18130.0 0.00011649
18150.0 0.00011589
18170.0 0.00011528
18190.0 0.00011469
18210.0 0.00011411
18230.0 0.00011351
18250.0 0.00011291
18270.0 0.00011234
18290.0 0.00011177
18310.0 0.00011119
18330.0 0.00011062
18350.0 0.00011007
18370.0 0.0001095
18390.0 0.00010894
18410.0 0.00010839
18430.0 0.00010784
18450.0 0.00010728
18470.0 0.00010674
18490.0 0.0001062
18510.0 0.00010566
18530.0 0.00010512
18550.0 0.0001046
18570.0 0.00010408
18590.0 0.00010354
18610.0 0.00010302
18630.0 0.00010251
18650.0 0.00010198
18670.0 0.00010146
18690.0 0.00010097
18710.0 0.00010046
18730.0 9.9949e-05
18750.0 9.9454e-05
18770.0 9.8967e-05
18790.0 9.8455e-05
18810.0 9.7958e-05
18830.0 9.7479e-05
18850.0 9.6992e-05
18870.0 9.6498e-05
18890.0 9.6025e-05
18910.0 9.5555e-05
18930.0 9.507e-05
18950.0 9.4595e-05
18970.0 9.4134e-05
18990.0 9.3664e-05
19010.0 9.318e-05
19030.0 9.2728e-05
19050.0 9.2274e-05
19070.0 9.1808e-05
19090.0 9.1352e-05
19110.0 9.0914e-05
19130.0 9.0456e-05
19150.0 8.9998e-05
19170.0 8.9559e-05
19190.0 8.912e-05
19210.0 8.8667e-05
19230.0 8.8224e-05
19250.0 8.7801e-05
19270.0 8.7363e-05
19290.0 8.6925e-05
19310.0 8.6504e-05
19330.0 8.6081e-05
19350.0 8.5638e-05
19370.0 8.5215e-05
19390.0 8.4802e-05
19410.0 8.4378e-05
19430.0 8.3951e-05
19450.0 8.3547e-05
19470.0 8.3137e-05
19490.0 8.2716e-05
19510.0 8.2308e-05
19530.0 8.191e-05
19550.0 8.1495e-05
19570.0 8.1079e-05
19590.0 8.0687e-05
19610.0 8.0289e-05
19630.0 7.9882e-05
19650.0 7.9488e-05
19670.0 7.9104e-05
19690.0 7.8701e-05
19710.0 7.8304e-05
19730.0 7.7922e-05
19750.0 7.7535e-05
19770.0 7.7132e-05
19790.0 7.6751e-05
19810.0 7.6376e-05
19830.0 7.5985e-05
19850.0 7.5595e-05
19870.0 7.5214e-05
19890.0 7.4803e-05
19910.0 7.4349e-05
19930.0 7.3864e-05
19950.0 7.3308e-05
19970.0 7.2621e-05
19990.0 7.18e-05
20010.0 7.0878e-05
20030.0 6.9776e-05
20050.0 6.8514e-05
20070.0 6.7184e-05
20090.0 6.5797e-05
20110.0 6.428e-05
20130.0 6.2805e-05
20150.0 6.1403e-05
20170.0 6.0004e-05
20190.0 5.8641e-05
20210.0 5.7406e-05
20230.0 5.6246e-05
20250.0 5.5126e-05
20270.0 5.4129e-05
20290.0 5.3258e-05
20310.0 5.2467e-05
20330.0 5.1771e-05
20350.0 5.1241e-05
20370.0 5.082e-05
20390.0 5.0513e-05
20410.0 5.0343e-05
20430.0 5.03e-05
20450.0 5.0385e-05
20470.0 5.0605e-05
20490.0 5.0944e-05
20510.0 5.1403e-05
20530.0 5.1999e-05
20550.0 5.2691e-05
20570.0 5.345e-05
20590.0 5.4321e-05
20610.0 5.5263e-05
20630.0 5.6222e-05
20650.0 5.7222e-05
20670.0 5.8285e-05
20690.0 5.9297e-05
20710.0 6.0268e-05
20730.0 6.1228e-05
20750.0 6.2135e-05
20770.0 6.2937e-05
20790.0 6.3682e-05
20810.0 6.4366e-05
20830.0 6.495e-05
20850.0 6.545e-05
20870.0 6.5897e-05
20890.0 6.6272e-05
20910.0 6.6572e-05
20930.0 6.6829e-05
20950.0 6.7044e-05
20970.0 6.7215e-05
20990.0 6.735e-05
21010.0 6.7455e-05
21030.0 6.7523e-05
21050.0 6.7555e-05
21070.0 6.755e-05
21090.0 6.7501e-05
21110.0 6.7413e-05
21130.0 6.7287e-05
21150.0 6.7113e-05
21170.0 6.6901e-05
21190.0 6.6664e-05
21210.0 6.6387e-05
21230.0 6.6077e-05
21250.0 6.5765e-05
21270.0 6.5444e-05
21290.0 6.5109e-05
21310.0 6.4784e-05
21330.0 6.4487e-05
21350.0 6.4197e-05
21370.0 6.393e-05
21390.0 6.3702e-05
21410.0 6.3509e-05
21430.0 6.3344e-05
21450.0 6.3227e-05
21470.0 6.3154e-05
21490.0 6.312e-05
21510.0 6.313e-05
21530.0 6.318e-05
21550.0 6.327e-05
21570.0 6.3403e-05
21590.0 6.3574e-05
21610.0 6.3777e-05
21630.0 6.4023e-05
21650.0 6.4316e-05
21670.0 6.4626e-05
21690.0 6.4975e-05
21710.0 6.5372e-05
21730.0 6.5799e-05
21750.0 6.6247e-05
21770.0 6.676e-05
21790.0 6.7309e-05
21810.0 6.7878e-05
21830.0 6.8487e-05
21850.0 6.9156e-05
21870.0 6.9843e-05
21890.0 7.0539e-05
21910.0 7.1292e-05
21930.0 7.2072e-05
21950.0 7.2844e-05
21970.0 7.3642e-05
21990.0 7.4485e-05
22010.0 7.5291e-05
22030.0 7.6078e-05
22050.0 7.6873e-05
22070.0 7.7642e-05
22090.0 7.8342e-05
22110.0 7.9014e-05
22130.0 7.9644e-05
22150.0 8.0189e-05
22170.0 8.0654e-05
22190.0 8.105e-05
22210.0 8.1344e-05
22230.0 8.1524e-05
22250.0 8.1603e-05
22270.0 8.1564e-05
22290.0 8.141e-05
22310.0 8.1144e-05
22330.0 8.0739e-05
22350.0 8.0215e-05
22370.0 7.9594e-05
22390.0 7.8847e-05
22410.0 7.7961e-05
22430.0 7.702e-05
22450.0 7.5999e-05
22470.0 7.4859e-05
22490.0 7.3661e-05
22510.0 7.2452e-05
22530.0 7.1145e-05
22550.0 6.9779e-05
22570.0 6.8452e-05
22590.0 6.7116e-05
22610.0 6.5736e-05
22630.0 6.4388e-05
22650.0 6.3118e-05
22670.0 6.1829e-05
22690.0 6.0565e-05
22710.0 5.9388e-05
22730.0 5.8261e-05
22750.0 5.7125e-05
22770.0 5.6091e-05
22790.0 5.5145e-05
22810.0 5.423e-05
22830.0 5.337e-05
22850.0 5.2611e-05
22870.0 5.1904e-05
22890.0 5.1239e-05
22910.0 5.0661e-05
22930.0 5.0161e-05
22950.0 4.9713e-05
