#lamb flux
1010.0 1.7089e-07
1030.0 1.8901e-07
1050.0 2.0984e-07
1070.0 2.333e-07
1090.0 2.5994e-07
1110.0 2.8727e-07
1130.0 3.1477e-07
1150.0 3.4358e-07
1170.0 3.733e-07
1190.0 4.0148e-07
1210.0 4.3004e-07
1230.0 4.5955e-07
1250.0 4.8846e-07
1270.0 5.1654e-07
1290.0 5.4621e-07
1310.0 5.7586e-07
1330.0 6.043e-07
1350.0 6.3305e-07
1370.0 6.6274e-07
1390.0 6.9169e-07
1410.0 7.1977e-07
1430.0 7.4914e-07
1450.0 7.785e-07
1470.0 8.0688e-07
1490.0 8.3556e-07
1510.0 8.6587e-07
1530.0 8.9458e-07
1550.0 9.2292e-07
1570.0 9.5224e-07
1590.0 9.8159e-07
1610.0 1.0096e-06
1630.0 1.0386e-06
1650.0 1.0683e-06
1670.0 1.097e-06
1690.0 1.1254e-06
1710.0 1.155e-06
1730.0 1.1847e-06
1750.0 1.2126e-06
1770.0 1.2414e-06
1790.0 1.2709e-06
1810.0 1.2994e-06
1830.0 1.3274e-06
1850.0 1.3573e-06
1870.0 1.3864e-06
1890.0 1.4145e-06
1910.0 1.4433e-06
1930.0 1.4729e-06
1950.0 1.5011e-06
1970.0 1.5291e-06
1990.0 1.5583e-06
2010.0 1.5869e-06
2030.0 1.6147e-06
2050.0 1.6433e-06
2070.0 1.6728e-06
2090.0 1.7006e-06
2110.0 1.7284e-06
2130.0 1.7571e-06
2150.0 1.7853e-06
2170.0 1.8124e-06
2190.0 1.8405e-06
2210.0 1.8688e-06
2230.0 1.8961e-06
2250.0 1.9232e-06
2270.0 1.9516e-06
2290.0 1.9792e-06
2310.0 2.0057e-06
2330.0 2.0333e-06
2350.0 2.0616e-06
2370.0 2.0898e-06
2390.0 2.1203e-06
2410.0 2.1565e-06
2430.0 2.1981e-06
2450.0 2.2479e-06
2470.0 2.3116e-06
2490.0 2.3919e-06
2510.0 2.4832e-06
2530.0 2.5932e-06
2550.0 2.7307e-06
2570.0 2.9019e-06
2590.0 3.1245e-06
2610.0 3.4579e-06
2630.0 3.9338e-06
2650.0 4.5561e-06
2670.0 5.3606e-06
2690.0 6.3493e-06
2710.0 7.4047e-06
2730.0 8.4475e-06
2750.0 9.4747e-06
2770.0 1.0368e-05
2790.0 1.1078e-05
2810.0 1.1641e-05
2830.0 1.2081e-05
2850.0 1.2381e-05
2870.0 1.2601e-05
2890.0 1.2776e-05
2910.0 1.2915e-05
2930.0 1.3029e-05
2950.0 1.3137e-05
2970.0 1.3244e-05
2990.0 1.3343e-05
3010.0 0.00037715
3030.0 0.00037997
3050.0 0.0003827
3070.0 0.00038503
3090.0 0.00038704
3110.0 0.00038828
3130.0 0.00038823
3150.0 0.00038651
3170.0 0.00038237
3190.0 0.00037587
3210.0 0.00036762
3230.0 0.00035819
3250.0 0.00034887
3270.0 0.00034207
3290.0 0.00033829
3310.0 0.0003389
3330.0 0.0003438
3350.0 0.00035235
3370.0 0.00036454
3390.0 0.00037991
3410.0 0.00039664
3430.0 0.00041541
3450.0 0.00043703
3470.0 0.00046064
3490.0 0.00048566
3510.0 0.00051394
3530.0 0.00054422
3550.0 0.00057488
3570.0 0.00060686
3590.0 0.00064164
3610.0 0.00067748
3630.0 0.00071321
3650.0 0.00075028
3670.0 0.00078412
3690.0 0.00080942
3710.0 0.00082392
3730.0 0.0008244
3750.0 0.00081292
3770.0 0.00080842
3790.0 0.00080361
3810.0 0.00078386
3830.0 0.00080812
3850.0 0.00090358
3870.0 0.00095597
3890.0 0.00095161
3910.0 0.00095567
3930.0 0.00098083
3950.0 0.00099632
3970.0 0.00090773
3990.0 0.00078106
4010.0 0.002341
4030.0 0.0028364
4050.0 0.0032518
4070.0 0.0028214
4090.0 0.0025554
4110.0 0.0022549
4130.0 0.0020754
4150.0 0.0022076
4170.0 0.0021746
4190.0 0.0023179
4210.0 0.0022967
4230.0 0.0024293
4250.0 0.0028739
4270.0 0.0029077
4290.0 0.0026794
4310.0 0.0027841
4330.0 0.0029615
4350.0 0.0033205
4370.0 0.0037788
4390.0 0.003546
4410.0 0.0026199
4430.0 0.0022179
4450.0 0.002038
4470.0 0.0015642
4490.0 0.001688
4510.0 0.0025498
4530.0 0.0029407
4550.0 0.0029662
4570.0 0.0033377
4590.0 0.003802
4610.0 0.0051279
4630.0 0.0066601
4650.0 0.0072228
4670.0 0.006689
4690.0 0.0063825
4710.0 0.0067467
4730.0 0.006367
4750.0 0.0047602
4770.0 0.0034918
4790.0 0.0032606
4810.0 0.0031079
4830.0 0.0028452
4850.0 0.0031222
4870.0 0.0041247
4890.0 0.0048642
4910.0 0.0042677
4930.0 0.0037763
4950.0 0.0041488
4970.0 0.0053206
4990.0 0.0072107
5010.0 0.008295
5030.0 0.0073142
5050.0 0.0049486
5070.0 0.0032613
5090.0 0.0026297
5110.0 0.0027045
5130.0 0.0031214
5150.0 0.0033818
5170.0 0.003331
5190.0 0.0031126
5210.0 0.0032534
5230.0 0.0034201
5250.0 0.0036859
5270.0 0.0039768
5290.0 0.0044071
5310.0 0.0051298
5330.0 0.0056768
5350.0 0.0056406
5370.0 0.0059249
5390.0 0.006799
5410.0 0.0067929
5430.0 0.0060073
5450.0 0.0055194
5470.0 0.0058606
5490.0 0.00716
5510.0 0.0089526
5530.0 0.010268
5550.0 0.0099244
5570.0 0.009022
5590.0 0.0078448
5610.0 0.0072347
5630.0 0.0070154
5650.0 0.0066815
5670.0 0.0063313
5690.0 0.0056602
5710.0 0.0055188
5730.0 0.0050836
5750.0 0.0035843
5770.0 0.0027963
5790.0 0.0031688
5810.0 0.0035782
5830.0 0.004391
5850.0 0.005227
5870.0 0.0057994
5890.0 0.0058977
5910.0 0.005786
5930.0 0.0055076
5950.0 0.0056122
5970.0 0.0063973
5990.0 0.0060152
6010.0 0.0050425
6030.0 0.0042602
6050.0 0.0037101
6070.0 0.0036898
6090.0 0.004001
6110.0 0.0044738
6130.0 0.0045423
6150.0 0.0039082
6170.0 0.003438
6190.0 0.003869
6210.0 0.0051148
6230.0 0.006712
6250.0 0.0072701
6270.0 0.0063531
6290.0 0.0053452
6310.0 0.0041728
6330.0 0.0031972
6350.0 0.0028518
6370.0 0.002999
6390.0 0.003467
6410.0 0.004275
6430.0 0.004992
6450.0 0.0057121
6470.0 0.0065405
6490.0 0.0079005
6510.0 0.0088338
6530.0 0.0086665
6550.0 0.0078368
6570.0 0.0066527
6590.0 0.005999
6610.0 0.0051726
6630.0 0.0046862
6650.0 0.0044298
6670.0 0.0043035
6690.0 0.0038884
6710.0 0.0035347
6730.0 0.0025459
6750.0 0.002524
6770.0 0.0027435
6790.0 0.0031534
6810.0 0.0028854
6830.0 0.0029712
6850.0 0.002779
6870.0 0.0025386
6890.0 0.0024375
6910.0 0.0025974
6930.0 0.0024329
6950.0 0.002503
6970.0 0.0026327
6990.0 0.0029883
7010.0 0.0030138
7030.0 0.0030617
7050.0 0.0029198
7070.0 0.002782
7090.0 0.0027902
7110.0 0.0028709
7130.0 0.0030895
7150.0 0.0032813
7170.0 0.0036207
7190.0 0.0039802
7210.0 0.003911
7230.0 0.0040206
7250.0 0.0043208
7270.0 0.0047086
7290.0 0.0055887
7310.0 0.0060642
7330.0 0.0058616
7350.0 0.0053014
7370.0 0.0046127
7390.0 0.0044749
7410.0 0.0047555
7430.0 0.0052851
7450.0 0.0057564
7470.0 0.0057036
7490.0 0.0052006
7510.0 0.0058909
7530.0 0.0058264
7550.0 0.0052369
7570.0 0.004091
7590.0 0.0028124
7610.0 0.0024139
7630.0 0.0027426
7650.0 0.0032428
7670.0 0.0040359
7690.0 0.0044412
7710.0 0.0046283
7730.0 0.0048637
7750.0 0.0054601
7770.0 0.0055459
7790.0 0.0050942
7810.0 0.0046481
7830.0 0.0047933
7850.0 0.0046595
7870.0 0.004272
7890.0 0.0035893
7910.0 0.0029176
7930.0 0.0027859
7950.0 0.002538
7970.0 0.0023494
7990.0 0.002336
8010.0 0.00017301
8030.0 0.00017076
8050.0 0.00016846
8070.0 0.00017066
8090.0 0.00018337
8110.0 0.00018025
8130.0 0.00014868
8150.0 0.0001448
8170.0 0.00012472
8190.0 0.0001182
8210.0 0.0001535
8230.0 0.0001709
8250.0 0.00015403
8270.0 0.00013406
8290.0 0.00013068
8310.0 0.00010058
8330.0 6.7791e-05
8350.0 4.811e-05
8370.0 3.0312e-05
8390.0 5.5409e-05
8410.0 6.4566e-05
8430.0 7.9588e-05
8450.0 9.3458e-05
8470.0 0.00011616
8490.0 0.00011534
8510.0 0.00011346
8530.0 0.00011841
8550.0 0.00015976
8570.0 0.00018913
8590.0 0.00020407
8610.0 0.00025778
8630.0 0.00031053
8650.0 0.00032485
8670.0 0.00034522
8690.0 0.00034715
8710.0 0.0003144
8730.0 0.00029244
8750.0 0.00025813
8770.0 0.00024493
8790.0 0.00024063
8810.0 0.00023057
8830.0 0.00018438
8850.0 0.00013498
8870.0 0.00010335
8890.0 0.00010104
8910.0 0.0001158
8930.0 0.00013171
8950.0 0.00013423
8970.0 0.00013487
8990.0 0.00012028
9010.0 0.0012605
9030.0 0.0011422
9050.0 0.0011477
9070.0 0.0011568
9090.0 0.0011647
9110.0 0.0011745
9130.0 0.0011821
9150.0 0.001188
9170.0 0.0011943
9190.0 0.0012009
9210.0 0.001208
9230.0 0.0012155
9250.0 0.001223
9270.0 0.0012309
9290.0 0.0012389
9310.0 0.0012471
9330.0 0.0012554
9350.0 0.001264
9370.0 0.0012727
9390.0 0.0012815
9410.0 0.0012905
9430.0 0.0012998
9450.0 0.0013091
9470.0 0.0013186
9490.0 0.0013283
9510.0 0.0013382
9530.0 0.0013481
9550.0 0.0013584
9570.0 0.0013688
9590.0 0.0013793
9610.0 0.0013899
9630.0 0.0014009
9650.0 0.0014119
9670.0 0.0014229
9690.0 0.0014343
9710.0 0.0014458
9730.0 0.0014573
9750.0 0.001469
9770.0 0.0014811
9790.0 0.0014931
9810.0 0.0015052
9830.0 0.0015176
9850.0 0.0015301
9870.0 0.0015426
9890.0 0.0015553
9910.0 0.0015682
9930.0 0.0015811
9950.0 0.0015941
9970.0 0.0016073
9990.0 0.0016206
10010.0 0.0014063
10030.0 0.0014178
10050.0 0.0014296
10070.0 0.0014418
10090.0 0.0014533
10110.0 0.001465
10130.0 0.0014769
10150.0 0.0014886
10170.0 0.0015006
10190.0 0.0015127
10210.0 0.0015247
10230.0 0.0015366
10250.0 0.0015488
10270.0 0.0015609
10290.0 0.0015729
10310.0 0.001585
10330.0 0.0015972
10350.0 0.0016093
10370.0 0.0016213
10390.0 0.0016334
10410.0 0.0016455
10430.0 0.0016574
10450.0 0.0016693
10470.0 0.0016813
10490.0 0.0016931
10510.0 0.0017048
10530.0 0.0017168
10550.0 0.0017285
10570.0 0.0017399
10590.0 0.0017515
10610.0 0.001763
10630.0 0.0017742
10650.0 0.0017854
10670.0 0.0017966
10690.0 0.0018076
10710.0 0.0018184
10730.0 0.0018293
10750.0 0.0018401
10770.0 0.0018505
10790.0 0.0018608
10810.0 0.0018711
10830.0 0.0018811
10850.0 0.0018906
10870.0 0.0018998
10890.0 0.0019078
10910.0 0.0019141
10930.0 0.0019176
10950.0 0.0019168
10970.0 0.0019103
10990.0 0.0018975
11010.0 0.0018762
11030.0 0.0018464
11050.0 0.00181
11070.0 0.0017665
11090.0 0.0017142
11110.0 0.0016602
11130.0 0.0016038
11150.0 0.0015431
11170.0 0.0014805
11190.0 0.0014198
11210.0 0.0013571
11230.0 0.0012928
11250.0 0.0012313
11270.0 0.0011724
11290.0 0.0011133
11310.0 0.0010573
11330.0 0.001008
11350.0 0.00096138
11370.0 0.00091834
11390.0 0.0008811
11410.0 0.00084852
11430.0 0.00081825
11450.0 0.00079217
11470.0 0.00076962
11490.0 0.00074863
11510.0 0.00072841
11530.0 0.00070965
11550.0 0.00069101
11570.0 0.00067112
11590.0 0.00065053
11610.0 0.00062957
11630.0 0.00060676
11650.0 0.00058233
11670.0 0.00055826
11690.0 0.00053385
11710.0 0.00050866
11730.0 0.00048426
11750.0 0.00046168
11770.0 0.00043953
11790.0 0.00041877
11810.0 0.0004005
11830.0 0.00038416
11850.0 0.00036911
11870.0 0.00035652
11890.0 0.00034605
11910.0 0.00033685
11930.0 0.00032895
11950.0 0.00032237
11970.0 0.00031649
11990.0 0.00031093
12010.0 0.00030578
12030.0 0.00030083
12050.0 0.0002957
12070.0 0.00029037
12090.0 0.00028524
12110.0 0.00028002
12130.0 0.00027479
12150.0 0.00026998
12170.0 0.00026577
12190.0 0.00026213
12210.0 0.00025959
12230.0 0.00025837
12250.0 0.00025857
12270.0 0.00026051
12290.0 0.0002642
12310.0 0.00026949
12330.0 0.00027688
12350.0 0.00028611
12370.0 0.00029663
12390.0 0.00030874
12410.0 0.00032294
12430.0 0.00033738
12450.0 0.00035232
12470.0 0.00036821
12490.0 0.00038417
12510.0 0.00039915
12530.0 0.00041404
12550.0 0.00042841
12570.0 0.0004411
12590.0 0.00045223
12610.0 0.00046216
12630.0 0.00047007
12650.0 0.00047553
12670.0 0.00047912
12690.0 0.00048055
12710.0 0.00047976
12730.0 0.00047698
12750.0 0.00047202
12770.0 0.00046521
12790.0 0.00045695
12810.0 0.00044709
12830.0 0.00043569
12850.0 0.00042376
12870.0 0.00041114
12890.0 0.00039749
12910.0 0.00038362
12930.0 0.00036994
12950.0 0.00035567
12970.0 0.00034115
12990.0 0.00032741
13010.0 0.00031384
13030.0 0.00030011
13050.0 0.00028693
13070.0 0.00027459
13090.0 0.0002622
13110.0 0.00025021
13130.0 0.00023916
13150.0 0.00022869
13170.0 0.00021845
13190.0 0.00020933
13210.0 0.0002013
13230.0 0.00019396
13250.0 0.00018765
13270.0 0.00018266
13290.0 0.00017879
13310.0 0.00017612
13330.0 0.0001749
13350.0 0.00017504
13370.0 0.00017661
13390.0 0.0001797
13410.0 0.00018387
13430.0 0.00018928
13450.0 0.00019598
13470.0 0.00020341
13490.0 0.00021127
13510.0 0.00022015
13530.0 0.00022915
13550.0 0.00023776
13570.0 0.00024625
13590.0 0.00025453
13610.0 0.00026189
13630.0 0.00026831
13650.0 0.00027418
13670.0 0.00027905
13690.0 0.00028282
13710.0 0.00028573
13730.0 0.00028781
13750.0 0.00028885
13770.0 0.00028909
13790.0 0.00028856
13810.0 0.00028729
13830.0 0.00028541
13850.0 0.00028286
13870.0 0.00027964
13890.0 0.00027596
13910.0 0.00027182
13930.0 0.00026702
13950.0 0.00026178
13970.0 0.00025643
13990.0 0.00025059
14010.0 0.00024439
14030.0 0.0002382
14050.0 0.00023197
14070.0 0.00022538
14090.0 0.00021908
14110.0 0.00021315
14130.0 0.0002074
14150.0 0.000202
14170.0 0.00019738
14190.0 0.00019339
14210.0 0.00019
14230.0 0.00018749
14250.0 0.00018587
14270.0 0.00018509
14290.0 0.00018526
14310.0 0.00018629
14330.0 0.00018814
14350.0 0.00019087
14370.0 0.00019427
14390.0 0.00019813
14410.0 0.00020268
14430.0 0.00020767
14450.0 0.00021277
14470.0 0.00021806
14490.0 0.00022369
14510.0 0.00022907
14530.0 0.00023418
14550.0 0.00023929
14570.0 0.00024419
14590.0 0.00024866
14610.0 0.00025297
14630.0 0.00025725
14650.0 0.00026123
14670.0 0.00026507
14690.0 0.00026908
14710.0 0.00027329
14730.0 0.0002775
14750.0 0.00028217
14770.0 0.00028746
14790.0 0.0002932
14810.0 0.00029942
14830.0 0.00030679
14850.0 0.0003148
14870.0 0.00032315
14890.0 0.00033217
14910.0 0.00034174
14930.0 0.00035095
14950.0 0.00035955
14970.0 0.00036769
14990.0 0.00037452
15010.0 0.00037974
15030.0 0.00038361
15050.0 0.00038617
15070.0 0.00038742
15090.0 0.00038785
15110.0 0.00038773
15130.0 0.00038724
15150.0 0.00038659
15170.0 0.00038581
15190.0 0.00038498
15210.0 0.00038416
15230.0 0.00038335
15250.0 0.0003825
15270.0 0.00038166
15290.0 0.00038087
15310.0 0.00038006
15330.0 0.00037923
15350.0 0.00037844
15370.0 0.00037766
15390.0 0.00037683
15410.0 0.00037604
15430.0 0.00037527
15450.0 0.00037448
15470.0 0.00037367
15490.0 0.00037291
15510.0 0.00037215
15530.0 0.00037137
15550.0 0.0003706
15570.0 0.00036986
15590.0 0.00036908
15610.0 0.0003683
15630.0 0.00036756
15650.0 0.00036681
15670.0 0.00036604
15690.0 0.00036529
15710.0 0.00036457
15730.0 0.00036382
15750.0 0.00036306
15770.0 0.00036234
15790.0 0.00036161
15810.0 0.00036084
15830.0 0.0003601
15850.0 0.00035939
15870.0 0.00035865
15890.0 0.00035791
15910.0 0.0003572
15930.0 0.00035648
15950.0 0.00035573
15970.0 0.00035501
15990.0 0.0003543
16010.0 0.00035356
16030.0 0.00035282
16050.0 0.00035212
16070.0 0.0003514
16090.0 0.00035066
16110.0 0.00034995
16130.0 0.00034925
16150.0 0.0003485
16170.0 0.00034777
16190.0 0.00034707
16210.0 0.00034635
16230.0 0.00034561
16250.0 0.0003449
16270.0 0.0003442
16290.0 0.00034346
16310.0 0.00034273
16330.0 0.00034203
16350.0 0.00034131
16370.0 0.00034055
16390.0 0.00033984
16410.0 0.00033913
16430.0 0.0003384
16450.0 0.00033766
16470.0 0.00033697
16490.0 0.00033623
16510.0 0.00033548
16530.0 0.00033476
16550.0 0.00033405
16570.0 0.00033329
16590.0 0.00033255
16610.0 0.00033184
16630.0 0.0003311
16650.0 0.00033035
16670.0 0.00032963
16690.0 0.00032891
16710.0 0.00032814
16730.0 0.00032739
16750.0 0.00032667
16770.0 0.00032591
16790.0 0.00032515
16810.0 0.00032442
16830.0 0.00032368
16850.0 0.00032291
16870.0 0.00032216
16890.0 0.00032143
16910.0 0.00032065
16930.0 0.00031987
16950.0 0.00031913
16970.0 0.00031838
16990.0 0.00031759
17010.0 0.00031683
17030.0 0.00031609
17050.0 0.0003153
17070.0 0.00031452
17090.0 0.00031376
17110.0 0.00031299
17130.0 0.00031218
17150.0 0.00031141
17170.0 0.00031065
17190.0 0.00030985
17210.0 0.00030906
17230.0 0.0003083
17250.0 0.00030751
17270.0 0.00030669
17290.0 0.0003059
17310.0 0.00030512
17330.0 0.00030431
17350.0 0.00030349
17370.0 0.00030272
17390.0 0.00030192
17410.0 0.00030109
17430.0 0.0003003
17450.0 0.00029951
17470.0 0.00029867
17490.0 0.00029784
17510.0 0.00029705
17530.0 0.00029623
17550.0 0.00029539
17570.0 0.00029458
17590.0 0.00029377
17610.0 0.00029293
17630.0 0.0002921
17650.0 0.00029129
17670.0 0.00029046
17690.0 0.00028959
17710.0 0.00028877
17730.0 0.00028795
17750.0 0.00028709
17770.0 0.00028625
17790.0 0.00028544
17810.0 0.00028458
17830.0 0.00028372
17850.0 0.00028288
17870.0 0.00028204
17890.0 0.00028117
17910.0 0.00028031
17930.0 0.00027948
17950.0 0.00027862
17970.0 0.00027775
17990.0 0.00027691
18010.0 0.00027606
18030.0 0.00027517
18050.0 0.0002743
18070.0 0.00027346
18090.0 0.00027258
18110.0 0.0002717
18130.0 0.00027085
18150.0 0.00026999
18170.0 0.0002691
18190.0 0.00026823
18210.0 0.00026738
18230.0 0.00026648
18250.0 0.00026558
18270.0 0.00026472
18290.0 0.00026385
18310.0 0.00026295
18330.0 0.00026208
18350.0 0.00026122
18370.0 0.00026032
18390.0 0.00025942
18410.0 0.00025856
18430.0 0.00025767
18450.0 0.00025675
18470.0 0.00025587
18490.0 0.00025501
18510.0 0.0002541
18530.0 0.00025321
18550.0 0.00025234
18570.0 0.00025145
18590.0 0.00025053
18610.0 0.00024964
18630.0 0.00024876
18650.0 0.00024785
18670.0 0.00024694
18690.0 0.00024607
18710.0 0.00024517
18730.0 0.00024426
18750.0 0.00024337
18770.0 0.0002425
18790.0 0.00024156
18810.0 0.00024066
18830.0 0.00023978
18850.0 0.00023887
18870.0 0.00023795
18890.0 0.00023707
18910.0 0.00023619
18930.0 0.00023526
18950.0 0.00023436
18970.0 0.00023348
18990.0 0.00023257
19010.0 0.00023163
19030.0 0.00023075
19050.0 0.00022986
19070.0 0.00022894
19090.0 0.00022804
19110.0 0.00022716
19130.0 0.00022625
19150.0 0.00022532
19170.0 0.00022443
19190.0 0.00022354
19210.0 0.00022261
19230.0 0.0002217
19250.0 0.00022083
19270.0 0.00021992
19290.0 0.000219
19310.0 0.00021812
19330.0 0.00021723
19350.0 0.00021629
19370.0 0.00021539
19390.0 0.00021451
19410.0 0.0002136
19430.0 0.00021268
19450.0 0.0002118
19470.0 0.00021091
19490.0 0.00020999
19510.0 0.00020909
19530.0 0.00020821
19550.0 0.00020729
19570.0 0.00020637
19590.0 0.00020549
19610.0 0.0002046
19630.0 0.00020368
19650.0 0.00020279
19670.0 0.00020192
19690.0 0.000201
19710.0 0.00020009
19730.0 0.00019922
19750.0 0.00019832
19770.0 0.0001974
19790.0 0.00019651
19810.0 0.00019563
19830.0 0.00019472
19850.0 0.00019381
19870.0 0.00019291
19890.0 0.00019195
19910.0 0.00019089
19930.0 0.00018976
19950.0 0.00018846
19970.0 0.00018687
19990.0 0.00018495
20010.0 0.00016454
20030.0 0.00016216
20050.0 0.00015938
20070.0 0.00015636
20090.0 0.00015311
20110.0 0.00014943
20130.0 0.00014571
20150.0 0.00014203
20170.0 0.0001382
20190.0 0.00013433
20210.0 0.00013066
20230.0 0.00012709
20250.0 0.00012351
20270.0 0.00012019
20290.0 0.00011716
20310.0 0.00011428
20330.0 0.00011158
20350.0 0.00010935
20370.0 0.00010736
20390.0 0.00010562
20410.0 0.00010422
20430.0 0.00010313
20450.0 0.00010228
20470.0 0.0001017
20490.0 0.00010139
20510.0 0.0001013
20530.0 0.00010143
20550.0 0.00010174
20570.0 0.0001022
20590.0 0.00010281
20610.0 0.00010356
20630.0 0.00010438
20650.0 0.0001053
20670.0 0.00010636
20690.0 0.00010743
20710.0 0.00010854
20730.0 0.00010973
20750.0 0.00011098
20770.0 0.00011221
20790.0 0.0001135
20810.0 0.00011486
20830.0 0.00011622
20850.0 0.00011758
20870.0 0.00011904
20890.0 0.00012053
20910.0 0.00012197
20930.0 0.00012346
20950.0 0.000125
20970.0 0.00012651
20990.0 0.00012799
21010.0 0.00012955
21030.0 0.00013108
21050.0 0.00013254
21070.0 0.00013399
21090.0 0.00013545
21110.0 0.00013678
21130.0 0.00013803
21150.0 0.00013924
21170.0 0.00014034
21190.0 0.00014128
21210.0 0.00014213
21230.0 0.00014284
21250.0 0.00014334
21270.0 0.00014366
21290.0 0.00014378
21310.0 0.00014366
21330.0 0.00014333
21350.0 0.00014273
21370.0 0.00014186
21390.0 0.00014075
21410.0 0.00013939
21430.0 0.00013766
21450.0 0.00013573
21470.0 0.00013362
21490.0 0.00013124
21510.0 0.00012863
21530.0 0.00012597
21550.0 0.00012319
21570.0 0.00012023
21590.0 0.00011731
21610.0 0.00011449
21630.0 0.00011167
21650.0 0.00010891
21670.0 0.00010653
21690.0 0.00010432
21710.0 0.00010234
21730.0 0.00010071
21750.0 9.9458e-05
21770.0 9.8502e-05
21790.0 9.7953e-05
21810.0 9.7801e-05
21830.0 9.8017e-05
21850.0 9.863e-05
21870.0 9.9586e-05
21890.0 0.00010082
21910.0 0.0001024
21930.0 0.00010426
21950.0 0.00010627
21970.0 0.0001085
21990.0 0.000111
22010.0 0.0001135
22030.0 0.00011604
22050.0 0.00011871
22070.0 0.00012139
22090.0 0.00012392
22110.0 0.00012648
22130.0 0.00012904
22150.0 0.00013143
22170.0 0.00013367
22190.0 0.0001359
22210.0 0.00013798
22230.0 0.0001398
22250.0 0.00014152
22270.0 0.00014311
22290.0 0.00014446
22310.0 0.00014562
22330.0 0.00014664
22350.0 0.00014743
22370.0 0.00014799
22390.0 0.00014834
22410.0 0.00014845
22430.0 0.00014831
22450.0 0.00014793
22470.0 0.00014727
22490.0 0.00014634
22510.0 0.00014518
22530.0 0.0001437
22550.0 0.00014191
22570.0 0.00013991
22590.0 0.00013766
22610.0 0.00013507
22630.0 0.00013227
22650.0 0.00012937
22670.0 0.00012617
22690.0 0.00012275
22710.0 0.0001193
22730.0 0.00011575
22750.0 0.00011189
22770.0 0.00010813
22790.0 0.00010445
22810.0 0.00010068
22830.0 9.691e-05
22850.0 9.3384e-05
22870.0 8.9928e-05
22890.0 8.649e-05
22910.0 8.3323e-05
22930.0 8.0421e-05
22950.0 7.7655e-05
22970.0 7.5096e-05
