#lamb flux
1010.0 4.44e-09
1030.0 4.9107e-09
1050.0 5.452e-09
1070.0 6.0614e-09
1090.0 6.7537e-09
1110.0 7.4636e-09
1130.0 8.1782e-09
1150.0 8.9267e-09
1170.0 9.6988e-09
1190.0 1.0431e-08
1210.0 1.1173e-08
1230.0 1.194e-08
1250.0 1.2691e-08
1270.0 1.3421e-08
1290.0 1.4191e-08
1310.0 1.4962e-08
1330.0 1.5701e-08
1350.0 1.6448e-08
1370.0 1.7219e-08
1390.0 1.7971e-08
1410.0 1.8701e-08
1430.0 1.9464e-08
1450.0 2.0226e-08
1470.0 2.0964e-08
1490.0 2.1709e-08
1510.0 2.2496e-08
1530.0 2.3243e-08
1550.0 2.3979e-08
1570.0 2.474e-08
1590.0 2.5503e-08
1610.0 2.6232e-08
1630.0 2.6984e-08
1650.0 2.7756e-08
1670.0 2.8503e-08
1690.0 2.924e-08
1710.0 3.0007e-08
1730.0 3.0779e-08
1750.0 3.1505e-08
1770.0 3.2254e-08
1790.0 3.3018e-08
1810.0 3.3759e-08
1830.0 3.4489e-08
1850.0 3.5264e-08
1870.0 3.602e-08
1890.0 3.6752e-08
1910.0 3.75e-08
1930.0 3.8268e-08
1950.0 3.9002e-08
1970.0 3.9729e-08
1990.0 4.0486e-08
2010.0 4.1231e-08
2030.0 4.1952e-08
2050.0 4.2696e-08
2070.0 4.3461e-08
2090.0 4.4184e-08
2110.0 4.4906e-08
2130.0 4.5652e-08
2150.0 4.6385e-08
2170.0 4.7088e-08
2190.0 4.7818e-08
2210.0 4.8554e-08
2230.0 4.9262e-08
2250.0 4.9968e-08
2270.0 5.0706e-08
2290.0 5.1422e-08
2310.0 5.2111e-08
2330.0 5.2827e-08
2350.0 5.3563e-08
2370.0 5.4295e-08
2390.0 5.5089e-08
2410.0 5.6029e-08
2430.0 5.711e-08
2450.0 5.8403e-08
2470.0 6.0059e-08
2490.0 6.2146e-08
2510.0 6.4518e-08
2530.0 6.7374e-08
2550.0 7.0948e-08
2570.0 7.5395e-08
2590.0 8.118e-08
2610.0 8.984e-08
2630.0 1.0221e-07
2650.0 1.1837e-07
2670.0 1.3928e-07
2690.0 1.6496e-07
2710.0 1.9238e-07
2730.0 2.1948e-07
2750.0 2.4616e-07
2770.0 2.6938e-07
2790.0 2.8781e-07
2810.0 3.0244e-07
2830.0 3.1387e-07
2850.0 3.2167e-07
2870.0 3.274e-07
2890.0 3.3193e-07
2910.0 3.3555e-07
2930.0 3.385e-07
2950.0 3.4133e-07
2970.0 3.4409e-07
2990.0 3.4667e-07
3010.0 9.7989e-06
3030.0 9.8722e-06
3050.0 9.943e-06
3070.0 1.0004e-05
3090.0 1.0056e-05
3110.0 1.0088e-05
3130.0 1.0087e-05
3150.0 1.0042e-05
3170.0 9.9345e-06
3190.0 9.7656e-06
3210.0 9.5514e-06
3230.0 9.3062e-06
3250.0 9.0642e-06
3270.0 8.8873e-06
3290.0 8.7892e-06
3310.0 8.8051e-06
3330.0 8.9325e-06
3350.0 9.1544e-06
3370.0 9.4713e-06
3390.0 9.8706e-06
3410.0 1.0305e-05
3430.0 1.0793e-05
3450.0 1.1355e-05
3470.0 1.1968e-05
3490.0 1.2618e-05
3510.0 1.3353e-05
3530.0 1.414e-05
3550.0 1.4936e-05
3570.0 1.5767e-05
3590.0 1.6671e-05
3610.0 1.7602e-05
3630.0 1.853e-05
3650.0 1.9493e-05
3670.0 2.0372e-05
3690.0 2.103e-05
3710.0 2.1407e-05
3730.0 2.1419e-05
3750.0 2.1121e-05
3770.0 2.1004e-05
3790.0 2.0879e-05
3810.0 2.0366e-05
3830.0 2.0996e-05
3850.0 2.3476e-05
3870.0 2.4838e-05
3890.0 2.4724e-05
3910.0 2.4829e-05
3930.0 2.5483e-05
3950.0 2.5886e-05
3970.0 2.3584e-05
3990.0 2.0293e-05
4010.0 6.0821e-05
4030.0 7.3693e-05
4050.0 8.4484e-05
4070.0 7.3304e-05
4090.0 6.6392e-05
4110.0 5.8584e-05
4130.0 5.3921e-05
4150.0 5.7356e-05
4170.0 5.6498e-05
4190.0 6.0222e-05
4210.0 5.9672e-05
4230.0 6.3117e-05
4250.0 7.4669e-05
4270.0 7.5547e-05
4290.0 6.9615e-05
4310.0 7.2335e-05
4330.0 7.6943e-05
4350.0 8.6272e-05
4370.0 9.8179e-05
4390.0 9.213e-05
4410.0 6.8068e-05
4430.0 5.7624e-05
4450.0 5.295e-05
4470.0 4.0641e-05
4490.0 4.3856e-05
4510.0 6.6247e-05
4530.0 7.6402e-05
4550.0 7.7065e-05
4570.0 8.6717e-05
4590.0 9.8779e-05
4610.0 0.00013323
4630.0 0.00017304
4650.0 0.00018766
4670.0 0.00017379
4690.0 0.00016583
4710.0 0.00017529
4730.0 0.00016542
4750.0 0.00012368
4770.0 9.072e-05
4790.0 8.4715e-05
4810.0 8.0747e-05
4830.0 7.3923e-05
4850.0 8.1118e-05
4870.0 0.00010716
4890.0 0.00012638
4910.0 0.00011088
4930.0 9.8113e-05
4950.0 0.00010779
4970.0 0.00013824
4990.0 0.00018734
5010.0 0.00021551
5030.0 0.00019003
5050.0 0.00012857
5070.0 8.4733e-05
5090.0 6.8324e-05
5110.0 7.0265e-05
5130.0 8.1097e-05
5150.0 8.7862e-05
5170.0 8.6544e-05
5190.0 8.0869e-05
5210.0 8.4527e-05
5230.0 8.8857e-05
5250.0 9.5762e-05
5270.0 0.00010332
5290.0 0.0001145
5310.0 0.00013327
5330.0 0.00014748
5350.0 0.00014654
5370.0 0.00015393
5390.0 0.00017663
5410.0 0.00017647
5430.0 0.00015607
5450.0 0.00014339
5470.0 0.00015225
5490.0 0.00018601
5510.0 0.00023257
5530.0 0.00026675
5550.0 0.00025782
5570.0 0.00023437
5590.0 0.00020379
5610.0 0.00018794
5630.0 0.00018224
5650.0 0.00017357
5670.0 0.00016447
5690.0 0.00014703
5710.0 0.00014336
5730.0 0.00013206
5750.0 9.3105e-05
5770.0 7.2637e-05
5790.0 8.2313e-05
5810.0 9.2946e-05
5830.0 0.00011406
5850.0 0.00013577
5870.0 0.00015064
5890.0 0.00015319
5910.0 0.00015029
5930.0 0.00014306
5950.0 0.00014577
5970.0 0.00016617
5990.0 0.00015624
6010.0 0.00013097
6030.0 0.00011065
6050.0 9.6366e-05
6070.0 9.5839e-05
6090.0 0.00010392
6110.0 0.0001162
6130.0 0.00011798
6150.0 0.00010151
6170.0 8.9299e-05
6190.0 0.00010049
6210.0 0.00013285
6230.0 0.00017434
6250.0 0.00018883
6270.0 0.00016501
6290.0 0.00013884
6310.0 0.00010838
6330.0 8.3044e-05
6350.0 7.4073e-05
6370.0 7.7895e-05
6390.0 9.0052e-05
6410.0 0.00011104
6430.0 0.00012966
6450.0 0.00014837
6470.0 0.00016988
6490.0 0.00020521
6510.0 0.00022945
6530.0 0.0002251
6550.0 0.00020355
6570.0 0.0001728
6590.0 0.00015582
6610.0 0.00013435
6630.0 0.00012172
6650.0 0.00011506
6670.0 0.00011178
6690.0 0.000101
6710.0 9.1809e-05
6730.0 6.6128e-05
6750.0 6.5559e-05
6770.0 7.1259e-05
6790.0 8.1907e-05
6810.0 7.4946e-05
6830.0 7.7174e-05
6850.0 7.2182e-05
6870.0 6.5938e-05
6890.0 6.331e-05
6910.0 6.7466e-05
6930.0 6.3191e-05
6950.0 6.5013e-05
6970.0 6.8382e-05
6990.0 7.7619e-05
7010.0 7.828e-05
7030.0 7.9524e-05
7050.0 7.5839e-05
7070.0 7.2261e-05
7090.0 7.2472e-05
7110.0 7.4569e-05
7130.0 8.0248e-05
7150.0 8.5229e-05
7170.0 9.4045e-05
7190.0 0.00010338
7210.0 0.00010159
7230.0 0.00010443
7250.0 0.00011223
7270.0 0.0001223
7290.0 0.00014516
7310.0 0.00015751
7330.0 0.00015225
7350.0 0.0001377
7370.0 0.00011981
7390.0 0.00011623
7410.0 0.00012352
7430.0 0.00013728
7450.0 0.00014952
7470.0 0.00014814
7490.0 0.00013508
7510.0 0.00015301
7530.0 0.00015134
7550.0 0.00013603
7570.0 0.00010626
7590.0 7.305e-05
7610.0 6.2699e-05
7630.0 7.1239e-05
7650.0 8.4231e-05
7670.0 0.00010483
7690.0 0.00011536
7710.0 0.00012022
7730.0 0.00012634
7750.0 0.00014183
7770.0 0.00014406
7790.0 0.00013232
7810.0 0.00012074
7830.0 0.00012451
7850.0 0.00012103
7870.0 0.00011097
7890.0 9.3235e-05
7910.0 7.5787e-05
7930.0 7.2366e-05
7950.0 6.5928e-05
7970.0 6.1028e-05
7990.0 6.068e-05
8010.0 4.5433e-06
8030.0 4.4783e-06
8050.0 4.4235e-06
8070.0 4.4917e-06
8090.0 4.8411e-06
8110.0 4.7556e-06
8130.0 3.8981e-06
8150.0 3.8023e-06
8170.0 3.2551e-06
8190.0 3.0707e-06
8210.0 4.0231e-06
8230.0 4.4854e-06
8250.0 4.0069e-06
8270.0 3.4829e-06
8290.0 3.4202e-06
8310.0 2.6386e-06
8330.0 1.7767e-06
8350.0 1.2625e-06
8370.0 7.8516e-07
8390.0 1.453e-06
8410.0 1.6923e-06
8430.0 2.0859e-06
8450.0 2.4485e-06
8470.0 3.0581e-06
8490.0 3.0279e-06
8510.0 2.9691e-06
8530.0 3.0804e-06
8550.0 4.1957e-06
8570.0 4.9876e-06
8590.0 5.3461e-06
8610.0 6.7697e-06
8630.0 8.1454e-06
8650.0 8.4695e-06
8670.0 9.0246e-06
8690.0 9.1198e-06
8710.0 8.2515e-06
8730.0 7.6902e-06
8750.0 6.7756e-06
8770.0 6.423e-06
8790.0 6.32e-06
8810.0 6.0677e-06
8830.0 4.8273e-06
8850.0 3.5151e-06
8870.0 2.6885e-06
8890.0 2.6545e-06
8910.0 3.0608e-06
8930.0 3.4951e-06
8950.0 3.5673e-06
8970.0 3.5796e-06
8990.0 3.1767e-06
9010.0 3.2704e-05
9030.0 2.9614e-05
9050.0 2.976e-05
9070.0 2.9997e-05
9090.0 3.0205e-05
9110.0 3.0462e-05
9130.0 3.066e-05
9150.0 3.0814e-05
9170.0 3.0978e-05
9190.0 3.1153e-05
9210.0 3.1337e-05
9230.0 3.1532e-05
9250.0 3.173e-05
9270.0 3.1935e-05
9290.0 3.2146e-05
9310.0 3.2358e-05
9330.0 3.2575e-05
9350.0 3.28e-05
9370.0 3.3027e-05
9390.0 3.3257e-05
9410.0 3.3493e-05
9430.0 3.3736e-05
9450.0 3.3979e-05
9470.0 3.4226e-05
9490.0 3.4481e-05
9510.0 3.4738e-05
9530.0 3.4997e-05
9550.0 3.5265e-05
9570.0 3.5538e-05
9590.0 3.5811e-05
9610.0 3.6089e-05
9630.0 3.6374e-05
9650.0 3.6662e-05
9670.0 3.695e-05
9690.0 3.7246e-05
9710.0 3.7547e-05
9730.0 3.7848e-05
9750.0 3.8154e-05
9770.0 3.8468e-05
9790.0 3.8783e-05
9810.0 3.9098e-05
9830.0 3.9421e-05
9850.0 3.9748e-05
9870.0 4.0073e-05
9890.0 4.0404e-05
9910.0 4.0741e-05
9930.0 4.1078e-05
9950.0 4.1416e-05
9970.0 4.1761e-05
9990.0 4.211e-05
10010.0 3.6542e-05
10030.0 3.6843e-05
10050.0 3.7151e-05
10070.0 3.7468e-05
10090.0 3.7768e-05
10110.0 3.8075e-05
10130.0 3.8384e-05
10150.0 3.8691e-05
10170.0 3.9002e-05
10190.0 3.9318e-05
10210.0 3.9631e-05
10230.0 3.9943e-05
10250.0 4.026e-05
10270.0 4.0576e-05
10290.0 4.0889e-05
10310.0 4.1206e-05
10330.0 4.1525e-05
10350.0 4.184e-05
10370.0 4.2153e-05
10390.0 4.247e-05
10410.0 4.2785e-05
10430.0 4.3095e-05
10450.0 4.3407e-05
10470.0 4.372e-05
10490.0 4.4028e-05
10510.0 4.4334e-05
10530.0 4.4644e-05
10550.0 4.495e-05
10570.0 4.5249e-05
10590.0 4.555e-05
10610.0 4.5851e-05
10630.0 4.6144e-05
10650.0 4.6435e-05
10670.0 4.6729e-05
10690.0 4.7017e-05
10710.0 4.7298e-05
10730.0 4.7581e-05
10750.0 4.7864e-05
10770.0 4.8135e-05
10790.0 4.8404e-05
10810.0 4.8673e-05
10830.0 4.8934e-05
10850.0 4.9181e-05
10870.0 4.9421e-05
10890.0 4.9632e-05
10910.0 4.9794e-05
10930.0 4.9886e-05
10950.0 4.9866e-05
10970.0 4.9697e-05
10990.0 4.9366e-05
11010.0 4.8747e-05
11030.0 4.7971e-05
11050.0 4.7026e-05
11070.0 4.5896e-05
11090.0 4.4538e-05
11110.0 4.3134e-05
11130.0 4.1668e-05
11150.0 4.0091e-05
11170.0 3.8465e-05
11190.0 3.6887e-05
11210.0 3.5259e-05
11230.0 3.3588e-05
11250.0 3.1992e-05
11270.0 3.046e-05
11290.0 2.8924e-05
11310.0 2.7469e-05
11330.0 2.6188e-05
11350.0 2.4978e-05
11370.0 2.386e-05
11390.0 2.2892e-05
11410.0 2.2046e-05
11430.0 2.1259e-05
11450.0 2.0582e-05
11470.0 1.9996e-05
11490.0 1.9451e-05
11510.0 1.8925e-05
11530.0 1.8438e-05
11550.0 1.7953e-05
11570.0 1.7437e-05
11590.0 1.6902e-05
11610.0 1.6357e-05
11630.0 1.5764e-05
11650.0 1.513e-05
11670.0 1.4504e-05
11690.0 1.387e-05
11710.0 1.3216e-05
11730.0 1.2582e-05
11750.0 1.1995e-05
11770.0 1.142e-05
11790.0 1.088e-05
11810.0 1.0406e-05
11830.0 9.981e-06
11850.0 9.59e-06
11870.0 9.2628e-06
11890.0 8.9909e-06
11910.0 8.7519e-06
11930.0 8.5466e-06
11950.0 8.3755e-06
11970.0 8.2227e-06
11990.0 8.0783e-06
12010.0 7.9447e-06
12030.0 7.8159e-06
12050.0 7.6828e-06
12070.0 7.5443e-06
12090.0 7.4108e-06
12110.0 7.2753e-06
12130.0 7.1395e-06
12150.0 7.0143e-06
12170.0 6.9051e-06
12190.0 6.8105e-06
12210.0 6.7446e-06
12230.0 6.7127e-06
12250.0 6.7179e-06
12270.0 6.7685e-06
12290.0 6.8643e-06
12310.0 7.0016e-06
12330.0 7.1938e-06
12350.0 7.4336e-06
12370.0 7.7067e-06
12390.0 8.0216e-06
12410.0 8.3905e-06
12430.0 8.7655e-06
12450.0 9.1537e-06
12470.0 9.5666e-06
12490.0 9.9813e-06
12510.0 1.037e-05
12530.0 1.0757e-05
12550.0 1.1131e-05
12570.0 1.146e-05
12590.0 1.175e-05
12610.0 1.2007e-05
12630.0 1.2213e-05
12650.0 1.2355e-05
12670.0 1.2448e-05
12690.0 1.2485e-05
12710.0 1.2465e-05
12730.0 1.2393e-05
12750.0 1.2264e-05
12770.0 1.2087e-05
12790.0 1.1872e-05
12810.0 1.1616e-05
12830.0 1.132e-05
12850.0 1.101e-05
12870.0 1.0682e-05
12890.0 1.0327e-05
12910.0 9.9669e-06
12930.0 9.6116e-06
12950.0 9.2408e-06
12970.0 8.8635e-06
12990.0 8.5064e-06
13010.0 8.1538e-06
13030.0 7.7973e-06
13050.0 7.4549e-06
13070.0 7.1341e-06
13090.0 6.8122e-06
13110.0 6.5007e-06
13130.0 6.2136e-06
13150.0 5.9417e-06
13170.0 5.6755e-06
13190.0 5.4386e-06
13210.0 5.23e-06
13230.0 5.0394e-06
13250.0 4.8753e-06
13270.0 4.7458e-06
13290.0 4.6451e-06
13310.0 4.5758e-06
13330.0 4.5442e-06
13350.0 4.5478e-06
13370.0 4.5886e-06
13390.0 4.6688e-06
13410.0 4.777e-06
13430.0 4.9178e-06
13450.0 5.0917e-06
13470.0 5.2847e-06
13490.0 5.4892e-06
13510.0 5.7198e-06
13530.0 5.9535e-06
13550.0 6.1772e-06
13570.0 6.3979e-06
13590.0 6.6129e-06
13610.0 6.8041e-06
13630.0 6.9711e-06
13650.0 7.1236e-06
13670.0 7.2501e-06
13690.0 7.348e-06
13710.0 7.4236e-06
13730.0 7.4777e-06
13750.0 7.5047e-06
13770.0 7.5109e-06
13790.0 7.4972e-06
13810.0 7.4641e-06
13830.0 7.4152e-06
13850.0 7.349e-06
13870.0 7.2654e-06
13890.0 7.1699e-06
13910.0 7.0622e-06
13930.0 6.9375e-06
13950.0 6.8014e-06
13970.0 6.6623e-06
13990.0 6.5107e-06
14010.0 6.3495e-06
14030.0 6.1888e-06
14050.0 6.0268e-06
14070.0 5.8558e-06
14090.0 5.6919e-06
14110.0 5.5379e-06
14130.0 5.3886e-06
14150.0 5.2481e-06
14170.0 5.1282e-06
14190.0 5.0244e-06
14210.0 4.9365e-06
14230.0 4.8713e-06
14250.0 4.8292e-06
14270.0 4.8088e-06
14290.0 4.8132e-06
14310.0 4.84e-06
14330.0 4.8882e-06
14350.0 4.9591e-06
14370.0 5.0474e-06
14390.0 5.1477e-06
14410.0 5.2658e-06
14430.0 5.3956e-06
14450.0 5.5281e-06
14470.0 5.6655e-06
14490.0 5.8117e-06
14510.0 5.9515e-06
14530.0 6.0843e-06
14550.0 6.217e-06
14570.0 6.3444e-06
14590.0 6.4604e-06
14610.0 6.5726e-06
14630.0 6.6836e-06
14650.0 6.787e-06
14670.0 6.8868e-06
14690.0 6.9909e-06
14710.0 7.1004e-06
14730.0 7.2098e-06
14750.0 7.3311e-06
14770.0 7.4687e-06
14790.0 7.6178e-06
14810.0 7.7793e-06
14830.0 7.9707e-06
14850.0 8.1788e-06
14870.0 8.3959e-06
14890.0 8.6301e-06
14910.0 8.8788e-06
14930.0 9.118e-06
14950.0 9.3415e-06
14970.0 9.553e-06
14990.0 9.7305e-06
15010.0 9.8661e-06
15030.0 9.9666e-06
15050.0 1.0033e-05
15070.0 1.0066e-05
15090.0 1.0077e-05
15110.0 1.0074e-05
15130.0 1.0061e-05
15150.0 1.0044e-05
15170.0 1.0024e-05
15190.0 1.0002e-05
15210.0 9.981e-06
15230.0 9.9598e-06
15250.0 9.9378e-06
15270.0 9.916e-06
15290.0 9.8955e-06
15310.0 9.8743e-06
15330.0 9.8529e-06
15350.0 9.8324e-06
15370.0 9.812e-06
15390.0 9.7906e-06
15410.0 9.7699e-06
15430.0 9.7499e-06
15450.0 9.7294e-06
15470.0 9.7085e-06
15490.0 9.6887e-06
15510.0 9.669e-06
15530.0 9.6485e-06
15550.0 9.6286e-06
15570.0 9.6093e-06
15590.0 9.5892e-06
15610.0 9.5688e-06
15630.0 9.5496e-06
15650.0 9.5302e-06
15670.0 9.5102e-06
15690.0 9.4908e-06
15710.0 9.4721e-06
15730.0 9.4524e-06
15750.0 9.4328e-06
15770.0 9.414e-06
15790.0 9.395e-06
15810.0 9.375e-06
15830.0 9.356e-06
15850.0 9.3375e-06
15870.0 9.3182e-06
15890.0 9.299e-06
15910.0 9.2806e-06
15930.0 9.2618e-06
15950.0 9.2423e-06
15970.0 9.2235e-06
15990.0 9.2051e-06
16010.0 9.1859e-06
16030.0 9.1666e-06
16050.0 9.1485e-06
16070.0 9.1299e-06
16090.0 9.1107e-06
16110.0 9.0922e-06
16130.0 9.074e-06
16150.0 9.0546e-06
16170.0 9.0356e-06
16190.0 9.0173e-06
16210.0 8.9986e-06
16230.0 8.9794e-06
16250.0 8.9609e-06
16270.0 8.9427e-06
16290.0 8.9236e-06
16310.0 8.9047e-06
16330.0 8.8864e-06
16350.0 8.8677e-06
16370.0 8.8479e-06
16390.0 8.8295e-06
16410.0 8.8111e-06
16430.0 8.7919e-06
16450.0 8.773e-06
16470.0 8.7548e-06
16490.0 8.7357e-06
16510.0 8.7163e-06
16530.0 8.6976e-06
16550.0 8.6789e-06
16570.0 8.6594e-06
16590.0 8.64e-06
16610.0 8.6217e-06
16630.0 8.6025e-06
16650.0 8.583e-06
16670.0 8.5642e-06
16690.0 8.5454e-06
16710.0 8.5254e-06
16730.0 8.5061e-06
16750.0 8.4872e-06
16770.0 8.4677e-06
16790.0 8.4477e-06
16810.0 8.4288e-06
16830.0 8.4096e-06
16850.0 8.3897e-06
16870.0 8.3701e-06
16890.0 8.3511e-06
16910.0 8.331e-06
16930.0 8.3107e-06
16950.0 8.2914e-06
16970.0 8.2718e-06
16990.0 8.2515e-06
17010.0 8.2317e-06
17030.0 8.2124e-06
17050.0 8.192e-06
17070.0 8.1716e-06
17090.0 8.1519e-06
17110.0 8.132e-06
17130.0 8.1109e-06
17150.0 8.0908e-06
17170.0 8.071e-06
17190.0 8.0504e-06
17210.0 8.0298e-06
17230.0 8.0099e-06
17250.0 7.9895e-06
17270.0 7.9682e-06
17290.0 7.9477e-06
17310.0 7.9275e-06
17330.0 7.9064e-06
17350.0 7.8851e-06
17370.0 7.865e-06
17390.0 7.8442e-06
17410.0 7.8228e-06
17430.0 7.8021e-06
17450.0 7.7816e-06
17470.0 7.7597e-06
17490.0 7.7383e-06
17510.0 7.7176e-06
17530.0 7.6964e-06
17550.0 7.6745e-06
17570.0 7.6535e-06
17590.0 7.6327e-06
17610.0 7.6107e-06
17630.0 7.5891e-06
17650.0 7.5681e-06
17670.0 7.5464e-06
17690.0 7.5238e-06
17710.0 7.5026e-06
17730.0 7.4812e-06
17750.0 7.4591e-06
17770.0 7.4371e-06
17790.0 7.416e-06
17810.0 7.3938e-06
17830.0 7.3713e-06
17850.0 7.3496e-06
17870.0 7.3278e-06
17890.0 7.3051e-06
17910.0 7.2827e-06
17930.0 7.2613e-06
17950.0 7.2389e-06
17970.0 7.2163e-06
17990.0 7.1944e-06
18010.0 7.1724e-06
18030.0 7.1492e-06
18050.0 7.1268e-06
18070.0 7.1048e-06
18090.0 7.0821e-06
18110.0 7.059e-06
18130.0 7.037e-06
18150.0 7.0147e-06
18170.0 6.9915e-06
18190.0 6.9689e-06
18210.0 6.9468e-06
18230.0 6.9236e-06
18250.0 6.9002e-06
18270.0 6.8779e-06
18290.0 6.8552e-06
18310.0 6.8319e-06
18330.0 6.8091e-06
18350.0 6.7869e-06
18370.0 6.7635e-06
18390.0 6.7402e-06
18410.0 6.7176e-06
18430.0 6.6947e-06
18450.0 6.6708e-06
18470.0 6.6479e-06
18490.0 6.6254e-06
18510.0 6.602e-06
18530.0 6.5786e-06
18550.0 6.5561e-06
18570.0 6.5329e-06
18590.0 6.509e-06
18610.0 6.486e-06
18630.0 6.4631e-06
18650.0 6.4394e-06
18670.0 6.4157e-06
18690.0 6.3932e-06
18710.0 6.3699e-06
18730.0 6.3462e-06
18750.0 6.3231e-06
18770.0 6.3003e-06
18790.0 6.2761e-06
18810.0 6.2525e-06
18830.0 6.2297e-06
18850.0 6.2063e-06
18870.0 6.1824e-06
18890.0 6.1593e-06
18910.0 6.1364e-06
18930.0 6.1125e-06
18950.0 6.089e-06
18970.0 6.066e-06
18990.0 6.0425e-06
19010.0 6.0181e-06
19030.0 5.9952e-06
19050.0 5.9721e-06
19070.0 5.9482e-06
19090.0 5.9247e-06
19110.0 5.902e-06
19130.0 5.8782e-06
19150.0 5.8542e-06
19170.0 5.8311e-06
19190.0 5.8079e-06
19210.0 5.7838e-06
19230.0 5.7602e-06
19250.0 5.7374e-06
19270.0 5.7138e-06
19290.0 5.69e-06
19310.0 5.667e-06
19330.0 5.6439e-06
19350.0 5.6196e-06
19370.0 5.5962e-06
19390.0 5.5732e-06
19410.0 5.5495e-06
19430.0 5.5256e-06
19450.0 5.5028e-06
19470.0 5.4796e-06
19490.0 5.4557e-06
19510.0 5.4324e-06
19530.0 5.4096e-06
19550.0 5.3857e-06
19570.0 5.3618e-06
19590.0 5.339e-06
19610.0 5.3157e-06
19630.0 5.2919e-06
19650.0 5.2688e-06
19670.0 5.2461e-06
19690.0 5.2223e-06
19710.0 5.1987e-06
19730.0 5.1759e-06
19750.0 5.1526e-06
19770.0 5.1286e-06
19790.0 5.1055e-06
19810.0 5.0828e-06
19830.0 5.0591e-06
19850.0 5.0354e-06
19870.0 5.012e-06
19890.0 4.987e-06
19910.0 4.9595e-06
19930.0 4.9301e-06
19950.0 4.8964e-06
19970.0 4.855e-06
19990.0 4.8051e-06
20010.0 4.2751e-06
20030.0 4.2132e-06
20050.0 4.1408e-06
20070.0 4.0623e-06
20090.0 3.9779e-06
20110.0 3.8824e-06
20130.0 3.7858e-06
20150.0 3.69e-06
20170.0 3.5907e-06
20190.0 3.49e-06
20210.0 3.3948e-06
20230.0 3.302e-06
20250.0 3.209e-06
20270.0 3.1227e-06
20290.0 3.0439e-06
20310.0 2.9691e-06
20330.0 2.8991e-06
20350.0 2.841e-06
20370.0 2.7894e-06
20390.0 2.7442e-06
20410.0 2.7077e-06
20430.0 2.6795e-06
20450.0 2.6572e-06
20470.0 2.6423e-06
20490.0 2.6343e-06
20510.0 2.632e-06
20530.0 2.6352e-06
20550.0 2.6433e-06
20570.0 2.6552e-06
20590.0 2.6712e-06
20610.0 2.6906e-06
20630.0 2.712e-06
20650.0 2.7359e-06
20670.0 2.7632e-06
20690.0 2.7911e-06
20710.0 2.8199e-06
20730.0 2.851e-06
20750.0 2.8834e-06
20770.0 2.9153e-06
20790.0 2.9489e-06
20810.0 2.9843e-06
20830.0 3.0196e-06
20850.0 3.055e-06
20870.0 3.0929e-06
20890.0 3.1316e-06
20910.0 3.1689e-06
20930.0 3.2076e-06
20950.0 3.2477e-06
20970.0 3.2868e-06
20990.0 3.3254e-06
21010.0 3.366e-06
21030.0 3.4057e-06
21050.0 3.4435e-06
21070.0 3.4813e-06
21090.0 3.5192e-06
21110.0 3.5538e-06
21130.0 3.5862e-06
21150.0 3.6177e-06
21170.0 3.6462e-06
21190.0 3.6707e-06
21210.0 3.6928e-06
21230.0 3.7111e-06
21250.0 3.7242e-06
21270.0 3.7325e-06
21290.0 3.7356e-06
21310.0 3.7326e-06
21330.0 3.7238e-06
21350.0 3.7083e-06
21370.0 3.6856e-06
21390.0 3.6568e-06
21410.0 3.6214e-06
21430.0 3.5767e-06
21450.0 3.5264e-06
21470.0 3.4717e-06
21490.0 3.4098e-06
21510.0 3.3419e-06
21530.0 3.273e-06
21550.0 3.2007e-06
21570.0 3.1237e-06
21590.0 3.0479e-06
21610.0 2.9747e-06
21630.0 2.9014e-06
21650.0 2.8297e-06
21670.0 2.7677e-06
21690.0 2.7104e-06
21710.0 2.6588e-06
21730.0 2.6166e-06
21750.0 2.584e-06
21770.0 2.5592e-06
21790.0 2.5449e-06
21810.0 2.541e-06
21830.0 2.5466e-06
21850.0 2.5625e-06
21870.0 2.5874e-06
21890.0 2.6194e-06
21910.0 2.6606e-06
21930.0 2.7088e-06
21950.0 2.7611e-06
21970.0 2.819e-06
21990.0 2.8839e-06
22010.0 2.9489e-06
22030.0 3.0148e-06
22050.0 3.0841e-06
22070.0 3.1538e-06
22090.0 3.2197e-06
22110.0 3.2862e-06
22130.0 3.3526e-06
22150.0 3.4146e-06
22170.0 3.473e-06
22190.0 3.5309e-06
22210.0 3.5848e-06
22230.0 3.6323e-06
22250.0 3.6769e-06
22270.0 3.7181e-06
22290.0 3.7532e-06
22310.0 3.7834e-06
22330.0 3.81e-06
22350.0 3.8305e-06
22370.0 3.845e-06
22390.0 3.8541e-06
22410.0 3.8569e-06
22430.0 3.8532e-06
22450.0 3.8433e-06
22470.0 3.8262e-06
22490.0 3.8021e-06
22510.0 3.772e-06
22530.0 3.7336e-06
22550.0 3.6869e-06
22570.0 3.635e-06
22590.0 3.5766e-06
22610.0 3.5093e-06
22630.0 3.4365e-06
