#lamb flux
1010.0 1.6301e-05
1030.0 1.6301e-05
1050.0 1.6301e-05
1070.0 1.6301e-05
1090.0 1.6301e-05
1110.0 1.6301e-05
1130.0 1.6301e-05
1150.0 1.6301e-05
1170.0 1.6301e-05
1190.0 1.6301e-05
1210.0 1.6301e-05
1230.0 1.6301e-05
1250.0 1.6301e-05
1270.0 1.6301e-05
1290.0 1.6301e-05
1310.0 1.6301e-05
1330.0 1.6301e-05
1350.0 1.6301e-05
1370.0 1.6301e-05
1390.0 1.6301e-05
1410.0 1.6301e-05
1430.0 1.6301e-05
1450.0 1.8077e-05
1470.0 2.0544e-05
1490.0 2.3323e-05
1510.0 2.6464e-05
1530.0 2.9879e-05
1550.0 3.3614e-05
1570.0 3.7747e-05
1590.0 4.2273e-05
1610.0 4.7135e-05
1630.0 5.2393e-05
1650.0 5.8166e-05
1670.0 6.4388e-05
1690.0 7.1109e-05
1710.0 7.8452e-05
1730.0 8.6385e-05
1750.0 9.476e-05
1770.0 0.00010377
1790.0 0.00011339
1810.0 0.00012347
1830.0 0.00013399
1850.0 0.00014513
1870.0 0.00015658
1890.0 0.00016821
1910.0 0.00018011
1930.0 0.00019221
1950.0 0.00020412
1970.0 0.00021586
1990.0 0.0002275
2010.0 0.0002387
2030.0 0.00024927
2050.0 0.00025938
2070.0 0.00026892
2090.0 0.00027742
2110.0 0.00028505
2130.0 0.00029193
2150.0 0.00029777
2170.0 0.00030244
2190.0 0.00030633
2210.0 0.00030929
2230.0 0.00031114
2250.0 0.00031208
2270.0 0.0003124
2290.0 0.0003118
2310.0 0.00031032
2330.0 0.00030835
2350.0 0.00030588
2370.0 0.00030277
2390.0 0.00029934
2410.0 0.00029583
2430.0 0.00029203
2450.0 0.00028809
2470.0 0.00028433
2490.0 0.00028086
2510.0 0.00027762
2530.0 0.00027543
2550.0 0.00027535
2570.0 0.00027832
2590.0 0.00028554
2610.0 0.00030029
2630.0 0.00032324
2650.0 0.00035309
2670.0 0.00039081
2690.0 0.00043602
2710.0 0.00048346
2730.0 0.00053114
2750.0 0.00058164
2770.0 0.00063172
2790.0 0.00068007
2810.0 0.00073
2830.0 0.00078439
2850.0 0.00083805
2870.0 0.0008939
2890.0 0.00095466
2910.0 0.0010185
2930.0 0.001083
2950.0 0.0011529
2970.0 0.0012278
2990.0 0.0013043
3010.0 0.0013839
3030.0 0.0014695
3050.0 0.0015583
3070.0 0.0016453
3090.0 0.0017338
3110.0 0.0018188
3130.0 0.0018933
3150.0 0.0019544
3170.0 0.0019978
3190.0 0.0020177
3210.0 0.0020101
3230.0 0.0019836
3250.0 0.0019737
3270.0 0.0020006
3290.0 0.0020533
3310.0 0.0021189
3330.0 0.0021999
3350.0 0.0022912
3370.0 0.002394
3390.0 0.002514
3410.0 0.002628
3430.0 0.0028057
3450.0 0.0029474
3470.0 0.003096
3490.0 0.0032219
3510.0 0.0033748
3530.0 0.0038804
3550.0 0.0045872
3570.0 0.0050187
3590.0 0.0052073
3610.0 0.0052266
3630.0 0.0050664
3650.0 0.0054752
3670.0 0.0065121
3690.0 0.0073327
3710.0 0.0077686
3730.0 0.0081319
3750.0 0.0085311
3770.0 0.0084611
3790.0 0.0080151
3810.0 0.0075049
3830.0 0.0069915
3850.0 0.0069426
3870.0 0.0075153
3890.0 0.0081104
3910.0 0.008521
3930.0 0.0087809
3950.0 0.009553
3970.0 0.010272
3990.0 0.0098162
4010.0 0.008636
4030.0 0.0075646
4050.0 0.0072437
4070.0 0.0074266
4090.0 0.0074287
4110.0 0.0072647
4130.0 0.0071443
4150.0 0.0072185
4170.0 0.0078655
4190.0 0.0086375
4210.0 0.0085406
4230.0 0.008079
4250.0 0.0078752
4270.0 0.0078701
4290.0 0.0082069
4310.0 0.0085671
4330.0 0.0081563
4350.0 0.0070761
4370.0 0.006195
4390.0 0.0055675
4410.0 0.0050338
4430.0 0.005004
4450.0 0.0054315
4470.0 0.0058081
4490.0 0.0063087
4510.0 0.007218
4530.0 0.0091311
4550.0 0.011602
4570.0 0.013082
4590.0 0.013946
4610.0 0.015316
4630.0 0.016301
4650.0 0.015247
4670.0 0.012501
4690.0 0.010229
4710.0 0.0093
4730.0 0.0090269
4750.0 0.008322
4770.0 0.0077177
4790.0 0.0081087
4810.0 0.0088665
4830.0 0.0089538
4850.0 0.008367
4870.0 0.0081187
4890.0 0.0086603
4910.0 0.0092126
4930.0 0.0092812
4950.0 0.0089617
4970.0 0.0084002
4990.0 0.0075939
5010.0 0.0068752
5030.0 0.0064571
5050.0 0.0062644
5070.0 0.0061099
5090.0 0.0059295
5110.0 0.0058776
5130.0 0.0059135
5150.0 0.0061904
5170.0 0.0068796
5190.0 0.0077567
5210.0 0.0087584
5230.0 0.0094229
5250.0 0.0097712
5270.0 0.01032
5290.0 0.010971
5310.0 0.011227
5330.0 0.010822
5350.0 0.01023
5370.0 0.010218
5390.0 0.010956
5410.0 0.01189
5430.0 0.012472
5450.0 0.012608
5470.0 0.012343
5490.0 0.011879
5510.0 0.011572
5530.0 0.011522
5550.0 0.011611
5570.0 0.011653
5590.0 0.011387
5610.0 0.010876
5630.0 0.010167
5650.0 0.0094154
5670.0 0.0089548
5690.0 0.008722
5710.0 0.0086008
5730.0 0.0086498
5750.0 0.0085807
5770.0 0.0084177
5790.0 0.0084565
5810.0 0.0085365
5830.0 0.0086482
5850.0 0.0087273
5870.0 0.0085719
5890.0 0.0082229
5910.0 0.007749
5930.0 0.007008
5950.0 0.0063967
5970.0 0.0062611
5990.0 0.0064879
6010.0 0.006641
6030.0 0.0064196
6050.0 0.0062063
6070.0 0.0064405
6090.0 0.0069402
6110.0 0.0072326
6130.0 0.0070534
6150.0 0.0066455
6170.0 0.0063524
6190.0 0.0060807
6210.0 0.0057171
6230.0 0.0053375
6250.0 0.0051574
6270.0 0.0052715
6290.0 0.0054742
6310.0 0.0057974
6330.0 0.0062681
6350.0 0.0067697
6370.0 0.0070499
6390.0 0.0071191
6410.0 0.0071885
6430.0 0.0072588
6450.0 0.0073373
6470.0 0.007482
6490.0 0.0076394
6510.0 0.0077492
6530.0 0.0077472
6550.0 0.0076252
6570.0 0.0073669
6590.0 0.0070248
6610.0 0.0067803
6630.0 0.0066398
6650.0 0.0064325
6670.0 0.006142
6690.0 0.005894
6710.0 0.0057651
6730.0 0.0057058
6750.0 0.0056189
6770.0 0.0055125
6790.0 0.0054228
6810.0 0.0053104
6830.0 0.0052473
6850.0 0.0053387
6870.0 0.0053966
6890.0 0.0053418
6910.0 0.0052248
6930.0 0.0051152
6950.0 0.0050206
6970.0 0.0048505
6990.0 0.0046657
7010.0 0.0045847
7030.0 0.0045394
7050.0 0.0044057
7070.0 0.0042079
7090.0 0.0041234
7110.0 0.004228
7130.0 0.0044866
7150.0 0.0047637
7170.0 0.004943
7190.0 0.004908
7210.0 0.0047161
7230.0 0.0045928
7250.0 0.004583
7270.0 0.0045716
7290.0 0.0045341
7310.0 0.0045677
7330.0 0.0047039
7350.0 0.0048829
7370.0 0.0049926
7390.0 0.0049785
7410.0 0.0048708
7430.0 0.0047293
7450.0 0.0045646
7470.0 0.004347
7490.0 0.0041968
7510.0 0.0040662
7530.0 0.0039875
7550.0 0.0040104
7570.0 0.0040544
7590.0 0.0040818
7610.0 0.0040634
7630.0 0.0040403
7650.0 0.0040685
7670.0 0.0041693
7690.0 0.0042971
7710.0 0.0044462
7730.0 0.0045605
7750.0 0.0046957
7770.0 0.0047936
7790.0 0.004846
7810.0 0.004846
7830.0 0.0048396
7850.0 0.0047499
7870.0 0.0045415
7890.0 0.0043261
7910.0 0.0041886
7930.0 0.0040881
7950.0 0.0039913
7970.0 0.0039414
7990.0 0.0039614
8010.0 0.0038075
8030.0 0.0037646
8050.0 0.00371
8070.0 0.0036429
8090.0 0.0035751
8110.0 0.0035702
8130.0 0.0035865
8150.0 0.0035696
8170.0 0.0035394
8190.0 0.003445
8210.0 0.0032446
8230.0 0.0030271
8250.0 0.0029012
8270.0 0.0028039
8290.0 0.002704
8310.0 0.0026558
8330.0 0.0026468
8350.0 0.0025781
8370.0 0.0025416
8390.0 0.0026226
8410.0 0.0027725
8430.0 0.0029665
8450.0 0.0031699
8470.0 0.0032862
8490.0 0.0033884
8510.0 0.0034592
8530.0 0.0035296
8550.0 0.0035999
8570.0 0.0036456
8590.0 0.0036864
8610.0 0.0037806
8630.0 0.0038175
8650.0 0.0037397
8670.0 0.0037395
8690.0 0.0037972
8710.0 0.0038506
8730.0 0.0038384
8750.0 0.0037432
8770.0 0.0037048
8790.0 0.0036845
8810.0 0.003622
8830.0 0.0033832
8850.0 0.0030852
8870.0 0.0028717
8890.0 0.0027631
8910.0 0.0026148
8930.0 0.0024302
8950.0 0.0023109
8970.0 0.0022891
8990.0 0.0023095
9010.0 0.0023066
9030.0 0.0022894
9050.0 0.0022737
9070.0 0.0022604
9090.0 0.0022476
9110.0 0.0022349
9130.0 0.0022223
9150.0 0.0022098
9170.0 0.0021973
9190.0 0.0021848
9210.0 0.0021725
9230.0 0.0021602
9250.0 0.002148
9270.0 0.0021359
9290.0 0.0021238
9310.0 0.0021119
9330.0 0.0020999
9350.0 0.0020881
9370.0 0.0020763
9390.0 0.0020647
9410.0 0.002053
9430.0 0.0020413
9450.0 0.0020287
9470.0 0.0020166
9490.0 0.0020062
9510.0 0.0019954
9530.0 0.0019846
9550.0 0.0019736
9570.0 0.0019626
9590.0 0.0019517
9610.0 0.0019408
9630.0 0.0019299
9650.0 0.0019191
9670.0 0.0019084
9690.0 0.0018977
9710.0 0.001887
9730.0 0.0018765
9750.0 0.001866
9770.0 0.0018554
9790.0 0.001845
9810.0 0.0018347
9830.0 0.0018242
9850.0 0.001813
9870.0 0.001803
9890.0 0.0017931
9910.0 0.0017831
9930.0 0.001773
9950.0 0.0017631
9970.0 0.001753
9990.0 0.0017427
10010.0 0.0017314
10030.0 0.001721
10050.0 0.0017116
10070.0 0.0017021
10090.0 0.0016926
10110.0 0.0016821
10130.0 0.0016685
10150.0 0.0016593
10170.0 0.0016507
10190.0 0.0016413
10210.0 0.001632
10230.0 0.0016227
10250.0 0.0016127
10270.0 0.0016027
10290.0 0.001593
10310.0 0.0015829
10330.0 0.0015724
10350.0 0.0015624
10370.0 0.0015525
10390.0 0.0015421
10410.0 0.0015317
10430.0 0.0015219
10450.0 0.0015115
10470.0 0.001501
10490.0 0.0014908
10510.0 0.0014806
10530.0 0.0014696
10550.0 0.001459
10570.0 0.0014488
10590.0 0.0014381
10610.0 0.0014271
10630.0 0.0014167
10650.0 0.0014061
10670.0 0.0013948
10690.0 0.0013839
10710.0 0.0013731
10730.0 0.0013619
10750.0 0.0013503
10770.0 0.0013394
10790.0 0.0013283
10810.0 0.0013167
10830.0 0.0013053
10850.0 0.0012943
10870.0 0.0012824
10890.0 0.0012705
10910.0 0.0012591
10930.0 0.0012476
10950.0 0.0012357
10970.0 0.0012242
10990.0 0.0012133
11010.0 0.0011778
11030.0 0.0011665
11050.0 0.0011558
11070.0 0.0011454
11090.0 0.0011346
11110.0 0.0011247
11130.0 0.0011153
11150.0 0.0011059
11170.0 0.001097
11190.0 0.001089
11210.0 0.0010812
11230.0 0.0010739
11250.0 0.0010674
11270.0 0.0010616
11290.0 0.0010561
11310.0 0.0010512
11330.0 0.001047
11350.0 0.0010431
11370.0 0.0010395
11390.0 0.0010362
11410.0 0.0010331
11430.0 0.0010299
11450.0 0.0010267
11470.0 0.0010235
11490.0 0.00102
11510.0 0.0010161
11530.0 0.001012
11550.0 0.0010075
11570.0 0.0010024
11590.0 0.00099686
11610.0 0.00099091
11630.0 0.00098418
11650.0 0.00097662
11670.0 0.00096875
11690.0 0.00096024
11710.0 0.00095079
11730.0 0.00094076
11750.0 0.00093048
11770.0 0.00091923
11790.0 0.00090721
11810.0 0.00089503
11830.0 0.00088241
11850.0 0.00086872
11870.0 0.00085506
11890.0 0.00084162
11910.0 0.00082766
11930.0 0.00081354
11950.0 0.00080004
11970.0 0.00078663
11990.0 0.00077298
12010.0 0.00076006
12030.0 0.00074784
12050.0 0.00073575
12070.0 0.00072397
12090.0 0.0007134
12110.0 0.00070323
12130.0 0.0006934
12150.0 0.0006844
12170.0 0.00067625
12190.0 0.00066836
12210.0 0.00066129
12230.0 0.00065518
12250.0 0.00064977
12270.0 0.00064503
12290.0 0.0006412
12310.0 0.00063818
12330.0 0.0006358
12350.0 0.00063412
12370.0 0.00063307
12390.0 0.00063252
12410.0 0.0006325
12430.0 0.00063278
12450.0 0.00063331
12470.0 0.00063409
12490.0 0.00063497
12510.0 0.0006358
12530.0 0.00063665
12550.0 0.00063742
12570.0 0.00063796
12590.0 0.00063823
12610.0 0.00063822
12630.0 0.00063779
12650.0 0.00063688
12670.0 0.00063549
12690.0 0.00063351
12710.0 0.00063097
12730.0 0.00062788
12750.0 0.00062405
12770.0 0.00061967
12790.0 0.00061486
12810.0 0.00060948
12830.0 0.00060355
12850.0 0.0005975
12870.0 0.00059125
12890.0 0.00058462
12910.0 0.00057799
12930.0 0.00057152
12950.0 0.0005649
12970.0 0.00055826
12990.0 0.00055204
13010.0 0.00054598
13030.0 0.00053993
13050.0 0.00053417
13070.0 0.00052877
13090.0 0.00052339
13110.0 0.00051818
13130.0 0.00051331
13150.0 0.00050863
13170.0 0.00050398
13190.0 0.00049966
13210.0 0.00049565
13230.0 0.00049174
13250.0 0.00048802
13270.0 0.00048461
13290.0 0.00048134
13310.0 0.00047813
13330.0 0.00047512
13350.0 0.00047224
13370.0 0.00046936
13390.0 0.00046644
13410.0 0.00046364
13430.0 0.00046073
13450.0 0.00045766
13470.0 0.00045452
13490.0 0.00045131
13510.0 0.00044777
13530.0 0.00044409
13550.0 0.00044035
13570.0 0.0004364
13590.0 0.0004322
13610.0 0.00042797
13630.0 0.00042374
13650.0 0.00041927
13670.0 0.00041475
13690.0 0.00041034
13710.0 0.00040585
13730.0 0.00040117
13750.0 0.00039674
13770.0 0.00039237
13790.0 0.0003879
13810.0 0.0003835
13830.0 0.00037933
13850.0 0.00037508
13870.0 0.00037084
13890.0 0.00036681
13910.0 0.00036291
13930.0 0.00035898
13950.0 0.00035521
13970.0 0.00035174
13990.0 0.00034832
14010.0 0.00034499
14030.0 0.00034191
14050.0 0.00033898
14070.0 0.00033604
14090.0 0.0003333
14110.0 0.00033074
14130.0 0.00032822
14150.0 0.00032574
14170.0 0.00032345
14190.0 0.00032124
14210.0 0.00031902
14230.0 0.0003169
14250.0 0.00031491
14270.0 0.0003129
14290.0 0.00031092
14310.0 0.0003091
14330.0 0.00030733
14350.0 0.00030556
14370.0 0.00030387
14390.0 0.0003023
14410.0 0.00030072
14430.0 0.00029918
14450.0 0.00029774
14470.0 0.00029635
14490.0 0.00029492
14510.0 0.00029359
14530.0 0.00029233
14550.0 0.00029103
14570.0 0.00028972
14590.0 0.00028846
14610.0 0.00028714
14630.0 0.00028573
14650.0 0.00028433
14670.0 0.00028294
14690.0 0.00028149
14710.0 0.00028006
14730.0 0.0002788
14750.0 0.00027766
14770.0 0.0002767
14790.0 0.00027607
14810.0 0.00027582
14830.0 0.000276
14850.0 0.00027671
14870.0 0.00027793
14890.0 0.00027969
14910.0 0.00028198
14930.0 0.00028456
14950.0 0.00028729
14970.0 0.00029014
14990.0 0.00029278
15010.0 0.00029503
15030.0 0.00029691
15050.0 0.00029841
15070.0 0.00029946
15090.0 0.00030023
15110.0 0.0003008
15130.0 0.00030125
15150.0 0.00030164
15170.0 0.00030199
15190.0 0.00030233
15210.0 0.00030268
15230.0 0.00030304
15250.0 0.0003034
15270.0 0.00030378
15290.0 0.00030417
15310.0 0.00030456
15330.0 0.00030496
15350.0 0.00030538
15370.0 0.00030581
15390.0 0.00030623
15410.0 0.00030668
15430.0 0.00030713
15450.0 0.00030759
15470.0 0.00030806
15490.0 0.00030854
15510.0 0.00030903
15530.0 0.00030952
15550.0 0.00031003
15570.0 0.00031055
15590.0 0.00031106
15610.0 0.00031159
15630.0 0.00031213
15650.0 0.00031267
15670.0 0.00031322
15690.0 0.00031378
15710.0 0.00031435
15730.0 0.00031492
15750.0 0.0003155
15770.0 0.00031609
15790.0 0.00031669
15810.0 0.00031728
15830.0 0.00031789
15850.0 0.0003185
15870.0 0.00031912
15890.0 0.00031974
15910.0 0.00032038
15930.0 0.00032101
15950.0 0.00032165
15970.0 0.0003223
15990.0 0.00032295
16010.0 0.0003236
16030.0 0.00032426
16050.0 0.00032492
16070.0 0.00032559
16090.0 0.00032626
16110.0 0.00032694
16130.0 0.00032762
16150.0 0.0003283
16170.0 0.00032898
16190.0 0.00032967
16210.0 0.00033036
16230.0 0.00033105
16250.0 0.00033175
16270.0 0.00033245
16290.0 0.00033315
16310.0 0.00033385
16330.0 0.00033455
16350.0 0.00033526
16370.0 0.00033595
16390.0 0.00033666
16410.0 0.00033737
16430.0 0.00033807
16450.0 0.00033878
16470.0 0.00033949
16490.0 0.0003402
16510.0 0.0003409
16530.0 0.0003416
16550.0 0.00034231
16570.0 0.000343
16590.0 0.0003437
16610.0 0.00034441
16630.0 0.0003451
16650.0 0.00034579
16670.0 0.00034649
16690.0 0.00034718
16710.0 0.00034786
16730.0 0.00034854
16750.0 0.00034923
16770.0 0.0003499
16790.0 0.00035057
16810.0 0.00035124
16830.0 0.00035191
16850.0 0.00035256
16870.0 0.00035322
16890.0 0.00035387
16910.0 0.00035451
16930.0 0.00035514
16950.0 0.00035578
16970.0 0.0003564
16990.0 0.00035702
17010.0 0.00035763
17030.0 0.00035824
17050.0 0.00035884
17070.0 0.00035942
17090.0 0.00036001
17110.0 0.00036059
17130.0 0.00036114
17150.0 0.0003617
17170.0 0.00036226
17190.0 0.0003628
17210.0 0.00036333
17230.0 0.00036386
17250.0 0.00036437
17270.0 0.00036486
17290.0 0.00036536
17310.0 0.00036584
17330.0 0.00036631
17350.0 0.00036677
17370.0 0.00036722
17390.0 0.00036766
17410.0 0.00036808
17430.0 0.0003685
17450.0 0.00036891
17470.0 0.00036929
17490.0 0.00036966
17510.0 0.00037004
17530.0 0.00037039
17550.0 0.00037072
17570.0 0.00037105
17590.0 0.00037137
17610.0 0.00037166
17630.0 0.00037194
17650.0 0.00037222
17670.0 0.00037247
17690.0 0.0003727
17710.0 0.00037293
17730.0 0.00037315
17750.0 0.00037334
17770.0 0.00037351
17790.0 0.00037369
17810.0 0.00037383
17830.0 0.00037396
17850.0 0.00037408
17870.0 0.00037418
17890.0 0.00037426
17910.0 0.00037432
17930.0 0.00037438
17950.0 0.00037441
17970.0 0.00037442
17990.0 0.00037443
18010.0 0.00037441
18030.0 0.00037436
18050.0 0.00037431
18070.0 0.00037424
18090.0 0.00037415
18110.0 0.00037404
18130.0 0.00037391
18150.0 0.00037377
18170.0 0.0003736
18190.0 0.00037342
18210.0 0.00037323
18230.0 0.00037301
18250.0 0.00037276
18270.0 0.00037251
18290.0 0.00037224
18310.0 0.00037194
18330.0 0.00037162
18350.0 0.0003713
18370.0 0.00037094
18390.0 0.00037057
18410.0 0.00037018
18430.0 0.00036977
18450.0 0.00036934
18470.0 0.00036889
18490.0 0.00036843
18510.0 0.00036794
18530.0 0.00036743
18550.0 0.00036691
18570.0 0.00036637
18590.0 0.0003658
18610.0 0.00036521
18630.0 0.00036462
18650.0 0.00036399
18670.0 0.00036334
18690.0 0.00036269
18710.0 0.00036201
18730.0 0.00036131
18750.0 0.0003606
18770.0 0.00035987
18790.0 0.0003591
18810.0 0.00035832
18830.0 0.00035754
18850.0 0.00035673
18870.0 0.00035589
18890.0 0.00035505
18910.0 0.00035419
18930.0 0.0003533
18950.0 0.00035239
18970.0 0.00035148
18990.0 0.00035054
19010.0 0.00034957
19030.0 0.0003486
19050.0 0.00034762
19070.0 0.0003466
19090.0 0.00034558
19110.0 0.00034454
19130.0 0.00034348
19150.0 0.0003424
19170.0 0.00034131
19190.0 0.0003402
19210.0 0.00033907
19230.0 0.00033793
19250.0 0.00033678
19270.0 0.0003356
19290.0 0.00033441
19310.0 0.00033322
19330.0 0.000332
19350.0 0.00033076
19370.0 0.00032951
19390.0 0.00032826
19410.0 0.00032698
19430.0 0.00032568
19450.0 0.00032439
19470.0 0.00032307
19490.0 0.00032174
19510.0 0.00032039
19530.0 0.00031904
19550.0 0.00031767
19570.0 0.00031628
19590.0 0.0003149
19610.0 0.00031349
19630.0 0.00031207
19650.0 0.00031065
19670.0 0.00030921
19690.0 0.00030776
19710.0 0.0003063
19730.0 0.00030483
19750.0 0.00030335
19770.0 0.00030185
19790.0 0.00030035
19810.0 0.00029885
19830.0 0.00029732
19850.0 0.00029578
19870.0 0.00029421
19890.0 0.00029259
19910.0 0.00029087
19930.0 0.00028902
19950.0 0.00028698
19970.0 0.00028462
19990.0 0.00028192
20010.0 0.0002789
20030.0 0.00027544
20050.0 0.00027156
20070.0 0.00026746
20090.0 0.00026316
20110.0 0.00025851
20130.0 0.00025387
20150.0 0.00024932
20170.0 0.00024471
20190.0 0.00024008
20210.0 0.00023567
20230.0 0.00023134
20250.0 0.00022699
20270.0 0.00022282
20290.0 0.00021886
20310.0 0.00021496
20330.0 0.00021112
20350.0 0.00020762
20370.0 0.00020424
20390.0 0.00020097
20410.0 0.00019791
20430.0 0.00019508
20450.0 0.00019234
20470.0 0.00018977
20490.0 0.00018743
20510.0 0.00018524
20530.0 0.00018317
20550.0 0.00018129
20570.0 0.00017956
20590.0 0.00017794
20610.0 0.00017644
20630.0 0.00017506
20650.0 0.00017376
20670.0 0.00017254
20690.0 0.0001714
20710.0 0.0001703
20730.0 0.00016924
20750.0 0.0001682
20770.0 0.00016716
20790.0 0.00016611
20810.0 0.00016505
20830.0 0.00016396
20850.0 0.00016282
20870.0 0.00016162
20890.0 0.00016037
20910.0 0.00015905
20930.0 0.00015766
20950.0 0.00015619
20970.0 0.00015465
20990.0 0.00015306
21010.0 0.00015136
21030.0 0.00014961
21050.0 0.00014781
21070.0 0.00014594
21090.0 0.000144
21110.0 0.00014205
21130.0 0.00014008
21150.0 0.00013806
21170.0 0.00013602
21190.0 0.00013401
21210.0 0.00013195
21230.0 0.00012988
21250.0 0.00012787
21270.0 0.00012587
21290.0 0.00012386
21310.0 0.00012189
21330.0 0.00012
21350.0 0.00011811
21370.0 0.00011625
21390.0 0.00011447
21410.0 0.00011273
21430.0 0.000111
21450.0 0.00010934
21470.0 0.00010776
21490.0 0.00010622
21510.0 0.00010472
21530.0 0.00010329
21550.0 0.00010192
21570.0 0.00010057
21590.0 9.9291e-05
21610.0 9.8062e-05
21630.0 9.6864e-05
21650.0 9.5696e-05
21670.0 9.4587e-05
21690.0 9.3503e-05
21710.0 9.2439e-05
21730.0 9.1404e-05
21750.0 9.0395e-05
21770.0 8.9388e-05
21790.0 8.8395e-05
21810.0 8.7418e-05
21830.0 8.6444e-05
21850.0 8.5464e-05
21870.0 8.4491e-05
21890.0 8.3522e-05
21910.0 8.2541e-05
21930.0 8.1554e-05
21950.0 8.057e-05
21970.0 7.9576e-05
21990.0 7.8561e-05
22010.0 7.7552e-05
22030.0 7.6541e-05
22050.0 7.5512e-05
22070.0 7.4475e-05
22090.0 7.3448e-05
22110.0 7.2407e-05
22130.0 7.1351e-05
22150.0 7.0302e-05
22170.0 6.9255e-05
22190.0 6.8186e-05
22210.0 6.7115e-05
22230.0 6.6064e-05
22250.0 6.5002e-05
22270.0 6.3929e-05
22290.0 6.2872e-05
22310.0 6.1821e-05
22330.0 6.0748e-05
22350.0 5.9685e-05
22370.0 5.864e-05
22390.0 5.7588e-05
22410.0 5.6524e-05
22430.0 5.549e-05
22450.0 5.4464e-05
22470.0 5.3426e-05
22490.0 5.2402e-05
22510.0 5.1404e-05
22530.0 5.0395e-05
22550.0 4.9388e-05
22570.0 4.8415e-05
22590.0 4.7456e-05
22610.0 4.6497e-05
22630.0 4.5563e-05
22650.0 4.4667e-05
22670.0 4.3775e-05
22690.0 4.2902e-05
22710.0 4.2069e-05
22730.0 4.1261e-05
22750.0 4.0461e-05
22770.0 3.9704e-05
22790.0 3.8985e-05
22810.0 3.8286e-05
22830.0 3.7614e-05
22850.0 3.6983e-05
22870.0 3.6379e-05
22890.0 3.5797e-05
22910.0 3.5249e-05
22930.0 3.4733e-05
22950.0 3.4239e-05
22970.0 3.3771e-05
22990.0 3.3334e-05
23010.0 3.2918e-05
23030.0 3.2522e-05
23050.0 3.2145e-05
23070.0 3.1784e-05
23090.0 3.1434e-05
23110.0 3.1094e-05
23130.0 3.0758e-05
