#lamb flux
1010.0 3.2623e-05
1030.0 3.2758e-05
1050.0 3.2906e-05
1070.0 3.3678e-05
1090.0 3.5799e-05
1110.0 3.7447e-05
1130.0 3.8623e-05
1150.0 3.9566e-05
1170.0 4.0254e-05
1190.0 4.0456e-05
1210.0 4.0501e-05
1230.0 4.0488e-05
1250.0 4.0316e-05
1270.0 4.0007e-05
1290.0 3.9807e-05
1310.0 3.9592e-05
1330.0 3.9312e-05
1350.0 3.9118e-05
1370.0 3.9072e-05
1390.0 3.9093e-05
1410.0 3.9215e-05
1430.0 3.9597e-05
1450.0 4.0194e-05
1470.0 4.0991e-05
1490.0 4.21e-05
1510.0 4.3631e-05
1530.0 4.546e-05
1550.0 4.7701e-05
1570.0 5.0482e-05
1590.0 5.3818e-05
1610.0 5.7702e-05
1630.0 6.236e-05
1650.0 6.7852e-05
1670.0 7.4156e-05
1690.0 8.1401e-05
1710.0 8.9807e-05
1730.0 9.9425e-05
1750.0 0.00011018
1770.0 0.00012241
1790.0 0.00013622
1810.0 0.00015153
1830.0 0.00016845
1850.0 0.00018735
1870.0 0.00020793
1890.0 0.00023014
1910.0 0.00025416
1930.0 0.00027999
1950.0 0.0003071
1970.0 0.00033546
1990.0 0.0003652
2010.0 0.00039571
2030.0 0.00042652
2050.0 0.00045779
2070.0 0.00048918
2090.0 0.00051961
2110.0 0.00054917
2130.0 0.00057782
2150.0 0.00060482
2170.0 0.00062959
2190.0 0.00065271
2210.0 0.00067369
2230.0 0.00069191
2250.0 0.00070766
2270.0 0.00072144
2290.0 0.00073246
2310.0 0.00074072
2330.0 0.00074709
2350.0 0.00075151
2370.0 0.00075367
2390.0 0.00075438
2410.0 0.00075434
2430.0 0.00075309
2450.0 0.00075111
2470.0 0.0007494
2490.0 0.00074835
2510.0 0.00074766
2530.0 0.00074947
2550.0 0.00075647
2570.0 0.00077074
2590.0 0.00079519
2610.0 0.00083826
2630.0 0.00090135
2650.0 0.00098099
2670.0 0.0010797
2690.0 0.0011963
2710.0 0.0013174
2730.0 0.001438
2750.0 0.0015647
2770.0 0.0016893
2790.0 0.0018087
2810.0 0.0019308
2830.0 0.0020628
2850.0 0.0021914
2870.0 0.0023237
2890.0 0.002466
2910.0 0.0026138
2930.0 0.0027611
2950.0 0.0029194
2970.0 0.0030873
2990.0 0.0032569
3010.0 0.0034321
3030.0 0.0036196
3050.0 0.003813
3070.0 0.0040016
3090.0 0.0041939
3110.0 0.0043807
3130.0 0.0045478
3150.0 0.0046909
3170.0 0.0048049
3190.0 0.0048846
3210.0 0.0049417
3230.0 0.0049893
3250.0 0.0050452
3270.0 0.0051303
3290.0 0.005256
3310.0 0.0054327
3330.0 0.0056553
3350.0 0.0059094
3370.0 0.0061906
3390.0 0.0064795
3410.0 0.0067736
3430.0 0.0073685
3450.0 0.0078086
3470.0 0.0081974
3490.0 0.0083228
3510.0 0.0082138
3530.0 0.0093071
3550.0 0.011072
3570.0 0.012173
3590.0 0.013008
3610.0 0.013117
3630.0 0.012443
3650.0 0.013373
3670.0 0.015996
3690.0 0.017975
3710.0 0.018768
3730.0 0.019212
3750.0 0.020212
3770.0 0.020258
3790.0 0.019416
3810.0 0.018274
3830.0 0.017045
3850.0 0.016998
3870.0 0.018036
3890.0 0.019055
3910.0 0.019843
3930.0 0.020081
3950.0 0.021429
3970.0 0.022893
3990.0 0.022055
4010.0 0.019701
4030.0 0.017497
4050.0 0.016843
4070.0 0.017534
4090.0 0.017676
4110.0 0.01718
4130.0 0.016963
4150.0 0.017413
4170.0 0.019221
4190.0 0.020815
4210.0 0.020163
4230.0 0.018821
4250.0 0.018097
4270.0 0.017686
4290.0 0.018
4310.0 0.018539
4330.0 0.017655
4350.0 0.015531
4370.0 0.013748
4390.0 0.012525
4410.0 0.011562
4430.0 0.011567
4450.0 0.012582
4470.0 0.013605
4490.0 0.014806
4510.0 0.016749
4530.0 0.02049
4550.0 0.024732
4570.0 0.027277
4590.0 0.02917
4610.0 0.031365
4630.0 0.032427
4650.0 0.030206
4670.0 0.025341
4690.0 0.02154
4710.0 0.020234
4730.0 0.019559
4750.0 0.017527
4770.0 0.015903
4790.0 0.016516
4810.0 0.017948
4830.0 0.017871
4850.0 0.016475
4870.0 0.016137
4890.0 0.016835
4910.0 0.017613
4930.0 0.017593
4950.0 0.017105
4970.0 0.016293
4990.0 0.014976
5010.0 0.013754
5030.0 0.013061
5050.0 0.01274
5070.0 0.012524
5090.0 0.012323
5110.0 0.012305
5130.0 0.012495
5150.0 0.013196
5170.0 0.014573
5190.0 0.016244
5210.0 0.017986
5230.0 0.019032
5250.0 0.019563
5270.0 0.02054
5290.0 0.021489
5310.0 0.021694
5330.0 0.020858
5350.0 0.019893
5370.0 0.019869
5390.0 0.020914
5410.0 0.021919
5430.0 0.022248
5450.0 0.02209
5470.0 0.021418
5490.0 0.020601
5510.0 0.020175
5530.0 0.020234
5550.0 0.020508
5570.0 0.020681
5590.0 0.02004
5610.0 0.018871
5630.0 0.017726
5650.0 0.016824
5670.0 0.016265
5690.0 0.015585
5710.0 0.015061
5730.0 0.015261
5750.0 0.015206
5770.0 0.014867
5790.0 0.014977
5810.0 0.015301
5830.0 0.015602
5850.0 0.015695
5870.0 0.015348
5890.0 0.01467
5910.0 0.0139
5930.0 0.012818
5950.0 0.012041
5970.0 0.012005
5990.0 0.012365
6010.0 0.012493
6030.0 0.012051
6050.0 0.011871
6070.0 0.012328
6090.0 0.012939
6110.0 0.013166
6130.0 0.012716
6150.0 0.011975
6170.0 0.011488
6190.0 0.011006
6210.0 0.01049
6230.0 0.010098
6250.0 0.009978
6270.0 0.010236
6290.0 0.010699
6310.0 0.011295
6330.0 0.011949
6350.0 0.012491
6370.0 0.012734
6390.0 0.01276
6410.0 0.012893
6430.0 0.013052
6450.0 0.013095
6470.0 0.013263
6490.0 0.013467
6510.0 0.013522
6530.0 0.013378
6550.0 0.012999
6570.0 0.012522
6590.0 0.012157
6610.0 0.011887
6630.0 0.01165
6650.0 0.011249
6670.0 0.010774
6690.0 0.010418
6710.0 0.010198
6730.0 0.01013
6750.0 0.010006
6770.0 0.0098048
6790.0 0.0096526
6810.0 0.0095311
6830.0 0.0095061
6850.0 0.0095133
6870.0 0.0094397
6890.0 0.0093806
6910.0 0.0091841
6930.0 0.0089696
6950.0 0.0089199
6970.0 0.0087695
6990.0 0.008496
7010.0 0.0083659
7030.0 0.0082609
7050.0 0.0080751
7070.0 0.0078546
7090.0 0.007698
7110.0 0.0077788
7130.0 0.0080816
7150.0 0.0084274
7170.0 0.0086503
7190.0 0.0085854
7210.0 0.008419
7230.0 0.0083097
7250.0 0.0081997
7270.0 0.0081286
7290.0 0.0080238
7310.0 0.0079722
7330.0 0.0081106
7350.0 0.0082694
7370.0 0.0083538
7390.0 0.008272
7410.0 0.0080697
7430.0 0.0079717
7450.0 0.0078821
7470.0 0.0074985
7490.0 0.007219
7510.0 0.0069181
7530.0 0.0066996
7550.0 0.0066747
7570.0 0.006757
7590.0 0.0067208
7610.0 0.0066577
7630.0 0.0066329
7650.0 0.0066091
7670.0 0.0067386
7690.0 0.0069872
7710.0 0.0072813
7730.0 0.0075063
7750.0 0.0077263
7770.0 0.0078378
7790.0 0.0078221
7810.0 0.0077073
7830.0 0.0077932
7850.0 0.0077857
7870.0 0.007537
7890.0 0.0072694
7910.0 0.007042
7930.0 0.0068109
7950.0 0.0066502
7970.0 0.0066283
7990.0 0.0067139
8010.0 0.0066434
8030.0 0.0065696
8050.0 0.0064601
8070.0 0.0063393
8090.0 0.0062131
8110.0 0.0062238
8130.0 0.0062745
8150.0 0.0062667
8170.0 0.0062236
8190.0 0.0060971
8210.0 0.005791
8230.0 0.0054022
8250.0 0.0051633
8270.0 0.0050122
8290.0 0.0049179
8310.0 0.0049342
8330.0 0.0050148
8350.0 0.0049087
8370.0 0.0047966
8390.0 0.0048855
8410.0 0.0051103
8430.0 0.0054391
8450.0 0.0057584
8470.0 0.0058892
8490.0 0.0059922
8510.0 0.006022
8530.0 0.0060577
8550.0 0.006131
8570.0 0.0061654
8590.0 0.0061981
8610.0 0.0063716
8630.0 0.0064432
8650.0 0.0063107
8670.0 0.0063096
8690.0 0.0063608
8710.0 0.0063531
8730.0 0.0063016
8750.0 0.0061265
8770.0 0.0060497
8790.0 0.0060069
8810.0 0.0059372
8830.0 0.0056051
8850.0 0.0051598
8870.0 0.0048343
8890.0 0.0046508
8910.0 0.0043785
8930.0 0.004078
8950.0 0.0039259
8970.0 0.0039071
8990.0 0.0039292
9010.0 0.0039108
9030.0 0.0038832
9050.0 0.0038577
9070.0 0.0038341
9090.0 0.0038109
9110.0 0.0037878
9130.0 0.0037647
9150.0 0.0037417
9170.0 0.0037188
9190.0 0.0036959
9210.0 0.003673
9230.0 0.0036504
9250.0 0.003628
9270.0 0.0036055
9290.0 0.0035832
9310.0 0.0035609
9330.0 0.0035387
9350.0 0.0035167
9370.0 0.0034947
9390.0 0.0034729
9410.0 0.003451
9430.0 0.0034292
9450.0 0.0034068
9470.0 0.0033848
9490.0 0.0033644
9510.0 0.0033434
9530.0 0.0033226
9550.0 0.0033016
9570.0 0.0032807
9590.0 0.00326
9610.0 0.0032394
9630.0 0.0032188
9650.0 0.0031983
9670.0 0.003178
9690.0 0.0031578
9710.0 0.0031376
9730.0 0.0031176
9750.0 0.0030977
9770.0 0.0030778
9790.0 0.0030581
9810.0 0.0030385
9830.0 0.0030186
9850.0 0.0029965
9870.0 0.0029778
9890.0 0.0029595
9910.0 0.0029409
9930.0 0.0029218
9950.0 0.0029035
9970.0 0.0028847
9990.0 0.0028655
10010.0 0.0028441
10030.0 0.0028244
10050.0 0.0028073
10070.0 0.0027899
10090.0 0.0027724
10110.0 0.0027535
10130.0 0.0027307
10150.0 0.0027135
10170.0 0.002697
10190.0 0.0026795
10210.0 0.0026623
10230.0 0.002645
10250.0 0.002627
10270.0 0.0026089
10290.0 0.0025915
10310.0 0.0025735
10330.0 0.002555
10350.0 0.0025373
10370.0 0.0025197
10390.0 0.0025015
10410.0 0.0024835
10430.0 0.0024663
10450.0 0.0024484
10470.0 0.0024302
10490.0 0.0024127
10510.0 0.0023952
10530.0 0.0023767
10550.0 0.0023587
10570.0 0.0023414
10590.0 0.0023235
10610.0 0.0023053
10630.0 0.0022878
10650.0 0.0022703
10670.0 0.0022519
10690.0 0.0022339
10710.0 0.0022163
10730.0 0.0021982
10750.0 0.0021795
10770.0 0.0021619
10790.0 0.0021441
10810.0 0.0021257
10830.0 0.0021076
10850.0 0.0020901
10870.0 0.0020714
10890.0 0.0020529
10910.0 0.0020351
10930.0 0.0020174
10950.0 0.0019992
10970.0 0.0019818
10990.0 0.0019654
11010.0 0.0020044
11030.0 0.0019894
11050.0 0.0019751
11070.0 0.0019607
11090.0 0.0019454
11110.0 0.0019307
11130.0 0.001916
11150.0 0.0019008
11170.0 0.0018856
11190.0 0.0018713
11210.0 0.0018568
11230.0 0.0018424
11250.0 0.0018289
11270.0 0.0018161
11290.0 0.0018035
11310.0 0.0017914
11330.0 0.0017806
11350.0 0.00177
11370.0 0.0017597
11390.0 0.0017502
11410.0 0.001741
11430.0 0.0017315
11450.0 0.0017222
11470.0 0.0017131
11490.0 0.0017036
11510.0 0.0016935
11530.0 0.0016833
11550.0 0.0016727
11570.0 0.001661
11590.0 0.0016488
11610.0 0.0016363
11630.0 0.0016226
11650.0 0.0016078
11670.0 0.0015931
11690.0 0.0015777
11710.0 0.0015614
11730.0 0.0015447
11750.0 0.0015284
11770.0 0.0015113
11790.0 0.0014939
11810.0 0.001477
11830.0 0.0014602
11850.0 0.0014426
11870.0 0.0014258
11890.0 0.0014097
11910.0 0.0013935
11930.0 0.0013774
11950.0 0.0013623
11970.0 0.0013475
11990.0 0.0013326
12010.0 0.0013186
12030.0 0.0013055
12050.0 0.0012925
12070.0 0.0012799
12090.0 0.0012686
12110.0 0.0012577
12130.0 0.0012474
12150.0 0.0012379
12170.0 0.0012295
12190.0 0.0012215
12210.0 0.0012145
12230.0 0.0012085
12250.0 0.0012035
12270.0 0.0011994
12290.0 0.0011963
12310.0 0.001194
12330.0 0.0011927
12350.0 0.0011921
12370.0 0.0011921
12390.0 0.0011927
12410.0 0.0011939
12430.0 0.0011952
12450.0 0.0011965
12470.0 0.001198
12490.0 0.0011992
12510.0 0.0011999
12530.0 0.0012003
12550.0 0.0012
12570.0 0.001199
12590.0 0.0011971
12610.0 0.0011942
12630.0 0.0011902
12650.0 0.0011854
12670.0 0.0011794
12690.0 0.0011723
12710.0 0.0011644
12730.0 0.0011557
12750.0 0.0011458
12770.0 0.0011353
12790.0 0.0011245
12810.0 0.0011131
12830.0 0.0011011
12850.0 0.0010893
12870.0 0.0010774
12890.0 0.0010651
12910.0 0.001053
12930.0 0.0010413
12950.0 0.0010293
12970.0 0.0010173
12990.0 0.0010059
13010.0 0.00099458
13030.0 0.00098317
13050.0 0.00097211
13070.0 0.00096159
13090.0 0.00095095
13110.0 0.00094049
13130.0 0.00093063
13150.0 0.00092108
13170.0 0.00091151
13190.0 0.00090262
13210.0 0.00089436
13230.0 0.00088631
13250.0 0.00087865
13270.0 0.00087165
13290.0 0.00086494
13310.0 0.00085837
13330.0 0.00085225
13350.0 0.00084644
13370.0 0.00084066
13390.0 0.0008349
13410.0 0.00082946
13430.0 0.00082394
13450.0 0.00081825
13470.0 0.0008126
13490.0 0.00080699
13510.0 0.00080098
13530.0 0.00079491
13550.0 0.00078893
13570.0 0.00078278
13590.0 0.00077639
13610.0 0.00077009
13630.0 0.00076389
13650.0 0.00075741
13670.0 0.00075095
13690.0 0.00074468
13710.0 0.00073831
13730.0 0.00073167
13750.0 0.00072537
13770.0 0.0007191
13790.0 0.00071265
13810.0 0.00070621
13830.0 0.00069999
13850.0 0.00069356
13870.0 0.00068698
13890.0 0.00068057
13910.0 0.00067417
13930.0 0.00066749
13950.0 0.0006608
13970.0 0.00065439
13990.0 0.00064777
14010.0 0.000641
14030.0 0.00063441
14050.0 0.00062786
14070.0 0.00062093
14090.0 0.00061419
14110.0 0.00060765
14130.0 0.00060101
14150.0 0.00059431
14170.0 0.00058802
14190.0 0.0005819
14210.0 0.00057574
14230.0 0.00056992
14250.0 0.00056451
14270.0 0.00055915
14290.0 0.00055401
14310.0 0.00054942
14330.0 0.00054508
14350.0 0.0005409
14370.0 0.00053708
14390.0 0.00053363
14410.0 0.00053025
14430.0 0.00052706
14450.0 0.00052416
14470.0 0.00052139
14490.0 0.00051861
14510.0 0.00051606
14530.0 0.00051366
14550.0 0.00051125
14570.0 0.00050889
14590.0 0.00050668
14610.0 0.00050448
14630.0 0.00050224
14650.0 0.00050014
14670.0 0.00049815
14690.0 0.00049618
14710.0 0.00049431
14730.0 0.00049272
14750.0 0.0004913
14770.0 0.0004901
14790.0 0.00048926
14810.0 0.00048881
14830.0 0.00048875
14850.0 0.0004892
14870.0 0.00049016
14890.0 0.00049161
14910.0 0.00049356
14930.0 0.00049582
14950.0 0.00049823
14970.0 0.00050076
14990.0 0.00050311
15010.0 0.00050513
15030.0 0.00050681
15050.0 0.00050812
15070.0 0.00050904
15090.0 0.0005097
15110.0 0.00051017
15130.0 0.00051054
15150.0 0.00051086
15170.0 0.00051115
15190.0 0.00051143
15210.0 0.00051173
15230.0 0.00051205
15250.0 0.00051237
15270.0 0.00051271
15290.0 0.00051309
15310.0 0.00051346
15330.0 0.00051385
15350.0 0.00051427
15370.0 0.00051471
15390.0 0.00051513
15410.0 0.00051558
15430.0 0.00051607
15450.0 0.00051655
15470.0 0.00051704
15490.0 0.00051757
15510.0 0.00051811
15530.0 0.00051865
15550.0 0.00051921
15570.0 0.00051979
15590.0 0.00052037
15610.0 0.00052096
15630.0 0.00052158
15650.0 0.00052221
15670.0 0.00052284
15690.0 0.00052349
15710.0 0.00052418
15730.0 0.00052484
15750.0 0.00052552
15770.0 0.00052623
15790.0 0.00052695
15810.0 0.00052765
15830.0 0.00052838
15850.0 0.00052914
15870.0 0.00052989
15890.0 0.00053064
15910.0 0.00053143
15930.0 0.00053221
15950.0 0.00053298
15970.0 0.00053379
15990.0 0.00053461
16010.0 0.00053541
16030.0 0.00053622
16050.0 0.00053707
16070.0 0.00053791
16090.0 0.00053875
16110.0 0.0005396
16130.0 0.00054048
16150.0 0.00054132
16170.0 0.00054218
16190.0 0.00054307
16210.0 0.00054395
16230.0 0.00054482
16250.0 0.00054572
16270.0 0.00054663
16290.0 0.00054751
16310.0 0.00054841
16330.0 0.00054933
16350.0 0.00055023
16370.0 0.00055111
16390.0 0.00055203
16410.0 0.00055295
16430.0 0.00055386
16450.0 0.00055476
16470.0 0.0005557
16490.0 0.00055661
16510.0 0.0005575
16530.0 0.00055843
16550.0 0.00055935
16570.0 0.00056024
16590.0 0.00056114
16610.0 0.00056206
16630.0 0.00056296
16650.0 0.00056385
16670.0 0.00056476
16690.0 0.00056567
16710.0 0.00056653
16730.0 0.00056741
16750.0 0.00056831
16770.0 0.00056917
16790.0 0.00057002
16810.0 0.0005709
16830.0 0.00057177
16850.0 0.0005726
16870.0 0.00057344
16890.0 0.00057429
16910.0 0.0005751
16930.0 0.0005759
16950.0 0.00057672
16970.0 0.00057752
16990.0 0.00057829
17010.0 0.00057907
17030.0 0.00057986
17050.0 0.0005806
17070.0 0.00058134
17090.0 0.00058208
17110.0 0.0005828
17130.0 0.00058348
17150.0 0.00058418
17170.0 0.00058488
17190.0 0.00058554
17210.0 0.00058618
17230.0 0.00058684
17250.0 0.00058746
17270.0 0.00058804
17290.0 0.00058864
17310.0 0.00058923
17330.0 0.00058977
17350.0 0.0005903
17370.0 0.00059084
17390.0 0.00059135
17410.0 0.00059182
17430.0 0.0005923
17450.0 0.00059277
17470.0 0.00059317
17490.0 0.00059358
17510.0 0.00059398
17530.0 0.00059435
17550.0 0.00059469
17570.0 0.00059503
17590.0 0.00059535
17610.0 0.00059562
17630.0 0.00059588
17650.0 0.00059614
17670.0 0.00059636
17690.0 0.00059653
17710.0 0.00059672
17730.0 0.00059688
17750.0 0.00059699
17770.0 0.00059709
17790.0 0.00059719
17810.0 0.00059724
17830.0 0.00059725
17850.0 0.00059726
17870.0 0.00059725
17890.0 0.00059718
17910.0 0.0005971
17930.0 0.00059703
17950.0 0.0005969
17970.0 0.00059673
17990.0 0.00059657
18010.0 0.00059638
18030.0 0.00059611
18050.0 0.00059585
18070.0 0.00059558
18090.0 0.00059526
18110.0 0.0005949
18130.0 0.00059454
18150.0 0.00059416
18170.0 0.00059371
18190.0 0.00059326
18210.0 0.00059279
18230.0 0.00059226
18250.0 0.0005917
18270.0 0.00059115
18290.0 0.00059055
18310.0 0.00058991
18330.0 0.00058926
18350.0 0.00058859
18370.0 0.00058786
18390.0 0.00058711
18410.0 0.00058635
18430.0 0.00058555
18450.0 0.00058469
18470.0 0.00058383
18490.0 0.00058296
18510.0 0.00058203
18530.0 0.00058107
18550.0 0.00058012
18570.0 0.00057911
18590.0 0.00057805
18610.0 0.00057699
18630.0 0.00057591
18650.0 0.00057477
18670.0 0.0005736
18690.0 0.00057244
18710.0 0.00057123
18730.0 0.00056998
18750.0 0.00056872
18770.0 0.00056745
18790.0 0.0005661
18810.0 0.00056474
18830.0 0.00056338
18850.0 0.00056197
18870.0 0.00056052
18890.0 0.00055907
18910.0 0.0005576
18930.0 0.00055606
18950.0 0.00055452
18970.0 0.00055296
18990.0 0.00055137
19010.0 0.00054971
19030.0 0.00054808
19050.0 0.00054642
19070.0 0.00054471
19090.0 0.00054298
19110.0 0.00054126
19130.0 0.00053948
19150.0 0.00053766
19170.0 0.00053585
19190.0 0.00053402
19210.0 0.00053213
19230.0 0.00053023
19250.0 0.00052834
19270.0 0.0005264
19290.0 0.00052443
19310.0 0.00052246
19330.0 0.00052047
19350.0 0.00051841
19370.0 0.00051637
19390.0 0.00051432
19410.0 0.00051222
19430.0 0.0005101
19450.0 0.000508
19470.0 0.00050586
19490.0 0.00050368
19510.0 0.0005015
19530.0 0.00049932
19550.0 0.00049708
19570.0 0.00049483
19590.0 0.00049259
19610.0 0.00049033
19630.0 0.00048803
19650.0 0.00048573
19670.0 0.00048344
19690.0 0.00048109
19710.0 0.00047873
19730.0 0.00047639
19750.0 0.00047401
19770.0 0.0004716
19790.0 0.00046921
19810.0 0.0004668
19830.0 0.00046436
19850.0 0.00046189
19870.0 0.00045942
19890.0 0.00045684
19910.0 0.00045413
19930.0 0.00045125
19950.0 0.00044811
19970.0 0.00044453
19990.0 0.00044045
20010.0 0.00043596
20030.0 0.00043082
20050.0 0.00042507
20070.0 0.000419
20090.0 0.00041264
20110.0 0.00040573
20130.0 0.00039884
20150.0 0.00039206
20170.0 0.00038517
20190.0 0.00037827
20210.0 0.00037168
20230.0 0.00036523
20250.0 0.00035876
20270.0 0.00035259
20290.0 0.00034674
20310.0 0.000341
20330.0 0.00033539
20350.0 0.00033029
20370.0 0.0003254
20390.0 0.00032067
20410.0 0.00031628
20430.0 0.00031222
20450.0 0.00030829
20470.0 0.00030462
20490.0 0.00030127
20510.0 0.00029812
20530.0 0.00029515
20550.0 0.00029242
20570.0 0.00028992
20590.0 0.00028754
20610.0 0.00028533
20630.0 0.00028327
20650.0 0.00028132
20670.0 0.00027947
20690.0 0.00027771
20710.0 0.00027601
20730.0 0.00027435
20750.0 0.0002727
20770.0 0.00027106
20790.0 0.0002694
20810.0 0.0002677
20830.0 0.00026594
20850.0 0.00026411
20870.0 0.00026218
20890.0 0.00026014
20910.0 0.00025802
20930.0 0.00025578
20950.0 0.0002534
20970.0 0.00025093
20990.0 0.00024836
21010.0 0.00024563
21030.0 0.0002428
21050.0 0.00023993
21070.0 0.00023695
21090.0 0.00023384
21110.0 0.00023075
21130.0 0.00022763
21150.0 0.00022442
21170.0 0.00022122
21190.0 0.00021807
21210.0 0.00021487
21230.0 0.00021165
21250.0 0.00020855
21270.0 0.00020549
21290.0 0.00020243
21310.0 0.00019945
21330.0 0.00019661
21350.0 0.00019378
21370.0 0.00019101
21390.0 0.00018836
21410.0 0.00018578
21430.0 0.00018321
21450.0 0.00018076
21470.0 0.0001784
21490.0 0.00017608
21510.0 0.00017381
21530.0 0.00017163
21550.0 0.00016949
21570.0 0.00016737
21590.0 0.00016531
21610.0 0.00016331
21630.0 0.00016132
21650.0 0.00015933
21670.0 0.00015743
21690.0 0.00015554
21710.0 0.00015366
21730.0 0.00015181
21750.0 0.00015
21770.0 0.00014817
21790.0 0.00014635
21810.0 0.00014458
21830.0 0.0001428
21850.0 0.000141
21870.0 0.00013923
21890.0 0.00013748
21910.0 0.00013571
21930.0 0.00013393
21950.0 0.00013217
21970.0 0.00013041
21990.0 0.0001286
22010.0 0.00012683
22030.0 0.00012508
22050.0 0.0001233
22070.0 0.00012152
22090.0 0.00011979
22110.0 0.00011805
22130.0 0.00011631
22150.0 0.00011461
22170.0 0.00011295
22190.0 0.00011127
22210.0 0.00010962
22230.0 0.00010804
22250.0 0.00010647
22270.0 0.00010492
22290.0 0.00010341
22310.0 0.00010195
22330.0 0.00010048
22350.0 9.9053e-05
22370.0 9.7668e-05
22390.0 9.629e-05
22410.0 9.4913e-05
22430.0 9.3584e-05
22450.0 9.2273e-05
22470.0 9.0951e-05
22490.0 8.9645e-05
22510.0 8.8369e-05
22530.0 8.7073e-05
22550.0 8.5772e-05
22570.0 8.4503e-05
22590.0 8.324e-05
22610.0 8.1962e-05
22630.0 8.07e-05
22650.0 7.9476e-05
22670.0 7.824e-05
22690.0 7.7014e-05
22710.0 7.5828e-05
22730.0 7.4665e-05
22750.0 7.3495e-05
22770.0 7.2377e-05
22790.0 7.1306e-05
22810.0 7.0256e-05
22830.0 6.9242e-05
22850.0 6.829e-05
22870.0 6.7379e-05
22890.0 6.6504e-05
22910.0 6.5695e-05
22930.0 6.4947e-05
22950.0 6.425e-05
22970.0 6.3614e-05
22990.0 6.3049e-05
23010.0 6.254e-05
23030.0 6.209e-05
23050.0 6.1693e-05
23070.0 6.134e-05
23090.0 6.1036e-05
23110.0 6.0765e-05
23130.0 6.0511e-05
23150.0 6.0274e-05
23170.0 6.0052e-05
23190.0 5.9821e-05
23210.0 5.9578e-05
23230.0 5.9331e-05
23250.0 5.9066e-05
23270.0 5.8776e-05
23290.0 5.847e-05
23310.0 5.8145e-05
23330.0 5.7794e-05
23350.0 5.7422e-05
