#lamb flux
1010.0 5.3824e-07
1030.0 5.8283e-07
1050.0 6.4577e-07
1070.0 7.1661e-07
1090.0 7.9388e-07
1110.0 8.738e-07
1130.0 9.547e-07
1150.0 1.0397e-06
1170.0 1.1272e-06
1190.0 1.2097e-06
1210.0 1.2922e-06
1230.0 1.376e-06
1250.0 1.4568e-06
1270.0 1.5329e-06
1290.0 1.611e-06
1310.0 1.6862e-06
1330.0 1.7554e-06
1350.0 1.8231e-06
1370.0 1.8915e-06
1390.0 1.9563e-06
1410.0 2.018e-06
1430.0 2.083e-06
1450.0 2.1486e-06
1470.0 2.2128e-06
1490.0 2.2797e-06
1510.0 2.3535e-06
1530.0 2.4261e-06
1550.0 2.5013e-06
1570.0 2.5829e-06
1590.0 2.669e-06
1610.0 2.7563e-06
1630.0 2.8518e-06
1650.0 2.9543e-06
1670.0 3.059e-06
1690.0 3.1673e-06
1710.0 3.283e-06
1730.0 3.4031e-06
1750.0 3.5216e-06
1770.0 3.6448e-06
1790.0 3.7714e-06
1810.0 3.8958e-06
1830.0 4.018e-06
1850.0 4.1434e-06
1870.0 4.2632e-06
1890.0 4.3753e-06
1910.0 4.483e-06
1930.0 4.5855e-06
1950.0 4.6754e-06
1970.0 4.7547e-06
1990.0 4.8272e-06
2010.0 4.8874e-06
2030.0 4.9338e-06
2050.0 4.972e-06
2070.0 5.002e-06
2090.0 5.0174e-06
2110.0 5.0239e-06
2130.0 5.0251e-06
2150.0 5.0185e-06
2170.0 5.0035e-06
2190.0 4.9878e-06
2210.0 4.9704e-06
2230.0 4.9492e-06
2250.0 4.9282e-06
2270.0 4.912e-06
2290.0 4.8961e-06
2310.0 4.8812e-06
2330.0 4.8728e-06
2350.0 4.87e-06
2370.0 4.8704e-06
2390.0 4.878e-06
2410.0 4.8963e-06
2430.0 4.9211e-06
2450.0 4.954e-06
2470.0 5.0002e-06
2490.0 5.0611e-06
2510.0 5.1335e-06
2530.0 5.2323e-06
2550.0 5.3783e-06
2570.0 5.592e-06
2590.0 5.9018e-06
2610.0 6.3862e-06
2630.0 7.0692e-06
2650.0 7.9257e-06
2670.0 8.9739e-06
2690.0 1.0185e-05
2710.0 1.1399e-05
2730.0 1.2526e-05
2750.0 1.3552e-05
2770.0 1.4355e-05
2790.0 1.4906e-05
2810.0 1.5246e-05
2830.0 1.5401e-05
2850.0 1.542e-05
2870.0 1.5368e-05
2890.0 1.5272e-05
2910.0 1.5169e-05
2930.0 1.5091e-05
2950.0 1.5024e-05
2970.0 1.4978e-05
2990.0 1.4972e-05
3010.0 2.0077e-05
3030.0 2.0139e-05
3050.0 2.0238e-05
3070.0 2.0387e-05
3090.0 2.0545e-05
3110.0 2.07e-05
3130.0 2.0849e-05
3150.0 2.1047e-05
3170.0 2.1133e-05
3190.0 2.4416e-05
3210.0 3.8747e-05
3230.0 6.1795e-05
3250.0 7.3244e-05
3270.0 6.581e-05
3290.0 5.2892e-05
3310.0 4.5954e-05
3330.0 4.3512e-05
3350.0 4.3882e-05
3370.0 4.5065e-05
3390.0 4.644e-05
3410.0 4.7697e-05
3430.0 4.7798e-05
3450.0 4.8558e-05
3470.0 4.9615e-05
3490.0 5.3014e-05
3510.0 5.9412e-05
3530.0 6.6938e-05
3550.0 8.0407e-05
3570.0 9.68e-05
3590.0 0.00010546
3610.0 0.00010727
3630.0 0.00010757
3650.0 0.00010888
3670.0 0.00011837
3690.0 0.00014075
3710.0 0.00016511
3730.0 0.00018208
3750.0 0.00019527
3770.0 0.00019597
3790.0 0.0001859
3810.0 0.00017163
3830.0 0.00015233
3850.0 0.00013678
3870.0 0.00013062
3890.0 0.00014516
3910.0 0.00017331
3930.0 0.00020199
3950.0 0.00022491
3970.0 0.00023685
3990.0 0.00023926
4010.0 0.00023593
4030.0 0.00021118
4050.0 0.00017582
4070.0 0.00015705
4090.0 0.00015902
4110.0 0.00017073
4130.0 0.00017636
4150.0 0.00017744
4170.0 0.00017696
4190.0 0.00017939
4210.0 0.00018078
4230.0 0.00018695
4250.0 0.00019253
4270.0 0.00019742
4290.0 0.00019968
4310.0 0.00020361
4330.0 0.00020852
4350.0 0.00021135
4370.0 0.00020428
4390.0 0.00018742
4410.0 0.00016493
4430.0 0.00014385
4450.0 0.00013144
4470.0 0.00013239
4490.0 0.00014287
4510.0 0.00016047
4530.0 0.00018724
4550.0 0.00022859
4570.0 0.00027721
4590.0 0.00033354
4610.0 0.00038944
4630.0 0.00042369
4650.0 0.000434
4670.0 0.00042778
4690.0 0.00039848
4710.0 0.00034829
4730.0 0.00029132
4750.0 0.00024401
4770.0 0.00021397
4790.0 0.00020789
4810.0 0.00021449
4830.0 0.00022594
4850.0 0.00024198
4870.0 0.0002611
4890.0 0.00027235
4910.0 0.00028301
4930.0 0.00030416
4950.0 0.000327
4970.0 0.00033314
4990.0 0.00031664
5010.0 0.00028287
5030.0 0.00024201
5050.0 0.00020972
5070.0 0.00018991
5090.0 0.00018035
5110.0 0.00017953
5130.0 0.0001805
5150.0 0.00018013
5170.0 0.00018217
5190.0 0.00019131
5210.0 0.00021215
5230.0 0.00024118
5250.0 0.00027821
5270.0 0.00031821
5290.0 0.00035114
5310.0 0.00037834
5330.0 0.00040504
5350.0 0.00042333
5370.0 0.00042613
5390.0 0.0004237
5410.0 0.00043084
5430.0 0.00045987
5450.0 0.00051299
5470.0 0.000572
5490.0 0.00061351
5510.0 0.00063195
5530.0 0.00063571
5550.0 0.00063071
5570.0 0.00061986
5590.0 0.00060962
5610.0 0.00060263
5630.0 0.00059916
5650.0 0.00058781
5670.0 0.00055878
5690.0 0.00052402
5710.0 0.00049693
5730.0 0.00047577
5750.0 0.00047203
5770.0 0.00048793
5790.0 0.00050728
5810.0 0.00051878
5830.0 0.00052795
5850.0 0.00053168
5870.0 0.00052704
5890.0 0.00053008
5910.0 0.00053928
5930.0 0.00053061
5950.0 0.00049999
5970.0 0.00045605
5990.0 0.00041046
6010.0 0.00037556
6030.0 0.00036126
6050.0 0.00037181
6070.0 0.00038864
6090.0 0.00038699
6110.0 0.00037682
6130.0 0.00038073
6150.0 0.00039827
6170.0 0.00041507
6190.0 0.00042379
6210.0 0.00042313
6230.0 0.00040612
6250.0 0.00037165
6270.0 0.00032981
6290.0 0.00029623
6310.0 0.00028792
6330.0 0.00030282
6350.0 0.00032427
6370.0 0.00034594
6390.0 0.00038037
6410.0 0.00042873
6430.0 0.00046721
6450.0 0.00048726
6470.0 0.00050085
6490.0 0.00051234
6510.0 0.00051757
6530.0 0.00052008
6550.0 0.00052683
6570.0 0.00053029
6590.0 0.00052793
6610.0 0.0005166
6630.0 0.00049423
6650.0 0.00046286
6670.0 0.00043196
6690.0 0.00041158
6710.0 0.00039643
6730.0 0.00037964
6750.0 0.00037035
6770.0 0.00037636
6790.0 0.00038498
6810.0 0.00038524
6830.0 0.00037858
6850.0 0.00036905
6870.0 0.00035952
6890.0 0.00035139
6910.0 0.0003518
6930.0 0.00035498
6950.0 0.00035527
6970.0 0.000355
6990.0 0.00035093
7010.0 0.00034043
7030.0 0.000321
7050.0 0.00029419
7070.0 0.00027347
7090.0 0.00027116
7110.0 0.0002778
7130.0 0.00027438
7150.0 0.00026392
7170.0 0.00026534
7190.0 0.00028308
7210.0 0.00030382
7230.0 0.00032013
7250.0 0.00032884
7270.0 0.00032286
7290.0 0.0003097
7310.0 0.0003014
7330.0 0.00030523
7350.0 0.00031488
7370.0 0.00032176
7390.0 0.00033312
7410.0 0.00035363
7430.0 0.0003739
7450.0 0.00038748
7470.0 0.00038981
7490.0 0.00037144
7510.0 0.00034596
7530.0 0.00033253
7550.0 0.00031625
7570.0 0.00029982
7590.0 0.00029108
7610.0 0.0002879
7630.0 0.00029166
7650.0 0.00030563
7670.0 0.00032462
7690.0 0.00034163
7710.0 0.00035212
7730.0 0.00036019
7750.0 0.00036648
7770.0 0.0003694
7790.0 0.0003721
7810.0 0.00036911
7830.0 0.00035417
7850.0 0.00033776
7870.0 0.00032579
7890.0 0.00031879
7910.0 0.00031511
7930.0 0.0003053
7950.0 0.00029357
7970.0 0.00028078
7990.0 0.00027052
8010.0 0.00025305
8030.0 0.00025036
8050.0 0.00024702
8070.0 0.00024131
8090.0 0.00023642
8110.0 0.00023148
8130.0 0.00022939
8150.0 0.00022556
8170.0 0.00021991
8190.0 0.00021143
8210.0 0.00020083
8230.0 0.00019124
8250.0 0.0001865
8270.0 0.0001753
8290.0 0.00015373
8310.0 0.00013075
8330.0 0.00011508
8350.0 0.00010976
8370.0 0.00011739
8390.0 0.00013013
8410.0 0.00013755
8430.0 0.00014255
8450.0 0.00015137
8470.0 0.00016122
8490.0 0.00017385
8510.0 0.0001878
8530.0 0.00020174
8550.0 0.00021205
8570.0 0.00021893
8590.0 0.00022348
8610.0 0.00022566
8630.0 0.00022326
8650.0 0.00021724
8670.0 0.00021552
8690.0 0.00022348
8710.0 0.00023473
8730.0 0.00023821
8750.0 0.0002337
8770.0 0.00023316
8790.0 0.00023099
8810.0 0.00022
8830.0 0.00020198
8850.0 0.00018045
8870.0 0.00016418
8890.0 0.00015798
8910.0 0.0001528
8930.0 0.00014142
8950.0 0.00012998
8970.0 0.00012485
8990.0 0.00012442
9010.0 0.00012245
9030.0 0.00012054
9050.0 0.00011946
9070.0 0.00011884
9090.0 0.00011829
9110.0 0.00011775
9130.0 0.00011722
9150.0 0.00011669
9170.0 0.00011616
9190.0 0.00011569
9210.0 0.00011534
9230.0 0.00011476
9250.0 0.00011422
9270.0 0.0001137
9290.0 0.00011321
9310.0 0.00011272
9330.0 0.00011224
9350.0 0.00011178
9370.0 0.00011133
9390.0 0.00011087
9410.0 0.00011043
9430.0 0.00010996
9450.0 0.00010936
9470.0 0.00010882
9490.0 0.00010854
9510.0 0.00010819
9530.0 0.00010783
9550.0 0.00010744
9570.0 0.00010704
9590.0 0.00010665
9610.0 0.00010626
9630.0 0.00010587
9650.0 0.00010548
9670.0 0.0001051
9690.0 0.00010472
9710.0 0.00010434
9730.0 0.00010396
9750.0 0.00010359
9770.0 0.00010321
9790.0 0.00010284
9810.0 0.00010248
9830.0 0.00010211
9850.0 0.00010174
9870.0 0.00010138
9890.0 0.00010102
9910.0 0.00010066
9930.0 0.00010029
9950.0 9.9672e-05
9970.0 9.938e-05
9990.0 9.907e-05
10010.0 9.8762e-05
10030.0 9.8427e-05
10050.0 9.8072e-05
10070.0 9.772e-05
10090.0 9.7369e-05
10110.0 9.6964e-05
10130.0 9.6439e-05
10150.0 9.609e-05
10170.0 9.5761e-05
10190.0 9.5383e-05
10210.0 9.5022e-05
10230.0 9.4657e-05
10250.0 9.4251e-05
10270.0 9.3841e-05
10290.0 9.3454e-05
10310.0 9.3032e-05
10330.0 9.258e-05
10350.0 9.2159e-05
10370.0 9.1735e-05
10390.0 9.1275e-05
10410.0 9.0814e-05
10430.0 9.0383e-05
10450.0 8.9914e-05
10470.0 8.9423e-05
10490.0 8.8953e-05
10510.0 8.8478e-05
10530.0 8.7947e-05
10550.0 8.743e-05
10570.0 8.6935e-05
10590.0 8.6405e-05
10610.0 8.5851e-05
10630.0 8.5323e-05
10650.0 8.4782e-05
10670.0 8.4191e-05
10690.0 8.3612e-05
10710.0 8.3044e-05
10730.0 8.2438e-05
10750.0 8.1796e-05
10770.0 8.12e-05
10790.0 8.0582e-05
10810.0 7.9923e-05
10830.0 7.9271e-05
10850.0 7.8639e-05
10870.0 7.794e-05
10890.0 7.7232e-05
10910.0 7.6549e-05
10930.0 7.5844e-05
10950.0 7.5095e-05
10970.0 7.4356e-05
10990.0 7.3642e-05
11010.0 7.7098e-05
11030.0 7.6304e-05
11050.0 7.5546e-05
11070.0 7.4783e-05
11090.0 7.3974e-05
11110.0 7.3225e-05
11130.0 7.2498e-05
11150.0 7.175e-05
11170.0 7.1012e-05
11190.0 7.0324e-05
11210.0 6.9628e-05
11230.0 6.8925e-05
11250.0 6.8264e-05
11270.0 6.7632e-05
11290.0 6.6989e-05
11310.0 6.6365e-05
11330.0 6.5797e-05
11350.0 6.5226e-05
11370.0 6.4651e-05
11390.0 6.4099e-05
11410.0 6.3553e-05
11430.0 6.2963e-05
11450.0 6.2364e-05
11470.0 6.1758e-05
11490.0 6.1105e-05
11510.0 6.039e-05
11530.0 5.9663e-05
11550.0 5.89e-05
11570.0 5.8062e-05
11590.0 5.7189e-05
11610.0 5.6307e-05
11630.0 5.536e-05
11650.0 5.436e-05
11670.0 5.338e-05
11690.0 5.2383e-05
11710.0 5.1338e-05
11730.0 5.0294e-05
11750.0 4.9282e-05
11770.0 4.8227e-05
11790.0 4.7155e-05
11810.0 4.6112e-05
11830.0 4.507e-05
11850.0 4.3977e-05
11870.0 4.2916e-05
11890.0 4.1892e-05
11910.0 4.0849e-05
11930.0 3.9808e-05
11950.0 3.8823e-05
11970.0 3.7853e-05
11990.0 3.6876e-05
12010.0 3.5957e-05
12030.0 3.5094e-05
12050.0 3.425e-05
12070.0 3.3439e-05
12090.0 3.272e-05
12110.0 3.2043e-05
12130.0 3.1406e-05
12150.0 3.084e-05
12170.0 3.0346e-05
12190.0 2.9893e-05
12210.0 2.9513e-05
12230.0 2.9209e-05
12250.0 2.8969e-05
12270.0 2.8795e-05
12290.0 2.8689e-05
12310.0 2.8642e-05
12330.0 2.8655e-05
12350.0 2.8722e-05
12370.0 2.8827e-05
12390.0 2.8971e-05
12410.0 2.9163e-05
12430.0 2.9361e-05
12450.0 2.9568e-05
12470.0 2.9796e-05
12490.0 3.0024e-05
12510.0 3.0232e-05
12530.0 3.044e-05
12550.0 3.0641e-05
12570.0 3.081e-05
12590.0 3.095e-05
12610.0 3.107e-05
12630.0 3.1152e-05
12650.0 3.1181e-05
12670.0 3.1171e-05
12690.0 3.1115e-05
12710.0 3.1004e-05
12730.0 3.0844e-05
12750.0 3.0628e-05
12770.0 3.0361e-05
12790.0 3.0049e-05
12810.0 2.9691e-05
12830.0 2.9286e-05
12850.0 2.8862e-05
12870.0 2.8415e-05
12890.0 2.7939e-05
12910.0 2.7457e-05
12930.0 2.6982e-05
12950.0 2.6496e-05
12970.0 2.6009e-05
12990.0 2.5549e-05
13010.0 2.5101e-05
13030.0 2.4657e-05
13050.0 2.4234e-05
13070.0 2.3837e-05
13090.0 2.3444e-05
13110.0 2.3064e-05
13130.0 2.2707e-05
13150.0 2.2364e-05
13170.0 2.2023e-05
13190.0 2.1704e-05
13210.0 2.1404e-05
13230.0 2.1111e-05
13250.0 2.0829e-05
13270.0 2.0566e-05
13290.0 2.0312e-05
13310.0 2.0063e-05
13330.0 1.9828e-05
13350.0 1.9605e-05
13370.0 1.9386e-05
13390.0 1.9171e-05
13410.0 1.8971e-05
13430.0 1.8773e-05
13450.0 1.8577e-05
13470.0 1.8388e-05
13490.0 1.8205e-05
13510.0 1.8018e-05
13530.0 1.7834e-05
13550.0 1.7656e-05
13570.0 1.7477e-05
13590.0 1.7296e-05
13610.0 1.712e-05
13630.0 1.6947e-05
13650.0 1.677e-05
13670.0 1.6595e-05
13690.0 1.6425e-05
13710.0 1.6255e-05
13730.0 1.608e-05
13750.0 1.5915e-05
13770.0 1.5752e-05
13790.0 1.5589e-05
13810.0 1.5429e-05
13830.0 1.5278e-05
13850.0 1.5127e-05
13870.0 1.4977e-05
13890.0 1.4835e-05
13910.0 1.4699e-05
13930.0 1.4563e-05
13950.0 1.4433e-05
13970.0 1.4311e-05
13990.0 1.4191e-05
14010.0 1.4073e-05
14030.0 1.3961e-05
14050.0 1.3852e-05
14070.0 1.3739e-05
14090.0 1.363e-05
14110.0 1.3525e-05
14130.0 1.3418e-05
14150.0 1.331e-05
14170.0 1.3208e-05
14190.0 1.3107e-05
14210.0 1.3006e-05
14230.0 1.2909e-05
14250.0 1.282e-05
14270.0 1.2732e-05
14290.0 1.265e-05
14310.0 1.2577e-05
14330.0 1.2511e-05
14350.0 1.245e-05
14370.0 1.2396e-05
14390.0 1.2351e-05
14410.0 1.2309e-05
14430.0 1.2271e-05
14450.0 1.224e-05
14470.0 1.2211e-05
14490.0 1.2182e-05
14510.0 1.2157e-05
14530.0 1.2133e-05
14550.0 1.2109e-05
14570.0 1.2086e-05
14590.0 1.2065e-05
14610.0 1.2045e-05
14630.0 1.2027e-05
14650.0 1.2016e-05
14670.0 1.2011e-05
14690.0 1.2016e-05
14710.0 1.2034e-05
14730.0 1.2067e-05
14750.0 1.212e-05
14770.0 1.2197e-05
14790.0 1.2298e-05
14810.0 1.2426e-05
14830.0 1.2593e-05
14850.0 1.2793e-05
14870.0 1.3019e-05
14890.0 1.3278e-05
14910.0 1.357e-05
14930.0 1.3867e-05
14950.0 1.4161e-05
14970.0 1.4454e-05
14990.0 1.4719e-05
15010.0 1.4942e-05
15030.0 1.513e-05
15050.0 1.5283e-05
15070.0 1.5395e-05
15090.0 1.5482e-05
15110.0 1.5554e-05
15130.0 1.5615e-05
15150.0 1.5671e-05
15170.0 1.5724e-05
15190.0 1.5777e-05
15210.0 1.5831e-05
15230.0 1.5886e-05
15250.0 1.5941e-05
15270.0 1.5998e-05
15290.0 1.6056e-05
15310.0 1.6115e-05
15330.0 1.6175e-05
15350.0 1.6236e-05
15370.0 1.6298e-05
15390.0 1.6361e-05
15410.0 1.6425e-05
15430.0 1.6491e-05
15450.0 1.6557e-05
15470.0 1.6624e-05
15490.0 1.6692e-05
15510.0 1.6762e-05
15530.0 1.6832e-05
15550.0 1.6903e-05
15570.0 1.6975e-05
15590.0 1.7048e-05
15610.0 1.7122e-05
15630.0 1.7196e-05
15650.0 1.7272e-05
15670.0 1.7348e-05
15690.0 1.7425e-05
15710.0 1.7503e-05
15730.0 1.7582e-05
15750.0 1.7661e-05
15770.0 1.7741e-05
15790.0 1.7822e-05
15810.0 1.7903e-05
15830.0 1.7985e-05
15850.0 1.8068e-05
15870.0 1.8151e-05
15890.0 1.8235e-05
15910.0 1.8319e-05
15930.0 1.8404e-05
15950.0 1.849e-05
15970.0 1.8576e-05
15990.0 1.8662e-05
16010.0 1.8749e-05
16030.0 1.8836e-05
16050.0 1.8923e-05
16070.0 1.9011e-05
16090.0 1.9099e-05
16110.0 1.9188e-05
16130.0 1.9277e-05
16150.0 1.9365e-05
16170.0 1.9455e-05
16190.0 1.9544e-05
16210.0 1.9633e-05
16230.0 1.9723e-05
16250.0 1.9812e-05
16270.0 1.9902e-05
16290.0 1.9991e-05
16310.0 2.0081e-05
16330.0 2.017e-05
16350.0 2.026e-05
16370.0 2.0349e-05
16390.0 2.0438e-05
16410.0 2.0527e-05
16430.0 2.0615e-05
16450.0 2.0704e-05
16470.0 2.0792e-05
16490.0 2.088e-05
16510.0 2.0967e-05
16530.0 2.1054e-05
16550.0 2.1141e-05
16570.0 2.1227e-05
16590.0 2.1312e-05
16610.0 2.1397e-05
16630.0 2.1482e-05
16650.0 2.1565e-05
16670.0 2.1649e-05
16690.0 2.1731e-05
16710.0 2.1813e-05
16730.0 2.1894e-05
16750.0 2.1974e-05
16770.0 2.2053e-05
16790.0 2.2132e-05
16810.0 2.221e-05
16830.0 2.2287e-05
16850.0 2.2362e-05
16870.0 2.2437e-05
16890.0 2.2511e-05
16910.0 2.2584e-05
16930.0 2.2655e-05
16950.0 2.2726e-05
16970.0 2.2795e-05
16990.0 2.2863e-05
17010.0 2.293e-05
17030.0 2.2996e-05
17050.0 2.3061e-05
17070.0 2.3124e-05
17090.0 2.3186e-05
17110.0 2.3246e-05
17130.0 2.3305e-05
17150.0 2.3363e-05
17170.0 2.3419e-05
17190.0 2.3474e-05
17210.0 2.3527e-05
17230.0 2.3579e-05
17250.0 2.3629e-05
17270.0 2.3678e-05
17290.0 2.3725e-05
17310.0 2.3771e-05
17330.0 2.3814e-05
17350.0 2.3856e-05
17370.0 2.3897e-05
17390.0 2.3936e-05
17410.0 2.3973e-05
17430.0 2.4008e-05
17450.0 2.4042e-05
17470.0 2.4074e-05
17490.0 2.4104e-05
17510.0 2.4132e-05
17530.0 2.4158e-05
17550.0 2.4183e-05
17570.0 2.4205e-05
17590.0 2.4226e-05
17610.0 2.4245e-05
17630.0 2.4262e-05
17650.0 2.4278e-05
17670.0 2.4291e-05
17690.0 2.4302e-05
17710.0 2.4312e-05
17730.0 2.432e-05
17750.0 2.4325e-05
17770.0 2.4329e-05
17790.0 2.4331e-05
17810.0 2.4331e-05
17830.0 2.4329e-05
17850.0 2.4325e-05
17870.0 2.4319e-05
17890.0 2.4312e-05
17910.0 2.4302e-05
17930.0 2.429e-05
17950.0 2.4277e-05
17970.0 2.4261e-05
17990.0 2.4244e-05
18010.0 2.4225e-05
18030.0 2.4204e-05
18050.0 2.4181e-05
18070.0 2.4156e-05
18090.0 2.4129e-05
18110.0 2.41e-05
18130.0 2.407e-05
18150.0 2.4038e-05
18170.0 2.4003e-05
18190.0 2.3967e-05
18210.0 2.393e-05
18230.0 2.389e-05
18250.0 2.3849e-05
18270.0 2.3806e-05
18290.0 2.3761e-05
18310.0 2.3714e-05
18330.0 2.3666e-05
18350.0 2.3616e-05
18370.0 2.3564e-05
18390.0 2.3511e-05
18410.0 2.3456e-05
18430.0 2.34e-05
18450.0 2.3342e-05
18470.0 2.3282e-05
18490.0 2.3221e-05
18510.0 2.3158e-05
18530.0 2.3094e-05
18550.0 2.3028e-05
18570.0 2.2961e-05
18590.0 2.2892e-05
18610.0 2.2822e-05
18630.0 2.2751e-05
18650.0 2.2678e-05
18670.0 2.2604e-05
18690.0 2.2529e-05
18710.0 2.2452e-05
18730.0 2.2374e-05
18750.0 2.2295e-05
18770.0 2.2215e-05
18790.0 2.2133e-05
18810.0 2.205e-05
18830.0 2.1967e-05
18850.0 2.1882e-05
18870.0 2.1796e-05
18890.0 2.1709e-05
18910.0 2.1621e-05
18930.0 2.1532e-05
18950.0 2.1442e-05
18970.0 2.1351e-05
18990.0 2.1259e-05
19010.0 2.1166e-05
19030.0 2.1072e-05
19050.0 2.0978e-05
19070.0 2.0883e-05
19090.0 2.0787e-05
19110.0 2.069e-05
19130.0 2.0593e-05
19150.0 2.0495e-05
19170.0 2.0396e-05
19190.0 2.0296e-05
19210.0 2.0196e-05
19230.0 2.0096e-05
19250.0 1.9994e-05
19270.0 1.9893e-05
19290.0 1.979e-05
19310.0 1.9688e-05
19330.0 1.9585e-05
19350.0 1.9481e-05
19370.0 1.9377e-05
19390.0 1.9273e-05
19410.0 1.9168e-05
19430.0 1.9063e-05
19450.0 1.8957e-05
19470.0 1.8852e-05
19490.0 1.8746e-05
19510.0 1.864e-05
19530.0 1.8533e-05
19550.0 1.8427e-05
19570.0 1.832e-05
19590.0 1.8213e-05
19610.0 1.8106e-05
19630.0 1.7999e-05
19650.0 1.7892e-05
19670.0 1.7784e-05
19690.0 1.7677e-05
19710.0 1.757e-05
19730.0 1.7463e-05
19750.0 1.7355e-05
19770.0 1.7248e-05
19790.0 1.7141e-05
19810.0 1.7034e-05
19830.0 1.6926e-05
19850.0 1.6818e-05
19870.0 1.6709e-05
19890.0 1.6596e-05
19910.0 1.6477e-05
19930.0 1.635e-05
19950.0 1.6209e-05
19970.0 1.6047e-05
19990.0 1.5859e-05
20010.0 1.565e-05
20030.0 1.5411e-05
20050.0 1.5143e-05
20070.0 1.486e-05
20090.0 1.4565e-05
20110.0 1.4248e-05
20130.0 1.3934e-05
20150.0 1.3628e-05
20170.0 1.332e-05
20190.0 1.3015e-05
20210.0 1.2726e-05
20230.0 1.2445e-05
20250.0 1.2167e-05
20270.0 1.1903e-05
20290.0 1.1656e-05
20310.0 1.1415e-05
20330.0 1.1183e-05
20350.0 1.0974e-05
20370.0 1.0775e-05
20390.0 1.0586e-05
20410.0 1.0412e-05
20430.0 1.0254e-05
20450.0 1.0103e-05
20470.0 9.9648e-06
20490.0 9.84e-06
20510.0 9.725e-06
20530.0 9.6183e-06
20550.0 9.5215e-06
20570.0 9.4333e-06
20590.0 9.351e-06
20610.0 9.2747e-06
20630.0 9.2036e-06
20650.0 9.1362e-06
20670.0 9.0717e-06
20690.0 9.0093e-06
20710.0 8.9478e-06
20730.0 8.8865e-06
20750.0 8.8245e-06
20770.0 8.7613e-06
20790.0 8.6962e-06
20810.0 8.6284e-06
20830.0 8.5578e-06
20850.0 8.4845e-06
20870.0 8.4071e-06
20890.0 8.326e-06
20910.0 8.2428e-06
20930.0 8.1559e-06
20950.0 8.0653e-06
20970.0 7.9731e-06
20990.0 7.8793e-06
21010.0 7.7817e-06
21030.0 7.6831e-06
21050.0 7.5849e-06
21070.0 7.4854e-06
21090.0 7.384e-06
21110.0 7.2853e-06
21130.0 7.1876e-06
21150.0 7.0892e-06
21170.0 6.9924e-06
21190.0 6.8988e-06
21210.0 6.8052e-06
21230.0 6.7126e-06
21250.0 6.6239e-06
21270.0 6.5375e-06
21290.0 6.452e-06
21310.0 6.3694e-06
21330.0 6.291e-06
21350.0 6.2139e-06
21370.0 6.1391e-06
21390.0 6.0682e-06
21410.0 6.0002e-06
21430.0 5.9336e-06
21450.0 5.8709e-06
21470.0 5.8117e-06
21490.0 5.7547e-06
21510.0 5.7004e-06
21530.0 5.6493e-06
21550.0 5.6006e-06
21570.0 5.5539e-06
21590.0 5.5096e-06
21610.0 5.4673e-06
21630.0 5.4266e-06
21650.0 5.3874e-06
21670.0 5.3496e-06
21690.0 5.3128e-06
21710.0 5.2768e-06
21730.0 5.2416e-06
21750.0 5.207e-06
21770.0 5.1728e-06
21790.0 5.1391e-06
21810.0 5.1057e-06
21830.0 5.0727e-06
21850.0 5.0399e-06
21870.0 5.0074e-06
21890.0 4.9752e-06
21910.0 4.9432e-06
21930.0 4.9114e-06
21950.0 4.8799e-06
21970.0 4.8484e-06
21990.0 4.8168e-06
22010.0 4.7853e-06
22030.0 4.7536e-06
22050.0 4.7216e-06
22070.0 4.6892e-06
22090.0 4.6566e-06
22110.0 4.6233e-06
22130.0 4.5892e-06
22150.0 4.5546e-06
22170.0 4.5194e-06
22190.0 4.4831e-06
22210.0 4.4459e-06
22230.0 4.4085e-06
22250.0 4.37e-06
22270.0 4.3303e-06
22290.0 4.2903e-06
22310.0 4.2497e-06
22330.0 4.2073e-06
22350.0 4.1642e-06
22370.0 4.1208e-06
22390.0 4.0759e-06
22410.0 4.029e-06
22430.0 3.9823e-06
22450.0 3.9346e-06
22470.0 3.8848e-06
22490.0 3.8341e-06
22510.0 3.7835e-06
22530.0 3.7305e-06
22550.0 3.6759e-06
22570.0 3.6221e-06
22590.0 3.5677e-06
22610.0 3.5117e-06
22630.0 3.456e-06
