#lamb flux
1010.0 7.1302e-07
1030.0 7.5659e-07
1050.0 8.0672e-07
1070.0 8.6316e-07
1090.0 9.2727e-07
1110.0 9.9303e-07
1130.0 1.0592e-06
1150.0 1.1286e-06
1170.0 1.2001e-06
1190.0 1.268e-06
1210.0 1.3368e-06
1230.0 1.4079e-06
1250.0 1.4776e-06
1270.0 1.5453e-06
1290.0 1.6169e-06
1310.0 1.6884e-06
1330.0 1.7571e-06
1350.0 1.8265e-06
1370.0 1.8982e-06
1390.0 1.9682e-06
1410.0 2.0361e-06
1430.0 2.1071e-06
1450.0 2.1782e-06
1470.0 2.2469e-06
1490.0 2.3164e-06
1510.0 2.3898e-06
1530.0 2.4594e-06
1550.0 2.5282e-06
1570.0 2.5993e-06
1590.0 2.6706e-06
1610.0 2.7387e-06
1630.0 2.809e-06
1650.0 2.8812e-06
1670.0 2.9511e-06
1690.0 3.0201e-06
1710.0 3.0919e-06
1730.0 3.1641e-06
1750.0 3.2322e-06
1770.0 3.3022e-06
1790.0 3.3738e-06
1810.0 3.4432e-06
1830.0 3.5115e-06
1850.0 3.5841e-06
1870.0 3.655e-06
1890.0 3.7236e-06
1910.0 3.7938e-06
1930.0 3.8658e-06
1950.0 3.9348e-06
1970.0 4.0031e-06
1990.0 4.0743e-06
2010.0 4.1446e-06
2030.0 4.2126e-06
2050.0 4.283e-06
2070.0 4.3555e-06
2090.0 4.4243e-06
2110.0 4.4933e-06
2130.0 4.5648e-06
2150.0 4.6353e-06
2170.0 4.7034e-06
2190.0 4.7744e-06
2210.0 4.8464e-06
2230.0 4.9162e-06
2250.0 4.9863e-06
2270.0 5.0599e-06
2290.0 5.132e-06
2310.0 5.2019e-06
2330.0 5.2746e-06
2350.0 5.3484e-06
2370.0 5.4202e-06
2390.0 5.4933e-06
2410.0 5.5701e-06
2430.0 5.6447e-06
2450.0 5.7168e-06
2470.0 5.7876e-06
2490.0 5.8537e-06
2510.0 5.9104e-06
2530.0 5.9662e-06
2550.0 6.0358e-06
2570.0 6.1421e-06
2590.0 6.3169e-06
2610.0 6.627e-06
2630.0 7.112e-06
2650.0 7.7667e-06
2670.0 8.6144e-06
2690.0 9.6474e-06
2710.0 1.0746e-05
2730.0 1.1842e-05
2750.0 1.2956e-05
2770.0 1.3995e-05
2790.0 1.4922e-05
2810.0 1.5795e-05
2830.0 1.6663e-05
2850.0 1.7464e-05
2870.0 1.8255e-05
2890.0 1.9082e-05
2910.0 1.9918e-05
2930.0 2.073e-05
2950.0 2.1579e-05
2970.0 2.2452e-05
2990.0 2.3303e-05
3010.0 5.0023e-05
3030.0 5.1852e-05
3050.0 5.3699e-05
3070.0 5.5467e-05
3090.0 5.7322e-05
3110.0 5.9252e-05
3130.0 6.1157e-05
3150.0 6.3046e-05
3170.0 6.4977e-05
3190.0 6.6648e-05
3210.0 6.7943e-05
3230.0 6.896e-05
3250.0 6.0774e-05
3270.0 5.2645e-05
3290.0 4.0206e-05
3310.0 4.5054e-05
3330.0 4.8523e-05
3350.0 5.1823e-05
3370.0 5.5097e-05
3390.0 5.8374e-05
3410.0 6.1652e-05
3430.0 6.4923e-05
3450.0 6.8203e-05
3470.0 7.147e-05
3490.0 7.4235e-05
3510.0 7.5167e-05
3530.0 7.8655e-05
3550.0 9.6099e-05
3570.0 0.00012182
3590.0 0.00013784
3610.0 0.0001569
3630.0 0.00014615
3650.0 0.00013369
3670.0 0.00012885
3690.0 0.00015316
3710.0 0.00019435
3730.0 0.00020893
3750.0 0.0002169
3770.0 0.00021904
3790.0 0.00021541
3810.0 0.00019552
3830.0 0.00015142
3850.0 0.00012093
3870.0 0.0001178
3890.0 0.00016077
3910.0 0.00021859
3930.0 0.0002563
3950.0 0.00027044
3970.0 0.00026905
3990.0 0.00030703
4010.0 0.00034322
4030.0 0.00032104
4050.0 0.00028085
4070.0 0.0002376
4090.0 0.00023619
4110.0 0.00026758
4130.0 0.00027157
4150.0 0.00027376
4170.0 0.00025794
4190.0 0.00024594
4210.0 0.00024898
4230.0 0.00028617
4250.0 0.00028896
4270.0 0.00028706
4290.0 0.00028434
4310.0 0.00028458
4330.0 0.00031442
4350.0 0.00036212
4370.0 0.00036798
4390.0 0.00031845
4410.0 0.00026305
4430.0 0.00022553
4450.0 0.00019405
4470.0 0.00018801
4490.0 0.00022478
4510.0 0.00025218
4530.0 0.00027647
4550.0 0.00029717
4570.0 0.00035107
4590.0 0.0005006
4610.0 0.0006706
4630.0 0.0006946
4650.0 0.0006594
4670.0 0.00070079
4690.0 0.00076877
4710.0 0.00067975
4730.0 0.00050055
4750.0 0.00038092
4770.0 0.00034679
4790.0 0.00034811
4810.0 0.00032633
4830.0 0.00035604
4850.0 0.00045202
4870.0 0.00056144
4890.0 0.00050179
4910.0 0.00044107
4930.0 0.00048934
4950.0 0.00064289
4970.0 0.00083411
4990.0 0.00085966
5010.0 0.00074065
5030.0 0.00055574
5050.0 0.00039847
5070.0 0.00033508
5090.0 0.00031783
5110.0 0.0003225
5130.0 0.00033554
5150.0 0.0003311
5170.0 0.00033745
5190.0 0.00032673
5210.0 0.00033866
5230.0 0.00036462
5250.0 0.00040455
5270.0 0.00050181
5290.0 0.00057668
5310.0 0.0005835
5330.0 0.00061167
5350.0 0.00069498
5370.0 0.00074421
5390.0 0.00069525
5410.0 0.00059952
5430.0 0.0005743
5450.0 0.00066773
5470.0 0.0008678
5490.0 0.0010852
5510.0 0.0012024
5530.0 0.0012369
5550.0 0.001188
5570.0 0.0011149
5590.0 0.0010858
5610.0 0.0011074
5630.0 0.0011421
5650.0 0.0011531
5670.0 0.0011448
5690.0 0.0011217
5710.0 0.0010147
5730.0 0.00085566
5750.0 0.0007239
5770.0 0.0007341
5790.0 0.00081326
5810.0 0.00088209
5830.0 0.00091875
5850.0 0.00092573
5870.0 0.00086306
5890.0 0.00076206
5910.0 0.00075227
5930.0 0.0008232
5950.0 0.00085817
5970.0 0.00079369
5990.0 0.00068969
6010.0 0.00057156
6030.0 0.00048
6050.0 0.00047269
6070.0 0.0005373
6090.0 0.00056568
6110.0 0.00051726
6130.0 0.00047875
6150.0 0.00050858
6170.0 0.00060893
6190.0 0.00072651
6210.0 0.00078997
6230.0 0.00076266
6250.0 0.00069903
6270.0 0.00060491
6290.0 0.00050148
6310.0 0.00041507
6330.0 0.00037493
6350.0 0.0003905
6370.0 0.00042334
6390.0 0.00045821
6410.0 0.00052136
6430.0 0.00064191
6450.0 0.00080841
6470.0 0.00092024
6490.0 0.00092258
6510.0 0.00090078
6530.0 0.00091786
6550.0 0.00093834
6570.0 0.00094662
6590.0 0.00094668
6610.0 0.00092095
6630.0 0.00092225
6650.0 0.00092537
6670.0 0.00088975
6690.0 0.00079786
6710.0 0.00067446
6730.0 0.00064578
6750.0 0.00069401
6770.0 0.00075463
6790.0 0.00077792
6810.0 0.00076915
6830.0 0.00075863
6850.0 0.0007421
6870.0 0.00069973
6890.0 0.00065934
6910.0 0.00063014
6930.0 0.00060737
6950.0 0.00064471
6970.0 0.00070171
6990.0 0.00074011
7010.0 0.00074875
7030.0 0.00070762
7050.0 0.00061431
7070.0 0.00049803
7090.0 0.00042313
7110.0 0.00040815
7130.0 0.00043052
7150.0 0.00043585
7170.0 0.00040089
7190.0 0.00039305
7210.0 0.00043303
7230.0 0.00049729
7250.0 0.00056838
7270.0 0.00059853
7290.0 0.00056356
7310.0 0.00050004
7330.0 0.00045763
7350.0 0.00044794
7370.0 0.00045966
7390.0 0.00048037
7410.0 0.00051471
7430.0 0.00058506
7450.0 0.00068014
7470.0 0.00077653
7490.0 0.00082144
7510.0 0.00079396
7530.0 0.00068349
7550.0 0.00055387
7570.0 0.00045819
7590.0 0.00040172
7610.0 0.00041113
7630.0 0.00047253
7650.0 0.00054053
7670.0 0.00060841
7690.0 0.00066499
7710.0 0.00070469
7730.0 0.00073714
7750.0 0.00076703
7770.0 0.00079277
7790.0 0.00079175
7810.0 0.00079617
7830.0 0.00081712
7850.0 0.00081446
7870.0 0.00078887
7890.0 0.00072907
7910.0 0.00068154
7930.0 0.00064652
7950.0 0.00064286
7970.0 0.0006356
7990.0 0.00063878
8010.0 0.0006335
8030.0 0.00063307
8050.0 0.00064696
8070.0 0.00063467
8090.0 0.00063191
8110.0 0.00060481
8130.0 0.00059856
8150.0 0.0005796
8170.0 0.00056099
8190.0 0.00055097
8210.0 0.00055267
8230.0 0.00051661
8250.0 0.00048238
8270.0 0.00041975
8290.0 0.00033722
8310.0 0.00026057
8330.0 0.00019942
8350.0 0.00017534
8370.0 0.00019667
8390.0 0.00022648
8410.0 0.00024927
8430.0 0.00027578
8450.0 0.00028964
8470.0 0.00030227
8490.0 0.00033492
8510.0 0.00037199
8530.0 0.00043078
8550.0 0.00050348
8570.0 0.0005684
8590.0 0.00061975
8610.0 0.00066284
8630.0 0.00069281
8650.0 0.00069561
8670.0 0.00069491
8690.0 0.00071556
8710.0 0.0007266
8730.0 0.00073871
8750.0 0.00072129
8770.0 0.0007212
8790.0 0.00070879
8810.0 0.00065782
8830.0 0.00063803
8850.0 0.00059988
8870.0 0.0005711
8890.0 0.00054369
8910.0 0.00055566
8930.0 0.00052112
8950.0 0.0005002
8970.0 0.0004913
8990.0 0.00047835
9010.0 0.00046902
9030.0 0.00045666
9050.0 0.00045389
9070.0 0.00045264
9090.0 0.00045142
9110.0 0.00045026
9130.0 0.00044897
9150.0 0.00044764
9170.0 0.00044573
9190.0 0.00044315
9210.0 0.00044535
9230.0 0.00044305
9250.0 0.0004412
9270.0 0.00043947
9290.0 0.00043781
9310.0 0.00043619
9330.0 0.00043458
9350.0 0.00043299
9370.0 0.00043139
9390.0 0.00042976
9410.0 0.00042813
9430.0 0.00042646
9450.0 0.00042461
9470.0 0.0004228
9490.0 0.00042127
9510.0 0.00041964
9530.0 0.00041797
9550.0 0.00041627
9570.0 0.00041455
9590.0 0.00041281
9610.0 0.00041106
9630.0 0.0004093
9650.0 0.00040754
9670.0 0.00040577
9690.0 0.00040399
9710.0 0.00040221
9730.0 0.00040043
9750.0 0.00039864
9770.0 0.00039686
9790.0 0.00039507
9810.0 0.00039328
9830.0 0.00039149
9850.0 0.00038971
9870.0 0.00038792
9890.0 0.00038613
9910.0 0.00038434
9930.0 0.00038253
9950.0 0.00037833
9970.0 0.00037726
9990.0 0.00037607
10010.0 0.00037479
10030.0 0.00037333
10050.0 0.00037168
10070.0 0.00036991
10090.0 0.00036831
10110.0 0.00036656
10130.0 0.00036489
10150.0 0.0003632
10170.0 0.00036144
10190.0 0.00035959
10210.0 0.00035786
10230.0 0.00035618
10250.0 0.00035439
10270.0 0.00035264
10290.0 0.00035097
10310.0 0.00034923
10330.0 0.00034741
10350.0 0.00034571
10370.0 0.00034402
10390.0 0.00034224
10410.0 0.00034048
10430.0 0.00033883
10450.0 0.00033709
10470.0 0.00033531
10490.0 0.00033361
10510.0 0.00033193
10530.0 0.00033009
10550.0 0.00032833
10570.0 0.00032666
10590.0 0.0003249
10610.0 0.0003231
10630.0 0.0003214
10650.0 0.00031969
10670.0 0.00031786
10690.0 0.00031608
10710.0 0.00031437
10730.0 0.00031257
10750.0 0.00031068
10770.0 0.00030896
10790.0 0.00030719
10810.0 0.00030533
10830.0 0.00030352
10850.0 0.00030177
10870.0 0.00029983
10890.0 0.00029785
10910.0 0.00029588
10930.0 0.00029375
10950.0 0.00029131
10970.0 0.00028866
10990.0 0.00028583
11010.0 0.00025796
11030.0 0.00025454
11050.0 0.00025123
11070.0 0.00024785
11090.0 0.0002442
11110.0 0.00024083
11130.0 0.00023755
11150.0 0.00023416
11170.0 0.00023079
11190.0 0.00022766
11210.0 0.00022443
11230.0 0.0002211
11250.0 0.00021793
11270.0 0.00021485
11290.0 0.00021165
11310.0 0.00020851
11330.0 0.00020569
11350.0 0.00020286
11370.0 0.00020005
11390.0 0.00019747
11410.0 0.00019504
11430.0 0.0001925
11450.0 0.00019008
11470.0 0.00018781
11490.0 0.00018548
11510.0 0.00018301
11530.0 0.00018062
11550.0 0.00017819
11570.0 0.0001755
11590.0 0.00017271
11610.0 0.00016991
11630.0 0.00016683
11650.0 0.0001635
11670.0 0.00016024
11690.0 0.00015688
11710.0 0.00015331
11730.0 0.00014974
11750.0 0.00014636
11770.0 0.00014284
11790.0 0.00013934
11810.0 0.00013609
11830.0 0.00013297
11850.0 0.0001298
11870.0 0.00012692
11890.0 0.00012432
11910.0 0.00012179
11930.0 0.00011939
11950.0 0.00011726
11970.0 0.00011526
11990.0 0.00011328
12010.0 0.00011149
12030.0 0.00010987
12050.0 0.00010828
12070.0 0.00010675
12090.0 0.00010545
12110.0 0.0001042
12130.0 0.00010302
12150.0 0.00010197
12170.0 0.00010109
12190.0 0.00010026
12210.0 9.9604e-05
12230.0 9.9157e-05
12250.0 9.8885e-05
12270.0 9.8813e-05
12290.0 9.8994e-05
12310.0 9.942e-05
12330.0 0.00010011
12350.0 0.00010108
12370.0 0.00010229
12390.0 0.00010377
12410.0 0.00010556
12430.0 0.00010751
12450.0 0.00010961
12470.0 0.00011191
12490.0 0.00011431
12510.0 0.00011667
12530.0 0.00011909
12550.0 0.00012151
12570.0 0.00012378
12590.0 0.0001259
12610.0 0.00012793
12630.0 0.00012976
12650.0 0.0001313
12670.0 0.00013265
12690.0 0.00013378
12710.0 0.00013465
12730.0 0.00013528
12750.0 0.00013568
12770.0 0.00013584
12790.0 0.0001358
12810.0 0.00013555
12830.0 0.00013509
12850.0 0.00013451
12870.0 0.00013378
12890.0 0.00013288
12910.0 0.00013189
12930.0 0.00013085
12950.0 0.00012966
12970.0 0.00012837
12990.0 0.00012709
13010.0 0.00012575
13030.0 0.00012429
13050.0 0.00012281
13070.0 0.00012135
13090.0 0.00011977
13110.0 0.00011813
13130.0 0.00011654
13150.0 0.00011494
13170.0 0.00011327
13190.0 0.00011171
13210.0 0.00011028
13230.0 0.00010891
13250.0 0.00010769
13270.0 0.00010669
13290.0 0.00010588
13310.0 0.00010528
13330.0 0.00010494
13350.0 0.00010484
13370.0 0.00010495
13390.0 0.00010527
13410.0 0.00010572
13430.0 0.00010627
13450.0 0.00010686
13470.0 0.0001074
13490.0 0.00010784
13510.0 0.00010814
13530.0 0.00010822
13550.0 0.00010805
13570.0 0.00010762
13590.0 0.0001069
13610.0 0.00010594
13630.0 0.00010479
13650.0 0.00010338
13670.0 0.00010183
13690.0 0.00010022
13710.0 9.853e-05
13730.0 9.6736e-05
13750.0 9.5071e-05
13770.0 9.3474e-05
13790.0 9.1907e-05
13810.0 9.0452e-05
13830.0 8.9164e-05
13850.0 8.7945e-05
13870.0 8.682e-05
13890.0 8.5841e-05
13910.0 8.4968e-05
13930.0 8.4155e-05
13950.0 8.3434e-05
13970.0 8.2818e-05
13990.0 8.2247e-05
14010.0 8.1728e-05
14030.0 8.1274e-05
14050.0 8.0863e-05
14070.0 8.0473e-05
14090.0 8.0124e-05
14110.0 7.9805e-05
14130.0 7.9498e-05
14150.0 7.9201e-05
14170.0 7.8922e-05
14190.0 7.8649e-05
14210.0 7.8375e-05
14230.0 7.811e-05
14250.0 7.7859e-05
14270.0 7.7614e-05
14290.0 7.7386e-05
14310.0 7.7185e-05
14330.0 7.7009e-05
14350.0 7.6859e-05
14370.0 7.6739e-05
14390.0 7.6642e-05
14410.0 7.6568e-05
14430.0 7.6511e-05
14450.0 7.6458e-05
14470.0 7.6405e-05
14490.0 7.635e-05
14510.0 7.6277e-05
14530.0 7.6185e-05
14550.0 7.6081e-05
14570.0 7.5964e-05
14590.0 7.5839e-05
14610.0 7.5719e-05
14630.0 7.5619e-05
14650.0 7.5548e-05
14670.0 7.5519e-05
14690.0 7.5559e-05
14710.0 7.5684e-05
14730.0 7.5878e-05
14750.0 7.6179e-05
14770.0 7.6609e-05
14790.0 7.7145e-05
14810.0 7.7783e-05
14830.0 7.8614e-05
14850.0 7.9567e-05
14870.0 8.0595e-05
14890.0 8.1745e-05
14910.0 8.3003e-05
14930.0 8.4224e-05
14950.0 8.5367e-05
14970.0 8.6453e-05
14990.0 8.7338e-05
15010.0 8.7968e-05
15030.0 8.8381e-05
15050.0 8.8582e-05
15070.0 8.8563e-05
15090.0 8.8408e-05
15110.0 8.8158e-05
15130.0 8.7846e-05
15150.0 8.7502e-05
15170.0 8.7139e-05
15190.0 8.6765e-05
15210.0 8.639e-05
15230.0 8.6013e-05
15250.0 8.5632e-05
15270.0 8.5251e-05
15290.0 8.4874e-05
15310.0 8.4494e-05
15330.0 8.4112e-05
15350.0 8.3733e-05
15370.0 8.3355e-05
15390.0 8.2971e-05
15410.0 8.259e-05
15430.0 8.2212e-05
15450.0 8.1831e-05
15470.0 8.1449e-05
15490.0 8.1071e-05
15510.0 8.0693e-05
15530.0 8.0312e-05
15550.0 7.9933e-05
15570.0 7.9557e-05
15590.0 7.9179e-05
15610.0 7.88e-05
15630.0 7.8425e-05
15650.0 7.805e-05
15670.0 7.7674e-05
15690.0 7.73e-05
15710.0 7.6929e-05
15730.0 7.6556e-05
15750.0 7.6183e-05
15770.0 7.5814e-05
15790.0 7.5446e-05
15810.0 7.5075e-05
15830.0 7.4708e-05
15850.0 7.4344e-05
15870.0 7.3979e-05
15890.0 7.3614e-05
15910.0 7.3254e-05
15930.0 7.2893e-05
15950.0 7.2532e-05
15970.0 7.2174e-05
15990.0 7.1818e-05
16010.0 7.1462e-05
16030.0 7.1106e-05
16050.0 7.0755e-05
16070.0 7.0405e-05
16090.0 7.0054e-05
16110.0 6.9707e-05
16130.0 6.9362e-05
16150.0 6.9015e-05
16170.0 6.8671e-05
16190.0 6.8331e-05
16210.0 6.7991e-05
16230.0 6.7651e-05
16250.0 6.7316e-05
16270.0 6.6983e-05
16290.0 6.6649e-05
16310.0 6.6317e-05
16330.0 6.5989e-05
16350.0 6.5661e-05
16370.0 6.5333e-05
16390.0 6.501e-05
16410.0 6.4689e-05
16430.0 6.4367e-05
16450.0 6.4049e-05
16470.0 6.3734e-05
16490.0 6.3419e-05
16510.0 6.3104e-05
16530.0 6.2794e-05
16550.0 6.2486e-05
16570.0 6.2177e-05
16590.0 6.1871e-05
16610.0 6.157e-05
16630.0 6.1268e-05
16650.0 6.0968e-05
16670.0 6.0671e-05
16690.0 6.0377e-05
16710.0 6.0081e-05
16730.0 5.9789e-05
16750.0 5.9501e-05
16770.0 5.9213e-05
16790.0 5.8925e-05
16810.0 5.8643e-05
16830.0 5.8362e-05
16850.0 5.8081e-05
16870.0 5.7803e-05
16890.0 5.7528e-05
16910.0 5.7253e-05
16930.0 5.6979e-05
16950.0 5.671e-05
16970.0 5.6443e-05
16990.0 5.6175e-05
17010.0 5.5911e-05
17030.0 5.565e-05
17050.0 5.5389e-05
17070.0 5.5129e-05
17090.0 5.4874e-05
17110.0 5.462e-05
17130.0 5.4365e-05
17150.0 5.4114e-05
17170.0 5.3867e-05
17190.0 5.3619e-05
17210.0 5.3373e-05
17230.0 5.3131e-05
17250.0 5.289e-05
17270.0 5.2649e-05
17290.0 5.2412e-05
17310.0 5.2177e-05
17330.0 5.1942e-05
17350.0 5.1709e-05
17370.0 5.148e-05
17390.0 5.1252e-05
17410.0 5.1024e-05
17430.0 5.08e-05
17450.0 5.0579e-05
17470.0 5.0355e-05
17490.0 5.0135e-05
17510.0 4.9919e-05
17530.0 4.9703e-05
17550.0 4.9488e-05
17570.0 4.9276e-05
17590.0 4.9067e-05
17610.0 4.8857e-05
17630.0 4.8649e-05
17650.0 4.8445e-05
17670.0 4.8241e-05
17690.0 4.8037e-05
17710.0 4.7838e-05
17730.0 4.764e-05
17750.0 4.7442e-05
17770.0 4.7246e-05
17790.0 4.7054e-05
17810.0 4.6861e-05
17830.0 4.667e-05
17850.0 4.6482e-05
17870.0 4.6295e-05
17890.0 4.6108e-05
17910.0 4.5923e-05
17930.0 4.5742e-05
17950.0 4.5561e-05
17970.0 4.5381e-05
17990.0 4.5204e-05
18010.0 4.5028e-05
18030.0 4.4851e-05
18050.0 4.4678e-05
18070.0 4.4507e-05
18090.0 4.4336e-05
18110.0 4.4166e-05
18130.0 4.3999e-05
18150.0 4.3834e-05
18170.0 4.3668e-05
18190.0 4.3505e-05
18210.0 4.3344e-05
18230.0 4.3183e-05
18250.0 4.3022e-05
18270.0 4.2866e-05
18290.0 4.271e-05
18310.0 4.2554e-05
18330.0 4.2401e-05
18350.0 4.225e-05
18370.0 4.2098e-05
18390.0 4.1947e-05
18410.0 4.18e-05
18430.0 4.1653e-05
18450.0 4.1505e-05
18470.0 4.1361e-05
18490.0 4.1219e-05
18510.0 4.1076e-05
18530.0 4.0935e-05
18550.0 4.0797e-05
18570.0 4.0658e-05
18590.0 4.052e-05
18610.0 4.0384e-05
18630.0 4.025e-05
18650.0 4.0116e-05
18670.0 3.9982e-05
18690.0 3.9853e-05
18710.0 3.9722e-05
18730.0 3.9593e-05
18750.0 3.9465e-05
18770.0 3.9339e-05
18790.0 3.9212e-05
18810.0 3.9087e-05
18830.0 3.8964e-05
18850.0 3.8842e-05
18870.0 3.8719e-05
18890.0 3.86e-05
18910.0 3.8481e-05
18930.0 3.8362e-05
18950.0 3.8244e-05
18970.0 3.8129e-05
18990.0 3.8014e-05
19010.0 3.7897e-05
19030.0 3.7785e-05
19050.0 3.7673e-05
19070.0 3.7561e-05
19090.0 3.7451e-05
19110.0 3.7343e-05
19130.0 3.7233e-05
19150.0 3.7125e-05
19170.0 3.7019e-05
19190.0 3.6913e-05
19210.0 3.6807e-05
19230.0 3.6703e-05
19250.0 3.6601e-05
19270.0 3.6498e-05
19290.0 3.6396e-05
19310.0 3.6297e-05
19330.0 3.6198e-05
19350.0 3.6097e-05
19370.0 3.5999e-05
19390.0 3.5903e-05
19410.0 3.5806e-05
19430.0 3.5709e-05
19450.0 3.5615e-05
19470.0 3.5522e-05
19490.0 3.5428e-05
19510.0 3.5335e-05
19530.0 3.5244e-05
19550.0 3.5153e-05
19570.0 3.5061e-05
19590.0 3.4973e-05
19610.0 3.4884e-05
19630.0 3.4795e-05
19650.0 3.4708e-05
19670.0 3.4623e-05
19690.0 3.4536e-05
19710.0 3.445e-05
19730.0 3.4366e-05
19750.0 3.4283e-05
19770.0 3.4198e-05
19790.0 3.4116e-05
19810.0 3.4034e-05
19830.0 3.3952e-05
19850.0 3.3869e-05
19870.0 3.3785e-05
19890.0 3.3694e-05
19910.0 3.359e-05
19930.0 3.3471e-05
19950.0 3.3325e-05
19970.0 3.3135e-05
19990.0 3.2892e-05
20010.0 3.2605e-05
20030.0 3.2252e-05
20050.0 3.1833e-05
20070.0 3.1378e-05
20090.0 3.089e-05
20110.0 3.0345e-05
20130.0 2.9798e-05
20150.0 2.9261e-05
20170.0 2.8712e-05
20190.0 2.816e-05
20210.0 2.764e-05
20230.0 2.7135e-05
20250.0 2.6628e-05
20270.0 2.6153e-05
20290.0 2.5714e-05
20310.0 2.529e-05
20330.0 2.4884e-05
20350.0 2.4534e-05
20370.0 2.421e-05
20390.0 2.3912e-05
20410.0 2.3653e-05
20430.0 2.3435e-05
20450.0 2.324e-05
20470.0 2.308e-05
20490.0 2.2959e-05
20510.0 2.2867e-05
20530.0 2.2803e-05
20550.0 2.2769e-05
20570.0 2.276e-05
20590.0 2.2774e-05
20610.0 2.2808e-05
20630.0 2.2857e-05
20650.0 2.2921e-05
20670.0 2.3e-05
20690.0 2.3082e-05
20710.0 2.3167e-05
20730.0 2.3256e-05
20750.0 2.3344e-05
20770.0 2.3423e-05
20790.0 2.3497e-05
20810.0 2.3563e-05
20830.0 2.3616e-05
20850.0 2.3655e-05
20870.0 2.3681e-05
20890.0 2.369e-05
20910.0 2.3682e-05
20930.0 2.3657e-05
20950.0 2.3614e-05
20970.0 2.3555e-05
20990.0 2.3482e-05
21010.0 2.3389e-05
21030.0 2.3283e-05
21050.0 2.3166e-05
21070.0 2.3037e-05
21090.0 2.2892e-05
21110.0 2.2747e-05
21130.0 2.2597e-05
21150.0 2.2438e-05
21170.0 2.2279e-05
21190.0 2.2126e-05
21210.0 2.197e-05
21230.0 2.1816e-05
21250.0 2.1674e-05
21270.0 2.154e-05
21290.0 2.1413e-05
21310.0 2.1297e-05
21330.0 2.1199e-05
21350.0 2.1109e-05
21370.0 2.1033e-05
21390.0 2.0974e-05
21410.0 2.0929e-05
21430.0 2.0897e-05
21450.0 2.0882e-05
21470.0 2.088e-05
21490.0 2.0893e-05
21510.0 2.0921e-05
21530.0 2.096e-05
21550.0 2.1012e-05
21570.0 2.1078e-05
21590.0 2.1154e-05
21610.0 2.1238e-05
21630.0 2.1336e-05
21650.0 2.1446e-05
21670.0 2.1557e-05
21690.0 2.1677e-05
21710.0 2.1807e-05
21730.0 2.1941e-05
21750.0 2.2075e-05
21770.0 2.2221e-05
21790.0 2.2369e-05
21810.0 2.2513e-05
21830.0 2.2659e-05
21850.0 2.281e-05
21870.0 2.2955e-05
21890.0 2.3093e-05
21910.0 2.3233e-05
21930.0 2.3367e-05
21950.0 2.3491e-05
21970.0 2.3609e-05
21990.0 2.3724e-05
22010.0 2.3823e-05
22030.0 2.3911e-05
22050.0 2.3989e-05
22070.0 2.4055e-05
22090.0 2.4103e-05
22110.0 2.4139e-05
22130.0 2.4159e-05
22150.0 2.4162e-05
22170.0 2.4148e-05
22190.0 2.4115e-05
22210.0 2.4064e-05
22230.0 2.3997e-05
22250.0 2.391e-05
22270.0 2.3803e-05
22290.0 2.3682e-05
22310.0 2.3545e-05
22330.0 2.3384e-05
22350.0 2.3209e-05
22370.0 2.3025e-05
22390.0 2.2822e-05
22410.0 2.2599e-05
22430.0 2.2374e-05
22450.0 2.2141e-05
22470.0 2.189e-05
22490.0 2.1635e-05
22510.0 2.1382e-05
22530.0 2.1114e-05
22550.0 2.0838e-05
22570.0 2.0572e-05
22590.0 2.0307e-05
22610.0 2.0035e-05
22630.0 1.977e-05
