#lamb flux
1010.0 4.9852e-10
1030.0 5.5137e-10
1050.0 6.1215e-10
1070.0 6.8058e-10
1090.0 7.583e-10
1110.0 8.3801e-10
1130.0 9.1824e-10
1150.0 1.0023e-09
1170.0 1.089e-09
1190.0 1.1712e-09
1210.0 1.2545e-09
1230.0 1.3406e-09
1250.0 1.4249e-09
1270.0 1.5069e-09
1290.0 1.5934e-09
1310.0 1.6799e-09
1330.0 1.7629e-09
1350.0 1.8467e-09
1370.0 1.9334e-09
1390.0 2.0178e-09
1410.0 2.0997e-09
1430.0 2.1854e-09
1450.0 2.271e-09
1470.0 2.3538e-09
1490.0 2.4375e-09
1510.0 2.5259e-09
1530.0 2.6097e-09
1550.0 2.6923e-09
1570.0 2.7779e-09
1590.0 2.8635e-09
1610.0 2.9453e-09
1630.0 3.0297e-09
1650.0 3.1164e-09
1670.0 3.2003e-09
1690.0 3.2831e-09
1710.0 3.3692e-09
1730.0 3.4559e-09
1750.0 3.5374e-09
1770.0 3.6215e-09
1790.0 3.7073e-09
1810.0 3.7905e-09
1830.0 3.8724e-09
1850.0 3.9594e-09
1870.0 4.0443e-09
1890.0 4.1265e-09
1910.0 4.2105e-09
1930.0 4.2967e-09
1950.0 4.3791e-09
1970.0 4.4608e-09
1990.0 4.5457e-09
2010.0 4.6294e-09
2030.0 4.7103e-09
2050.0 4.7939e-09
2070.0 4.8798e-09
2090.0 4.9609e-09
2110.0 5.0421e-09
2130.0 5.1258e-09
2150.0 5.2081e-09
2170.0 5.287e-09
2190.0 5.369e-09
2210.0 5.4517e-09
2230.0 5.5312e-09
2250.0 5.6104e-09
2270.0 5.6933e-09
2290.0 5.7737e-09
2310.0 5.851e-09
2330.0 5.9314e-09
2350.0 6.0141e-09
2370.0 6.0963e-09
2390.0 6.1854e-09
2410.0 6.2909e-09
2430.0 6.4123e-09
2450.0 6.5574e-09
2470.0 6.7434e-09
2490.0 6.9777e-09
2510.0 7.2441e-09
2530.0 7.5647e-09
2550.0 7.9661e-09
2570.0 8.4654e-09
2590.0 9.1149e-09
2610.0 1.0087e-08
2630.0 1.1476e-08
2650.0 1.3291e-08
2670.0 1.5638e-08
2690.0 1.8522e-08
2710.0 2.1601e-08
2730.0 2.4643e-08
2750.0 2.7639e-08
2770.0 3.0246e-08
2790.0 3.2315e-08
2810.0 3.3958e-08
2830.0 3.5241e-08
2850.0 3.6117e-08
2870.0 3.676e-08
2890.0 3.7269e-08
2910.0 3.7675e-08
2930.0 3.8007e-08
2950.0 3.8324e-08
2970.0 3.8634e-08
2990.0 3.8925e-08
3010.0 1.1002e-06
3030.0 1.1085e-06
3050.0 1.1164e-06
3070.0 1.1232e-06
3090.0 1.1291e-06
3110.0 1.1327e-06
3130.0 1.1326e-06
3150.0 1.1275e-06
3170.0 1.1154e-06
3190.0 1.0965e-06
3210.0 1.0724e-06
3230.0 1.0449e-06
3250.0 1.0177e-06
3270.0 9.9787e-07
3290.0 9.8685e-07
3310.0 9.8863e-07
3330.0 1.0029e-06
3350.0 1.0279e-06
3370.0 1.0634e-06
3390.0 1.1083e-06
3410.0 1.1571e-06
3430.0 1.2118e-06
3450.0 1.2749e-06
3470.0 1.3438e-06
3490.0 1.4168e-06
3510.0 1.4993e-06
3530.0 1.5876e-06
3550.0 1.677e-06
3570.0 1.7703e-06
3590.0 1.8718e-06
3610.0 1.9763e-06
3630.0 2.0806e-06
3650.0 2.1887e-06
3670.0 2.2874e-06
3690.0 2.3612e-06
3710.0 2.4035e-06
3730.0 2.4049e-06
3750.0 2.3715e-06
3770.0 2.3583e-06
3790.0 2.3443e-06
3810.0 2.2867e-06
3830.0 2.3575e-06
3850.0 2.6359e-06
3870.0 2.7888e-06
3890.0 2.776e-06
3910.0 2.7879e-06
3930.0 2.8613e-06
3950.0 2.9065e-06
3970.0 2.648e-06
3990.0 2.2785e-06
4010.0 6.829e-06
4030.0 8.2744e-06
4050.0 9.486e-06
4070.0 8.2307e-06
4090.0 7.4545e-06
4110.0 6.5779e-06
4130.0 6.0543e-06
4150.0 6.4399e-06
4170.0 6.3436e-06
4190.0 6.7618e-06
4210.0 6.7e-06
4230.0 7.0868e-06
4250.0 8.3838e-06
4270.0 8.4824e-06
4290.0 7.8164e-06
4310.0 8.1218e-06
4330.0 8.6392e-06
4350.0 9.6867e-06
4370.0 1.1024e-05
4390.0 1.0344e-05
4410.0 7.6428e-06
4430.0 6.4701e-06
4450.0 5.9453e-06
4470.0 4.5632e-06
4490.0 4.9243e-06
4510.0 7.4382e-06
4530.0 8.5785e-06
4550.0 8.6529e-06
4570.0 9.7367e-06
4590.0 1.1091e-05
4610.0 1.4959e-05
4630.0 1.9429e-05
4650.0 2.107e-05
4670.0 1.9513e-05
4690.0 1.8619e-05
4710.0 1.9682e-05
4730.0 1.8574e-05
4750.0 1.3886e-05
4770.0 1.0186e-05
4790.0 9.5119e-06
4810.0 9.0663e-06
4830.0 8.3001e-06
4850.0 9.108e-06
4870.0 1.2033e-05
4890.0 1.419e-05
4910.0 1.245e-05
4930.0 1.1016e-05
4950.0 1.2103e-05
4970.0 1.5521e-05
4990.0 2.1035e-05
5010.0 2.4198e-05
5030.0 2.1337e-05
5050.0 1.4436e-05
5070.0 9.5138e-06
5090.0 7.6715e-06
5110.0 7.8894e-06
5130.0 9.1056e-06
5150.0 9.8652e-06
5170.0 9.7172e-06
5190.0 9.0801e-06
5210.0 9.4908e-06
5230.0 9.977e-06
5250.0 1.0752e-05
5270.0 1.1601e-05
5290.0 1.2857e-05
5310.0 1.4965e-05
5330.0 1.656e-05
5350.0 1.6455e-05
5370.0 1.7284e-05
5390.0 1.9834e-05
5410.0 1.9816e-05
5430.0 1.7525e-05
5450.0 1.6101e-05
5470.0 1.7097e-05
5490.0 2.0887e-05
5510.0 2.6116e-05
5530.0 2.9954e-05
5550.0 2.8951e-05
5570.0 2.6319e-05
5590.0 2.2885e-05
5610.0 2.1105e-05
5630.0 2.0465e-05
5650.0 1.9491e-05
5670.0 1.847e-05
5690.0 1.6512e-05
5710.0 1.6099e-05
5730.0 1.483e-05
5750.0 1.0456e-05
5770.0 8.1574e-06
5790.0 9.2442e-06
5810.0 1.0438e-05
5830.0 1.2809e-05
5850.0 1.5248e-05
5870.0 1.6918e-05
5890.0 1.7205e-05
5910.0 1.6879e-05
5930.0 1.6067e-05
5950.0 1.6372e-05
5970.0 1.8662e-05
5990.0 1.7548e-05
6010.0 1.471e-05
6030.0 1.2428e-05
6050.0 1.0823e-05
6070.0 1.0764e-05
6090.0 1.1672e-05
6110.0 1.3051e-05
6130.0 1.3251e-05
6150.0 1.1401e-05
6170.0 1.0029e-05
6190.0 1.1287e-05
6210.0 1.4921e-05
6230.0 1.958e-05
6250.0 2.1208e-05
6270.0 1.8533e-05
6290.0 1.5593e-05
6310.0 1.2173e-05
6330.0 9.3269e-06
6350.0 8.3193e-06
6370.0 8.7486e-06
6390.0 1.0114e-05
6410.0 1.2471e-05
6430.0 1.4563e-05
6450.0 1.6663e-05
6470.0 1.908e-05
6490.0 2.3047e-05
6510.0 2.577e-05
6530.0 2.5282e-05
6550.0 2.2862e-05
6570.0 1.9407e-05
6590.0 1.75e-05
6610.0 1.509e-05
6630.0 1.3671e-05
6650.0 1.2923e-05
6670.0 1.2554e-05
6690.0 1.1343e-05
6710.0 1.0311e-05
6730.0 7.4271e-06
6750.0 7.3631e-06
6770.0 8.0032e-06
6790.0 9.1991e-06
6810.0 8.4173e-06
6830.0 8.6676e-06
6850.0 8.1069e-06
6870.0 7.4057e-06
6890.0 7.1106e-06
6910.0 7.5772e-06
6930.0 7.0972e-06
6950.0 7.3018e-06
6970.0 7.6801e-06
6990.0 8.7176e-06
7010.0 8.7919e-06
7030.0 8.9315e-06
7050.0 8.5176e-06
7070.0 8.1158e-06
7090.0 8.1395e-06
7110.0 8.375e-06
7130.0 9.0128e-06
7150.0 9.5723e-06
7170.0 1.0562e-05
7190.0 1.1611e-05
7210.0 1.1409e-05
7230.0 1.1729e-05
7250.0 1.2605e-05
7270.0 1.3736e-05
7290.0 1.6303e-05
7310.0 1.7691e-05
7330.0 1.7099e-05
7350.0 1.5465e-05
7370.0 1.3456e-05
7390.0 1.3054e-05
7410.0 1.3873e-05
7430.0 1.5418e-05
7450.0 1.6793e-05
7470.0 1.6638e-05
7490.0 1.5171e-05
7510.0 1.7185e-05
7530.0 1.6997e-05
7550.0 1.5277e-05
7570.0 1.1934e-05
7590.0 8.2044e-06
7610.0 7.0418e-06
7630.0 8.0008e-06
7650.0 9.4599e-06
7670.0 1.1774e-05
7690.0 1.2956e-05
7710.0 1.3502e-05
7730.0 1.4188e-05
7750.0 1.5928e-05
7770.0 1.6179e-05
7790.0 1.4861e-05
7810.0 1.356e-05
7830.0 1.3983e-05
7850.0 1.3593e-05
7870.0 1.2462e-05
7890.0 1.0471e-05
7910.0 8.5112e-06
7930.0 8.1269e-06
7950.0 7.4039e-06
7970.0 6.8536e-06
7990.0 6.8145e-06
8010.0 5.047e-07
8030.0 4.9814e-07
8050.0 4.9142e-07
8070.0 4.9785e-07
8090.0 5.3493e-07
8110.0 5.2582e-07
8130.0 4.3373e-07
8150.0 4.224e-07
8170.0 3.6384e-07
8190.0 3.4482e-07
8210.0 4.4778e-07
8230.0 4.9854e-07
8250.0 4.4933e-07
8270.0 3.9108e-07
8290.0 3.8123e-07
8310.0 2.9341e-07
8330.0 1.9776e-07
8350.0 1.4035e-07
8370.0 8.8425e-08
8390.0 1.6164e-07
8410.0 1.8835e-07
8430.0 2.3217e-07
8450.0 2.7264e-07
8470.0 3.3887e-07
8490.0 3.3648e-07
8510.0 3.3098e-07
8530.0 3.4542e-07
8550.0 4.6604e-07
8570.0 5.5172e-07
8590.0 5.9531e-07
8610.0 7.52e-07
8630.0 9.0589e-07
8650.0 9.4766e-07
8670.0 1.0071e-06
8690.0 1.0127e-06
8710.0 9.1715e-07
8730.0 8.531e-07
8750.0 7.5302e-07
8770.0 7.145e-07
8790.0 7.0196e-07
8810.0 6.7263e-07
8830.0 5.3787e-07
8850.0 3.9376e-07
8870.0 3.015e-07
8890.0 2.9476e-07
8910.0 3.378e-07
8930.0 3.8422e-07
8950.0 3.9158e-07
8970.0 3.9343e-07
8990.0 3.5089e-07
9010.0 3.6772e-06
9030.0 3.332e-06
9050.0 3.3481e-06
9070.0 3.3745e-06
9090.0 3.3977e-06
9110.0 3.4263e-06
9130.0 3.4484e-06
9150.0 3.4656e-06
9170.0 3.4839e-06
9190.0 3.5034e-06
9210.0 3.524e-06
9230.0 3.5457e-06
9250.0 3.5678e-06
9270.0 3.5906e-06
9290.0 3.6142e-06
9310.0 3.638e-06
9330.0 3.6622e-06
9350.0 3.6873e-06
9370.0 3.7127e-06
9390.0 3.7383e-06
9410.0 3.7647e-06
9430.0 3.7919e-06
9450.0 3.819e-06
9470.0 3.8466e-06
9490.0 3.8751e-06
9510.0 3.9038e-06
9530.0 3.9327e-06
9550.0 3.9627e-06
9570.0 3.9931e-06
9590.0 4.0236e-06
9610.0 4.0547e-06
9630.0 4.0866e-06
9650.0 4.1188e-06
9670.0 4.151e-06
9690.0 4.1841e-06
9710.0 4.2177e-06
9730.0 4.2513e-06
9750.0 4.2855e-06
9770.0 4.3207e-06
9790.0 4.3558e-06
9810.0 4.3911e-06
9830.0 4.4272e-06
9850.0 4.4637e-06
9870.0 4.5001e-06
9890.0 4.537e-06
9910.0 4.5747e-06
9930.0 4.6124e-06
9950.0 4.6502e-06
9970.0 4.6888e-06
9990.0 4.7277e-06
10010.0 4.1024e-06
10030.0 4.1361e-06
10050.0 4.1705e-06
10070.0 4.206e-06
10090.0 4.2395e-06
10110.0 4.2738e-06
10130.0 4.3083e-06
10150.0 4.3426e-06
10170.0 4.3774e-06
10190.0 4.4128e-06
10210.0 4.4477e-06
10230.0 4.4826e-06
10250.0 4.518e-06
10270.0 4.5534e-06
10290.0 4.5884e-06
10310.0 4.6237e-06
10330.0 4.6595e-06
10350.0 4.6946e-06
10370.0 4.7296e-06
10390.0 4.7651e-06
10410.0 4.8003e-06
10430.0 4.8349e-06
10450.0 4.8698e-06
10470.0 4.9048e-06
10490.0 4.9392e-06
10510.0 4.9734e-06
10530.0 5.0081e-06
10550.0 5.0423e-06
10570.0 5.0757e-06
10590.0 5.1094e-06
10610.0 5.143e-06
10630.0 5.1757e-06
10650.0 5.2082e-06
10670.0 5.2411e-06
10690.0 5.2733e-06
10710.0 5.3048e-06
10730.0 5.3363e-06
10750.0 5.368e-06
10770.0 5.3983e-06
10790.0 5.4284e-06
10810.0 5.4584e-06
10830.0 5.4875e-06
10850.0 5.5152e-06
10870.0 5.542e-06
10890.0 5.5656e-06
10910.0 5.5837e-06
10930.0 5.594e-06
10950.0 5.5916e-06
10970.0 5.5726e-06
10990.0 5.5354e-06
11010.0 5.4733e-06
11030.0 5.3862e-06
11050.0 5.2801e-06
11070.0 5.1532e-06
11090.0 5.0007e-06
11110.0 4.843e-06
11130.0 4.6785e-06
11150.0 4.5014e-06
11170.0 4.3188e-06
11190.0 4.1417e-06
11210.0 3.9588e-06
11230.0 3.7713e-06
11250.0 3.5921e-06
11270.0 3.42e-06
11290.0 3.2476e-06
11310.0 3.0843e-06
11330.0 2.9404e-06
11350.0 2.8045e-06
11370.0 2.679e-06
11390.0 2.5703e-06
11410.0 2.4753e-06
11430.0 2.387e-06
11450.0 2.3109e-06
11470.0 2.2451e-06
11490.0 2.1839e-06
11510.0 2.1249e-06
11530.0 2.0702e-06
11550.0 2.0158e-06
11570.0 1.9578e-06
11590.0 1.8977e-06
11610.0 1.8366e-06
11630.0 1.77e-06
11650.0 1.6988e-06
11670.0 1.6286e-06
11690.0 1.5573e-06
11710.0 1.4839e-06
11730.0 1.4127e-06
11750.0 1.3468e-06
11770.0 1.2822e-06
11790.0 1.2216e-06
11810.0 1.1683e-06
11830.0 1.1207e-06
11850.0 1.0768e-06
11870.0 1.04e-06
11890.0 1.0095e-06
11910.0 9.8267e-07
11930.0 9.5961e-07
11950.0 9.4041e-07
11970.0 9.2325e-07
11990.0 9.0703e-07
12010.0 8.9203e-07
12030.0 8.7757e-07
12050.0 8.6262e-07
12070.0 8.4708e-07
12090.0 8.3209e-07
12110.0 8.1687e-07
12130.0 8.0163e-07
12150.0 7.8757e-07
12170.0 7.753e-07
12190.0 7.6469e-07
12210.0 7.5729e-07
12230.0 7.5371e-07
12250.0 7.5429e-07
12270.0 7.5997e-07
12290.0 7.7072e-07
12310.0 7.8615e-07
12330.0 8.0772e-07
12350.0 8.3465e-07
12370.0 8.6532e-07
12390.0 9.0067e-07
12410.0 9.4209e-07
12430.0 9.8419e-07
12450.0 1.0278e-06
12470.0 1.0741e-06
12490.0 1.1207e-06
12510.0 1.1644e-06
12530.0 1.2078e-06
12550.0 1.2498e-06
12570.0 1.2868e-06
12590.0 1.3193e-06
12610.0 1.3482e-06
12630.0 1.3713e-06
12650.0 1.3872e-06
12670.0 1.3977e-06
12690.0 1.4019e-06
12710.0 1.3996e-06
12730.0 1.3914e-06
12750.0 1.377e-06
12770.0 1.3571e-06
12790.0 1.333e-06
12810.0 1.3043e-06
12830.0 1.271e-06
12850.0 1.2362e-06
12870.0 1.1994e-06
12890.0 1.1596e-06
12910.0 1.1191e-06
12930.0 1.0792e-06
12950.0 1.0376e-06
12970.0 9.952e-07
12990.0 9.5511e-07
13010.0 9.1552e-07
13030.0 8.7549e-07
13050.0 8.3704e-07
13070.0 8.0103e-07
13090.0 7.6488e-07
13110.0 7.2991e-07
13130.0 6.9767e-07
13150.0 6.6714e-07
13170.0 6.3725e-07
13190.0 6.1065e-07
13210.0 5.8723e-07
13230.0 5.6583e-07
13250.0 5.474e-07
13270.0 5.3287e-07
13290.0 5.2156e-07
13310.0 5.1377e-07
13330.0 5.1023e-07
13350.0 5.1064e-07
13370.0 5.1522e-07
13390.0 5.2421e-07
13410.0 5.3637e-07
13430.0 5.5218e-07
13450.0 5.717e-07
13470.0 5.9338e-07
13490.0 6.1633e-07
13510.0 6.4222e-07
13530.0 6.6847e-07
13550.0 6.9359e-07
13570.0 7.1836e-07
13590.0 7.425e-07
13610.0 7.6398e-07
13630.0 7.8272e-07
13650.0 7.9984e-07
13670.0 8.1405e-07
13690.0 8.2504e-07
13710.0 8.3354e-07
13730.0 8.3961e-07
13750.0 8.4264e-07
13770.0 8.4333e-07
13790.0 8.418e-07
13810.0 8.3808e-07
13830.0 8.3259e-07
13850.0 8.2515e-07
13870.0 8.1577e-07
13890.0 8.0504e-07
13910.0 7.9295e-07
13930.0 7.7895e-07
13950.0 7.6367e-07
13970.0 7.4805e-07
13990.0 7.3103e-07
14010.0 7.1293e-07
14030.0 6.9488e-07
14050.0 6.7669e-07
14070.0 6.5749e-07
14090.0 6.3909e-07
14110.0 6.218e-07
14130.0 6.0504e-07
14150.0 5.8926e-07
14170.0 5.758e-07
14190.0 5.6415e-07
14210.0 5.5427e-07
14230.0 5.4696e-07
14250.0 5.4223e-07
14270.0 5.3994e-07
14290.0 5.4043e-07
14310.0 5.4344e-07
14330.0 5.4885e-07
14350.0 5.5681e-07
14370.0 5.6673e-07
14390.0 5.7799e-07
14410.0 5.9126e-07
14430.0 6.0582e-07
14450.0 6.207e-07
14470.0 6.3613e-07
14490.0 6.5255e-07
14510.0 6.6824e-07
14530.0 6.8315e-07
14550.0 6.9805e-07
14570.0 7.1236e-07
14590.0 7.2538e-07
14610.0 7.3797e-07
14630.0 7.5044e-07
14650.0 7.6205e-07
14670.0 7.7326e-07
14690.0 7.8495e-07
14710.0 7.9724e-07
14730.0 8.0953e-07
14750.0 8.2314e-07
14770.0 8.3859e-07
14790.0 8.5533e-07
14810.0 8.7347e-07
14830.0 8.9496e-07
14850.0 9.1833e-07
14870.0 9.427e-07
14890.0 9.69e-07
14910.0 9.9692e-07
14930.0 1.0238e-06
14950.0 1.0489e-06
14970.0 1.0726e-06
14990.0 1.0925e-06
15010.0 1.1078e-06
15030.0 1.1191e-06
15050.0 1.1265e-06
15070.0 1.1302e-06
15090.0 1.1314e-06
15110.0 1.1311e-06
15130.0 1.1297e-06
15150.0 1.1277e-06
15170.0 1.1255e-06
15190.0 1.1231e-06
15210.0 1.1207e-06
15230.0 1.1183e-06
15250.0 1.1158e-06
15270.0 1.1134e-06
15290.0 1.1111e-06
15310.0 1.1087e-06
15330.0 1.1063e-06
15350.0 1.104e-06
15370.0 1.1017e-06
15390.0 1.0993e-06
15410.0 1.097e-06
15430.0 1.0947e-06
15450.0 1.0924e-06
15470.0 1.0901e-06
15490.0 1.0879e-06
15510.0 1.0856e-06
15530.0 1.0833e-06
15550.0 1.0811e-06
15570.0 1.0789e-06
15590.0 1.0767e-06
15610.0 1.0744e-06
15630.0 1.0722e-06
15650.0 1.0701e-06
15670.0 1.0678e-06
15690.0 1.0656e-06
15710.0 1.0635e-06
15730.0 1.0613e-06
15750.0 1.0591e-06
15770.0 1.057e-06
15790.0 1.0549e-06
15810.0 1.0526e-06
15830.0 1.0505e-06
15850.0 1.0484e-06
15870.0 1.0463e-06
15890.0 1.0441e-06
15910.0 1.042e-06
15930.0 1.0399e-06
15950.0 1.0377e-06
15970.0 1.0356e-06
15990.0 1.0336e-06
16010.0 1.0314e-06
16030.0 1.0292e-06
16050.0 1.0272e-06
16070.0 1.0251e-06
16090.0 1.023e-06
16110.0 1.0209e-06
16130.0 1.0188e-06
16150.0 1.0167e-06
16170.0 1.0145e-06
16190.0 1.0125e-06
16210.0 1.0104e-06
16230.0 1.0082e-06
16250.0 1.0061e-06
16270.0 1.0041e-06
16290.0 1.0019e-06
16310.0 9.9983e-07
16330.0 9.9778e-07
16350.0 9.9567e-07
16370.0 9.9345e-07
16390.0 9.9139e-07
16410.0 9.8932e-07
16430.0 9.8717e-07
16450.0 9.8503e-07
16470.0 9.83e-07
16490.0 9.8085e-07
16510.0 9.7867e-07
16530.0 9.7657e-07
16550.0 9.7448e-07
16570.0 9.7228e-07
16590.0 9.7011e-07
16610.0 9.6805e-07
16630.0 9.6589e-07
16650.0 9.637e-07
16670.0 9.616e-07
16690.0 9.5949e-07
16710.0 9.5724e-07
16730.0 9.5507e-07
16750.0 9.5295e-07
16770.0 9.5076e-07
16790.0 9.4852e-07
16810.0 9.4639e-07
16830.0 9.4424e-07
16850.0 9.42e-07
16870.0 9.398e-07
16890.0 9.3767e-07
16910.0 9.3541e-07
16930.0 9.3313e-07
16950.0 9.3096e-07
16970.0 9.2876e-07
16990.0 9.2648e-07
17010.0 9.2426e-07
17030.0 9.2209e-07
17050.0 9.198e-07
17070.0 9.1752e-07
17090.0 9.1531e-07
17110.0 9.1306e-07
17130.0 9.107e-07
17150.0 9.0844e-07
17170.0 9.0622e-07
17190.0 9.0391e-07
17210.0 9.0159e-07
17230.0 8.9936e-07
17250.0 8.9706e-07
17270.0 8.9468e-07
17290.0 8.9238e-07
17310.0 8.901e-07
17330.0 8.8773e-07
17350.0 8.8534e-07
17370.0 8.8308e-07
17390.0 8.8075e-07
17410.0 8.7835e-07
17430.0 8.7602e-07
17450.0 8.7373e-07
17470.0 8.7127e-07
17490.0 8.6886e-07
17510.0 8.6654e-07
17530.0 8.6415e-07
17550.0 8.617e-07
17570.0 8.5934e-07
17590.0 8.57e-07
17610.0 8.5454e-07
17630.0 8.5211e-07
17650.0 8.4975e-07
17670.0 8.4732e-07
17690.0 8.4478e-07
17710.0 8.424e-07
17730.0 8.4e-07
17750.0 8.3751e-07
17770.0 8.3505e-07
17790.0 8.3267e-07
17810.0 8.3018e-07
17830.0 8.2766e-07
17850.0 8.2522e-07
17870.0 8.2277e-07
17890.0 8.2022e-07
17910.0 8.1771e-07
17930.0 8.153e-07
17950.0 8.1279e-07
17970.0 8.1025e-07
17990.0 8.078e-07
18010.0 8.0533e-07
18030.0 8.0272e-07
18050.0 8.002e-07
18070.0 7.9773e-07
18090.0 7.9518e-07
18110.0 7.9259e-07
18130.0 7.9012e-07
18150.0 7.8761e-07
18170.0 7.8501e-07
18190.0 7.8247e-07
18210.0 7.7999e-07
18230.0 7.7738e-07
18250.0 7.7475e-07
18270.0 7.7225e-07
18290.0 7.6971e-07
18310.0 7.6709e-07
18330.0 7.6453e-07
18350.0 7.6203e-07
18370.0 7.5941e-07
18390.0 7.5679e-07
18410.0 7.5426e-07
18430.0 7.5169e-07
18450.0 7.49e-07
18470.0 7.4643e-07
18490.0 7.439e-07
18510.0 7.4127e-07
18530.0 7.3865e-07
18550.0 7.3612e-07
18570.0 7.3352e-07
18590.0 7.3083e-07
18610.0 7.2825e-07
18630.0 7.2568e-07
18650.0 7.2302e-07
18670.0 7.2036e-07
18690.0 7.1783e-07
18710.0 7.1522e-07
18730.0 7.1255e-07
18750.0 7.0996e-07
18770.0 7.0741e-07
18790.0 7.0469e-07
18810.0 7.0204e-07
18830.0 6.9947e-07
18850.0 6.9684e-07
18870.0 6.9416e-07
18890.0 6.9158e-07
18910.0 6.89e-07
18930.0 6.8631e-07
18950.0 6.8367e-07
18970.0 6.811e-07
18990.0 6.7846e-07
19010.0 6.7571e-07
19030.0 6.7314e-07
19050.0 6.7055e-07
19070.0 6.6787e-07
19090.0 6.6523e-07
19110.0 6.6268e-07
19130.0 6.6e-07
19150.0 6.5732e-07
19170.0 6.5472e-07
19190.0 6.5211e-07
19210.0 6.4941e-07
19230.0 6.4676e-07
19250.0 6.442e-07
19270.0 6.4155e-07
19290.0 6.3888e-07
19310.0 6.363e-07
19330.0 6.337e-07
19350.0 6.3097e-07
19370.0 6.2834e-07
19390.0 6.2576e-07
19410.0 6.231e-07
19430.0 6.2042e-07
19450.0 6.1786e-07
19470.0 6.1526e-07
19490.0 6.1257e-07
19510.0 6.0996e-07
19530.0 6.0739e-07
19550.0 6.0471e-07
19570.0 6.0202e-07
19590.0 5.9946e-07
19610.0 5.9685e-07
19630.0 5.9418e-07
19650.0 5.9158e-07
19670.0 5.8904e-07
19690.0 5.8636e-07
19710.0 5.8372e-07
19730.0 5.8115e-07
19750.0 5.7854e-07
19770.0 5.7584e-07
19790.0 5.7325e-07
19810.0 5.707e-07
19830.0 5.6804e-07
19850.0 5.6538e-07
19870.0 5.6276e-07
19890.0 5.5995e-07
19910.0 5.5686e-07
19930.0 5.5356e-07
19950.0 5.4977e-07
19970.0 5.4512e-07
19990.0 5.3952e-07
20010.0 4.8001e-07
20030.0 4.7306e-07
20050.0 4.6493e-07
20070.0 4.5612e-07
20090.0 4.4664e-07
20110.0 4.3592e-07
20130.0 4.2507e-07
20150.0 4.1432e-07
20170.0 4.0317e-07
20190.0 3.9186e-07
20210.0 3.8117e-07
20230.0 3.7076e-07
20250.0 3.6031e-07
20270.0 3.5062e-07
20290.0 3.4178e-07
20310.0 3.3337e-07
20330.0 3.2551e-07
20350.0 3.1899e-07
20370.0 3.132e-07
20390.0 3.0812e-07
20410.0 3.0402e-07
20430.0 3.0086e-07
20450.0 2.9836e-07
20470.0 2.9668e-07
20490.0 2.9578e-07
20510.0 2.9552e-07
20530.0 2.9588e-07
20550.0 2.968e-07
20570.0 2.9813e-07
20590.0 2.9993e-07
20610.0 3.0211e-07
20630.0 3.0451e-07
20650.0 3.0719e-07
20670.0 3.1026e-07
20690.0 3.1339e-07
20710.0 3.1662e-07
20730.0 3.2011e-07
20750.0 3.2376e-07
20770.0 3.2734e-07
20790.0 3.311e-07
20810.0 3.3508e-07
20830.0 3.3904e-07
20850.0 3.4302e-07
20870.0 3.4728e-07
20890.0 3.5162e-07
20910.0 3.5581e-07
20930.0 3.6015e-07
20950.0 3.6466e-07
20970.0 3.6905e-07
20990.0 3.7338e-07
21010.0 3.7794e-07
21030.0 3.8239e-07
21050.0 3.8664e-07
21070.0 3.9088e-07
21090.0 3.9514e-07
21110.0 3.9902e-07
21130.0 4.0267e-07
21150.0 4.062e-07
21170.0 4.094e-07
21190.0 4.1215e-07
21210.0 4.1463e-07
21230.0 4.1669e-07
21250.0 4.1815e-07
21270.0 4.1908e-07
21290.0 4.1943e-07
21310.0 4.191e-07
21330.0 4.1811e-07
21350.0 4.1637e-07
21370.0 4.1382e-07
21390.0 4.1058e-07
21410.0 4.0662e-07
21430.0 4.0159e-07
21450.0 3.9595e-07
21470.0 3.8981e-07
21490.0 3.8286e-07
21510.0 3.7524e-07
21530.0 3.6749e-07
21550.0 3.5938e-07
21570.0 3.5073e-07
21590.0 3.4222e-07
21610.0 3.34e-07
21630.0 3.2577e-07
21650.0 3.1773e-07
21670.0 3.1076e-07
21690.0 3.0433e-07
21710.0 2.9854e-07
21730.0 2.938e-07
21750.0 2.9014e-07
21770.0 2.8735e-07
21790.0 2.8575e-07
21810.0 2.853e-07
21830.0 2.8594e-07
21850.0 2.8772e-07
21870.0 2.9051e-07
21890.0 2.9411e-07
21910.0 2.9873e-07
21930.0 3.0415e-07
21950.0 3.1002e-07
21970.0 3.1652e-07
21990.0 3.2381e-07
22010.0 3.311e-07
22030.0 3.3851e-07
22050.0 3.4629e-07
22070.0 3.5411e-07
22090.0 3.6151e-07
22110.0 3.6898e-07
22130.0 3.7643e-07
22150.0 3.8339e-07
22170.0 3.8995e-07
22190.0 3.9646e-07
22210.0 4.0251e-07
22230.0 4.0784e-07
22250.0 4.1285e-07
22270.0 4.1747e-07
22290.0 4.2142e-07
22310.0 4.248e-07
22330.0 4.2779e-07
22350.0 4.3009e-07
22370.0 4.3172e-07
22390.0 4.3274e-07
22410.0 4.3306e-07
22430.0 4.3265e-07
22450.0 4.3153e-07
22470.0 4.296e-07
22490.0 4.269e-07
22510.0 4.2353e-07
22530.0 4.1921e-07
22550.0 4.1397e-07
22570.0 4.0815e-07
22590.0 4.0158e-07
22610.0 3.9403e-07
22630.0 3.8585e-07
