#lamb flux
1010.0 3.419e-08
1030.0 3.7815e-08
1050.0 4.1984e-08
1070.0 4.6676e-08
1090.0 5.2007e-08
1110.0 5.7474e-08
1130.0 6.2976e-08
1150.0 6.874e-08
1170.0 7.4686e-08
1190.0 8.0324e-08
1210.0 8.6038e-08
1230.0 9.1943e-08
1250.0 9.7727e-08
1270.0 1.0335e-07
1290.0 1.0928e-07
1310.0 1.1521e-07
1330.0 1.209e-07
1350.0 1.2666e-07
1370.0 1.326e-07
1390.0 1.3839e-07
1410.0 1.4401e-07
1430.0 1.4988e-07
1450.0 1.5576e-07
1470.0 1.6143e-07
1490.0 1.6717e-07
1510.0 1.7324e-07
1530.0 1.7898e-07
1550.0 1.8465e-07
1570.0 1.9052e-07
1590.0 1.9639e-07
1610.0 2.02e-07
1630.0 2.0779e-07
1650.0 2.1373e-07
1670.0 2.1949e-07
1690.0 2.2517e-07
1710.0 2.3107e-07
1730.0 2.3702e-07
1750.0 2.4261e-07
1770.0 2.4837e-07
1790.0 2.5426e-07
1810.0 2.5997e-07
1830.0 2.6558e-07
1850.0 2.7155e-07
1870.0 2.7737e-07
1890.0 2.8301e-07
1910.0 2.8877e-07
1930.0 2.9468e-07
1950.0 3.0034e-07
1970.0 3.0594e-07
1990.0 3.1176e-07
2010.0 3.175e-07
2030.0 3.2305e-07
2050.0 3.2878e-07
2070.0 3.3467e-07
2090.0 3.4024e-07
2110.0 3.458e-07
2130.0 3.5154e-07
2150.0 3.5719e-07
2170.0 3.626e-07
2190.0 3.6823e-07
2210.0 3.739e-07
2230.0 3.7935e-07
2250.0 3.8478e-07
2270.0 3.9047e-07
2290.0 3.9598e-07
2310.0 4.0128e-07
2330.0 4.068e-07
2350.0 4.1247e-07
2370.0 4.1811e-07
2390.0 4.2422e-07
2410.0 4.3145e-07
2430.0 4.3978e-07
2450.0 4.4973e-07
2470.0 4.6249e-07
2490.0 4.7856e-07
2510.0 4.9683e-07
2530.0 5.1882e-07
2550.0 5.4634e-07
2570.0 5.8059e-07
2590.0 6.2513e-07
2610.0 6.9182e-07
2630.0 7.8704e-07
2650.0 9.1154e-07
2670.0 1.0725e-06
2690.0 1.2703e-06
2710.0 1.4815e-06
2730.0 1.6901e-06
2750.0 1.8956e-06
2770.0 2.0744e-06
2790.0 2.2163e-06
2810.0 2.329e-06
2830.0 2.417e-06
2850.0 2.477e-06
2870.0 2.5211e-06
2890.0 2.5561e-06
2910.0 2.5839e-06
2930.0 2.6067e-06
2950.0 2.6284e-06
2970.0 2.6497e-06
2990.0 2.6696e-06
3010.0 7.5457e-05
3030.0 7.6022e-05
3050.0 7.6567e-05
3070.0 7.7034e-05
3090.0 7.7435e-05
3110.0 7.7684e-05
3130.0 7.7674e-05
3150.0 7.7329e-05
3170.0 7.6501e-05
3190.0 7.52e-05
3210.0 7.3551e-05
3230.0 7.1663e-05
3250.0 6.9799e-05
3270.0 6.8438e-05
3290.0 6.7682e-05
3310.0 6.7804e-05
3330.0 6.8785e-05
3350.0 7.0494e-05
3370.0 7.2934e-05
3390.0 7.6009e-05
3410.0 7.9356e-05
3430.0 8.3113e-05
3450.0 8.7437e-05
3470.0 9.2161e-05
3490.0 9.7166e-05
3510.0 0.00010282
3530.0 0.00010888
3550.0 0.00011502
3570.0 0.00012142
3590.0 0.00012837
3610.0 0.00013554
3630.0 0.00014269
3650.0 0.00015011
3670.0 0.00015688
3690.0 0.00016194
3710.0 0.00016484
3730.0 0.00016494
3750.0 0.00016264
3770.0 0.00016174
3790.0 0.00016078
3810.0 0.00015683
3830.0 0.00016168
3850.0 0.00018078
3870.0 0.00019126
3890.0 0.00019039
3910.0 0.0001912
3930.0 0.00019624
3950.0 0.00019933
3970.0 0.00018161
3990.0 0.00015627
4010.0 0.00046836
4030.0 0.00056749
4050.0 0.00065058
4070.0 0.00056449
4090.0 0.00051126
4110.0 0.00045114
4130.0 0.00041523
4150.0 0.00044167
4170.0 0.00043507
4190.0 0.00046375
4210.0 0.00045951
4230.0 0.00048604
4250.0 0.00057499
4270.0 0.00058175
4290.0 0.00053608
4310.0 0.00055702
4330.0 0.00059251
4350.0 0.00066435
4370.0 0.00075604
4390.0 0.00070946
4410.0 0.00052417
4430.0 0.00044374
4450.0 0.00040775
4470.0 0.00031296
4490.0 0.00033772
4510.0 0.00051014
4530.0 0.00058834
4550.0 0.00059345
4570.0 0.00066778
4590.0 0.00076066
4610.0 0.001026
4630.0 0.0013325
4650.0 0.0014451
4670.0 0.0013383
4690.0 0.001277
4710.0 0.0013498
4730.0 0.0012739
4750.0 0.00095238
4770.0 0.0006986
4790.0 0.00065236
4810.0 0.0006218
4830.0 0.00056925
4850.0 0.00062466
4870.0 0.00082523
4890.0 0.00097318
4910.0 0.00085385
4930.0 0.00075553
4950.0 0.00083006
4970.0 0.0010645
4990.0 0.0014427
5010.0 0.0016596
5030.0 0.0014634
5050.0 0.00099007
5070.0 0.00065249
5090.0 0.00052614
5110.0 0.00054108
5130.0 0.0006245
5150.0 0.00067659
5170.0 0.00066644
5190.0 0.00062275
5210.0 0.00065091
5230.0 0.00068425
5250.0 0.00073744
5270.0 0.00079564
5290.0 0.00088174
5310.0 0.0010263
5330.0 0.0011358
5350.0 0.0011285
5370.0 0.0011854
5390.0 0.0013603
5410.0 0.001359
5430.0 0.0012019
5450.0 0.0011042
5470.0 0.0011725
5490.0 0.0014325
5510.0 0.0017911
5530.0 0.0020543
5550.0 0.0019855
5570.0 0.001805
5590.0 0.0015695
5610.0 0.0014474
5630.0 0.0014035
5650.0 0.0013367
5670.0 0.0012667
5690.0 0.0011324
5710.0 0.0011041
5730.0 0.001017
5750.0 0.00071707
5770.0 0.00055944
5790.0 0.00063396
5810.0 0.00071585
5830.0 0.00087845
5850.0 0.0010457
5870.0 0.0011602
5890.0 0.0011799
5910.0 0.0011575
5930.0 0.0011018
5950.0 0.0011228
5970.0 0.0012798
5990.0 0.0012034
6010.0 0.0010088
6030.0 0.00085228
6050.0 0.00074223
6070.0 0.00073817
6090.0 0.00080043
6110.0 0.00089501
6130.0 0.00090872
6150.0 0.00078187
6170.0 0.0006878
6190.0 0.00077402
6210.0 0.0010232
6230.0 0.0013428
6250.0 0.0014544
6270.0 0.001271
6290.0 0.0010693
6310.0 0.0008348
6330.0 0.00063962
6350.0 0.00057052
6370.0 0.00059996
6390.0 0.0006936
6410.0 0.00085523
6430.0 0.00099868
6450.0 0.0011427
6470.0 0.0013085
6490.0 0.0015805
6510.0 0.0017673
6530.0 0.0017338
6550.0 0.0015678
6570.0 0.0013309
6590.0 0.0012001
6610.0 0.0010348
6630.0 0.00093751
6650.0 0.00088621
6670.0 0.00086094
6690.0 0.0007779
6710.0 0.00070713
6730.0 0.00050933
6750.0 0.00050495
6770.0 0.00054885
6790.0 0.00063086
6810.0 0.00057725
6830.0 0.0005944
6850.0 0.00055596
6870.0 0.00050787
6890.0 0.00048763
6910.0 0.00051963
6930.0 0.00048671
6950.0 0.00050074
6970.0 0.00052669
6990.0 0.00059784
7010.0 0.00060293
7030.0 0.00061251
7050.0 0.00058412
7070.0 0.00055657
7090.0 0.00055819
7110.0 0.00057434
7130.0 0.00061808
7150.0 0.00065645
7170.0 0.00072435
7190.0 0.00079626
7210.0 0.00078243
7230.0 0.00080435
7250.0 0.0008644
7270.0 0.00094199
7290.0 0.001118
7310.0 0.0012132
7330.0 0.0011726
7350.0 0.0010606
7370.0 0.0009228
7390.0 0.00089524
7410.0 0.00095136
7430.0 0.0010573
7450.0 0.0011516
7470.0 0.001141
7490.0 0.0010404
7510.0 0.0011785
7530.0 0.0011656
7550.0 0.0010477
7570.0 0.00081844
7590.0 0.00056264
7610.0 0.00048292
7630.0 0.00054869
7650.0 0.00064875
7670.0 0.00080742
7690.0 0.0008885
7710.0 0.00092592
7730.0 0.00097303
7750.0 0.0010923
7770.0 0.0011095
7790.0 0.0010191
7810.0 0.00092991
7830.0 0.00095894
7850.0 0.00093218
7870.0 0.00085465
7890.0 0.00071807
7910.0 0.0005837
7930.0 0.00055734
7950.0 0.00050776
7970.0 0.00047002
7990.0 0.00046734
8010.0 3.4612e-05
8030.0 3.4162e-05
8050.0 3.3702e-05
8070.0 3.4143e-05
8090.0 3.6686e-05
8110.0 3.6061e-05
8130.0 2.9746e-05
8150.0 2.8969e-05
8170.0 2.4952e-05
8190.0 2.3648e-05
8210.0 3.0709e-05
8230.0 3.4191e-05
8250.0 3.0816e-05
8270.0 2.6821e-05
8290.0 2.6145e-05
8310.0 2.0123e-05
8330.0 1.3563e-05
8350.0 9.6252e-06
8370.0 6.0643e-06
8390.0 1.1085e-05
8410.0 1.2918e-05
8430.0 1.5923e-05
8450.0 1.8698e-05
8470.0 2.324e-05
8490.0 2.3076e-05
8510.0 2.2699e-05
8530.0 2.369e-05
8550.0 3.1962e-05
8570.0 3.7838e-05
8590.0 4.0827e-05
8610.0 5.1574e-05
8630.0 6.2128e-05
8650.0 6.4993e-05
8670.0 6.9068e-05
8690.0 6.9454e-05
8710.0 6.2901e-05
8730.0 5.8508e-05
8750.0 5.1644e-05
8770.0 4.9002e-05
8790.0 4.8142e-05
8810.0 4.6131e-05
8830.0 3.6889e-05
8850.0 2.7005e-05
8870.0 2.0678e-05
8890.0 2.0216e-05
8910.0 2.3167e-05
8930.0 2.6351e-05
8950.0 2.6856e-05
8970.0 2.6983e-05
8990.0 2.4066e-05
9010.0 0.0002522
9030.0 0.00022852
9050.0 0.00022962
9070.0 0.00023144
9090.0 0.00023303
9110.0 0.00023499
9130.0 0.0002365
9150.0 0.00023768
9170.0 0.00023894
9190.0 0.00024028
9210.0 0.00024169
9230.0 0.00024318
9250.0 0.00024469
9270.0 0.00024626
9290.0 0.00024788
9310.0 0.0002495
9330.0 0.00025116
9350.0 0.00025289
9370.0 0.00025463
9390.0 0.00025639
9410.0 0.0002582
9430.0 0.00026006
9450.0 0.00026192
9470.0 0.00026381
9490.0 0.00026577
9510.0 0.00026774
9530.0 0.00026972
9550.0 0.00027177
9570.0 0.00027386
9590.0 0.00027596
9610.0 0.00027809
9630.0 0.00028027
9650.0 0.00028248
9670.0 0.00028469
9690.0 0.00028696
9710.0 0.00028926
9730.0 0.00029157
9750.0 0.00029391
9770.0 0.00029633
9790.0 0.00029874
9810.0 0.00030116
9830.0 0.00030363
9850.0 0.00030613
9870.0 0.00030863
9890.0 0.00031116
9910.0 0.00031375
9930.0 0.00031633
9950.0 0.00031893
9970.0 0.00032157
9990.0 0.00032424
10010.0 0.00028136
10030.0 0.00028367
10050.0 0.00028603
10070.0 0.00028846
10090.0 0.00029076
10110.0 0.00029311
10130.0 0.00029548
10150.0 0.00029783
10170.0 0.00030022
10190.0 0.00030265
10210.0 0.00030504
10230.0 0.00030743
10250.0 0.00030986
10270.0 0.00031229
10290.0 0.00031469
10310.0 0.00031711
10330.0 0.00031956
10350.0 0.00032197
10370.0 0.00032438
10390.0 0.00032681
10410.0 0.00032922
10430.0 0.00033159
10450.0 0.00033399
10470.0 0.00033639
10490.0 0.00033875
10510.0 0.00034109
10530.0 0.00034347
10550.0 0.00034582
10570.0 0.00034811
10590.0 0.00035042
10610.0 0.00035272
10630.0 0.00035497
10650.0 0.0003572
10670.0 0.00035945
10690.0 0.00036166
10710.0 0.00036382
10730.0 0.00036598
10750.0 0.00036815
10770.0 0.00037023
10790.0 0.0003723
10810.0 0.00037436
10830.0 0.00037636
10850.0 0.00037825
10870.0 0.00038009
10890.0 0.00038171
10910.0 0.00038295
10930.0 0.00038365
10950.0 0.00038349
10970.0 0.00038219
10990.0 0.00037964
11010.0 0.00037538
11030.0 0.00036941
11050.0 0.00036213
11070.0 0.00035342
11090.0 0.00034297
11110.0 0.00033215
11130.0 0.00032087
11150.0 0.00030872
11170.0 0.0002962
11190.0 0.00028405
11210.0 0.00027151
11230.0 0.00025865
11250.0 0.00024636
11270.0 0.00023456
11290.0 0.00022273
11310.0 0.00021153
11330.0 0.00020166
11350.0 0.00019234
11370.0 0.00018373
11390.0 0.00017628
11410.0 0.00016977
11430.0 0.00016371
11450.0 0.00015849
11470.0 0.00015398
11490.0 0.00014978
11510.0 0.00014573
11530.0 0.00014198
11550.0 0.00013825
11570.0 0.00013427
11590.0 0.00013015
11610.0 0.00012596
11630.0 0.00012139
11650.0 0.00011651
11670.0 0.00011169
11690.0 0.00010681
11710.0 0.00010177
11730.0 9.6887e-05
11750.0 9.2369e-05
11770.0 8.7937e-05
11790.0 8.3785e-05
11810.0 8.0129e-05
11830.0 7.686e-05
11850.0 7.3848e-05
11870.0 7.1329e-05
11890.0 6.9235e-05
11910.0 6.7395e-05
11930.0 6.5813e-05
11950.0 6.4496e-05
11970.0 6.332e-05
11990.0 6.2207e-05
12010.0 6.1178e-05
12030.0 6.0187e-05
12050.0 5.9162e-05
12070.0 5.8095e-05
12090.0 5.7068e-05
12110.0 5.6024e-05
12130.0 5.4978e-05
12150.0 5.4014e-05
12170.0 5.3173e-05
12190.0 5.2445e-05
12210.0 5.1937e-05
12230.0 5.1692e-05
12250.0 5.1732e-05
12270.0 5.2122e-05
12290.0 5.2859e-05
12310.0 5.3917e-05
12330.0 5.5397e-05
12350.0 5.7244e-05
12370.0 5.9346e-05
12390.0 6.1771e-05
12410.0 6.4612e-05
12430.0 6.7499e-05
12450.0 7.0489e-05
12470.0 7.3669e-05
12490.0 7.6862e-05
12510.0 7.9858e-05
12530.0 8.2838e-05
12550.0 8.5713e-05
12570.0 8.8251e-05
12590.0 9.0479e-05
12610.0 9.2465e-05
12630.0 9.4047e-05
12650.0 9.514e-05
12670.0 9.5858e-05
12690.0 9.6145e-05
12710.0 9.5987e-05
12730.0 9.543e-05
12750.0 9.4438e-05
12770.0 9.3075e-05
12790.0 9.1423e-05
12810.0 8.9451e-05
12830.0 8.7168e-05
12850.0 8.4782e-05
12870.0 8.2258e-05
12890.0 7.9527e-05
12910.0 7.6751e-05
12930.0 7.4015e-05
12950.0 7.116e-05
12970.0 6.8254e-05
12990.0 6.5505e-05
13010.0 6.279e-05
13030.0 6.0044e-05
13050.0 5.7407e-05
13070.0 5.4937e-05
13090.0 5.2458e-05
13110.0 5.006e-05
13130.0 4.7849e-05
13150.0 4.5755e-05
13170.0 4.3705e-05
13190.0 4.188e-05
13210.0 4.0275e-05
13230.0 3.8807e-05
13250.0 3.7543e-05
13270.0 3.6546e-05
13290.0 3.577e-05
13310.0 3.5236e-05
13330.0 3.4993e-05
13350.0 3.5021e-05
13370.0 3.5335e-05
13390.0 3.5952e-05
13410.0 3.6786e-05
13430.0 3.787e-05
13450.0 3.9209e-05
13470.0 4.0696e-05
13490.0 4.227e-05
13510.0 4.4046e-05
13530.0 4.5846e-05
13550.0 4.7569e-05
13570.0 4.9268e-05
13590.0 5.0923e-05
13610.0 5.2396e-05
13630.0 5.3682e-05
13650.0 5.4856e-05
13670.0 5.583e-05
13690.0 5.6584e-05
13710.0 5.7167e-05
13730.0 5.7583e-05
13750.0 5.7791e-05
13770.0 5.7839e-05
13790.0 5.7734e-05
13810.0 5.7478e-05
13830.0 5.7102e-05
13850.0 5.6592e-05
13870.0 5.5948e-05
13890.0 5.5213e-05
13910.0 5.4383e-05
13930.0 5.3423e-05
13950.0 5.2375e-05
13970.0 5.1304e-05
13990.0 5.0136e-05
14010.0 4.8896e-05
14030.0 4.7658e-05
14050.0 4.641e-05
14070.0 4.5093e-05
14090.0 4.3831e-05
14110.0 4.2645e-05
14130.0 4.1496e-05
14150.0 4.0414e-05
14170.0 3.949e-05
14190.0 3.8691e-05
14210.0 3.8014e-05
14230.0 3.7512e-05
14250.0 3.7188e-05
14270.0 3.7031e-05
14290.0 3.7065e-05
14310.0 3.7271e-05
14330.0 3.7642e-05
14350.0 3.8188e-05
14370.0 3.8868e-05
14390.0 3.9641e-05
14410.0 4.055e-05
14430.0 4.1549e-05
14450.0 4.257e-05
14470.0 4.3628e-05
14490.0 4.4754e-05
14510.0 4.5831e-05
14530.0 4.6853e-05
14550.0 4.7875e-05
14570.0 4.8856e-05
14590.0 4.9749e-05
14610.0 5.0613e-05
14630.0 5.1468e-05
14650.0 5.2264e-05
14670.0 5.3033e-05
14690.0 5.3834e-05
14710.0 5.4678e-05
14730.0 5.552e-05
14750.0 5.6454e-05
14770.0 5.7513e-05
14790.0 5.8662e-05
14810.0 5.9906e-05
14830.0 6.138e-05
14850.0 6.2982e-05
14870.0 6.4654e-05
14890.0 6.6457e-05
14910.0 6.8373e-05
14930.0 7.0214e-05
14950.0 7.1935e-05
14970.0 7.3564e-05
14990.0 7.4931e-05
15010.0 7.5975e-05
15030.0 7.6749e-05
15050.0 7.7261e-05
15070.0 7.7511e-05
15090.0 7.7599e-05
15110.0 7.7573e-05
15130.0 7.7476e-05
15150.0 7.7345e-05
15170.0 7.719e-05
15190.0 7.7024e-05
15210.0 7.686e-05
15230.0 7.6697e-05
15250.0 7.6527e-05
15270.0 7.636e-05
15290.0 7.6201e-05
15310.0 7.6038e-05
15330.0 7.5874e-05
15350.0 7.5716e-05
15370.0 7.5559e-05
15390.0 7.5394e-05
15410.0 7.5234e-05
15430.0 7.508e-05
15450.0 7.4922e-05
15470.0 7.4761e-05
15490.0 7.4609e-05
15510.0 7.4457e-05
15530.0 7.43e-05
15550.0 7.4146e-05
15570.0 7.3998e-05
15590.0 7.3843e-05
15610.0 7.3686e-05
15630.0 7.3538e-05
15650.0 7.3389e-05
15670.0 7.3235e-05
15690.0 7.3085e-05
15710.0 7.2941e-05
15730.0 7.279e-05
15750.0 7.2638e-05
15770.0 7.2493e-05
15790.0 7.2347e-05
15810.0 7.2194e-05
15830.0 7.2047e-05
15850.0 7.1904e-05
15870.0 7.1756e-05
15890.0 7.1608e-05
15910.0 7.1467e-05
15930.0 7.1322e-05
15950.0 7.1171e-05
15970.0 7.1027e-05
15990.0 7.0885e-05
16010.0 7.0737e-05
16030.0 7.0588e-05
16050.0 7.0449e-05
16070.0 7.0306e-05
16090.0 7.0158e-05
16110.0 7.0015e-05
16130.0 6.9876e-05
16150.0 6.9726e-05
16170.0 6.9579e-05
16190.0 6.9439e-05
16210.0 6.9295e-05
16230.0 6.9147e-05
16250.0 6.9005e-05
16270.0 6.8865e-05
16290.0 6.8717e-05
16310.0 6.8572e-05
16330.0 6.8431e-05
16350.0 6.8287e-05
16370.0 6.8135e-05
16390.0 6.7993e-05
16410.0 6.7851e-05
16430.0 6.7703e-05
16450.0 6.7557e-05
16470.0 6.7417e-05
16490.0 6.727e-05
16510.0 6.7121e-05
16530.0 6.6977e-05
16550.0 6.6833e-05
16570.0 6.6682e-05
16590.0 6.6533e-05
16610.0 6.6392e-05
16630.0 6.6244e-05
16650.0 6.6094e-05
16670.0 6.595e-05
16690.0 6.5805e-05
16710.0 6.5651e-05
16730.0 6.5502e-05
16750.0 6.5357e-05
16770.0 6.5206e-05
16790.0 6.5053e-05
16810.0 6.4907e-05
16830.0 6.4759e-05
16850.0 6.4606e-05
16870.0 6.4455e-05
16890.0 6.4308e-05
16910.0 6.4154e-05
16930.0 6.3997e-05
16950.0 6.3849e-05
16970.0 6.3698e-05
16990.0 6.3541e-05
17010.0 6.3389e-05
17030.0 6.324e-05
17050.0 6.3083e-05
17070.0 6.2926e-05
17090.0 6.2775e-05
17110.0 6.2621e-05
17130.0 6.2459e-05
17150.0 6.2304e-05
17170.0 6.2152e-05
17190.0 6.1993e-05
17210.0 6.1834e-05
17230.0 6.1681e-05
17250.0 6.1524e-05
17270.0 6.136e-05
17290.0 6.1202e-05
17310.0 6.1046e-05
17330.0 6.0884e-05
17350.0 6.072e-05
17370.0 6.0565e-05
17390.0 6.0405e-05
17410.0 6.024e-05
17430.0 6.0081e-05
17450.0 5.9923e-05
17470.0 5.9755e-05
17490.0 5.959e-05
17510.0 5.943e-05
17530.0 5.9267e-05
17550.0 5.9099e-05
17570.0 5.8937e-05
17590.0 5.8776e-05
17610.0 5.8607e-05
17630.0 5.8441e-05
17650.0 5.8279e-05
17670.0 5.8112e-05
17690.0 5.7938e-05
17710.0 5.7774e-05
17730.0 5.761e-05
17750.0 5.7439e-05
17770.0 5.727e-05
17790.0 5.7108e-05
17810.0 5.6937e-05
17830.0 5.6764e-05
17850.0 5.6596e-05
17870.0 5.6429e-05
17890.0 5.6254e-05
17910.0 5.6081e-05
17930.0 5.5916e-05
17950.0 5.5744e-05
17970.0 5.557e-05
17990.0 5.5402e-05
18010.0 5.5232e-05
18030.0 5.5053e-05
18050.0 5.488e-05
18070.0 5.4711e-05
18090.0 5.4536e-05
18110.0 5.4358e-05
18130.0 5.4189e-05
18150.0 5.4017e-05
18170.0 5.3839e-05
18190.0 5.3665e-05
18210.0 5.3494e-05
18230.0 5.3316e-05
18250.0 5.3135e-05
18270.0 5.2964e-05
18290.0 5.2789e-05
18310.0 5.261e-05
18330.0 5.2434e-05
18350.0 5.2263e-05
18370.0 5.2083e-05
18390.0 5.1904e-05
18410.0 5.173e-05
18430.0 5.1553e-05
18450.0 5.1369e-05
18470.0 5.1193e-05
18490.0 5.1019e-05
18510.0 5.0839e-05
18530.0 5.0659e-05
18550.0 5.0486e-05
18570.0 5.0307e-05
18590.0 5.0123e-05
18610.0 4.9946e-05
18630.0 4.977e-05
18650.0 4.9588e-05
18670.0 4.9405e-05
18690.0 4.9231e-05
18710.0 4.9052e-05
18730.0 4.8869e-05
18750.0 4.8692e-05
18770.0 4.8516e-05
18790.0 4.833e-05
18810.0 4.8148e-05
18830.0 4.7972e-05
18850.0 4.7792e-05
18870.0 4.7608e-05
18890.0 4.7431e-05
18910.0 4.7254e-05
18930.0 4.707e-05
18950.0 4.6889e-05
18970.0 4.6712e-05
18990.0 4.6531e-05
19010.0 4.6343e-05
19030.0 4.6166e-05
19050.0 4.5988e-05
19070.0 4.5805e-05
19090.0 4.5624e-05
19110.0 4.5449e-05
19130.0 4.5265e-05
19150.0 4.5081e-05
19170.0 4.4903e-05
19190.0 4.4724e-05
19210.0 4.4539e-05
19230.0 4.4357e-05
19250.0 4.4182e-05
19270.0 4.4e-05
19290.0 4.3817e-05
19310.0 4.364e-05
19330.0 4.3461e-05
19350.0 4.3274e-05
19370.0 4.3094e-05
19390.0 4.2917e-05
19410.0 4.2735e-05
19430.0 4.2551e-05
19450.0 4.2375e-05
19470.0 4.2196e-05
19490.0 4.2013e-05
19510.0 4.1833e-05
19530.0 4.1657e-05
19550.0 4.1473e-05
19570.0 4.1289e-05
19590.0 4.1113e-05
19610.0 4.0934e-05
19630.0 4.0751e-05
19650.0 4.0573e-05
19670.0 4.0398e-05
19690.0 4.0215e-05
19710.0 4.0033e-05
19730.0 3.9857e-05
19750.0 3.9679e-05
19770.0 3.9493e-05
19790.0 3.9316e-05
19810.0 3.914e-05
19830.0 3.8958e-05
19850.0 3.8775e-05
19870.0 3.8596e-05
19890.0 3.8403e-05
19910.0 3.8191e-05
19930.0 3.7965e-05
19950.0 3.7705e-05
19970.0 3.7386e-05
19990.0 3.7002e-05
20010.0 3.2921e-05
20030.0 3.2444e-05
20050.0 3.1887e-05
20070.0 3.1282e-05
20090.0 3.0632e-05
20110.0 2.9897e-05
20130.0 2.9153e-05
20150.0 2.8415e-05
20170.0 2.7651e-05
20190.0 2.6875e-05
20210.0 2.6142e-05
20230.0 2.5428e-05
20250.0 2.4712e-05
20270.0 2.4047e-05
20290.0 2.344e-05
20310.0 2.2864e-05
20330.0 2.2325e-05
20350.0 2.1877e-05
20370.0 2.148e-05
20390.0 2.1132e-05
20410.0 2.0851e-05
20430.0 2.0634e-05
20450.0 2.0462e-05
20470.0 2.0347e-05
20490.0 2.0286e-05
20510.0 2.0268e-05
20530.0 2.0293e-05
20550.0 2.0355e-05
20570.0 2.0447e-05
20590.0 2.057e-05
20610.0 2.0719e-05
20630.0 2.0884e-05
20650.0 2.1068e-05
20670.0 2.1279e-05
20690.0 2.1493e-05
20710.0 2.1715e-05
20730.0 2.1954e-05
20750.0 2.2204e-05
20770.0 2.245e-05
20790.0 2.2708e-05
20810.0 2.2981e-05
20830.0 2.3252e-05
20850.0 2.3525e-05
20870.0 2.3817e-05
20890.0 2.4115e-05
20910.0 2.4403e-05
20930.0 2.4701e-05
20950.0 2.5009e-05
20970.0 2.5311e-05
20990.0 2.5608e-05
21010.0 2.592e-05
21030.0 2.6226e-05
21050.0 2.6517e-05
21070.0 2.6808e-05
21090.0 2.71e-05
21110.0 2.7366e-05
21130.0 2.7616e-05
21150.0 2.7859e-05
21170.0 2.8078e-05
21190.0 2.8267e-05
21210.0 2.8437e-05
21230.0 2.8578e-05
21250.0 2.8678e-05
21270.0 2.8742e-05
21290.0 2.8766e-05
21310.0 2.8743e-05
21330.0 2.8676e-05
21350.0 2.8556e-05
21370.0 2.8381e-05
21390.0 2.8159e-05
21410.0 2.7887e-05
21430.0 2.7542e-05
21450.0 2.7156e-05
21470.0 2.6734e-05
21490.0 2.6258e-05
21510.0 2.5735e-05
21530.0 2.5204e-05
21550.0 2.4648e-05
21570.0 2.4054e-05
21590.0 2.3471e-05
21610.0 2.2907e-05
21630.0 2.2342e-05
21650.0 2.1791e-05
21670.0 2.1313e-05
21690.0 2.0872e-05
21710.0 2.0475e-05
21730.0 2.015e-05
21750.0 1.9899e-05
21770.0 1.9708e-05
21790.0 1.9598e-05
21810.0 1.9567e-05
21830.0 1.9611e-05
21850.0 1.9733e-05
21870.0 1.9924e-05
21890.0 2.0171e-05
21910.0 2.0488e-05
21930.0 2.0859e-05
21950.0 2.1262e-05
21970.0 2.1708e-05
21990.0 2.2208e-05
22010.0 2.2708e-05
22030.0 2.3216e-05
22050.0 2.375e-05
22070.0 2.4286e-05
22090.0 2.4794e-05
22110.0 2.5306e-05
22130.0 2.5817e-05
22150.0 2.6294e-05
22170.0 2.6744e-05
22190.0 2.7191e-05
22210.0 2.7606e-05
22230.0 2.7971e-05
22250.0 2.8315e-05
22270.0 2.8631e-05
22290.0 2.8902e-05
22310.0 2.9135e-05
22330.0 2.9339e-05
22350.0 2.9497e-05
22370.0 2.9609e-05
22390.0 2.9679e-05
22410.0 2.9701e-05
22430.0 2.9672e-05
22450.0 2.9596e-05
22470.0 2.9464e-05
22490.0 2.9278e-05
22510.0 2.9047e-05
22530.0 2.8751e-05
22550.0 2.8391e-05
22570.0 2.7992e-05
22590.0 2.7542e-05
22610.0 2.7024e-05
22630.0 2.6463e-05
22650.0 2.5884e-05
22670.0 2.5243e-05
