#lamb flux
1010.0 5.9836e-08
1030.0 6.6269e-08
1050.0 7.3667e-08
1070.0 8.1995e-08
1090.0 9.1455e-08
1110.0 1.0116e-07
1130.0 1.1092e-07
1150.0 1.2115e-07
1170.0 1.317e-07
1190.0 1.4171e-07
1210.0 1.5185e-07
1230.0 1.6233e-07
1250.0 1.7259e-07
1270.0 1.8257e-07
1290.0 1.931e-07
1310.0 2.0363e-07
1330.0 2.1372e-07
1350.0 2.2393e-07
1370.0 2.3447e-07
1390.0 2.4474e-07
1410.0 2.5471e-07
1430.0 2.6513e-07
1450.0 2.7555e-07
1470.0 2.8562e-07
1490.0 2.9579e-07
1510.0 3.0653e-07
1530.0 3.1671e-07
1550.0 3.2675e-07
1570.0 3.3713e-07
1590.0 3.4751e-07
1610.0 3.5743e-07
1630.0 3.6764e-07
1650.0 3.7812e-07
1670.0 3.8824e-07
1690.0 3.9823e-07
1710.0 4.0858e-07
1730.0 4.1898e-07
1750.0 4.2873e-07
1770.0 4.3875e-07
1790.0 4.4895e-07
1810.0 4.5878e-07
1830.0 4.6841e-07
1850.0 4.786e-07
1870.0 4.8847e-07
1890.0 4.9794e-07
1910.0 5.0754e-07
1930.0 5.1732e-07
1950.0 5.2655e-07
1970.0 5.3556e-07
1990.0 5.4485e-07
2010.0 5.5384e-07
2030.0 5.6236e-07
2050.0 5.7103e-07
2070.0 5.7978e-07
2090.0 5.8779e-07
2110.0 5.9558e-07
2130.0 6.0346e-07
2150.0 6.1092e-07
2170.0 6.1773e-07
2190.0 6.2463e-07
2210.0 6.3131e-07
2230.0 6.3732e-07
2250.0 6.4298e-07
2270.0 6.4872e-07
2290.0 6.5383e-07
2310.0 6.5822e-07
2330.0 6.6257e-07
2350.0 6.6672e-07
2370.0 6.7033e-07
2390.0 6.7409e-07
2410.0 6.7881e-07
2430.0 6.8422e-07
2450.0 6.9093e-07
2470.0 7.0036e-07
2490.0 7.1308e-07
2510.0 7.2785e-07
2530.0 7.4699e-07
2550.0 7.7346e-07
2570.0 8.0943e-07
2590.0 8.5958e-07
2610.0 9.3877e-07
2630.0 1.0526e-06
2650.0 1.1982e-06
2670.0 1.381e-06
2690.0 1.597e-06
2710.0 1.816e-06
2730.0 2.0199e-06
2750.0 2.2089e-06
2770.0 2.3595e-06
2790.0 2.4647e-06
2810.0 2.5354e-06
2830.0 2.5785e-06
2850.0 2.5934e-06
2870.0 2.5927e-06
2890.0 2.5835e-06
2910.0 2.5682e-06
2930.0 2.549e-06
2950.0 2.5294e-06
2970.0 2.51e-06
2990.0 2.4903e-06
3010.0 7.4785e-05
3030.0 7.4245e-05
3050.0 7.3715e-05
3070.0 7.3148e-05
3090.0 7.2552e-05
3110.0 7.1852e-05
3130.0 7.0965e-05
3150.0 6.983e-05
3170.0 6.8324e-05
3190.0 6.6478e-05
3210.0 6.4409e-05
3230.0 6.2206e-05
3250.0 6.0022e-05
3270.0 5.8398e-05
3290.0 5.722e-05
3310.0 5.698e-05
3330.0 5.7414e-05
3350.0 5.8481e-05
3370.0 6.0181e-05
3390.0 6.2437e-05
3410.0 6.4959e-05
3430.0 6.7848e-05
3450.0 7.1219e-05
3470.0 7.4942e-05
3490.0 7.8941e-05
3510.0 8.3497e-05
3530.0 8.8472e-05
3550.0 9.379e-05
3570.0 9.9659e-05
3590.0 0.00010628
3610.0 0.00011365
3630.0 0.00012112
3650.0 0.00012906
3670.0 0.00013629
3690.0 0.00014174
3710.0 0.00014456
3730.0 0.00014318
3750.0 0.00013754
3770.0 0.00013774
3790.0 0.00013166
3810.0 0.00010227
3830.0 9.4326e-05
3850.0 0.00012585
3870.0 0.00011014
3890.0 9.0164e-05
3910.0 0.00010544
3930.0 0.0001388
3950.0 0.00015841
3970.0 0.0001839
3990.0 0.00014739
4010.0 0.00022816
4030.0 0.00020958
4050.0 0.00019723
4070.0 0.00022441
4090.0 0.00021547
4110.0 0.00021418
4130.0 0.00026403
4150.0 0.00033592
4170.0 0.00027538
4190.0 0.00024611
4210.0 0.0002716
4230.0 0.00033603
4250.0 0.00039137
4270.0 0.00042229
4290.0 0.00038752
4310.0 0.0003609
4330.0 0.00036626
4350.0 0.0004655
4370.0 0.00055951
4390.0 0.00045622
4410.0 0.00027831
4430.0 0.00020558
4450.0 0.00018546
4470.0 0.00014021
4490.0 0.00021212
4510.0 0.00038051
4530.0 0.00045627
4550.0 0.00045321
4570.0 0.00043039
4590.0 0.00047689
4610.0 0.00086183
4630.0 0.0011769
4650.0 0.0011157
4670.0 0.00099411
4690.0 0.0010458
4710.0 0.0011041
4730.0 0.00089238
4750.0 0.00057573
4770.0 0.00041644
4790.0 0.00045618
4810.0 0.00046586
4830.0 0.00045793
4850.0 0.00050426
4870.0 0.00066677
4890.0 0.0007753
4910.0 0.00060375
4930.0 0.00057167
4950.0 0.00065567
4970.0 0.00088467
4990.0 0.0011868
5010.0 0.0013464
5030.0 0.0010685
5050.0 0.00064396
5070.0 0.00045726
5090.0 0.00036369
5110.0 0.00034874
5130.0 0.00040499
5150.0 0.00039414
5170.0 0.00037555
5190.0 0.0003436
5210.0 0.00036488
5230.0 0.00044014
5250.0 0.00050746
5270.0 0.00048707
5290.0 0.00053726
5310.0 0.00069681
5330.0 0.00072988
5350.0 0.00071997
5370.0 0.000812
5390.0 0.00099144
5410.0 0.00085834
5430.0 0.00065867
5450.0 0.00065374
5470.0 0.00076457
5490.0 0.00097299
5510.0 0.001206
5530.0 0.0013885
5550.0 0.0012614
5570.0 0.0011264
5590.0 0.00093626
5610.0 0.00093958
5630.0 0.0010292
5650.0 0.00097445
5670.0 0.00090836
5690.0 0.00075004
5710.0 0.00075975
5730.0 0.00073513
5750.0 0.00040626
5770.0 0.0003075
5790.0 0.00037621
5810.0 0.00041726
5830.0 0.00060775
5850.0 0.00076712
5870.0 0.00080859
5890.0 0.00076433
5910.0 0.00073715
5930.0 0.0007207
5950.0 0.00074912
5970.0 0.000909
5990.0 0.00076114
6010.0 0.00059065
6030.0 0.0004803
6050.0 0.0004251
6070.0 0.00049641
6090.0 0.00056606
6110.0 0.00058359
6130.0 0.0005334
6150.0 0.00043142
6170.0 0.00037504
6190.0 0.00046716
6210.0 0.00069461
6230.0 0.00096769
6250.0 0.0010167
6270.0 0.00079613
6290.0 0.00067546
6310.0 0.00051926
6330.0 0.00038497
6350.0 0.00037154
6370.0 0.00039189
6390.0 0.00047378
6410.0 0.00059683
6430.0 0.00071525
6450.0 0.00087623
6470.0 0.00095248
6490.0 0.0011555
6510.0 0.0012971
6530.0 0.0012871
6550.0 0.0011844
6570.0 0.0010037
6590.0 0.00097273
6610.0 0.00081577
6630.0 0.00082548
6650.0 0.00078663
6670.0 0.00071855
6690.0 0.00059734
6710.0 0.0005687
6730.0 0.00032503
6750.0 0.00037131
6770.0 0.00050857
6790.0 0.00065688
6810.0 0.00050803
6830.0 0.0005203
6850.0 0.00045511
6870.0 0.00043271
6890.0 0.00038201
6910.0 0.0004292
6930.0 0.00040161
6950.0 0.00046586
6970.0 0.000474
6990.0 0.00052603
7010.0 0.00052843
7030.0 0.00056579
7050.0 0.00049678
7070.0 0.00043435
7090.0 0.00044535
7110.0 0.00045162
7130.0 0.00050437
7150.0 0.00056881
7170.0 0.00062947
7190.0 0.00065451
7210.0 0.00058616
7230.0 0.00059336
7250.0 0.00065089
7270.0 0.00072234
7290.0 0.00085891
7310.0 0.00087738
7330.0 0.00079682
7350.0 0.00071
7370.0 0.00054933
7390.0 0.00057285
7410.0 0.00069083
7430.0 0.0007788
7450.0 0.00083816
7470.0 0.00080309
7490.0 0.00072683
7510.0 0.0010685
7530.0 0.00096001
7550.0 0.0008701
7570.0 0.00059981
7590.0 0.0002968
7610.0 0.0002249
7630.0 0.00030707
7650.0 0.00039627
7670.0 0.0005901
7690.0 0.00066585
7710.0 0.00061911
7730.0 0.00061164
7750.0 0.00076231
7770.0 0.00077499
7790.0 0.00071915
7810.0 0.00061315
7830.0 0.00064473
7850.0 0.00067755
7870.0 0.00065474
7890.0 0.00052695
7910.0 0.000369
7930.0 0.00036327
7950.0 0.0003264
7970.0 0.00028417
7990.0 0.00026425
8010.0 0.00024553
8030.0 0.00023516
8050.0 0.0002467
8070.0 0.00025951
8090.0 0.00029255
8110.0 0.000274
8130.0 0.00019465
8150.0 0.00018989
8170.0 0.00013919
8190.0 0.00011556
8210.0 0.00017539
8230.0 0.00019994
8250.0 0.00012833
8270.0 0.00010979
8290.0 0.00012718
8310.0 9.8653e-05
8330.0 6.1626e-05
8350.0 4.8004e-05
8370.0 2.7093e-05
8390.0 5.405e-05
8410.0 6.5718e-05
8430.0 8.1641e-05
8450.0 9.1285e-05
8470.0 0.00012809
8490.0 0.00011172
8510.0 9.6876e-05
8530.0 7.2471e-05
8550.0 0.00014578
8570.0 0.00020945
8590.0 0.00017774
8610.0 0.00024266
8630.0 0.0002702
8650.0 0.00020174
8670.0 0.00024393
8690.0 0.00031385
8710.0 0.00027994
8730.0 0.0002887
8750.0 0.00024183
8770.0 0.00022249
8790.0 0.00023676
8810.0 0.00024402
8830.0 0.00016126
8850.0 0.00010078
8870.0 7.8921e-05
8890.0 0.00011791
8910.0 0.00016091
8930.0 0.00019763
8950.0 0.00022424
8970.0 0.00022034
8990.0 0.00018342
9010.0 0.0001391
9030.0 0.00012048
9050.0 0.00012407
9070.0 0.00012742
9090.0 0.00013005
9110.0 0.00013304
9130.0 0.00013526
9150.0 0.00013691
9170.0 0.00013867
9190.0 0.00014055
9210.0 0.00014252
9230.0 0.00014461
9250.0 0.00014675
9270.0 0.00014895
9290.0 0.00015123
9310.0 0.00015352
9330.0 0.00015587
9350.0 0.00015828
9370.0 0.00016073
9390.0 0.00016321
9410.0 0.00016576
9430.0 0.00016837
9450.0 0.00017099
9470.0 0.00017366
9490.0 0.00017641
9510.0 0.00017918
9530.0 0.00018198
9550.0 0.00018487
9570.0 0.0001878
9590.0 0.00019075
9610.0 0.00019375
9630.0 0.00019682
9650.0 0.00019993
9670.0 0.00020305
9690.0 0.00020624
9710.0 0.00020948
9730.0 0.00021273
9750.0 0.00021604
9770.0 0.00021942
9790.0 0.00022281
9810.0 0.00022622
9830.0 0.0002297
9850.0 0.00023321
9870.0 0.00023673
9890.0 0.0002403
9910.0 0.00024392
9930.0 0.00024755
9950.0 0.00025119
9970.0 0.0002549
9990.0 0.00025863
10010.0 0.00023915
10030.0 0.00024251
10050.0 0.00024589
10070.0 0.00024925
10090.0 0.00025265
10110.0 0.0002561
10130.0 0.00025955
10150.0 0.00026298
10170.0 0.00026643
10190.0 0.00026989
10210.0 0.00027334
10230.0 0.00027677
10250.0 0.00028022
10270.0 0.00028367
10290.0 0.00028708
10310.0 0.0002905
10330.0 0.00029393
10350.0 0.00029731
10370.0 0.00030068
10390.0 0.00030404
10410.0 0.00030738
10430.0 0.00031067
10450.0 0.00031395
10470.0 0.00031721
10490.0 0.00032041
10510.0 0.00032359
10530.0 0.00032675
10550.0 0.00032986
10570.0 0.00033291
10590.0 0.00033593
10610.0 0.00033891
10630.0 0.00034183
10650.0 0.00034469
10670.0 0.00034753
10690.0 0.00035029
10710.0 0.00035299
10730.0 0.00035564
10750.0 0.00035825
10770.0 0.00036076
10790.0 0.00036322
10810.0 0.00036562
10830.0 0.00036792
10850.0 0.0003701
10870.0 0.00037216
10890.0 0.00037398
10910.0 0.00037542
10930.0 0.00037631
10950.0 0.00037633
10970.0 0.00037524
10990.0 0.00037294
11010.0 0.00037846
11030.0 0.00037276
11050.0 0.00036571
11070.0 0.00035718
11090.0 0.00034683
11110.0 0.00033609
11130.0 0.00032486
11150.0 0.00031275
11170.0 0.0003003
11190.0 0.00028828
11210.0 0.00027594
11230.0 0.00026339
11250.0 0.0002515
11270.0 0.00024019
11290.0 0.00022896
11310.0 0.00021842
11330.0 0.00020918
11350.0 0.0002005
11370.0 0.00019249
11390.0 0.00018552
11410.0 0.00017937
11430.0 0.00017358
11450.0 0.00016846
11470.0 0.0001639
11490.0 0.00015952
11510.0 0.00015518
11530.0 0.00015103
11550.0 0.00014683
11570.0 0.00014233
11590.0 0.00013768
11610.0 0.00013296
11630.0 0.00012788
11650.0 0.00012251
11670.0 0.00011727
11690.0 0.00011201
11710.0 0.00010664
11730.0 0.00010147
11750.0 9.6704e-05
11770.0 9.2047e-05
11790.0 8.7686e-05
11810.0 8.3823e-05
11830.0 8.0341e-05
11850.0 7.7105e-05
11870.0 7.4339e-05
11890.0 7.1973e-05
11910.0 6.9832e-05
11930.0 6.7918e-05
11950.0 6.6243e-05
11970.0 6.4681e-05
11990.0 6.315e-05
12010.0 6.1684e-05
12030.0 6.024e-05
12050.0 5.8741e-05
12070.0 5.718e-05
12090.0 5.5663e-05
12110.0 5.4116e-05
12130.0 5.2546e-05
12150.0 5.1051e-05
12170.0 4.9673e-05
12190.0 4.8364e-05
12210.0 4.7247e-05
12230.0 4.6372e-05
12250.0 4.5734e-05
12270.0 4.5377e-05
12290.0 4.5324e-05
12310.0 4.555e-05
12330.0 4.6101e-05
12350.0 4.6951e-05
12370.0 4.8017e-05
12390.0 4.933e-05
12410.0 5.0946e-05
12430.0 5.261e-05
12450.0 5.4348e-05
12470.0 5.621e-05
12490.0 5.8074e-05
12510.0 5.9791e-05
12530.0 6.1483e-05
12550.0 6.3087e-05
12570.0 6.4451e-05
12590.0 6.5596e-05
12610.0 6.6572e-05
12630.0 6.7278e-05
12650.0 6.7664e-05
12670.0 6.7813e-05
12690.0 6.7697e-05
12710.0 6.7308e-05
12730.0 6.6684e-05
12750.0 6.5808e-05
12770.0 6.4722e-05
12790.0 6.3474e-05
12810.0 6.205e-05
12830.0 6.0457e-05
12850.0 5.8812e-05
12870.0 5.7096e-05
12890.0 5.5267e-05
12910.0 5.3417e-05
12930.0 5.1591e-05
12950.0 4.9695e-05
12970.0 4.7765e-05
12990.0 4.592e-05
13010.0 4.4088e-05
13030.0 4.2226e-05
13050.0 4.0418e-05
13070.0 3.8702e-05
13090.0 3.6968e-05
13110.0 3.5273e-05
13130.0 3.3689e-05
13150.0 3.2173e-05
13170.0 3.0677e-05
13190.0 2.9325e-05
13210.0 2.8116e-05
13230.0 2.6996e-05
13250.0 2.6009e-05
13270.0 2.5199e-05
13290.0 2.4533e-05
13310.0 2.402e-05
13330.0 2.3694e-05
13350.0 2.354e-05
13370.0 2.356e-05
13390.0 2.3763e-05
13410.0 2.4102e-05
13430.0 2.4589e-05
13450.0 2.5226e-05
13470.0 2.5954e-05
13490.0 2.6739e-05
13510.0 2.7645e-05
13530.0 2.8575e-05
13550.0 2.9471e-05
13570.0 3.0366e-05
13590.0 3.1249e-05
13610.0 3.2039e-05
13630.0 3.2731e-05
13650.0 3.3371e-05
13670.0 3.3903e-05
13690.0 3.431e-05
13710.0 3.4623e-05
13730.0 3.4842e-05
13750.0 3.4936e-05
13770.0 3.4935e-05
13790.0 3.4845e-05
13810.0 3.4667e-05
13830.0 3.4418e-05
13850.0 3.4093e-05
13870.0 3.3697e-05
13890.0 3.3252e-05
13910.0 3.276e-05
13930.0 3.2205e-05
13950.0 3.161e-05
13970.0 3.101e-05
13990.0 3.037e-05
14010.0 2.9701e-05
14030.0 2.9042e-05
14050.0 2.8388e-05
14070.0 2.7707e-05
14090.0 2.7061e-05
14110.0 2.6459e-05
14130.0 2.5881e-05
14150.0 2.534e-05
14170.0 2.4879e-05
14190.0 2.4481e-05
14210.0 2.4143e-05
14230.0 2.3891e-05
14250.0 2.3724e-05
14270.0 2.3638e-05
14290.0 2.3644e-05
14310.0 2.3734e-05
14330.0 2.3905e-05
14350.0 2.4164e-05
14370.0 2.4493e-05
14390.0 2.4872e-05
14410.0 2.5327e-05
14430.0 2.5836e-05
14450.0 2.6366e-05
14470.0 2.693e-05
14490.0 2.7547e-05
14510.0 2.8158e-05
14530.0 2.876e-05
14550.0 2.9389e-05
14570.0 3.0023e-05
14590.0 3.0634e-05
14610.0 3.126e-05
14630.0 3.1919e-05
14650.0 3.257e-05
14670.0 3.3231e-05
14690.0 3.3944e-05
14710.0 3.471e-05
14730.0 3.5479e-05
14750.0 3.632e-05
14770.0 3.7248e-05
14790.0 3.8222e-05
14810.0 3.9239e-05
14830.0 4.0392e-05
14850.0 4.1594e-05
14870.0 4.2803e-05
14890.0 4.4062e-05
14910.0 4.5356e-05
14930.0 4.657e-05
14950.0 4.7684e-05
14970.0 4.8721e-05
14990.0 4.9584e-05
15010.0 5.0248e-05
15030.0 5.0746e-05
15050.0 5.1088e-05
15070.0 5.1278e-05
15090.0 5.1376e-05
15110.0 5.1408e-05
15130.0 5.14e-05
15150.0 5.1375e-05
15170.0 5.1336e-05
15190.0 5.1291e-05
15210.0 5.1249e-05
15230.0 5.1208e-05
15250.0 5.1163e-05
15270.0 5.112e-05
15290.0 5.1084e-05
15310.0 5.1045e-05
15330.0 5.1005e-05
15350.0 5.097e-05
15370.0 5.0936e-05
15390.0 5.0896e-05
15410.0 5.0861e-05
15430.0 5.0829e-05
15450.0 5.0795e-05
15470.0 5.0758e-05
15490.0 5.0728e-05
15510.0 5.0697e-05
15530.0 5.0663e-05
15550.0 5.0631e-05
15570.0 5.0603e-05
15590.0 5.0569e-05
15610.0 5.0534e-05
15630.0 5.0505e-05
15650.0 5.0475e-05
15670.0 5.0441e-05
15690.0 5.0409e-05
15710.0 5.0381e-05
15730.0 5.0348e-05
15750.0 5.0313e-05
15770.0 5.0283e-05
15790.0 5.0251e-05
15810.0 5.0213e-05
15830.0 5.0179e-05
15850.0 5.0148e-05
15870.0 5.0112e-05
15890.0 5.0075e-05
15910.0 5.0043e-05
15930.0 5.0006e-05
15950.0 4.9965e-05
15970.0 4.9927e-05
15990.0 4.989e-05
16010.0 4.9848e-05
16030.0 4.9804e-05
16050.0 4.9766e-05
16070.0 4.9724e-05
16090.0 4.9678e-05
16110.0 4.9634e-05
16130.0 4.9593e-05
16150.0 4.9541e-05
16170.0 4.9491e-05
16190.0 4.9444e-05
16210.0 4.9394e-05
16230.0 4.9339e-05
16250.0 4.9288e-05
16270.0 4.9237e-05
16290.0 4.9179e-05
16310.0 4.9121e-05
16330.0 4.9066e-05
16350.0 4.9006e-05
16370.0 4.8939e-05
16390.0 4.8879e-05
16410.0 4.8817e-05
16430.0 4.8749e-05
16450.0 4.8681e-05
16470.0 4.8618e-05
16490.0 4.8546e-05
16510.0 4.8471e-05
16530.0 4.84e-05
16550.0 4.8327e-05
16570.0 4.8247e-05
16590.0 4.8167e-05
16610.0 4.8092e-05
16630.0 4.801e-05
16650.0 4.7925e-05
16670.0 4.7843e-05
16690.0 4.7759e-05
16710.0 4.7666e-05
16730.0 4.7576e-05
16750.0 4.7488e-05
16770.0 4.7393e-05
16790.0 4.7295e-05
16810.0 4.7202e-05
16830.0 4.7106e-05
16850.0 4.7003e-05
16870.0 4.6901e-05
16890.0 4.6802e-05
16910.0 4.6694e-05
16930.0 4.6583e-05
16950.0 4.6478e-05
16970.0 4.6369e-05
16990.0 4.6254e-05
17010.0 4.6141e-05
17030.0 4.603e-05
17050.0 4.591e-05
17070.0 4.5789e-05
17090.0 4.5672e-05
17110.0 4.5551e-05
17130.0 4.5421e-05
17150.0 4.5297e-05
17170.0 4.5173e-05
17190.0 4.5043e-05
17210.0 4.4911e-05
17230.0 4.4783e-05
17250.0 4.465e-05
17270.0 4.451e-05
17290.0 4.4374e-05
17310.0 4.4239e-05
17330.0 4.4096e-05
17350.0 4.3952e-05
17370.0 4.3814e-05
17390.0 4.367e-05
17410.0 4.3521e-05
17430.0 4.3375e-05
17450.0 4.3231e-05
17470.0 4.3075e-05
17490.0 4.2922e-05
17510.0 4.2772e-05
17530.0 4.2618e-05
17550.0 4.2458e-05
17570.0 4.2303e-05
17590.0 4.2149e-05
17610.0 4.1986e-05
17630.0 4.1824e-05
17650.0 4.1665e-05
17670.0 4.1502e-05
17690.0 4.133e-05
17710.0 4.1168e-05
17730.0 4.1003e-05
17750.0 4.0833e-05
17770.0 4.0663e-05
17790.0 4.0498e-05
17810.0 4.0324e-05
17830.0 4.0149e-05
17850.0 3.9977e-05
17870.0 3.9805e-05
17890.0 3.9625e-05
17910.0 3.9447e-05
17930.0 3.9275e-05
17950.0 3.9096e-05
17970.0 3.8915e-05
17990.0 3.8738e-05
18010.0 3.8559e-05
18030.0 3.8372e-05
18050.0 3.819e-05
18070.0 3.801e-05
18090.0 3.7825e-05
18110.0 3.7637e-05
18130.0 3.7456e-05
18150.0 3.7272e-05
18170.0 3.7082e-05
18190.0 3.6896e-05
18210.0 3.6712e-05
18230.0 3.6521e-05
18250.0 3.6328e-05
18270.0 3.6142e-05
18290.0 3.5954e-05
18310.0 3.5761e-05
18330.0 3.5571e-05
18350.0 3.5384e-05
18370.0 3.519e-05
18390.0 3.4996e-05
18410.0 3.4807e-05
18430.0 3.4616e-05
18450.0 3.4418e-05
18470.0 3.4226e-05
18490.0 3.4036e-05
18510.0 3.3841e-05
18530.0 3.3646e-05
18550.0 3.3457e-05
18570.0 3.3262e-05
18590.0 3.3064e-05
18610.0 3.2871e-05
18630.0 3.2679e-05
18650.0 3.2482e-05
18670.0 3.2285e-05
18690.0 3.2095e-05
18710.0 3.1901e-05
18730.0 3.1704e-05
18750.0 3.1511e-05
18770.0 3.132e-05
18790.0 3.112e-05
18810.0 3.0925e-05
18830.0 3.0734e-05
18850.0 3.054e-05
18870.0 3.0343e-05
18890.0 3.0151e-05
18910.0 2.9961e-05
18930.0 2.9764e-05
18950.0 2.957e-05
18970.0 2.938e-05
18990.0 2.9187e-05
19010.0 2.8989e-05
19030.0 2.88e-05
19050.0 2.861e-05
19070.0 2.8416e-05
19090.0 2.8224e-05
19110.0 2.8038e-05
19130.0 2.7845e-05
19150.0 2.7652e-05
19170.0 2.7464e-05
19190.0 2.7276e-05
19210.0 2.7083e-05
19230.0 2.6893e-05
19250.0 2.6709e-05
19270.0 2.652e-05
19290.0 2.633e-05
19310.0 2.6146e-05
19330.0 2.5961e-05
19350.0 2.577e-05
19370.0 2.5585e-05
19390.0 2.5402e-05
19410.0 2.5216e-05
19430.0 2.5029e-05
19450.0 2.4849e-05
19470.0 2.4667e-05
19490.0 2.4482e-05
19510.0 2.4301e-05
19530.0 2.4122e-05
19550.0 2.3939e-05
19570.0 2.3755e-05
19590.0 2.3578e-05
19610.0 2.34e-05
19630.0 2.3219e-05
19650.0 2.3042e-05
19670.0 2.2868e-05
19690.0 2.2689e-05
19710.0 2.2511e-05
19730.0 2.2338e-05
19750.0 2.2163e-05
19770.0 2.1985e-05
19790.0 2.1812e-05
19810.0 2.1642e-05
19830.0 2.1467e-05
19850.0 2.1293e-05
19870.0 2.1123e-05
19890.0 2.0945e-05
19910.0 2.0757e-05
19930.0 2.0562e-05
19950.0 2.0352e-05
19970.0 2.0111e-05
19990.0 1.9837e-05
20010.0 1.9269e-05
20030.0 1.893e-05
20050.0 1.8548e-05
20070.0 1.8146e-05
20090.0 1.7724e-05
20110.0 1.7259e-05
20130.0 1.6796e-05
20150.0 1.6345e-05
20170.0 1.5884e-05
20190.0 1.5423e-05
20210.0 1.499e-05
20230.0 1.4572e-05
20250.0 1.4155e-05
20270.0 1.3769e-05
20290.0 1.3416e-05
20310.0 1.308e-05
20330.0 1.2764e-05
20350.0 1.2498e-05
20370.0 1.2258e-05
20390.0 1.2044e-05
20410.0 1.1867e-05
20430.0 1.1724e-05
20450.0 1.1605e-05
20470.0 1.1519e-05
20490.0 1.1462e-05
20510.0 1.1431e-05
20530.0 1.1426e-05
20550.0 1.1444e-05
20570.0 1.1481e-05
20590.0 1.1538e-05
20610.0 1.1613e-05
20630.0 1.1699e-05
20650.0 1.1798e-05
20670.0 1.1916e-05
20690.0 1.2036e-05
20710.0 1.2161e-05
20730.0 1.2297e-05
20750.0 1.2439e-05
20770.0 1.2577e-05
20790.0 1.272e-05
20810.0 1.2871e-05
20830.0 1.3018e-05
20850.0 1.3163e-05
20870.0 1.3317e-05
20890.0 1.3472e-05
20910.0 1.3618e-05
20930.0 1.3768e-05
20950.0 1.3922e-05
20970.0 1.4071e-05
20990.0 1.4216e-05
21010.0 1.4369e-05
21030.0 1.4518e-05
21050.0 1.4659e-05
21070.0 1.48e-05
21090.0 1.4943e-05
21110.0 1.5072e-05
21130.0 1.5195e-05
21150.0 1.5317e-05
21170.0 1.5428e-05
21190.0 1.5526e-05
21210.0 1.5618e-05
21230.0 1.57e-05
21250.0 1.5764e-05
21270.0 1.5813e-05
21290.0 1.5848e-05
21310.0 1.5862e-05
21330.0 1.5855e-05
21350.0 1.5827e-05
21370.0 1.5775e-05
21390.0 1.5698e-05
21410.0 1.5597e-05
21430.0 1.5463e-05
21450.0 1.5305e-05
21470.0 1.5125e-05
21490.0 1.4915e-05
21510.0 1.4678e-05
21530.0 1.443e-05
21550.0 1.4163e-05
21570.0 1.3871e-05
21590.0 1.3576e-05
21610.0 1.3283e-05
21630.0 1.2981e-05
21650.0 1.2676e-05
21670.0 1.2401e-05
21690.0 1.2137e-05
21710.0 1.1885e-05
21730.0 1.1664e-05
21750.0 1.1475e-05
21770.0 1.1307e-05
21790.0 1.1175e-05
21810.0 1.108e-05
21830.0 1.102e-05
21850.0 1.0994e-05
21870.0 1.1004e-05
21890.0 1.1045e-05
21910.0 1.1119e-05
21930.0 1.1223e-05
21950.0 1.1349e-05
21970.0 1.15e-05
21990.0 1.1682e-05
22010.0 1.1873e-05
22030.0 1.2076e-05
22050.0 1.2299e-05
22070.0 1.2531e-05
22090.0 1.2759e-05
22110.0 1.2996e-05
22130.0 1.3241e-05
22150.0 1.3477e-05
22170.0 1.3704e-05
22190.0 1.3937e-05
22210.0 1.4159e-05
22230.0 1.4359e-05
22250.0 1.4551e-05
22270.0 1.4732e-05
22290.0 1.4889e-05
22310.0 1.5026e-05
22330.0 1.515e-05
22350.0 1.5248e-05
22370.0 1.532e-05
22390.0 1.5369e-05
22410.0 1.5393e-05
22430.0 1.5387e-05
22450.0 1.5355e-05
22470.0 1.5294e-05
22490.0 1.5204e-05
22510.0 1.509e-05
22530.0 1.4942e-05
22550.0 1.4761e-05
22570.0 1.456e-05
22590.0 1.4331e-05
22610.0 1.4069e-05
22630.0 1.3784e-05
22650.0 1.3488e-05
