#lamb flux
1010.0 1.9132e-08
1030.0 2.116e-08
1050.0 2.3493e-08
1070.0 2.6119e-08
1090.0 2.9102e-08
1110.0 3.2161e-08
1130.0 3.524e-08
1150.0 3.8465e-08
1170.0 4.1792e-08
1190.0 4.4947e-08
1210.0 4.8145e-08
1230.0 5.1449e-08
1250.0 5.4686e-08
1270.0 5.783e-08
1290.0 6.1151e-08
1310.0 6.4471e-08
1330.0 6.7654e-08
1350.0 7.0874e-08
1370.0 7.4197e-08
1390.0 7.7438e-08
1410.0 8.0582e-08
1430.0 8.387e-08
1450.0 8.7157e-08
1470.0 9.0334e-08
1490.0 9.3545e-08
1510.0 9.6938e-08
1530.0 1.0015e-07
1550.0 1.0333e-07
1570.0 1.0661e-07
1590.0 1.0989e-07
1610.0 1.1303e-07
1630.0 1.1627e-07
1650.0 1.196e-07
1670.0 1.2282e-07
1690.0 1.26e-07
1710.0 1.293e-07
1730.0 1.3263e-07
1750.0 1.3576e-07
1770.0 1.3898e-07
1790.0 1.4228e-07
1810.0 1.4547e-07
1830.0 1.4861e-07
1850.0 1.5195e-07
1870.0 1.5521e-07
1890.0 1.5836e-07
1910.0 1.6159e-07
1930.0 1.649e-07
1950.0 1.6806e-07
1970.0 1.7119e-07
1990.0 1.7445e-07
2010.0 1.7767e-07
2030.0 1.8077e-07
2050.0 1.8398e-07
2070.0 1.8727e-07
2090.0 1.9039e-07
2110.0 1.935e-07
2130.0 1.9672e-07
2150.0 1.9987e-07
2170.0 2.029e-07
2190.0 2.0605e-07
2210.0 2.0922e-07
2230.0 2.1227e-07
2250.0 2.1531e-07
2270.0 2.1849e-07
2290.0 2.2158e-07
2310.0 2.2455e-07
2330.0 2.2763e-07
2350.0 2.3081e-07
2370.0 2.3396e-07
2390.0 2.3738e-07
2410.0 2.4143e-07
2430.0 2.4609e-07
2450.0 2.5166e-07
2470.0 2.5879e-07
2490.0 2.6779e-07
2510.0 2.7801e-07
2530.0 2.9032e-07
2550.0 3.0572e-07
2570.0 3.2488e-07
2590.0 3.4981e-07
2610.0 3.8713e-07
2630.0 4.4041e-07
2650.0 5.1007e-07
2670.0 6.0015e-07
2690.0 7.1084e-07
2710.0 8.2899e-07
2730.0 9.4574e-07
2750.0 1.0607e-06
2770.0 1.1608e-06
2790.0 1.2402e-06
2810.0 1.3032e-06
2830.0 1.3525e-06
2850.0 1.3861e-06
2870.0 1.4108e-06
2890.0 1.4303e-06
2910.0 1.4459e-06
2930.0 1.4586e-06
2950.0 1.4708e-06
2970.0 1.4827e-06
2990.0 1.4938e-06
3010.0 4.2224e-05
3030.0 4.254e-05
3050.0 4.2845e-05
3070.0 4.3106e-05
3090.0 4.3331e-05
3110.0 4.347e-05
3130.0 4.3465e-05
3150.0 4.3271e-05
3170.0 4.2808e-05
3190.0 4.208e-05
3210.0 4.1157e-05
3230.0 4.0101e-05
3250.0 3.9058e-05
3270.0 3.8296e-05
3290.0 3.7873e-05
3310.0 3.7941e-05
3330.0 3.8491e-05
3350.0 3.9447e-05
3370.0 4.0812e-05
3390.0 4.2533e-05
3410.0 4.4405e-05
3430.0 4.6508e-05
3450.0 4.8928e-05
3470.0 5.1571e-05
3490.0 5.4372e-05
3510.0 5.7538e-05
3530.0 6.0928e-05
3550.0 6.436e-05
3570.0 6.7941e-05
3590.0 7.1835e-05
3610.0 7.5847e-05
3630.0 7.9847e-05
3650.0 8.3997e-05
3670.0 8.7786e-05
3690.0 9.0618e-05
3710.0 9.2242e-05
3730.0 9.2295e-05
3750.0 9.1011e-05
3770.0 9.0506e-05
3790.0 8.9968e-05
3810.0 8.7757e-05
3830.0 9.0474e-05
3850.0 0.00010116
3870.0 0.00010703
3890.0 0.00010654
3910.0 0.00010699
3930.0 0.00010981
3950.0 0.00011154
3970.0 0.00010163
3990.0 8.7444e-05
4010.0 0.00026208
4030.0 0.00031755
4050.0 0.00036405
4070.0 0.00031587
4090.0 0.00028609
4110.0 0.00025244
4130.0 0.00023235
4150.0 0.00024715
4170.0 0.00024345
4190.0 0.0002595
4210.0 0.00025713
4230.0 0.00027197
4250.0 0.00032175
4270.0 0.00032553
4290.0 0.00029998
4310.0 0.0003117
4330.0 0.00033155
4350.0 0.00037175
4370.0 0.00042306
4390.0 0.000397
4410.0 0.00029331
4430.0 0.00024831
4450.0 0.00022817
4470.0 0.00017512
4490.0 0.00018898
4510.0 0.00028546
4530.0 0.00032922
4550.0 0.00033208
4570.0 0.00037367
4590.0 0.00042565
4610.0 0.0005741
4630.0 0.00074563
4650.0 0.00080863
4670.0 0.00074887
4690.0 0.00071455
4710.0 0.00075533
4730.0 0.00071282
4750.0 0.00053292
4770.0 0.00039092
4790.0 0.00036504
4810.0 0.00034794
4830.0 0.00031854
4850.0 0.00034954
4870.0 0.00046178
4890.0 0.00054457
4910.0 0.00047779
4930.0 0.00042278
4950.0 0.00046448
4970.0 0.00059567
4990.0 0.00080727
5010.0 0.00092866
5030.0 0.00081886
5050.0 0.00055402
5070.0 0.00036512
5090.0 0.00029441
5110.0 0.00030278
5130.0 0.00034945
5150.0 0.0003786
5170.0 0.00037292
5190.0 0.00034847
5210.0 0.00036423
5230.0 0.00038289
5250.0 0.00041264
5270.0 0.00044521
5290.0 0.00049338
5310.0 0.00057428
5330.0 0.00063551
5350.0 0.00063146
5370.0 0.00066328
5390.0 0.00076112
5410.0 0.00076044
5430.0 0.00067249
5450.0 0.00061786
5470.0 0.00065606
5490.0 0.00080151
5510.0 0.0010022
5530.0 0.0011494
5550.0 0.0011109
5570.0 0.0010099
5590.0 0.00087813
5610.0 0.00080983
5630.0 0.00078528
5650.0 0.0007479
5670.0 0.00070869
5690.0 0.00063356
5710.0 0.00061773
5730.0 0.00056902
5750.0 0.00040119
5770.0 0.00031299
5790.0 0.00035469
5810.0 0.0004005
5830.0 0.00049147
5850.0 0.00058504
5870.0 0.0006491
5890.0 0.0006601
5910.0 0.0006476
5930.0 0.00061644
5950.0 0.00062814
5970.0 0.000716
5990.0 0.00067323
6010.0 0.00056436
6030.0 0.0004768
6050.0 0.00041524
6070.0 0.00041297
6090.0 0.00044779
6110.0 0.00050071
6130.0 0.00050838
6150.0 0.00043741
6170.0 0.00038479
6190.0 0.00043302
6210.0 0.00057245
6230.0 0.00075122
6250.0 0.00081367
6270.0 0.00071104
6290.0 0.00059823
6310.0 0.00046703
6330.0 0.00035783
6350.0 0.00031918
6370.0 0.00033565
6390.0 0.00038803
6410.0 0.00047846
6430.0 0.00055871
6450.0 0.0006393
6470.0 0.00073201
6490.0 0.00088423
6510.0 0.00098868
6530.0 0.00096996
6550.0 0.0008771
6570.0 0.00074458
6590.0 0.00067141
6610.0 0.00057893
6630.0 0.00052448
6650.0 0.00049579
6670.0 0.00048165
6690.0 0.00043519
6710.0 0.0003956
6730.0 0.00028494
6750.0 0.00028249
6770.0 0.00030705
6790.0 0.00035293
6810.0 0.00032294
6830.0 0.00033254
6850.0 0.00031103
6870.0 0.00028412
6890.0 0.0002728
6910.0 0.00029071
6930.0 0.00027229
6950.0 0.00028014
6970.0 0.00029465
6990.0 0.00033446
7010.0 0.00033731
7030.0 0.00034266
7050.0 0.00032678
7070.0 0.00031137
7090.0 0.00031228
7110.0 0.00032131
7130.0 0.00034578
7150.0 0.00036725
7170.0 0.00040523
7190.0 0.00044546
7210.0 0.00043773
7230.0 0.00044999
7250.0 0.00048359
7270.0 0.00052699
7290.0 0.00062548
7310.0 0.00067871
7330.0 0.00065603
7350.0 0.00059334
7370.0 0.00051626
7390.0 0.00050084
7410.0 0.00053223
7430.0 0.00059151
7450.0 0.00064426
7470.0 0.00063835
7490.0 0.00058205
7510.0 0.00065932
7530.0 0.0006521
7550.0 0.00058612
7570.0 0.00045787
7590.0 0.00031477
7610.0 0.00027017
7630.0 0.00030697
7650.0 0.00036295
7670.0 0.00045172
7690.0 0.00049708
7710.0 0.00051802
7730.0 0.00054438
7750.0 0.00061113
7770.0 0.00062074
7790.0 0.00057018
7810.0 0.00052026
7830.0 0.0005365
7850.0 0.00052153
7870.0 0.00047816
7890.0 0.00040175
7910.0 0.00032657
7930.0 0.00031182
7950.0 0.00028408
7970.0 0.00026297
7990.0 0.00026147
8010.0 1.9365e-05
8030.0 1.9114e-05
8050.0 1.8856e-05
8070.0 1.9103e-05
8090.0 2.0526e-05
8110.0 2.0176e-05
8130.0 1.6643e-05
8150.0 1.6208e-05
8170.0 1.3961e-05
8190.0 1.3231e-05
8210.0 1.7182e-05
8230.0 1.913e-05
8250.0 1.7242e-05
8270.0 1.5007e-05
8290.0 1.4629e-05
8310.0 1.1259e-05
8330.0 7.5885e-06
8350.0 5.3855e-06
8370.0 3.3931e-06
8390.0 6.2025e-06
8410.0 7.2277e-06
8430.0 8.9093e-06
8450.0 1.0462e-05
8470.0 1.3004e-05
8490.0 1.2912e-05
8510.0 1.2701e-05
8530.0 1.3255e-05
8550.0 1.7884e-05
8570.0 2.1172e-05
8590.0 2.2845e-05
8610.0 2.8858e-05
8630.0 3.4763e-05
8650.0 3.6366e-05
8670.0 3.8647e-05
8690.0 3.8863e-05
8710.0 3.5196e-05
8730.0 3.2738e-05
8750.0 2.8898e-05
8770.0 2.742e-05
8790.0 2.6938e-05
8810.0 2.5813e-05
8830.0 2.0642e-05
8850.0 1.5111e-05
8870.0 1.157e-05
8890.0 1.1312e-05
8910.0 1.2964e-05
8930.0 1.4746e-05
8950.0 1.5028e-05
8970.0 1.5099e-05
8990.0 1.3467e-05
9010.0 0.00014112
9030.0 0.00012787
9050.0 0.00012849
9070.0 0.00012951
9090.0 0.00013039
9110.0 0.00013149
9130.0 0.00013234
9150.0 0.000133
9170.0 0.0001337
9190.0 0.00013445
9210.0 0.00013524
9230.0 0.00013608
9250.0 0.00013692
9270.0 0.0001378
9290.0 0.00013871
9310.0 0.00013962
9330.0 0.00014055
9350.0 0.00014151
9370.0 0.00014248
9390.0 0.00014347
9410.0 0.00014448
9430.0 0.00014552
9450.0 0.00014656
9470.0 0.00014762
9490.0 0.00014872
9510.0 0.00014982
9530.0 0.00015093
9550.0 0.00015208
9570.0 0.00015325
9590.0 0.00015442
9610.0 0.00015561
9630.0 0.00015683
9650.0 0.00015807
9670.0 0.0001593
9690.0 0.00016057
9710.0 0.00016186
9730.0 0.00016316
9750.0 0.00016447
9770.0 0.00016582
9790.0 0.00016716
9810.0 0.00016852
9830.0 0.0001699
9850.0 0.0001713
9870.0 0.0001727
9890.0 0.00017412
9910.0 0.00017557
9930.0 0.00017701
9950.0 0.00017846
9970.0 0.00017994
9990.0 0.00018144
10010.0 0.00015744
10030.0 0.00015873
10050.0 0.00016005
10070.0 0.00016142
10090.0 0.0001627
10110.0 0.00016402
10130.0 0.00016534
10150.0 0.00016666
10170.0 0.00016799
10190.0 0.00016935
10210.0 0.00017069
10230.0 0.00017203
10250.0 0.00017339
10270.0 0.00017475
10290.0 0.00017609
10310.0 0.00017745
10330.0 0.00017882
10350.0 0.00018017
10370.0 0.00018151
10390.0 0.00018287
10410.0 0.00018422
10430.0 0.00018555
10450.0 0.00018689
10470.0 0.00018823
10490.0 0.00018956
10510.0 0.00019087
10530.0 0.0001922
10550.0 0.00019351
10570.0 0.00019479
10590.0 0.00019609
10610.0 0.00019737
10630.0 0.00019863
10650.0 0.00019988
10670.0 0.00020114
10690.0 0.00020238
10710.0 0.00020358
10730.0 0.0002048
10750.0 0.00020601
10770.0 0.00020717
10790.0 0.00020833
10810.0 0.00020948
10830.0 0.0002106
10850.0 0.00021166
10870.0 0.00021269
10890.0 0.00021359
10910.0 0.00021429
10930.0 0.00021468
10950.0 0.00021459
10970.0 0.00021386
10990.0 0.00021244
11010.0 0.00021005
11030.0 0.00020671
11050.0 0.00020264
11070.0 0.00019777
11090.0 0.00019192
11110.0 0.00018586
11130.0 0.00017955
11150.0 0.00017275
11170.0 0.00016575
11190.0 0.00015895
11210.0 0.00015193
11230.0 0.00014473
11250.0 0.00013786
11270.0 0.00013125
11290.0 0.00012463
11310.0 0.00011837
11330.0 0.00011285
11350.0 0.00010763
11370.0 0.00010281
11390.0 9.8643e-05
11410.0 9.4996e-05
11430.0 9.1608e-05
11450.0 8.8687e-05
11470.0 8.6162e-05
11490.0 8.3813e-05
11510.0 8.1549e-05
11530.0 7.9449e-05
11550.0 7.7362e-05
11570.0 7.5136e-05
11590.0 7.283e-05
11610.0 7.0483e-05
11630.0 6.7929e-05
11650.0 6.5195e-05
11670.0 6.25e-05
11690.0 5.9767e-05
11710.0 5.6947e-05
11730.0 5.4215e-05
11750.0 5.1687e-05
11770.0 4.9207e-05
11790.0 4.6884e-05
11810.0 4.4838e-05
11830.0 4.3009e-05
11850.0 4.1323e-05
11870.0 3.9914e-05
11890.0 3.8742e-05
11910.0 3.7712e-05
11930.0 3.6827e-05
11950.0 3.609e-05
11970.0 3.5432e-05
11990.0 3.481e-05
12010.0 3.4234e-05
12030.0 3.3679e-05
12050.0 3.3105e-05
12070.0 3.2509e-05
12090.0 3.1934e-05
12110.0 3.135e-05
12130.0 3.0764e-05
12150.0 3.0225e-05
12170.0 2.9754e-05
12190.0 2.9347e-05
12210.0 2.9063e-05
12230.0 2.8925e-05
12250.0 2.8948e-05
12270.0 2.9166e-05
12290.0 2.9579e-05
12310.0 3.017e-05
12330.0 3.0998e-05
12350.0 3.2032e-05
12370.0 3.3209e-05
12390.0 3.4565e-05
12410.0 3.6155e-05
12430.0 3.7771e-05
12450.0 3.9444e-05
12470.0 4.1223e-05
12490.0 4.301e-05
12510.0 4.4686e-05
12530.0 4.6354e-05
12550.0 4.7963e-05
12570.0 4.9383e-05
12590.0 5.063e-05
12610.0 5.1741e-05
12630.0 5.2626e-05
12650.0 5.3238e-05
12670.0 5.3639e-05
12690.0 5.38e-05
12710.0 5.3712e-05
12730.0 5.34e-05
12750.0 5.2845e-05
12770.0 5.2082e-05
12790.0 5.1158e-05
12810.0 5.0054e-05
12830.0 4.8777e-05
12850.0 4.7442e-05
12870.0 4.6029e-05
12890.0 4.4501e-05
12910.0 4.2948e-05
12930.0 4.1417e-05
12950.0 3.9819e-05
12970.0 3.8193e-05
12990.0 3.6655e-05
13010.0 3.5135e-05
13030.0 3.3599e-05
13050.0 3.2124e-05
13070.0 3.0741e-05
13090.0 2.9354e-05
13110.0 2.8012e-05
13130.0 2.6775e-05
13150.0 2.5603e-05
13170.0 2.4456e-05
13190.0 2.3435e-05
13210.0 2.2537e-05
13230.0 2.1715e-05
13250.0 2.1008e-05
13270.0 2.045e-05
13290.0 2.0016e-05
13310.0 1.9717e-05
13330.0 1.9581e-05
13350.0 1.9597e-05
13370.0 1.9773e-05
13390.0 2.0118e-05
13410.0 2.0585e-05
13430.0 2.1191e-05
13450.0 2.194e-05
13470.0 2.2772e-05
13490.0 2.3653e-05
13510.0 2.4647e-05
13530.0 2.5654e-05
13550.0 2.6618e-05
13570.0 2.7569e-05
13590.0 2.8495e-05
13610.0 2.932e-05
13630.0 3.0039e-05
13650.0 3.0696e-05
13670.0 3.1241e-05
13690.0 3.1663e-05
13710.0 3.1989e-05
13730.0 3.2222e-05
13750.0 3.2338e-05
13770.0 3.2365e-05
13790.0 3.2306e-05
13810.0 3.2163e-05
13830.0 3.1953e-05
13850.0 3.1667e-05
13870.0 3.1307e-05
13890.0 3.0895e-05
13910.0 3.0431e-05
13930.0 2.9894e-05
13950.0 2.9308e-05
13970.0 2.8708e-05
13990.0 2.8055e-05
14010.0 2.7361e-05
14030.0 2.6668e-05
14050.0 2.597e-05
14070.0 2.5233e-05
14090.0 2.4527e-05
14110.0 2.3863e-05
14130.0 2.322e-05
14150.0 2.2614e-05
14170.0 2.2098e-05
14190.0 2.1651e-05
14210.0 2.1272e-05
14230.0 2.0991e-05
14250.0 2.081e-05
14270.0 2.0722e-05
14290.0 2.074e-05
14310.0 2.0856e-05
14330.0 2.1063e-05
14350.0 2.1369e-05
14370.0 2.175e-05
14390.0 2.2182e-05
14410.0 2.2691e-05
14430.0 2.325e-05
14450.0 2.3821e-05
14470.0 2.4413e-05
14490.0 2.5043e-05
14510.0 2.5646e-05
14530.0 2.6218e-05
14550.0 2.679e-05
14570.0 2.7339e-05
14590.0 2.7838e-05
14610.0 2.8322e-05
14630.0 2.88e-05
14650.0 2.9246e-05
14670.0 2.9676e-05
14690.0 3.0124e-05
14710.0 3.0596e-05
14730.0 3.1068e-05
14750.0 3.159e-05
14770.0 3.2183e-05
14790.0 3.2825e-05
14810.0 3.3522e-05
14830.0 3.4346e-05
14850.0 3.5243e-05
14870.0 3.6178e-05
14890.0 3.7188e-05
14910.0 3.8259e-05
14930.0 3.929e-05
14950.0 4.0253e-05
14970.0 4.1165e-05
14990.0 4.1929e-05
15010.0 4.2514e-05
15030.0 4.2947e-05
15050.0 4.3233e-05
15070.0 4.3373e-05
15090.0 4.3422e-05
15110.0 4.3408e-05
15130.0 4.3353e-05
15150.0 4.328e-05
15170.0 4.3193e-05
15190.0 4.31e-05
15210.0 4.3009e-05
15230.0 4.2917e-05
15250.0 4.2823e-05
15270.0 4.2729e-05
15290.0 4.264e-05
15310.0 4.2549e-05
15330.0 4.2457e-05
15350.0 4.2368e-05
15370.0 4.2281e-05
15390.0 4.2188e-05
15410.0 4.2099e-05
15430.0 4.2013e-05
15450.0 4.1924e-05
15470.0 4.1835e-05
15490.0 4.1749e-05
15510.0 4.1664e-05
15530.0 4.1576e-05
15550.0 4.149e-05
15570.0 4.1407e-05
15590.0 4.132e-05
15610.0 4.1233e-05
15630.0 4.115e-05
15650.0 4.1066e-05
15670.0 4.098e-05
15690.0 4.0896e-05
15710.0 4.0816e-05
15730.0 4.0731e-05
15750.0 4.0647e-05
15770.0 4.0565e-05
15790.0 4.0484e-05
15810.0 4.0398e-05
15830.0 4.0315e-05
15850.0 4.0236e-05
15870.0 4.0153e-05
15890.0 4.007e-05
15910.0 3.9991e-05
15930.0 3.991e-05
15950.0 3.9826e-05
15970.0 3.9745e-05
15990.0 3.9665e-05
16010.0 3.9583e-05
16030.0 3.9499e-05
16050.0 3.9421e-05
16070.0 3.9341e-05
16090.0 3.9259e-05
16110.0 3.9179e-05
16130.0 3.9101e-05
16150.0 3.9017e-05
16170.0 3.8935e-05
16190.0 3.8856e-05
16210.0 3.8776e-05
16230.0 3.8693e-05
16250.0 3.8613e-05
16270.0 3.8535e-05
16290.0 3.8452e-05
16310.0 3.8371e-05
16330.0 3.8292e-05
16350.0 3.8211e-05
16370.0 3.8126e-05
16390.0 3.8047e-05
16410.0 3.7968e-05
16430.0 3.7885e-05
16450.0 3.7803e-05
16470.0 3.7725e-05
16490.0 3.7643e-05
16510.0 3.7559e-05
16530.0 3.7479e-05
16550.0 3.7398e-05
16570.0 3.7314e-05
16590.0 3.723e-05
16610.0 3.7151e-05
16630.0 3.7069e-05
16650.0 3.6985e-05
16670.0 3.6904e-05
16690.0 3.6823e-05
16710.0 3.6736e-05
16730.0 3.6653e-05
16750.0 3.6572e-05
16770.0 3.6488e-05
16790.0 3.6402e-05
16810.0 3.632e-05
16830.0 3.6238e-05
16850.0 3.6152e-05
16870.0 3.6067e-05
16890.0 3.5985e-05
16910.0 3.5899e-05
16930.0 3.5811e-05
16950.0 3.5728e-05
16970.0 3.5644e-05
16990.0 3.5556e-05
17010.0 3.5471e-05
17030.0 3.5388e-05
17050.0 3.53e-05
17070.0 3.5212e-05
17090.0 3.5127e-05
17110.0 3.5041e-05
17130.0 3.495e-05
17150.0 3.4864e-05
17170.0 3.4778e-05
17190.0 3.469e-05
17210.0 3.4601e-05
17230.0 3.4515e-05
17250.0 3.4427e-05
17270.0 3.4335e-05
17290.0 3.4247e-05
17310.0 3.416e-05
17330.0 3.4069e-05
17350.0 3.3977e-05
17370.0 3.3891e-05
17390.0 3.3801e-05
17410.0 3.3709e-05
17430.0 3.362e-05
17450.0 3.3531e-05
17470.0 3.3437e-05
17490.0 3.3345e-05
17510.0 3.3256e-05
17530.0 3.3164e-05
17550.0 3.307e-05
17570.0 3.2979e-05
17590.0 3.289e-05
17610.0 3.2795e-05
17630.0 3.2702e-05
17650.0 3.2611e-05
17670.0 3.2518e-05
17690.0 3.242e-05
17710.0 3.2329e-05
17730.0 3.2237e-05
17750.0 3.2141e-05
17770.0 3.2047e-05
17790.0 3.1956e-05
17810.0 3.186e-05
17830.0 3.1763e-05
17850.0 3.167e-05
17870.0 3.1576e-05
17890.0 3.1478e-05
17910.0 3.1382e-05
17930.0 3.1289e-05
17950.0 3.1193e-05
17970.0 3.1095e-05
17990.0 3.1001e-05
18010.0 3.0906e-05
18030.0 3.0806e-05
18050.0 3.071e-05
18070.0 3.0615e-05
18090.0 3.0517e-05
18110.0 3.0418e-05
18130.0 3.0323e-05
18150.0 3.0227e-05
18170.0 3.0127e-05
18190.0 3.0029e-05
18210.0 2.9934e-05
18230.0 2.9834e-05
18250.0 2.9733e-05
18270.0 2.9637e-05
18290.0 2.954e-05
18310.0 2.9439e-05
18330.0 2.9341e-05
18350.0 2.9245e-05
18370.0 2.9144e-05
18390.0 2.9044e-05
18410.0 2.8947e-05
18430.0 2.8848e-05
18450.0 2.8745e-05
18470.0 2.8646e-05
18490.0 2.8549e-05
18510.0 2.8448e-05
18530.0 2.8348e-05
18550.0 2.8251e-05
18570.0 2.8151e-05
18590.0 2.8048e-05
18610.0 2.7948e-05
18630.0 2.785e-05
18650.0 2.7748e-05
18670.0 2.7646e-05
18690.0 2.7549e-05
18710.0 2.7448e-05
18730.0 2.7346e-05
18750.0 2.7247e-05
18770.0 2.7149e-05
18790.0 2.7044e-05
18810.0 2.6943e-05
18830.0 2.6844e-05
18850.0 2.6743e-05
18870.0 2.664e-05
18890.0 2.6541e-05
18910.0 2.6442e-05
18930.0 2.6339e-05
18950.0 2.6238e-05
18970.0 2.6139e-05
18990.0 2.6037e-05
19010.0 2.5932e-05
19030.0 2.5834e-05
19050.0 2.5734e-05
19070.0 2.5631e-05
19090.0 2.553e-05
19110.0 2.5432e-05
19130.0 2.5329e-05
19150.0 2.5226e-05
19170.0 2.5127e-05
19190.0 2.5026e-05
19210.0 2.4923e-05
19230.0 2.4821e-05
19250.0 2.4723e-05
19270.0 2.4621e-05
19290.0 2.4519e-05
19310.0 2.442e-05
19330.0 2.432e-05
19350.0 2.4215e-05
19370.0 2.4114e-05
19390.0 2.4015e-05
19410.0 2.3913e-05
19430.0 2.381e-05
19450.0 2.3712e-05
19470.0 2.3612e-05
19490.0 2.3509e-05
19510.0 2.3409e-05
19530.0 2.331e-05
19550.0 2.3207e-05
19570.0 2.3104e-05
19590.0 2.3006e-05
19610.0 2.2906e-05
19630.0 2.2803e-05
19650.0 2.2704e-05
19670.0 2.2606e-05
19690.0 2.2503e-05
19710.0 2.2402e-05
19730.0 2.2303e-05
19750.0 2.2203e-05
19770.0 2.2099e-05
19790.0 2.2e-05
19810.0 2.1902e-05
19830.0 2.18e-05
19850.0 2.1698e-05
19870.0 2.1597e-05
19890.0 2.1489e-05
19910.0 2.1371e-05
19930.0 2.1244e-05
19950.0 2.1099e-05
19970.0 2.092e-05
19990.0 2.0706e-05
20010.0 1.8422e-05
20030.0 1.8155e-05
20050.0 1.7843e-05
20070.0 1.7505e-05
20090.0 1.7141e-05
20110.0 1.673e-05
20130.0 1.6313e-05
20150.0 1.5901e-05
20170.0 1.5473e-05
20190.0 1.5039e-05
20210.0 1.4629e-05
20230.0 1.4229e-05
20250.0 1.3828e-05
20270.0 1.3456e-05
20290.0 1.3117e-05
20310.0 1.2794e-05
20330.0 1.2492e-05
20350.0 1.2242e-05
20370.0 1.202e-05
20390.0 1.1825e-05
20410.0 1.1668e-05
20430.0 1.1546e-05
20450.0 1.145e-05
20470.0 1.1386e-05
20490.0 1.1351e-05
20510.0 1.1341e-05
20530.0 1.1355e-05
20550.0 1.139e-05
20570.0 1.1441e-05
20590.0 1.151e-05
20610.0 1.1594e-05
20630.0 1.1686e-05
20650.0 1.1789e-05
20670.0 1.1907e-05
20690.0 1.2027e-05
20710.0 1.2151e-05
20730.0 1.2285e-05
20750.0 1.2425e-05
20770.0 1.2562e-05
20790.0 1.2707e-05
20810.0 1.2859e-05
20830.0 1.3011e-05
20850.0 1.3164e-05
20870.0 1.3328e-05
20890.0 1.3494e-05
20910.0 1.3655e-05
20930.0 1.3822e-05
20950.0 1.3995e-05
20970.0 1.4163e-05
20990.0 1.4329e-05
21010.0 1.4504e-05
21030.0 1.4675e-05
21050.0 1.4838e-05
21070.0 1.5001e-05
21090.0 1.5164e-05
21110.0 1.5313e-05
21130.0 1.5453e-05
21150.0 1.5589e-05
21170.0 1.5712e-05
21190.0 1.5817e-05
21210.0 1.5912e-05
21230.0 1.5991e-05
21250.0 1.6048e-05
21270.0 1.6083e-05
21290.0 1.6097e-05
21310.0 1.6084e-05
21330.0 1.6046e-05
21350.0 1.5979e-05
21370.0 1.5882e-05
21390.0 1.5757e-05
21410.0 1.5605e-05
21430.0 1.5412e-05
21450.0 1.5196e-05
21470.0 1.496e-05
21490.0 1.4693e-05
21510.0 1.4401e-05
21530.0 1.4103e-05
21550.0 1.3792e-05
21570.0 1.346e-05
21590.0 1.3134e-05
21610.0 1.2818e-05
21630.0 1.2502e-05
21650.0 1.2194e-05
21670.0 1.1926e-05
21690.0 1.1679e-05
21710.0 1.1457e-05
21730.0 1.1275e-05
21750.0 1.1135e-05
21770.0 1.1028e-05
21790.0 1.0966e-05
21810.0 1.0949e-05
21830.0 1.0974e-05
21850.0 1.1042e-05
21870.0 1.1149e-05
21890.0 1.1287e-05
21910.0 1.1465e-05
21930.0 1.1672e-05
21950.0 1.1898e-05
21970.0 1.2147e-05
21990.0 1.2427e-05
22010.0 1.2707e-05
22030.0 1.2991e-05
22050.0 1.329e-05
22070.0 1.359e-05
22090.0 1.3874e-05
22110.0 1.416e-05
22130.0 1.4447e-05
22150.0 1.4714e-05
22170.0 1.4966e-05
22190.0 1.5215e-05
22210.0 1.5447e-05
22230.0 1.5652e-05
22250.0 1.5844e-05
22270.0 1.6021e-05
22290.0 1.6173e-05
22310.0 1.6303e-05
22330.0 1.6417e-05
22350.0 1.6506e-05
22370.0 1.6568e-05
22390.0 1.6607e-05
22410.0 1.662e-05
22430.0 1.6604e-05
22450.0 1.6561e-05
22470.0 1.6487e-05
22490.0 1.6383e-05
22510.0 1.6254e-05
22530.0 1.6088e-05
22550.0 1.5887e-05
22570.0 1.5664e-05
22590.0 1.5412e-05
22610.0 1.5122e-05
22630.0 1.4808e-05
