#lamb flux
1010.0 1.0017e-05
1030.0 1.1139e-05
1050.0 1.2225e-05
1070.0 1.3449e-05
1090.0 1.4904e-05
1110.0 1.639e-05
1130.0 1.7885e-05
1150.0 1.9455e-05
1170.0 2.1087e-05
1190.0 2.2661e-05
1210.0 2.4289e-05
1230.0 2.6014e-05
1250.0 2.7746e-05
1270.0 2.9495e-05
1290.0 3.1401e-05
1310.0 3.338e-05
1330.0 3.5362e-05
1350.0 3.7431e-05
1370.0 3.9616e-05
1390.0 4.1811e-05
1410.0 4.3995e-05
1430.0 4.6284e-05
1450.0 4.8589e-05
1470.0 5.0834e-05
1490.0 5.3086e-05
1510.0 5.5415e-05
1530.0 5.7607e-05
1550.0 5.9725e-05
1570.0 6.1846e-05
1590.0 6.3901e-05
1610.0 6.5789e-05
1630.0 6.7624e-05
1650.0 6.9413e-05
1670.0 7.1039e-05
1690.0 7.2538e-05
1710.0 7.4003e-05
1730.0 7.5372e-05
1750.0 7.6531e-05
1770.0 7.7646e-05
1790.0 7.8712e-05
1810.0 7.9646e-05
1830.0 8.0489e-05
1850.0 8.1391e-05
1870.0 8.2218e-05
1890.0 8.2978e-05
1910.0 8.3778e-05
1930.0 8.4642e-05
1950.0 8.5469e-05
1970.0 8.6328e-05
1990.0 8.7307e-05
2010.0 8.8323e-05
2030.0 8.9349e-05
2050.0 9.0483e-05
2070.0 9.1709e-05
2090.0 9.2885e-05
2110.0 9.4084e-05
2130.0 9.5336e-05
2150.0 9.6546e-05
2170.0 9.7659e-05
2190.0 9.8774e-05
2210.0 9.9826e-05
2230.0 0.00010073
2250.0 0.00010151
2270.0 0.00010224
2290.0 0.00010279
2310.0 0.00010314
2330.0 0.00010338
2350.0 0.00010348
2370.0 0.00010337
2390.0 0.00010312
2410.0 0.00010276
2430.0 0.00010219
2450.0 0.0001014
2470.0 0.00010047
2490.0 9.936e-05
2510.0 9.8089e-05
2530.0 9.6892e-05
2550.0 9.613e-05
2570.0 9.6226e-05
2590.0 9.7667e-05
2610.0 0.00010154
2630.0 0.00010818
2650.0 0.00011712
2670.0 0.00012842
2690.0 0.00014148
2710.0 0.00015394
2730.0 0.00016441
2750.0 0.00017242
2770.0 0.00017606
2790.0 0.00017477
2810.0 0.00016879
2830.0 0.00015789
2850.0 0.00014349
2870.0 0.00012641
2890.0 0.00010677
2910.0 8.5663e-05
2930.0 6.4321e-05
2950.0 4.1717e-05
2970.0 1.8193e-05
2990.0 7.0021e-06
3010.0 1.3082e-05
3030.0 1.3082e-05
3050.0 1.3082e-05
3070.0 1.3082e-05
3090.0 1.3082e-05
3110.0 1.3082e-05
3130.0 1.3082e-05
3150.0 1.3082e-05
3170.0 1.3082e-05
3190.0 1.3082e-05
3210.0 8.5122e-05
3230.0 0.00074078
3250.0 0.0011869
3270.0 0.00107
3290.0 0.00089374
3310.0 0.00067456
3330.0 0.00064008
3350.0 0.00069812
3370.0 0.00078827
3390.0 0.00088518
3410.0 0.00098896
3430.0 0.0011278
3450.0 0.0012599
3470.0 0.001396
3490.0 0.0014251
3510.0 0.0012244
3530.0 0.0011242
3550.0 0.001324
3570.0 0.0015348
3590.0 0.0016896
3610.0 0.0016942
3630.0 0.00197
3650.0 0.0020773
3670.0 0.0021677
3690.0 0.0022945
3710.0 0.0023095
3730.0 0.0023881
3750.0 0.0023754
3770.0 0.002365
3790.0 0.0022771
3810.0 0.0021393
3830.0 0.002025
3850.0 0.001269
3870.0 0.0013403
3890.0 0.0015348
3910.0 0.0020191
3930.0 0.0026141
3950.0 0.0028322
3970.0 0.0030387
3990.0 0.0035244
4010.0 0.0033202
4030.0 0.0029373
4050.0 0.0021033
4070.0 0.0018494
4090.0 0.0024769
4110.0 0.0026117
4130.0 0.0028431
4150.0 0.0027755
4170.0 0.0026261
4190.0 0.002405
4210.0 0.0029586
4230.0 0.003167
4250.0 0.0034341
4270.0 0.0033279
4290.0 0.0032235
4310.0 0.0033794
4330.0 0.0039206
4350.0 0.004243
4370.0 0.0042867
4390.0 0.0039653
4410.0 0.0036105
4430.0 0.0028233
4450.0 0.002267
4470.0 0.0023626
4490.0 0.0027207
4510.0 0.0028659
4530.0 0.0028688
4550.0 0.002882
4570.0 0.0040454
4590.0 0.0060313
4610.0 0.0071231
4630.0 0.0073187
4650.0 0.0080366
4670.0 0.009407
4690.0 0.010065
4710.0 0.0085096
4730.0 0.006511
4750.0 0.0050518
4770.0 0.0042753
4790.0 0.0038506
4810.0 0.0036439
4830.0 0.0040349
4850.0 0.0048446
4870.0 0.0053677
4890.0 0.0055682
4910.0 0.0053619
4930.0 0.0058796
4950.0 0.0070804
4970.0 0.0080713
4990.0 0.0082768
5010.0 0.0075745
5030.0 0.0062665
5050.0 0.0048852
5070.0 0.0039634
5090.0 0.0036189
5110.0 0.0035891
5130.0 0.0036503
5150.0 0.0036105
5170.0 0.0033683
5190.0 0.0031642
5210.0 0.0031496
5230.0 0.0035783
5250.0 0.004323
5270.0 0.0051555
5290.0 0.0057793
5310.0 0.0061954
5330.0 0.006866
5350.0 0.0075586
5370.0 0.0076743
5390.0 0.0069279
5410.0 0.006169
5430.0 0.0060868
5450.0 0.0070652
5470.0 0.0085697
5490.0 0.0097897
5510.0 0.010284
5530.0 0.010102
5550.0 0.0096387
5570.0 0.0092481
5590.0 0.0088464
5610.0 0.0086118
5630.0 0.0085572
5650.0 0.0085499
5670.0 0.0082474
5690.0 0.0073745
5710.0 0.006265
5730.0 0.0056204
5750.0 0.005406
5770.0 0.0055217
5790.0 0.0056609
5810.0 0.0057843
5830.0 0.0058046
5850.0 0.0055297
5870.0 0.0052245
5890.0 0.0051125
5910.0 0.0052549
5930.0 0.0053599
5950.0 0.0049946
5970.0 0.0043455
5990.0 0.0035334
6010.0 0.0028674
6030.0 0.0026819
6050.0 0.0029181
6070.0 0.0030846
6090.0 0.0029032
6110.0 0.0025769
6130.0 0.0026557
6150.0 0.0030782
6170.0 0.0034969
6190.0 0.0037875
6210.0 0.0038536
6230.0 0.0038026
6250.0 0.0034636
6270.0 0.0028834
6290.0 0.0023804
6310.0 0.0021323
6330.0 0.0021009
6350.0 0.002137
6370.0 0.0021936
6390.0 0.0025074
6410.0 0.0031239
6430.0 0.0037775
6450.0 0.0041555
6470.0 0.0042701
6490.0 0.0042746
6510.0 0.0043458
6530.0 0.0044427
6550.0 0.0044459
6570.0 0.0046056
6590.0 0.0047353
6610.0 0.0047952
6630.0 0.0046645
6650.0 0.0043259
6670.0 0.0039511
6690.0 0.0036403
6710.0 0.0034667
6730.0 0.003385
6750.0 0.0033994
6770.0 0.0034919
6790.0 0.0036188
6810.0 0.0036992
6830.0 0.0036341
6850.0 0.0034458
6870.0 0.0032292
6890.0 0.0031551
6910.0 0.0030966
6930.0 0.0032032
6950.0 0.0033619
6970.0 0.0034467
6990.0 0.0034953
7010.0 0.0033858
7030.0 0.0031103
7050.0 0.0027597
7070.0 0.0024963
7090.0 0.0023827
7110.0 0.002374
7130.0 0.0022797
7150.0 0.002022
7170.0 0.0019329
7190.0 0.0021404
7210.0 0.0024935
7230.0 0.0028515
7250.0 0.0029922
7270.0 0.0029385
7290.0 0.0027215
7310.0 0.0025295
7330.0 0.0024524
7350.0 0.0024689
7370.0 0.0025115
7390.0 0.0026369
7410.0 0.0029286
7430.0 0.0033582
7450.0 0.0037513
7470.0 0.0039189
7490.0 0.0037873
7510.0 0.003521
7530.0 0.0031645
7550.0 0.0029287
7570.0 0.002666
7590.0 0.002541
7610.0 0.0026011
7630.0 0.0027947
7650.0 0.0030831
7670.0 0.0033959
7690.0 0.0036408
7710.0 0.003874
7730.0 0.0041029
7750.0 0.0042965
7770.0 0.0042944
7790.0 0.004347
7810.0 0.0044154
7830.0 0.0043692
7850.0 0.0042374
7870.0 0.0041415
7890.0 0.0042023
7910.0 0.0041512
7930.0 0.0040933
7950.0 0.0039069
7970.0 0.0037955
7990.0 0.0036633
8010.0 0.0036663
8030.0 0.0037048
8050.0 0.0037333
8070.0 0.0036996
8090.0 0.0036835
8110.0 0.003581
8130.0 0.003591
8150.0 0.0035632
8170.0 0.0034887
8190.0 0.0034183
8210.0 0.0033946
8230.0 0.0033254
8250.0 0.0032858
8270.0 0.0030184
8290.0 0.0025025
8310.0 0.0019197
8330.0 0.0015198
8350.0 0.0014378
8370.0 0.0017029
8390.0 0.0020512
8410.0 0.0022104
8430.0 0.0022687
8450.0 0.0024007
8470.0 0.0025923
8490.0 0.0029109
8510.0 0.0033198
8530.0 0.0037911
8550.0 0.0042119
8570.0 0.0045504
8590.0 0.0048109
8610.0 0.0049566
8630.0 0.0049588
8650.0 0.0049094
8670.0 0.0049235
8690.0 0.0051979
8710.0 0.0055666
8730.0 0.0058005
8750.0 0.0057936
8770.0 0.0058906
8790.0 0.005892
8810.0 0.0055657
8830.0 0.0052286
8850.0 0.0047832
8870.0 0.0044282
8890.0 0.0043258
8910.0 0.0043262
8930.0 0.0040881
8950.0 0.0038069
8970.0 0.0036932
8990.0 0.0036796
9010.0 0.0035539
9030.0 0.0034756
9050.0 0.0034446
9070.0 0.0034301
9090.0 0.0034178
9110.0 0.0034059
9130.0 0.0033939
9150.0 0.0033823
9170.0 0.0033695
9190.0 0.0033604
9210.0 0.0033621
9230.0 0.0033451
9250.0 0.0033308
9270.0 0.0033181
9290.0 0.0033065
9310.0 0.0032952
9330.0 0.0032844
9350.0 0.0032744
9370.0 0.0032644
9390.0 0.0032542
9410.0 0.0032445
9430.0 0.0032344
9450.0 0.0032199
9470.0 0.003207
9490.0 0.0032022
9510.0 0.0031951
9530.0 0.0031873
9550.0 0.0031793
9570.0 0.0031709
9590.0 0.0031624
9610.0 0.0031538
9630.0 0.0031453
9650.0 0.0031368
9670.0 0.0031284
9690.0 0.0031201
9710.0 0.0031117
9730.0 0.0031035
9750.0 0.0030952
9770.0 0.003087
9790.0 0.0030788
9810.0 0.0030706
9830.0 0.0030624
9850.0 0.0030542
9870.0 0.0030461
9890.0 0.0030378
9910.0 0.0030295
9930.0 0.0030209
9950.0 0.0029915
9970.0 0.0029893
9990.0 0.0029859
10010.0 0.0029818
10030.0 0.0029759
10050.0 0.0029683
10070.0 0.0029606
10090.0 0.0029528
10110.0 0.0029433
10130.0 0.0029338
10150.0 0.0029251
10170.0 0.0029157
10190.0 0.0029053
10210.0 0.0028959
10230.0 0.0028866
10250.0 0.0028761
10270.0 0.0028655
10290.0 0.0028557
10310.0 0.0028449
10330.0 0.002833
10350.0 0.0028221
10370.0 0.0028111
10390.0 0.0027989
10410.0 0.0027866
10430.0 0.0027752
10450.0 0.0027627
10470.0 0.0027494
10490.0 0.0027367
10510.0 0.0027238
10530.0 0.0027091
10550.0 0.0026948
10570.0 0.0026812
10590.0 0.0026665
10610.0 0.002651
10630.0 0.0026362
10650.0 0.002621
10670.0 0.0026042
10690.0 0.0025878
10710.0 0.0025716
10730.0 0.0025543
10750.0 0.0025357
10770.0 0.0025186
10790.0 0.0025007
10810.0 0.0024816
10830.0 0.0024626
10850.0 0.0024441
10870.0 0.0024235
10890.0 0.0024025
10910.0 0.0023821
10930.0 0.0023609
10950.0 0.0023377
10970.0 0.0023145
10990.0 0.0022917
11010.0 0.0024567
11030.0 0.0024297
11050.0 0.0024035
11070.0 0.0023766
11090.0 0.0023479
11110.0 0.0023213
11130.0 0.0022955
11150.0 0.002269
11170.0 0.0022428
11190.0 0.0022184
11210.0 0.0021934
11230.0 0.0021678
11250.0 0.0021434
11270.0 0.0021196
11290.0 0.0020948
11310.0 0.0020701
11330.0 0.002047
11350.0 0.0020232
11370.0 0.0019987
11390.0 0.0019747
11410.0 0.0019506
11430.0 0.0019242
11450.0 0.0018973
11470.0 0.0018702
11490.0 0.001841
11510.0 0.0018093
11530.0 0.0017775
11550.0 0.0017446
11570.0 0.0017089
11590.0 0.0016722
11610.0 0.0016359
11630.0 0.0015974
11650.0 0.0015575
11670.0 0.0015192
11690.0 0.0014811
11710.0 0.0014422
11730.0 0.0014043
11750.0 0.0013686
11770.0 0.0013326
11790.0 0.0012972
11810.0 0.0012641
11830.0 0.001232
11850.0 0.0011995
11870.0 0.001169
11890.0 0.0011404
11910.0 0.001112
11930.0 0.0010842
11950.0 0.0010583
11970.0 0.0010331
11990.0 0.001008
12010.0 0.00098441
12030.0 0.0009623
12050.0 0.00094069
12070.0 0.00091993
12090.0 0.00090152
12110.0 0.00088423
12130.0 0.00086805
12150.0 0.00085382
12170.0 0.00084153
12190.0 0.00083054
12210.0 0.0008216
12230.0 0.00081478
12250.0 0.0008098
12270.0 0.0008068
12290.0 0.00080573
12310.0 0.00080631
12330.0 0.00080882
12350.0 0.00081299
12370.0 0.00081835
12390.0 0.00082513
12410.0 0.00083376
12430.0 0.00084275
12450.0 0.00085239
12470.0 0.00086312
12490.0 0.00087429
12510.0 0.00088498
12530.0 0.00089608
12550.0 0.00090727
12570.0 0.00091739
12590.0 0.00092653
12610.0 0.00093509
12630.0 0.00094214
12650.0 0.00094695
12670.0 0.00095023
12690.0 0.00095157
12710.0 0.00095059
12730.0 0.0009475
12750.0 0.00094225
12770.0 0.00093483
12790.0 0.00092563
12810.0 0.00091461
12830.0 0.00090186
12850.0 0.0008883
12870.0 0.00087394
12890.0 0.00085858
12910.0 0.00084304
12930.0 0.00082779
12950.0 0.00081223
12970.0 0.00079674
12990.0 0.00078223
13010.0 0.00076816
13030.0 0.00075429
13050.0 0.00074111
13070.0 0.00072874
13090.0 0.00071647
13110.0 0.00070451
13130.0 0.00069318
13150.0 0.00068211
13170.0 0.0006709
13190.0 0.00066018
13210.0 0.0006499
13230.0 0.00063962
13250.0 0.00062954
13270.0 0.00062005
13290.0 0.00061086
13310.0 0.00060189
13330.0 0.00059368
13350.0 0.00058621
13370.0 0.00057929
13390.0 0.0005731
13410.0 0.0005679
13430.0 0.00056336
13450.0 0.00055946
13470.0 0.00055618
13490.0 0.00055336
13510.0 0.00055077
13530.0 0.0005483
13550.0 0.00054577
13570.0 0.00054299
13590.0 0.00053979
13610.0 0.00053614
13630.0 0.00053204
13650.0 0.00052727
13670.0 0.00052198
13690.0 0.00051637
13710.0 0.00051035
13730.0 0.00050383
13750.0 0.0004975
13770.0 0.00049123
13790.0 0.00048495
13810.0 0.00047897
13830.0 0.00047353
13850.0 0.00046834
13870.0 0.00046353
13890.0 0.0004593
13910.0 0.00045551
13930.0 0.000452
13950.0 0.00044886
13970.0 0.00044608
13990.0 0.00044344
14010.0 0.00044088
14030.0 0.00043841
14050.0 0.00043593
14070.0 0.00043325
14090.0 0.00043044
14110.0 0.00042751
14130.0 0.00042429
14150.0 0.00042074
14170.0 0.00041711
14190.0 0.00041328
14210.0 0.00040916
14230.0 0.00040498
14250.0 0.00040089
14270.0 0.00039669
14290.0 0.00039254
14310.0 0.0003888
14330.0 0.00038532
14350.0 0.00038209
14370.0 0.00037932
14390.0 0.00037706
14410.0 0.00037514
14430.0 0.00037366
14450.0 0.00037263
14470.0 0.00037195
14490.0 0.00037158
14510.0 0.00037151
14530.0 0.00037169
14550.0 0.00037208
14570.0 0.00037268
14590.0 0.00037348
14610.0 0.00037453
14630.0 0.0003759
14650.0 0.00037758
14670.0 0.00037961
14690.0 0.00038215
14710.0 0.00038523
14730.0 0.00038868
14750.0 0.00039273
14770.0 0.00039749
14790.0 0.00040276
14810.0 0.00040852
14830.0 0.00041532
14850.0 0.00042276
14870.0 0.00043061
14890.0 0.0004392
14910.0 0.0004485
14930.0 0.00045773
14950.0 0.00046669
14970.0 0.00047551
14990.0 0.00048338
15010.0 0.00048992
15030.0 0.00049535
15050.0 0.00049966
15070.0 0.00050274
15090.0 0.00050508
15110.0 0.00050691
15130.0 0.00050841
15150.0 0.00050974
15170.0 0.00051099
15190.0 0.00051222
15210.0 0.00051346
15230.0 0.00051472
15250.0 0.00051599
15270.0 0.00051729
15290.0 0.00051863
15310.0 0.00051998
15330.0 0.00052136
15350.0 0.00052276
15370.0 0.00052419
15390.0 0.00052563
15410.0 0.0005271
15430.0 0.00052859
15450.0 0.0005301
15470.0 0.00053163
15490.0 0.00053318
15510.0 0.00053476
15530.0 0.00053635
15550.0 0.00053796
15570.0 0.00053959
15590.0 0.00054123
15610.0 0.00054289
15630.0 0.00054457
15650.0 0.00054627
15670.0 0.00054798
15690.0 0.0005497
15710.0 0.00055145
15730.0 0.0005532
15750.0 0.00055497
15770.0 0.00055675
15790.0 0.00055854
15810.0 0.00056034
15830.0 0.00056215
15850.0 0.00056398
15870.0 0.00056581
15890.0 0.00056765
15910.0 0.0005695
15930.0 0.00057136
15950.0 0.00057322
15970.0 0.00057509
15990.0 0.00057696
16010.0 0.00057884
16030.0 0.00058072
16050.0 0.00058261
16070.0 0.0005845
16090.0 0.00058639
16110.0 0.00058828
16130.0 0.00059018
16150.0 0.00059207
16170.0 0.00059395
16190.0 0.00059585
16210.0 0.00059773
16230.0 0.00059961
16250.0 0.00060149
16270.0 0.00060337
16290.0 0.00060523
16310.0 0.00060709
16330.0 0.00060895
16350.0 0.00061079
16370.0 0.00061262
16390.0 0.00061445
16410.0 0.00061627
16430.0 0.00061807
16450.0 0.00061986
16470.0 0.00062165
16490.0 0.00062341
16510.0 0.00062516
16530.0 0.00062689
16550.0 0.00062861
16570.0 0.00063031
16590.0 0.00063199
16610.0 0.00063366
16630.0 0.0006353
16650.0 0.00063692
16670.0 0.00063853
16690.0 0.00064012
16710.0 0.00064167
16730.0 0.0006432
16750.0 0.00064471
16770.0 0.0006462
16790.0 0.00064765
16810.0 0.00064909
16830.0 0.0006505
16850.0 0.00065187
16870.0 0.00065322
16890.0 0.00065454
16910.0 0.00065582
16930.0 0.00065707
16950.0 0.0006583
16970.0 0.00065949
16990.0 0.00066065
17010.0 0.00066177
17030.0 0.00066287
17050.0 0.00066392
17070.0 0.00066493
17090.0 0.00066592
17110.0 0.00066686
17130.0 0.00066776
17150.0 0.00066863
17170.0 0.00066947
17190.0 0.00067025
17210.0 0.000671
17230.0 0.00067171
17250.0 0.00067238
17270.0 0.000673
17290.0 0.00067359
17310.0 0.00067414
17330.0 0.00067463
17350.0 0.00067508
17370.0 0.0006755
17390.0 0.00067587
17410.0 0.00067619
17430.0 0.00067647
17450.0 0.00067671
17470.0 0.0006769
17490.0 0.00067704
17510.0 0.00067714
17530.0 0.00067719
17550.0 0.00067719
17570.0 0.00067716
17590.0 0.00067707
17610.0 0.00067694
17630.0 0.00067676
17650.0 0.00067653
17670.0 0.00067626
17690.0 0.00067593
17710.0 0.00067557
17730.0 0.00067515
17750.0 0.00067469
17770.0 0.00067418
17790.0 0.00067363
17810.0 0.00067303
17830.0 0.00067237
17850.0 0.00067168
17870.0 0.00067094
17890.0 0.00067015
17910.0 0.00066932
17930.0 0.00066844
17950.0 0.00066752
17970.0 0.00066654
17990.0 0.00066553
18010.0 0.00066447
18030.0 0.00066336
18050.0 0.00066221
18070.0 0.00066103
18090.0 0.00065979
18110.0 0.00065851
18130.0 0.00065719
18150.0 0.00065583
18170.0 0.00065442
18190.0 0.00065298
18210.0 0.00065149
18230.0 0.00064996
18250.0 0.00064839
18270.0 0.00064679
18290.0 0.00064515
18310.0 0.00064346
18330.0 0.00064174
18350.0 0.00063999
18370.0 0.00063819
18390.0 0.00063636
18410.0 0.00063449
18430.0 0.0006326
18450.0 0.00063066
18470.0 0.00062869
18490.0 0.00062669
18510.0 0.00062466
18530.0 0.00062259
18550.0 0.0006205
18570.0 0.00061838
18590.0 0.00061622
18610.0 0.00061404
18630.0 0.00061183
18650.0 0.00060959
18670.0 0.00060732
18690.0 0.00060503
18710.0 0.00060272
18730.0 0.00060037
18750.0 0.00059801
18770.0 0.00059563
18790.0 0.00059321
18810.0 0.00059078
18830.0 0.00058833
18850.0 0.00058586
18870.0 0.00058336
18890.0 0.00058086
18910.0 0.00057833
18930.0 0.00057578
18950.0 0.00057322
18970.0 0.00057064
18990.0 0.00056805
19010.0 0.00056543
19030.0 0.00056282
19050.0 0.00056018
19070.0 0.00055753
19090.0 0.00055487
19110.0 0.00055221
19130.0 0.00054953
19150.0 0.00054683
19170.0 0.00054414
19190.0 0.00054143
19210.0 0.00053871
19230.0 0.00053599
19250.0 0.00053327
19270.0 0.00053054
19290.0 0.0005278
19310.0 0.00052506
19330.0 0.00052231
19350.0 0.00051956
19370.0 0.00051681
19390.0 0.00051405
19410.0 0.0005113
19430.0 0.00050854
19450.0 0.00050579
19470.0 0.00050303
19490.0 0.00050027
19510.0 0.00049752
19530.0 0.00049477
19550.0 0.00049202
19570.0 0.00048927
19590.0 0.00048653
19610.0 0.00048379
19630.0 0.00048105
19650.0 0.00047832
19670.0 0.0004756
19690.0 0.00047288
19710.0 0.00047017
19730.0 0.00046746
19750.0 0.00046477
19770.0 0.00046207
19790.0 0.00045939
19810.0 0.00045671
19830.0 0.00045403
19850.0 0.00045133
19870.0 0.00044861
19890.0 0.00044581
19910.0 0.00044283
19930.0 0.00043961
19950.0 0.00043601
19970.0 0.0004318
19990.0 0.00042687
20010.0 0.00042132
20030.0 0.0004149
20050.0 0.00040765
20070.0 0.00039997
20090.0 0.00039193
20110.0 0.00038326
20130.0 0.00037468
20150.0 0.00036635
20170.0 0.00035799
20190.0 0.00034972
20210.0 0.00034195
20230.0 0.00033444
20250.0 0.00032699
20270.0 0.00031999
20290.0 0.00031343
20310.0 0.00030705
20330.0 0.00030087
20350.0 0.0002953
20370.0 0.00028997
20390.0 0.00028485
20410.0 0.0002801
20430.0 0.00027572
20450.0 0.00027147
20470.0 0.00026751
20490.0 0.0002639
20510.0 0.00026051
20530.0 0.00025731
20550.0 0.00025439
20570.0 0.00025174
20590.0 0.00024924
20610.0 0.00024695
20630.0 0.00024486
20650.0 0.00024293
20670.0 0.00024114
20690.0 0.00023951
20710.0 0.00023799
20730.0 0.00023657
20750.0 0.00023523
20770.0 0.00023396
20790.0 0.00023273
20810.0 0.00023154
20830.0 0.00023035
20850.0 0.00022916
20870.0 0.00022795
20890.0 0.00022671
20910.0 0.00022543
20930.0 0.0002241
20950.0 0.0002227
20970.0 0.00022123
20990.0 0.00021971
21010.0 0.00021809
21030.0 0.0002164
21050.0 0.00021465
21070.0 0.00021281
21090.0 0.00021088
21110.0 0.00020892
21130.0 0.00020692
21150.0 0.00020482
21170.0 0.00020269
21190.0 0.00020057
21210.0 0.00019837
21230.0 0.00019612
21250.0 0.00019391
21270.0 0.00019169
21290.0 0.00018944
21310.0 0.0001872
21330.0 0.00018504
21350.0 0.00018287
21370.0 0.00018071
21390.0 0.00017864
21410.0 0.00017663
21430.0 0.00017461
21450.0 0.00017272
21470.0 0.00017093
21490.0 0.00016921
21510.0 0.00016758
21530.0 0.00016608
21550.0 0.00016469
21570.0 0.00016338
21590.0 0.00016221
21610.0 0.00016116
21630.0 0.00016021
21650.0 0.00015939
21670.0 0.00015867
21690.0 0.00015805
21710.0 0.00015753
21730.0 0.00015709
21750.0 0.00015672
21770.0 0.00015644
21790.0 0.00015621
21810.0 0.00015601
21830.0 0.00015584
21850.0 0.00015572
21870.0 0.00015558
21890.0 0.00015543
21910.0 0.00015529
21930.0 0.00015512
21950.0 0.00015491
21970.0 0.00015467
21990.0 0.00015441
22010.0 0.00015409
22030.0 0.00015372
22050.0 0.00015331
22070.0 0.00015285
22090.0 0.00015234
22110.0 0.0001518
22130.0 0.00015122
22150.0 0.0001506
22170.0 0.00014996
22190.0 0.00014928
22210.0 0.00014857
22230.0 0.00014785
22250.0 0.00014709
22270.0 0.00014631
22290.0 0.00014551
22310.0 0.00014467
22330.0 0.00014379
22350.0 0.00014287
22370.0 0.00014191
22390.0 0.00014088
22410.0 0.00013977
22430.0 0.00013862
22450.0 0.0001374
22470.0 0.00013606
22490.0 0.00013465
22510.0 0.00013319
22530.0 0.00013161
22550.0 0.00012991
22570.0 0.00012819
22590.0 0.0001264
22610.0 0.00012451
22630.0 0.00012258
22650.0 0.00012069
22670.0 0.00011873
22690.0 0.00011675
22710.0 0.00011484
22730.0 0.00011296
22750.0 0.00011104
22770.0 0.00010924
22790.0 0.00010754
22810.0 0.00010588
22830.0 0.0001043
22850.0 0.00010285
22870.0 0.00010148
22890.0 0.00010016
22910.0 9.8961e-05
22930.0 9.7863e-05
22950.0 9.6821e-05
22970.0 9.5839e-05
22990.0 9.4965e-05
23010.0 9.4134e-05
23030.0 9.3336e-05
23050.0 9.2587e-05
23070.0 9.1878e-05
