#lamb flux
1010.0 1.2432e-06
1030.0 1.3664e-06
1050.0 1.5081e-06
1070.0 1.6677e-06
1090.0 1.8489e-06
1110.0 2.0349e-06
1130.0 2.2221e-06
1150.0 2.4183e-06
1170.0 2.6207e-06
1190.0 2.8127e-06
1210.0 3.0074e-06
1230.0 3.2087e-06
1250.0 3.406e-06
1270.0 3.5978e-06
1290.0 3.8005e-06
1310.0 4.0031e-06
1330.0 4.1976e-06
1350.0 4.3944e-06
1370.0 4.5977e-06
1390.0 4.7961e-06
1410.0 4.9887e-06
1430.0 5.1902e-06
1450.0 5.3918e-06
1470.0 5.5868e-06
1490.0 5.784e-06
1510.0 5.9923e-06
1530.0 6.1899e-06
1550.0 6.3849e-06
1570.0 6.5867e-06
1590.0 6.7886e-06
1610.0 6.9817e-06
1630.0 7.1805e-06
1650.0 7.3845e-06
1670.0 7.5817e-06
1690.0 7.7762e-06
1710.0 7.9779e-06
1730.0 8.1803e-06
1750.0 8.3703e-06
1770.0 8.5653e-06
1790.0 8.7637e-06
1810.0 8.955e-06
1830.0 9.1421e-06
1850.0 9.3399e-06
1870.0 9.5314e-06
1890.0 9.7151e-06
1910.0 9.9012e-06
1930.0 1.0091e-05
1950.0 1.0269e-05
1970.0 1.0444e-05
1990.0 1.0623e-05
2010.0 1.0797e-05
2030.0 1.0962e-05
2050.0 1.113e-05
2070.0 1.13e-05
2090.0 1.1456e-05
2110.0 1.1608e-05
2130.0 1.1762e-05
2150.0 1.1909e-05
2170.0 1.2044e-05
2190.0 1.2182e-05
2210.0 1.2317e-05
2230.0 1.2439e-05
2250.0 1.2556e-05
2270.0 1.2677e-05
2290.0 1.2786e-05
2310.0 1.2882e-05
2330.0 1.2979e-05
2350.0 1.3072e-05
2370.0 1.3152e-05
2390.0 1.323e-05
2410.0 1.3314e-05
2430.0 1.3393e-05
2450.0 1.3472e-05
2470.0 1.3568e-05
2490.0 1.3693e-05
2510.0 1.3848e-05
2530.0 1.4092e-05
2550.0 1.4514e-05
2570.0 1.5193e-05
2590.0 1.6226e-05
2610.0 1.7879e-05
2630.0 2.0187e-05
2650.0 2.2991e-05
2670.0 2.6298e-05
2690.0 2.995e-05
2710.0 3.3411e-05
2730.0 3.6442e-05
2750.0 3.91e-05
2770.0 4.1133e-05
2790.0 4.2548e-05
2810.0 4.3572e-05
2830.0 4.4365e-05
2850.0 4.4909e-05
2870.0 4.5365e-05
2890.0 4.5826e-05
2910.0 4.6278e-05
2930.0 4.6689e-05
2950.0 4.7143e-05
2970.0 4.7627e-05
2990.0 4.8083e-05
3010.0 0.00051951
3030.0 0.00052232
3050.0 0.00052498
3070.0 0.00052675
3090.0 0.00052799
3110.0 0.00052776
3130.0 0.00052493
3150.0 0.00051882
3170.0 0.00050817
3190.0 0.00049309
3210.0 0.00047475
3230.0 0.00045538
3250.0 0.00045609
3270.0 0.0004413
3290.0 0.00046299
3310.0 0.00044502
3330.0 0.00045561
3350.0 0.00047353
3370.0 0.00049662
3390.0 0.00052392
3410.0 0.00055244
3430.0 0.00058345
3450.0 0.00061752
3470.0 0.00065278
3490.0 0.00068757
3510.0 0.00073141
3530.0 0.00078331
3550.0 0.00081738
3570.0 0.0008426
3590.0 0.00090219
3610.0 0.00091678
3630.0 0.00098826
3650.0 0.0010425
3670.0 0.001104
3690.0 0.0011231
3710.0 0.0011045
3730.0 0.0011316
3750.0 0.0011342
3770.0 0.0010781
3790.0 0.0010164
3810.0 0.00097199
3830.0 0.00096085
3850.0 0.00094947
3870.0 0.0010258
3890.0 0.0011913
3910.0 0.0014253
3930.0 0.0016479
3950.0 0.0017673
3970.0 0.0017189
3990.0 0.0015631
4010.0 0.0016342
4030.0 0.0018369
4050.0 0.0018968
4070.0 0.0017164
4090.0 0.0014198
4110.0 0.0015001
4130.0 0.0017197
4150.0 0.0017453
4170.0 0.0016857
4190.0 0.0016278
4210.0 0.0017841
4230.0 0.0018606
4250.0 0.0019786
4270.0 0.0020204
4290.0 0.001966
4310.0 0.0020986
4330.0 0.0023079
4350.0 0.0025967
4370.0 0.0028332
4390.0 0.0027397
4410.0 0.0023315
4430.0 0.0019148
4450.0 0.0015889
4470.0 0.0015809
4490.0 0.0017154
4510.0 0.0020791
4530.0 0.0022504
4550.0 0.002467
4570.0 0.0029355
4590.0 0.0035874
4610.0 0.0046148
4630.0 0.005632
4650.0 0.0058093
4670.0 0.0058137
4690.0 0.006077
4710.0 0.0061323
4730.0 0.0051705
4750.0 0.003835
4770.0 0.0031268
4790.0 0.0028931
4810.0 0.0027953
4830.0 0.0028252
4850.0 0.0032079
4870.0 0.0038172
4890.0 0.004288
4910.0 0.0038269
4930.0 0.0036887
4950.0 0.0042815
4970.0 0.0053908
4990.0 0.0065686
5010.0 0.0067327
5030.0 0.0055921
5050.0 0.0039212
5070.0 0.0028233
5090.0 0.0024387
5110.0 0.0024719
5130.0 0.0026578
5150.0 0.0027
5170.0 0.0026635
5190.0 0.0026519
5210.0 0.00263
5230.0 0.0027681
5250.0 0.0029809
5270.0 0.0033218
5290.0 0.0038309
5310.0 0.0042812
5330.0 0.0044629
5350.0 0.0045509
5370.0 0.0049082
5390.0 0.0051678
5410.0 0.0048714
5430.0 0.0043624
5450.0 0.0042979
5470.0 0.0049748
5490.0 0.0062476
5510.0 0.007624
5530.0 0.0082015
5550.0 0.008014
5570.0 0.0074958
5590.0 0.0068691
5610.0 0.0064873
5630.0 0.0064366
5650.0 0.0065557
5670.0 0.0063872
5690.0 0.0059642
5710.0 0.0057054
5730.0 0.0051009
5750.0 0.0040502
5770.0 0.0035772
5790.0 0.003911
5810.0 0.0044901
5830.0 0.0050346
5850.0 0.0052734
5870.0 0.0052701
5890.0 0.0050581
5910.0 0.0048138
5930.0 0.0047748
5950.0 0.0049775
5970.0 0.005151
5990.0 0.0046912
6010.0 0.0039236
6030.0 0.0032736
6050.0 0.0029415
6070.0 0.0029869
6090.0 0.0032983
6110.0 0.0034691
6130.0 0.0033061
6150.0 0.0032147
6170.0 0.003529
6190.0 0.0041516
6210.0 0.0049347
6230.0 0.0055433
6250.0 0.005419
6270.0 0.0047894
6290.0 0.0040004
6310.0 0.0032198
6330.0 0.0026666
6350.0 0.0025281
6370.0 0.002771
6390.0 0.0031749
6410.0 0.0036855
6430.0 0.0043342
6450.0 0.0050981
6470.0 0.0061399
6490.0 0.0073335
6510.0 0.0078912
6530.0 0.0074865
6550.0 0.0070766
6570.0 0.0070095
6590.0 0.0068051
6610.0 0.0063589
6630.0 0.005886
6650.0 0.0055174
6670.0 0.0055181
6690.0 0.00539
6710.0 0.0049496
6730.0 0.004402
6750.0 0.0039464
6770.0 0.0039959
6790.0 0.0042698
6810.0 0.0045162
6830.0 0.0045901
6850.0 0.0043964
6870.0 0.004251
6890.0 0.0041434
6910.0 0.0039235
6930.0 0.0038073
6950.0 0.0038111
6970.0 0.0039063
6990.0 0.0042403
7010.0 0.0044596
7030.0 0.0042221
7050.0 0.0038766
7070.0 0.0035473
7090.0 0.0030979
7110.0 0.0028459
7130.0 0.0029214
7150.0 0.003047
7170.0 0.0031947
7190.0 0.0031728
7210.0 0.0031605
7230.0 0.0034504
7250.0 0.0039345
7270.0 0.0044018
7290.0 0.0046301
7310.0 0.0044415
7330.0 0.0040062
7350.0 0.0036518
7370.0 0.0035312
7390.0 0.0035937
7410.0 0.0038348
7430.0 0.004286
7450.0 0.0046881
7470.0 0.0051287
7490.0 0.0054823
7510.0 0.0049624
7530.0 0.0046479
7550.0 0.0040827
7570.0 0.0034738
7590.0 0.002877
7610.0 0.0026952
7630.0 0.0028506
7650.0 0.0032704
7670.0 0.0036917
7690.0 0.0041003
7710.0 0.0045585
7730.0 0.0048141
7750.0 0.0049791
7770.0 0.0050559
7790.0 0.0050865
7810.0 0.0051574
7830.0 0.0049843
7850.0 0.0047219
7870.0 0.0044384
7890.0 0.0041288
7910.0 0.0037121
7930.0 0.0033158
7950.0 0.0029834
7970.0 0.0029099
7990.0 0.002999
8010.0 0.003231
8030.0 0.0032717
8050.0 0.0033177
8070.0 0.0032478
8090.0 0.0032326
8110.0 0.0031198
8130.0 0.0029546
8150.0 0.0027813
8170.0 0.0027534
8190.0 0.0028052
8210.0 0.0028121
8230.0 0.002763
8250.0 0.0026874
8270.0 0.002382
8290.0 0.0018767
8310.0 0.0013831
8330.0 0.00095559
8350.0 0.0006972
8370.0 0.0007347
8390.0 0.00082638
8410.0 0.0010186
8430.0 0.0012508
8450.0 0.0013713
8470.0 0.0014334
8490.0 0.0015303
8510.0 0.0016242
8530.0 0.0018232
8550.0 0.0020855
8570.0 0.0024111
8590.0 0.0028008
8610.0 0.0032415
8630.0 0.003767
8650.0 0.0041208
8670.0 0.0041076
8690.0 0.0039543
8710.0 0.003774
8730.0 0.0036021
8750.0 0.0034371
8770.0 0.0033601
8790.0 0.0032421
8810.0 0.0030041
8830.0 0.0027948
8850.0 0.0024381
8870.0 0.0021724
8890.0 0.0019768
8910.0 0.0020746
8930.0 0.0020018
8950.0 0.0020719
8970.0 0.0021097
8990.0 0.0021475
9010.0 0.0022128
9030.0 0.0021827
9050.0 0.002181
9070.0 0.0021829
9090.0 0.0021846
9110.0 0.0021857
9130.0 0.0021874
9150.0 0.0021901
9170.0 0.002191
9190.0 0.0021897
9210.0 0.0022042
9230.0 0.0022048
9250.0 0.0022071
9270.0 0.00221
9290.0 0.0022134
9310.0 0.0022172
9330.0 0.0022214
9350.0 0.0022258
9370.0 0.0022305
9390.0 0.0022355
9410.0 0.0022406
9430.0 0.002246
9450.0 0.0022516
9470.0 0.0022575
9490.0 0.0022635
9510.0 0.0022697
9530.0 0.0022763
9550.0 0.0022829
9570.0 0.0022897
9590.0 0.0022968
9610.0 0.002304
9630.0 0.0023114
9650.0 0.002319
9670.0 0.0023269
9690.0 0.0023348
9710.0 0.0023429
9730.0 0.0023513
9750.0 0.0023598
9770.0 0.0023683
9790.0 0.002377
9810.0 0.002386
9830.0 0.0023949
9850.0 0.002404
9870.0 0.0024133
9890.0 0.0024227
9910.0 0.0024321
9930.0 0.0024416
9950.0 0.0024504
9970.0 0.0024603
9990.0 0.0024702
10010.0 0.0024687
10030.0 0.0024785
10050.0 0.0024878
10070.0 0.0024946
10090.0 0.0025055
10110.0 0.0025161
10130.0 0.0025265
10150.0 0.0025368
10170.0 0.0025468
10190.0 0.0025563
10210.0 0.0025661
10230.0 0.0025758
10250.0 0.0025852
10270.0 0.0025945
10290.0 0.0026039
10310.0 0.002613
10330.0 0.0026218
10350.0 0.0026307
10370.0 0.0026396
10390.0 0.002648
10410.0 0.0026563
10430.0 0.0026647
10450.0 0.0026727
10470.0 0.0026804
10490.0 0.002688
10510.0 0.0026955
10530.0 0.0027024
10550.0 0.0027092
10570.0 0.002716
10590.0 0.0027223
10610.0 0.0027283
10630.0 0.0027342
10650.0 0.0027399
10670.0 0.0027449
10690.0 0.0027498
10710.0 0.0027545
10730.0 0.0027588
10750.0 0.0027624
10770.0 0.0027663
10790.0 0.0027696
10810.0 0.0027724
10830.0 0.0027749
10850.0 0.002777
10870.0 0.0027778
10890.0 0.002777
10910.0 0.0027742
10930.0 0.0027677
10950.0 0.0027549
10970.0 0.0027349
10990.0 0.0027072
11010.0 0.0026776
11030.0 0.0026251
11050.0 0.0025645
11070.0 0.0024945
11090.0 0.0024129
11110.0 0.0023309
11130.0 0.0022478
11150.0 0.0021614
11170.0 0.002076
11190.0 0.0019972
11210.0 0.0019201
11230.0 0.001846
11250.0 0.0017801
11270.0 0.001721
11290.0 0.0016661
11310.0 0.0016178
11330.0 0.001578
11350.0 0.0015421
11370.0 0.0015099
11390.0 0.0014819
11410.0 0.0014564
11430.0 0.0014305
11450.0 0.001405
11470.0 0.0013793
11490.0 0.0013514
11510.0 0.0013204
11530.0 0.0012882
11550.0 0.0012542
11570.0 0.0012167
11590.0 0.0011778
11610.0 0.0011391
11630.0 0.0010986
11650.0 0.0010572
11670.0 0.0010186
11690.0 0.00098134
11710.0 0.00094487
11730.0 0.00091116
11750.0 0.00088113
11770.0 0.00085259
11790.0 0.00082639
11810.0 0.00080339
11830.0 0.00078251
11850.0 0.00076255
11870.0 0.00074462
11890.0 0.00072819
11910.0 0.00071191
11930.0 0.00069572
11950.0 0.00068004
11970.0 0.00066397
11990.0 0.00064684
12010.0 0.00062961
12030.0 0.00061231
12050.0 0.00059426
12070.0 0.00057582
12090.0 0.00055867
12110.0 0.00054193
12130.0 0.00052584
12150.0 0.00051155
12170.0 0.0004994
12190.0 0.00048889
12210.0 0.00048117
12230.0 0.00047642
12250.0 0.00047452
12270.0 0.00047578
12290.0 0.00048002
12310.0 0.00048678
12330.0 0.00049657
12350.0 0.00050875
12370.0 0.00052231
12390.0 0.00053751
12410.0 0.00055471
12430.0 0.00057133
12450.0 0.00058765
12470.0 0.00060404
12490.0 0.00061936
12510.0 0.00063256
12530.0 0.00064454
12550.0 0.00065482
12570.0 0.00066251
12590.0 0.00066789
12610.0 0.00067124
12630.0 0.00067216
12650.0 0.00067076
12670.0 0.00066743
12690.0 0.00066216
12710.0 0.00065532
12730.0 0.00064717
12750.0 0.00063743
12770.0 0.0006268
12790.0 0.00061562
12810.0 0.0006036
12830.0 0.00059077
12850.0 0.000578
12870.0 0.00056493
12890.0 0.0005511
12910.0 0.0005371
12930.0 0.00052315
12950.0 0.0005084
12970.0 0.00049302
12990.0 0.00047797
13010.0 0.00046266
13030.0 0.00044675
13050.0 0.00043103
13070.0 0.00041598
13090.0 0.0004007
13110.0 0.00038585
13130.0 0.00037218
13150.0 0.00035943
13170.0 0.00034732
13190.0 0.00033696
13210.0 0.00032832
13230.0 0.00032101
13250.0 0.00031537
13270.0 0.00031154
13290.0 0.00030926
13310.0 0.00030857
13330.0 0.00030937
13350.0 0.00031137
13370.0 0.00031459
13390.0 0.00031884
13410.0 0.00032342
13430.0 0.00032851
13450.0 0.000334
13470.0 0.00033934
13490.0 0.00034435
13510.0 0.00034942
13530.0 0.00035395
13550.0 0.00035777
13570.0 0.00036111
13590.0 0.00036398
13610.0 0.00036617
13630.0 0.00036776
13650.0 0.00036896
13670.0 0.00036968
13690.0 0.00036993
13710.0 0.00036984
13730.0 0.0003694
13750.0 0.00036861
13770.0 0.00036752
13790.0 0.00036611
13810.0 0.00036438
13830.0 0.00036239
13850.0 0.00036003
13870.0 0.00035729
13890.0 0.00035427
13910.0 0.00035096
13930.0 0.00034721
13950.0 0.00034319
13970.0 0.00033912
13990.0 0.00033479
14010.0 0.00033032
14030.0 0.00032597
14050.0 0.00032173
14070.0 0.00031746
14090.0 0.00031355
14110.0 0.00031004
14130.0 0.00030682
14150.0 0.00030399
14170.0 0.00030172
14190.0 0.00029992
14210.0 0.00029858
14230.0 0.00029779
14250.0 0.00029751
14270.0 0.00029778
14290.0 0.00029861
14310.0 0.00029988
14330.0 0.00030163
14350.0 0.00030389
14370.0 0.0003065
14390.0 0.00030931
14410.0 0.00031253
14430.0 0.00031599
14450.0 0.00031946
14470.0 0.00032306
14490.0 0.00032697
14510.0 0.00033082
14530.0 0.00033469
14550.0 0.00033891
14570.0 0.00034344
14590.0 0.00034815
14610.0 0.00035342
14630.0 0.00035954
14650.0 0.00036617
14670.0 0.00037343
14690.0 0.00038179
14710.0 0.00039117
14730.0 0.00040077
14750.0 0.0004113
14770.0 0.00042274
14790.0 0.00043433
14810.0 0.00044587
14830.0 0.00045821
14850.0 0.00047013
14870.0 0.00048114
14890.0 0.00049166
14910.0 0.00050147
14930.0 0.00050977
14950.0 0.00051663
14970.0 0.00052235
14990.0 0.00052649
15010.0 0.00052916
15030.0 0.00053066
15050.0 0.00053115
15070.0 0.00053085
15090.0 0.00053005
15110.0 0.00052889
15130.0 0.00052755
15150.0 0.00052617
15170.0 0.00052469
15190.0 0.00052318
15210.0 0.00052171
15230.0 0.00052026
15250.0 0.00051876
15270.0 0.00051727
15290.0 0.00051587
15310.0 0.00051443
15330.0 0.00051297
15350.0 0.00051158
15370.0 0.00051019
15390.0 0.00050873
15410.0 0.00050731
15430.0 0.00050595
15450.0 0.00050455
15470.0 0.00050312
15490.0 0.00050177
15510.0 0.00050042
15530.0 0.00049902
15550.0 0.00049765
15570.0 0.00049633
15590.0 0.00049494
15610.0 0.00049354
15630.0 0.00049221
15650.0 0.00049088
15670.0 0.0004895
15690.0 0.00048815
15710.0 0.00048686
15730.0 0.00048549
15750.0 0.00048412
15770.0 0.00048281
15790.0 0.00048148
15810.0 0.00048009
15830.0 0.00047875
15850.0 0.00047745
15870.0 0.00047609
15890.0 0.00047473
15910.0 0.00047343
15930.0 0.0004721
15950.0 0.00047071
15970.0 0.00046937
15990.0 0.00046805
16010.0 0.00046668
16030.0 0.00046529
16050.0 0.00046399
16070.0 0.00046264
16090.0 0.00046126
16110.0 0.00045991
16130.0 0.00045859
16150.0 0.00045717
16170.0 0.00045578
16190.0 0.00045444
16210.0 0.00045307
16230.0 0.00045165
16250.0 0.00045028
16270.0 0.00044893
16290.0 0.00044751
16310.0 0.0004461
16330.0 0.00044474
16350.0 0.00044333
16370.0 0.00044185
16390.0 0.00044047
16410.0 0.00043907
16430.0 0.00043762
16450.0 0.00043618
16470.0 0.0004348
16490.0 0.00043334
16510.0 0.00043186
16530.0 0.00043043
16550.0 0.00042899
16570.0 0.00042749
16590.0 0.000426
16610.0 0.00042457
16630.0 0.00042309
16650.0 0.00042158
16670.0 0.00042012
16690.0 0.00041865
16710.0 0.00041709
16730.0 0.00041557
16750.0 0.00041409
16770.0 0.00041256
16790.0 0.00041099
16810.0 0.00040949
16830.0 0.00040798
16850.0 0.0004064
16870.0 0.00040485
16890.0 0.00040333
16910.0 0.00040174
16930.0 0.00040013
16950.0 0.00039859
16970.0 0.00039702
16990.0 0.0003954
17010.0 0.00039381
17030.0 0.00039226
17050.0 0.00039063
17070.0 0.00038899
17090.0 0.00038741
17110.0 0.0003858
17130.0 0.00038411
17150.0 0.00038248
17170.0 0.00038089
17190.0 0.00037922
17210.0 0.00037756
17230.0 0.00037595
17250.0 0.00037429
17270.0 0.00037258
17290.0 0.00037091
17310.0 0.00036927
17330.0 0.00036756
17350.0 0.00036584
17370.0 0.0003642
17390.0 0.00036251
17410.0 0.00036078
17430.0 0.00035909
17450.0 0.00035743
17470.0 0.00035566
17490.0 0.00035392
17510.0 0.00035223
17530.0 0.00035051
17550.0 0.00034874
17570.0 0.00034703
17590.0 0.00034533
17610.0 0.00034356
17630.0 0.0003418
17650.0 0.00034009
17670.0 0.00033834
17690.0 0.00033651
17710.0 0.00033479
17730.0 0.00033306
17750.0 0.00033127
17770.0 0.00032949
17790.0 0.00032778
17810.0 0.00032598
17830.0 0.00032418
17850.0 0.00032242
17870.0 0.00032066
17890.0 0.00031884
17910.0 0.00031704
17930.0 0.00031531
17950.0 0.00031351
17970.0 0.0003117
17990.0 0.00030994
18010.0 0.00030817
18030.0 0.00030632
18050.0 0.00030453
18070.0 0.00030277
18090.0 0.00030096
18110.0 0.00029913
18130.0 0.00029737
18150.0 0.00029559
18170.0 0.00029376
18190.0 0.00029196
18210.0 0.0002902
18230.0 0.00028837
18250.0 0.00028653
18270.0 0.00028477
18290.0 0.00028298
18310.0 0.00028115
18330.0 0.00027936
18350.0 0.00027761
18370.0 0.00027578
18390.0 0.00027397
18410.0 0.0002722
18430.0 0.00027041
18450.0 0.00026856
18470.0 0.00026678
18490.0 0.00026502
18510.0 0.00026322
18530.0 0.00026141
18550.0 0.00025967
18570.0 0.00025788
18590.0 0.00025605
18610.0 0.00025428
18630.0 0.00025252
18650.0 0.00025072
18670.0 0.00024891
18690.0 0.00024718
18710.0 0.00024541
18730.0 0.00024361
18750.0 0.00024186
18770.0 0.00024014
18790.0 0.00023832
18810.0 0.00023654
18830.0 0.00023482
18850.0 0.00023306
18870.0 0.00023127
18890.0 0.00022955
18910.0 0.00022783
18930.0 0.00022605
18950.0 0.0002243
18970.0 0.0002226
18990.0 0.00022086
19010.0 0.00021906
19030.0 0.00021737
19050.0 0.00021567
19070.0 0.00021392
19090.0 0.0002122
19110.0 0.00021053
19130.0 0.0002088
19150.0 0.00020706
19170.0 0.00020537
19190.0 0.00020369
19210.0 0.00020195
19230.0 0.00020025
19250.0 0.0001986
19270.0 0.00019691
19290.0 0.0001952
19310.0 0.00019356
19330.0 0.0001919
19350.0 0.00019018
19370.0 0.00018851
19390.0 0.00018688
19410.0 0.00018521
19430.0 0.00018352
19450.0 0.00018191
19470.0 0.00018028
19490.0 0.00017861
19510.0 0.00017698
19530.0 0.00017538
19550.0 0.00017372
19570.0 0.00017205
19590.0 0.00017047
19610.0 0.00016886
19630.0 0.00016722
19650.0 0.00016562
19670.0 0.00016406
19690.0 0.00016243
19710.0 0.00016082
19730.0 0.00015925
19750.0 0.00015767
19770.0 0.00015604
19790.0 0.00015447
19810.0 0.00015293
19830.0 0.00015134
19850.0 0.00014975
19870.0 0.0001482
19890.0 0.00014658
19910.0 0.00014486
19930.0 0.00014312
19950.0 0.00014124
19970.0 0.00013911
19990.0 0.00013674
20010.0 0.00013448
20030.0 0.00013165
20050.0 0.00012855
20070.0 0.0001254
20090.0 0.00012222
20110.0 0.00011885
20130.0 0.00011567
20150.0 0.00011272
20170.0 0.00010986
20190.0 0.00010716
20210.0 0.00010477
20230.0 0.0001026
20250.0 0.00010057
20270.0 9.8825e-05
20290.0 9.7341e-05
20310.0 9.6046e-05
20330.0 9.4956e-05
20350.0 9.4155e-05
20370.0 9.3553e-05
20390.0 9.3157e-05
20410.0 9.2982e-05
20430.0 9.3003e-05
20450.0 9.3235e-05
20470.0 9.3672e-05
20490.0 9.4277e-05
20510.0 9.506e-05
20530.0 9.6051e-05
20550.0 9.7175e-05
20570.0 9.8386e-05
20590.0 9.977e-05
20610.0 0.00010126
20630.0 0.00010277
20650.0 0.00010435
20670.0 0.00010606
20690.0 0.00010769
20710.0 0.00010928
20730.0 0.0001109
20750.0 0.00011249
20770.0 0.00011396
20790.0 0.00011542
20810.0 0.00011687
20830.0 0.00011825
20850.0 0.00011958
20870.0 0.00012097
20890.0 0.00012237
20910.0 0.00012371
20930.0 0.00012511
20950.0 0.00012659
20970.0 0.00012804
20990.0 0.0001295
21010.0 0.00013104
21030.0 0.00013256
21050.0 0.000134
21070.0 0.00013541
21090.0 0.00013679
21110.0 0.000138
21130.0 0.00013907
21150.0 0.00014003
21170.0 0.00014082
21190.0 0.00014141
21210.0 0.00014184
21230.0 0.00014208
21250.0 0.00014212
21270.0 0.00014197
21290.0 0.00014164
21310.0 0.00014111
21330.0 0.00014044
21350.0 0.00013959
21370.0 0.00013856
21390.0 0.00013742
21410.0 0.00013615
21430.0 0.00013469
21450.0 0.00013317
21470.0 0.0001316
21490.0 0.00012992
21510.0 0.00012817
21530.0 0.00012647
21550.0 0.00012475
21570.0 0.00012298
21590.0 0.00012131
21610.0 0.00011974
21630.0 0.00011822
21650.0 0.00011678
21670.0 0.00011558
21690.0 0.00011452
21710.0 0.00011361
21730.0 0.00011292
21750.0 0.00011244
21770.0 0.00011215
21790.0 0.00011211
21810.0 0.00011228
21830.0 0.00011267
21850.0 0.0001133
21870.0 0.00011413
21890.0 0.00011511
21910.0 0.00011633
21930.0 0.00011773
21950.0 0.00011922
21970.0 0.00012087
21990.0 0.00012274
22010.0 0.00012462
22030.0 0.00012655
22050.0 0.0001286
22070.0 0.0001307
22090.0 0.00013271
22110.0 0.00013476
22130.0 0.00013683
22150.0 0.00013877
22170.0 0.00014061
22190.0 0.00014242
22210.0 0.00014407
22230.0 0.00014549
22250.0 0.00014676
22270.0 0.00014785
22290.0 0.00014867
22310.0 0.00014926
22330.0 0.00014961
22350.0 0.00014966
22370.0 0.00014945
22390.0 0.00014894
22410.0 0.00014811
22430.0 0.00014703
22450.0 0.0001457
22470.0 0.00014404
22490.0 0.00014213
22510.0 0.00014006
22530.0 0.00013768
22550.0 0.00013503
22570.0 0.00013232
22590.0 0.00012945
22610.0 0.00012634
22630.0 0.00012316
22650.0 0.00012003
22670.0 0.00011673
22690.0 0.00011335
22710.0 0.00011008
22730.0 0.00010683
22750.0 0.00010344
22770.0 0.00010024
22790.0 9.7228e-05
22810.0 9.4233e-05
22830.0 9.135e-05
22850.0 8.8748e-05
22870.0 8.6293e-05
22890.0 8.3957e-05
22910.0 8.1915e-05
22930.0 8.0154e-05
22950.0 7.8601e-05
22970.0 7.7311e-05
22990.0 7.6395e-05
23010.0 7.575e-05
23030.0 7.5404e-05
