#lamb flux
1010.0 5.3923e-10
1030.0 5.964e-10
1050.0 6.6214e-10
1070.0 7.3616e-10
1090.0 8.2023e-10
1110.0 9.0645e-10
1130.0 9.9323e-10
1150.0 1.0841e-09
1170.0 1.1779e-09
1190.0 1.2668e-09
1210.0 1.3569e-09
1230.0 1.4501e-09
1250.0 1.5413e-09
1270.0 1.6299e-09
1290.0 1.7235e-09
1310.0 1.8171e-09
1330.0 1.9068e-09
1350.0 1.9976e-09
1370.0 2.0912e-09
1390.0 2.1826e-09
1410.0 2.2712e-09
1430.0 2.3639e-09
1450.0 2.4565e-09
1470.0 2.546e-09
1490.0 2.6366e-09
1510.0 2.7322e-09
1530.0 2.8228e-09
1550.0 2.9122e-09
1570.0 3.0047e-09
1590.0 3.0973e-09
1610.0 3.1859e-09
1630.0 3.2772e-09
1650.0 3.3709e-09
1670.0 3.4616e-09
1690.0 3.5512e-09
1710.0 3.6444e-09
1730.0 3.7381e-09
1750.0 3.8263e-09
1770.0 3.9172e-09
1790.0 4.0101e-09
1810.0 4.1001e-09
1830.0 4.1886e-09
1850.0 4.2827e-09
1870.0 4.3746e-09
1890.0 4.4635e-09
1910.0 4.5543e-09
1930.0 4.6476e-09
1950.0 4.7368e-09
1970.0 4.8251e-09
1990.0 4.917e-09
2010.0 5.0075e-09
2030.0 5.095e-09
2050.0 5.1854e-09
2070.0 5.2783e-09
2090.0 5.3661e-09
2110.0 5.4538e-09
2130.0 5.5444e-09
2150.0 5.6334e-09
2170.0 5.7188e-09
2190.0 5.8075e-09
2210.0 5.8969e-09
2230.0 5.9829e-09
2250.0 6.0686e-09
2270.0 6.1582e-09
2290.0 6.2452e-09
2310.0 6.3288e-09
2330.0 6.4158e-09
2350.0 6.5052e-09
2370.0 6.5941e-09
2390.0 6.6905e-09
2410.0 6.8047e-09
2430.0 6.936e-09
2450.0 7.093e-09
2470.0 7.2941e-09
2490.0 7.5476e-09
2510.0 7.8357e-09
2530.0 8.1825e-09
2550.0 8.6166e-09
2570.0 9.1567e-09
2590.0 9.8593e-09
2610.0 1.0911e-08
2630.0 1.2413e-08
2650.0 1.4376e-08
2670.0 1.6915e-08
2690.0 2.0035e-08
2710.0 2.3365e-08
2730.0 2.6656e-08
2750.0 2.9897e-08
2770.0 3.2716e-08
2790.0 3.4955e-08
2810.0 3.6731e-08
2830.0 3.8119e-08
2850.0 3.9067e-08
2870.0 3.9762e-08
2890.0 4.0313e-08
2910.0 4.0752e-08
2930.0 4.1111e-08
2950.0 4.1454e-08
2970.0 4.1789e-08
2990.0 4.2104e-08
3010.0 1.1901e-06
3030.0 1.199e-06
3050.0 1.2076e-06
3070.0 1.2149e-06
3090.0 1.2213e-06
3110.0 1.2252e-06
3130.0 1.225e-06
3150.0 1.2196e-06
3170.0 1.2065e-06
3190.0 1.186e-06
3210.0 1.16e-06
3230.0 1.1302e-06
3250.0 1.1008e-06
3270.0 1.0794e-06
3290.0 1.0674e-06
3310.0 1.0694e-06
3330.0 1.0848e-06
3350.0 1.1118e-06
3370.0 1.1503e-06
3390.0 1.1988e-06
3410.0 1.2516e-06
3430.0 1.3108e-06
3450.0 1.379e-06
3470.0 1.4535e-06
3490.0 1.5325e-06
3510.0 1.6217e-06
3530.0 1.7172e-06
3550.0 1.814e-06
3570.0 1.9149e-06
3590.0 2.0247e-06
3610.0 2.1377e-06
3630.0 2.2505e-06
3650.0 2.3674e-06
3670.0 2.4742e-06
3690.0 2.5541e-06
3710.0 2.5998e-06
3730.0 2.6013e-06
3750.0 2.5651e-06
3770.0 2.5509e-06
3790.0 2.5357e-06
3810.0 2.4734e-06
3830.0 2.55e-06
3850.0 2.8512e-06
3870.0 3.0165e-06
3890.0 3.0027e-06
3910.0 3.0155e-06
3930.0 3.0949e-06
3950.0 3.1438e-06
3970.0 2.8643e-06
3990.0 2.4646e-06
4010.0 7.3867e-06
4030.0 8.9501e-06
4050.0 1.0261e-05
4070.0 8.9029e-06
4090.0 8.0633e-06
4110.0 7.1151e-06
4130.0 6.5487e-06
4150.0 6.9658e-06
4170.0 6.8617e-06
4190.0 7.314e-06
4210.0 7.2471e-06
4230.0 7.6655e-06
4250.0 9.0685e-06
4270.0 9.1751e-06
4290.0 8.4548e-06
4310.0 8.7851e-06
4330.0 9.3447e-06
4350.0 1.0478e-05
4370.0 1.1924e-05
4390.0 1.1189e-05
4410.0 8.2669e-06
4430.0 6.9985e-06
4450.0 6.4308e-06
4470.0 4.9359e-06
4490.0 5.3264e-06
4510.0 8.0456e-06
4530.0 9.279e-06
4550.0 9.3595e-06
4570.0 1.0532e-05
4590.0 1.1997e-05
4610.0 1.6181e-05
4630.0 2.1015e-05
4650.0 2.2791e-05
4670.0 2.1107e-05
4690.0 2.0139e-05
4710.0 2.1289e-05
4730.0 2.0091e-05
4750.0 1.502e-05
4770.0 1.1018e-05
4790.0 1.0289e-05
4810.0 9.8067e-06
4830.0 8.978e-06
4850.0 9.8518e-06
4870.0 1.3015e-05
4890.0 1.5349e-05
4910.0 1.3466e-05
4930.0 1.1916e-05
4950.0 1.3091e-05
4970.0 1.6789e-05
4990.0 2.2753e-05
5010.0 2.6174e-05
5030.0 2.308e-05
5050.0 1.5615e-05
5070.0 1.0291e-05
5090.0 8.298e-06
5110.0 8.5337e-06
5130.0 9.8492e-06
5150.0 1.0671e-05
5170.0 1.0511e-05
5190.0 9.8216e-06
5210.0 1.0266e-05
5230.0 1.0792e-05
5250.0 1.1631e-05
5270.0 1.2549e-05
5290.0 1.3906e-05
5310.0 1.6187e-05
5330.0 1.7913e-05
5350.0 1.7799e-05
5370.0 1.8696e-05
5390.0 2.1454e-05
5410.0 2.1435e-05
5430.0 1.8956e-05
5450.0 1.7416e-05
5470.0 1.8493e-05
5490.0 2.2593e-05
5510.0 2.8249e-05
5530.0 3.2401e-05
5550.0 3.1316e-05
5570.0 2.8468e-05
5590.0 2.4754e-05
5610.0 2.2829e-05
5630.0 2.2137e-05
5650.0 2.1083e-05
5670.0 1.9978e-05
5690.0 1.786e-05
5710.0 1.7414e-05
5730.0 1.6041e-05
5750.0 1.131e-05
5770.0 8.8236e-06
5790.0 9.9991e-06
5810.0 1.1291e-05
5830.0 1.3855e-05
5850.0 1.6493e-05
5870.0 1.83e-05
5890.0 1.861e-05
5910.0 1.8258e-05
5930.0 1.7379e-05
5950.0 1.7709e-05
5970.0 2.0186e-05
5990.0 1.8981e-05
6010.0 1.5911e-05
6030.0 1.3443e-05
6050.0 1.1707e-05
6070.0 1.1643e-05
6090.0 1.2625e-05
6110.0 1.4117e-05
6130.0 1.4333e-05
6150.0 1.2332e-05
6170.0 1.0849e-05
6190.0 1.2208e-05
6210.0 1.6139e-05
6230.0 2.1179e-05
6250.0 2.294e-05
6270.0 2.0047e-05
6290.0 1.6866e-05
6310.0 1.3167e-05
6330.0 1.0089e-05
6350.0 8.9987e-06
6370.0 9.4631e-06
6390.0 1.094e-05
6410.0 1.3489e-05
6430.0 1.5752e-05
6450.0 1.8024e-05
6470.0 2.0638e-05
6490.0 2.493e-05
6510.0 2.7874e-05
6530.0 2.7347e-05
6550.0 2.4729e-05
6570.0 2.0992e-05
6590.0 1.8929e-05
6610.0 1.6322e-05
6630.0 1.4787e-05
6650.0 1.3978e-05
6670.0 1.3579e-05
6690.0 1.227e-05
6710.0 1.1153e-05
6730.0 8.0336e-06
6750.0 7.9645e-06
6770.0 8.6568e-06
6790.0 9.9504e-06
6810.0 9.1048e-06
6830.0 9.3754e-06
6850.0 8.769e-06
6870.0 8.0105e-06
6890.0 7.6913e-06
6910.0 8.1961e-06
6930.0 7.6768e-06
6950.0 7.8981e-06
6970.0 8.3074e-06
6990.0 9.4295e-06
7010.0 9.5099e-06
7030.0 9.6609e-06
7050.0 9.2132e-06
7070.0 8.7786e-06
7090.0 8.8043e-06
7110.0 9.0589e-06
7130.0 9.7488e-06
7150.0 1.0354e-05
7170.0 1.1425e-05
7190.0 1.2559e-05
7210.0 1.2341e-05
7230.0 1.2687e-05
7250.0 1.3634e-05
7270.0 1.4858e-05
7290.0 1.7635e-05
7310.0 1.9135e-05
7330.0 1.8496e-05
7350.0 1.6728e-05
7370.0 1.4555e-05
7390.0 1.412e-05
7410.0 1.5006e-05
7430.0 1.6677e-05
7450.0 1.8164e-05
7470.0 1.7997e-05
7490.0 1.641e-05
7510.0 1.8589e-05
7530.0 1.8385e-05
7550.0 1.6525e-05
7570.0 1.2909e-05
7590.0 8.8744e-06
7610.0 7.6169e-06
7630.0 8.6542e-06
7650.0 1.0232e-05
7670.0 1.2735e-05
7690.0 1.4014e-05
7710.0 1.4604e-05
7730.0 1.5347e-05
7750.0 1.7229e-05
7770.0 1.75e-05
7790.0 1.6074e-05
7810.0 1.4667e-05
7830.0 1.5125e-05
7850.0 1.4703e-05
7870.0 1.348e-05
7890.0 1.1326e-05
7910.0 9.2063e-06
7930.0 8.7906e-06
7950.0 8.0085e-06
7970.0 7.4133e-06
7990.0 7.371e-06
8010.0 5.4592e-07
8030.0 5.3882e-07
8050.0 5.3155e-07
8070.0 5.3851e-07
8090.0 5.7862e-07
8110.0 5.6876e-07
8130.0 4.6916e-07
8150.0 4.569e-07
8170.0 3.9356e-07
8190.0 3.7298e-07
8210.0 4.8435e-07
8230.0 5.3926e-07
8250.0 4.8603e-07
8270.0 4.2302e-07
8290.0 4.1237e-07
8310.0 3.1737e-07
8330.0 2.1391e-07
8350.0 1.5181e-07
8370.0 9.5646e-08
8390.0 1.7484e-07
8410.0 2.0374e-07
8430.0 2.5113e-07
8450.0 2.949e-07
8470.0 3.6654e-07
8490.0 3.6396e-07
8510.0 3.5801e-07
8530.0 3.7363e-07
8550.0 5.041e-07
8570.0 5.9678e-07
8590.0 6.4392e-07
8610.0 8.1341e-07
8630.0 9.7987e-07
8650.0 1.0251e-06
8670.0 1.0893e-06
8690.0 1.0954e-06
8710.0 9.9205e-07
8730.0 9.2277e-07
8750.0 8.1451e-07
8770.0 7.7285e-07
8790.0 7.5928e-07
8810.0 7.2756e-07
8830.0 5.818e-07
8850.0 4.2592e-07
8870.0 3.2612e-07
8890.0 3.1883e-07
8910.0 3.6539e-07
8930.0 4.156e-07
8950.0 4.2356e-07
8970.0 4.2556e-07
8990.0 3.7955e-07
9010.0 3.9775e-06
9030.0 3.6041e-06
9050.0 3.6215e-06
9070.0 3.6501e-06
9090.0 3.6752e-06
9110.0 3.7061e-06
9130.0 3.73e-06
9150.0 3.7486e-06
9170.0 3.7684e-06
9190.0 3.7895e-06
9210.0 3.8118e-06
9230.0 3.8353e-06
9250.0 3.8591e-06
9270.0 3.8839e-06
9290.0 3.9094e-06
9310.0 3.9351e-06
9330.0 3.9612e-06
9350.0 3.9884e-06
9370.0 4.0159e-06
9390.0 4.0436e-06
9410.0 4.0721e-06
9430.0 4.1015e-06
9450.0 4.1308e-06
9470.0 4.1607e-06
9490.0 4.1915e-06
9510.0 4.2226e-06
9530.0 4.2539e-06
9550.0 4.2863e-06
9570.0 4.3192e-06
9590.0 4.3522e-06
9610.0 4.3858e-06
9630.0 4.4203e-06
9650.0 4.4551e-06
9670.0 4.49e-06
9690.0 4.5258e-06
9710.0 4.5621e-06
9730.0 4.5985e-06
9750.0 4.6355e-06
9770.0 4.6735e-06
9790.0 4.7115e-06
9810.0 4.7497e-06
9830.0 4.7887e-06
9850.0 4.8282e-06
9870.0 4.8676e-06
9890.0 4.9075e-06
9910.0 4.9483e-06
9930.0 4.989e-06
9950.0 5.0299e-06
9970.0 5.0717e-06
9990.0 5.1138e-06
10010.0 4.4374e-06
10030.0 4.4739e-06
10050.0 4.5111e-06
10070.0 4.5495e-06
10090.0 4.5857e-06
10110.0 4.6229e-06
10130.0 4.6601e-06
10150.0 4.6973e-06
10170.0 4.7349e-06
10190.0 4.7732e-06
10210.0 4.811e-06
10230.0 4.8487e-06
10250.0 4.887e-06
10270.0 4.9253e-06
10290.0 4.9631e-06
10310.0 5.0013e-06
10330.0 5.04e-06
10350.0 5.078e-06
10370.0 5.1159e-06
10390.0 5.1542e-06
10410.0 5.1923e-06
10430.0 5.2297e-06
10450.0 5.2675e-06
10470.0 5.3054e-06
10490.0 5.3426e-06
10510.0 5.3795e-06
10530.0 5.4171e-06
10550.0 5.4541e-06
10570.0 5.4903e-06
10590.0 5.5266e-06
10610.0 5.563e-06
10630.0 5.5984e-06
10650.0 5.6336e-06
10670.0 5.6691e-06
10690.0 5.7039e-06
10710.0 5.738e-06
10730.0 5.7721e-06
10750.0 5.8063e-06
10770.0 5.8392e-06
10790.0 5.8717e-06
10810.0 5.9042e-06
10830.0 5.9357e-06
10850.0 5.9656e-06
10870.0 5.9946e-06
10890.0 6.0201e-06
10910.0 6.0397e-06
10930.0 6.0508e-06
10950.0 6.0482e-06
10970.0 6.0277e-06
10990.0 5.9875e-06
11010.0 5.9202e-06
11030.0 5.8261e-06
11050.0 5.7113e-06
11070.0 5.574e-06
11090.0 5.4091e-06
11110.0 5.2385e-06
11130.0 5.0606e-06
11150.0 4.869e-06
11170.0 4.6715e-06
11190.0 4.48e-06
11210.0 4.2821e-06
11230.0 4.0793e-06
11250.0 3.8854e-06
11270.0 3.6993e-06
11290.0 3.5128e-06
11310.0 3.3361e-06
11330.0 3.1805e-06
11350.0 3.0336e-06
11370.0 2.8978e-06
11390.0 2.7802e-06
11410.0 2.6775e-06
11430.0 2.5819e-06
11450.0 2.4996e-06
11470.0 2.4285e-06
11490.0 2.3623e-06
11510.0 2.2985e-06
11530.0 2.2393e-06
11550.0 2.1804e-06
11570.0 2.1177e-06
11590.0 2.0527e-06
11610.0 1.9866e-06
11630.0 1.9146e-06
11650.0 1.8375e-06
11670.0 1.7615e-06
11690.0 1.6845e-06
11710.0 1.605e-06
11730.0 1.5281e-06
11750.0 1.4568e-06
11770.0 1.3869e-06
11790.0 1.3214e-06
11810.0 1.2638e-06
11830.0 1.2122e-06
11850.0 1.1647e-06
11870.0 1.125e-06
11890.0 1.0919e-06
11910.0 1.0629e-06
11930.0 1.038e-06
11950.0 1.0172e-06
11970.0 9.9865e-07
11990.0 9.811e-07
12010.0 9.6488e-07
12030.0 9.4924e-07
12050.0 9.3307e-07
12070.0 9.1625e-07
12090.0 9.0004e-07
12110.0 8.8358e-07
12130.0 8.6709e-07
12150.0 8.5189e-07
12170.0 8.3862e-07
12190.0 8.2714e-07
12210.0 8.1913e-07
12230.0 8.1526e-07
12250.0 8.1588e-07
12270.0 8.2204e-07
12290.0 8.3367e-07
12310.0 8.5035e-07
12330.0 8.7369e-07
12350.0 9.0282e-07
12370.0 9.3598e-07
12390.0 9.7422e-07
12410.0 1.019e-06
12430.0 1.0646e-06
12450.0 1.1117e-06
12470.0 1.1619e-06
12490.0 1.2122e-06
12510.0 1.2595e-06
12530.0 1.3065e-06
12550.0 1.3518e-06
12570.0 1.3919e-06
12590.0 1.427e-06
12610.0 1.4583e-06
12630.0 1.4833e-06
12650.0 1.5005e-06
12670.0 1.5118e-06
12690.0 1.5164e-06
12710.0 1.5139e-06
12730.0 1.5051e-06
12750.0 1.4894e-06
12770.0 1.4679e-06
12790.0 1.4419e-06
12810.0 1.4108e-06
12830.0 1.3748e-06
12850.0 1.3371e-06
12870.0 1.2973e-06
12890.0 1.2543e-06
12910.0 1.2105e-06
12930.0 1.1673e-06
12950.0 1.1223e-06
12970.0 1.0765e-06
12990.0 1.0331e-06
13010.0 9.9029e-07
13030.0 9.4699e-07
13050.0 9.054e-07
13070.0 8.6644e-07
13090.0 8.2734e-07
13110.0 7.8952e-07
13130.0 7.5465e-07
13150.0 7.2162e-07
13170.0 6.8929e-07
13190.0 6.6052e-07
13210.0 6.3519e-07
13230.0 6.1204e-07
13250.0 5.9211e-07
13270.0 5.7638e-07
13290.0 5.6415e-07
13310.0 5.5573e-07
13330.0 5.5189e-07
13350.0 5.5234e-07
13370.0 5.5729e-07
13390.0 5.6702e-07
13410.0 5.8017e-07
13430.0 5.9727e-07
13450.0 6.1839e-07
13470.0 6.4183e-07
13490.0 6.6666e-07
13510.0 6.9467e-07
13530.0 7.2306e-07
13550.0 7.5023e-07
13570.0 7.7702e-07
13590.0 8.0314e-07
13610.0 8.2637e-07
13630.0 8.4665e-07
13650.0 8.6516e-07
13670.0 8.8053e-07
13690.0 8.9241e-07
13710.0 9.0161e-07
13730.0 9.0817e-07
13750.0 9.1145e-07
13770.0 9.122e-07
13790.0 9.1054e-07
13810.0 9.0652e-07
13830.0 9.0059e-07
13850.0 8.9254e-07
13870.0 8.8239e-07
13890.0 8.7078e-07
13910.0 8.5771e-07
13930.0 8.4256e-07
13950.0 8.2604e-07
13970.0 8.0913e-07
13990.0 7.9073e-07
14010.0 7.7116e-07
14030.0 7.5163e-07
14050.0 7.3196e-07
14070.0 7.1119e-07
14090.0 6.9128e-07
14110.0 6.7258e-07
14130.0 6.5445e-07
14150.0 6.3738e-07
14170.0 6.2282e-07
14190.0 6.1022e-07
14210.0 5.9954e-07
14230.0 5.9163e-07
14250.0 5.8651e-07
14270.0 5.8404e-07
14290.0 5.8456e-07
14310.0 5.8782e-07
14330.0 5.9367e-07
14350.0 6.0228e-07
14370.0 6.1301e-07
14390.0 6.2519e-07
14410.0 6.3954e-07
14430.0 6.553e-07
14450.0 6.7139e-07
14470.0 6.8808e-07
14490.0 7.0584e-07
14510.0 7.2282e-07
14530.0 7.3894e-07
14550.0 7.5506e-07
14570.0 7.7053e-07
14590.0 7.8462e-07
14610.0 7.9824e-07
14630.0 8.1172e-07
14650.0 8.2428e-07
14670.0 8.3641e-07
14690.0 8.4905e-07
14710.0 8.6235e-07
14730.0 8.7564e-07
14750.0 8.9036e-07
14770.0 9.0707e-07
14790.0 9.2518e-07
14810.0 9.448e-07
14830.0 9.6805e-07
14850.0 9.9332e-07
14870.0 1.0197e-06
14890.0 1.0481e-06
14910.0 1.0783e-06
14930.0 1.1074e-06
14950.0 1.1345e-06
14970.0 1.1602e-06
14990.0 1.1818e-06
15010.0 1.1982e-06
15030.0 1.2105e-06
15050.0 1.2185e-06
15070.0 1.2225e-06
15090.0 1.2238e-06
15110.0 1.2234e-06
15130.0 1.2219e-06
15150.0 1.2198e-06
15170.0 1.2174e-06
15190.0 1.2148e-06
15210.0 1.2122e-06
15230.0 1.2096e-06
15250.0 1.2069e-06
15270.0 1.2043e-06
15290.0 1.2018e-06
15310.0 1.1992e-06
15330.0 1.1966e-06
15350.0 1.1941e-06
15370.0 1.1917e-06
15390.0 1.1891e-06
15410.0 1.1866e-06
15430.0 1.1841e-06
15450.0 1.1816e-06
15470.0 1.1791e-06
15490.0 1.1767e-06
15510.0 1.1743e-06
15530.0 1.1718e-06
15550.0 1.1694e-06
15570.0 1.1671e-06
15590.0 1.1646e-06
15610.0 1.1621e-06
15630.0 1.1598e-06
15650.0 1.1574e-06
15670.0 1.155e-06
15690.0 1.1527e-06
15710.0 1.1504e-06
15730.0 1.148e-06
15750.0 1.1456e-06
15770.0 1.1433e-06
15790.0 1.141e-06
15810.0 1.1386e-06
15830.0 1.1363e-06
15850.0 1.134e-06
15870.0 1.1317e-06
15890.0 1.1294e-06
15910.0 1.1271e-06
15930.0 1.1249e-06
15950.0 1.1225e-06
15970.0 1.1202e-06
15990.0 1.118e-06
16010.0 1.1156e-06
16030.0 1.1133e-06
16050.0 1.1111e-06
16070.0 1.1088e-06
16090.0 1.1065e-06
16110.0 1.1042e-06
16130.0 1.102e-06
16150.0 1.0997e-06
16170.0 1.0974e-06
16190.0 1.0952e-06
16210.0 1.0929e-06
16230.0 1.0905e-06
16250.0 1.0883e-06
16270.0 1.0861e-06
16290.0 1.0838e-06
16310.0 1.0815e-06
16330.0 1.0793e-06
16350.0 1.077e-06
16370.0 1.0746e-06
16390.0 1.0723e-06
16410.0 1.0701e-06
16430.0 1.0678e-06
16450.0 1.0655e-06
16470.0 1.0633e-06
16490.0 1.061e-06
16510.0 1.0586e-06
16530.0 1.0563e-06
16550.0 1.0541e-06
16570.0 1.0517e-06
16590.0 1.0493e-06
16610.0 1.0471e-06
16630.0 1.0448e-06
16650.0 1.0424e-06
16670.0 1.0401e-06
16690.0 1.0378e-06
16710.0 1.0354e-06
16730.0 1.0331e-06
16750.0 1.0308e-06
16770.0 1.0284e-06
16790.0 1.026e-06
16810.0 1.0237e-06
16830.0 1.0214e-06
16850.0 1.0189e-06
16870.0 1.0166e-06
16890.0 1.0142e-06
16910.0 1.0118e-06
16930.0 1.0093e-06
16950.0 1.007e-06
16970.0 1.0046e-06
16990.0 1.0021e-06
17010.0 9.9974e-07
17030.0 9.9739e-07
17050.0 9.9492e-07
17070.0 9.9244e-07
17090.0 9.9005e-07
17110.0 9.8763e-07
17130.0 9.8507e-07
17150.0 9.8262e-07
17170.0 9.8023e-07
17190.0 9.7772e-07
17210.0 9.7521e-07
17230.0 9.7281e-07
17250.0 9.7032e-07
17270.0 9.6774e-07
17290.0 9.6525e-07
17310.0 9.6279e-07
17330.0 9.6023e-07
17350.0 9.5764e-07
17370.0 9.552e-07
17390.0 9.5267e-07
17410.0 9.5008e-07
17430.0 9.4756e-07
17450.0 9.4508e-07
17470.0 9.4242e-07
17490.0 9.3982e-07
17510.0 9.3731e-07
17530.0 9.3472e-07
17550.0 9.3207e-07
17570.0 9.2952e-07
17590.0 9.2699e-07
17610.0 9.2432e-07
17630.0 9.217e-07
17650.0 9.1914e-07
17670.0 9.1651e-07
17690.0 9.1377e-07
17710.0 9.1119e-07
17730.0 9.0859e-07
17750.0 9.059e-07
17770.0 9.0324e-07
17790.0 9.0067e-07
17810.0 8.9798e-07
17830.0 8.9525e-07
17850.0 8.9261e-07
17870.0 8.8997e-07
17890.0 8.8721e-07
17910.0 8.8449e-07
17930.0 8.8188e-07
17950.0 8.7917e-07
17970.0 8.7642e-07
17990.0 8.7376e-07
18010.0 8.7109e-07
18030.0 8.6827e-07
18050.0 8.6554e-07
18070.0 8.6287e-07
18090.0 8.6012e-07
18110.0 8.5731e-07
18130.0 8.5464e-07
18150.0 8.5193e-07
18170.0 8.4912e-07
18190.0 8.4638e-07
18210.0 8.4369e-07
18230.0 8.4087e-07
18250.0 8.3803e-07
18270.0 8.3532e-07
18290.0 8.3257e-07
18310.0 8.2973e-07
18330.0 8.2697e-07
18350.0 8.2427e-07
18370.0 8.2143e-07
18390.0 8.186e-07
18410.0 8.1586e-07
18430.0 8.1307e-07
18450.0 8.1017e-07
18470.0 8.0739e-07
18490.0 8.0465e-07
18510.0 8.0181e-07
18530.0 7.9897e-07
18550.0 7.9624e-07
18570.0 7.9342e-07
18590.0 7.9052e-07
18610.0 7.8772e-07
18630.0 7.8494e-07
18650.0 7.8207e-07
18670.0 7.7919e-07
18690.0 7.7645e-07
18710.0 7.7363e-07
18730.0 7.7074e-07
18750.0 7.6794e-07
18770.0 7.6518e-07
18790.0 7.6224e-07
18810.0 7.5937e-07
18830.0 7.566e-07
18850.0 7.5375e-07
18870.0 7.5085e-07
18890.0 7.4805e-07
18910.0 7.4527e-07
18930.0 7.4236e-07
18950.0 7.395e-07
18970.0 7.3672e-07
18990.0 7.3386e-07
19010.0 7.309e-07
19030.0 7.2811e-07
19050.0 7.2531e-07
19070.0 7.2241e-07
19090.0 7.1956e-07
19110.0 7.168e-07
19130.0 7.139e-07
19150.0 7.11e-07
19170.0 7.0819e-07
19190.0 7.0537e-07
19210.0 7.0244e-07
19230.0 6.9957e-07
19250.0 6.9681e-07
19270.0 6.9394e-07
19290.0 6.9105e-07
19310.0 6.8826e-07
19330.0 6.8545e-07
19350.0 6.825e-07
19370.0 6.7966e-07
19390.0 6.7687e-07
19410.0 6.7399e-07
19430.0 6.7109e-07
19450.0 6.6832e-07
19470.0 6.655e-07
19490.0 6.626e-07
19510.0 6.5977e-07
19530.0 6.57e-07
19550.0 6.541e-07
19570.0 6.5119e-07
19590.0 6.4842e-07
19610.0 6.456e-07
19630.0 6.4271e-07
19650.0 6.399e-07
19670.0 6.3714e-07
19690.0 6.3425e-07
19710.0 6.3139e-07
19730.0 6.2861e-07
19750.0 6.2579e-07
19770.0 6.2287e-07
19790.0 6.2007e-07
19810.0 6.173e-07
19830.0 6.1443e-07
19850.0 6.1155e-07
19870.0 6.0871e-07
19890.0 6.0568e-07
19910.0 6.0234e-07
19930.0 5.9876e-07
19950.0 5.9467e-07
19970.0 5.8964e-07
19990.0 5.8358e-07
20010.0 5.1921e-07
20030.0 5.117e-07
20050.0 5.029e-07
20070.0 4.9337e-07
20090.0 4.8312e-07
20110.0 4.7152e-07
20130.0 4.5979e-07
20150.0 4.4815e-07
20170.0 4.3609e-07
20190.0 4.2386e-07
20210.0 4.123e-07
20230.0 4.0103e-07
20250.0 3.8974e-07
20270.0 3.7926e-07
20290.0 3.6969e-07
20310.0 3.6059e-07
20330.0 3.5209e-07
20350.0 3.4504e-07
20370.0 3.3878e-07
20390.0 3.3329e-07
20410.0 3.2885e-07
20430.0 3.2543e-07
20450.0 3.2272e-07
20470.0 3.2091e-07
20490.0 3.1993e-07
20510.0 3.1965e-07
20530.0 3.2005e-07
20550.0 3.2104e-07
20570.0 3.2247e-07
20590.0 3.2442e-07
20610.0 3.2678e-07
20630.0 3.2937e-07
20650.0 3.3228e-07
20670.0 3.356e-07
20690.0 3.3898e-07
20710.0 3.4248e-07
20730.0 3.4625e-07
20750.0 3.5019e-07
20770.0 3.5407e-07
20790.0 3.5814e-07
20810.0 3.6244e-07
20830.0 3.6673e-07
20850.0 3.7103e-07
20870.0 3.7564e-07
20890.0 3.8033e-07
20910.0 3.8486e-07
20930.0 3.8957e-07
20950.0 3.9444e-07
20970.0 3.9919e-07
20990.0 4.0387e-07
21010.0 4.088e-07
21030.0 4.1362e-07
21050.0 4.1821e-07
21070.0 4.228e-07
21090.0 4.2741e-07
21110.0 4.3161e-07
21130.0 4.3555e-07
21150.0 4.3937e-07
21170.0 4.4283e-07
21190.0 4.4581e-07
21210.0 4.4849e-07
21230.0 4.5071e-07
21250.0 4.523e-07
21270.0 4.5331e-07
21290.0 4.5369e-07
21310.0 4.5332e-07
21330.0 4.5226e-07
21350.0 4.5038e-07
21370.0 4.4762e-07
21390.0 4.4411e-07
21410.0 4.3982e-07
21430.0 4.3439e-07
21450.0 4.2829e-07
21470.0 4.2164e-07
21490.0 4.1412e-07
21510.0 4.0588e-07
21530.0 3.975e-07
21550.0 3.8873e-07
21570.0 3.7937e-07
21590.0 3.7017e-07
21610.0 3.6127e-07
21630.0 3.5237e-07
21650.0 3.4367e-07
21670.0 3.3613e-07
21690.0 3.2918e-07
21710.0 3.2292e-07
21730.0 3.1779e-07
21750.0 3.1383e-07
21770.0 3.1082e-07
21790.0 3.0908e-07
21810.0 3.086e-07
21830.0 3.0929e-07
21850.0 3.1122e-07
21870.0 3.1424e-07
21890.0 3.1813e-07
21910.0 3.2313e-07
21930.0 3.2898e-07
21950.0 3.3533e-07
21970.0 3.4236e-07
21990.0 3.5026e-07
22010.0 3.5814e-07
22030.0 3.6615e-07
22050.0 3.7457e-07
22070.0 3.8303e-07
22090.0 3.9104e-07
22110.0 3.9911e-07
22130.0 4.0717e-07
22150.0 4.147e-07
22170.0 4.218e-07
22190.0 4.2884e-07
22210.0 4.3538e-07
22230.0 4.4114e-07
22250.0 4.4657e-07
22270.0 4.5156e-07
22290.0 4.5583e-07
22310.0 4.595e-07
22330.0 4.6272e-07
22350.0 4.6522e-07
22370.0 4.6698e-07
22390.0 4.6808e-07
22410.0 4.6842e-07
22430.0 4.6798e-07
22450.0 4.6677e-07
22470.0 4.6469e-07
22490.0 4.6176e-07
22510.0 4.5812e-07
22530.0 4.5345e-07
22550.0 4.4777e-07
22570.0 4.4148e-07
22590.0 4.3438e-07
22610.0 4.2621e-07
