#lamb flux
1010.0 7.3447e-09
1030.0 8.1233e-09
1050.0 9.0188e-09
1070.0 1.0027e-08
1090.0 1.1172e-08
1110.0 1.2346e-08
1130.0 1.3528e-08
1150.0 1.4767e-08
1170.0 1.6044e-08
1190.0 1.7255e-08
1210.0 1.8482e-08
1230.0 1.9751e-08
1250.0 2.0994e-08
1270.0 2.2201e-08
1290.0 2.3476e-08
1310.0 2.475e-08
1330.0 2.5972e-08
1350.0 2.7208e-08
1370.0 2.8484e-08
1390.0 2.9728e-08
1410.0 3.0935e-08
1430.0 3.2197e-08
1450.0 3.3459e-08
1470.0 3.4679e-08
1490.0 3.5912e-08
1510.0 3.7214e-08
1530.0 3.8448e-08
1550.0 3.9666e-08
1570.0 4.0926e-08
1590.0 4.2188e-08
1610.0 4.3394e-08
1630.0 4.4637e-08
1650.0 4.5914e-08
1670.0 4.7149e-08
1690.0 4.837e-08
1710.0 4.9639e-08
1730.0 5.0915e-08
1750.0 5.2117e-08
1770.0 5.3355e-08
1790.0 5.462e-08
1810.0 5.5846e-08
1830.0 5.7052e-08
1850.0 5.8334e-08
1870.0 5.9584e-08
1890.0 6.0795e-08
1910.0 6.2033e-08
1930.0 6.3303e-08
1950.0 6.4518e-08
1970.0 6.5721e-08
1990.0 6.6972e-08
2010.0 6.8205e-08
2030.0 6.9397e-08
2050.0 7.0629e-08
2070.0 7.1893e-08
2090.0 7.3089e-08
2110.0 7.4285e-08
2130.0 7.5518e-08
2150.0 7.6731e-08
2170.0 7.7893e-08
2190.0 7.9102e-08
2210.0 8.032e-08
2230.0 8.1491e-08
2250.0 8.2658e-08
2270.0 8.3879e-08
2290.0 8.5064e-08
2310.0 8.6203e-08
2330.0 8.7388e-08
2350.0 8.8605e-08
2370.0 8.9817e-08
2390.0 9.1129e-08
2410.0 9.2684e-08
2430.0 9.4473e-08
2450.0 9.6611e-08
2470.0 9.935e-08
2490.0 1.028e-07
2510.0 1.0673e-07
2530.0 1.1145e-07
2550.0 1.1736e-07
2570.0 1.2472e-07
2590.0 1.3429e-07
2610.0 1.4862e-07
2630.0 1.6907e-07
2650.0 1.9581e-07
2670.0 2.3039e-07
2690.0 2.7289e-07
2710.0 3.1825e-07
2730.0 3.6307e-07
2750.0 4.0721e-07
2770.0 4.4561e-07
2790.0 4.761e-07
2810.0 5.003e-07
2830.0 5.1921e-07
2850.0 5.3211e-07
2870.0 5.4159e-07
2890.0 5.4909e-07
2910.0 5.5507e-07
2930.0 5.5996e-07
2950.0 5.6463e-07
2970.0 5.692e-07
2990.0 5.7348e-07
3010.0 1.621e-05
3030.0 1.6331e-05
3050.0 1.6448e-05
3070.0 1.6548e-05
3090.0 1.6634e-05
3110.0 1.6688e-05
3130.0 1.6686e-05
3150.0 1.6612e-05
3170.0 1.6434e-05
3190.0 1.6154e-05
3210.0 1.58e-05
3230.0 1.5394e-05
3250.0 1.4994e-05
3270.0 1.4702e-05
3290.0 1.4539e-05
3310.0 1.4566e-05
3330.0 1.4776e-05
3350.0 1.5143e-05
3370.0 1.5668e-05
3390.0 1.6328e-05
3410.0 1.7047e-05
3430.0 1.7854e-05
3450.0 1.8783e-05
3470.0 1.9798e-05
3490.0 2.0873e-05
3510.0 2.2088e-05
3530.0 2.339e-05
3550.0 2.4708e-05
3570.0 2.6082e-05
3590.0 2.7577e-05
3610.0 2.9117e-05
3630.0 3.0653e-05
3650.0 3.2246e-05
3670.0 3.3701e-05
3690.0 3.4788e-05
3710.0 3.5411e-05
3730.0 3.5432e-05
3750.0 3.4939e-05
3770.0 3.4745e-05
3790.0 3.4538e-05
3810.0 3.369e-05
3830.0 3.4732e-05
3850.0 3.8835e-05
3870.0 4.1087e-05
3890.0 4.0899e-05
3910.0 4.1074e-05
3930.0 4.2155e-05
3950.0 4.2821e-05
3970.0 3.9013e-05
3990.0 3.3569e-05
4010.0 0.00010061
4030.0 0.00012191
4050.0 0.00013976
4070.0 0.00012126
4090.0 0.00010983
4110.0 9.6912e-05
4130.0 8.9198e-05
4150.0 9.4879e-05
4170.0 9.346e-05
4190.0 9.9622e-05
4210.0 9.8711e-05
4230.0 0.00010441
4250.0 0.00012352
4270.0 0.00012497
4290.0 0.00011516
4310.0 0.00011966
4330.0 0.00012728
4350.0 0.00014271
4370.0 0.00016241
4390.0 0.0001524
4410.0 0.0001126
4430.0 9.5324e-05
4450.0 8.7592e-05
4470.0 6.723e-05
4490.0 7.2549e-05
4510.0 0.00010959
4530.0 0.00012639
4550.0 0.00012748
4570.0 0.00014345
4590.0 0.0001634
4610.0 0.00022039
4630.0 0.00028624
4650.0 0.00031043
4670.0 0.00028749
4690.0 0.00027431
4710.0 0.00028997
4730.0 0.00027365
4750.0 0.00020459
4770.0 0.00015007
4790.0 0.00014014
4810.0 0.00013357
4830.0 0.00012229
4850.0 0.00013419
4870.0 0.00017727
4890.0 0.00020906
4910.0 0.00018342
4930.0 0.0001623
4950.0 0.00017831
4970.0 0.00022867
4990.0 0.00030991
5010.0 0.00035651
5030.0 0.00031436
5050.0 0.00021268
5070.0 0.00014017
5090.0 0.00011302
5110.0 0.00011623
5130.0 0.00013415
5150.0 0.00014534
5170.0 0.00014316
5190.0 0.00013378
5210.0 0.00013983
5230.0 0.00014699
5250.0 0.00015841
5270.0 0.00017091
5290.0 0.00018941
5310.0 0.00022046
5330.0 0.00024397
5350.0 0.00024241
5370.0 0.00025463
5390.0 0.00029219
5410.0 0.00029192
5430.0 0.00025816
5450.0 0.00023719
5470.0 0.00025185
5490.0 0.00030769
5510.0 0.00038472
5530.0 0.00044125
5550.0 0.00042647
5570.0 0.00038769
5590.0 0.0003371
5610.0 0.00031088
5630.0 0.00030146
5650.0 0.00028711
5670.0 0.00027205
5690.0 0.00024321
5710.0 0.00023714
5730.0 0.00021844
5750.0 0.00015401
5770.0 0.00012015
5790.0 0.00013616
5810.0 0.00015375
5830.0 0.00018867
5850.0 0.00022458
5870.0 0.00024918
5890.0 0.0002534
5910.0 0.0002486
5930.0 0.00023664
5950.0 0.00024113
5970.0 0.00027486
5990.0 0.00025844
6010.0 0.00021665
6030.0 0.00018303
6050.0 0.0001594
6070.0 0.00015853
6090.0 0.0001719
6110.0 0.00019221
6130.0 0.00019515
6150.0 0.00016791
6170.0 0.00014771
6190.0 0.00016623
6210.0 0.00021975
6230.0 0.00028837
6250.0 0.00031235
6270.0 0.00027295
6290.0 0.00022965
6310.0 0.00017928
6330.0 0.00013736
6350.0 0.00012252
6370.0 0.00012885
6390.0 0.00014895
6410.0 0.00018367
6430.0 0.00021447
6450.0 0.00024541
6470.0 0.000281
6490.0 0.00033943
6510.0 0.00037953
6530.0 0.00037234
6550.0 0.0003367
6570.0 0.00028583
6590.0 0.00025774
6610.0 0.00022224
6630.0 0.00020134
6650.0 0.00019032
6670.0 0.00018489
6690.0 0.00016706
6710.0 0.00015186
6730.0 0.00010938
6750.0 0.00010844
6770.0 0.00011787
6790.0 0.00013548
6810.0 0.00012397
6830.0 0.00012765
6850.0 0.0001194
6870.0 0.00010907
6890.0 0.00010472
6910.0 0.00011159
6930.0 0.00010452
6950.0 0.00010754
6970.0 0.00011311
6990.0 0.00012839
7010.0 0.00012948
7030.0 0.00013154
7050.0 0.00012544
7070.0 0.00011953
7090.0 0.00011988
7110.0 0.00012334
7130.0 0.00013274
7150.0 0.00014098
7170.0 0.00015556
7190.0 0.000171
7210.0 0.00016803
7230.0 0.00017274
7250.0 0.00018564
7270.0 0.0002023
7290.0 0.00024011
7310.0 0.00026054
7330.0 0.00025183
7350.0 0.00022777
7370.0 0.00019818
7390.0 0.00019226
7410.0 0.00020431
7430.0 0.00022707
7450.0 0.00024732
7470.0 0.00024505
7490.0 0.00022343
7510.0 0.0002531
7530.0 0.00025033
7550.0 0.000225
7570.0 0.00017577
7590.0 0.00012083
7610.0 0.00010371
7630.0 0.00011784
7650.0 0.00013933
7670.0 0.0001734
7690.0 0.00019082
7710.0 0.00019886
7730.0 0.00020897
7750.0 0.0002346
7770.0 0.00023829
7790.0 0.00021888
7810.0 0.00019972
7830.0 0.00020595
7850.0 0.0002002
7870.0 0.00018356
7890.0 0.00015422
7910.0 0.00012536
7930.0 0.0001197
7950.0 0.00010905
7970.0 0.00010095
7990.0 0.00010037
8010.0 7.4372e-06
8030.0 7.3402e-06
8050.0 7.2416e-06
8070.0 7.337e-06
8090.0 7.8844e-06
8110.0 7.7499e-06
8130.0 6.3913e-06
8150.0 6.2247e-06
8170.0 5.3605e-06
8190.0 5.0793e-06
8210.0 6.5983e-06
8230.0 7.3468e-06
8250.0 6.6194e-06
8270.0 5.7609e-06
8290.0 5.6175e-06
8310.0 4.3239e-06
8330.0 2.9142e-06
8350.0 2.0683e-06
8370.0 1.3024e-06
8390.0 2.382e-06
8410.0 2.7756e-06
8430.0 3.4214e-06
8450.0 4.0176e-06
8470.0 4.9946e-06
8490.0 4.9588e-06
8510.0 4.8772e-06
8530.0 5.0889e-06
8550.0 6.8685e-06
8570.0 8.1326e-06
8590.0 8.7729e-06
8610.0 1.1083e-05
8630.0 1.3351e-05
8650.0 1.3963e-05
8670.0 1.484e-05
8690.0 1.4926e-05
8710.0 1.3517e-05
8730.0 1.2574e-05
8750.0 1.1098e-05
8770.0 1.053e-05
8790.0 1.0346e-05
8810.0 9.9145e-06
8830.0 7.9267e-06
8850.0 5.8018e-06
8870.0 4.4422e-06
8890.0 4.3446e-06
8910.0 4.9801e-06
8930.0 5.6654e-06
8950.0 5.7742e-06
8970.0 5.8012e-06
8990.0 5.173e-06
9010.0 5.4173e-05
9030.0 4.9086e-05
9050.0 4.9323e-05
9070.0 4.9712e-05
9090.0 5.0054e-05
9110.0 5.0476e-05
9130.0 5.0801e-05
9150.0 5.1054e-05
9170.0 5.1324e-05
9190.0 5.1612e-05
9210.0 5.1915e-05
9230.0 5.2235e-05
9250.0 5.2561e-05
9270.0 5.2898e-05
9290.0 5.3245e-05
9310.0 5.3595e-05
9330.0 5.3952e-05
9350.0 5.4322e-05
9370.0 5.4696e-05
9390.0 5.5074e-05
9410.0 5.5463e-05
9430.0 5.5863e-05
9450.0 5.6262e-05
9470.0 5.667e-05
9490.0 5.7089e-05
9510.0 5.7513e-05
9530.0 5.7939e-05
9550.0 5.838e-05
9570.0 5.8829e-05
9590.0 5.9278e-05
9610.0 5.9736e-05
9630.0 6.0206e-05
9650.0 6.068e-05
9670.0 6.1155e-05
9690.0 6.1642e-05
9710.0 6.2137e-05
9730.0 6.2634e-05
9750.0 6.3137e-05
9770.0 6.3656e-05
9790.0 6.4173e-05
9810.0 6.4693e-05
9830.0 6.5224e-05
9850.0 6.5763e-05
9870.0 6.6299e-05
9890.0 6.6843e-05
9910.0 6.7398e-05
9930.0 6.7953e-05
9950.0 6.8511e-05
9970.0 6.9079e-05
9990.0 6.9654e-05
10010.0 6.0441e-05
10030.0 6.0937e-05
10050.0 6.1444e-05
10070.0 6.1967e-05
10090.0 6.2461e-05
10110.0 6.2967e-05
10130.0 6.3475e-05
10150.0 6.3981e-05
10170.0 6.4493e-05
10190.0 6.5015e-05
10210.0 6.553e-05
10230.0 6.6043e-05
10250.0 6.6565e-05
10270.0 6.7087e-05
10290.0 6.7602e-05
10310.0 6.8123e-05
10330.0 6.865e-05
10350.0 6.9168e-05
10370.0 6.9684e-05
10390.0 7.0206e-05
10410.0 7.0725e-05
10430.0 7.1234e-05
10450.0 7.1749e-05
10470.0 7.2265e-05
10490.0 7.2772e-05
10510.0 7.3275e-05
10530.0 7.3787e-05
10550.0 7.4291e-05
10570.0 7.4784e-05
10590.0 7.5279e-05
10610.0 7.5774e-05
10630.0 7.6257e-05
10650.0 7.6736e-05
10670.0 7.722e-05
10690.0 7.7694e-05
10710.0 7.8158e-05
10730.0 7.8624e-05
10750.0 7.909e-05
10770.0 7.9537e-05
10790.0 7.998e-05
10810.0 8.0423e-05
10830.0 8.0852e-05
10850.0 8.126e-05
10870.0 8.1654e-05
10890.0 8.2001e-05
10910.0 8.2269e-05
10930.0 8.242e-05
10950.0 8.2385e-05
10970.0 8.2106e-05
10990.0 8.1558e-05
11010.0 8.0638e-05
11030.0 7.9355e-05
11050.0 7.7792e-05
11070.0 7.5922e-05
11090.0 7.3676e-05
11110.0 7.1352e-05
11130.0 6.8929e-05
11150.0 6.6319e-05
11170.0 6.3629e-05
11190.0 6.102e-05
11210.0 5.8325e-05
11230.0 5.5562e-05
11250.0 5.2922e-05
11270.0 5.0387e-05
11290.0 4.7846e-05
11310.0 4.544e-05
11330.0 4.3321e-05
11350.0 4.1319e-05
11370.0 3.9469e-05
11390.0 3.7869e-05
11410.0 3.6469e-05
11430.0 3.5168e-05
11450.0 3.4047e-05
11470.0 3.3077e-05
11490.0 3.2175e-05
11510.0 3.1306e-05
11530.0 3.05e-05
11550.0 2.9699e-05
11570.0 2.8844e-05
11590.0 2.7959e-05
11610.0 2.7058e-05
11630.0 2.6078e-05
11650.0 2.5028e-05
11670.0 2.3993e-05
11690.0 2.2944e-05
11710.0 2.1862e-05
11730.0 2.0813e-05
11750.0 1.9842e-05
11770.0 1.8891e-05
11790.0 1.7998e-05
11810.0 1.7213e-05
11830.0 1.6511e-05
11850.0 1.5864e-05
11870.0 1.5323e-05
11890.0 1.4873e-05
11910.0 1.4478e-05
11930.0 1.4138e-05
11950.0 1.3855e-05
11970.0 1.3602e-05
11990.0 1.3363e-05
12010.0 1.3142e-05
12030.0 1.2929e-05
12050.0 1.2709e-05
12070.0 1.248e-05
12090.0 1.2259e-05
12110.0 1.2035e-05
12130.0 1.181e-05
12150.0 1.1603e-05
12170.0 1.1423e-05
12190.0 1.1266e-05
12210.0 1.1157e-05
12230.0 1.1104e-05
12250.0 1.1113e-05
12270.0 1.1197e-05
12290.0 1.1355e-05
12310.0 1.1582e-05
12330.0 1.19e-05
12350.0 1.2297e-05
12370.0 1.2749e-05
12390.0 1.327e-05
12410.0 1.388e-05
12430.0 1.45e-05
12450.0 1.5142e-05
12470.0 1.5825e-05
12490.0 1.6511e-05
12510.0 1.7155e-05
12530.0 1.7795e-05
12550.0 1.8413e-05
12570.0 1.8958e-05
12590.0 1.9437e-05
12610.0 1.9863e-05
12630.0 2.0203e-05
12650.0 2.0438e-05
12670.0 2.0592e-05
12690.0 2.0654e-05
12710.0 2.062e-05
12730.0 2.05e-05
12750.0 2.0287e-05
12770.0 1.9994e-05
12790.0 1.9639e-05
12810.0 1.9216e-05
12830.0 1.8725e-05
12850.0 1.8213e-05
12870.0 1.767e-05
12890.0 1.7084e-05
12910.0 1.6487e-05
12930.0 1.59e-05
12950.0 1.5286e-05
12970.0 1.4662e-05
12990.0 1.4072e-05
13010.0 1.3488e-05
13030.0 1.2899e-05
13050.0 1.2332e-05
13070.0 1.1802e-05
13090.0 1.1269e-05
13110.0 1.0754e-05
13130.0 1.0279e-05
13150.0 9.8289e-06
13170.0 9.3886e-06
13190.0 8.9966e-06
13210.0 8.6517e-06
13230.0 8.3364e-06
13250.0 8.0649e-06
13270.0 7.8507e-06
13290.0 7.6841e-06
13310.0 7.5694e-06
13330.0 7.5171e-06
13350.0 7.5232e-06
13370.0 7.5907e-06
13390.0 7.7232e-06
13410.0 7.9024e-06
13430.0 8.1352e-06
13450.0 8.4229e-06
13470.0 8.7422e-06
13490.0 9.0804e-06
13510.0 9.4618e-06
13530.0 9.8485e-06
13550.0 1.0219e-05
13570.0 1.0584e-05
13590.0 1.0939e-05
13610.0 1.1256e-05
13630.0 1.1532e-05
13650.0 1.1784e-05
13670.0 1.1993e-05
13690.0 1.2155e-05
13710.0 1.228e-05
13730.0 1.237e-05
13750.0 1.2415e-05
13770.0 1.2425e-05
13790.0 1.2402e-05
13810.0 1.2347e-05
13830.0 1.2267e-05
13850.0 1.2157e-05
13870.0 1.2019e-05
13890.0 1.1861e-05
13910.0 1.1683e-05
13930.0 1.1476e-05
13950.0 1.1251e-05
13970.0 1.1021e-05
13990.0 1.077e-05
14010.0 1.0504e-05
14030.0 1.0238e-05
14050.0 9.9697e-06
14070.0 9.6868e-06
14090.0 9.4157e-06
14110.0 9.1609e-06
14130.0 8.914e-06
14150.0 8.6816e-06
14170.0 8.4832e-06
14190.0 8.3116e-06
14210.0 8.1661e-06
14230.0 8.0583e-06
14250.0 7.9887e-06
14270.0 7.9549e-06
14290.0 7.9621e-06
14310.0 8.0065e-06
14330.0 8.0862e-06
14350.0 8.2035e-06
14370.0 8.3496e-06
14390.0 8.5155e-06
14410.0 8.711e-06
14430.0 8.9256e-06
14450.0 9.1448e-06
14470.0 9.3721e-06
14490.0 9.614e-06
14510.0 9.8452e-06
14530.0 1.0065e-05
14550.0 1.0284e-05
14570.0 1.0495e-05
14590.0 1.0687e-05
14610.0 1.0873e-05
14630.0 1.1056e-05
14650.0 1.1227e-05
14670.0 1.1392e-05
14690.0 1.1565e-05
14710.0 1.1746e-05
14730.0 1.1927e-05
14750.0 1.2127e-05
14770.0 1.2355e-05
14790.0 1.2602e-05
14810.0 1.2869e-05
14830.0 1.3185e-05
14850.0 1.353e-05
14870.0 1.3889e-05
14890.0 1.4276e-05
14910.0 1.4688e-05
14930.0 1.5083e-05
14950.0 1.5453e-05
14970.0 1.5803e-05
14990.0 1.6096e-05
15010.0 1.6321e-05
15030.0 1.6487e-05
15050.0 1.6597e-05
15070.0 1.6651e-05
15090.0 1.667e-05
15110.0 1.6664e-05
15130.0 1.6643e-05
15150.0 1.6615e-05
15170.0 1.6582e-05
15190.0 1.6546e-05
15210.0 1.6511e-05
15230.0 1.6476e-05
15250.0 1.6439e-05
15270.0 1.6403e-05
15290.0 1.6369e-05
15310.0 1.6334e-05
15330.0 1.6299e-05
15350.0 1.6265e-05
15370.0 1.6231e-05
15390.0 1.6196e-05
15410.0 1.6162e-05
15430.0 1.6129e-05
15450.0 1.6095e-05
15470.0 1.606e-05
15490.0 1.6027e-05
15510.0 1.5995e-05
15530.0 1.5961e-05
15550.0 1.5928e-05
15570.0 1.5896e-05
15590.0 1.5863e-05
15610.0 1.5829e-05
15630.0 1.5797e-05
15650.0 1.5765e-05
15670.0 1.5732e-05
15690.0 1.57e-05
15710.0 1.5669e-05
15730.0 1.5637e-05
15750.0 1.5604e-05
15770.0 1.5573e-05
15790.0 1.5541e-05
15810.0 1.5508e-05
15830.0 1.5477e-05
15850.0 1.5446e-05
15870.0 1.5415e-05
15890.0 1.5383e-05
15910.0 1.5352e-05
15930.0 1.5321e-05
15950.0 1.5289e-05
15970.0 1.5258e-05
15990.0 1.5227e-05
16010.0 1.5196e-05
16030.0 1.5164e-05
16050.0 1.5134e-05
16070.0 1.5103e-05
16090.0 1.5071e-05
16110.0 1.5041e-05
16130.0 1.5011e-05
16150.0 1.4978e-05
16170.0 1.4947e-05
16190.0 1.4917e-05
16210.0 1.4886e-05
16230.0 1.4854e-05
16250.0 1.4823e-05
16270.0 1.4793e-05
16290.0 1.4762e-05
16310.0 1.473e-05
16330.0 1.47e-05
16350.0 1.4669e-05
16370.0 1.4637e-05
16390.0 1.4606e-05
16410.0 1.4576e-05
16430.0 1.4544e-05
16450.0 1.4512e-05
16470.0 1.4482e-05
16490.0 1.4451e-05
16510.0 1.4419e-05
16530.0 1.4388e-05
16550.0 1.4357e-05
16570.0 1.4325e-05
16590.0 1.4293e-05
16610.0 1.4262e-05
16630.0 1.423e-05
16650.0 1.4198e-05
16670.0 1.4167e-05
16690.0 1.4136e-05
16710.0 1.4103e-05
16730.0 1.4071e-05
16750.0 1.404e-05
16770.0 1.4007e-05
16790.0 1.3974e-05
16810.0 1.3943e-05
16830.0 1.3911e-05
16850.0 1.3878e-05
16870.0 1.3846e-05
16890.0 1.3815e-05
16910.0 1.3781e-05
16930.0 1.3748e-05
16950.0 1.3716e-05
16970.0 1.3683e-05
16990.0 1.365e-05
17010.0 1.3617e-05
17030.0 1.3585e-05
17050.0 1.3551e-05
17070.0 1.3518e-05
17090.0 1.3485e-05
17110.0 1.3452e-05
17130.0 1.3417e-05
17150.0 1.3384e-05
17170.0 1.3351e-05
17190.0 1.3317e-05
17210.0 1.3283e-05
17230.0 1.325e-05
17250.0 1.3216e-05
17270.0 1.3181e-05
17290.0 1.3147e-05
17310.0 1.3114e-05
17330.0 1.3079e-05
17350.0 1.3044e-05
17370.0 1.301e-05
17390.0 1.2976e-05
17410.0 1.2941e-05
17430.0 1.2906e-05
17450.0 1.2873e-05
17470.0 1.2836e-05
17490.0 1.2801e-05
17510.0 1.2767e-05
17530.0 1.2732e-05
17550.0 1.2695e-05
17570.0 1.2661e-05
17590.0 1.2626e-05
17610.0 1.259e-05
17630.0 1.2554e-05
17650.0 1.2519e-05
17670.0 1.2484e-05
17690.0 1.2446e-05
17710.0 1.2411e-05
17730.0 1.2376e-05
17750.0 1.2339e-05
17770.0 1.2303e-05
17790.0 1.2268e-05
17810.0 1.2231e-05
17830.0 1.2194e-05
17850.0 1.2158e-05
17870.0 1.2122e-05
17890.0 1.2084e-05
17910.0 1.2047e-05
17930.0 1.2012e-05
17950.0 1.1975e-05
17970.0 1.1937e-05
17990.0 1.1901e-05
18010.0 1.1865e-05
18030.0 1.1826e-05
18050.0 1.1789e-05
18070.0 1.1753e-05
18090.0 1.1715e-05
18110.0 1.1677e-05
18130.0 1.1641e-05
18150.0 1.1604e-05
18170.0 1.1566e-05
18190.0 1.1528e-05
18210.0 1.1492e-05
18230.0 1.1453e-05
18250.0 1.1414e-05
18270.0 1.1378e-05
18290.0 1.134e-05
18310.0 1.1301e-05
18330.0 1.1264e-05
18350.0 1.1227e-05
18370.0 1.1188e-05
18390.0 1.115e-05
18410.0 1.1112e-05
18430.0 1.1075e-05
18450.0 1.1035e-05
18470.0 1.0997e-05
18490.0 1.096e-05
18510.0 1.0921e-05
18530.0 1.0883e-05
18550.0 1.0845e-05
18570.0 1.0807e-05
18590.0 1.0767e-05
18610.0 1.0729e-05
18630.0 1.0691e-05
18650.0 1.0652e-05
18670.0 1.0613e-05
18690.0 1.0576e-05
18710.0 1.0537e-05
18730.0 1.0498e-05
18750.0 1.046e-05
18770.0 1.0422e-05
18790.0 1.0382e-05
18810.0 1.0343e-05
18830.0 1.0305e-05
18850.0 1.0267e-05
18870.0 1.0227e-05
18890.0 1.0189e-05
18910.0 1.0151e-05
18930.0 1.0111e-05
18950.0 1.0073e-05
18970.0 1.0035e-05
18990.0 9.9957e-06
19010.0 9.9553e-06
19030.0 9.9174e-06
19050.0 9.8791e-06
19070.0 9.8397e-06
19090.0 9.8008e-06
19110.0 9.7633e-06
19130.0 9.7238e-06
19150.0 9.6842e-06
19170.0 9.646e-06
19190.0 9.6076e-06
19210.0 9.5677e-06
19230.0 9.5286e-06
19250.0 9.491e-06
19270.0 9.4519e-06
19290.0 9.4126e-06
19310.0 9.3746e-06
19330.0 9.3363e-06
19350.0 9.296e-06
19370.0 9.2573e-06
19390.0 9.2193e-06
19410.0 9.1802e-06
19430.0 9.1407e-06
19450.0 9.1029e-06
19470.0 9.0646e-06
19490.0 9.025e-06
19510.0 8.9865e-06
19530.0 8.9487e-06
19550.0 8.9092e-06
19570.0 8.8696e-06
19590.0 8.8319e-06
19610.0 8.7934e-06
19630.0 8.7541e-06
19650.0 8.7158e-06
19670.0 8.6782e-06
19690.0 8.6389e-06
19710.0 8.5999e-06
19730.0 8.5621e-06
19750.0 8.5237e-06
19770.0 8.4838e-06
19790.0 8.4457e-06
19810.0 8.4081e-06
19830.0 8.3689e-06
19850.0 8.3297e-06
19870.0 8.2911e-06
19890.0 8.2497e-06
19910.0 8.2042e-06
19930.0 8.1555e-06
19950.0 8.0998e-06
19970.0 8.0313e-06
19990.0 7.9488e-06
20010.0 7.0719e-06
20030.0 6.9696e-06
20050.0 6.8498e-06
20070.0 6.72e-06
20090.0 6.5804e-06
20110.0 6.4225e-06
20130.0 6.2626e-06
20150.0 6.1041e-06
20170.0 5.9398e-06
20190.0 5.7732e-06
20210.0 5.6158e-06
20230.0 5.4623e-06
20250.0 5.3085e-06
20270.0 5.1657e-06
20290.0 5.0354e-06
20310.0 4.9115e-06
20330.0 4.7958e-06
20350.0 4.6997e-06
20370.0 4.6144e-06
20390.0 4.5396e-06
20410.0 4.4792e-06
20430.0 4.4326e-06
20450.0 4.3957e-06
20470.0 4.371e-06
20490.0 4.3577e-06
20510.0 4.3539e-06
20530.0 4.3593e-06
20550.0 4.3727e-06
20570.0 4.3923e-06
20590.0 4.4188e-06
20610.0 4.4509e-06
20630.0 4.4863e-06
20650.0 4.5258e-06
20670.0 4.571e-06
20690.0 4.6171e-06
20710.0 4.6648e-06
20730.0 4.7162e-06
20750.0 4.7699e-06
20770.0 4.8226e-06
20790.0 4.8781e-06
20810.0 4.9367e-06
20830.0 4.9951e-06
20850.0 5.0537e-06
20870.0 5.1164e-06
20890.0 5.1804e-06
20910.0 5.2421e-06
20930.0 5.3061e-06
20950.0 5.3725e-06
20970.0 5.4372e-06
20990.0 5.501e-06
21010.0 5.5681e-06
21030.0 5.6337e-06
21050.0 5.6963e-06
21070.0 5.7589e-06
21090.0 5.8216e-06
21110.0 5.8788e-06
21130.0 5.9325e-06
21150.0 5.9845e-06
21170.0 6.0317e-06
21190.0 6.0722e-06
21210.0 6.1087e-06
21230.0 6.139e-06
21250.0 6.1606e-06
21270.0 6.1744e-06
21290.0 6.1795e-06
21310.0 6.1746e-06
21330.0 6.16e-06
21350.0 6.1344e-06
21370.0 6.0969e-06
21390.0 6.0491e-06
21410.0 5.9907e-06
21430.0 5.9166e-06
21450.0 5.8335e-06
21470.0 5.743e-06
21490.0 5.6406e-06
21510.0 5.5283e-06
21530.0 5.4143e-06
21550.0 5.2947e-06
21570.0 5.1673e-06
21590.0 5.0419e-06
21610.0 4.9208e-06
21630.0 4.7995e-06
21650.0 4.681e-06
21670.0 4.5784e-06
21690.0 4.4836e-06
21710.0 4.3983e-06
21730.0 4.3285e-06
21750.0 4.2746e-06
21770.0 4.2335e-06
21790.0 4.2099e-06
21810.0 4.2034e-06
21830.0 4.2127e-06
21850.0 4.239e-06
21870.0 4.2801e-06
21890.0 4.3331e-06
21910.0 4.4012e-06
21930.0 4.481e-06
21950.0 4.5675e-06
21970.0 4.6632e-06
21990.0 4.7707e-06
22010.0 4.8782e-06
22030.0 4.9873e-06
22050.0 5.1019e-06
22070.0 5.2171e-06
22090.0 5.3262e-06
22110.0 5.4361e-06
22130.0 5.546e-06
22150.0 5.6485e-06
22170.0 5.7452e-06
22190.0 5.841e-06
22210.0 5.9302e-06
22230.0 6.0086e-06
22250.0 6.0825e-06
22270.0 6.1505e-06
22290.0 6.2087e-06
22310.0 6.2586e-06
22330.0 6.3026e-06
22350.0 6.3365e-06
22370.0 6.3605e-06
22390.0 6.3755e-06
22410.0 6.3802e-06
22430.0 6.3742e-06
22450.0 6.3577e-06
22470.0 6.3294e-06
22490.0 6.2895e-06
22510.0 6.2398e-06
22530.0 6.1763e-06
22550.0 6.099e-06
22570.0 6.0132e-06
22590.0 5.9165e-06
22610.0 5.8052e-06
