#lamb flux
1010.0 8.6237e-07
1030.0 8.6237e-07
1050.0 8.6237e-07
1070.0 8.6237e-07
1090.0 8.6237e-07
1110.0 8.6237e-07
1130.0 8.6237e-07
1150.0 8.6237e-07
1170.0 8.6237e-07
1190.0 8.6237e-07
1210.0 8.6237e-07
1230.0 8.6237e-07
1250.0 8.6237e-07
1270.0 8.6237e-07
1290.0 8.6237e-07
1310.0 8.6237e-07
1330.0 8.6237e-07
1350.0 8.6237e-07
1370.0 8.6237e-07
1390.0 8.6237e-07
1410.0 8.6237e-07
1430.0 8.6237e-07
1450.0 8.6237e-07
1470.0 8.6237e-07
1490.0 8.6237e-07
1510.0 8.6237e-07
1530.0 8.6327e-07
1550.0 1.0241e-06
1570.0 1.201e-06
1590.0 1.3943e-06
1610.0 1.602e-06
1630.0 1.8246e-06
1650.0 2.07e-06
1670.0 2.3368e-06
1690.0 2.6282e-06
1710.0 2.9503e-06
1730.0 3.3036e-06
1750.0 3.6843e-06
1770.0 4.1016e-06
1790.0 4.5571e-06
1810.0 5.0464e-06
1830.0 5.5708e-06
1850.0 6.1402e-06
1870.0 6.7432e-06
1890.0 7.3758e-06
1910.0 8.0433e-06
1930.0 8.7436e-06
1950.0 9.4597e-06
1970.0 1.0191e-05
1990.0 1.0942e-05
2010.0 1.1695e-05
2030.0 1.2437e-05
2050.0 1.3175e-05
2070.0 1.3901e-05
2090.0 1.4587e-05
2110.0 1.5238e-05
2130.0 1.5857e-05
2150.0 1.6423e-05
2170.0 1.6927e-05
2190.0 1.7384e-05
2210.0 1.7784e-05
2230.0 1.8112e-05
2250.0 1.8378e-05
2270.0 1.8595e-05
2290.0 1.8745e-05
2310.0 1.8827e-05
2330.0 1.8865e-05
2350.0 1.8855e-05
2370.0 1.8791e-05
2390.0 1.869e-05
2410.0 1.8569e-05
2430.0 1.8413e-05
2450.0 1.8233e-05
2470.0 1.8049e-05
2490.0 1.7867e-05
2510.0 1.7686e-05
2530.0 1.7554e-05
2550.0 1.7538e-05
2570.0 1.7695e-05
2590.0 1.8099e-05
2610.0 1.8945e-05
2630.0 2.0271e-05
2650.0 2.1996e-05
2670.0 2.4177e-05
2690.0 2.6789e-05
2710.0 2.9524e-05
2730.0 3.2268e-05
2750.0 3.5182e-05
2770.0 3.8072e-05
2790.0 4.085e-05
2810.0 4.3705e-05
2830.0 4.6796e-05
2850.0 4.9795e-05
2870.0 5.2873e-05
2890.0 5.619e-05
2910.0 5.9638e-05
2930.0 6.3085e-05
2950.0 6.6808e-05
2970.0 7.0779e-05
2990.0 7.4812e-05
3010.0 7.8998e-05
3030.0 8.3499e-05
3050.0 8.8159e-05
3070.0 9.2712e-05
3090.0 9.7353e-05
3110.0 0.00010184
3130.0 0.0001058
3150.0 0.00010912
3170.0 0.00011164
3190.0 0.00011311
3210.0 0.00011354
3230.0 0.00011338
3250.0 0.00011399
3270.0 0.00011624
3290.0 0.0001199
3310.0 0.0001247
3330.0 0.00013061
3350.0 0.00013728
3370.0 0.00014471
3390.0 0.00015287
3410.0 0.00016093
3430.0 0.00017549
3450.0 0.00018652
3470.0 0.00019732
3490.0 0.00020144
3510.0 0.00019796
3530.0 0.00022168
3550.0 0.0002658
3570.0 0.00029223
3590.0 0.0003055
3610.0 0.00030845
3630.0 0.00029661
3650.0 0.00032032
3670.0 0.00038293
3690.0 0.00043082
3710.0 0.00045283
3730.0 0.00046846
3750.0 0.00049019
3770.0 0.00048901
3790.0 0.00046748
3810.0 0.00043921
3830.0 0.0004082
3850.0 0.0004056
3870.0 0.00043512
3890.0 0.00046546
3910.0 0.00048819
3930.0 0.00049811
3950.0 0.00053505
3970.0 0.0005721
3990.0 0.00054865
4010.0 0.00048727
4030.0 0.00042947
4050.0 0.00041082
4070.0 0.0004252
4090.0 0.00042885
4110.0 0.00041848
4130.0 0.000412
4150.0 0.00041893
4170.0 0.00046002
4190.0 0.00050324
4210.0 0.0004934
4230.0 0.00046361
4250.0 0.00044885
4270.0 0.00044303
4290.0 0.00045573
4310.0 0.00047187
4330.0 0.00044945
4350.0 0.00039283
4370.0 0.00034596
4390.0 0.00031357
4410.0 0.00028616
4430.0 0.00028449
4450.0 0.00030874
4470.0 0.00033152
4490.0 0.00036163
4510.0 0.00041209
4530.0 0.00051336
4550.0 0.00063556
4570.0 0.00070854
4590.0 0.00075652
4610.0 0.00082203
4630.0 0.00086237
4650.0 0.00080491
4670.0 0.00066531
4690.0 0.00055376
4710.0 0.00051243
4730.0 0.00049754
4750.0 0.00045239
4770.0 0.00041518
4790.0 0.0004337
4810.0 0.00047248
4830.0 0.00047431
4850.0 0.00044192
4870.0 0.00042756
4890.0 0.00045115
4910.0 0.00047731
4930.0 0.0004792
4950.0 0.00046354
4970.0 0.00043814
4990.0 0.0003997
5010.0 0.00036394
5030.0 0.00034279
5050.0 0.00033316
5070.0 0.00032605
5090.0 0.00031852
5110.0 0.00031727
5130.0 0.00032078
5150.0 0.00033801
5170.0 0.00037502
5190.0 0.00042015
5210.0 0.00047022
5230.0 0.00050101
5250.0 0.00051615
5270.0 0.00054343
5290.0 0.00057273
5310.0 0.00058148
5330.0 0.00055824
5350.0 0.00052869
5370.0 0.00052718
5390.0 0.00056048
5410.0 0.00059738
5430.0 0.00061554
5450.0 0.00061511
5470.0 0.00059695
5490.0 0.00057211
5510.0 0.00055721
5530.0 0.00055619
5550.0 0.00056187
5570.0 0.00056516
5590.0 0.00054869
5610.0 0.00051864
5630.0 0.00048464
5650.0 0.00045412
5670.0 0.00043547
5690.0 0.00041976
5710.0 0.00040836
5730.0 0.00041246
5750.0 0.00040994
5770.0 0.00040039
5790.0 0.00040216
5810.0 0.00040778
5830.0 0.000414
5850.0 0.00041646
5870.0 0.00040757
5890.0 0.00038927
5910.0 0.00036657
5930.0 0.00033339
5950.0 0.00030835
5970.0 0.00030458
5990.0 0.00031464
6010.0 0.0003201
6030.0 0.00030911
6050.0 0.00030165
6070.0 0.00031319
6090.0 0.00033308
6110.0 0.00034335
6130.0 0.00033352
6150.0 0.00031429
6170.0 0.0003008
6190.0 0.00028724
6210.0 0.00027118
6230.0 0.00025713
6250.0 0.00025157
6270.0 0.00025796
6290.0 0.00026942
6310.0 0.00028541
6330.0 0.00030516
6350.0 0.00032408
6370.0 0.0003339
6390.0 0.00033572
6410.0 0.00033885
6430.0 0.00034236
6450.0 0.00034463
6470.0 0.00035043
6490.0 0.00035696
6510.0 0.00036018
6530.0 0.00035801
6550.0 0.00034963
6570.0 0.00033688
6590.0 0.00032435
6610.0 0.00031539
6630.0 0.00030906
6650.0 0.0002989
6670.0 0.00028582
6690.0 0.00027542
6710.0 0.00026944
6730.0 0.00026742
6750.0 0.00026376
6770.0 0.0002583
6790.0 0.00025419
6810.0 0.0002502
6830.0 0.00024862
6850.0 0.00025083
6870.0 0.000251
6890.0 0.0002489
6910.0 0.00024333
6930.0 0.00023767
6950.0 0.00023489
6970.0 0.00022891
6990.0 0.0002208
7010.0 0.00021729
7030.0 0.00021508
7050.0 0.00020963
7070.0 0.00020233
7090.0 0.00019831
7110.0 0.00020149
7130.0 0.00021159
7150.0 0.00022303
7170.0 0.00023038
7190.0 0.00022839
7210.0 0.00022163
7230.0 0.00021744
7250.0 0.00021544
7270.0 0.00021441
7290.0 0.00021219
7310.0 0.00021218
7330.0 0.00021715
7350.0 0.00022353
7370.0 0.00022733
7390.0 0.00022568
7410.0 0.00022003
7430.0 0.00021545
7450.0 0.0002106
7470.0 0.00019994
7490.0 0.00019274
7510.0 0.00018579
7530.0 0.00018113
7550.0 0.00018178
7570.0 0.0001841
7590.0 0.00018434
7610.0 0.00018319
7630.0 0.00018259
7650.0 0.00018267
7670.0 0.00018672
7690.0 0.00019304
7710.0 0.00020101
7730.0 0.00020677
7750.0 0.00021326
7770.0 0.00021706
7790.0 0.00021798
7810.0 0.00021656
7830.0 0.00021821
7850.0 0.00021673
7870.0 0.00020863
7890.0 0.00020019
7910.0 0.00019394
7930.0 0.00018828
7950.0 0.0001838
7970.0 0.00018258
7990.0 0.00018462
8010.0 0.00018039
8030.0 0.00017849
8050.0 0.00017584
8070.0 0.00017272
8090.0 0.00016951
8110.0 0.00016969
8130.0 0.00017094
8150.0 0.00017057
8170.0 0.00016945
8190.0 0.00016557
8210.0 0.00015661
8230.0 0.00014612
8250.0 0.00013986
8270.0 0.00013559
8290.0 0.0001322
8310.0 0.0001317
8330.0 0.0001329
8350.0 0.00012988
8370.0 0.00012737
8390.0 0.00013051
8410.0 0.00013742
8430.0 0.00014691
8450.0 0.00015647
8470.0 0.0001612
8490.0 0.00016512
8510.0 0.00016724
8530.0 0.00016947
8550.0 0.00017223
8570.0 0.00017388
8590.0 0.00017548
8610.0 0.00018036
8630.0 0.00018249
8650.0 0.0001789
8670.0 0.00017904
8690.0 0.0001812
8710.0 0.00018242
8730.0 0.00018143
8750.0 0.00017676
8770.0 0.00017482
8790.0 0.00017388
8810.0 0.00017159
8830.0 0.00016119
8850.0 0.0001478
8870.0 0.00013816
8890.0 0.00013298
8910.0 0.00012555
8930.0 0.00011689
8950.0 0.00011194
8970.0 0.00011131
8990.0 0.00011223
9010.0 0.00011195
9030.0 0.00011115
9050.0 0.00011041
9070.0 0.00010975
9090.0 0.00010911
9110.0 0.00010847
9130.0 0.00010783
9150.0 0.0001072
9170.0 0.00010657
9190.0 0.00010594
9210.0 0.00010531
9230.0 0.00010469
9250.0 0.00010408
9270.0 0.00010346
9290.0 0.00010285
9310.0 0.00010224
9330.0 0.00010164
9350.0 0.00010103
9370.0 0.00010043
9390.0 9.9839e-05
9410.0 9.9245e-05
9430.0 9.8648e-05
9450.0 9.8023e-05
9470.0 9.7415e-05
9490.0 9.687e-05
9510.0 9.6307e-05
9530.0 9.5747e-05
9550.0 9.5179e-05
9570.0 9.4614e-05
9590.0 9.4053e-05
9610.0 9.3493e-05
9630.0 9.2933e-05
9650.0 9.2377e-05
9670.0 9.1829e-05
9690.0 9.1278e-05
9710.0 9.073e-05
9730.0 9.0189e-05
9750.0 8.9649e-05
9770.0 8.9107e-05
9790.0 8.8571e-05
9810.0 8.804e-05
9830.0 8.7499e-05
9850.0 8.6912e-05
9870.0 8.6402e-05
9890.0 8.5898e-05
9910.0 8.5387e-05
9930.0 8.487e-05
9950.0 8.4369e-05
9970.0 8.3852e-05
9990.0 8.3325e-05
10010.0 8.2743e-05
10030.0 8.2204e-05
10050.0 8.1731e-05
10070.0 8.1252e-05
10090.0 8.077e-05
10110.0 8.0244e-05
10130.0 7.9585e-05
10150.0 7.9113e-05
10170.0 7.867e-05
10190.0 7.8189e-05
10210.0 7.7717e-05
10230.0 7.7243e-05
10250.0 7.674e-05
10270.0 7.6237e-05
10290.0 7.5753e-05
10310.0 7.5248e-05
10330.0 7.4727e-05
10350.0 7.423e-05
10370.0 7.3736e-05
10390.0 7.3221e-05
10410.0 7.271e-05
10430.0 7.2223e-05
10450.0 7.1716e-05
10470.0 7.1197e-05
10490.0 7.0697e-05
10510.0 7.0199e-05
10530.0 6.9667e-05
10550.0 6.915e-05
10570.0 6.8652e-05
10590.0 6.8135e-05
10610.0 6.7608e-05
10630.0 6.7102e-05
10650.0 6.6592e-05
10670.0 6.6055e-05
10690.0 6.553e-05
10710.0 6.5017e-05
10730.0 6.4485e-05
10750.0 6.3933e-05
10770.0 6.3417e-05
10790.0 6.2891e-05
10810.0 6.2344e-05
10830.0 6.1807e-05
10850.0 6.1287e-05
10870.0 6.0731e-05
10890.0 6.0176e-05
10910.0 5.9644e-05
10930.0 5.911e-05
10950.0 5.856e-05
10970.0 5.8032e-05
10990.0 5.7533e-05
11010.0 5.7518e-05
11030.0 5.7031e-05
11050.0 5.657e-05
11070.0 5.611e-05
11090.0 5.5628e-05
11110.0 5.5175e-05
11130.0 5.4734e-05
11150.0 5.4285e-05
11170.0 5.3846e-05
11190.0 5.344e-05
11210.0 5.3041e-05
11230.0 5.2651e-05
11250.0 5.2296e-05
11270.0 5.1968e-05
11290.0 5.165e-05
11310.0 5.1355e-05
11330.0 5.1095e-05
11350.0 5.0847e-05
11370.0 5.0608e-05
11390.0 5.0389e-05
11410.0 5.018e-05
11430.0 4.9963e-05
11450.0 4.975e-05
11470.0 4.9539e-05
11490.0 4.9315e-05
11510.0 4.9072e-05
11530.0 4.8823e-05
11550.0 4.8558e-05
11570.0 4.8263e-05
11590.0 4.7948e-05
11610.0 4.7619e-05
11630.0 4.7254e-05
11650.0 4.6854e-05
11670.0 4.6445e-05
11690.0 4.6013e-05
11710.0 4.5543e-05
11730.0 4.5055e-05
11750.0 4.4566e-05
11770.0 4.4042e-05
11790.0 4.3496e-05
11810.0 4.2953e-05
11830.0 4.2402e-05
11850.0 4.1815e-05
11870.0 4.124e-05
11890.0 4.0682e-05
11910.0 4.0109e-05
11930.0 3.9535e-05
11950.0 3.899e-05
11970.0 3.8452e-05
11990.0 3.7907e-05
12010.0 3.7391e-05
12030.0 3.6903e-05
12050.0 3.6421e-05
12070.0 3.595e-05
12090.0 3.5527e-05
12110.0 3.5119e-05
12130.0 3.4725e-05
12150.0 3.4363e-05
12170.0 3.4035e-05
12190.0 3.372e-05
12210.0 3.3437e-05
12230.0 3.3193e-05
12250.0 3.2979e-05
12270.0 3.2793e-05
12290.0 3.2644e-05
12310.0 3.2528e-05
12330.0 3.244e-05
12350.0 3.238e-05
12370.0 3.2345e-05
12390.0 3.2331e-05
12410.0 3.2338e-05
12430.0 3.2355e-05
12450.0 3.238e-05
12470.0 3.2412e-05
12490.0 3.2445e-05
12510.0 3.247e-05
12530.0 3.249e-05
12550.0 3.25e-05
12570.0 3.2493e-05
12590.0 3.2467e-05
12610.0 3.2422e-05
12630.0 3.235e-05
12650.0 3.2254e-05
12670.0 3.213e-05
12690.0 3.1975e-05
12710.0 3.1796e-05
12730.0 3.1592e-05
12750.0 3.1354e-05
12770.0 3.1095e-05
12790.0 3.0821e-05
12810.0 3.0525e-05
12830.0 3.0207e-05
12850.0 2.989e-05
12870.0 2.9567e-05
12890.0 2.9229e-05
12910.0 2.8894e-05
12930.0 2.8569e-05
12950.0 2.8235e-05
12970.0 2.79e-05
12990.0 2.7584e-05
13010.0 2.7273e-05
13030.0 2.6961e-05
13050.0 2.6659e-05
13070.0 2.6374e-05
13090.0 2.6086e-05
13110.0 2.5805e-05
13130.0 2.5541e-05
13150.0 2.5285e-05
13170.0 2.5029e-05
13190.0 2.4791e-05
13210.0 2.4569e-05
13230.0 2.4353e-05
13250.0 2.4148e-05
13270.0 2.3959e-05
13290.0 2.3778e-05
13310.0 2.36e-05
13330.0 2.3435e-05
13350.0 2.3277e-05
13370.0 2.312e-05
13390.0 2.2963e-05
13410.0 2.2814e-05
13430.0 2.2661e-05
13450.0 2.2503e-05
13470.0 2.2344e-05
13490.0 2.2184e-05
13510.0 2.2011e-05
13530.0 2.1834e-05
13550.0 2.1657e-05
13570.0 2.1473e-05
13590.0 2.128e-05
13610.0 2.1088e-05
13630.0 2.0898e-05
13650.0 2.0698e-05
13670.0 2.0497e-05
13690.0 2.0302e-05
13710.0 2.0104e-05
13730.0 1.9897e-05
13750.0 1.9702e-05
13770.0 1.9508e-05
13790.0 1.931e-05
13810.0 1.9113e-05
13830.0 1.8925e-05
13850.0 1.8732e-05
13870.0 1.8537e-05
13890.0 1.835e-05
13910.0 1.8166e-05
13930.0 1.7977e-05
13950.0 1.7791e-05
13970.0 1.7618e-05
13990.0 1.7441e-05
14010.0 1.7265e-05
14030.0 1.7098e-05
14050.0 1.6934e-05
14070.0 1.6765e-05
14090.0 1.6603e-05
14110.0 1.6448e-05
14130.0 1.6292e-05
14150.0 1.6135e-05
14170.0 1.599e-05
14190.0 1.5848e-05
14210.0 1.5705e-05
14230.0 1.557e-05
14250.0 1.5443e-05
14270.0 1.5318e-05
14290.0 1.5196e-05
14310.0 1.5087e-05
14330.0 1.4982e-05
14350.0 1.4881e-05
14370.0 1.4788e-05
14390.0 1.4703e-05
14410.0 1.462e-05
14430.0 1.4541e-05
14450.0 1.4469e-05
14470.0 1.44e-05
14490.0 1.4331e-05
14510.0 1.4267e-05
14530.0 1.4206e-05
14550.0 1.4145e-05
14570.0 1.4083e-05
14590.0 1.4025e-05
14610.0 1.3965e-05
14630.0 1.3903e-05
14650.0 1.3842e-05
14670.0 1.3783e-05
14690.0 1.3723e-05
14710.0 1.3665e-05
14730.0 1.3615e-05
14750.0 1.357e-05
14770.0 1.3532e-05
14790.0 1.3508e-05
14810.0 1.3498e-05
14830.0 1.3504e-05
14850.0 1.353e-05
14870.0 1.3575e-05
14890.0 1.364e-05
14910.0 1.3725e-05
14930.0 1.3822e-05
14950.0 1.3924e-05
14970.0 1.403e-05
14990.0 1.4129e-05
15010.0 1.4215e-05
15030.0 1.4286e-05
15050.0 1.4343e-05
15070.0 1.4384e-05
15090.0 1.4414e-05
15110.0 1.4437e-05
15130.0 1.4455e-05
15150.0 1.4472e-05
15170.0 1.4487e-05
15190.0 1.4502e-05
15210.0 1.4517e-05
15230.0 1.4533e-05
15250.0 1.4549e-05
15270.0 1.4566e-05
15290.0 1.4583e-05
15310.0 1.4601e-05
15330.0 1.4619e-05
15350.0 1.4638e-05
15370.0 1.4658e-05
15390.0 1.4677e-05
15410.0 1.4697e-05
15430.0 1.4718e-05
15450.0 1.474e-05
15470.0 1.4761e-05
15490.0 1.4783e-05
15510.0 1.4806e-05
15530.0 1.4829e-05
15550.0 1.4852e-05
15570.0 1.4877e-05
15590.0 1.4901e-05
15610.0 1.4925e-05
15630.0 1.4951e-05
15650.0 1.4976e-05
15670.0 1.5002e-05
15690.0 1.5028e-05
15710.0 1.5055e-05
15730.0 1.5082e-05
15750.0 1.5109e-05
15770.0 1.5137e-05
15790.0 1.5166e-05
15810.0 1.5193e-05
15830.0 1.5222e-05
15850.0 1.5252e-05
15870.0 1.5281e-05
15890.0 1.531e-05
15910.0 1.5341e-05
15930.0 1.5371e-05
15950.0 1.5401e-05
15970.0 1.5432e-05
15990.0 1.5463e-05
16010.0 1.5494e-05
16030.0 1.5525e-05
16050.0 1.5557e-05
16070.0 1.5589e-05
16090.0 1.5621e-05
16110.0 1.5653e-05
16130.0 1.5686e-05
16150.0 1.5718e-05
16170.0 1.5751e-05
16190.0 1.5784e-05
16210.0 1.5817e-05
16230.0 1.585e-05
16250.0 1.5884e-05
16270.0 1.5917e-05
16290.0 1.5951e-05
16310.0 1.5984e-05
16330.0 1.6018e-05
16350.0 1.6052e-05
16370.0 1.6085e-05
16390.0 1.6119e-05
16410.0 1.6153e-05
16430.0 1.6187e-05
16450.0 1.6221e-05
16470.0 1.6255e-05
16490.0 1.6289e-05
16510.0 1.6322e-05
16530.0 1.6356e-05
16550.0 1.639e-05
16570.0 1.6423e-05
16590.0 1.6457e-05
16610.0 1.6491e-05
16630.0 1.6524e-05
16650.0 1.6557e-05
16670.0 1.6591e-05
16690.0 1.6624e-05
16710.0 1.6656e-05
16730.0 1.6689e-05
16750.0 1.6722e-05
16770.0 1.6754e-05
16790.0 1.6786e-05
16810.0 1.6818e-05
16830.0 1.685e-05
16850.0 1.6882e-05
16870.0 1.6913e-05
16890.0 1.6944e-05
16910.0 1.6975e-05
16930.0 1.7005e-05
16950.0 1.7035e-05
16970.0 1.7066e-05
16990.0 1.7095e-05
17010.0 1.7124e-05
17030.0 1.7153e-05
17050.0 1.7182e-05
17070.0 1.721e-05
17090.0 1.7238e-05
17110.0 1.7265e-05
17130.0 1.7292e-05
17150.0 1.7318e-05
17170.0 1.7345e-05
17190.0 1.737e-05
17210.0 1.7395e-05
17230.0 1.7421e-05
17250.0 1.7445e-05
17270.0 1.7468e-05
17290.0 1.7492e-05
17310.0 1.7515e-05
17330.0 1.7537e-05
17350.0 1.7558e-05
17370.0 1.758e-05
17390.0 1.7601e-05
17410.0 1.762e-05
17430.0 1.764e-05
17450.0 1.7659e-05
17470.0 1.7677e-05
17490.0 1.7695e-05
17510.0 1.7712e-05
17530.0 1.7728e-05
17550.0 1.7744e-05
17570.0 1.7759e-05
17590.0 1.7774e-05
17610.0 1.7787e-05
17630.0 1.78e-05
17650.0 1.7813e-05
17670.0 1.7825e-05
17690.0 1.7835e-05
17710.0 1.7846e-05
17730.0 1.7855e-05
17750.0 1.7864e-05
17770.0 1.7872e-05
17790.0 1.7879e-05
17810.0 1.7886e-05
17830.0 1.7891e-05
17850.0 1.7896e-05
17870.0 1.79e-05
17890.0 1.7903e-05
17910.0 1.7905e-05
17930.0 1.7908e-05
17950.0 1.7908e-05
17970.0 1.7908e-05
17990.0 1.7908e-05
18010.0 1.7906e-05
18030.0 1.7903e-05
18050.0 1.7899e-05
18070.0 1.7895e-05
18090.0 1.789e-05
18110.0 1.7884e-05
18130.0 1.7877e-05
18150.0 1.787e-05
18170.0 1.786e-05
18190.0 1.7851e-05
18210.0 1.7841e-05
18230.0 1.7829e-05
18250.0 1.7816e-05
18270.0 1.7803e-05
18290.0 1.7789e-05
18310.0 1.7774e-05
18330.0 1.7758e-05
18350.0 1.7742e-05
18370.0 1.7723e-05
18390.0 1.7704e-05
18410.0 1.7685e-05
18430.0 1.7665e-05
18450.0 1.7642e-05
18470.0 1.762e-05
18490.0 1.7597e-05
18510.0 1.7572e-05
18530.0 1.7547e-05
18550.0 1.7521e-05
18570.0 1.7494e-05
18590.0 1.7465e-05
18610.0 1.7436e-05
18630.0 1.7407e-05
18650.0 1.7376e-05
18670.0 1.7343e-05
18690.0 1.7311e-05
18710.0 1.7278e-05
18730.0 1.7243e-05
18750.0 1.7208e-05
18770.0 1.7172e-05
18790.0 1.7134e-05
18810.0 1.7095e-05
18830.0 1.7057e-05
18850.0 1.7017e-05
18870.0 1.6975e-05
18890.0 1.6934e-05
18910.0 1.6892e-05
18930.0 1.6848e-05
18950.0 1.6803e-05
18970.0 1.6758e-05
18990.0 1.6712e-05
19010.0 1.6665e-05
19030.0 1.6617e-05
19050.0 1.6569e-05
19070.0 1.6519e-05
19090.0 1.6469e-05
19110.0 1.6418e-05
19130.0 1.6366e-05
19150.0 1.6313e-05
19170.0 1.626e-05
19190.0 1.6206e-05
19210.0 1.615e-05
19230.0 1.6095e-05
19250.0 1.6039e-05
19270.0 1.5981e-05
19290.0 1.5923e-05
19310.0 1.5865e-05
19330.0 1.5805e-05
19350.0 1.5745e-05
19370.0 1.5684e-05
19390.0 1.5623e-05
19410.0 1.556e-05
19430.0 1.5497e-05
19450.0 1.5434e-05
19470.0 1.537e-05
19490.0 1.5305e-05
19510.0 1.5239e-05
19530.0 1.5174e-05
19550.0 1.5107e-05
19570.0 1.5039e-05
19590.0 1.4972e-05
19610.0 1.4904e-05
19630.0 1.4834e-05
19650.0 1.4765e-05
19670.0 1.4696e-05
19690.0 1.4625e-05
19710.0 1.4554e-05
19730.0 1.4482e-05
19750.0 1.4411e-05
19770.0 1.4338e-05
19790.0 1.4265e-05
19810.0 1.4192e-05
19830.0 1.4118e-05
19850.0 1.4043e-05
19870.0 1.3967e-05
19890.0 1.3889e-05
19910.0 1.3805e-05
19930.0 1.3717e-05
19950.0 1.362e-05
19970.0 1.3509e-05
19990.0 1.3381e-05
20010.0 1.324e-05
20030.0 1.3079e-05
20050.0 1.2898e-05
20070.0 1.2707e-05
20090.0 1.2507e-05
20110.0 1.229e-05
20130.0 1.2074e-05
20150.0 1.1862e-05
20170.0 1.1646e-05
20190.0 1.1429e-05
20210.0 1.1223e-05
20230.0 1.1021e-05
20250.0 1.0817e-05
20270.0 1.0623e-05
20290.0 1.0438e-05
20310.0 1.0257e-05
20330.0 1.0079e-05
20350.0 9.9169e-06
20370.0 9.7609e-06
20390.0 9.61e-06
20410.0 9.4691e-06
20430.0 9.3389e-06
20450.0 9.2126e-06
20470.0 9.0947e-06
20490.0 8.9868e-06
20510.0 8.8858e-06
20530.0 8.7904e-06
20550.0 8.7029e-06
20570.0 8.6225e-06
20590.0 8.5468e-06
20610.0 8.4763e-06
20630.0 8.411e-06
20650.0 8.3495e-06
20670.0 8.2912e-06
20690.0 8.236e-06
20710.0 8.1829e-06
20730.0 8.1312e-06
20750.0 8.0804e-06
20770.0 8.0296e-06
20790.0 7.9784e-06
20810.0 7.9261e-06
20830.0 7.8722e-06
20850.0 7.8162e-06
20870.0 7.7575e-06
20890.0 7.6956e-06
20910.0 7.631e-06
20930.0 7.5629e-06
20950.0 7.4907e-06
20970.0 7.4156e-06
20990.0 7.3376e-06
21010.0 7.2548e-06
21030.0 7.1691e-06
21050.0 7.0817e-06
21070.0 6.991e-06
21090.0 6.8964e-06
21110.0 6.802e-06
21130.0 6.7066e-06
21150.0 6.6085e-06
21170.0 6.51e-06
21190.0 6.4132e-06
21210.0 6.3145e-06
21230.0 6.2151e-06
21250.0 6.1187e-06
21270.0 6.0236e-06
21290.0 5.9281e-06
21310.0 5.8347e-06
21330.0 5.7453e-06
21350.0 5.6562e-06
21370.0 5.5686e-06
21390.0 5.4846e-06
21410.0 5.403e-06
21430.0 5.3215e-06
21450.0 5.2438e-06
21470.0 5.1693e-06
21490.0 5.096e-06
21510.0 5.0246e-06
21530.0 4.9565e-06
21550.0 4.8901e-06
21570.0 4.8246e-06
21590.0 4.7615e-06
21610.0 4.7006e-06
21630.0 4.6406e-06
21650.0 4.5815e-06
21670.0 4.5249e-06
21690.0 4.4692e-06
21710.0 4.414e-06
21730.0 4.3601e-06
21750.0 4.3075e-06
21770.0 4.2545e-06
21790.0 4.2022e-06
21810.0 4.1508e-06
21830.0 4.0996e-06
21850.0 4.048e-06
21870.0 3.9969e-06
21890.0 3.9463e-06
21910.0 3.895e-06
21930.0 3.8435e-06
21950.0 3.7925e-06
21970.0 3.741e-06
21990.0 3.6885e-06
22010.0 3.6367e-06
22030.0 3.585e-06
22050.0 3.5326e-06
22070.0 3.4801e-06
22090.0 3.4285e-06
22110.0 3.3765e-06
22130.0 3.324e-06
22150.0 3.2724e-06
22170.0 3.2214e-06
22190.0 3.1697e-06
22210.0 3.1184e-06
22230.0 3.0686e-06
22250.0 3.0187e-06
22270.0 2.9689e-06
22290.0 2.9202e-06
22310.0 2.8722e-06
22330.0 2.8236e-06
22350.0 2.7759e-06
22370.0 2.7292e-06
22390.0 2.6825e-06
22410.0 2.6355e-06
22430.0 2.5899e-06
22450.0 2.5447e-06
22470.0 2.4991e-06
22490.0 2.454e-06
22510.0 2.4099e-06
22530.0 2.3653e-06
22550.0 2.3206e-06
22570.0 2.2771e-06
22590.0 2.234e-06
22610.0 2.1907e-06
22630.0 2.1481e-06
22650.0 2.107e-06
