#lamb flux
1010.0 2.2834e-05
1030.0 2.4961e-05
1050.0 2.7419e-05
1070.0 3.0196e-05
1090.0 3.3361e-05
1110.0 3.6628e-05
1130.0 3.9941e-05
1150.0 4.3436e-05
1170.0 4.7072e-05
1190.0 5.0563e-05
1210.0 5.4139e-05
1230.0 5.7872e-05
1250.0 6.1582e-05
1270.0 6.5243e-05
1290.0 6.9149e-05
1310.0 7.3111e-05
1330.0 7.6986e-05
1350.0 8.0962e-05
1370.0 8.5118e-05
1390.0 8.925e-05
1410.0 9.334e-05
1430.0 9.7656e-05
1450.0 0.00010204
1470.0 0.00010636
1490.0 0.00011078
1510.0 0.00011547
1530.0 0.00012
1550.0 0.00012452
1570.0 0.00012921
1590.0 0.00013393
1610.0 0.00013849
1630.0 0.00014317
1650.0 0.00014795
1670.0 0.00015257
1690.0 0.0001571
1710.0 0.00016173
1730.0 0.0001663
1750.0 0.00017055
1770.0 0.00017479
1790.0 0.00017899
1810.0 0.00018291
1830.0 0.0001866
1850.0 0.00019035
1870.0 0.00019379
1890.0 0.00019688
1910.0 0.00019983
1930.0 0.00020263
1950.0 0.00020499
1970.0 0.00020705
1990.0 0.00020898
2010.0 0.00021058
2030.0 0.00021178
2050.0 0.00021281
2070.0 0.00021366
2090.0 0.00021404
2110.0 0.00021415
2130.0 0.00021411
2150.0 0.00021378
2170.0 0.00021307
2190.0 0.00021228
2210.0 0.0002113
2230.0 0.00021003
2250.0 0.00020858
2270.0 0.00020712
2290.0 0.00020544
2310.0 0.00020354
2330.0 0.00020163
2350.0 0.00019967
2370.0 0.00019753
2390.0 0.00019536
2410.0 0.00019325
2430.0 0.00019098
2450.0 0.00018854
2470.0 0.00018599
2490.0 0.00018322
2510.0 0.00018018
2530.0 0.00017715
2550.0 0.00017463
2570.0 0.00017331
2590.0 0.00017404
2610.0 0.00017855
2630.0 0.00018769
2650.0 0.00020102
2670.0 0.00021893
2690.0 0.00024096
2710.0 0.00026391
2730.0 0.00028612
2750.0 0.00030817
2770.0 0.00032792
2790.0 0.0003447
2810.0 0.00036008
2830.0 0.00037534
2850.0 0.00038907
2870.0 0.00040268
2890.0 0.0004172
2910.0 0.00043205
2930.0 0.00044644
2950.0 0.00046182
2970.0 0.00047793
2990.0 0.0004937
3010.0 0.0011288
3030.0 0.0011664
3050.0 0.0012048
3070.0 0.0012416
3090.0 0.00128
3110.0 0.0013191
3130.0 0.0013561
3150.0 0.0013912
3170.0 0.0014261
3190.0 0.0014561
3210.0 0.0014791
3230.0 0.0015001
3250.0 0.0014756
3270.0 0.0014918
3290.0 0.0014778
3310.0 0.0016063
3330.0 0.0017243
3350.0 0.0018531
3370.0 0.0020015
3390.0 0.0021686
3410.0 0.0023425
3430.0 0.0025293
3450.0 0.0027357
3470.0 0.0029546
3490.0 0.0031832
3510.0 0.0034249
3530.0 0.003683
3550.0 0.0040151
3570.0 0.0043985
3590.0 0.0047167
3610.0 0.0050735
3630.0 0.0052079
3650.0 0.0053141
3670.0 0.00538
3690.0 0.005531
3710.0 0.0057021
3730.0 0.005608
3750.0 0.0054422
3770.0 0.0052146
3790.0 0.0049492
3810.0 0.0046133
3830.0 0.0040804
3850.0 0.0025493
3870.0 0.0035419
3890.0 0.004829
3910.0 0.0059583
3930.0 0.006871
3950.0 0.0072943
3970.0 0.007605
3990.0 0.0091365
4010.0 0.008638
4030.0 0.007565
4050.0 0.0067106
4070.0 0.0060413
4090.0 0.0070777
4110.0 0.0075463
4130.0 0.0076097
4150.0 0.0075135
4170.0 0.0070674
4190.0 0.0066775
4210.0 0.0078833
4230.0 0.0089311
4250.0 0.0090959
4270.0 0.0087738
4290.0 0.0089386
4310.0 0.0094881
4330.0 0.010769
4350.0 0.011561
4370.0 0.011398
4390.0 0.0096118
4410.0 0.0082288
4430.0 0.0069767
4450.0 0.0060641
4470.0 0.0063079
4490.0 0.0078683
4510.0 0.0085276
4530.0 0.0093699
4550.0 0.010083
4570.0 0.01248
4590.0 0.018142
4610.0 0.023699
4630.0 0.023762
4650.0 0.022255
4670.0 0.023954
4690.0 0.027015
4710.0 0.022836
4730.0 0.01657
4750.0 0.012882
4770.0 0.012042
4790.0 0.012286
4810.0 0.01142
4830.0 0.012416
4850.0 0.01515
4870.0 0.018567
4890.0 0.016932
4910.0 0.014466
4930.0 0.015588
4950.0 0.020512
4970.0 0.027049
4990.0 0.027995
5010.0 0.024474
5030.0 0.018802
5050.0 0.013438
5070.0 0.011106
5090.0 0.010361
5110.0 0.010373
5130.0 0.010837
5150.0 0.010658
5170.0 0.010914
5190.0 0.010433
5210.0 0.010613
5230.0 0.011421
5250.0 0.01231
5270.0 0.01522
5290.0 0.017713
5310.0 0.017558
5330.0 0.018052
5350.0 0.020541
5370.0 0.022322
5390.0 0.020544
5410.0 0.017458
5430.0 0.016401
5450.0 0.0189
5470.0 0.024532
5490.0 0.030479
5510.0 0.033175
5530.0 0.033419
5550.0 0.03157
5570.0 0.029607
5590.0 0.028654
5610.0 0.028993
5630.0 0.029379
5650.0 0.029248
5670.0 0.029107
5690.0 0.028295
5710.0 0.024729
5730.0 0.020741
5750.0 0.017583
5770.0 0.017921
5790.0 0.019571
5810.0 0.021038
5830.0 0.021703
5850.0 0.021425
5870.0 0.019677
5890.0 0.017132
5910.0 0.017008
5930.0 0.018726
5950.0 0.01895
5970.0 0.017136
5990.0 0.014712
6010.0 0.011979
6030.0 0.010053
6050.0 0.010127
6070.0 0.011686
6090.0 0.012318
6110.0 0.010953
6130.0 0.010173
6150.0 0.011066
6170.0 0.013354
6190.0 0.015901
6210.0 0.016919
6230.0 0.016192
6250.0 0.014868
6270.0 0.012816
6290.0 0.010627
6310.0 0.0088854
6330.0 0.008195
6350.0 0.0086614
6370.0 0.0091341
6390.0 0.0096751
6410.0 0.011126
6430.0 0.014017
6450.0 0.017667
6470.0 0.019709
6490.0 0.019319
6510.0 0.019017
6530.0 0.019711
6550.0 0.019931
6570.0 0.020266
6590.0 0.020345
6610.0 0.019983
6630.0 0.020206
6650.0 0.020108
6670.0 0.019094
6690.0 0.016931
6710.0 0.014386
6730.0 0.014138
6750.0 0.015335
6770.0 0.016516
6790.0 0.016929
6810.0 0.01678
6830.0 0.016507
6850.0 0.016169
6870.0 0.015185
6890.0 0.014466
6910.0 0.013732
6930.0 0.013379
6950.0 0.014429
6970.0 0.015499
6990.0 0.016248
7010.0 0.016334
7030.0 0.015363
7050.0 0.013342
7070.0 0.010827
7090.0 0.0092286
7110.0 0.0090185
7130.0 0.0096589
7150.0 0.0096112
7170.0 0.0087156
7190.0 0.0086341
7210.0 0.0095638
7230.0 0.011092
7250.0 0.012612
7270.0 0.013173
7290.0 0.012197
7310.0 0.010775
7330.0 0.0098892
7350.0 0.009765
7370.0 0.010059
7390.0 0.010454
7410.0 0.011162
7430.0 0.012828
7450.0 0.014947
7470.0 0.016924
7490.0 0.017713
7510.0 0.017107
7530.0 0.014343
7550.0 0.011813
7570.0 0.0099056
7590.0 0.0087981
7610.0 0.00919
7630.0 0.010674
7650.0 0.012233
7670.0 0.013739
7690.0 0.014872
7710.0 0.015817
7730.0 0.016733
7750.0 0.017601
7770.0 0.018046
7790.0 0.018007
7810.0 0.018309
7830.0 0.019011
7850.0 0.01886
7870.0 0.018261
7890.0 0.017101
7910.0 0.016027
7930.0 0.015416
7950.0 0.015238
7970.0 0.015062
7990.0 0.015116
8010.0 0.015444
8030.0 0.015538
8050.0 0.015882
8070.0 0.015706
8090.0 0.015697
8110.0 0.015064
8130.0 0.014977
8150.0 0.014623
8170.0 0.014222
8190.0 0.014024
8210.0 0.014127
8230.0 0.013421
8250.0 0.0127
8270.0 0.01114
8290.0 0.0089628
8310.0 0.0068203
8330.0 0.0051969
8350.0 0.0046511
8370.0 0.0053573
8390.0 0.0063459
8410.0 0.0070244
8430.0 0.0076338
8450.0 0.0080323
8470.0 0.0084359
8490.0 0.0093763
8510.0 0.010542
8530.0 0.012273
8550.0 0.014323
8570.0 0.016191
8590.0 0.017699
8610.0 0.018884
8630.0 0.019593
8650.0 0.019694
8670.0 0.019734
8690.0 0.020436
8710.0 0.021038
8730.0 0.021616
8750.0 0.021318
8770.0 0.021447
8790.0 0.021193
8810.0 0.019776
8830.0 0.019126
8850.0 0.017998
8870.0 0.017124
8890.0 0.016492
8910.0 0.016804
8930.0 0.015881
8950.0 0.015212
8970.0 0.014952
8990.0 0.014662
9010.0 0.014287
9030.0 0.013937
9050.0 0.013848
9070.0 0.013806
9090.0 0.013767
9110.0 0.013729
9130.0 0.013688
9150.0 0.013646
9170.0 0.013591
9190.0 0.013523
9210.0 0.013577
9230.0 0.013507
9250.0 0.013451
9270.0 0.013399
9290.0 0.013349
9310.0 0.013301
9330.0 0.013254
9350.0 0.013208
9370.0 0.013161
9390.0 0.013114
9410.0 0.013067
9430.0 0.013019
9450.0 0.012964
9470.0 0.01291
9490.0 0.012869
9510.0 0.012824
9530.0 0.012777
9550.0 0.01273
9570.0 0.012682
9590.0 0.012633
9610.0 0.012584
9630.0 0.012535
9650.0 0.012486
9670.0 0.012437
9690.0 0.012387
9710.0 0.012338
9730.0 0.012288
9750.0 0.012238
9770.0 0.012188
9790.0 0.012139
9810.0 0.012089
9830.0 0.012039
9850.0 0.011989
9870.0 0.011939
9890.0 0.011889
9910.0 0.011839
9930.0 0.011788
9950.0 0.011653
9970.0 0.011628
9990.0 0.011598
10010.0 0.011565
10030.0 0.011526
10050.0 0.01148
10070.0 0.011431
10090.0 0.011386
10110.0 0.011335
10130.0 0.011288
10150.0 0.011239
10170.0 0.011187
10190.0 0.011133
10210.0 0.011082
10230.0 0.011033
10250.0 0.01098
10270.0 0.010928
10290.0 0.010879
10310.0 0.010827
10330.0 0.010772
10350.0 0.010721
10370.0 0.01067
10390.0 0.010615
10410.0 0.010562
10430.0 0.010511
10450.0 0.010458
10470.0 0.010402
10490.0 0.010349
10510.0 0.010296
10530.0 0.010238
10550.0 0.010182
10570.0 0.010129
10590.0 0.010073
10610.0 0.010015
10630.0 0.0099602
10650.0 0.0099046
10670.0 0.0098444
10690.0 0.0097861
10710.0 0.0097295
10730.0 0.0096697
10750.0 0.0096066
10770.0 0.009549
10790.0 0.0094896
10810.0 0.0094267
10830.0 0.0093649
10850.0 0.0093055
10870.0 0.0092393
10890.0 0.0091718
10910.0 0.0091054
10930.0 0.0090344
10950.0 0.0089543
10970.0 0.0088696
10990.0 0.0087813
11010.0 0.0081428
11030.0 0.0080341
11050.0 0.0079302
11070.0 0.0078255
11090.0 0.0077146
11110.0 0.0076137
11130.0 0.0075172
11150.0 0.0074187
11170.0 0.0073221
11190.0 0.0072332
11210.0 0.0071423
11230.0 0.007049
11250.0 0.0069603
11270.0 0.0068743
11290.0 0.0067841
11310.0 0.0066948
11330.0 0.0066136
11350.0 0.0065308
11370.0 0.006447
11390.0 0.0063681
11410.0 0.0062918
11430.0 0.0062101
11450.0 0.0061304
11470.0 0.0060533
11490.0 0.0059724
11510.0 0.0058859
11530.0 0.0058014
11550.0 0.0057147
11570.0 0.0056198
11590.0 0.0055221
11610.0 0.0054247
11630.0 0.0053191
11650.0 0.0052067
11670.0 0.0050978
11690.0 0.0049871
11710.0 0.0048708
11730.0 0.0047559
11750.0 0.0046473
11770.0 0.0045355
11790.0 0.0044249
11810.0 0.004322
11830.0 0.0042234
11850.0 0.0041233
11870.0 0.0040319
11890.0 0.0039487
11910.0 0.0038672
11930.0 0.0037894
11950.0 0.0037196
11970.0 0.003653
11990.0 0.003587
12010.0 0.0035267
12030.0 0.0034713
12050.0 0.0034169
12070.0 0.0033644
12090.0 0.003319
12110.0 0.0032758
12130.0 0.0032347
12150.0 0.0031985
12170.0 0.0031675
12190.0 0.0031387
12210.0 0.0031154
12230.0 0.0030986
12250.0 0.0030874
12270.0 0.0030821
12290.0 0.0030842
12310.0 0.0030934
12330.0 0.0031101
12350.0 0.0031348
12370.0 0.0031664
12390.0 0.0032056
12410.0 0.003254
12430.0 0.003307
12450.0 0.0033649
12470.0 0.0034292
12490.0 0.003497
12510.0 0.0035644
12530.0 0.0036344
12550.0 0.0037054
12570.0 0.0037725
12590.0 0.0038358
12610.0 0.0038968
12630.0 0.0039518
12650.0 0.003998
12670.0 0.0040381
12690.0 0.0040708
12710.0 0.0040946
12730.0 0.0041104
12750.0 0.0041181
12770.0 0.0041175
12790.0 0.0041098
12810.0 0.004095
12830.0 0.0040731
12850.0 0.0040472
12870.0 0.0040172
12890.0 0.0039821
12910.0 0.0039446
12930.0 0.0039065
12950.0 0.0038651
12970.0 0.0038215
12990.0 0.0037795
13010.0 0.003737
13030.0 0.0036924
13050.0 0.0036481
13070.0 0.0036052
13090.0 0.00356
13110.0 0.0035139
13130.0 0.0034693
13150.0 0.0034247
13170.0 0.003378
13190.0 0.0033341
13210.0 0.0032933
13230.0 0.0032535
13250.0 0.0032169
13270.0 0.0031861
13290.0 0.0031596
13310.0 0.0031381
13330.0 0.0031237
13350.0 0.0031158
13370.0 0.0031139
13390.0 0.0031181
13410.0 0.0031266
13430.0 0.0031386
13450.0 0.0031528
13470.0 0.0031667
13490.0 0.0031787
13510.0 0.0031877
13530.0 0.0031913
13550.0 0.0031885
13570.0 0.0031787
13590.0 0.0031606
13610.0 0.0031354
13630.0 0.0031042
13650.0 0.0030654
13670.0 0.0030215
13690.0 0.0029753
13710.0 0.0029259
13730.0 0.0028729
13750.0 0.002823
13770.0 0.0027747
13790.0 0.0027271
13810.0 0.0026828
13830.0 0.0026435
13850.0 0.0026064
13870.0 0.0025725
13890.0 0.0025434
13910.0 0.0025178
13930.0 0.0024946
13950.0 0.0024745
13970.0 0.0024578
13990.0 0.0024428
14010.0 0.0024295
14030.0 0.0024181
14050.0 0.0024079
14070.0 0.0023982
14090.0 0.0023892
14110.0 0.0023808
14130.0 0.0023721
14150.0 0.0023631
14170.0 0.0023539
14190.0 0.0023443
14210.0 0.0023339
14230.0 0.0023231
14250.0 0.0023121
14270.0 0.0023007
14290.0 0.0022892
14310.0 0.0022785
14330.0 0.0022683
14350.0 0.0022587
14370.0 0.0022503
14390.0 0.002243
14410.0 0.0022366
14430.0 0.0022313
14450.0 0.0022269
14470.0 0.0022231
14490.0 0.0022199
14510.0 0.0022171
14530.0 0.0022144
14550.0 0.0022119
14570.0 0.0022096
14590.0 0.0022076
14610.0 0.0022061
14630.0 0.0022055
14650.0 0.0022058
14670.0 0.0022075
14690.0 0.0022111
14710.0 0.0022171
14730.0 0.0022247
14750.0 0.0022352
14770.0 0.002249
14790.0 0.0022653
14810.0 0.0022843
14830.0 0.0023082
14850.0 0.0023355
14870.0 0.0023647
14890.0 0.0023975
14910.0 0.0024335
14930.0 0.0024687
14950.0 0.0025022
14970.0 0.0025344
14990.0 0.0025613
15010.0 0.0025812
15030.0 0.0025952
15050.0 0.0026034
15070.0 0.0026054
15090.0 0.0026036
15110.0 0.002599
15130.0 0.0025927
15150.0 0.0025855
15170.0 0.0025777
15190.0 0.0025697
15210.0 0.0025616
15230.0 0.0025534
15250.0 0.0025451
15270.0 0.0025369
15290.0 0.0025287
15310.0 0.0025204
15330.0 0.0025121
15350.0 0.0025038
15370.0 0.0024956
15390.0 0.0024872
15410.0 0.0024789
15430.0 0.0024706
15450.0 0.0024622
15470.0 0.0024538
15490.0 0.0024455
15510.0 0.0024372
15530.0 0.0024288
15550.0 0.0024204
15570.0 0.0024121
15590.0 0.0024037
15610.0 0.0023953
15630.0 0.002387
15650.0 0.0023787
15670.0 0.0023703
15690.0 0.0023619
15710.0 0.0023536
15730.0 0.0023452
15750.0 0.0023369
15770.0 0.0023286
15790.0 0.0023203
15810.0 0.0023119
15830.0 0.0023036
15850.0 0.0022953
15870.0 0.002287
15890.0 0.0022787
15910.0 0.0022705
15930.0 0.0022622
15950.0 0.0022539
15970.0 0.0022457
15990.0 0.0022375
16010.0 0.0022293
16030.0 0.0022211
16050.0 0.002213
16070.0 0.0022048
16090.0 0.0021966
16110.0 0.0021885
16130.0 0.0021805
16150.0 0.0021723
16170.0 0.0021642
16190.0 0.0021562
16210.0 0.0021482
16230.0 0.0021402
16250.0 0.0021322
16270.0 0.0021243
16290.0 0.0021163
16310.0 0.0021084
16330.0 0.0021005
16350.0 0.0020926
16370.0 0.0020847
16390.0 0.0020769
16410.0 0.0020691
16430.0 0.0020613
16450.0 0.0020535
16470.0 0.0020459
16490.0 0.0020381
16510.0 0.0020304
16530.0 0.0020228
16550.0 0.0020152
16570.0 0.0020075
16590.0 0.0019999
16610.0 0.0019924
16630.0 0.0019849
16650.0 0.0019774
16670.0 0.0019699
16690.0 0.0019625
16710.0 0.0019551
16730.0 0.0019477
16750.0 0.0019403
16770.0 0.001933
16790.0 0.0019257
16810.0 0.0019184
16830.0 0.0019112
16850.0 0.001904
16870.0 0.0018968
16890.0 0.0018897
16910.0 0.0018825
16930.0 0.0018754
16950.0 0.0018684
16970.0 0.0018614
16990.0 0.0018543
17010.0 0.0018474
17030.0 0.0018405
17050.0 0.0018336
17070.0 0.0018267
17090.0 0.0018198
17110.0 0.001813
17130.0 0.0018062
17150.0 0.0017995
17170.0 0.0017928
17190.0 0.0017861
17210.0 0.0017794
17230.0 0.0017728
17250.0 0.0017662
17270.0 0.0017596
17290.0 0.0017531
17310.0 0.0017466
17330.0 0.0017402
17350.0 0.0017337
17370.0 0.0017273
17390.0 0.001721
17410.0 0.0017146
17430.0 0.0017083
17450.0 0.0017021
17470.0 0.0016958
17490.0 0.0016896
17510.0 0.0016834
17530.0 0.0016773
17550.0 0.0016711
17570.0 0.0016651
17590.0 0.001659
17610.0 0.001653
17630.0 0.001647
17650.0 0.0016411
17670.0 0.0016352
17690.0 0.0016292
17710.0 0.0016234
17730.0 0.0016176
17750.0 0.0016117
17770.0 0.001606
17790.0 0.0016003
17810.0 0.0015945
17830.0 0.0015888
17850.0 0.0015832
17870.0 0.0015776
17890.0 0.001572
17910.0 0.0015664
17930.0 0.001561
17950.0 0.0015555
17970.0 0.00155
17990.0 0.0015446
18010.0 0.0015392
18030.0 0.0015338
18050.0 0.0015285
18070.0 0.0015232
18090.0 0.0015179
18110.0 0.0015126
18130.0 0.0015074
18150.0 0.0015023
18170.0 0.0014971
18190.0 0.0014919
18210.0 0.0014869
18230.0 0.0014818
18250.0 0.0014767
18270.0 0.0014717
18290.0 0.0014667
18310.0 0.0014618
18330.0 0.0014568
18350.0 0.001452
18370.0 0.0014471
18390.0 0.0014422
18410.0 0.0014374
18430.0 0.0014327
18450.0 0.0014279
18470.0 0.0014231
18490.0 0.0014185
18510.0 0.0014138
18530.0 0.0014091
18550.0 0.0014045
18570.0 0.0013999
18590.0 0.0013953
18610.0 0.0013908
18630.0 0.0013863
18650.0 0.0013818
18670.0 0.0013773
18690.0 0.0013729
18710.0 0.0013685
18730.0 0.0013641
18750.0 0.0013598
18770.0 0.0013555
18790.0 0.0013511
18810.0 0.0013468
18830.0 0.0013426
18850.0 0.0013384
18870.0 0.0013342
18890.0 0.00133
18910.0 0.0013259
18930.0 0.0013217
18950.0 0.0013176
18970.0 0.0013135
18990.0 0.0013095
19010.0 0.0013054
19030.0 0.0013014
19050.0 0.0012975
19070.0 0.0012935
19090.0 0.0012895
19110.0 0.0012857
19130.0 0.0012817
19150.0 0.0012779
19170.0 0.001274
19190.0 0.0012702
19210.0 0.0012664
19230.0 0.0012626
19250.0 0.0012589
19270.0 0.0012551
19290.0 0.0012514
19310.0 0.0012477
19330.0 0.0012441
19350.0 0.0012404
19370.0 0.0012368
19390.0 0.0012332
19410.0 0.0012296
19430.0 0.001226
19450.0 0.0012225
19470.0 0.001219
19490.0 0.0012155
19510.0 0.001212
19530.0 0.0012086
19550.0 0.0012051
19570.0 0.0012017
19590.0 0.0011983
19610.0 0.0011949
19630.0 0.0011916
19650.0 0.0011882
19670.0 0.001185
19690.0 0.0011816
19710.0 0.0011783
19730.0 0.0011751
19750.0 0.0011719
19770.0 0.0011686
19790.0 0.0011654
19810.0 0.0011622
19830.0 0.001159
19850.0 0.0011558
19870.0 0.0011525
19890.0 0.001149
19910.0 0.0011451
19930.0 0.0011405
19950.0 0.0011351
19970.0 0.0011281
19990.0 0.0011193
20010.0 0.0011089
20030.0 0.0010962
20050.0 0.0010814
20070.0 0.0010653
20090.0 0.0010482
20110.0 0.0010292
20130.0 0.0010103
20150.0 0.00099186
20170.0 0.00097309
20190.0 0.00095434
20210.0 0.00093676
20230.0 0.00091968
20250.0 0.00090259
20270.0 0.00088653
20290.0 0.00087157
20310.0 0.00085698
20330.0 0.00084279
20350.0 0.00083026
20370.0 0.00081838
20390.0 0.00080703
20410.0 0.00079673
20430.0 0.00078754
20450.0 0.00077877
20470.0 0.00077092
20490.0 0.00076416
20510.0 0.0007582
20530.0 0.00075294
20550.0 0.00074864
20570.0 0.00074521
20590.0 0.00074244
20610.0 0.00074041
20630.0 0.00073908
20650.0 0.00073834
20670.0 0.00073821
20690.0 0.00073854
20710.0 0.00073924
20730.0 0.00074033
20750.0 0.00074171
20770.0 0.00074314
20790.0 0.00074472
20810.0 0.00074639
20830.0 0.00074794
20850.0 0.00074932
20870.0 0.00075061
20890.0 0.00075162
20910.0 0.00075221
20930.0 0.00075247
20950.0 0.00075233
20970.0 0.00075171
20990.0 0.00075063
21010.0 0.00074904
21030.0 0.00074694
21050.0 0.00074439
21070.0 0.00074134
21090.0 0.00073774
21110.0 0.00073385
21130.0 0.00072964
21150.0 0.00072498
21170.0 0.00072008
21190.0 0.00071512
21210.0 0.00070985
21230.0 0.00070439
21250.0 0.00069908
21270.0 0.0006938
21290.0 0.00068843
21310.0 0.00068324
21330.0 0.0006784
21350.0 0.00067362
21370.0 0.00066904
21390.0 0.00066487
21410.0 0.00066102
21430.0 0.00065737
21450.0 0.00065421
21470.0 0.00065152
21490.0 0.0006492
21510.0 0.00064733
21530.0 0.00064596
21550.0 0.00064505
21570.0 0.00064463
21590.0 0.00064471
21610.0 0.00064524
21630.0 0.0006463
21650.0 0.00064791
21670.0 0.0006498
21690.0 0.00065214
21710.0 0.00065496
21730.0 0.00065806
21750.0 0.00066131
21770.0 0.00066506
21790.0 0.00066897
21810.0 0.00067286
21830.0 0.00067686
21850.0 0.00068104
21870.0 0.00068503
21890.0 0.00068879
21910.0 0.00069258
21930.0 0.00069616
21950.0 0.00069935
21970.0 0.00070233
21990.0 0.00070513
22010.0 0.00070742
22030.0 0.00070932
22050.0 0.0007109
22070.0 0.00071206
22090.0 0.00071274
22110.0 0.00071304
22130.0 0.00071291
22150.0 0.00071234
22170.0 0.00071134
22190.0 0.00070987
22210.0 0.00070794
22230.0 0.00070565
22250.0 0.0007029
22270.0 0.00069966
22290.0 0.00069609
22310.0 0.00069217
22330.0 0.00068765
22350.0 0.00068279
22370.0 0.00067767
22390.0 0.00067208
22410.0 0.00066595
22430.0 0.00065973
22450.0 0.00065324
22470.0 0.00064621
22490.0 0.00063898
22510.0 0.00063174
22530.0 0.00062401
22550.0 0.00061595
22570.0 0.00060809
22590.0 0.00060015
22610.0 0.00059192
22630.0 0.0005838
22650.0 0.00057607
22670.0 0.00056818
22690.0 0.00056037
22710.0 0.00055303
22730.0 0.00054594
22750.0 0.00053877
22770.0 0.00053217
22790.0 0.00052608
22810.0 0.00052015
22830.0 0.00051452
22850.0 0.00050947
22870.0 0.00050469
22890.0 0.00050009
22910.0 0.00049592
22930.0 0.00049213
22950.0 0.0004885
22970.0 0.00048506
22990.0 0.00048204
23010.0 0.00047916
23030.0 0.00047638
23050.0 0.00047381
23070.0 0.0004714
23090.0 0.00046896
23110.0 0.00046659
23130.0 0.00046434
23150.0 0.00046207
23170.0 0.00045974
23190.0 0.00045746
23210.0 0.00045523
23230.0 0.0004529
23250.0 0.0004506
23270.0 0.00044838
23290.0 0.00044618
23310.0 0.00044396
23330.0 0.00044193
23350.0 0.00044003
23370.0 0.00043822
23390.0 0.00043656
23410.0 0.00043512
23430.0 0.0004338
23450.0 0.00043261
23470.0 0.00043159
23490.0 0.00043071
23510.0 0.00042992
23530.0 0.00042923
23550.0 0.00042864
23570.0 0.00042809
23590.0 0.00042757
23610.0 0.00042708
23630.0 0.0004266
23650.0 0.00042612
23670.0 0.00042566
23690.0 0.00042522
23710.0 0.00042481
23730.0 0.00042446
23750.0 0.00042421
23770.0 0.00042409
23790.0 0.00042417
23810.0 0.0004245
