#lamb flux
1010.0 2.1581e-07
1030.0 2.3541e-07
1050.0 2.5796e-07
1070.0 2.8335e-07
1090.0 3.122e-07
1110.0 3.4179e-07
1130.0 3.7159e-07
1150.0 4.0281e-07
1170.0 4.3503e-07
1190.0 4.6561e-07
1210.0 4.9661e-07
1230.0 5.2866e-07
1250.0 5.6008e-07
1270.0 5.9062e-07
1290.0 6.229e-07
1310.0 6.5518e-07
1330.0 6.8617e-07
1350.0 7.1753e-07
1370.0 7.4993e-07
1390.0 7.8155e-07
1410.0 8.1227e-07
1430.0 8.4439e-07
1450.0 8.7654e-07
1470.0 9.0765e-07
1490.0 9.3911e-07
1510.0 9.7235e-07
1530.0 1.0039e-06
1550.0 1.035e-06
1570.0 1.0672e-06
1590.0 1.0994e-06
1610.0 1.1303e-06
1630.0 1.162e-06
1650.0 1.1946e-06
1670.0 1.2261e-06
1690.0 1.2571e-06
1710.0 1.2893e-06
1730.0 1.3217e-06
1750.0 1.352e-06
1770.0 1.3831e-06
1790.0 1.4148e-06
1810.0 1.4453e-06
1830.0 1.4752e-06
1850.0 1.5068e-06
1870.0 1.5373e-06
1890.0 1.5666e-06
1910.0 1.5963e-06
1930.0 1.6265e-06
1950.0 1.6549e-06
1970.0 1.6827e-06
1990.0 1.7114e-06
2010.0 1.7391e-06
2030.0 1.7654e-06
2050.0 1.7921e-06
2070.0 1.8192e-06
2090.0 1.8441e-06
2110.0 1.8683e-06
2130.0 1.893e-06
2150.0 1.9164e-06
2170.0 1.938e-06
2190.0 1.9601e-06
2210.0 1.9816e-06
2230.0 2.0013e-06
2250.0 2.0202e-06
2270.0 2.0395e-06
2290.0 2.0572e-06
2310.0 2.0729e-06
2330.0 2.0887e-06
2350.0 2.1038e-06
2370.0 2.117e-06
2390.0 2.1296e-06
2410.0 2.1429e-06
2430.0 2.1549e-06
2450.0 2.1662e-06
2470.0 2.1791e-06
2490.0 2.1951e-06
2510.0 2.2147e-06
2530.0 2.2473e-06
2550.0 2.3074e-06
2570.0 2.4093e-06
2590.0 2.5698e-06
2610.0 2.8332e-06
2630.0 3.208e-06
2650.0 3.6706e-06
2670.0 4.2236e-06
2690.0 4.8431e-06
2710.0 5.4398e-06
2730.0 5.9721e-06
2750.0 6.4495e-06
2770.0 6.8263e-06
2790.0 7.1007e-06
2810.0 7.311e-06
2830.0 7.4852e-06
2850.0 7.6165e-06
2870.0 7.7331e-06
2890.0 7.8523e-06
2910.0 7.9699e-06
2930.0 8.0786e-06
2950.0 8.1953e-06
2970.0 8.317e-06
2990.0 8.4318e-06
3010.0 6.7119e-05
3030.0 6.8057e-05
3050.0 6.8959e-05
3070.0 6.969e-05
3090.0 7.0293e-05
3110.0 7.0571e-05
3130.0 7.0291e-05
3150.0 6.9283e-05
3170.0 6.7216e-05
3190.0 6.409e-05
3210.0 6.0087e-05
3230.0 5.5716e-05
3250.0 5.7801e-05
3270.0 5.3812e-05
3290.0 6.1117e-05
3310.0 5.3558e-05
3330.0 5.4407e-05
3350.0 5.6761e-05
3370.0 5.9782e-05
3390.0 6.3293e-05
3410.0 6.6892e-05
3430.0 7.0725e-05
3450.0 7.4771e-05
3470.0 7.8745e-05
3490.0 8.2313e-05
3510.0 8.818e-05
3530.0 9.6396e-05
3550.0 9.8585e-05
3570.0 9.755e-05
3590.0 0.00010766
3610.0 0.00010251
3630.0 0.0001169
3650.0 0.00012525
3670.0 0.00013659
3690.0 0.00013492
3710.0 0.00012243
3730.0 0.0001286
3750.0 0.00012893
3770.0 0.00013744
3790.0 0.00014636
3810.0 0.0001658
3830.0 0.00021832
3850.0 0.00026933
3870.0 0.00031578
3890.0 0.00033432
3910.0 0.00033175
3930.0 0.00033834
3950.0 0.00035202
3970.0 0.00031496
3990.0 0.00019814
4010.0 0.00015142
4030.0 0.00022956
4050.0 0.00030416
4070.0 0.00027757
4090.0 0.00016386
4110.0 0.00014438
4130.0 0.00022429
4150.0 0.00025516
4170.0 0.00021121
4190.0 0.00017663
4210.0 0.00024553
4230.0 0.00024307
4250.0 0.00023028
4270.0 0.00023032
4290.0 0.00020734
4310.0 0.00024252
4330.0 0.00028298
4350.0 0.00031042
4370.0 0.00029742
4390.0 0.00029964
4410.0 0.00027267
4430.0 0.00020906
4450.0 0.00015977
4470.0 0.00018273
4490.0 0.00018637
4510.0 0.00026402
4530.0 0.00027276
4550.0 0.00026982
4570.0 0.00032286
4590.0 0.00039649
4610.0 0.00051448
4630.0 0.00065272
4650.0 0.0006827
4670.0 0.00070109
4690.0 0.00072122
4710.0 0.00070835
4730.0 0.00059167
4750.0 0.00042614
4770.0 0.0003522
4790.0 0.00029432
4810.0 0.00029414
4830.0 0.00033084
4850.0 0.00035373
4870.0 0.00037286
4890.0 0.00044583
4910.0 0.00042248
4930.0 0.00045111
4950.0 0.00054959
4970.0 0.00062961
4990.0 0.00071743
5010.0 0.00072615
5030.0 0.0006391
5050.0 0.00048472
5070.0 0.00035254
5090.0 0.00030127
5110.0 0.00030839
5130.0 0.00033053
5150.0 0.00030995
5170.0 0.00030449
5190.0 0.00031056
5210.0 0.00031877
5230.0 0.00034842
5250.0 0.00036452
5270.0 0.00037227
5290.0 0.0004411
5310.0 0.00052308
5330.0 0.00056172
5350.0 0.000552
5370.0 0.00057488
5390.0 0.00060857
5410.0 0.00057984
5430.0 0.00054406
5450.0 0.00056204
5470.0 0.00064591
5490.0 0.00080301
5510.0 0.00096299
5530.0 0.001008
5550.0 0.0009903
5570.0 0.00095444
5590.0 0.00090437
5610.0 0.00086138
5630.0 0.00087329
5650.0 0.00090528
5670.0 0.00087496
5690.0 0.0008098
5710.0 0.00079483
5730.0 0.00071697
5750.0 0.00060301
5770.0 0.00054445
5790.0 0.0005985
5810.0 0.00065295
5830.0 0.00072496
5850.0 0.00073033
5870.0 0.00071168
5890.0 0.00069969
5910.0 0.00064789
5930.0 0.00062409
5950.0 0.00064503
5970.0 0.00066496
5990.0 0.00058555
6010.0 0.00048418
6030.0 0.00040397
6050.0 0.00036511
6070.0 0.00036852
6090.0 0.00040597
6110.0 0.00043002
6130.0 0.00041534
6150.0 0.00041513
6170.0 0.00044841
6190.0 0.00050531
6210.0 0.00059528
6230.0 0.00068197
6250.0 0.00064043
6270.0 0.00055882
6290.0 0.00047378
6310.0 0.00038257
6330.0 0.00032974
6350.0 0.00032268
6370.0 0.00035014
6390.0 0.00038715
6410.0 0.0004581
6430.0 0.00056577
6450.0 0.00068129
6470.0 0.00077768
6490.0 0.00087696
6510.0 0.0009407
6530.0 0.0009101
6550.0 0.00087296
6570.0 0.00087918
6590.0 0.00087814
6610.0 0.00085187
6630.0 0.00080281
6650.0 0.00073601
6670.0 0.0007209
6690.0 0.00070416
6710.0 0.00067816
6730.0 0.00059098
6750.0 0.00051734
6770.0 0.00052256
6790.0 0.00055761
6810.0 0.00061485
6830.0 0.00062553
6850.0 0.00058127
6870.0 0.00057117
6890.0 0.00056156
6910.0 0.00052972
6930.0 0.00052236
6950.0 0.0005198
6970.0 0.0005227
6990.0 0.00054518
7010.0 0.00058466
7030.0 0.00057529
7050.0 0.00052384
7070.0 0.00048484
7090.0 0.00042076
7110.0 0.00036921
7130.0 0.0003778
7150.0 0.00040689
7170.0 0.00042672
7190.0 0.00042208
7210.0 0.00041395
7230.0 0.00045997
7250.0 0.00051131
7270.0 0.0005406
7290.0 0.00054705
7310.0 0.00053208
7330.0 0.0004948
7350.0 0.00045845
7370.0 0.00043051
7390.0 0.00042242
7410.0 0.00045668
7430.0 0.00052897
7450.0 0.00058648
7470.0 0.00065318
7490.0 0.00075544
7510.0 0.00073612
7530.0 0.00061223
7550.0 0.00052064
7570.0 0.00043352
7590.0 0.00036764
7610.0 0.0003571
7630.0 0.00036531
7650.0 0.00039884
7670.0 0.00045606
7690.0 0.00050147
7710.0 0.00056894
7730.0 0.00059146
7750.0 0.00061175
7770.0 0.00065437
7790.0 0.00067012
7810.0 0.00065831
7830.0 0.00061362
7850.0 0.00060454
7870.0 0.00058795
7890.0 0.00054948
7910.0 0.00050504
7930.0 0.00046841
7950.0 0.00039587
7970.0 0.00037813
7990.0 0.00038567
8010.0 0.00045124
8030.0 0.000453
8050.0 0.00047446
8070.0 0.00046437
8090.0 0.00046501
8110.0 0.00045533
8130.0 0.00043374
8150.0 0.00040251
8170.0 0.00039895
8190.0 0.00040351
8210.0 0.00040777
8230.0 0.00037466
8250.0 0.00034945
8270.0 0.00030782
8290.0 0.00025589
8310.0 0.00020872
8330.0 0.00015334
8350.0 0.00011737
8370.0 0.00010967
8390.0 0.00011618
8410.0 0.00013308
8430.0 0.0001687
8450.0 0.00018622
8470.0 0.00020052
8490.0 0.00022468
8510.0 0.00024238
8530.0 0.00027
8550.0 0.00031934
8570.0 0.00036025
8590.0 0.00038937
8610.0 0.00044499
8630.0 0.00051395
8650.0 0.00053757
8670.0 0.00054751
8690.0 0.00055075
8710.0 0.00053453
8730.0 0.0005127
8750.0 0.00047711
8770.0 0.00047107
8790.0 0.00045752
8810.0 0.00042256
8830.0 0.00040525
8850.0 0.00035653
8870.0 0.00033038
8890.0 0.00030199
8910.0 0.0003347
8930.0 0.00031247
8950.0 0.00031749
8970.0 0.00032438
8990.0 0.00032043
9010.0 0.0003253
9030.0 0.00031194
9050.0 0.00031097
9070.0 0.00031129
9090.0 0.00031161
9110.0 0.0003121
9130.0 0.00031241
9150.0 0.00031263
9170.0 0.00031231
9190.0 0.00031123
9210.0 0.00031504
9230.0 0.00031449
9250.0 0.0003144
9270.0 0.00031442
9290.0 0.00031454
9310.0 0.0003147
9330.0 0.0003149
9350.0 0.00031513
9370.0 0.00031538
9390.0 0.00031562
9410.0 0.00031587
9430.0 0.00031614
9450.0 0.0003164
9470.0 0.00031666
9490.0 0.00031694
9510.0 0.00031722
9530.0 0.0003175
9550.0 0.0003178
9570.0 0.00031812
9590.0 0.00031843
9610.0 0.00031875
9630.0 0.0003191
9650.0 0.00031945
9670.0 0.0003198
9690.0 0.00032018
9710.0 0.00032057
9730.0 0.00032096
9750.0 0.00032137
9770.0 0.00032182
9790.0 0.00032225
9810.0 0.0003227
9830.0 0.00032317
9850.0 0.00032366
9870.0 0.00032414
9890.0 0.00032464
9910.0 0.00032517
9930.0 0.0003257
9950.0 0.00032597
9970.0 0.00032662
9990.0 0.00032727
10010.0 0.00032787
10030.0 0.00032848
10050.0 0.00032898
10070.0 0.0003288
10090.0 0.0003297
10110.0 0.00033058
10130.0 0.00033139
10150.0 0.00033215
10170.0 0.00033287
10190.0 0.00033355
10210.0 0.00033423
10230.0 0.00033492
10250.0 0.00033559
10270.0 0.00033626
10290.0 0.00033695
10310.0 0.00033762
10330.0 0.00033827
10350.0 0.00033896
10370.0 0.00033964
10390.0 0.00034029
10410.0 0.00034095
10430.0 0.00034163
10450.0 0.00034228
10470.0 0.00034292
10490.0 0.00034356
10510.0 0.00034421
10530.0 0.0003448
10550.0 0.00034541
10570.0 0.00034602
10590.0 0.00034661
10610.0 0.00034717
10630.0 0.00034775
10650.0 0.0003483
10670.0 0.00034882
10690.0 0.00034933
10710.0 0.00034984
10730.0 0.00035032
10750.0 0.00035077
10770.0 0.00035123
10790.0 0.00035166
10810.0 0.00035205
10830.0 0.00035242
10850.0 0.00035275
10870.0 0.00035295
10890.0 0.00035298
10910.0 0.00035273
10930.0 0.000352
10950.0 0.00035047
10970.0 0.00034799
10990.0 0.00034447
11010.0 0.00035036
11030.0 0.00034321
11050.0 0.00033498
11070.0 0.00032556
11090.0 0.00031468
11110.0 0.00030389
11130.0 0.00029314
11150.0 0.00028217
11170.0 0.00027156
11190.0 0.000262
11210.0 0.00025287
11230.0 0.00024432
11250.0 0.00023692
11270.0 0.00023047
11290.0 0.00022462
11310.0 0.00021957
11330.0 0.00021546
11350.0 0.00021175
11370.0 0.00020835
11390.0 0.00020528
11410.0 0.00020232
11430.0 0.00019914
11450.0 0.00019583
11470.0 0.00019236
11490.0 0.00018852
11510.0 0.00018421
11530.0 0.00017978
11550.0 0.00017512
11570.0 0.00017008
11590.0 0.00016495
11610.0 0.00015992
11630.0 0.00015473
11650.0 0.00014952
11670.0 0.00014469
11690.0 0.00014006
11710.0 0.00013551
11730.0 0.00013127
11750.0 0.00012744
11770.0 0.0001237
11790.0 0.00012016
11810.0 0.00011693
11830.0 0.00011386
11850.0 0.00011079
11870.0 0.00010791
11890.0 0.00010517
11910.0 0.00010239
11930.0 9.9597e-05
11950.0 9.6897e-05
11970.0 9.4159e-05
11990.0 9.1295e-05
12010.0 8.849e-05
12030.0 8.5749e-05
12050.0 8.296e-05
12070.0 8.0181e-05
12090.0 7.7659e-05
12110.0 7.5243e-05
12130.0 7.2958e-05
12150.0 7.0961e-05
12170.0 6.9283e-05
12190.0 6.7849e-05
12210.0 6.6809e-05
12230.0 6.6187e-05
12250.0 6.5962e-05
12270.0 6.6178e-05
12290.0 6.6809e-05
12310.0 6.7793e-05
12330.0 6.9201e-05
12350.0 7.0945e-05
12370.0 7.2883e-05
12390.0 7.505e-05
12410.0 7.7491e-05
12430.0 7.9844e-05
12450.0 8.2149e-05
12470.0 8.4454e-05
12490.0 8.6604e-05
12510.0 8.8456e-05
12530.0 9.014e-05
12550.0 9.1595e-05
12570.0 9.2704e-05
12590.0 9.3515e-05
12610.0 9.4073e-05
12630.0 9.4328e-05
12650.0 9.4291e-05
12670.0 9.4021e-05
12690.0 9.3519e-05
12710.0 9.2822e-05
12730.0 9.1962e-05
12750.0 9.0913e-05
12770.0 8.9744e-05
12790.0 8.8495e-05
12810.0 8.7129e-05
12830.0 8.5645e-05
12850.0 8.4137e-05
12870.0 8.2563e-05
12890.0 8.0858e-05
12910.0 7.9087e-05
12930.0 7.7282e-05
12950.0 7.5323e-05
12970.0 7.3228e-05
12990.0 7.1134e-05
13010.0 6.896e-05
13030.0 6.6658e-05
13050.0 6.4349e-05
13070.0 6.2113e-05
13090.0 5.9818e-05
13110.0 5.7567e-05
13130.0 5.5486e-05
13150.0 5.3535e-05
13170.0 5.167e-05
13190.0 5.0071e-05
13210.0 4.873e-05
13230.0 4.7581e-05
13250.0 4.6672e-05
13270.0 4.6025e-05
13290.0 4.5587e-05
13310.0 4.5351e-05
13330.0 4.5302e-05
13350.0 4.5395e-05
13370.0 4.5608e-05
13390.0 4.5907e-05
13410.0 4.6222e-05
13430.0 4.655e-05
13450.0 4.6867e-05
13470.0 4.7129e-05
13490.0 4.7325e-05
13510.0 4.7466e-05
13530.0 4.7528e-05
13550.0 4.7518e-05
13570.0 4.7452e-05
13590.0 4.7341e-05
13610.0 4.72e-05
13630.0 4.7045e-05
13650.0 4.6885e-05
13670.0 4.6735e-05
13690.0 4.6602e-05
13710.0 4.6487e-05
13730.0 4.6393e-05
13750.0 4.6316e-05
13770.0 4.6249e-05
13790.0 4.6183e-05
13810.0 4.6107e-05
13830.0 4.6011e-05
13850.0 4.5886e-05
13870.0 4.5718e-05
13890.0 4.5505e-05
13910.0 4.5246e-05
13930.0 4.4929e-05
13950.0 4.4563e-05
13970.0 4.4176e-05
13990.0 4.3754e-05
14010.0 4.331e-05
14030.0 4.2878e-05
14050.0 4.246e-05
14070.0 4.2047e-05
14090.0 4.1678e-05
14110.0 4.1357e-05
14130.0 4.1072e-05
14150.0 4.083e-05
14170.0 4.0639e-05
14190.0 4.049e-05
14210.0 4.0379e-05
14230.0 4.031e-05
14250.0 4.028e-05
14270.0 4.0293e-05
14290.0 4.0355e-05
14310.0 4.0457e-05
14330.0 4.0607e-05
14350.0 4.0815e-05
14370.0 4.1067e-05
14390.0 4.1352e-05
14410.0 4.1695e-05
14430.0 4.2079e-05
14450.0 4.248e-05
14470.0 4.2911e-05
14490.0 4.3394e-05
14510.0 4.3883e-05
14530.0 4.4386e-05
14550.0 4.4943e-05
14570.0 4.555e-05
14590.0 4.6184e-05
14610.0 4.6897e-05
14630.0 4.7725e-05
14650.0 4.8622e-05
14670.0 4.9603e-05
14690.0 5.0729e-05
14710.0 5.1989e-05
14730.0 5.3276e-05
14750.0 5.4685e-05
14770.0 5.6214e-05
14790.0 5.7761e-05
14810.0 5.9301e-05
14830.0 6.0947e-05
14850.0 6.2537e-05
14870.0 6.4005e-05
14890.0 6.5407e-05
14910.0 6.6716e-05
14930.0 6.7823e-05
14950.0 6.8735e-05
14970.0 6.9495e-05
14990.0 7.0043e-05
15010.0 7.039e-05
15030.0 7.0582e-05
15050.0 7.0636e-05
15070.0 7.0582e-05
15090.0 7.0462e-05
15110.0 7.0293e-05
15130.0 7.01e-05
15150.0 6.99e-05
15170.0 6.9688e-05
15190.0 6.9471e-05
15210.0 6.9261e-05
15230.0 6.9053e-05
15250.0 6.8837e-05
15270.0 6.8625e-05
15290.0 6.8423e-05
15310.0 6.8216e-05
15330.0 6.8008e-05
15350.0 6.7807e-05
15370.0 6.7608e-05
15390.0 6.7399e-05
15410.0 6.7197e-05
15430.0 6.7002e-05
15450.0 6.6801e-05
15470.0 6.6598e-05
15490.0 6.6405e-05
15510.0 6.6213e-05
15530.0 6.6014e-05
15550.0 6.5819e-05
15570.0 6.5631e-05
15590.0 6.5435e-05
15610.0 6.5237e-05
15630.0 6.505e-05
15650.0 6.4861e-05
15670.0 6.4667e-05
15690.0 6.4477e-05
15710.0 6.4295e-05
15730.0 6.4104e-05
15750.0 6.3912e-05
15770.0 6.3729e-05
15790.0 6.3544e-05
15810.0 6.335e-05
15830.0 6.3164e-05
15850.0 6.2983e-05
15870.0 6.2796e-05
15890.0 6.2608e-05
15910.0 6.2429e-05
15930.0 6.2245e-05
15950.0 6.2054e-05
15970.0 6.1871e-05
15990.0 6.1691e-05
16010.0 6.1504e-05
16030.0 6.1314e-05
16050.0 6.1137e-05
16070.0 6.0954e-05
16090.0 6.0767e-05
16110.0 6.0585e-05
16130.0 6.0407e-05
16150.0 6.0216e-05
16170.0 6.0029e-05
16190.0 5.985e-05
16210.0 5.9666e-05
16230.0 5.9476e-05
16250.0 5.9294e-05
16270.0 5.9115e-05
16290.0 5.8926e-05
16310.0 5.8739e-05
16330.0 5.8559e-05
16350.0 5.8373e-05
16370.0 5.8178e-05
16390.0 5.7995e-05
16410.0 5.7812e-05
16430.0 5.7622e-05
16450.0 5.7433e-05
16470.0 5.7253e-05
16490.0 5.7062e-05
16510.0 5.6869e-05
16530.0 5.6683e-05
16550.0 5.6496e-05
16570.0 5.6301e-05
16590.0 5.6107e-05
16610.0 5.5923e-05
16630.0 5.5731e-05
16650.0 5.5536e-05
16670.0 5.5347e-05
16690.0 5.5158e-05
16710.0 5.4957e-05
16730.0 5.4762e-05
16750.0 5.4572e-05
16770.0 5.4375e-05
16790.0 5.4174e-05
16810.0 5.3983e-05
16830.0 5.3789e-05
16850.0 5.3587e-05
16870.0 5.3389e-05
16890.0 5.3196e-05
16910.0 5.2992e-05
16930.0 5.2786e-05
16950.0 5.259e-05
16970.0 5.2391e-05
16990.0 5.2184e-05
17010.0 5.1982e-05
17030.0 5.1785e-05
17050.0 5.1578e-05
17070.0 5.137e-05
17090.0 5.1169e-05
17110.0 5.0964e-05
17130.0 5.075e-05
17150.0 5.0544e-05
17170.0 5.0341e-05
17190.0 5.0131e-05
17210.0 4.9919e-05
17230.0 4.9715e-05
17250.0 4.9505e-05
17270.0 4.9288e-05
17290.0 4.9078e-05
17310.0 4.8869e-05
17330.0 4.8653e-05
17350.0 4.8434e-05
17370.0 4.8227e-05
17390.0 4.8013e-05
17410.0 4.7794e-05
17430.0 4.758e-05
17450.0 4.737e-05
17470.0 4.7145e-05
17490.0 4.6925e-05
17510.0 4.6711e-05
17530.0 4.6493e-05
17550.0 4.6268e-05
17570.0 4.6052e-05
17590.0 4.5836e-05
17610.0 4.5611e-05
17630.0 4.5389e-05
17650.0 4.5172e-05
17670.0 4.4949e-05
17690.0 4.4717e-05
17710.0 4.4498e-05
17730.0 4.4278e-05
17750.0 4.405e-05
17770.0 4.3825e-05
17790.0 4.3607e-05
17810.0 4.3379e-05
17830.0 4.3148e-05
17850.0 4.2925e-05
17870.0 4.2701e-05
17890.0 4.2468e-05
17910.0 4.2239e-05
17930.0 4.2018e-05
17950.0 4.1789e-05
17970.0 4.1557e-05
17990.0 4.1333e-05
18010.0 4.1108e-05
18030.0 4.087e-05
18050.0 4.0641e-05
18070.0 4.0416e-05
18090.0 4.0184e-05
18110.0 3.9949e-05
18130.0 3.9724e-05
18150.0 3.9496e-05
18170.0 3.9261e-05
18190.0 3.9031e-05
18210.0 3.8805e-05
18230.0 3.857e-05
18250.0 3.8333e-05
18270.0 3.8106e-05
18290.0 3.7876e-05
18310.0 3.764e-05
18330.0 3.741e-05
18350.0 3.7184e-05
18370.0 3.6949e-05
18390.0 3.6714e-05
18410.0 3.6486e-05
18430.0 3.6255e-05
18450.0 3.6016e-05
18470.0 3.5785e-05
18490.0 3.5559e-05
18510.0 3.5324e-05
18530.0 3.5091e-05
18550.0 3.4865e-05
18570.0 3.4633e-05
18590.0 3.4395e-05
18610.0 3.4165e-05
18630.0 3.3938e-05
18650.0 3.3703e-05
18670.0 3.3468e-05
18690.0 3.3243e-05
18710.0 3.3013e-05
18730.0 3.2779e-05
18750.0 3.2551e-05
18770.0 3.2325e-05
18790.0 3.2088e-05
18810.0 3.1856e-05
18830.0 3.1631e-05
18850.0 3.1401e-05
18870.0 3.1167e-05
18890.0 3.0942e-05
18910.0 3.0718e-05
18930.0 3.0485e-05
18950.0 3.0256e-05
18970.0 3.0033e-05
18990.0 2.9804e-05
19010.0 2.9568e-05
19030.0 2.9346e-05
19050.0 2.9123e-05
19070.0 2.8893e-05
19090.0 2.8667e-05
19110.0 2.8448e-05
19130.0 2.8219e-05
19150.0 2.799e-05
19170.0 2.7769e-05
19190.0 2.7547e-05
19210.0 2.7317e-05
19230.0 2.7092e-05
19250.0 2.6876e-05
19270.0 2.6652e-05
19290.0 2.6427e-05
19310.0 2.6209e-05
19330.0 2.5991e-05
19350.0 2.5762e-05
19370.0 2.5542e-05
19390.0 2.5326e-05
19410.0 2.5104e-05
19430.0 2.4881e-05
19450.0 2.4668e-05
19470.0 2.4451e-05
19490.0 2.4229e-05
19510.0 2.4013e-05
19530.0 2.3801e-05
19550.0 2.358e-05
19570.0 2.3359e-05
19590.0 2.3149e-05
19610.0 2.2935e-05
19630.0 2.2717e-05
19650.0 2.2505e-05
19670.0 2.2296e-05
19690.0 2.2079e-05
19710.0 2.1865e-05
19730.0 2.1656e-05
19750.0 2.1445e-05
19770.0 2.1228e-05
19790.0 2.1019e-05
19810.0 2.0813e-05
19830.0 2.0601e-05
19850.0 2.0388e-05
19870.0 2.018e-05
19890.0 1.996e-05
19910.0 1.9725e-05
19930.0 1.948e-05
19950.0 1.9212e-05
19970.0 1.8899e-05
19990.0 1.8543e-05
20010.0 1.816e-05
20030.0 1.7722e-05
20050.0 1.7241e-05
20070.0 1.6753e-05
20090.0 1.6263e-05
20110.0 1.5752e-05
20130.0 1.5277e-05
20150.0 1.4847e-05
20170.0 1.444e-05
20190.0 1.4068e-05
20210.0 1.3751e-05
20230.0 1.3473e-05
20250.0 1.3224e-05
20270.0 1.3019e-05
20290.0 1.2855e-05
20310.0 1.2721e-05
20330.0 1.2618e-05
20350.0 1.2551e-05
20370.0 1.2512e-05
20390.0 1.25e-05
20410.0 1.2517e-05
20430.0 1.2557e-05
20450.0 1.2627e-05
20470.0 1.2726e-05
20490.0 1.2846e-05
20510.0 1.2994e-05
20530.0 1.3174e-05
20550.0 1.3374e-05
20570.0 1.3589e-05
20590.0 1.3833e-05
20610.0 1.4095e-05
20630.0 1.4361e-05
20650.0 1.4638e-05
20670.0 1.4934e-05
20690.0 1.5216e-05
20710.0 1.5489e-05
20730.0 1.5762e-05
20750.0 1.6024e-05
20770.0 1.6261e-05
20790.0 1.6489e-05
20810.0 1.6711e-05
20830.0 1.6914e-05
20850.0 1.7105e-05
20870.0 1.7299e-05
20890.0 1.7491e-05
20910.0 1.7674e-05
20930.0 1.7865e-05
20950.0 1.8066e-05
20970.0 1.8265e-05
20990.0 1.8465e-05
21010.0 1.8678e-05
21030.0 1.8885e-05
21050.0 1.908e-05
21070.0 1.9267e-05
21090.0 1.9445e-05
21110.0 1.9594e-05
21130.0 1.9717e-05
21150.0 1.9819e-05
21170.0 1.989e-05
21190.0 1.993e-05
21210.0 1.9941e-05
21230.0 1.9921e-05
21250.0 1.9872e-05
21270.0 1.9798e-05
21290.0 1.9695e-05
21310.0 1.9569e-05
21330.0 1.9429e-05
21350.0 1.9267e-05
21370.0 1.9086e-05
21390.0 1.8899e-05
21410.0 1.8703e-05
21430.0 1.8488e-05
21450.0 1.8275e-05
21470.0 1.8066e-05
21490.0 1.7853e-05
21510.0 1.764e-05
21530.0 1.7442e-05
21550.0 1.7251e-05
21570.0 1.7065e-05
21590.0 1.6897e-05
21610.0 1.6748e-05
21630.0 1.6614e-05
21650.0 1.6498e-05
21670.0 1.6411e-05
21690.0 1.6345e-05
21710.0 1.6303e-05
21730.0 1.6289e-05
21750.0 1.6299e-05
21770.0 1.6338e-05
21790.0 1.6405e-05
21810.0 1.6495e-05
21830.0 1.6611e-05
21850.0 1.6757e-05
21870.0 1.6922e-05
21890.0 1.7102e-05
21910.0 1.7309e-05
21930.0 1.7534e-05
21950.0 1.7766e-05
21970.0 1.8013e-05
21990.0 1.8284e-05
22010.0 1.8549e-05
22030.0 1.8815e-05
22050.0 1.9091e-05
22070.0 1.9366e-05
22090.0 1.9624e-05
22110.0 1.988e-05
22130.0 2.0133e-05
22150.0 2.0362e-05
22170.0 2.0572e-05
22190.0 2.0771e-05
22210.0 2.0943e-05
22230.0 2.1079e-05
22250.0 2.1191e-05
22270.0 2.1271e-05
22290.0 2.1315e-05
22310.0 2.1323e-05
22330.0 2.1292e-05
22350.0 2.1222e-05
22370.0 2.1115e-05
22390.0 2.0967e-05
22410.0 2.0772e-05
22430.0 2.0549e-05
22450.0 2.0293e-05
22470.0 1.9994e-05
22490.0 1.9666e-05
22510.0 1.9322e-05
22530.0 1.8939e-05
22550.0 1.8526e-05
22570.0 1.8112e-05
22590.0 1.7685e-05
22610.0 1.7232e-05
