#lamb flux
1010.0 1.0597e-05
1030.0 1.1245e-05
1050.0 1.199e-05
1070.0 1.2829e-05
1090.0 1.3782e-05
1110.0 1.4759e-05
1130.0 1.5743e-05
1150.0 1.6774e-05
1170.0 1.7837e-05
1190.0 1.8846e-05
1210.0 1.9869e-05
1230.0 2.0926e-05
1250.0 2.1962e-05
1270.0 2.2968e-05
1290.0 2.4032e-05
1310.0 2.5095e-05
1330.0 2.6115e-05
1350.0 2.7147e-05
1370.0 2.8213e-05
1390.0 2.9253e-05
1410.0 3.0262e-05
1430.0 3.1318e-05
1450.0 3.2374e-05
1470.0 3.3395e-05
1490.0 3.4428e-05
1510.0 3.5519e-05
1530.0 3.6554e-05
1550.0 3.7576e-05
1570.0 3.8633e-05
1590.0 3.9692e-05
1610.0 4.0705e-05
1630.0 4.175e-05
1650.0 4.2823e-05
1670.0 4.3861e-05
1690.0 4.4888e-05
1710.0 4.5954e-05
1730.0 4.7028e-05
1750.0 4.8039e-05
1770.0 4.9081e-05
1790.0 5.0145e-05
1810.0 5.1176e-05
1830.0 5.2192e-05
1850.0 5.327e-05
1870.0 5.4323e-05
1890.0 5.5344e-05
1910.0 5.6386e-05
1930.0 5.7457e-05
1950.0 5.8482e-05
1970.0 5.9498e-05
1990.0 6.0556e-05
2010.0 6.16e-05
2030.0 6.2612e-05
2050.0 6.3658e-05
2070.0 6.4736e-05
2090.0 6.5758e-05
2110.0 6.6784e-05
2130.0 6.7845e-05
2150.0 6.8894e-05
2170.0 6.9906e-05
2190.0 7.0962e-05
2210.0 7.2032e-05
2230.0 7.3069e-05
2250.0 7.411e-05
2270.0 7.5205e-05
2290.0 7.6276e-05
2310.0 7.7315e-05
2330.0 7.8395e-05
2350.0 7.9493e-05
2370.0 8.0559e-05
2390.0 8.1645e-05
2410.0 8.2787e-05
2430.0 8.3897e-05
2450.0 8.4968e-05
2470.0 8.6021e-05
2490.0 8.7003e-05
2510.0 8.7845e-05
2530.0 8.8675e-05
2550.0 8.9709e-05
2570.0 9.1289e-05
2590.0 9.3887e-05
2610.0 9.8496e-05
2630.0 0.0001057
2650.0 0.00011544
2670.0 0.00012804
2690.0 0.00014339
2710.0 0.00015972
2730.0 0.00017601
2750.0 0.00019257
2770.0 0.000208
2790.0 0.00022178
2810.0 0.00023476
2830.0 0.00024766
2850.0 0.00025956
2870.0 0.00027132
2890.0 0.00028361
2910.0 0.00029604
2930.0 0.00030811
2950.0 0.00032073
2970.0 0.00033371
2990.0 0.00034634
3010.0 0.00074349
3030.0 0.00077067
3050.0 0.00079812
3070.0 0.0008244
3090.0 0.00085197
3110.0 0.00088065
3130.0 0.00090897
3150.0 0.00093704
3170.0 0.00096575
3190.0 0.00099058
3210.0 0.0010098
3230.0 0.0010249
3250.0 0.00090328
3270.0 0.00078245
3290.0 0.00059758
3310.0 0.00066963
3330.0 0.00072119
3350.0 0.00077024
3370.0 0.00081889
3390.0 0.0008676
3410.0 0.00091632
3430.0 0.00096494
3450.0 0.0010137
3470.0 0.0010622
3490.0 0.0011033
3510.0 0.0011172
3530.0 0.001169
3550.0 0.0014283
3570.0 0.0018106
3590.0 0.0020487
3610.0 0.002332
3630.0 0.0021723
3650.0 0.001987
3670.0 0.0019151
3690.0 0.0022763
3710.0 0.0028887
3730.0 0.0031053
3750.0 0.0032237
3770.0 0.0032556
3790.0 0.0032017
3810.0 0.002906
3830.0 0.0022505
3850.0 0.0017974
3870.0 0.0017508
3890.0 0.0023895
3910.0 0.0032489
3930.0 0.0038093
3950.0 0.0040196
3970.0 0.0039989
3990.0 0.0045633
4010.0 0.0051012
4030.0 0.0047716
4050.0 0.0041743
4070.0 0.0035314
4090.0 0.0035104
4110.0 0.0039771
4130.0 0.0040363
4150.0 0.0040689
4170.0 0.0038337
4190.0 0.0036554
4210.0 0.0037005
4230.0 0.0042532
4250.0 0.0042948
4270.0 0.0042666
4290.0 0.0042261
4310.0 0.0042296
4330.0 0.0046732
4350.0 0.0053821
4370.0 0.0054693
4390.0 0.0047331
4410.0 0.0039097
4430.0 0.003352
4450.0 0.0028841
4470.0 0.0027944
4490.0 0.0033409
4510.0 0.0037482
4530.0 0.0041091
4550.0 0.0044168
4570.0 0.005218
4590.0 0.0074404
4610.0 0.009967
4630.0 0.010324
4650.0 0.0098006
4670.0 0.010416
4690.0 0.011426
4710.0 0.010103
4730.0 0.0074396
4750.0 0.0056616
4770.0 0.0051543
4790.0 0.0051739
4810.0 0.0048502
4830.0 0.0052917
4850.0 0.0067184
4870.0 0.0083446
4890.0 0.007458
4910.0 0.0065555
4930.0 0.0072729
4950.0 0.0095552
4970.0 0.012397
4990.0 0.012777
5010.0 0.011008
5030.0 0.0082598
5050.0 0.0059225
5070.0 0.0049802
5090.0 0.0047239
5110.0 0.0047933
5130.0 0.0049871
5150.0 0.0049211
5170.0 0.0050154
5190.0 0.0048561
5210.0 0.0050174
5230.0 0.0053674
5250.0 0.0059164
5270.0 0.0072909
5290.0 0.0083235
5310.0 0.0083659
5330.0 0.0087108
5350.0 0.0098302
5370.0 0.010454
5390.0 0.0096993
5410.0 0.0083054
5430.0 0.0079
5450.0 0.0091199
5470.0 0.011767
5490.0 0.014608
5510.0 0.016068
5530.0 0.016407
5550.0 0.015641
5570.0 0.014567
5590.0 0.01408
5610.0 0.014249
5630.0 0.014581
5650.0 0.014606
5670.0 0.014385
5690.0 0.013981
5710.0 0.012545
5730.0 0.010492
5750.0 0.0088031
5770.0 0.0088524
5790.0 0.0097238
5810.0 0.010456
5830.0 0.010797
5850.0 0.010783
5870.0 0.0099643
5890.0 0.0087193
5910.0 0.0085293
5930.0 0.0092478
5950.0 0.0095511
5970.0 0.0087504
5990.0 0.0075315
6010.0 0.0062115
6030.0 0.0052164
6050.0 0.005137
6070.0 0.0058391
6090.0 0.0061476
6110.0 0.0056213
6130.0 0.0052028
6150.0 0.0055271
6170.0 0.0066176
6190.0 0.0078954
6210.0 0.0085851
6230.0 0.0082882
6250.0 0.0075968
6270.0 0.0065739
6290.0 0.0054499
6310.0 0.0045109
6330.0 0.0040746
6350.0 0.0042438
6370.0 0.0046007
6390.0 0.0049796
6410.0 0.0056659
6430.0 0.006976
6450.0 0.0087854
6470.0 0.010001
6490.0 0.010026
6510.0 0.0097893
6530.0 0.0099749
6550.0 0.010198
6570.0 0.010288
6590.0 0.010288
6610.0 0.010009
6630.0 0.010023
6650.0 0.010057
6670.0 0.0096694
6690.0 0.0086708
6710.0 0.0073297
6730.0 0.0070181
6750.0 0.0075422
6770.0 0.008201
6790.0 0.0084541
6810.0 0.0083588
6830.0 0.0082445
6850.0 0.0080649
6870.0 0.0076044
6890.0 0.0071655
6910.0 0.0068481
6930.0 0.0066006
6950.0 0.0070065
6970.0 0.0076259
6990.0 0.0080432
7010.0 0.0081371
7030.0 0.0076902
7050.0 0.0066761
7070.0 0.0054124
7090.0 0.0045984
7110.0 0.0044356
7130.0 0.0046787
7150.0 0.0047366
7170.0 0.0043568
7190.0 0.0042715
7210.0 0.004706
7230.0 0.0054043
7250.0 0.0061769
7270.0 0.0065046
7290.0 0.0061245
7310.0 0.0054342
7330.0 0.0049733
7350.0 0.004868
7370.0 0.0049954
7390.0 0.0052205
7410.0 0.0055937
7430.0 0.0063582
7450.0 0.0073914
7470.0 0.008439
7490.0 0.0089271
7510.0 0.0086507
7530.0 0.0074853
7550.0 0.0060967
7570.0 0.0050691
7590.0 0.0044668
7610.0 0.0045944
7630.0 0.0053068
7650.0 0.0061004
7670.0 0.0069002
7690.0 0.0075788
7710.0 0.0080703
7730.0 0.0084825
7750.0 0.0088688
7770.0 0.0092101
7790.0 0.0092418
7810.0 0.009337
7830.0 0.0096276
7850.0 0.0096409
7870.0 0.0093811
7890.0 0.0087098
7910.0 0.0081792
7930.0 0.0077941
7950.0 0.0077849
7970.0 0.0077315
7990.0 0.0078048
8010.0 0.0077747
8030.0 0.0078036
8050.0 0.0080097
8070.0 0.0078919
8090.0 0.0078915
8110.0 0.0075857
8130.0 0.0075394
8150.0 0.0073318
8170.0 0.0071263
8190.0 0.0070285
8210.0 0.0070797
8230.0 0.0066453
8250.0 0.0062307
8270.0 0.005444
8290.0 0.0043916
8310.0 0.0034073
8330.0 0.0026181
8350.0 0.0023114
8370.0 0.0026029
8390.0 0.0030094
8410.0 0.0033254
8430.0 0.0036935
8450.0 0.0038944
8470.0 0.00408
8490.0 0.0045383
8510.0 0.00506
8530.0 0.0058822
8550.0 0.0069012
8570.0 0.0078207
8590.0 0.0085595
8610.0 0.0091891
8630.0 0.0096405
8650.0 0.0097156
8670.0 0.0097417
8690.0 0.010068
8710.0 0.010261
8730.0 0.01047
8750.0 0.01026
8770.0 0.010296
8790.0 0.010155
8810.0 0.0094589
8830.0 0.009207
8850.0 0.0086871
8870.0 0.0082995
8890.0 0.007929
8910.0 0.0081318
8930.0 0.0076528
8950.0 0.0073709
8970.0 0.0072648
8990.0 0.0070975
9010.0 0.006971
9030.0 0.0067872
9050.0 0.0067461
9070.0 0.0067275
9090.0 0.0067093
9110.0 0.0066921
9130.0 0.006673
9150.0 0.0066532
9170.0 0.0066248
9190.0 0.0065864
9210.0 0.0066192
9230.0 0.006585
9250.0 0.0065576
9270.0 0.0065318
9290.0 0.0065071
9310.0 0.006483
9330.0 0.0064591
9350.0 0.0064355
9370.0 0.0064117
9390.0 0.0063875
9410.0 0.0063632
9430.0 0.0063384
9450.0 0.0063109
9470.0 0.006284
9490.0 0.0062613
9510.0 0.006237
9530.0 0.0062122
9550.0 0.0061869
9570.0 0.0061613
9590.0 0.0061355
9610.0 0.0061095
9630.0 0.0060834
9650.0 0.0060572
9670.0 0.0060308
9690.0 0.0060044
9710.0 0.005978
9730.0 0.0059515
9750.0 0.005925
9770.0 0.0058984
9790.0 0.0058719
9810.0 0.0058453
9830.0 0.0058187
9850.0 0.0057922
9870.0 0.0057656
9890.0 0.005739
9910.0 0.0057124
9930.0 0.0056854
9950.0 0.0056231
9970.0 0.0056072
9990.0 0.0055894
10010.0 0.0055705
10030.0 0.0055487
10050.0 0.0055242
10070.0 0.0054979
10090.0 0.0054742
10110.0 0.0054481
10130.0 0.0054233
10150.0 0.0053982
10170.0 0.005372
10190.0 0.0053445
10210.0 0.0053188
10230.0 0.0052938
10250.0 0.0052673
10270.0 0.0052412
10290.0 0.0052165
10310.0 0.0051905
10330.0 0.0051635
10350.0 0.0051382
10370.0 0.0051131
10390.0 0.0050866
10410.0 0.0050604
10430.0 0.005036
10450.0 0.0050102
10470.0 0.0049837
10490.0 0.0049584
10510.0 0.0049334
10530.0 0.0049061
10550.0 0.0048799
10570.0 0.0048551
10590.0 0.004829
10610.0 0.0048022
10630.0 0.004777
10650.0 0.0047515
10670.0 0.0047243
10690.0 0.0046979
10710.0 0.0046724
10730.0 0.0046456
10750.0 0.0046176
10770.0 0.004592
10790.0 0.0045658
10810.0 0.0045381
10830.0 0.0045111
10850.0 0.0044852
10870.0 0.0044563
10890.0 0.0044268
10910.0 0.0043977
10930.0 0.004366
10950.0 0.0043297
10970.0 0.0042903
10990.0 0.0042482
11010.0 0.003834
11030.0 0.0037832
11050.0 0.003734
11070.0 0.0036837
11090.0 0.0036295
11110.0 0.0035794
11130.0 0.0035307
11150.0 0.0034803
11170.0 0.0034302
11190.0 0.0033836
11210.0 0.0033356
11230.0 0.0032861
11250.0 0.003239
11270.0 0.0031933
11290.0 0.0031458
11310.0 0.0030991
11330.0 0.0030572
11350.0 0.0030151
11370.0 0.0029733
11390.0 0.002935
11410.0 0.0028988
11430.0 0.002861
11450.0 0.0028252
11470.0 0.0027915
11490.0 0.0027567
11510.0 0.00272
11530.0 0.0026846
11550.0 0.0026484
11570.0 0.0026084
11590.0 0.002567
11610.0 0.0025254
11630.0 0.0024796
11650.0 0.0024301
11670.0 0.0023816
11690.0 0.0023317
11710.0 0.0022786
11730.0 0.0022256
11750.0 0.0021753
11770.0 0.002123
11790.0 0.002071
11810.0 0.0020227
11830.0 0.0019763
11850.0 0.0019292
11870.0 0.0018864
11890.0 0.0018478
11910.0 0.0018101
11930.0 0.0017745
11950.0 0.0017429
11970.0 0.001713
11990.0 0.0016836
12010.0 0.0016571
12030.0 0.0016329
12050.0 0.0016094
12070.0 0.0015867
12090.0 0.0015672
12110.0 0.0015488
12130.0 0.0015311
12150.0 0.0015156
12170.0 0.0015025
12190.0 0.0014902
12210.0 0.0014804
12230.0 0.0014738
12250.0 0.0014697
12270.0 0.0014686
12290.0 0.0014713
12310.0 0.0014777
12330.0 0.0014879
12350.0 0.0015023
12370.0 0.0015203
12390.0 0.0015423
12410.0 0.001569
12430.0 0.0015979
12450.0 0.0016291
12470.0 0.0016633
12490.0 0.0016989
12510.0 0.001734
12530.0 0.00177
12550.0 0.001806
12570.0 0.0018397
12590.0 0.0018713
12610.0 0.0019014
12630.0 0.0019285
12650.0 0.0019515
12670.0 0.0019716
12690.0 0.0019884
12710.0 0.0020012
12730.0 0.0020106
12750.0 0.0020166
12770.0 0.002019
12790.0 0.0020184
12810.0 0.0020147
12830.0 0.0020079
12850.0 0.0019991
12870.0 0.0019884
12890.0 0.001975
12910.0 0.0019603
12930.0 0.0019447
12950.0 0.0019272
12970.0 0.0019079
12990.0 0.0018889
13010.0 0.001869
13030.0 0.0018473
13050.0 0.0018253
13070.0 0.0018035
13090.0 0.0017801
13110.0 0.0017558
13130.0 0.0017321
13150.0 0.0017084
13170.0 0.0016835
13190.0 0.0016603
13210.0 0.0016391
13230.0 0.0016188
13250.0 0.0016005
13270.0 0.0015858
13290.0 0.0015737
13310.0 0.0015647
13330.0 0.0015597
13350.0 0.0015582
13370.0 0.0015599
13390.0 0.0015646
13410.0 0.0015713
13430.0 0.0015794
13450.0 0.0015882
13470.0 0.0015963
13490.0 0.0016028
13510.0 0.0016073
13530.0 0.0016084
13550.0 0.0016059
13570.0 0.0015996
13590.0 0.0015889
13610.0 0.0015746
13630.0 0.0015575
13650.0 0.0015366
13670.0 0.0015135
13690.0 0.0014896
13710.0 0.0014644
13730.0 0.0014378
13750.0 0.001413
13770.0 0.0013893
13790.0 0.001366
13810.0 0.0013444
13830.0 0.0013252
13850.0 0.0013071
13870.0 0.0012904
13890.0 0.0012758
13910.0 0.0012629
13930.0 0.0012508
13950.0 0.0012401
13970.0 0.0012309
13990.0 0.0012224
14010.0 0.0012147
14030.0 0.001208
14050.0 0.0012019
14070.0 0.0011961
14090.0 0.0011909
14110.0 0.0011861
14130.0 0.0011816
14150.0 0.0011772
14170.0 0.001173
14190.0 0.0011689
14210.0 0.0011649
14230.0 0.0011609
14250.0 0.0011572
14270.0 0.0011536
14290.0 0.0011502
14310.0 0.0011472
14330.0 0.0011446
14350.0 0.0011423
14370.0 0.0011406
14390.0 0.0011391
14410.0 0.001138
14430.0 0.0011372
14450.0 0.0011364
14470.0 0.0011356
14490.0 0.0011348
14510.0 0.0011337
14530.0 0.0011323
14550.0 0.0011308
14570.0 0.001129
14590.0 0.0011272
14610.0 0.0011254
14630.0 0.0011239
14650.0 0.0011229
14670.0 0.0011224
14690.0 0.001123
14710.0 0.0011249
14730.0 0.0011278
14750.0 0.0011322
14770.0 0.0011386
14790.0 0.0011466
14810.0 0.0011561
14830.0 0.0011684
14850.0 0.0011826
14870.0 0.0011979
14890.0 0.001215
14910.0 0.0012337
14930.0 0.0012518
14950.0 0.0012688
14970.0 0.0012849
14990.0 0.0012981
15010.0 0.0013075
15030.0 0.0013136
15050.0 0.0013166
15070.0 0.0013163
15090.0 0.001314
15110.0 0.0013103
15130.0 0.0013056
15150.0 0.0013005
15170.0 0.0012951
15190.0 0.0012896
15210.0 0.001284
15230.0 0.0012784
15250.0 0.0012727
15270.0 0.0012671
15290.0 0.0012615
15310.0 0.0012558
15330.0 0.0012502
15350.0 0.0012445
15370.0 0.0012389
15390.0 0.0012332
15410.0 0.0012275
15430.0 0.0012219
15450.0 0.0012162
15470.0 0.0012106
15490.0 0.0012049
15510.0 0.0011993
15530.0 0.0011937
15550.0 0.001188
15570.0 0.0011825
15590.0 0.0011768
15610.0 0.0011712
15630.0 0.0011656
15650.0 0.00116
15670.0 0.0011545
15690.0 0.0011489
15710.0 0.0011434
15730.0 0.0011378
15750.0 0.0011323
15770.0 0.0011268
15790.0 0.0011213
15810.0 0.0011158
15830.0 0.0011104
15850.0 0.001105
15870.0 0.0010995
15890.0 0.0010941
15910.0 0.0010888
15930.0 0.0010834
15950.0 0.001078
15970.0 0.0010727
15990.0 0.0010674
16010.0 0.0010621
16030.0 0.0010568
16050.0 0.0010516
16070.0 0.0010464
16090.0 0.0010412
16110.0 0.001036
16130.0 0.0010309
16150.0 0.0010258
16170.0 0.0010206
16190.0 0.0010156
16210.0 0.0010105
16230.0 0.0010055
16250.0 0.0010005
16270.0 0.00099555
16290.0 0.00099059
16310.0 0.00098566
16330.0 0.00098078
16350.0 0.00097591
16370.0 0.00097103
16390.0 0.00096623
16410.0 0.00096146
16430.0 0.00095668
16450.0 0.00095194
16470.0 0.00094727
16490.0 0.00094258
16510.0 0.00093791
16530.0 0.0009333
16550.0 0.00092872
16570.0 0.00092413
16590.0 0.00091958
16610.0 0.0009151
16630.0 0.00091062
16650.0 0.00090615
16670.0 0.00090175
16690.0 0.00089737
16710.0 0.00089298
16730.0 0.00088864
16750.0 0.00088435
16770.0 0.00088007
16790.0 0.0008758
16810.0 0.0008716
16830.0 0.00086742
16850.0 0.00086324
16870.0 0.00085911
16890.0 0.00085503
16910.0 0.00085094
16930.0 0.00084687
16950.0 0.00084288
16970.0 0.0008389
16990.0 0.00083492
17010.0 0.000831
17030.0 0.00082712
17050.0 0.00082324
17070.0 0.00081938
17090.0 0.00081558
17110.0 0.0008118
17130.0 0.00080802
17150.0 0.00080429
17170.0 0.00080061
17190.0 0.00079693
17210.0 0.00079328
17230.0 0.00078969
17250.0 0.0007861
17270.0 0.00078251
17290.0 0.00077899
17310.0 0.0007755
17330.0 0.00077201
17350.0 0.00076854
17370.0 0.00076514
17390.0 0.00076175
17410.0 0.00075837
17430.0 0.00075503
17450.0 0.00075174
17470.0 0.00074843
17490.0 0.00074516
17510.0 0.00074194
17530.0 0.00073873
17550.0 0.00073553
17570.0 0.00073239
17590.0 0.00072927
17610.0 0.00072615
17630.0 0.00072307
17650.0 0.00072003
17670.0 0.000717
17690.0 0.00071397
17710.0 0.000711
17730.0 0.00070806
17750.0 0.00070512
17770.0 0.00070221
17790.0 0.00069936
17810.0 0.00069649
17830.0 0.00069365
17850.0 0.00069085
17870.0 0.00068807
17890.0 0.00068529
17910.0 0.00068255
17930.0 0.00067986
17950.0 0.00067716
17970.0 0.00067448
17990.0 0.00067185
18010.0 0.00066924
18030.0 0.00066661
18050.0 0.00066404
18070.0 0.0006615
18090.0 0.00065896
18110.0 0.00065643
18130.0 0.00065395
18150.0 0.00065149
18170.0 0.00064903
18190.0 0.00064661
18210.0 0.00064422
18230.0 0.00064182
18250.0 0.00063944
18270.0 0.00063711
18290.0 0.00063479
18310.0 0.00063247
18330.0 0.00063019
18350.0 0.00062795
18370.0 0.00062569
18390.0 0.00062346
18410.0 0.00062126
18430.0 0.00061908
18450.0 0.00061689
18470.0 0.00061475
18490.0 0.00061263
18510.0 0.00061051
18530.0 0.00060841
18550.0 0.00060636
18570.0 0.0006043
18590.0 0.00060224
18610.0 0.00060023
18630.0 0.00059823
18650.0 0.00059623
18670.0 0.00059425
18690.0 0.00059232
18710.0 0.00059039
18730.0 0.00058846
18750.0 0.00058656
18770.0 0.0005847
18790.0 0.0005828
18810.0 0.00058094
18830.0 0.00057912
18850.0 0.0005773
18870.0 0.00057548
18890.0 0.0005737
18910.0 0.00057194
18930.0 0.00057017
18950.0 0.00056842
18970.0 0.00056671
18990.0 0.00056499
19010.0 0.00056326
19030.0 0.00056159
19050.0 0.00055993
19070.0 0.00055827
19090.0 0.00055662
19110.0 0.00055502
19130.0 0.00055339
19150.0 0.00055178
19170.0 0.0005502
19190.0 0.00054864
19210.0 0.00054706
19230.0 0.00054551
19250.0 0.000544
19270.0 0.00054247
19290.0 0.00054095
19310.0 0.00053947
19330.0 0.000538
19350.0 0.0005365
19370.0 0.00053505
19390.0 0.00053361
19410.0 0.00053217
19430.0 0.00053074
19450.0 0.00052935
19470.0 0.00052795
19490.0 0.00052655
19510.0 0.00052518
19530.0 0.00052383
19550.0 0.00052247
19570.0 0.00052111
19590.0 0.00051979
19610.0 0.00051848
19630.0 0.00051716
19650.0 0.00051586
19670.0 0.00051459
19690.0 0.0005133
19710.0 0.00051203
19730.0 0.00051078
19750.0 0.00050954
19770.0 0.00050828
19790.0 0.00050706
19810.0 0.00050585
19830.0 0.00050462
19850.0 0.00050338
19870.0 0.00050214
19890.0 0.00050079
19910.0 0.00049925
19930.0 0.00049748
19950.0 0.0004953
19970.0 0.00049247
19990.0 0.00048887
20010.0 0.00048461
20030.0 0.00047935
20050.0 0.00047313
20070.0 0.00046637
20090.0 0.00045912
20110.0 0.00045101
20130.0 0.00044288
20150.0 0.00043491
20170.0 0.00042674
20190.0 0.00041853
20210.0 0.00041081
20230.0 0.0004033
20250.0 0.00039576
20270.0 0.00038871
20290.0 0.00038219
20310.0 0.00037588
20330.0 0.00036984
20350.0 0.00036464
20370.0 0.00035983
20390.0 0.0003554
20410.0 0.00035155
20430.0 0.00034831
20450.0 0.00034541
20470.0 0.00034304
20490.0 0.00034123
20510.0 0.00033986
20530.0 0.00033892
20550.0 0.00033841
20570.0 0.00033828
20590.0 0.00033848
20610.0 0.00033899
20630.0 0.00033972
20650.0 0.00034067
20670.0 0.00034184
20690.0 0.00034307
20710.0 0.00034433
20730.0 0.00034566
20750.0 0.00034696
20770.0 0.00034813
20790.0 0.00034923
20810.0 0.00035022
20830.0 0.000351
20850.0 0.00035158
20870.0 0.00035196
20890.0 0.0003521
20910.0 0.00035198
20930.0 0.00035161
20950.0 0.00035097
20970.0 0.0003501
20990.0 0.00034901
21010.0 0.00034763
21030.0 0.00034605
21050.0 0.00034432
21070.0 0.00034239
21090.0 0.00034025
21110.0 0.00033808
21130.0 0.00033585
21150.0 0.00033349
21170.0 0.00033113
21190.0 0.00032886
21210.0 0.00032654
21230.0 0.00032424
21250.0 0.00032214
21270.0 0.00032015
21290.0 0.00031825
21310.0 0.00031654
21330.0 0.00031507
21350.0 0.00031375
21370.0 0.00031262
21390.0 0.00031173
21410.0 0.00031106
21430.0 0.00031059
21450.0 0.00031036
21470.0 0.00031034
21490.0 0.00031054
21510.0 0.00031095
21530.0 0.00031153
21550.0 0.00031229
21570.0 0.00031327
21590.0 0.00031441
21610.0 0.00031566
21630.0 0.00031711
21650.0 0.00031875
21670.0 0.00032039
21690.0 0.00032218
21710.0 0.00032412
21730.0 0.0003261
21750.0 0.00032809
21770.0 0.00033026
21790.0 0.00033246
21810.0 0.0003346
21830.0 0.00033678
21850.0 0.00033902
21870.0 0.00034118
21890.0 0.00034323
21910.0 0.0003453
21930.0 0.0003473
21950.0 0.00034914
21970.0 0.00035089
21990.0 0.0003526
22010.0 0.00035408
22030.0 0.00035538
22050.0 0.00035655
22070.0 0.00035752
22090.0 0.00035824
22110.0 0.00035877
22130.0 0.00035907
22150.0 0.00035911
22170.0 0.00035891
22190.0 0.00035842
22210.0 0.00035766
22230.0 0.00035666
22250.0 0.00035537
22270.0 0.00035378
22290.0 0.00035198
22310.0 0.00034995
22330.0 0.00034755
22350.0 0.00034495
22370.0 0.00034221
22390.0 0.0003392
22410.0 0.00033588
22430.0 0.00033255
22450.0 0.00032908
22470.0 0.00032535
22490.0 0.00032155
22510.0 0.00031779
22530.0 0.00031381
22550.0 0.00030971
22570.0 0.00030576
22590.0 0.00030183
22610.0 0.00029778
22630.0 0.00029384
22650.0 0.00029014
22670.0 0.00028639
22690.0 0.00028272
22710.0 0.00027929
22730.0 0.000276
22750.0 0.00027268
22770.0 0.00026964
22790.0 0.00026684
22810.0 0.00026411
22830.0 0.00026151
22850.0 0.00025917
22870.0 0.00025694
22890.0 0.00025478
22910.0 0.0002528
22930.0 0.00025099
22950.0 0.00024924
22970.0 0.00024756
22990.0 0.00024609
23010.0 0.00024468
23030.0 0.00024331
23050.0 0.00024205
23070.0 0.0002409
23090.0 0.00023973
23110.0 0.00023863
23130.0 0.00023761
23150.0 0.00023662
23170.0 0.00023563
23190.0 0.0002347
23210.0 0.00023382
23230.0 0.00023293
23250.0 0.00023207
23270.0 0.00023129
23290.0 0.00023053
23310.0 0.00022981
23330.0 0.00022918
23350.0 0.00022864
