#lamb flux
1010.0 9.7794e-06
1030.0 1.0422e-05
1050.0 1.1717e-05
1070.0 1.3168e-05
1090.0 1.4686e-05
1110.0 1.6246e-05
1130.0 1.7815e-05
1150.0 1.9456e-05
1170.0 2.1133e-05
1190.0 2.2685e-05
1210.0 2.4214e-05
1230.0 2.5741e-05
1250.0 2.719e-05
1270.0 2.8509e-05
1290.0 2.9831e-05
1310.0 3.106e-05
1330.0 3.214e-05
1350.0 3.3168e-05
1370.0 3.4196e-05
1390.0 3.5155e-05
1410.0 3.6072e-05
1430.0 3.7083e-05
1450.0 3.8153e-05
1470.0 3.9263e-05
1490.0 4.0507e-05
1510.0 4.1974e-05
1530.0 4.3533e-05
1550.0 4.5264e-05
1570.0 4.7252e-05
1590.0 4.9467e-05
1610.0 5.1865e-05
1630.0 5.46e-05
1650.0 5.7632e-05
1670.0 6.087e-05
1690.0 6.4336e-05
1710.0 6.8104e-05
1730.0 7.2103e-05
1750.0 7.6184e-05
1770.0 8.0471e-05
1790.0 8.491e-05
1810.0 8.9349e-05
1830.0 9.3757e-05
1850.0 9.823e-05
1870.0 0.00010253
1890.0 0.00010656
1910.0 0.00011037
1930.0 0.00011391
1950.0 0.00011696
1970.0 0.00011955
1990.0 0.00012175
2010.0 0.00012339
2030.0 0.00012444
2050.0 0.00012502
2070.0 0.00012514
2090.0 0.00012464
2110.0 0.00012369
2130.0 0.00012238
2150.0 0.00012068
2170.0 0.00011861
2190.0 0.00011638
2210.0 0.00011399
2230.0 0.00011143
2250.0 0.00010883
2270.0 0.00010632
2290.0 0.00010382
2310.0 0.00010139
2330.0 9.9161e-05
2350.0 9.7141e-05
2370.0 9.5299e-05
2390.0 9.3739e-05
2410.0 9.2547e-05
2430.0 9.1665e-05
2450.0 9.1144e-05
2470.0 9.1111e-05
2490.0 9.1618e-05
2510.0 9.259e-05
2530.0 9.4318e-05
2550.0 9.7195e-05
2570.0 0.00010153
2590.0 0.00010782
2610.0 0.00011755
2630.0 0.00013109
2650.0 0.00014797
2670.0 0.00016865
2690.0 0.00019276
2710.0 0.00021753
2730.0 0.00024156
2750.0 0.00026522
2770.0 0.00028667
2790.0 0.00030557
2810.0 0.00032329
2830.0 0.00034101
2850.0 0.00035831
2870.0 0.00037644
2890.0 0.00039631
2910.0 0.00041772
2930.0 0.00044017
2950.0 0.00046472
2970.0 0.00049127
2990.0 0.00051898
3010.0 0.00062115
3030.0 0.00065669
3050.0 0.00069379
3070.0 0.00073074
3090.0 0.00076812
3110.0 0.00080387
3130.0 0.00083514
3150.0 0.00086071
3170.0 0.00087696
3190.0 0.00090479
3210.0 0.00099794
3230.0 0.001142
3250.0 0.0012019
3270.0 0.0011388
3290.0 0.0010387
3310.0 0.0009865
3330.0 0.00096515
3350.0 0.00096354
3370.0 0.00096863
3390.0 0.0009805
3410.0 0.00098671
3430.0 0.00095588
3450.0 0.00094488
3470.0 0.00094184
3490.0 0.0010545
3510.0 0.0013885
3530.0 0.0017226
3550.0 0.0019629
3570.0 0.0021909
3590.0 0.0023226
3610.0 0.0023075
3630.0 0.002266
3650.0 0.0023821
3670.0 0.0027187
3690.0 0.0031292
3710.0 0.0034914
3730.0 0.0037931
3750.0 0.0040617
3770.0 0.004013
3790.0 0.0037347
3810.0 0.003456
3830.0 0.0031858
3850.0 0.0030762
3870.0 0.0032229
3890.0 0.0035395
3910.0 0.0038637
3930.0 0.0042151
3950.0 0.0047275
3970.0 0.0050978
3990.0 0.0049407
4010.0 0.0044841
4030.0 0.0039401
4050.0 0.0036085
4070.0 0.0034661
4090.0 0.0033967
4110.0 0.0034434
4130.0 0.0034472
4150.0 0.0034626
4170.0 0.0036068
4190.0 0.0038495
4210.0 0.0038456
4230.0 0.0037896
4250.0 0.0037996
4270.0 0.0039096
4290.0 0.0041138
4310.0 0.0043075
4330.0 0.0041937
4350.0 0.0038247
4370.0 0.0034622
4390.0 0.003102
4410.0 0.0027426
4430.0 0.0026004
4450.0 0.002653
4470.0 0.0027652
4490.0 0.0029568
4510.0 0.0033739
4530.0 0.004239
4550.0 0.0055236
4570.0 0.0064556
4590.0 0.0071239
4610.0 0.0081007
4630.0 0.0088495
4650.0 0.008567
4670.0 0.0074886
4690.0 0.006356
4710.0 0.0055743
4730.0 0.0050658
4750.0 0.0045686
4770.0 0.0041973
4790.0 0.004322
4810.0 0.0046636
4830.0 0.0047997
4850.0 0.0046944
4870.0 0.0048096
4890.0 0.0051412
4910.0 0.0054435
4930.0 0.0056389
4950.0 0.0056725
4970.0 0.0054445
4990.0 0.0049696
5010.0 0.0044484
5030.0 0.0040126
5050.0 0.0037236
5070.0 0.0035276
5090.0 0.0033758
5110.0 0.0033297
5130.0 0.0033283
5150.0 0.0033836
5170.0 0.003633
5190.0 0.004036
5210.0 0.0045511
5230.0 0.0049952
5250.0 0.0053662
5270.0 0.0057824
5290.0 0.0062149
5310.0 0.0064695
5330.0 0.0064633
5350.0 0.0062889
5370.0 0.0062344
5390.0 0.0064522
5410.0 0.0068826
5430.0 0.0073305
5450.0 0.0077026
5470.0 0.0079288
5490.0 0.0079322
5510.0 0.0078282
5530.0 0.007719
5550.0 0.0076113
5570.0 0.0074499
5590.0 0.0072592
5610.0 0.0070274
5630.0 0.0066775
5650.0 0.0061965
5670.0 0.0057574
5690.0 0.0054962
5710.0 0.0053479
5730.0 0.0051736
5750.0 0.0050534
5770.0 0.0050309
5790.0 0.0050653
5810.0 0.0050507
5830.0 0.0050451
5850.0 0.00504
5870.0 0.0049233
5890.0 0.0047828
5910.0 0.0046102
5930.0 0.0042594
5950.0 0.0038487
5970.0 0.0035561
5990.0 0.0034135
6010.0 0.0033305
6030.0 0.0032191
6050.0 0.0031629
6070.0 0.0032896
6090.0 0.0034759
6110.0 0.0035667
6130.0 0.0035365
6150.0 0.0034679
6170.0 0.0034306
6190.0 0.0033898
6210.0 0.0032737
6230.0 0.0030531
6250.0 0.0028393
6270.0 0.0027119
6290.0 0.0026294
6310.0 0.0026882
6330.0 0.0029148
6350.0 0.0031996
6370.0 0.0034043
6390.0 0.0035698
6410.0 0.0037671
6430.0 0.0039184
6450.0 0.0040245
6470.0 0.0041278
6490.0 0.0042293
6510.0 0.0043009
6530.0 0.0043299
6550.0 0.0043545
6570.0 0.0042949
6590.0 0.0041375
6610.0 0.003985
6630.0 0.0038525
6650.0 0.0036806
6670.0 0.0034773
6690.0 0.0033189
6710.0 0.0032244
6730.0 0.0031298
6750.0 0.0030604
6770.0 0.003058
6790.0 0.0030602
6810.0 0.0030082
6830.0 0.0029479
6850.0 0.0029659
6870.0 0.0029818
6890.0 0.0029304
6910.0 0.0029032
6930.0 0.0028866
6950.0 0.0028343
6970.0 0.0027583
6990.0 0.0026804
7010.0 0.0026136
7030.0 0.0025305
7050.0 0.0023849
7070.0 0.0022285
7090.0 0.0021989
7110.0 0.0022794
7130.0 0.0023673
7150.0 0.0024307
7170.0 0.0025026
7190.0 0.002563
7210.0 0.0025534
7230.0 0.0025501
7250.0 0.0025965
7270.0 0.002574
7290.0 0.0025224
7310.0 0.0025239
7330.0 0.0025991
7350.0 0.0027115
7370.0 0.0027836
7390.0 0.0028334
7410.0 0.002884
7430.0 0.002885
7450.0 0.0028428
7470.0 0.0027901
7490.0 0.0026769
7510.0 0.0025638
7530.0 0.0025329
7550.0 0.0025036
7570.0 0.0024758
7590.0 0.0024839
7610.0 0.0024852
7630.0 0.0025003
7650.0 0.0025972
7670.0 0.0027317
7690.0 0.0028598
7710.0 0.0029541
7730.0 0.0030395
7750.0 0.0031256
7770.0 0.0032074
7790.0 0.0032806
7810.0 0.0033058
7830.0 0.0032331
7850.0 0.0031181
7870.0 0.0030001
7890.0 0.002895
7910.0 0.0028541
7930.0 0.0028094
7950.0 0.0027475
7970.0 0.0026765
7990.0 0.0026408
8010.0 0.0024817
8030.0 0.0024691
8050.0 0.0024518
8070.0 0.0024186
8090.0 0.0023886
8110.0 0.0023776
8130.0 0.0023826
8150.0 0.0023691
8170.0 0.0023427
8190.0 0.0022743
8210.0 0.0021541
8230.0 0.002042
8250.0 0.0019899
8270.0 0.0019097
8290.0 0.0017602
8310.0 0.0016134
8330.0 0.0015187
8350.0 0.0014715
8370.0 0.0015173
8390.0 0.0016349
8410.0 0.001745
8430.0 0.0018543
8450.0 0.0019953
8470.0 0.0021202
8490.0 0.0022573
8510.0 0.0023938
8530.0 0.0025276
8550.0 0.002635
8570.0 0.002714
8590.0 0.0027756
8610.0 0.0028367
8630.0 0.0028492
8650.0 0.0027975
8670.0 0.0028024
8690.0 0.0029008
8710.0 0.0030284
8730.0 0.0030689
8750.0 0.003022
8770.0 0.0030226
8790.0 0.0030191
8810.0 0.0029346
8830.0 0.0027221
8850.0 0.0024605
8870.0 0.0022699
8890.0 0.002198
8910.0 0.0021172
8930.0 0.0019717
8950.0 0.0018451
8970.0 0.0018046
8990.0 0.0018237
9010.0 0.0018199
9030.0 0.0017996
9050.0 0.001785
9070.0 0.0017752
9090.0 0.0017661
9110.0 0.0017572
9130.0 0.0017484
9150.0 0.0017397
9170.0 0.0017309
9190.0 0.0017226
9210.0 0.001715
9230.0 0.0017061
9250.0 0.0016975
9270.0 0.0016891
9290.0 0.0016809
9310.0 0.0016728
9330.0 0.0016647
9350.0 0.0016568
9370.0 0.001649
9390.0 0.0016412
9410.0 0.0016335
9430.0 0.0016255
9450.0 0.0016162
9470.0 0.0016074
9490.0 0.0016016
9510.0 0.001595
9530.0 0.0015884
9550.0 0.0015814
9570.0 0.0015743
9590.0 0.0015674
9610.0 0.0015604
9630.0 0.0015534
9650.0 0.0015465
9670.0 0.0015397
9690.0 0.0015329
9710.0 0.001526
9730.0 0.0015194
9750.0 0.0015127
9770.0 0.0015059
9790.0 0.0014993
9810.0 0.0014928
9830.0 0.0014862
9850.0 0.0014794
9870.0 0.001473
9890.0 0.0014666
9910.0 0.0014601
9930.0 0.0014536
9950.0 0.0014458
9970.0 0.0014397
9990.0 0.0014334
10010.0 0.001427
10030.0 0.0014206
10050.0 0.0014143
10070.0 0.001408
10090.0 0.0014018
10110.0 0.0013947
10130.0 0.0013852
10150.0 0.0013792
10170.0 0.0013737
10190.0 0.0013674
10210.0 0.0013613
10230.0 0.0013551
10250.0 0.0013483
10270.0 0.0013414
10290.0 0.0013348
10310.0 0.0013278
10330.0 0.0013204
10350.0 0.0013134
10370.0 0.0013065
10390.0 0.001299
10410.0 0.0012915
10430.0 0.0012845
10450.0 0.001277
10470.0 0.0012692
10490.0 0.0012617
10510.0 0.0012542
10530.0 0.0012459
10550.0 0.0012378
10570.0 0.0012301
10590.0 0.0012219
10610.0 0.0012134
10630.0 0.0012053
10650.0 0.001197
10670.0 0.0011881
10690.0 0.0011794
10710.0 0.0011708
10730.0 0.0011618
10750.0 0.0011523
10770.0 0.0011434
10790.0 0.0011343
10810.0 0.0011247
10830.0 0.0011151
10850.0 0.0011059
10870.0 0.0010958
10890.0 0.0010856
10910.0 0.0010758
10930.0 0.0010658
10950.0 0.0010552
10970.0 0.0010449
10990.0 0.001035
11010.0 0.0010181
11030.0 0.001007
11050.0 0.00099664
11070.0 0.00098641
11090.0 0.00097587
11110.0 0.00096629
11130.0 0.00095721
11150.0 0.00094816
11170.0 0.0009395
11190.0 0.00093169
11210.0 0.00092407
11230.0 0.00091669
11250.0 0.00091004
11270.0 0.00090393
11290.0 0.00089798
11310.0 0.00089247
11330.0 0.00088764
11350.0 0.00088297
11370.0 0.00087842
11390.0 0.00087416
11410.0 0.00087002
11430.0 0.00086556
11450.0 0.00086103
11470.0 0.0008564
11490.0 0.00085134
11510.0 0.00084568
11530.0 0.00083981
11550.0 0.0008335
11570.0 0.00082641
11590.0 0.00081884
11610.0 0.000811
11630.0 0.00080235
11650.0 0.00079293
11670.0 0.0007834
11690.0 0.00077339
11710.0 0.00076253
11730.0 0.00075127
11750.0 0.00073996
11770.0 0.00072775
11790.0 0.00071489
11810.0 0.00070197
11830.0 0.00068867
11850.0 0.00067431
11870.0 0.00066003
11890.0 0.000646
11910.0 0.00063145
11930.0 0.00061673
11950.0 0.00060269
11970.0 0.00058875
11990.0 0.0005746
12010.0 0.00056125
12030.0 0.00054867
12050.0 0.00053631
12070.0 0.00052437
12090.0 0.00051376
12110.0 0.00050367
12130.0 0.00049406
12150.0 0.00048542
12170.0 0.00047774
12190.0 0.00047049
12210.0 0.00046418
12230.0 0.00045892
12250.0 0.00045447
12270.0 0.00045082
12290.0 0.00044812
12310.0 0.00044626
12330.0 0.00044513
12350.0 0.00044473
12370.0 0.00044492
12390.0 0.00044564
12410.0 0.00044693
12430.0 0.00044845
12450.0 0.00045017
12470.0 0.00045217
12490.0 0.00045426
12510.0 0.00045623
12530.0 0.00045827
12550.0 0.0004603
12570.0 0.00046207
12590.0 0.0004636
12610.0 0.00046497
12630.0 0.00046596
12650.0 0.00046642
12670.0 0.00046647
12690.0 0.00046598
12710.0 0.00046487
12730.0 0.00046316
12750.0 0.00046076
12770.0 0.0004577
12790.0 0.00045407
12810.0 0.00044982
12830.0 0.00044495
12850.0 0.00043981
12870.0 0.00043436
12890.0 0.00042852
12910.0 0.00042259
12930.0 0.00041676
12950.0 0.00041079
12970.0 0.00040482
12990.0 0.00039923
13010.0 0.00039382
13030.0 0.00038849
13050.0 0.00038346
13070.0 0.00037879
13090.0 0.00037419
13110.0 0.00036979
13130.0 0.0003657
13150.0 0.00036181
13170.0 0.00035796
13190.0 0.0003544
13210.0 0.00035108
13230.0 0.00034786
13250.0 0.00034478
13270.0 0.00034194
13290.0 0.0003392
13310.0 0.0003365
13330.0 0.00033395
13350.0 0.00033151
13370.0 0.00032906
13390.0 0.00032659
13410.0 0.00032421
13430.0 0.00032176
13450.0 0.00031921
13470.0 0.00031663
13490.0 0.00031402
13510.0 0.00031119
13530.0 0.00030827
13550.0 0.00030534
13570.0 0.00030228
13590.0 0.00029906
13610.0 0.00029585
13630.0 0.00029267
13650.0 0.00028932
13670.0 0.00028597
13690.0 0.00028271
13710.0 0.00027941
13730.0 0.000276
13750.0 0.00027278
13770.0 0.00026962
13790.0 0.00026641
13810.0 0.00026327
13830.0 0.0002603
13850.0 0.00025731
13870.0 0.00025435
13890.0 0.00025157
13910.0 0.00024891
13930.0 0.00024627
13950.0 0.00024377
13970.0 0.00024152
13990.0 0.00023935
14010.0 0.00023728
14030.0 0.00023541
14050.0 0.00023368
14070.0 0.00023198
14090.0 0.00023044
14110.0 0.00022903
14130.0 0.00022768
14150.0 0.00022637
14170.0 0.00022518
14190.0 0.00022404
14210.0 0.0002229
14230.0 0.00022183
14250.0 0.00022081
14270.0 0.00021979
14290.0 0.00021878
14310.0 0.00021784
14330.0 0.00021691
14350.0 0.00021597
14370.0 0.00021506
14390.0 0.0002142
14410.0 0.00021331
14430.0 0.00021243
14450.0 0.0002116
14470.0 0.00021077
14490.0 0.00020992
14510.0 0.00020911
14530.0 0.00020833
14550.0 0.00020752
14570.0 0.0002067
14590.0 0.0002059
14610.0 0.00020507
14630.0 0.00020419
14650.0 0.00020334
14670.0 0.00020252
14690.0 0.00020171
14710.0 0.00020099
14730.0 0.00020047
14750.0 0.00020013
14770.0 0.00020007
14790.0 0.00020036
14810.0 0.00020105
14830.0 0.00020227
14850.0 0.00020404
14870.0 0.00020628
14890.0 0.00020907
14910.0 0.00021239
14930.0 0.00021592
14950.0 0.00021951
14970.0 0.00022316
14990.0 0.00022648
15010.0 0.00022929
15030.0 0.00023164
15050.0 0.00023352
15070.0 0.00023487
15090.0 0.00023588
15110.0 0.00023667
15130.0 0.0002373
15150.0 0.00023786
15170.0 0.00023839
15190.0 0.00023891
15210.0 0.00023943
15230.0 0.00023996
15250.0 0.0002405
15270.0 0.00024105
15290.0 0.00024161
15310.0 0.00024218
15330.0 0.00024277
15350.0 0.00024336
15370.0 0.00024397
15390.0 0.00024458
15410.0 0.00024521
15430.0 0.00024585
15450.0 0.0002465
15470.0 0.00024716
15490.0 0.00024782
15510.0 0.0002485
15530.0 0.00024919
15550.0 0.00024989
15570.0 0.0002506
15590.0 0.00025131
15610.0 0.00025204
15630.0 0.00025277
15650.0 0.00025352
15670.0 0.00025427
15690.0 0.00025503
15710.0 0.0002558
15730.0 0.00025657
15750.0 0.00025736
15770.0 0.00025815
15790.0 0.00025895
15810.0 0.00025975
15830.0 0.00026057
15850.0 0.00026139
15870.0 0.00026221
15890.0 0.00026305
15910.0 0.00026389
15930.0 0.00026473
15950.0 0.00026558
15970.0 0.00026644
15990.0 0.0002673
16010.0 0.00026816
16030.0 0.00026903
16050.0 0.00026991
16070.0 0.00027079
16090.0 0.00027167
16110.0 0.00027255
16130.0 0.00027344
16150.0 0.00027434
16170.0 0.00027523
16190.0 0.00027613
16210.0 0.00027703
16230.0 0.00027793
16250.0 0.00027883
16270.0 0.00027973
16290.0 0.00028064
16310.0 0.00028154
16330.0 0.00028245
16350.0 0.00028336
16370.0 0.00028426
16390.0 0.00028516
16410.0 0.00028607
16430.0 0.00028697
16450.0 0.00028787
16470.0 0.00028877
16490.0 0.00028966
16510.0 0.00029056
16530.0 0.00029145
16550.0 0.00029233
16570.0 0.00029322
16590.0 0.0002941
16610.0 0.00029497
16630.0 0.00029584
16650.0 0.00029671
16670.0 0.00029757
16690.0 0.00029842
16710.0 0.00029927
16730.0 0.00030011
16750.0 0.00030095
16770.0 0.00030177
16790.0 0.00030259
16810.0 0.00030341
16830.0 0.00030421
16850.0 0.00030501
16870.0 0.0003058
16890.0 0.00030657
16910.0 0.00030734
16930.0 0.0003081
16950.0 0.00030885
16970.0 0.00030959
16990.0 0.00031032
17010.0 0.00031103
17030.0 0.00031174
17050.0 0.00031243
17070.0 0.00031311
17090.0 0.00031378
17110.0 0.00031444
17130.0 0.00031508
17150.0 0.00031571
17170.0 0.00031633
17190.0 0.00031693
17210.0 0.00031752
17230.0 0.0003181
17250.0 0.00031866
17270.0 0.0003192
17290.0 0.00031973
17310.0 0.00032025
17330.0 0.00032074
17350.0 0.00032122
17370.0 0.00032169
17390.0 0.00032214
17410.0 0.00032257
17430.0 0.00032299
17450.0 0.00032339
17470.0 0.00032377
17490.0 0.00032413
17510.0 0.00032448
17530.0 0.00032481
17550.0 0.00032512
17570.0 0.00032541
17590.0 0.00032568
17610.0 0.00032594
17630.0 0.00032617
17650.0 0.00032639
17670.0 0.00032659
17690.0 0.00032676
17710.0 0.00032692
17730.0 0.00032706
17750.0 0.00032718
17770.0 0.00032728
17790.0 0.00032736
17810.0 0.00032742
17830.0 0.00032746
17850.0 0.00032748
17870.0 0.00032747
17890.0 0.00032745
17910.0 0.00032741
17930.0 0.00032735
17950.0 0.00032727
17970.0 0.00032716
17990.0 0.00032704
18010.0 0.0003269
18030.0 0.00032673
18050.0 0.00032655
18070.0 0.00032634
18090.0 0.00032612
18110.0 0.00032587
18130.0 0.0003256
18150.0 0.00032531
18170.0 0.00032501
18190.0 0.00032468
18210.0 0.00032433
18230.0 0.00032396
18250.0 0.00032357
18270.0 0.00032316
18290.0 0.00032273
18310.0 0.00032229
18330.0 0.00032182
18350.0 0.00032133
18370.0 0.00032082
18390.0 0.00032029
18410.0 0.00031975
18430.0 0.00031918
18450.0 0.0003186
18470.0 0.00031799
18490.0 0.00031737
18510.0 0.00031673
18530.0 0.00031607
18550.0 0.00031539
18570.0 0.0003147
18590.0 0.00031398
18610.0 0.00031325
18630.0 0.0003125
18650.0 0.00031173
18670.0 0.00031095
18690.0 0.00031015
18710.0 0.00030933
18730.0 0.0003085
18750.0 0.00030764
18770.0 0.00030678
18790.0 0.00030589
18810.0 0.00030499
18830.0 0.00030408
18850.0 0.00030315
18870.0 0.00030221
18890.0 0.00030125
18910.0 0.00030027
18930.0 0.00029928
18950.0 0.00029828
18970.0 0.00029726
18990.0 0.00029623
19010.0 0.00029519
19030.0 0.00029413
19050.0 0.00029306
19070.0 0.00029198
19090.0 0.00029088
19110.0 0.00028978
19130.0 0.00028866
19150.0 0.00028753
19170.0 0.00028639
19190.0 0.00028523
19210.0 0.00028407
19230.0 0.00028289
19250.0 0.00028171
19270.0 0.00028052
19290.0 0.00027931
19310.0 0.0002781
19330.0 0.00027687
19350.0 0.00027564
19370.0 0.0002744
19390.0 0.00027315
19410.0 0.00027189
19430.0 0.00027063
19450.0 0.00026936
19470.0 0.00026808
19490.0 0.00026679
19510.0 0.00026549
19530.0 0.00026419
19550.0 0.00026289
19570.0 0.00026157
19590.0 0.00026025
19610.0 0.00025893
19630.0 0.0002576
19650.0 0.00025626
19670.0 0.00025492
19690.0 0.00025358
19710.0 0.00025223
19730.0 0.00025088
19750.0 0.00024952
19770.0 0.00024816
19790.0 0.00024679
19810.0 0.00024543
19830.0 0.00024405
19850.0 0.00024266
19870.0 0.00024125
19890.0 0.0002398
19910.0 0.00023826
19930.0 0.00023659
19950.0 0.00023475
19970.0 0.00023261
19990.0 0.00023014
20010.0 0.00022738
20030.0 0.00022421
20050.0 0.00022065
20070.0 0.00021689
20090.0 0.00021296
20110.0 0.00020873
20130.0 0.00020453
20150.0 0.00020043
20170.0 0.00019628
20190.0 0.00019216
20210.0 0.00018824
20230.0 0.00018441
20250.0 0.00018059
20270.0 0.00017695
20290.0 0.00017351
20310.0 0.00017014
20330.0 0.00016685
20350.0 0.00016386
20370.0 0.000161
20390.0 0.00015826
20410.0 0.00015571
20430.0 0.00015337
20450.0 0.00015113
20470.0 0.00014905
20490.0 0.00014717
20510.0 0.00014543
20530.0 0.00014381
20550.0 0.00014233
20570.0 0.00014099
20590.0 0.00013974
20610.0 0.00013859
20630.0 0.00013753
20650.0 0.00013653
20670.0 0.00013559
20690.0 0.0001347
20710.0 0.00013383
20730.0 0.00013298
20750.0 0.00013213
20770.0 0.00013127
20790.0 0.00013039
20810.0 0.00012949
20830.0 0.00012855
20850.0 0.00012757
20870.0 0.00012653
20890.0 0.00012545
20910.0 0.00012432
20930.0 0.00012313
20950.0 0.00012189
20970.0 0.0001206
20990.0 0.00011929
21010.0 0.0001179
21030.0 0.00011648
21050.0 0.00011505
21070.0 0.00011359
21090.0 0.00011208
21110.0 0.00011059
21130.0 0.0001091
21150.0 0.00010758
21170.0 0.00010607
21190.0 0.0001046
21210.0 0.0001031
21230.0 0.00010161
21250.0 0.00010017
21270.0 9.8747e-05
21290.0 9.7327e-05
21310.0 9.5941e-05
21330.0 9.4614e-05
21350.0 9.3297e-05
21370.0 9.2008e-05
21390.0 9.0776e-05
21410.0 8.9585e-05
21430.0 8.8407e-05
21450.0 8.7293e-05
21470.0 8.6236e-05
21490.0 8.5214e-05
21510.0 8.4233e-05
21530.0 8.3313e-05
21550.0 8.2434e-05
21570.0 8.1588e-05
21590.0 8.079e-05
21610.0 8.0033e-05
21630.0 7.9305e-05
21650.0 7.8606e-05
21670.0 7.7941e-05
21690.0 7.7296e-05
21710.0 7.6668e-05
21730.0 7.6056e-05
21750.0 7.5458e-05
21770.0 7.4867e-05
21790.0 7.4282e-05
21810.0 7.3703e-05
21830.0 7.3127e-05
21850.0 7.255e-05
21870.0 7.1976e-05
21890.0 7.1403e-05
21910.0 7.0827e-05
21930.0 7.0249e-05
21950.0 6.9672e-05
21970.0 6.9091e-05
21990.0 6.8502e-05
22010.0 6.7912e-05
22030.0 6.7319e-05
22050.0 6.6714e-05
22070.0 6.6101e-05
22090.0 6.5486e-05
22110.0 6.4857e-05
22130.0 6.4211e-05
22150.0 6.3559e-05
22170.0 6.2898e-05
22190.0 6.2212e-05
22210.0 6.1513e-05
22230.0 6.0813e-05
22250.0 6.0094e-05
22270.0 5.9356e-05
22290.0 5.8615e-05
22310.0 5.7868e-05
22330.0 5.7091e-05
22350.0 5.631e-05
22370.0 5.5532e-05
22390.0 5.4737e-05
22410.0 5.392e-05
22430.0 5.3119e-05
22450.0 5.2315e-05
22470.0 5.1491e-05
22490.0 5.0669e-05
22510.0 4.9864e-05
22530.0 4.904e-05
22550.0 4.8209e-05
22570.0 4.7406e-05
22590.0 4.661e-05
22610.0 4.5808e-05
22630.0 4.5026e-05
22650.0 4.428e-05
22670.0 4.3533e-05
22690.0 4.2802e-05
22710.0 4.2109e-05
22730.0 4.1441e-05
22750.0 4.0775e-05
22770.0 4.0153e-05
22790.0 3.9569e-05
22810.0 3.9002e-05
22830.0 3.846e-05
22850.0 3.7958e-05
22870.0 3.7479e-05
22890.0 3.7016e-05
22910.0 3.6584e-05
22930.0 3.6179e-05
22950.0 3.5787e-05
22970.0 3.541e-05
22990.0 3.5061e-05
23010.0 3.4723e-05
