#lamb flux
1010.0 6.0345e-07
1030.0 6.7978e-07
1050.0 7.6758e-07
1070.0 8.6641e-07
1090.0 9.7867e-07
1110.0 1.0938e-06
1130.0 1.2097e-06
1150.0 1.3311e-06
1170.0 1.4563e-06
1190.0 1.575e-06
1210.0 1.6954e-06
1230.0 1.8197e-06
1250.0 1.9416e-06
1270.0 2.0599e-06
1290.0 2.1849e-06
1310.0 2.3099e-06
1330.0 2.4297e-06
1350.0 2.5508e-06
1370.0 2.6759e-06
1390.0 2.7978e-06
1410.0 2.9161e-06
1430.0 3.0398e-06
1450.0 3.1634e-06
1470.0 3.2829e-06
1490.0 3.4037e-06
1510.0 3.5312e-06
1530.0 3.652e-06
1550.0 3.7711e-06
1570.0 3.8943e-06
1590.0 4.0176e-06
1610.0 4.1352e-06
1630.0 4.2565e-06
1650.0 4.3808e-06
1670.0 4.501e-06
1690.0 4.6194e-06
1710.0 4.7423e-06
1730.0 4.8657e-06
1750.0 4.9814e-06
1770.0 5.1003e-06
1790.0 5.2212e-06
1810.0 5.3379e-06
1830.0 5.452e-06
1850.0 5.5728e-06
1870.0 5.6898e-06
1890.0 5.802e-06
1910.0 5.9158e-06
1930.0 6.0316e-06
1950.0 6.1408e-06
1970.0 6.2475e-06
1990.0 6.3573e-06
2010.0 6.4637e-06
2030.0 6.5642e-06
2050.0 6.6665e-06
2070.0 6.7698e-06
2090.0 6.8641e-06
2110.0 6.9558e-06
2130.0 7.0484e-06
2150.0 7.1359e-06
2170.0 7.2156e-06
2190.0 7.2963e-06
2210.0 7.3742e-06
2230.0 7.4441e-06
2250.0 7.5096e-06
2270.0 7.576e-06
2290.0 7.6346e-06
2310.0 7.6843e-06
2330.0 7.733e-06
2350.0 7.7782e-06
2370.0 7.815e-06
2390.0 7.8498e-06
2410.0 7.8886e-06
2430.0 7.9253e-06
2450.0 7.9637e-06
2470.0 8.0144e-06
2490.0 8.0818e-06
2510.0 8.1599e-06
2530.0 8.275e-06
2550.0 8.4645e-06
2570.0 8.7624e-06
2590.0 9.2191e-06
2610.0 9.9781e-06
2630.0 1.108e-05
2650.0 1.2471e-05
2670.0 1.4174e-05
2690.0 1.6126e-05
2710.0 1.8032e-05
2730.0 1.9738e-05
2750.0 2.1257e-05
2770.0 2.2408e-05
2790.0 2.3166e-05
2810.0 2.3641e-05
2830.0 2.391e-05
2850.0 2.3971e-05
2870.0 2.3928e-05
2890.0 2.3837e-05
2910.0 2.3709e-05
2930.0 2.3552e-05
2950.0 2.3399e-05
2970.0 2.3251e-05
2990.0 2.3097e-05
3010.0 0.00053975
3030.0 0.00053615
3050.0 0.0005326
3070.0 0.00052866
3090.0 0.00052455
3110.0 0.00051973
3130.0 0.00051357
3150.0 0.00050574
3170.0 0.00049562
3190.0 0.00048343
3210.0 0.00047013
3230.0 0.00045661
3250.0 0.00044469
3270.0 0.00043647
3290.0 0.00043297
3310.0 0.00043498
3330.0 0.00044268
3350.0 0.00045496
3370.0 0.00047205
3390.0 0.00049338
3410.0 0.00051656
3430.0 0.00054267
3450.0 0.00057274
3470.0 0.00060548
3490.0 0.00064006
3510.0 0.00067889
3530.0 0.00072038
3550.0 0.00076263
3570.0 0.00080737
3590.0 0.00085744
3610.0 0.00091031
3630.0 0.00096553
3650.0 0.0010235
3670.0 0.0010778
3690.0 0.00112
3710.0 0.0011452
3730.0 0.0011461
3750.0 0.0011223
3770.0 0.001051
3790.0 0.00096005
3810.0 0.00086491
3830.0 0.00076619
3850.0 0.00064061
3870.0 0.00045813
3890.0 0.00066335
3910.0 0.0010526
3930.0 0.0012861
3950.0 0.0012747
3970.0 0.0013478
3990.0 0.0015066
4010.0 0.0020047
4030.0 0.0019842
4050.0 0.0017481
4070.0 0.0016185
4090.0 0.001539
4110.0 0.0018217
4130.0 0.0019586
4150.0 0.0020145
4170.0 0.0019589
4190.0 0.0019531
4210.0 0.0019603
4230.0 0.0022225
4250.0 0.0024526
4270.0 0.002518
4290.0 0.0025086
4310.0 0.0025182
4330.0 0.0027435
4350.0 0.003227
4370.0 0.0036986
4390.0 0.0034102
4410.0 0.0026654
4430.0 0.002204
4450.0 0.0019033
4470.0 0.0018042
4490.0 0.0020531
4510.0 0.0024712
4530.0 0.0027784
4550.0 0.0031379
4570.0 0.0035782
4590.0 0.0042715
4610.0 0.0057946
4630.0 0.0072179
4650.0 0.0073019
4670.0 0.0069109
4690.0 0.0073625
4710.0 0.0078209
4730.0 0.0065754
4750.0 0.0045879
4770.0 0.003675
4790.0 0.0036309
4810.0 0.0034175
4830.0 0.003237
4850.0 0.0036762
4870.0 0.0047884
4890.0 0.0055534
4910.0 0.004622
4930.0 0.0041062
4950.0 0.0046015
4970.0 0.0061949
4990.0 0.0081319
5010.0 0.0088002
5030.0 0.0072278
5050.0 0.004569
5070.0 0.0031434
5090.0 0.0027481
5110.0 0.0028414
5130.0 0.0030925
5150.0 0.0032121
5170.0 0.0031892
5190.0 0.0030932
5210.0 0.0030251
5230.0 0.0031792
5250.0 0.0034396
5270.0 0.0038303
5290.0 0.0043956
5310.0 0.0049823
5330.0 0.0051229
5350.0 0.0051243
5370.0 0.0055994
5390.0 0.0062141
5410.0 0.0059407
5430.0 0.005017
5450.0 0.0046418
5470.0 0.0052152
5490.0 0.0066916
5510.0 0.0085533
5530.0 0.0095972
5550.0 0.0091864
5570.0 0.0082794
5590.0 0.0072814
5610.0 0.0068086
5630.0 0.0066032
5650.0 0.0066667
5670.0 0.0064561
5690.0 0.0058619
5710.0 0.0056165
5730.0 0.0051759
5750.0 0.0035202
5770.0 0.0029962
5790.0 0.0034159
5810.0 0.0040985
5830.0 0.0048418
5850.0 0.00546
5870.0 0.0056565
5890.0 0.0054555
5910.0 0.0052254
5930.0 0.0052116
5950.0 0.005447
5970.0 0.0059695
5990.0 0.0055498
6010.0 0.0046049
6030.0 0.0038129
6050.0 0.0033078
6070.0 0.0033639
6090.0 0.0038099
6110.0 0.0041657
6130.0 0.0039861
6150.0 0.003581
6170.0 0.003766
6190.0 0.0045625
6210.0 0.0057406
6230.0 0.0068555
6250.0 0.0069384
6270.0 0.0060778
6290.0 0.0050496
6310.0 0.0039868
6330.0 0.0031274
6350.0 0.0028269
6370.0 0.0030341
6390.0 0.0036135
6410.0 0.0042396
6430.0 0.0049453
6450.0 0.0058031
6470.0 0.0069416
6490.0 0.008551
6510.0 0.009516
6530.0 0.0089232
6550.0 0.0081726
6570.0 0.0077475
6590.0 0.0074604
6610.0 0.0065637
6630.0 0.006009
6650.0 0.0055386
6670.0 0.0056425
6690.0 0.0054434
6710.0 0.00488
6730.0 0.0041971
6750.0 0.003855
6770.0 0.0039043
6790.0 0.0044508
6810.0 0.0043578
6830.0 0.0044794
6850.0 0.0043247
6870.0 0.0041321
6890.0 0.0039857
6910.0 0.0039247
6930.0 0.0036722
6950.0 0.0038173
6970.0 0.0038586
6990.0 0.0043123
7010.0 0.0045719
7030.0 0.004283
7050.0 0.0039865
7070.0 0.0038437
7090.0 0.0035977
7110.0 0.0034119
7130.0 0.0035334
7150.0 0.0037705
7170.0 0.0040388
7190.0 0.004095
7210.0 0.0039726
7230.0 0.0040973
7250.0 0.0046572
7270.0 0.0054166
7290.0 0.0059791
7310.0 0.0058986
7330.0 0.0052627
7350.0 0.0047033
7370.0 0.00436
7390.0 0.0044158
7410.0 0.0047252
7430.0 0.0051806
7450.0 0.0056035
7470.0 0.0060226
7490.0 0.0065397
7510.0 0.0069086
7530.0 0.0064462
7550.0 0.0054279
7570.0 0.0042672
7590.0 0.0031429
7610.0 0.0027911
7630.0 0.0030204
7650.0 0.0034984
7670.0 0.004059
7690.0 0.0046034
7710.0 0.0049165
7730.0 0.0050519
7750.0 0.0052794
7770.0 0.0052614
7790.0 0.0050653
7810.0 0.0050509
7830.0 0.0049555
7850.0 0.0045259
7870.0 0.0041133
7890.0 0.0036922
7910.0 0.0031509
7930.0 0.0027516
7950.0 0.0024943
7970.0 0.0024268
7990.0 0.0024915
8010.0 0.0026266
8030.0 0.0026321
8050.0 0.0026513
8070.0 0.0026082
8090.0 0.0026719
8110.0 0.0025204
8130.0 0.0022059
8150.0 0.0020726
8170.0 0.0019102
8190.0 0.0018907
8210.0 0.002027
8230.0 0.0021686
8250.0 0.0020098
8270.0 0.0017916
8290.0 0.001472
8310.0 0.0010146
8330.0 0.00065852
8350.0 0.00047968
8370.0 0.00050986
8390.0 0.00060384
8410.0 0.00076706
8430.0 0.00093735
8450.0 0.001035
8470.0 0.0011484
8490.0 0.0011289
8510.0 0.0011348
8530.0 0.0011852
8550.0 0.0014349
8570.0 0.0017676
8590.0 0.0020198
8610.0 0.0024415
8630.0 0.0028302
8650.0 0.002978
8670.0 0.0030276
8690.0 0.0030096
8710.0 0.0028143
8730.0 0.0027014
8750.0 0.0025
8770.0 0.0024007
8790.0 0.0023818
8810.0 0.0022707
8830.0 0.0019101
8850.0 0.0015741
8870.0 0.0013128
8890.0 0.0012832
8910.0 0.001386
8930.0 0.001471
8950.0 0.001651
8970.0 0.001677
8990.0 0.001651
9010.0 0.0015877
9030.0 0.001571
9050.0 0.0015864
9070.0 0.0015987
9090.0 0.0016079
9110.0 0.0016161
9130.0 0.0016234
9150.0 0.0016303
9170.0 0.0016376
9190.0 0.0016453
9210.0 0.0016537
9230.0 0.0016623
9250.0 0.0016714
9270.0 0.001681
9290.0 0.0016909
9310.0 0.0017013
9330.0 0.0017121
9350.0 0.0017233
9370.0 0.0017348
9390.0 0.0017469
9410.0 0.0017593
9430.0 0.0017719
9450.0 0.0017852
9470.0 0.0017987
9490.0 0.0018126
9510.0 0.0018268
9530.0 0.0018416
9550.0 0.0018565
9570.0 0.0018717
9590.0 0.0018874
9610.0 0.0019034
9630.0 0.0019197
9650.0 0.0019363
9670.0 0.0019533
9690.0 0.0019705
9710.0 0.001988
9730.0 0.0020058
9750.0 0.0020239
9770.0 0.0020421
9790.0 0.0020607
9810.0 0.0020795
9830.0 0.0020985
9850.0 0.0021176
9870.0 0.0021372
9890.0 0.0021568
9910.0 0.0021765
9930.0 0.0021964
9950.0 0.0022165
9970.0 0.0022367
9990.0 0.0022569
10010.0 0.0021734
10030.0 0.0021925
10050.0 0.0022116
10070.0 0.0022306
10090.0 0.00225
10110.0 0.0022692
10130.0 0.0022884
10150.0 0.0023078
10170.0 0.002327
10190.0 0.002346
10210.0 0.0023651
10230.0 0.0023842
10250.0 0.002403
10270.0 0.0024217
10290.0 0.0024404
10310.0 0.0024588
10330.0 0.0024769
10350.0 0.0024951
10370.0 0.002513
10390.0 0.0025306
10410.0 0.0025479
10430.0 0.0025652
10450.0 0.0025821
10470.0 0.0025986
10490.0 0.0026149
10510.0 0.0026309
10530.0 0.0026463
10550.0 0.0026615
10570.0 0.0026765
10590.0 0.002691
10610.0 0.0027049
10630.0 0.0027187
10650.0 0.002732
10670.0 0.0027447
10690.0 0.002757
10710.0 0.0027689
10730.0 0.0027803
10750.0 0.002791
10770.0 0.0028015
10790.0 0.0028114
10810.0 0.0028206
10830.0 0.0028293
10850.0 0.0028374
10870.0 0.0028441
10890.0 0.0028491
10910.0 0.0028519
10930.0 0.0028509
10950.0 0.0028437
10970.0 0.0028292
10990.0 0.0028069
11010.0 0.002726
11030.0 0.0026822
11050.0 0.0026302
11070.0 0.0025686
11090.0 0.0024945
11110.0 0.0024182
11130.0 0.0023385
11150.0 0.0022528
11170.0 0.0021649
11190.0 0.0020805
11210.0 0.0019944
11230.0 0.0019075
11250.0 0.0018261
11270.0 0.0017497
11290.0 0.0016749
11310.0 0.0016057
11330.0 0.0015462
11350.0 0.001491
11370.0 0.0014407
11390.0 0.0013976
11410.0 0.0013598
11430.0 0.0013241
11450.0 0.0012922
11470.0 0.0012633
11490.0 0.0012346
11510.0 0.0012051
11530.0 0.001176
11550.0 0.0011458
11570.0 0.0011125
11590.0 0.0010776
11610.0 0.0010421
11630.0 0.0010037
11650.0 0.00096325
11670.0 0.00092406
11690.0 0.00088506
11710.0 0.00084566
11730.0 0.00080822
11750.0 0.00077416
11770.0 0.00074131
11790.0 0.00071097
11810.0 0.00068451
11830.0 0.00066094
11850.0 0.00063923
11870.0 0.0006208
11890.0 0.00060504
11910.0 0.00059062
11930.0 0.00057744
11950.0 0.00056556
11970.0 0.00055404
11990.0 0.0005422
12010.0 0.00053042
12030.0 0.00051846
12050.0 0.00050572
12070.0 0.00049224
12090.0 0.00047913
12110.0 0.00046577
12130.0 0.00045228
12150.0 0.0004396
12170.0 0.00042811
12190.0 0.00041737
12210.0 0.00040848
12230.0 0.00040182
12250.0 0.00039732
12270.0 0.00039529
12290.0 0.00039588
12310.0 0.0003988
12330.0 0.00040443
12350.0 0.00041246
12370.0 0.00042216
12390.0 0.00043375
12410.0 0.00044762
12430.0 0.00046167
12450.0 0.00047609
12470.0 0.00049124
12490.0 0.00050612
12510.0 0.0005196
12530.0 0.00053258
12550.0 0.00054456
12570.0 0.00055445
12590.0 0.00056244
12610.0 0.00056886
12630.0 0.00057309
12650.0 0.00057488
12670.0 0.00057482
12690.0 0.00057277
12710.0 0.00056883
12730.0 0.00056329
12750.0 0.00055599
12770.0 0.00054737
12790.0 0.00053778
12810.0 0.00052706
12830.0 0.00051525
12850.0 0.00050318
12870.0 0.00049063
12890.0 0.00047724
12910.0 0.00046362
12930.0 0.00045007
12950.0 0.00043584
12970.0 0.00042114
12990.0 0.0004069
13010.0 0.00039256
13030.0 0.00037779
13050.0 0.00036328
13070.0 0.00034941
13090.0 0.0003353
13110.0 0.00032147
13130.0 0.00030857
13150.0 0.00029629
13170.0 0.0002843
13190.0 0.00027364
13210.0 0.00026432
13230.0 0.00025592
13250.0 0.00024883
13270.0 0.00024333
13290.0 0.00023919
13310.0 0.00023649
13330.0 0.00023537
13350.0 0.00023565
13370.0 0.00023737
13390.0 0.0002405
13410.0 0.00024448
13430.0 0.00024948
13450.0 0.00025544
13470.0 0.00026182
13490.0 0.00026833
13510.0 0.0002755
13530.0 0.00028252
13550.0 0.00028901
13570.0 0.00029523
13590.0 0.00030113
13610.0 0.00030616
13630.0 0.00031036
13650.0 0.00031403
13670.0 0.00031684
13690.0 0.00031875
13710.0 0.00031994
13730.0 0.00032042
13750.0 0.00032009
13770.0 0.00031912
13790.0 0.00031754
13810.0 0.00031539
13830.0 0.00031283
13850.0 0.00030977
13870.0 0.00030624
13890.0 0.00030244
13910.0 0.00029837
13930.0 0.00029387
13950.0 0.00028913
13970.0 0.00028443
13990.0 0.00027947
14010.0 0.00027434
14030.0 0.00026935
14050.0 0.00026443
14070.0 0.00025938
14090.0 0.00025464
14110.0 0.00025029
14130.0 0.00024618
14150.0 0.00024242
14170.0 0.00023929
14190.0 0.00023669
14210.0 0.00023459
14230.0 0.00023316
14250.0 0.00023238
14270.0 0.00023224
14290.0 0.00023278
14310.0 0.00023391
14330.0 0.00023561
14350.0 0.00023793
14370.0 0.00024069
14390.0 0.00024373
14410.0 0.00024726
14430.0 0.00025111
14450.0 0.00025504
14470.0 0.00025915
14490.0 0.00026362
14510.0 0.00026804
14530.0 0.00027243
14550.0 0.00027711
14570.0 0.00028199
14590.0 0.00028687
14610.0 0.0002921
14630.0 0.0002979
14650.0 0.00030392
14670.0 0.0003103
14690.0 0.00031745
14710.0 0.00032531
14730.0 0.00033328
14750.0 0.000342
14770.0 0.00035153
14790.0 0.00036131
14810.0 0.00037124
14830.0 0.00038212
14850.0 0.00039299
14870.0 0.00040345
14890.0 0.00041387
14910.0 0.0004241
14930.0 0.00043326
14950.0 0.0004413
14970.0 0.00044847
14990.0 0.00045415
15010.0 0.00045826
15030.0 0.00046113
15050.0 0.00046283
15070.0 0.00046351
15090.0 0.00046355
15110.0 0.00046314
15130.0 0.00046247
15150.0 0.00046171
15170.0 0.00046084
15190.0 0.00045992
15210.0 0.00045904
15230.0 0.00045816
15250.0 0.00045724
15270.0 0.00045634
15290.0 0.00045551
15310.0 0.00045464
15330.0 0.00045376
15350.0 0.00045292
15370.0 0.00045209
15390.0 0.0004512
15410.0 0.00045035
15430.0 0.00044954
15450.0 0.0004487
15470.0 0.00044783
15490.0 0.00044702
15510.0 0.00044621
15530.0 0.00044536
15550.0 0.00044453
15570.0 0.00044374
15590.0 0.00044289
15610.0 0.00044203
15630.0 0.00044123
15650.0 0.00044041
15670.0 0.00043956
15690.0 0.00043873
15710.0 0.00043794
15730.0 0.00043708
15750.0 0.00043623
15770.0 0.00043541
15790.0 0.00043458
15810.0 0.00043369
15830.0 0.00043284
15850.0 0.00043202
15870.0 0.00043115
15890.0 0.00043027
15910.0 0.00042944
15930.0 0.00042858
15950.0 0.00042766
15970.0 0.00042679
15990.0 0.00042592
16010.0 0.00042501
16030.0 0.00042407
16050.0 0.00042321
16070.0 0.0004223
16090.0 0.00042136
16110.0 0.00042044
16130.0 0.00041954
16150.0 0.00041856
16170.0 0.00041759
16190.0 0.00041666
16210.0 0.0004157
16230.0 0.00041469
16250.0 0.00041373
16270.0 0.00041277
16290.0 0.00041175
16310.0 0.00041073
16330.0 0.00040974
16350.0 0.00040872
16370.0 0.00040763
16390.0 0.00040661
16410.0 0.00040558
16430.0 0.0004045
16450.0 0.00040342
16470.0 0.00040238
16490.0 0.00040128
16510.0 0.00040015
16530.0 0.00039906
16550.0 0.00039796
16570.0 0.00039679
16590.0 0.00039564
16610.0 0.00039453
16630.0 0.00039337
16650.0 0.00039218
16670.0 0.00039102
16690.0 0.00038986
16710.0 0.00038862
16730.0 0.0003874
16750.0 0.00038621
16770.0 0.00038498
16790.0 0.00038371
16810.0 0.00038249
16830.0 0.00038125
16850.0 0.00037996
16870.0 0.00037869
16890.0 0.00037744
16910.0 0.00037612
16930.0 0.00037478
16950.0 0.00037349
16970.0 0.00037218
16990.0 0.00037082
17010.0 0.00036948
17030.0 0.00036817
17050.0 0.00036679
17070.0 0.0003654
17090.0 0.00036404
17110.0 0.00036267
17130.0 0.00036122
17150.0 0.00035982
17170.0 0.00035844
17190.0 0.00035701
17210.0 0.00035557
17230.0 0.00035416
17250.0 0.00035272
17270.0 0.00035123
17290.0 0.00034977
17310.0 0.00034833
17330.0 0.00034683
17350.0 0.00034532
17370.0 0.00034387
17390.0 0.00034238
17410.0 0.00034085
17430.0 0.00033935
17450.0 0.00033786
17470.0 0.00033629
17490.0 0.00033475
17510.0 0.00033324
17530.0 0.00033169
17550.0 0.00033012
17570.0 0.00032858
17590.0 0.00032705
17610.0 0.00032546
17630.0 0.00032388
17650.0 0.00032233
17670.0 0.00032075
17690.0 0.0003191
17710.0 0.00031754
17730.0 0.00031597
17750.0 0.00031435
17770.0 0.00031274
17790.0 0.00031117
17810.0 0.00030954
17830.0 0.0003079
17850.0 0.0003063
17870.0 0.0003047
17890.0 0.00030304
17910.0 0.0003014
17930.0 0.00029981
17950.0 0.00029817
17970.0 0.00029651
17990.0 0.0002949
18010.0 0.00029328
18030.0 0.00029159
18050.0 0.00028995
18070.0 0.00028833
18090.0 0.00028667
18110.0 0.000285
18130.0 0.00028338
18150.0 0.00028174
18170.0 0.00028007
18190.0 0.00027842
18210.0 0.0002768
18230.0 0.00027512
18250.0 0.00027344
18270.0 0.00027181
18290.0 0.00027017
18310.0 0.00026849
18330.0 0.00026685
18350.0 0.00026523
18370.0 0.00026356
18390.0 0.00026189
18410.0 0.00026027
18430.0 0.00025862
18450.0 0.00025693
18470.0 0.0002553
18490.0 0.00025368
18510.0 0.00025203
18530.0 0.00025038
18550.0 0.00024877
18570.0 0.00024713
18590.0 0.00024546
18610.0 0.00024384
18630.0 0.00024223
18650.0 0.00024058
18670.0 0.00023894
18690.0 0.00023735
18710.0 0.00023573
18730.0 0.0002341
18750.0 0.0002325
18770.0 0.00023092
18790.0 0.00022927
18810.0 0.00022765
18830.0 0.00022608
18850.0 0.00022448
18870.0 0.00022286
18890.0 0.00022129
18910.0 0.00021973
18930.0 0.00021812
18950.0 0.00021654
18970.0 0.00021499
18990.0 0.00021342
19010.0 0.0002118
19030.0 0.00021027
19050.0 0.00020873
19070.0 0.00020716
19090.0 0.00020561
19110.0 0.0002041
19130.0 0.00020254
19150.0 0.00020098
19170.0 0.00019947
19190.0 0.00019796
19210.0 0.00019641
19230.0 0.00019488
19250.0 0.00019341
19270.0 0.0001919
19290.0 0.00019038
19310.0 0.00018891
19330.0 0.00018743
19350.0 0.0001859
19370.0 0.00018443
19390.0 0.00018297
19410.0 0.00018149
19430.0 0.00018001
19450.0 0.00017858
19470.0 0.00017713
19490.0 0.00017566
19510.0 0.00017423
19530.0 0.00017281
19550.0 0.00017136
19570.0 0.0001699
19590.0 0.00016851
19610.0 0.0001671
19630.0 0.00016567
19650.0 0.00016428
19670.0 0.00016291
19690.0 0.00016149
19710.0 0.00016009
19730.0 0.00015873
19750.0 0.00015736
19770.0 0.00015595
19790.0 0.00015459
19810.0 0.00015326
19830.0 0.00015189
19850.0 0.00015052
19870.0 0.00014919
19890.0 0.00014779
19910.0 0.00014633
19930.0 0.00014483
19950.0 0.00014321
19970.0 0.00014138
19990.0 0.00013933
20010.0 0.00013988
20030.0 0.00013731
20050.0 0.00013445
20070.0 0.00013148
20090.0 0.00012839
20110.0 0.00012503
20130.0 0.00012172
20150.0 0.00011853
20170.0 0.0001153
20190.0 0.0001121
20210.0 0.00010913
20230.0 0.00010628
20250.0 0.00010348
20270.0 0.0001009
20290.0 9.8557e-05
20310.0 9.6356e-05
20330.0 9.4319e-05
20350.0 9.2628e-05
20370.0 9.1139e-05
20390.0 8.9849e-05
20410.0 8.882e-05
20430.0 8.8039e-05
20450.0 8.7454e-05
20470.0 8.7101e-05
20490.0 8.6959e-05
20510.0 8.7005e-05
20530.0 8.7245e-05
20550.0 8.7642e-05
20570.0 8.8156e-05
20590.0 8.8823e-05
20610.0 8.9604e-05
20630.0 9.0442e-05
20650.0 9.1365e-05
20670.0 9.241e-05
20690.0 9.3451e-05
20710.0 9.4507e-05
20730.0 9.5631e-05
20750.0 9.6784e-05
20770.0 9.7889e-05
20790.0 9.9033e-05
20810.0 0.00010022
20830.0 0.00010139
20850.0 0.00010254
20870.0 0.00010376
20890.0 0.000105
20910.0 0.00010618
20930.0 0.0001074
20950.0 0.00010868
20970.0 0.00010992
20990.0 0.00011114
21010.0 0.00011245
21030.0 0.00011373
21050.0 0.00011495
21070.0 0.00011619
21090.0 0.00011744
21110.0 0.00011859
21130.0 0.00011969
21150.0 0.00012077
21170.0 0.00012176
21190.0 0.00012265
21210.0 0.00012348
21230.0 0.00012424
21250.0 0.00012485
21270.0 0.00012534
21290.0 0.00012573
21310.0 0.00012596
21330.0 0.00012604
21350.0 0.00012596
21370.0 0.00012571
21390.0 0.00012528
21410.0 0.00012468
21430.0 0.00012383
21450.0 0.00012281
21470.0 0.00012162
21490.0 0.00012021
21510.0 0.00011859
21530.0 0.00011688
21550.0 0.00011501
21570.0 0.00011293
21590.0 0.00011081
21610.0 0.00010867
21630.0 0.00010645
21650.0 0.00010417
21670.0 0.00010208
21690.0 0.00010004
21710.0 9.8062e-05
21730.0 9.6284e-05
21750.0 9.4731e-05
21770.0 9.3302e-05
21790.0 9.2125e-05
21810.0 9.123e-05
21830.0 9.0575e-05
21850.0 9.0173e-05
21870.0 9.0049e-05
21890.0 9.0171e-05
21910.0 9.0549e-05
21930.0 9.1174e-05
21950.0 9.1992e-05
21970.0 9.3027e-05
21990.0 9.4321e-05
22010.0 9.5727e-05
22030.0 9.7258e-05
22050.0 9.8972e-05
22070.0 0.0001008
22090.0 0.00010262
22110.0 0.00010455
22130.0 0.00010658
22150.0 0.00010855
22170.0 0.00011048
22190.0 0.00011248
22210.0 0.0001144
22230.0 0.00011613
22250.0 0.00011782
22270.0 0.0001194
22290.0 0.00012079
22310.0 0.00012199
22330.0 0.00012307
22350.0 0.00012392
22370.0 0.00012453
22390.0 0.00012493
22410.0 0.00012509
22430.0 0.000125
22450.0 0.00012467
22470.0 0.00012407
22490.0 0.00012323
22510.0 0.00012218
22530.0 0.00012085
22550.0 0.00011923
22570.0 0.00011746
22590.0 0.00011547
22610.0 0.0001132
22630.0 0.00011075
22650.0 0.00010824
22670.0 0.00010546
22690.0 0.00010251
22710.0 9.9532e-05
22730.0 9.6463e-05
22750.0 9.3133e-05
22770.0 8.9873e-05
22790.0 8.6685e-05
22810.0 8.3408e-05
22830.0 8.0135e-05
22850.0 7.707e-05
22870.0 7.4068e-05
22890.0 7.1089e-05
22910.0 6.8358e-05
22930.0 6.5874e-05
22950.0 6.3532e-05
22970.0 6.1402e-05
22990.0 5.9681e-05
23010.0 5.8204e-05
23030.0 5.7003e-05
