#lamb flux
1010.0 2.7437e-05
1030.0 2.924e-05
1050.0 3.2872e-05
1070.0 3.6944e-05
1090.0 4.1203e-05
1110.0 4.5581e-05
1130.0 4.9982e-05
1150.0 5.4585e-05
1170.0 5.9291e-05
1190.0 6.3643e-05
1210.0 6.7935e-05
1230.0 7.2219e-05
1250.0 7.6283e-05
1270.0 7.9984e-05
1290.0 8.3692e-05
1310.0 8.7143e-05
1330.0 9.0171e-05
1350.0 9.3057e-05
1370.0 9.5939e-05
1390.0 9.8631e-05
1410.0 0.0001012
1430.0 0.00010404
1450.0 0.00010704
1470.0 0.00011016
1490.0 0.00011365
1510.0 0.00011776
1530.0 0.00012214
1550.0 0.00012699
1570.0 0.00013257
1590.0 0.00013879
1610.0 0.00014551
1630.0 0.00015318
1650.0 0.00016169
1670.0 0.00017078
1690.0 0.0001805
1710.0 0.00019107
1730.0 0.00020229
1750.0 0.00021374
1770.0 0.00022577
1790.0 0.00023822
1810.0 0.00025068
1830.0 0.00026304
1850.0 0.00027559
1870.0 0.00028765
1890.0 0.00029896
1910.0 0.00030965
1930.0 0.00031959
1950.0 0.00032815
1970.0 0.00033542
1990.0 0.00034157
2010.0 0.00034619
2030.0 0.00034912
2050.0 0.00035075
2070.0 0.00035109
2090.0 0.0003497
2110.0 0.00034702
2130.0 0.00034336
2150.0 0.00033859
2170.0 0.00033278
2190.0 0.00032651
2210.0 0.00031981
2230.0 0.00031263
2250.0 0.00030533
2270.0 0.00029828
2290.0 0.00029128
2310.0 0.00028445
2330.0 0.0002782
2350.0 0.00027254
2370.0 0.00026737
2390.0 0.00026299
2410.0 0.00025965
2430.0 0.00025717
2450.0 0.00025571
2470.0 0.00025562
2490.0 0.00025704
2510.0 0.00025977
2530.0 0.00026462
2550.0 0.00027269
2570.0 0.00028486
2590.0 0.00030251
2610.0 0.00032979
2630.0 0.00036778
2650.0 0.00041515
2670.0 0.00047317
2690.0 0.0005408
2710.0 0.0006103
2730.0 0.00067773
2750.0 0.0007441
2770.0 0.00080428
2790.0 0.00085731
2810.0 0.00090703
2830.0 0.00095673
2850.0 0.0010053
2870.0 0.0010561
2890.0 0.0011119
2910.0 0.001172
2930.0 0.001235
2950.0 0.0013038
2970.0 0.0013783
2990.0 0.001456
3010.0 0.0017427
3030.0 0.0018424
3050.0 0.0019465
3070.0 0.0020501
3090.0 0.002155
3110.0 0.0022553
3130.0 0.0023431
3150.0 0.0024148
3170.0 0.0024604
3190.0 0.0025385
3210.0 0.0027998
3230.0 0.0032041
3250.0 0.0033721
3270.0 0.0031951
3290.0 0.0029143
3310.0 0.0027677
3330.0 0.0027078
3350.0 0.0027033
3370.0 0.0027176
3390.0 0.0027509
3410.0 0.0027683
3430.0 0.0026818
3450.0 0.0026509
3470.0 0.0026424
3490.0 0.0029585
3510.0 0.0038955
3530.0 0.004833
3550.0 0.0055071
3570.0 0.0061468
3590.0 0.0065163
3610.0 0.0064738
3630.0 0.0063573
3650.0 0.0066832
3670.0 0.0076275
3690.0 0.0087792
3710.0 0.0097954
3730.0 0.010642
3750.0 0.011395
3770.0 0.011259
3790.0 0.010478
3810.0 0.0096962
3830.0 0.008938
3850.0 0.0086304
3870.0 0.0090421
3890.0 0.0099303
3910.0 0.01084
3930.0 0.011826
3950.0 0.013263
3970.0 0.014302
3990.0 0.013862
4010.0 0.012581
4030.0 0.011054
4050.0 0.010124
4070.0 0.0097245
4090.0 0.0095296
4110.0 0.0096608
4130.0 0.0096715
4150.0 0.0097145
4170.0 0.010119
4190.0 0.0108
4210.0 0.010789
4230.0 0.010632
4250.0 0.01066
4270.0 0.010969
4290.0 0.011542
4310.0 0.012085
4330.0 0.011766
4350.0 0.01073
4370.0 0.0097136
4390.0 0.0087029
4410.0 0.0076945
4430.0 0.0072956
4450.0 0.0074432
4470.0 0.007758
4490.0 0.0082956
4510.0 0.0094659
4530.0 0.011893
4550.0 0.015497
4570.0 0.018112
4590.0 0.019987
4610.0 0.022727
4630.0 0.024828
4650.0 0.024035
4670.0 0.02101
4690.0 0.017832
4710.0 0.015639
4730.0 0.014213
4750.0 0.012818
4770.0 0.011776
4790.0 0.012126
4810.0 0.013084
4830.0 0.013466
4850.0 0.013171
4870.0 0.013494
4890.0 0.014424
4910.0 0.015272
4930.0 0.015821
4950.0 0.015915
4970.0 0.015275
4990.0 0.013943
5010.0 0.01248
5030.0 0.011258
5050.0 0.010447
5070.0 0.0098969
5090.0 0.0094711
5110.0 0.0093417
5130.0 0.0093379
5150.0 0.0094929
5170.0 0.010193
5190.0 0.011323
5210.0 0.012764
5230.0 0.013999
5250.0 0.015027
5270.0 0.01618
5290.0 0.017377
5310.0 0.018074
5330.0 0.018042
5350.0 0.017541
5370.0 0.017375
5390.0 0.017966
5410.0 0.019148
5430.0 0.020376
5450.0 0.021391
5470.0 0.021999
5490.0 0.021988
5510.0 0.021679
5530.0 0.021356
5550.0 0.021037
5570.0 0.020571
5590.0 0.020023
5610.0 0.019364
5630.0 0.01838
5650.0 0.017038
5670.0 0.015813
5690.0 0.015078
5710.0 0.014655
5730.0 0.01416
5750.0 0.013815
5770.0 0.013736
5790.0 0.013813
5810.0 0.013755
5830.0 0.013722
5850.0 0.01369
5870.0 0.013355
5890.0 0.012956
5910.0 0.01247
5930.0 0.011505
5950.0 0.01038
5970.0 0.0095761
5990.0 0.0091776
6010.0 0.0089474
6030.0 0.0086481
6050.0 0.0084971
6070.0 0.0088375
6090.0 0.0093379
6110.0 0.0095818
6130.0 0.0095009
6150.0 0.0093164
6170.0 0.0092163
6190.0 0.0091067
6210.0 0.0087949
6230.0 0.0082022
6250.0 0.0076277
6270.0 0.0072854
6290.0 0.007064
6310.0 0.0072218
6330.0 0.0078306
6350.0 0.0085956
6370.0 0.0091456
6390.0 0.0095903
6410.0 0.01012
6430.0 0.010527
6450.0 0.010812
6470.0 0.011089
6490.0 0.011362
6510.0 0.011554
6530.0 0.011632
6550.0 0.011698
6570.0 0.011538
6590.0 0.011115
6610.0 0.010706
6630.0 0.01035
6650.0 0.0098879
6670.0 0.0093418
6690.0 0.0089161
6710.0 0.0086624
6730.0 0.0084082
6750.0 0.0082217
6770.0 0.0082152
6790.0 0.0082213
6810.0 0.0080814
6830.0 0.0079194
6850.0 0.0079679
6870.0 0.0080106
6890.0 0.0078725
6910.0 0.0077995
6930.0 0.007755
6950.0 0.0076144
6970.0 0.0074102
6990.0 0.0072009
7010.0 0.0070214
7030.0 0.0067981
7050.0 0.0064069
7070.0 0.0059867
7090.0 0.0059074
7110.0 0.0061235
7130.0 0.0063597
7150.0 0.00653
7170.0 0.0067233
7190.0 0.0068856
7210.0 0.0068597
7230.0 0.0068507
7250.0 0.0069756
7270.0 0.0069151
7290.0 0.0067763
7310.0 0.0067805
7330.0 0.0069825
7350.0 0.0072843
7370.0 0.0074782
7390.0 0.007612
7410.0 0.0077479
7430.0 0.0077506
7450.0 0.0076372
7470.0 0.0074957
7490.0 0.0071915
7510.0 0.0068907
7530.0 0.0068132
7550.0 0.00674
7570.0 0.0066708
7590.0 0.0066979
7610.0 0.006707
7630.0 0.006753
7650.0 0.0070201
7670.0 0.0073894
7690.0 0.0077419
7710.0 0.0080034
7730.0 0.0082409
7750.0 0.0084804
7770.0 0.0087086
7790.0 0.0089138
7810.0 0.0089889
7830.0 0.0087973
7850.0 0.0084903
7870.0 0.0081745
7890.0 0.0078937
7910.0 0.0077874
7930.0 0.0076703
7950.0 0.0075063
7970.0 0.0073172
7990.0 0.0072242
8010.0 0.0067932
8030.0 0.006763
8050.0 0.00672
8070.0 0.0066329
8090.0 0.0065547
8110.0 0.0065285
8130.0 0.006546
8150.0 0.0065128
8170.0 0.006444
8190.0 0.0062593
8210.0 0.0059321
8230.0 0.0056264
8250.0 0.005486
8270.0 0.0052679
8290.0 0.004858
8310.0 0.0044552
8330.0 0.0041961
8350.0 0.0040678
8370.0 0.0041967
8390.0 0.0045243
8410.0 0.0048315
8430.0 0.0051368
8450.0 0.0055301
8470.0 0.0058793
8490.0 0.0062624
8510.0 0.0066444
8530.0 0.0070192
8550.0 0.007321
8570.0 0.0075442
8590.0 0.007719
8610.0 0.0078927
8630.0 0.007931
8650.0 0.0077906
8670.0 0.0078079
8690.0 0.0080858
8710.0 0.0084453
8730.0 0.0085619
8750.0 0.0084348
8770.0 0.0084402
8790.0 0.0084341
8810.0 0.0082015
8830.0 0.0076107
8850.0 0.0068823
8870.0 0.0063519
8890.0 0.006153
8910.0 0.0059294
8930.0 0.005524
8950.0 0.0051715
8970.0 0.00506
8990.0 0.0051154
9010.0 0.0051059
9030.0 0.005049
9050.0 0.0050079
9070.0 0.0049804
9090.0 0.004955
9110.0 0.0049301
9130.0 0.0049053
9150.0 0.0048808
9170.0 0.0048563
9190.0 0.004833
9210.0 0.0048115
9230.0 0.0047867
9250.0 0.0047626
9270.0 0.004739
9290.0 0.0047159
9310.0 0.0046931
9330.0 0.0046705
9350.0 0.0046483
9370.0 0.0046263
9390.0 0.0046045
9410.0 0.0045828
9430.0 0.0045606
9450.0 0.0045343
9470.0 0.0045097
9490.0 0.0044934
9510.0 0.0044749
9530.0 0.0044563
9550.0 0.0044367
9570.0 0.0044169
9590.0 0.0043975
9610.0 0.004378
9630.0 0.0043582
9650.0 0.0043387
9670.0 0.0043198
9690.0 0.0043006
9710.0 0.0042815
9730.0 0.0042628
9750.0 0.0042442
9770.0 0.004225
9790.0 0.0042065
9810.0 0.0041882
9830.0 0.0041696
9850.0 0.0041505
9870.0 0.0041326
9890.0 0.0041146
9910.0 0.0040963
9930.0 0.0040782
9950.0 0.0040563
9970.0 0.0040391
9990.0 0.0040215
10010.0 0.0040035
10030.0 0.0039855
10050.0 0.0039679
10070.0 0.0039503
10090.0 0.0039328
10110.0 0.0039131
10130.0 0.0038863
10150.0 0.0038694
10170.0 0.003854
10190.0 0.0038364
10210.0 0.0038192
10230.0 0.0038018
10250.0 0.0037827
10270.0 0.0037634
10290.0 0.003745
10310.0 0.0037253
10330.0 0.0037045
10350.0 0.003685
10370.0 0.0036654
10390.0 0.0036444
10410.0 0.0036235
10430.0 0.0036038
10450.0 0.0035827
10470.0 0.0035608
10490.0 0.0035398
10510.0 0.0035187
10530.0 0.0034955
10550.0 0.0034728
10570.0 0.0034512
10590.0 0.0034282
10610.0 0.0034044
10630.0 0.0033816
10650.0 0.0033584
10670.0 0.0033334
10690.0 0.0033089
10710.0 0.0032849
10730.0 0.0032596
10750.0 0.0032329
10770.0 0.003208
10790.0 0.0031824
10810.0 0.0031553
10830.0 0.0031286
10850.0 0.0031026
10870.0 0.0030743
10890.0 0.0030457
10910.0 0.0030182
10930.0 0.0029901
10950.0 0.0029605
10970.0 0.0029316
10990.0 0.0029039
11010.0 0.0028563
11030.0 0.0028253
11050.0 0.0027962
11070.0 0.0027675
11090.0 0.0027379
11110.0 0.002711
11130.0 0.0026855
11150.0 0.0026602
11170.0 0.0026359
11190.0 0.0026139
11210.0 0.0025926
11230.0 0.0025719
11250.0 0.0025532
11270.0 0.002536
11290.0 0.0025194
11310.0 0.0025039
11330.0 0.0024904
11350.0 0.0024772
11370.0 0.0024645
11390.0 0.0024525
11410.0 0.0024409
11430.0 0.0024284
11450.0 0.0024157
11470.0 0.0024027
11490.0 0.0023885
11510.0 0.0023726
11530.0 0.0023562
11550.0 0.0023385
11570.0 0.0023186
11590.0 0.0022973
11610.0 0.0022753
11630.0 0.0022511
11650.0 0.0022246
11670.0 0.0021979
11690.0 0.0021698
11710.0 0.0021393
11730.0 0.0021078
11750.0 0.002076
11770.0 0.0020418
11790.0 0.0020057
11810.0 0.0019694
11830.0 0.0019321
11850.0 0.0018918
11870.0 0.0018518
11890.0 0.0018124
11910.0 0.0017716
11930.0 0.0017303
11950.0 0.0016909
11970.0 0.0016518
11990.0 0.0016121
12010.0 0.0015746
12030.0 0.0015393
12050.0 0.0015047
12070.0 0.0014712
12090.0 0.0014414
12110.0 0.0014131
12130.0 0.0013861
12150.0 0.0013619
12170.0 0.0013403
12190.0 0.00132
12210.0 0.0013023
12230.0 0.0012876
12250.0 0.0012751
12270.0 0.0012648
12290.0 0.0012573
12310.0 0.001252
12330.0 0.0012488
12350.0 0.0012477
12370.0 0.0012483
12390.0 0.0012503
12410.0 0.0012539
12430.0 0.0012582
12450.0 0.001263
12470.0 0.0012686
12490.0 0.0012745
12510.0 0.00128
12530.0 0.0012857
12550.0 0.0012914
12570.0 0.0012964
12590.0 0.0013007
12610.0 0.0013045
12630.0 0.0013073
12650.0 0.0013086
12670.0 0.0013087
12690.0 0.0013074
12710.0 0.0013042
12730.0 0.0012994
12750.0 0.0012927
12770.0 0.0012841
12790.0 0.0012739
12810.0 0.001262
12830.0 0.0012483
12850.0 0.0012339
12870.0 0.0012186
12890.0 0.0012022
12910.0 0.0011856
12930.0 0.0011693
12950.0 0.0011525
12970.0 0.0011358
12990.0 0.0011201
13010.0 0.0011049
13030.0 0.0010899
13050.0 0.0010758
13070.0 0.0010627
13090.0 0.0010498
13110.0 0.0010375
13130.0 0.001026
13150.0 0.0010151
13170.0 0.0010043
13190.0 0.00099429
13210.0 0.000985
13230.0 0.00097595
13250.0 0.00096732
13270.0 0.00095934
13290.0 0.00095165
13310.0 0.00094408
13330.0 0.00093694
13350.0 0.00093008
13370.0 0.0009232
13390.0 0.00091627
13410.0 0.00090959
13430.0 0.00090274
13450.0 0.00089558
13470.0 0.00088834
13490.0 0.00088102
13510.0 0.00087306
13530.0 0.00086487
13550.0 0.00085665
13570.0 0.00084808
13590.0 0.00083905
13610.0 0.00083005
13630.0 0.0008211
13650.0 0.00081171
13670.0 0.00080231
13690.0 0.00079316
13710.0 0.00078392
13730.0 0.00077433
13750.0 0.0007653
13770.0 0.00075644
13790.0 0.00074743
13810.0 0.00073861
13830.0 0.00073029
13850.0 0.0007219
13870.0 0.0007136
13890.0 0.00070579
13910.0 0.00069833
13930.0 0.00069093
13950.0 0.00068393
13970.0 0.00067762
13990.0 0.00067151
14010.0 0.00066571
14030.0 0.00066047
14050.0 0.0006556
14070.0 0.00065085
14090.0 0.00064653
14110.0 0.00064258
14130.0 0.00063877
14150.0 0.0006351
14170.0 0.00063176
14190.0 0.00062856
14210.0 0.00062538
14230.0 0.00062235
14250.0 0.00061951
14270.0 0.00061664
14290.0 0.0006138
14310.0 0.00061116
14330.0 0.00060855
14350.0 0.00060591
14370.0 0.00060337
14390.0 0.00060094
14410.0 0.00059846
14430.0 0.00059599
14450.0 0.00059365
14470.0 0.00059135
14490.0 0.00058895
14510.0 0.00058668
14530.0 0.00058449
14550.0 0.00058222
14570.0 0.00057991
14590.0 0.00057767
14610.0 0.00057534
14630.0 0.00057287
14650.0 0.00057048
14670.0 0.00056818
14690.0 0.00056592
14710.0 0.0005639
14730.0 0.00056243
14750.0 0.00056148
14770.0 0.0005613
14790.0 0.00056213
14810.0 0.00056407
14830.0 0.00056749
14850.0 0.00057245
14870.0 0.00057875
14890.0 0.00058657
14910.0 0.00059589
14930.0 0.00060579
14950.0 0.00061585
14970.0 0.00062608
14990.0 0.00063542
15010.0 0.0006433
15030.0 0.0006499
15050.0 0.00065517
15070.0 0.00065894
15090.0 0.00066177
15110.0 0.00066399
15130.0 0.00066578
15150.0 0.00066735
15170.0 0.00066883
15190.0 0.00067028
15210.0 0.00067175
15230.0 0.00067323
15250.0 0.00067474
15270.0 0.00067628
15290.0 0.00067786
15310.0 0.00067947
15330.0 0.0006811
15350.0 0.00068278
15370.0 0.00068448
15390.0 0.0006862
15410.0 0.00068796
15430.0 0.00068975
15450.0 0.00069157
15470.0 0.00069342
15490.0 0.00069529
15510.0 0.0006972
15530.0 0.00069913
15550.0 0.00070108
15570.0 0.00070307
15590.0 0.00070508
15610.0 0.00070711
15630.0 0.00070917
15650.0 0.00071126
15670.0 0.00071337
15690.0 0.0007155
15710.0 0.00071766
15730.0 0.00071984
15750.0 0.00072203
15770.0 0.00072426
15790.0 0.0007265
15810.0 0.00072876
15830.0 0.00073104
15850.0 0.00073334
15870.0 0.00073566
15890.0 0.000738
15910.0 0.00074036
15930.0 0.00074273
15950.0 0.00074511
15970.0 0.00074751
15990.0 0.00074993
16010.0 0.00075235
16030.0 0.00075479
16050.0 0.00075725
16070.0 0.00075972
16090.0 0.00076219
16110.0 0.00076468
16130.0 0.00076717
16150.0 0.00076967
16170.0 0.00077218
16190.0 0.0007747
16210.0 0.00077723
16230.0 0.00077975
16250.0 0.00078228
16270.0 0.00078482
16290.0 0.00078736
16310.0 0.0007899
16330.0 0.00079244
16350.0 0.00079498
16370.0 0.00079751
16390.0 0.00080005
16410.0 0.00080259
16430.0 0.00080512
16450.0 0.00080764
16470.0 0.00081017
16490.0 0.00081268
16510.0 0.00081518
16530.0 0.00081768
16550.0 0.00082017
16570.0 0.00082265
16590.0 0.00082511
16610.0 0.00082757
16630.0 0.00083001
16650.0 0.00083244
16670.0 0.00083485
16690.0 0.00083725
16710.0 0.00083963
16730.0 0.00084199
16750.0 0.00084433
16770.0 0.00084665
16790.0 0.00084895
16810.0 0.00085124
16830.0 0.00085349
16850.0 0.00085573
16870.0 0.00085794
16890.0 0.00086012
16910.0 0.00086228
16930.0 0.0008644
16950.0 0.00086651
16970.0 0.00086858
16990.0 0.00087062
17010.0 0.00087263
17030.0 0.00087461
17050.0 0.00087656
17070.0 0.00087847
17090.0 0.00088035
17110.0 0.00088219
17130.0 0.00088399
17150.0 0.00088576
17170.0 0.00088749
17190.0 0.00088919
17210.0 0.00089084
17230.0 0.00089245
17250.0 0.00089402
17270.0 0.00089555
17290.0 0.00089703
17310.0 0.00089848
17330.0 0.00089987
17350.0 0.00090122
17370.0 0.00090254
17390.0 0.0009038
17410.0 0.00090501
17430.0 0.00090618
17450.0 0.0009073
17470.0 0.00090837
17490.0 0.00090939
17510.0 0.00091036
17530.0 0.00091128
17550.0 0.00091215
17570.0 0.00091296
17590.0 0.00091373
17610.0 0.00091444
17630.0 0.0009151
17650.0 0.00091571
17670.0 0.00091626
17690.0 0.00091676
17710.0 0.00091721
17730.0 0.0009176
17750.0 0.00091793
17770.0 0.00091821
17790.0 0.00091843
17810.0 0.0009186
17830.0 0.00091871
17850.0 0.00091876
17870.0 0.00091876
17890.0 0.0009187
17910.0 0.00091858
17930.0 0.00091841
17950.0 0.00091818
17970.0 0.00091789
17990.0 0.00091754
18010.0 0.00091714
18030.0 0.00091667
18050.0 0.00091616
18070.0 0.00091558
18090.0 0.00091495
18110.0 0.00091425
18130.0 0.0009135
18150.0 0.0009127
18170.0 0.00091183
18190.0 0.00091091
18210.0 0.00090994
18230.0 0.0009089
18250.0 0.00090781
18270.0 0.00090666
18290.0 0.00090546
18310.0 0.0009042
18330.0 0.00090289
18350.0 0.00090152
18370.0 0.00090009
18390.0 0.00089861
18410.0 0.00089708
18430.0 0.00089549
18450.0 0.00089385
18470.0 0.00089216
18490.0 0.00089041
18510.0 0.00088861
18530.0 0.00088676
18550.0 0.00088486
18570.0 0.00088291
18590.0 0.0008809
18610.0 0.00087885
18630.0 0.00087675
18650.0 0.0008746
18670.0 0.00087239
18690.0 0.00087015
18710.0 0.00086785
18730.0 0.00086551
18750.0 0.00086312
18770.0 0.00086069
18790.0 0.00085821
18810.0 0.00085569
18830.0 0.00085313
18850.0 0.00085052
18870.0 0.00084786
18890.0 0.00084517
18910.0 0.00084244
18930.0 0.00083966
18950.0 0.00083685
18970.0 0.000834
18990.0 0.00083111
19010.0 0.00082818
19030.0 0.00082521
19050.0 0.00082221
19070.0 0.00081917
19090.0 0.0008161
19110.0 0.000813
19130.0 0.00080986
19150.0 0.00080668
19170.0 0.00080348
19190.0 0.00080025
19210.0 0.00079698
19230.0 0.00079369
19250.0 0.00079036
19270.0 0.00078701
19290.0 0.00078363
19310.0 0.00078023
19330.0 0.0007768
19350.0 0.00077334
19370.0 0.00076986
19390.0 0.00076635
19410.0 0.00076282
19430.0 0.00075927
19450.0 0.0007557
19470.0 0.00075211
19490.0 0.0007485
19510.0 0.00074487
19530.0 0.00074122
19550.0 0.00073755
19570.0 0.00073386
19590.0 0.00073016
19610.0 0.00072644
19630.0 0.00072271
19650.0 0.00071897
19670.0 0.00071521
19690.0 0.00071143
19710.0 0.00070765
19730.0 0.00070385
19750.0 0.00070005
19770.0 0.00069623
19790.0 0.0006924
19810.0 0.00068856
19830.0 0.0006847
19850.0 0.00068081
19870.0 0.00067685
19890.0 0.00067277
19910.0 0.00066845
19930.0 0.00066379
19950.0 0.00065861
19970.0 0.00065262
19990.0 0.00064569
20010.0 0.00063793
20030.0 0.00062903
20050.0 0.00061906
20070.0 0.0006085
20090.0 0.00059747
20110.0 0.00058561
20130.0 0.00057383
20150.0 0.00056231
20170.0 0.00055069
20190.0 0.00053912
20210.0 0.00052812
20230.0 0.00051739
20250.0 0.00050667
20270.0 0.00049645
20290.0 0.00048679
20310.0 0.00047733
20330.0 0.00046811
20350.0 0.00045973
20370.0 0.00045171
20390.0 0.00044401
20410.0 0.00043686
20430.0 0.00043031
20450.0 0.00042401
20470.0 0.00041818
20490.0 0.00041291
20510.0 0.00040802
20530.0 0.00040346
20550.0 0.00039933
20570.0 0.00039557
20590.0 0.00039206
20610.0 0.00038883
20630.0 0.00038585
20650.0 0.00038306
20670.0 0.00038042
20690.0 0.00037791
20710.0 0.00037547
20730.0 0.00037308
20750.0 0.0003707
20770.0 0.00036829
20790.0 0.00036583
20810.0 0.00036329
20830.0 0.00036065
20850.0 0.0003579
20870.0 0.000355
20890.0 0.00035195
20910.0 0.00034879
20930.0 0.00034546
20950.0 0.00034197
20970.0 0.00033837
20990.0 0.00033467
21010.0 0.00033078
21030.0 0.0003268
21050.0 0.00032279
21070.0 0.00031868
21090.0 0.00031445
21110.0 0.00031027
21130.0 0.00030609
21150.0 0.00030183
21170.0 0.0002976
21190.0 0.00029346
21210.0 0.00028927
21230.0 0.00028508
21250.0 0.00028103
21270.0 0.00027704
21290.0 0.00027306
21310.0 0.00026917
21330.0 0.00026545
21350.0 0.00026175
21370.0 0.00025814
21390.0 0.00025468
21410.0 0.00025134
21430.0 0.00024803
21450.0 0.00024491
21470.0 0.00024194
21490.0 0.00023907
21510.0 0.00023632
21530.0 0.00023374
21550.0 0.00023128
21570.0 0.0002289
21590.0 0.00022666
21610.0 0.00022454
21630.0 0.0002225
21650.0 0.00022054
21670.0 0.00021867
21690.0 0.00021686
21710.0 0.0002151
21730.0 0.00021338
21750.0 0.0002117
21770.0 0.00021004
21790.0 0.0002084
21810.0 0.00020678
21830.0 0.00020516
21850.0 0.00020355
21870.0 0.00020193
21890.0 0.00020033
21910.0 0.00019871
21930.0 0.00019709
21950.0 0.00019547
21970.0 0.00019384
21990.0 0.00019219
22010.0 0.00019053
22030.0 0.00018887
22050.0 0.00018717
22070.0 0.00018545
22090.0 0.00018373
22110.0 0.00018196
22130.0 0.00018015
22150.0 0.00017832
22170.0 0.00017646
22190.0 0.00017454
22210.0 0.00017258
22230.0 0.00017062
22250.0 0.0001686
22270.0 0.00016653
22290.0 0.00016445
22310.0 0.00016235
22330.0 0.00016017
22350.0 0.00015798
22370.0 0.0001558
22390.0 0.00015357
22410.0 0.00015128
22430.0 0.00014903
22450.0 0.00014678
22470.0 0.00014446
22490.0 0.00014216
22510.0 0.0001399
22530.0 0.00013758
22550.0 0.00013525
22570.0 0.000133
22590.0 0.00013077
22610.0 0.00012852
22630.0 0.00012633
22650.0 0.00012423
22670.0 0.00012214
22690.0 0.00012009
22710.0 0.00011814
22730.0 0.00011627
22750.0 0.0001144
22770.0 0.00011265
22790.0 0.00011101
22810.0 0.00010942
22830.0 0.0001079
22850.0 0.0001065
22870.0 0.00010515
22890.0 0.00010385
22910.0 0.00010264
22930.0 0.0001015
22950.0 0.0001004
22970.0 9.9347e-05
22990.0 9.8367e-05
23010.0 9.7418e-05
23030.0 9.6494e-05
23050.0 9.561e-05
23070.0 9.4761e-05
23090.0 9.3916e-05
23110.0 9.3095e-05
23130.0 9.2302e-05
23150.0 9.152e-05
23170.0 9.0741e-05
23190.0 8.998e-05
23210.0 8.9235e-05
23230.0 8.8482e-05
23250.0 8.7733e-05
23270.0 8.6994e-05
23290.0 8.6247e-05
