#lamb flux
1010.0 1.8215e-05
1030.0 2.4203e-05
1050.0 3.1797e-05
1070.0 4.1232e-05
1090.0 5.2982e-05
1110.0 6.6522e-05
1130.0 8.176e-05
1150.0 9.9149e-05
1170.0 0.0001186
1190.0 0.00013892
1210.0 0.00016072
1230.0 0.00018391
1250.0 0.00020731
1270.0 0.00023019
1290.0 0.00025327
1310.0 0.00027508
1330.0 0.00029426
1350.0 0.00031112
1370.0 0.00032551
1390.0 0.00033607
1410.0 0.00034254
1430.0 0.00034602
1450.0 0.00034583
1470.0 0.00034173
1490.0 0.00033474
1510.0 0.00032599
1530.0 0.00031446
1550.0 0.00030114
1570.0 0.00028696
1590.0 0.00027204
1610.0 0.00025646
1630.0 0.00024122
1650.0 0.00022651
1670.0 0.00021215
1690.0 0.00019849
1710.0 0.00018591
1730.0 0.00017429
1750.0 0.00016344
1770.0 0.00015373
1790.0 0.00014506
1810.0 0.00013722
1830.0 0.00013023
1850.0 0.00012426
1870.0 0.000119
1890.0 0.0001144
1910.0 0.00011055
1930.0 0.00010742
1950.0 0.00010479
1970.0 0.00010274
1990.0 0.00010134
2010.0 0.00010046
2030.0 0.00010005
2050.0 0.00010025
2070.0 0.00010104
2090.0 0.00010229
2110.0 0.00010411
2130.0 0.0001066
2150.0 0.0001097
2170.0 0.00011338
2190.0 0.00011785
2210.0 0.00012308
2230.0 0.00012902
2250.0 0.00013579
2270.0 0.00014352
2290.0 0.0001521
2310.0 0.00016152
2330.0 0.00017197
2350.0 0.00018341
2370.0 0.00019572
2390.0 0.000209
2410.0 0.00022335
2430.0 0.00023852
2450.0 0.00025448
2470.0 0.00027139
2490.0 0.00028928
2510.0 0.00030797
2530.0 0.00032813
2550.0 0.00035074
2570.0 0.00037677
2590.0 0.00040769
2610.0 0.00044789
2630.0 0.00050001
2650.0 0.00056495
2670.0 0.00064728
2690.0 0.00075088
2710.0 0.00087036
2730.0 0.0010019
2750.0 0.0011491
2770.0 0.0012996
2790.0 0.0014416
2810.0 0.0015744
2830.0 0.0016958
2850.0 0.0017923
2870.0 0.0018706
2890.0 0.0019359
2910.0 0.0019884
2930.0 0.0020295
2950.0 0.0020654
2970.0 0.0020967
2990.0 0.0021222
3010.0 0.0021434
3030.0 0.0021625
3050.0 0.0021781
3070.0 0.0021879
3090.0 0.0021952
3110.0 0.0021993
3130.0 0.0021984
3150.0 0.0021956
3170.0 0.002193
3190.0 0.0021906
3210.0 0.002191
3230.0 0.0021976
3250.0 0.0022094
3270.0 0.0022187
3290.0 0.0022344
3310.0 0.0022664
3330.0 0.0022763
3350.0 0.0022729
3370.0 0.0022614
3390.0 0.0022418
3410.0 0.0022156
3430.0 0.0021859
3450.0 0.0021699
3470.0 0.0021915
3490.0 0.0021757
3510.0 0.0020741
3530.0 0.0020418
3550.0 0.0021324
3570.0 0.0026432
3590.0 0.0030413
3610.0 0.0033438
3630.0 0.0037334
3650.0 0.0036414
3670.0 0.0031785
3690.0 0.0027685
3710.0 0.00263
3730.0 0.0027168
3750.0 0.0027768
3770.0 0.0028246
3790.0 0.002859
3810.0 0.0029195
3830.0 0.0026951
3850.0 0.0023848
3870.0 0.0022443
3890.0 0.0023659
3910.0 0.0024528
3930.0 0.0024577
3950.0 0.0025585
3970.0 0.0026994
3990.0 0.0027374
4010.0 0.0027852
4030.0 0.0027012
4050.0 0.0026293
4070.0 0.002584
4090.0 0.0026057
4110.0 0.0026231
4130.0 0.0025715
4150.0 0.00248
4170.0 0.0024521
4190.0 0.0024349
4210.0 0.0022859
4230.0 0.0021143
4250.0 0.0019079
4270.0 0.0017123
4290.0 0.0016356
4310.0 0.0015947
4330.0 0.0016492
4350.0 0.0018194
4370.0 0.0019195
4390.0 0.0021166
4410.0 0.0022766
4430.0 0.0023406
4450.0 0.0022006
4470.0 0.0020461
4490.0 0.0020093
4510.0 0.0019839
4530.0 0.0019843
4550.0 0.0019775
4570.0 0.0020071
4590.0 0.0020751
4610.0 0.0021236
4630.0 0.0021708
4650.0 0.0021954
4670.0 0.0021822
4690.0 0.0020624
4710.0 0.0019543
4730.0 0.0018721
4750.0 0.0018178
4770.0 0.0017513
4790.0 0.0017476
4810.0 0.001718
4830.0 0.0017629
4850.0 0.0017358
4870.0 0.0017766
4890.0 0.0017161
4910.0 0.0016393
4930.0 0.0015582
4950.0 0.0013972
4970.0 0.0012753
4990.0 0.0012133
5010.0 0.0011358
5030.0 0.0011378
5050.0 0.0011706
5070.0 0.0012315
5090.0 0.0012798
5110.0 0.0013259
5130.0 0.0013493
5150.0 0.0013688
5170.0 0.0013474
5190.0 0.0013514
5210.0 0.0013518
5230.0 0.0013149
5250.0 0.0013353
5270.0 0.0014008
5290.0 0.0013821
5310.0 0.0013316
5330.0 0.0012855
5350.0 0.0012177
5370.0 0.0011854
5390.0 0.0011515
5410.0 0.0011599
5430.0 0.0011573
5450.0 0.0011326
5470.0 0.0011277
5490.0 0.001212
5510.0 0.0012447
5530.0 0.0012279
5550.0 0.0012338
5570.0 0.0012521
5590.0 0.0012629
5610.0 0.0012349
5630.0 0.001212
5650.0 0.0011819
5670.0 0.0011785
5690.0 0.0011424
5710.0 0.0011284
5730.0 0.0011237
5750.0 0.001098
5770.0 0.001069
5790.0 0.0010306
5810.0 0.0009898
5830.0 0.0010013
5850.0 0.0010114
5870.0 0.0010051
5890.0 0.0010088
5910.0 0.0010346
5930.0 0.0010479
5950.0 0.0010419
5970.0 0.001058
5990.0 0.0010651
6010.0 0.0010572
6030.0 0.0010441
6050.0 0.0010206
6070.0 0.0010194
6090.0 0.0010315
6110.0 0.0010114
6130.0 0.00098092
6150.0 0.00095318
6170.0 0.00091774
6190.0 0.00085287
6210.0 0.00084607
6230.0 0.00084259
6250.0 0.0008316
6270.0 0.00084246
6290.0 0.00085663
6310.0 0.00086587
6330.0 0.00087358
6350.0 0.00087306
6370.0 0.00086792
6390.0 0.0008313
6410.0 0.00082145
6430.0 0.00080289
6450.0 0.00078707
6470.0 0.00077794
6490.0 0.00078274
6510.0 0.00076721
6530.0 0.00076575
6550.0 0.00075427
6570.0 0.00074186
6590.0 0.00074447
6610.0 0.00073701
6630.0 0.00073086
6650.0 0.00071763
6670.0 0.00070156
6690.0 0.00067514
6710.0 0.00065627
6730.0 0.00065058
6750.0 0.00065278
6770.0 0.00066197
6790.0 0.00064229
6810.0 0.00064097
6830.0 0.00062822
6850.0 0.00061217
6870.0 0.00059681
6890.0 0.00058873
6910.0 0.00059217
6930.0 0.00057769
6950.0 0.00058716
6970.0 0.00057784
6990.0 0.00057336
7010.0 0.00055893
7030.0 0.00056191
7050.0 0.00055763
7070.0 0.00053186
7090.0 0.00050366
7110.0 0.00050263
7130.0 0.00051011
7150.0 0.00051102
7170.0 0.00051496
7190.0 0.00051249
7210.0 0.00053436
7230.0 0.00054275
7250.0 0.00055397
7270.0 0.00054018
7290.0 0.00055076
7310.0 0.00053857
7330.0 0.00053352
7350.0 0.00051713
7370.0 0.00051496
7390.0 0.0005259
7410.0 0.00050767
7430.0 0.0005183
7450.0 0.00050458
7470.0 0.00051179
7490.0 0.000491
7510.0 0.00046141
7530.0 0.00047622
7550.0 0.00044322
7570.0 0.00045358
7590.0 0.00043461
7610.0 0.00045973
7630.0 0.00045031
7650.0 0.00046676
7670.0 0.000436
7690.0 0.00043776
7710.0 0.00043275
7730.0 0.00046213
7750.0 0.00044023
7770.0 0.00046689
7790.0 0.00047608
7810.0 0.00047119
7830.0 0.0005032
7850.0 0.00047549
7870.0 0.00051441
7890.0 0.00049609
7910.0 0.00048945
7930.0 0.00047528
7950.0 0.00046892
7970.0 0.00047936
7990.0 0.00047379
8010.0 0.00045407
8030.0 0.00044991
8050.0 0.00044069
8070.0 0.00043335
8090.0 0.00040438
8110.0 0.0004064
8130.0 0.00042769
8150.0 0.00044176
8170.0 0.00044338
8190.0 0.00045541
8210.0 0.00044788
8230.0 0.0004357
8250.0 0.00043407
8270.0 0.00042571
8290.0 0.00041708
8310.0 0.00039696
8330.0 0.00039825
8350.0 0.00040209
8370.0 0.00040457
8390.0 0.00040587
8410.0 0.00040025
8430.0 0.00039696
8450.0 0.00039763
8470.0 0.00040912
8490.0 0.00041418
8510.0 0.00040052
8530.0 0.00038516
8550.0 0.00038516
8570.0 0.00037845
8590.0 0.00036924
8610.0 0.0003763
8630.0 0.00037382
8650.0 0.00036934
8670.0 0.00036662
8690.0 0.00036326
8710.0 0.0003467
8730.0 0.00034951
8750.0 0.00034007
8770.0 0.00034101
8790.0 0.0003343
8810.0 0.00032704
8830.0 0.00032882
8850.0 0.00032564
8870.0 0.00031049
8890.0 0.00030181
8910.0 0.00028951
8930.0 0.00027265
8950.0 0.00026838
8970.0 0.00025695
8990.0 0.00025351
9010.0 0.00024682
9030.0 0.00024439
9050.0 0.00024281
9070.0 0.00024125
9090.0 0.00023968
9110.0 0.00023807
9130.0 0.00023646
9150.0 0.00023488
9170.0 0.00023329
9190.0 0.00023169
9210.0 0.00023007
9230.0 0.00022845
9250.0 0.00022682
9270.0 0.00022519
9290.0 0.00022355
9310.0 0.00022192
9330.0 0.00022032
9350.0 0.00021871
9370.0 0.0002171
9390.0 0.0002155
9410.0 0.00021389
9430.0 0.00021228
9450.0 0.00021068
9470.0 0.00020923
9490.0 0.0002077
9510.0 0.00020603
9530.0 0.00020439
9550.0 0.00020278
9570.0 0.00020119
9590.0 0.00019961
9610.0 0.00019806
9630.0 0.00019653
9650.0 0.000195
9670.0 0.00019348
9690.0 0.00019197
9710.0 0.00019048
9730.0 0.00018898
9750.0 0.0001875
9770.0 0.00018605
9790.0 0.00018459
9810.0 0.00018314
9830.0 0.00018171
9850.0 0.00018014
9870.0 0.00017861
9890.0 0.00017733
9910.0 0.00017604
9930.0 0.00017446
9950.0 0.00017311
9970.0 0.00017188
9990.0 0.00017063
10010.0 0.00016938
10030.0 0.00016812
10050.0 0.00016684
10070.0 0.00016558
10090.0 0.00016434
10110.0 0.0001631
10130.0 0.00016186
10150.0 0.00016067
10170.0 0.00015948
10190.0 0.00015829
10210.0 0.00015714
10230.0 0.000156
10250.0 0.00015487
10270.0 0.00015375
10290.0 0.00015267
10310.0 0.00015158
10330.0 0.0001505
10350.0 0.00014945
10370.0 0.00014842
10390.0 0.00014739
10410.0 0.00014632
10430.0 0.00014527
10450.0 0.00014435
10470.0 0.00014341
10490.0 0.00014249
10510.0 0.00014158
10530.0 0.00014065
10550.0 0.00013974
10570.0 0.00013887
10590.0 0.00013799
10610.0 0.00013712
10630.0 0.00013629
10650.0 0.00013546
10670.0 0.00013463
10690.0 0.00013382
10710.0 0.00013304
10730.0 0.00013226
10750.0 0.00013147
10770.0 0.00013073
10790.0 0.00013
10810.0 0.00012926
10830.0 0.00012855
10850.0 0.00012786
10870.0 0.00012716
10890.0 0.00012647
10910.0 0.00012581
10930.0 0.00012517
10950.0 0.00012451
10970.0 0.00012388
10990.0 0.00012327
11010.0 0.00013559
11030.0 0.0001348
11050.0 0.00013397
11070.0 0.00013307
11090.0 0.00013209
11110.0 0.00013111
11130.0 0.00013012
11150.0 0.00012908
11170.0 0.00012803
11190.0 0.00012702
11210.0 0.00012598
11230.0 0.00012492
11250.0 0.0001239
11270.0 0.0001229
11290.0 0.0001219
11310.0 0.00012092
11330.0 0.00012003
11350.0 0.00011916
11370.0 0.00011832
11390.0 0.00011755
11410.0 0.00011683
11430.0 0.00011613
11450.0 0.00011547
11470.0 0.00011486
11490.0 0.00011427
11510.0 0.00011369
11530.0 0.00011314
11550.0 0.0001126
11570.0 0.00011205
11590.0 0.0001115
11610.0 0.00011097
11630.0 0.00011041
11650.0 0.00010982
11670.0 0.00010925
11690.0 0.00010868
11710.0 0.00010807
11730.0 0.00010746
11750.0 0.00010687
11770.0 0.00010624
11790.0 0.00010561
11810.0 0.000105
11830.0 0.00010439
11850.0 0.00010375
11870.0 0.00010315
11890.0 0.00010258
11910.0 0.00010202
11930.0 0.00010148
11950.0 0.000101
11970.0 0.00010055
11990.0 0.00010013
12010.0 9.9761e-05
12030.0 9.9455e-05
12050.0 9.9188e-05
12070.0 9.8968e-05
12090.0 9.8824e-05
12110.0 9.8726e-05
12130.0 9.8671e-05
12150.0 9.8668e-05
12170.0 9.871e-05
12190.0 9.878e-05
12210.0 9.8881e-05
12230.0 9.9004e-05
12250.0 9.9137e-05
12270.0 9.927e-05
12290.0 9.9397e-05
12310.0 9.9511e-05
12330.0 9.9596e-05
12350.0 9.9648e-05
12370.0 9.967e-05
12390.0 9.9646e-05
12410.0 9.9559e-05
12430.0 9.9436e-05
12450.0 9.9267e-05
12470.0 9.9031e-05
12490.0 9.8741e-05
12510.0 9.8423e-05
12530.0 9.804e-05
12550.0 9.7591e-05
12570.0 9.7117e-05
12590.0 9.661e-05
12610.0 9.6032e-05
12630.0 9.5418e-05
12650.0 9.4819e-05
12670.0 9.4173e-05
12690.0 9.3489e-05
12710.0 9.282e-05
12730.0 9.2154e-05
12750.0 9.1434e-05
12770.0 9.0738e-05
12790.0 9.0077e-05
12810.0 8.9408e-05
12830.0 8.8735e-05
12850.0 8.8124e-05
12870.0 8.7543e-05
12890.0 8.6965e-05
12910.0 8.6435e-05
12930.0 8.5967e-05
12950.0 8.5518e-05
12970.0 8.5109e-05
12990.0 8.4781e-05
13010.0 8.4505e-05
13030.0 8.4273e-05
13050.0 8.4105e-05
13070.0 8.4001e-05
13090.0 8.3937e-05
13110.0 8.3918e-05
13130.0 8.3945e-05
13150.0 8.4002e-05
13170.0 8.4078e-05
13190.0 8.4172e-05
13210.0 8.4272e-05
13230.0 8.4367e-05
13250.0 8.445e-05
13270.0 8.4518e-05
13290.0 8.4563e-05
13310.0 8.4575e-05
13330.0 8.4557e-05
13350.0 8.4507e-05
13370.0 8.4411e-05
13390.0 8.4266e-05
13410.0 8.4093e-05
13430.0 8.387e-05
13450.0 8.3588e-05
13470.0 8.3269e-05
13490.0 8.2917e-05
13510.0 8.249e-05
13530.0 8.2025e-05
13550.0 8.1544e-05
13570.0 8.102e-05
13590.0 8.0446e-05
13610.0 7.9864e-05
13630.0 7.9276e-05
13650.0 7.8636e-05
13670.0 7.7981e-05
13690.0 7.7332e-05
13710.0 7.6655e-05
13730.0 7.5926e-05
13750.0 7.5226e-05
13770.0 7.4521e-05
13790.0 7.378e-05
13810.0 7.3035e-05
13830.0 7.2317e-05
13850.0 7.1572e-05
13870.0 7.0811e-05
13890.0 7.0079e-05
13910.0 6.936e-05
13930.0 6.8621e-05
13950.0 6.7898e-05
13970.0 6.7226e-05
13990.0 6.6549e-05
14010.0 6.5879e-05
14030.0 6.5252e-05
14050.0 6.4648e-05
14070.0 6.4034e-05
14090.0 6.3457e-05
14110.0 6.2915e-05
14130.0 6.238e-05
14150.0 6.1852e-05
14170.0 6.1363e-05
14190.0 6.0887e-05
14210.0 6.0407e-05
14230.0 5.9945e-05
14250.0 5.9504e-05
14270.0 5.9055e-05
14290.0 5.8607e-05
14310.0 5.8185e-05
14330.0 5.7767e-05
14350.0 5.7346e-05
14370.0 5.694e-05
14390.0 5.6552e-05
14410.0 5.616e-05
14430.0 5.5776e-05
14450.0 5.5411e-05
14470.0 5.5051e-05
14490.0 5.4686e-05
14510.0 5.4336e-05
14530.0 5.3996e-05
14550.0 5.365e-05
14570.0 5.3303e-05
14590.0 5.2964e-05
14610.0 5.2619e-05
14630.0 5.2261e-05
14650.0 5.1907e-05
14670.0 5.1553e-05
14690.0 5.1186e-05
14710.0 5.081e-05
14730.0 5.0444e-05
14750.0 5.0067e-05
14770.0 4.9677e-05
14790.0 4.9288e-05
14810.0 4.8899e-05
14830.0 4.8486e-05
14850.0 4.8072e-05
14870.0 4.7661e-05
14890.0 4.7242e-05
14910.0 4.6815e-05
14930.0 4.6401e-05
14950.0 4.6e-05
14970.0 4.5603e-05
14990.0 4.5227e-05
15010.0 4.4879e-05
15030.0 4.455e-05
15050.0 4.4233e-05
15070.0 4.3943e-05
15090.0 4.3665e-05
15110.0 4.339e-05
15130.0 4.3121e-05
15150.0 4.2858e-05
15170.0 4.2592e-05
15190.0 4.2325e-05
15210.0 4.2061e-05
15230.0 4.1797e-05
15250.0 4.1529e-05
15270.0 4.1261e-05
15290.0 4.0998e-05
15310.0 4.0731e-05
15330.0 4.0463e-05
15350.0 4.0198e-05
15370.0 3.9933e-05
15390.0 3.9663e-05
15410.0 3.9396e-05
15430.0 3.9132e-05
15450.0 3.8865e-05
15470.0 3.8597e-05
15490.0 3.8333e-05
15510.0 3.807e-05
15530.0 3.7803e-05
15550.0 3.7539e-05
15570.0 3.7277e-05
15590.0 3.7012e-05
15610.0 3.6747e-05
15630.0 3.6487e-05
15650.0 3.6226e-05
15670.0 3.5964e-05
15690.0 3.5704e-05
15710.0 3.5448e-05
15730.0 3.5189e-05
15750.0 3.493e-05
15770.0 3.4675e-05
15790.0 3.4421e-05
15810.0 3.4163e-05
15830.0 3.391e-05
15850.0 3.366e-05
15870.0 3.3408e-05
15890.0 3.3156e-05
15910.0 3.291e-05
15930.0 3.2663e-05
15950.0 3.2414e-05
15970.0 3.2169e-05
15990.0 3.1927e-05
16010.0 3.1683e-05
16030.0 3.1439e-05
16050.0 3.1202e-05
16070.0 3.0964e-05
16090.0 3.0725e-05
16110.0 3.049e-05
16130.0 3.0259e-05
16150.0 3.0023e-05
16170.0 2.979e-05
16190.0 2.9562e-05
16210.0 2.9334e-05
16230.0 2.9106e-05
16250.0 2.8881e-05
16270.0 2.866e-05
16290.0 2.8436e-05
16310.0 2.8215e-05
16330.0 2.7998e-05
16350.0 2.7781e-05
16370.0 2.7562e-05
16390.0 2.7349e-05
16410.0 2.7138e-05
16430.0 2.6927e-05
16450.0 2.6717e-05
16470.0 2.6512e-05
16490.0 2.6306e-05
16510.0 2.61e-05
16530.0 2.5899e-05
16550.0 2.5699e-05
16570.0 2.5498e-05
16590.0 2.53e-05
16610.0 2.5107e-05
16630.0 2.4913e-05
16650.0 2.472e-05
16670.0 2.4531e-05
16690.0 2.4343e-05
16710.0 2.4153e-05
16730.0 2.3968e-05
16750.0 2.3786e-05
16770.0 2.3603e-05
16790.0 2.3421e-05
16810.0 2.3245e-05
16830.0 2.3069e-05
16850.0 2.2892e-05
16870.0 2.2719e-05
16890.0 2.2549e-05
16910.0 2.2378e-05
16930.0 2.2207e-05
16950.0 2.2042e-05
16970.0 2.1877e-05
16990.0 2.1713e-05
17010.0 2.1551e-05
17030.0 2.1393e-05
17050.0 2.1233e-05
17070.0 2.1075e-05
17090.0 2.0921e-05
17110.0 2.0768e-05
17130.0 2.0613e-05
17150.0 2.0463e-05
17170.0 2.0316e-05
17190.0 2.0168e-05
17210.0 2.0021e-05
17230.0 1.9879e-05
17250.0 1.9736e-05
17270.0 1.9593e-05
17290.0 1.9454e-05
17310.0 1.9317e-05
17330.0 1.9179e-05
17350.0 1.9043e-05
17370.0 1.8911e-05
17390.0 1.8779e-05
17410.0 1.8647e-05
17430.0 1.8519e-05
17450.0 1.8393e-05
17470.0 1.8264e-05
17490.0 1.8138e-05
17510.0 1.8016e-05
17530.0 1.7894e-05
17550.0 1.7772e-05
17570.0 1.7653e-05
17590.0 1.7537e-05
17610.0 1.7418e-05
17630.0 1.7303e-05
17650.0 1.719e-05
17670.0 1.7077e-05
17690.0 1.6963e-05
17710.0 1.6854e-05
17730.0 1.6746e-05
17750.0 1.6638e-05
17770.0 1.6531e-05
17790.0 1.6428e-05
17810.0 1.6323e-05
17830.0 1.6219e-05
17850.0 1.6118e-05
17870.0 1.6019e-05
17890.0 1.5918e-05
17910.0 1.5819e-05
17930.0 1.5725e-05
17950.0 1.5629e-05
17970.0 1.5533e-05
17990.0 1.5441e-05
18010.0 1.5349e-05
18030.0 1.5256e-05
18050.0 1.5166e-05
18070.0 1.5078e-05
18090.0 1.4989e-05
18110.0 1.4901e-05
18130.0 1.4816e-05
18150.0 1.4732e-05
18170.0 1.4647e-05
18190.0 1.4564e-05
18210.0 1.4484e-05
18230.0 1.4402e-05
18250.0 1.432e-05
18270.0 1.4242e-05
18290.0 1.4164e-05
18310.0 1.4086e-05
18330.0 1.401e-05
18350.0 1.3936e-05
18370.0 1.3861e-05
18390.0 1.3786e-05
18410.0 1.3715e-05
18430.0 1.3643e-05
18450.0 1.357e-05
18470.0 1.35e-05
18490.0 1.3432e-05
18510.0 1.3363e-05
18530.0 1.3295e-05
18550.0 1.3229e-05
18570.0 1.3163e-05
18590.0 1.3096e-05
18610.0 1.3032e-05
18630.0 1.2969e-05
18650.0 1.2905e-05
18670.0 1.2841e-05
18690.0 1.2781e-05
18710.0 1.272e-05
18730.0 1.2659e-05
18750.0 1.26e-05
18770.0 1.2542e-05
18790.0 1.2482e-05
18810.0 1.2424e-05
18830.0 1.2368e-05
18850.0 1.2312e-05
18870.0 1.2255e-05
18890.0 1.2201e-05
18910.0 1.2147e-05
18930.0 1.2092e-05
18950.0 1.2039e-05
18970.0 1.1987e-05
18990.0 1.1935e-05
19010.0 1.1881e-05
19030.0 1.1831e-05
19050.0 1.1782e-05
19070.0 1.1731e-05
19090.0 1.1681e-05
19110.0 1.1634e-05
19130.0 1.1585e-05
19150.0 1.1536e-05
19170.0 1.1489e-05
19190.0 1.1443e-05
19210.0 1.1395e-05
19230.0 1.1349e-05
19250.0 1.1305e-05
19270.0 1.1259e-05
19290.0 1.1214e-05
19310.0 1.1171e-05
19330.0 1.1128e-05
19350.0 1.1082e-05
19370.0 1.1039e-05
19390.0 1.0998e-05
19410.0 1.0955e-05
19430.0 1.0912e-05
19450.0 1.0872e-05
19470.0 1.0831e-05
19490.0 1.0789e-05
19510.0 1.0749e-05
19530.0 1.071e-05
19550.0 1.0669e-05
19570.0 1.0628e-05
19590.0 1.059e-05
19610.0 1.0552e-05
19630.0 1.0512e-05
19650.0 1.0474e-05
19670.0 1.0437e-05
19690.0 1.0398e-05
19710.0 1.036e-05
19730.0 1.0324e-05
19750.0 1.0287e-05
19770.0 1.0248e-05
19790.0 1.0212e-05
19810.0 1.0177e-05
19830.0 1.014e-05
19850.0 1.0104e-05
19870.0 1.007e-05
19890.0 1.0035e-05
19910.0 1e-05
19930.0 9.9692e-06
19950.0 9.9411e-06
19970.0 9.9151e-06
19990.0 9.8942e-06
20010.0 9.8809e-06
20030.0 9.8722e-06
20050.0 9.8691e-06
20070.0 9.8725e-06
20090.0 9.8807e-06
20110.0 9.892e-06
20130.0 9.9071e-06
20150.0 9.9251e-06
20170.0 9.9447e-06
20190.0 9.9658e-06
20210.0 9.9884e-06
20230.0 1.0012e-05
20250.0 1.0036e-05
20270.0 1.006e-05
20290.0 1.0085e-05
20310.0 1.011e-05
20330.0 1.0134e-05
20350.0 1.0159e-05
20370.0 1.0183e-05
20390.0 1.0206e-05
20410.0 1.0228e-05
20430.0 1.0251e-05
20450.0 1.0273e-05
20470.0 1.0294e-05
20490.0 1.0315e-05
20510.0 1.0337e-05
20530.0 1.0358e-05
20550.0 1.038e-05
20570.0 1.0403e-05
20590.0 1.0426e-05
20610.0 1.045e-05
20630.0 1.0475e-05
20650.0 1.0501e-05
20670.0 1.0528e-05
20690.0 1.0555e-05
20710.0 1.0583e-05
20730.0 1.061e-05
20750.0 1.0638e-05
20770.0 1.0665e-05
20790.0 1.0692e-05
20810.0 1.0717e-05
20830.0 1.0741e-05
20850.0 1.0764e-05
20870.0 1.0784e-05
20890.0 1.0802e-05
20910.0 1.082e-05
20930.0 1.0835e-05
20950.0 1.0847e-05
20970.0 1.0859e-05
20990.0 1.0869e-05
21010.0 1.0877e-05
21030.0 1.0884e-05
21050.0 1.0892e-05
21070.0 1.0898e-05
21090.0 1.0903e-05
21110.0 1.0909e-05
21130.0 1.0916e-05
21150.0 1.0922e-05
21170.0 1.0928e-05
21190.0 1.0936e-05
21210.0 1.0942e-05
21230.0 1.0947e-05
21250.0 1.0953e-05
21270.0 1.0959e-05
21290.0 1.0962e-05
21310.0 1.0965e-05
21330.0 1.0969e-05
21350.0 1.0969e-05
21370.0 1.0968e-05
21390.0 1.0966e-05
21410.0 1.0963e-05
21430.0 1.0955e-05
21450.0 1.0947e-05
21470.0 1.0939e-05
21490.0 1.0928e-05
21510.0 1.0914e-05
21530.0 1.0901e-05
21550.0 1.0887e-05
21570.0 1.0868e-05
21590.0 1.085e-05
21610.0 1.0832e-05
21630.0 1.0811e-05
21650.0 1.0788e-05
21670.0 1.0768e-05
21690.0 1.0746e-05
21710.0 1.0721e-05
21730.0 1.0697e-05
21750.0 1.0675e-05
21770.0 1.0648e-05
21790.0 1.062e-05
21810.0 1.0595e-05
21830.0 1.0568e-05
21850.0 1.0537e-05
21870.0 1.0508e-05
21890.0 1.0481e-05
21910.0 1.045e-05
21930.0 1.0419e-05
21950.0 1.039e-05
21970.0 1.0361e-05
21990.0 1.0327e-05
22010.0 1.0299e-05
22030.0 1.0272e-05
22050.0 1.0243e-05
22070.0 1.0217e-05
22090.0 1.0195e-05
22110.0 1.0173e-05
22130.0 1.0152e-05
22150.0 1.0135e-05
22170.0 1.0122e-05
22190.0 1.0108e-05
22210.0 1.0097e-05
22230.0 1.0092e-05
22250.0 1.0087e-05
22270.0 1.0083e-05
22290.0 1.0083e-05
22310.0 1.0085e-05
22330.0 1.0087e-05
22350.0 1.009e-05
22370.0 1.0096e-05
22390.0 1.0102e-05
22410.0 1.0107e-05
22430.0 1.0114e-05
22450.0 1.0122e-05
22470.0 1.0129e-05
22490.0 1.0136e-05
22510.0 1.0145e-05
22530.0 1.0153e-05
22550.0 1.016e-05
22570.0 1.0169e-05
22590.0 1.0178e-05
22610.0 1.0186e-05
22630.0 1.0195e-05
22650.0 1.0206e-05
22670.0 1.0217e-05
22690.0 1.0228e-05
22710.0 1.0241e-05
22730.0 1.0255e-05
22750.0 1.0267e-05
22770.0 1.0283e-05
22790.0 1.0301e-05
22810.0 1.0319e-05
