#lamb flux
1010.0 3.1394e-05
1030.0 4.2405e-05
1050.0 5.7242e-05
1070.0 7.676e-05
1090.0 0.00010232
1110.0 0.0001335
1130.0 0.00017041
1150.0 0.00021415
1170.0 0.0002648
1190.0 0.00031974
1210.0 0.00037991
1230.0 0.00044506
1250.0 0.00051199
1270.0 0.00057837
1290.0 0.00064539
1310.0 0.00070878
1330.0 0.00076445
1350.0 0.0008125
1370.0 0.00085203
1390.0 0.00087913
1410.0 0.00089284
1430.0 0.00089585
1450.0 0.00088648
1470.0 0.00086432
1490.0 0.00083228
1510.0 0.00079308
1530.0 0.00074499
1550.0 0.00069125
1570.0 0.00063449
1590.0 0.00057568
1610.0 0.00051564
1630.0 0.00045699
1650.0 0.00040044
1670.0 0.00034604
1690.0 0.00029478
1710.0 0.00024741
1730.0 0.00020377
1750.0 0.00016373
1770.0 0.00012775
1790.0 9.5622e-05
1810.0 6.7092e-05
1830.0 4.2103e-05
1850.0 2.4821e-05
1870.0 1.4126e-05
1890.0 5.2189e-06
1910.0 1e-99
1930.0 1e-99
1950.0 1e-99
1970.0 1e-99
1990.0 1e-99
2010.0 1e-99
2030.0 1e-99
2050.0 1e-99
2070.0 1e-99
2090.0 1e-99
2110.0 3.3408e-06
2130.0 1.0319e-05
2150.0 1.8242e-05
2170.0 2.7026e-05
2190.0 3.6628e-05
2210.0 5.0105e-05
2230.0 6.8179e-05
2250.0 8.7212e-05
2270.0 0.00010715
2290.0 0.00012774
2310.0 0.0001488
2330.0 0.00017031
2350.0 0.00019209
2370.0 0.00021383
2390.0 0.00023549
2410.0 0.00025701
2430.0 0.00027793
2450.0 0.00029805
2470.0 0.0003173
2490.0 0.00033543
2510.0 0.00035219
2530.0 0.00036805
2550.0 0.00038388
2570.0 0.00040094
2590.0 0.00042105
2610.0 0.00044855
2630.0 0.00048694
2650.0 0.00053783
2670.0 0.00060608
2690.0 0.00069641
2710.0 0.00080327
2730.0 0.0009219
2750.0 0.001056
2770.0 0.0011907
2790.0 0.0013115
2810.0 0.0014177
2830.0 0.0015082
2850.0 0.0015665
2870.0 0.0016017
2890.0 0.0016214
2910.0 0.0016254
2930.0 0.0016143
2950.0 0.0015972
2970.0 0.0015747
2990.0 0.0015441
3010.0 0.0015087
3030.0 0.0014726
3050.0 0.0014345
3070.0 0.0013914
3090.0 0.0013497
3110.0 0.0013096
3130.0 0.0012703
3150.0 0.0011522
3170.0 0.0010564
3190.0 0.00095532
3210.0 0.00086257
3230.0 0.00081417
3250.0 0.00095331
3270.0 0.0013588
3290.0 0.001552
3310.0 0.0010442
3330.0 0.00098518
3350.0 0.0010285
3370.0 0.0010868
3390.0 0.0011397
3410.0 0.0011556
3430.0 0.0011421
3450.0 0.0011204
3470.0 0.0011138
3490.0 0.001054
3510.0 0.00076789
3530.0 0.00031789
3550.0 0.00021826
3570.0 0.0008981
3590.0 0.0019289
3610.0 0.0024641
3630.0 0.0038397
3650.0 0.0040898
3670.0 0.003266
3690.0 0.0022434
3710.0 0.001642
3730.0 0.0016964
3750.0 0.0018001
3770.0 0.0018645
3790.0 0.0019201
3810.0 0.0023736
3830.0 0.0021467
3850.0 0.0016114
3870.0 0.0013089
3890.0 0.0017258
3910.0 0.0020353
3930.0 0.0020539
3950.0 0.0022666
3970.0 0.0025059
3990.0 0.0023974
4010.0 0.0026104
4030.0 0.0024879
4050.0 0.0023242
4070.0 0.002192
4090.0 0.0022321
4110.0 0.0023601
4130.0 0.0023221
4150.0 0.0021741
4170.0 0.002087
4190.0 0.0021489
4210.0 0.0019108
4230.0 0.0017107
4250.0 0.0014341
4270.0 0.001127
4290.0 0.0011279
4310.0 0.0010861
4330.0 0.0010808
4350.0 0.0014335
4370.0 0.001453
4390.0 0.001725
4410.0 0.0019003
4430.0 0.0020652
4450.0 0.0017969
4470.0 0.0014585
4490.0 0.0013766
4510.0 0.0012605
4530.0 0.0011823
4550.0 0.0010924
4570.0 0.001068
4590.0 0.0010885
4610.0 0.00092738
4630.0 0.0008277
4650.0 0.0006974
4670.0 0.00068316
4690.0 0.00054412
4710.0 0.00045734
4730.0 0.00032074
4750.0 0.00025038
4770.0 9.1303e-05
4790.0 0.00010114
4810.0 8.9266e-05
4830.0 1e-99
4850.0 1e-99
4870.0 1e-99
4890.0 1e-99
4910.0 6.5108e-05
4930.0 9.9515e-05
4950.0 1e-99
4970.0 1e-99
4990.0 1e-99
5010.0 1e-99
5030.0 1e-99
5050.0 1e-99
5070.0 1e-99
5090.0 1e-99
5110.0 1e-99
5130.0 1e-99
5150.0 1.6213e-05
5170.0 1e-99
5190.0 1e-99
5210.0 1e-99
5230.0 1e-99
5250.0 1e-99
5270.0 0.00016438
5290.0 0.00015001
5310.0 4.9451e-05
5330.0 6.6698e-05
5350.0 1e-99
5370.0 3.8972e-06
5390.0 5.0624e-05
5410.0 3.1918e-05
5430.0 0.00011359
5450.0 2.0504e-05
5470.0 1.7975e-05
5490.0 0.00029751
5510.0 0.00029292
5530.0 0.00030588
5550.0 0.00026474
5570.0 0.00035863
5590.0 0.00048115
5610.0 0.00049146
5630.0 0.00044645
5650.0 0.00046303
5670.0 0.00046048
5690.0 0.00050385
5710.0 0.00041787
5730.0 0.00047203
5750.0 0.00047587
5770.0 0.00043927
5790.0 0.00055249
5810.0 0.00062122
5830.0 0.00057568
5850.0 0.000436
5870.0 0.00036177
5890.0 0.00036041
5910.0 0.0004669
5930.0 0.00043608
5950.0 0.00048296
5970.0 0.00049446
5990.0 0.00055101
6010.0 0.00052322
6030.0 0.00054726
6050.0 0.0005373
6070.0 0.00045724
6090.0 0.00051483
6110.0 0.00054481
6130.0 0.00049938
6150.0 0.00050722
6170.0 0.00052827
6190.0 0.0003814
6210.0 0.00039866
6230.0 0.00044503
6250.0 0.0004402
6270.0 0.00043736
6290.0 0.00049641
6310.0 0.00057165
6330.0 0.00058325
6350.0 0.00056244
6370.0 0.00058732
6390.0 0.00050557
6410.0 0.00053231
6430.0 0.00049012
6450.0 0.0005097
6470.0 0.00053089
6490.0 0.00054475
6510.0 0.00047003
6530.0 0.00048356
6550.0 0.00047652
6570.0 0.00043213
6590.0 0.00047712
6610.0 0.00048152
6630.0 0.00048268
6650.0 0.00043775
6670.0 0.00041171
6690.0 0.00039398
6710.0 0.0003693
6730.0 0.000351
6750.0 0.00035264
6770.0 0.00031123
6790.0 0.00012396
6810.0 0.00018578
6830.0 0.00029914
6850.0 0.0002481
6870.0 0.00024455
6890.0 0.0002362
6910.0 0.00023108
6930.0 0.00021192
6950.0 0.00024027
6970.0 0.00022954
6990.0 0.00022544
7010.0 0.00021993
7030.0 0.00024625
7050.0 0.00024285
7070.0 0.00016148
7090.0 8.9719e-05
7110.0 7.4757e-05
7130.0 9.2753e-05
7150.0 0.0001058
7170.0 0.00010171
7190.0 6.6051e-05
7210.0 0.00012318
7230.0 0.00018312
7250.0 0.00017469
7270.0 0.00018176
7290.0 0.00020892
7310.0 0.00015574
7330.0 0.00013978
7350.0 0.00012383
7370.0 0.00016881
7390.0 0.00022642
7410.0 0.00013431
7430.0 0.00014688
7450.0 0.00013991
7470.0 0.00019384
7490.0 0.00020546
7510.0 0.00015825
7530.0 0.00019023
7550.0 4.3712e-05
7570.0 2.39e-05
7590.0 9.2059e-05
7610.0 0.00016814
7630.0 0.00011915
7650.0 0.00016334
7670.0 5.5796e-05
7690.0 3.6833e-07
7710.0 2.5376e-05
7730.0 9.1841e-05
7750.0 2.4852e-05
7770.0 0.00011656
7790.0 0.00015951
7810.0 9.3465e-05
7830.0 0.00014899
7850.0 5.8216e-05
7870.0 0.00013103
7890.0 8.1631e-05
7910.0 8.3484e-05
7930.0 3.2161e-05
7950.0 1e-99
7970.0 2.206e-05
7990.0 6.8209e-05
8010.0 0.00046027
8030.0 0.00044392
8050.0 0.00043641
8070.0 0.00042544
8090.0 0.00039939
8110.0 0.00038615
8130.0 0.00042395
8150.0 0.00045383
8170.0 0.00047155
8190.0 0.00049795
8210.0 0.00047266
8230.0 0.0004724
8250.0 0.00046703
8270.0 0.00047542
8290.0 0.00047319
8310.0 0.00044732
8330.0 0.00042573
8350.0 0.00044158
8370.0 0.00045176
8390.0 0.00043829
8410.0 0.00043341
8430.0 0.00041689
8450.0 0.00040072
8470.0 0.00043564
8490.0 0.00043743
8510.0 0.00040627
8530.0 0.00041193
8550.0 0.00040739
8570.0 0.00037181
8590.0 0.00037967
8610.0 0.00037796
8630.0 0.0003989
8650.0 0.0004015
8670.0 0.00040733
8690.0 0.00039762
8710.0 0.00039226
8730.0 0.000373
8750.0 0.00036257
8770.0 0.00035861
8790.0 0.00038376
8810.0 0.00035418
8830.0 0.00034578
8850.0 0.00036988
8870.0 0.00034972
8890.0 0.00031845
8910.0 0.00031539
8930.0 0.00032779
8950.0 0.00029641
8970.0 0.00028309
8990.0 0.00027621
9010.0 0.00025801
9030.0 0.00025387
9050.0 0.00025276
9070.0 0.00025182
9090.0 0.00025086
9110.0 0.0002499
9130.0 0.00024892
9150.0 0.00024793
9170.0 0.00024693
9190.0 0.00024592
9210.0 0.0002449
9230.0 0.00024388
9250.0 0.00024285
9270.0 0.00024181
9290.0 0.00024076
9310.0 0.00023991
9330.0 0.00023937
9350.0 0.00023882
9370.0 0.00023825
9390.0 0.00023767
9410.0 0.00023708
9430.0 0.00023649
9450.0 0.00023587
9470.0 0.00023537
9490.0 0.0002348
9510.0 0.00023409
9530.0 0.00023338
9550.0 0.0002327
9570.0 0.00023202
9590.0 0.00023133
9610.0 0.00023097
9630.0 0.00023065
9650.0 0.0002303
9670.0 0.00022991
9690.0 0.00022954
9710.0 0.00022916
9730.0 0.00022874
9750.0 0.00022831
9770.0 0.00022791
9790.0 0.00022747
9810.0 0.000227
9830.0 0.00022655
9850.0 0.00022594
9870.0 0.00022518
9890.0 0.00022486
9910.0 0.00022446
9930.0 0.00022391
9950.0 0.00022341
9970.0 0.00022293
9990.0 0.00022243
10010.0 0.00022189
10030.0 0.00022135
10050.0 0.00022079
10070.0 0.00022021
10090.0 0.00021963
10110.0 0.00021905
10130.0 0.00021846
10150.0 0.00021786
10170.0 0.00021725
10190.0 0.00021664
10210.0 0.00021603
10230.0 0.00021541
10250.0 0.00021479
10270.0 0.00021416
10290.0 0.00021353
10310.0 0.00021289
10330.0 0.00021226
10350.0 0.00021161
10370.0 0.00021097
10390.0 0.00021031
10410.0 0.00020951
10430.0 0.00020865
10450.0 0.00020817
10470.0 0.00020759
10490.0 0.000207
10510.0 0.00020638
10530.0 0.00020573
10550.0 0.00020508
10570.0 0.00020444
10590.0 0.00020379
10610.0 0.00020312
10630.0 0.00020248
10650.0 0.00020183
10670.0 0.00020116
10690.0 0.00020051
10710.0 0.00019987
10730.0 0.00019921
10750.0 0.00019855
10770.0 0.00019791
10790.0 0.00019728
10810.0 0.00019663
10830.0 0.00019598
10850.0 0.00019536
10870.0 0.0001947
10890.0 0.00019404
10910.0 0.00019339
10930.0 0.0001927
10950.0 0.00019196
10970.0 0.00019117
10990.0 0.00019034
11010.0 0.00017231
11030.0 0.0001713
11050.0 0.00017001
11070.0 0.00016849
11090.0 0.00016674
11110.0 0.00016488
11130.0 0.00016295
11150.0 0.00016092
11170.0 0.00015886
11190.0 0.00015681
11210.0 0.00015472
11230.0 0.00015259
11250.0 0.0001505
11270.0 0.00014843
11290.0 0.00014634
11310.0 0.00014428
11330.0 0.00014231
11350.0 0.00014036
11370.0 0.00013844
11390.0 0.0001366
11410.0 0.00013483
11430.0 0.00013307
11450.0 0.00013137
11470.0 0.00012974
11490.0 0.00012813
11510.0 0.00012654
11530.0 0.000125
11550.0 0.00012348
11570.0 0.00012195
11590.0 0.00012044
11610.0 0.00011894
11630.0 0.00011743
11650.0 0.00011589
11670.0 0.00011438
11690.0 0.00011286
11710.0 0.0001113
11730.0 0.00010975
11750.0 0.0001082
11770.0 0.00010663
11790.0 0.00010504
11810.0 0.00010346
11830.0 0.00010189
11850.0 0.00010029
11870.0 9.8728e-05
11890.0 9.7204e-05
11910.0 9.5687e-05
11930.0 9.4198e-05
11950.0 9.2776e-05
11970.0 9.1395e-05
11990.0 9.0048e-05
12010.0 8.8775e-05
12030.0 8.7576e-05
12050.0 8.6432e-05
12070.0 8.5354e-05
12090.0 8.4364e-05
12110.0 8.3439e-05
12130.0 8.258e-05
12150.0 8.179e-05
12170.0 8.106e-05
12190.0 8.0389e-05
12210.0 7.977e-05
12230.0 7.9188e-05
12250.0 7.8641e-05
12270.0 7.8126e-05
12290.0 7.7622e-05
12310.0 7.712e-05
12330.0 7.6627e-05
12350.0 7.6125e-05
12370.0 7.5604e-05
12390.0 7.5065e-05
12410.0 7.4503e-05
12430.0 7.3907e-05
12450.0 7.3279e-05
12470.0 7.2613e-05
12490.0 7.1907e-05
12510.0 7.1169e-05
12530.0 7.0388e-05
12550.0 6.9558e-05
12570.0 6.8698e-05
12590.0 6.7807e-05
12610.0 6.6861e-05
12630.0 6.588e-05
12650.0 6.4897e-05
12670.0 6.3875e-05
12690.0 6.2818e-05
12710.0 6.1764e-05
12730.0 6.0707e-05
12750.0 5.9603e-05
12770.0 5.8511e-05
12790.0 5.7443e-05
12810.0 5.6365e-05
12830.0 5.5279e-05
12850.0 5.4243e-05
12870.0 5.3232e-05
12890.0 5.2221e-05
12910.0 5.1251e-05
12930.0 5.034e-05
12950.0 4.9447e-05
12970.0 4.8594e-05
12990.0 4.7823e-05
13010.0 4.711e-05
13030.0 4.6447e-05
13050.0 4.5859e-05
13070.0 4.5351e-05
13090.0 4.49e-05
13110.0 4.4517e-05
13130.0 4.4207e-05
13150.0 4.3957e-05
13170.0 4.3764e-05
13190.0 4.3628e-05
13210.0 4.3538e-05
13230.0 4.3492e-05
13250.0 4.3486e-05
13270.0 4.3508e-05
13290.0 4.3557e-05
13310.0 4.3636e-05
13330.0 4.3724e-05
13350.0 4.3819e-05
13370.0 4.3921e-05
13390.0 4.402e-05
13410.0 4.41e-05
13430.0 4.4166e-05
13450.0 4.4212e-05
13470.0 4.4231e-05
13490.0 4.4225e-05
13510.0 4.419e-05
13530.0 4.4127e-05
13550.0 4.4044e-05
13570.0 4.3938e-05
13590.0 4.3811e-05
13610.0 4.3672e-05
13630.0 4.3526e-05
13650.0 4.3359e-05
13670.0 4.3181e-05
13690.0 4.2998e-05
13710.0 4.2798e-05
13730.0 4.2567e-05
13750.0 4.2333e-05
13770.0 4.2083e-05
13790.0 4.18e-05
13810.0 4.1495e-05
13830.0 4.1187e-05
13850.0 4.0846e-05
13870.0 4.0477e-05
13890.0 4.011e-05
13910.0 3.9737e-05
13930.0 3.9338e-05
13950.0 3.894e-05
13970.0 3.8574e-05
13990.0 3.8202e-05
14010.0 3.7834e-05
14030.0 3.7501e-05
14050.0 3.719e-05
14070.0 3.6877e-05
14090.0 3.66e-05
14110.0 3.6358e-05
14130.0 3.613e-05
14150.0 3.5916e-05
14170.0 3.574e-05
14190.0 3.5583e-05
14210.0 3.5431e-05
14230.0 3.5299e-05
14250.0 3.519e-05
14270.0 3.5081e-05
14290.0 3.4979e-05
14310.0 3.4902e-05
14330.0 3.4834e-05
14350.0 3.4769e-05
14370.0 3.4721e-05
14390.0 3.4694e-05
14410.0 3.467e-05
14430.0 3.4658e-05
14450.0 3.4667e-05
14470.0 3.4687e-05
14490.0 3.471e-05
14510.0 3.475e-05
14530.0 3.4803e-05
14550.0 3.4857e-05
14570.0 3.4915e-05
14590.0 3.4983e-05
14610.0 3.5049e-05
14630.0 3.5109e-05
14650.0 3.5174e-05
14670.0 3.524e-05
14690.0 3.5298e-05
14710.0 3.535e-05
14730.0 3.5408e-05
14750.0 3.5459e-05
14770.0 3.5498e-05
14790.0 3.5536e-05
14810.0 3.5572e-05
14830.0 3.5587e-05
14850.0 3.5596e-05
14870.0 3.5604e-05
14890.0 3.5603e-05
14910.0 3.559e-05
14930.0 3.5584e-05
14950.0 3.5587e-05
14970.0 3.559e-05
14990.0 3.5608e-05
15010.0 3.565e-05
15030.0 3.5705e-05
15050.0 3.5771e-05
15070.0 3.5858e-05
15090.0 3.5954e-05
15110.0 3.6053e-05
15130.0 3.6155e-05
15150.0 3.6261e-05
15170.0 3.6362e-05
15190.0 3.646e-05
15210.0 3.6559e-05
15230.0 3.6656e-05
15250.0 3.6746e-05
15270.0 3.6833e-05
15290.0 3.6923e-05
15310.0 3.7007e-05
15330.0 3.7086e-05
15350.0 3.7165e-05
15370.0 3.7241e-05
15390.0 3.7308e-05
15410.0 3.7375e-05
15430.0 3.7442e-05
15450.0 3.7502e-05
15470.0 3.7556e-05
15490.0 3.7612e-05
15510.0 3.7664e-05
15530.0 3.7708e-05
15550.0 3.7751e-05
15570.0 3.7793e-05
15590.0 3.7826e-05
15610.0 3.7855e-05
15630.0 3.7884e-05
15650.0 3.7909e-05
15670.0 3.7927e-05
15690.0 3.7943e-05
15710.0 3.7958e-05
15730.0 3.7965e-05
15750.0 3.7968e-05
15770.0 3.797e-05
15790.0 3.7967e-05
15810.0 3.7956e-05
15830.0 3.7945e-05
15850.0 3.7932e-05
15870.0 3.7912e-05
15890.0 3.7887e-05
15910.0 3.7863e-05
15930.0 3.7832e-05
15950.0 3.7794e-05
15970.0 3.7756e-05
15990.0 3.7715e-05
16010.0 3.7667e-05
16030.0 3.7614e-05
16050.0 3.7563e-05
16070.0 3.7506e-05
16090.0 3.7443e-05
16110.0 3.7379e-05
16130.0 3.7313e-05
16150.0 3.7237e-05
16170.0 3.7159e-05
16190.0 3.7082e-05
16210.0 3.7e-05
16230.0 3.691e-05
16250.0 3.6822e-05
16270.0 3.6732e-05
16290.0 3.6633e-05
16310.0 3.6532e-05
16330.0 3.6432e-05
16350.0 3.6326e-05
16370.0 3.6212e-05
16390.0 3.6102e-05
16410.0 3.5988e-05
16430.0 3.5868e-05
16450.0 3.5747e-05
16470.0 3.5626e-05
16490.0 3.5498e-05
16510.0 3.5367e-05
16530.0 3.5236e-05
16550.0 3.5102e-05
16570.0 3.4962e-05
16590.0 3.4821e-05
16610.0 3.4682e-05
16630.0 3.4537e-05
16650.0 3.4388e-05
16670.0 3.4241e-05
16690.0 3.4092e-05
16710.0 3.3934e-05
16730.0 3.3778e-05
16750.0 3.3623e-05
16770.0 3.3462e-05
16790.0 3.3298e-05
16810.0 3.3137e-05
16830.0 3.2974e-05
16850.0 3.2805e-05
16870.0 3.2636e-05
16890.0 3.2469e-05
16910.0 3.2295e-05
16930.0 3.2119e-05
16950.0 3.1947e-05
16970.0 3.1771e-05
16990.0 3.1592e-05
17010.0 3.1414e-05
17030.0 3.1237e-05
17050.0 3.1054e-05
17070.0 3.0871e-05
17090.0 3.069e-05
17110.0 3.0506e-05
17130.0 3.0317e-05
17150.0 3.0132e-05
17170.0 2.9948e-05
17190.0 2.9759e-05
17210.0 2.957e-05
17230.0 2.9384e-05
17250.0 2.9195e-05
17270.0 2.9001e-05
17290.0 2.8811e-05
17310.0 2.8622e-05
17330.0 2.8429e-05
17350.0 2.8235e-05
17370.0 2.8046e-05
17390.0 2.7854e-05
17410.0 2.7659e-05
17430.0 2.7467e-05
17450.0 2.7277e-05
17470.0 2.708e-05
17490.0 2.6885e-05
17510.0 2.6694e-05
17530.0 2.6501e-05
17550.0 2.6305e-05
17570.0 2.6113e-05
17590.0 2.5922e-05
17610.0 2.5727e-05
17630.0 2.5534e-05
17650.0 2.5344e-05
17670.0 2.5151e-05
17690.0 2.4955e-05
17710.0 2.4766e-05
17730.0 2.4576e-05
17750.0 2.4383e-05
17770.0 2.4193e-05
17790.0 2.4006e-05
17810.0 2.3815e-05
17830.0 2.3624e-05
17850.0 2.3437e-05
17870.0 2.325e-05
17890.0 2.306e-05
17910.0 2.2873e-05
17930.0 2.2689e-05
17950.0 2.2504e-05
17970.0 2.2318e-05
17990.0 2.2135e-05
18010.0 2.1954e-05
18030.0 2.1768e-05
18050.0 2.1586e-05
18070.0 2.1407e-05
18090.0 2.1227e-05
18110.0 2.1046e-05
18130.0 2.0869e-05
18150.0 2.0693e-05
18170.0 2.0515e-05
18190.0 2.034e-05
18210.0 2.0167e-05
18230.0 1.9992e-05
18250.0 1.9817e-05
18270.0 1.9647e-05
18290.0 1.9477e-05
18310.0 1.9306e-05
18330.0 1.9138e-05
18350.0 1.8972e-05
18370.0 1.8804e-05
18390.0 1.8638e-05
18410.0 1.8475e-05
18430.0 1.8312e-05
18450.0 1.8147e-05
18470.0 1.7986e-05
18490.0 1.7828e-05
18510.0 1.7668e-05
18530.0 1.751e-05
18550.0 1.7356e-05
18570.0 1.72e-05
18590.0 1.7043e-05
18610.0 1.6891e-05
18630.0 1.674e-05
18650.0 1.6588e-05
18670.0 1.6437e-05
18690.0 1.6291e-05
18710.0 1.6143e-05
18730.0 1.5996e-05
18750.0 1.5852e-05
18770.0 1.571e-05
18790.0 1.5564e-05
18810.0 1.5422e-05
18830.0 1.5284e-05
18850.0 1.5145e-05
18870.0 1.5005e-05
18890.0 1.487e-05
18910.0 1.4736e-05
18930.0 1.46e-05
18950.0 1.4466e-05
18970.0 1.4336e-05
18990.0 1.4205e-05
19010.0 1.4072e-05
19030.0 1.3945e-05
19050.0 1.3819e-05
19070.0 1.3692e-05
19090.0 1.3567e-05
19110.0 1.3445e-05
19130.0 1.3321e-05
19150.0 1.3198e-05
19170.0 1.3079e-05
19190.0 1.296e-05
19210.0 1.284e-05
19230.0 1.2723e-05
19250.0 1.2609e-05
19270.0 1.2493e-05
19290.0 1.2379e-05
19310.0 1.2267e-05
19330.0 1.2157e-05
19350.0 1.2044e-05
19370.0 1.1934e-05
19390.0 1.1827e-05
19410.0 1.1719e-05
19430.0 1.1611e-05
19450.0 1.1507e-05
19470.0 1.1404e-05
19490.0 1.1299e-05
19510.0 1.1197e-05
19530.0 1.1097e-05
19550.0 1.0995e-05
19570.0 1.0893e-05
19590.0 1.0796e-05
19610.0 1.0699e-05
19630.0 1.0601e-05
19650.0 1.0505e-05
19670.0 1.0412e-05
19690.0 1.0316e-05
19710.0 1.0222e-05
19730.0 1.0131e-05
19750.0 1.0039e-05
19770.0 9.9457e-06
19790.0 9.8561e-06
19810.0 9.768e-06
19830.0 9.6785e-06
19850.0 9.5902e-06
19870.0 9.5049e-06
19890.0 9.4187e-06
19910.0 9.3323e-06
19930.0 9.2502e-06
19950.0 9.1709e-06
19970.0 9.093e-06
19990.0 9.0197e-06
20010.0 8.9537e-06
20030.0 8.8917e-06
20050.0 8.8352e-06
20070.0 8.7859e-06
20090.0 8.7425e-06
20110.0 8.7037e-06
20130.0 8.671e-06
20150.0 8.6431e-06
20170.0 8.6193e-06
20190.0 8.5995e-06
20210.0 8.5828e-06
20230.0 8.5689e-06
20250.0 8.5576e-06
20270.0 8.5478e-06
20290.0 8.5389e-06
20310.0 8.531e-06
20330.0 8.5237e-06
20350.0 8.5153e-06
20370.0 8.5064e-06
20390.0 8.4968e-06
20410.0 8.486e-06
20430.0 8.4737e-06
20450.0 8.4606e-06
20470.0 8.4462e-06
20490.0 8.4306e-06
20510.0 8.4142e-06
20530.0 8.3973e-06
20550.0 8.3798e-06
20570.0 8.362e-06
20590.0 8.3443e-06
20610.0 8.3266e-06
20630.0 8.309e-06
20650.0 8.2915e-06
20670.0 8.2744e-06
20690.0 8.257e-06
20710.0 8.2394e-06
20730.0 8.2215e-06
20750.0 8.2028e-06
20770.0 8.183e-06
20790.0 8.1618e-06
20810.0 8.1391e-06
20830.0 8.1142e-06
20850.0 8.0872e-06
20870.0 8.0574e-06
20890.0 8.0248e-06
20910.0 7.9897e-06
20930.0 7.9514e-06
20950.0 7.91e-06
20970.0 7.866e-06
20990.0 7.8195e-06
21010.0 7.7696e-06
21030.0 7.7174e-06
21050.0 7.6635e-06
21070.0 7.6072e-06
21090.0 7.5483e-06
21110.0 7.4887e-06
21130.0 7.4277e-06
21150.0 7.3643e-06
21170.0 7.2997e-06
21190.0 7.2343e-06
21210.0 7.1664e-06
21230.0 7.0962e-06
21250.0 7.0251e-06
21270.0 6.952e-06
21290.0 6.8756e-06
21310.0 6.7968e-06
21330.0 6.7166e-06
21350.0 6.6326e-06
21370.0 6.5454e-06
21390.0 6.4867e-06
21410.0 6.4263e-06
21430.0 6.3621e-06
21450.0 6.2969e-06
21470.0 6.2305e-06
21490.0 6.1613e-06
21510.0 6.0898e-06
21530.0 6.0176e-06
21550.0 5.9435e-06
21570.0 5.8663e-06
21590.0 5.7882e-06
21610.0 5.7092e-06
21630.0 5.6275e-06
21650.0 5.5431e-06
21670.0 5.4593e-06
21690.0 5.3734e-06
21710.0 5.2849e-06
21730.0 5.1954e-06
21750.0 5.1054e-06
21770.0 5.0117e-06
21790.0 4.9166e-06
21810.0 4.8211e-06
21830.0 4.7236e-06
21850.0 4.6233e-06
21870.0 4.5224e-06
21890.0 4.4211e-06
21910.0 4.3169e-06
21930.0 4.2112e-06
21950.0 4.1055e-06
21970.0 3.998e-06
21990.0 3.8877e-06
22010.0 3.7781e-06
22030.0 3.668e-06
22050.0 3.5561e-06
22070.0 3.4907e-06
22090.0 3.5104e-06
22110.0 3.5301e-06
22130.0 3.5498e-06
22150.0 3.569e-06
22170.0 3.5879e-06
22190.0 3.6068e-06
22210.0 3.6254e-06
22230.0 3.6434e-06
22250.0 3.6614e-06
22270.0 3.6792e-06
22290.0 3.6967e-06
22310.0 3.7141e-06
22330.0 3.7315e-06
22350.0 3.7489e-06
22370.0 3.7661e-06
22390.0 3.7834e-06
22410.0 3.8009e-06
22430.0 3.8183e-06
22450.0 3.8358e-06
22470.0 3.8536e-06
22490.0 3.8716e-06
22510.0 3.8896e-06
22530.0 3.908e-06
22550.0 3.9267e-06
22570.0 3.9454e-06
22590.0 3.9643e-06
22610.0 3.9836e-06
22630.0 4.0031e-06
22650.0 4.0226e-06
22670.0 4.0425e-06
22690.0 4.0625e-06
22710.0 4.0827e-06
22730.0 4.1031e-06
22750.0 4.1237e-06
22770.0 4.1444e-06
22790.0 4.1653e-06
22810.0 4.1864e-06
22830.0 4.2078e-06
22850.0 4.2293e-06
22870.0 4.251e-06
22890.0 4.273e-06
