#lamb flux
1010.0 1.9758e-07
1030.0 2.2031e-07
1050.0 2.4645e-07
1070.0 2.7588e-07
1090.0 3.0931e-07
1110.0 3.4359e-07
1130.0 3.781e-07
1150.0 4.1425e-07
1170.0 4.5153e-07
1190.0 4.8689e-07
1210.0 5.2272e-07
1230.0 5.5975e-07
1250.0 5.9602e-07
1270.0 6.3125e-07
1290.0 6.6848e-07
1310.0 7.0568e-07
1330.0 7.4135e-07
1350.0 7.7742e-07
1370.0 8.1466e-07
1390.0 8.5097e-07
1410.0 8.8619e-07
1430.0 9.2301e-07
1450.0 9.5983e-07
1470.0 9.954e-07
1490.0 1.0313e-06
1510.0 1.0693e-06
1530.0 1.1053e-06
1550.0 1.1407e-06
1570.0 1.1774e-06
1590.0 1.2141e-06
1610.0 1.2492e-06
1630.0 1.2852e-06
1650.0 1.3223e-06
1670.0 1.358e-06
1690.0 1.3933e-06
1710.0 1.4299e-06
1730.0 1.4666e-06
1750.0 1.5011e-06
1770.0 1.5364e-06
1790.0 1.5725e-06
1810.0 1.6072e-06
1830.0 1.6412e-06
1850.0 1.6771e-06
1870.0 1.7119e-06
1890.0 1.7454e-06
1910.0 1.7792e-06
1930.0 1.8137e-06
1950.0 1.8462e-06
1970.0 1.878e-06
1990.0 1.9107e-06
2010.0 1.9423e-06
2030.0 1.9723e-06
2050.0 2.0027e-06
2070.0 2.0335e-06
2090.0 2.0616e-06
2110.0 2.0889e-06
2130.0 2.1165e-06
2150.0 2.1425e-06
2170.0 2.1663e-06
2190.0 2.1903e-06
2210.0 2.2136e-06
2230.0 2.2344e-06
2250.0 2.2539e-06
2270.0 2.2737e-06
2290.0 2.2912e-06
2310.0 2.3061e-06
2330.0 2.3208e-06
2350.0 2.3346e-06
2370.0 2.3463e-06
2390.0 2.358e-06
2410.0 2.3722e-06
2430.0 2.3877e-06
2450.0 2.4061e-06
2470.0 2.4317e-06
2490.0 2.4663e-06
2510.0 2.5062e-06
2530.0 2.5595e-06
2550.0 2.6365e-06
2570.0 2.7457e-06
2590.0 2.9029e-06
2610.0 3.1563e-06
2630.0 3.523e-06
2650.0 3.9914e-06
2670.0 4.5757e-06
2690.0 5.2608e-06
2710.0 5.9476e-06
2730.0 6.5798e-06
2750.0 7.1588e-06
2770.0 7.6128e-06
2790.0 7.9236e-06
2810.0 8.1272e-06
2830.0 8.2468e-06
2850.0 8.2811e-06
2870.0 8.2694e-06
2890.0 8.2334e-06
2910.0 8.1799e-06
2930.0 8.1145e-06
2950.0 8.0488e-06
2970.0 7.9842e-06
2990.0 7.9183e-06
3010.0 0.00022314
3030.0 0.00022141
3050.0 0.00021971
3070.0 0.0002179
3090.0 0.000216
3110.0 0.00021381
3130.0 0.00021107
3150.0 0.00020763
3170.0 0.00020313
3190.0 0.00019769
3210.0 0.00019166
3230.0 0.00018532
3250.0 0.00017923
3270.0 0.00017475
3290.0 0.00017178
3310.0 0.00017144
3330.0 0.00017319
3350.0 0.00017682
3370.0 0.00018235
3390.0 0.00018956
3410.0 0.00019755
3430.0 0.00020668
3450.0 0.00021729
3470.0 0.00022898
3490.0 0.00024148
3510.0 0.00025567
3530.0 0.00027108
3550.0 0.00028733
3570.0 0.0003051
3590.0 0.00032514
3610.0 0.00034719
3630.0 0.00036978
3650.0 0.00039375
3670.0 0.00041581
3690.0 0.00043258
3710.0 0.00044164
3730.0 0.00043866
3750.0 0.0004233
3770.0 0.0004153
3790.0 0.0003913
3810.0 0.00031792
3830.0 0.00028881
3850.0 0.00033644
3870.0 0.00027518
3890.0 0.00026106
3910.0 0.00034652
3930.0 0.00044606
3950.0 0.00048244
3970.0 0.00054894
3990.0 0.0004967
4010.0 0.00072234
4030.0 0.00067568
4050.0 0.00061079
4070.0 0.00065185
4090.0 0.00062555
4110.0 0.00066837
4130.0 0.00078914
4150.0 0.00094045
4170.0 0.00081183
4190.0 0.00075149
4210.0 0.00080304
4230.0 0.00096981
4250.0 0.0011082
4270.0 0.0011786
4290.0 0.0011114
4310.0 0.0010574
4330.0 0.0011001
4350.0 0.0013659
4370.0 0.0016163
4390.0 0.0013698
4410.0 0.00091454
4430.0 0.00070758
4450.0 0.00062658
4470.0 0.0005269
4490.0 0.0007044
4510.0 0.0010915
4530.0 0.0012839
4550.0 0.0013313
4570.0 0.0013461
4590.0 0.001533
4610.0 0.0025067
4630.0 0.0033292
4650.0 0.0032152
4670.0 0.0029145
4690.0 0.0030863
4710.0 0.0032738
4730.0 0.0026755
4750.0 0.0017654
4770.0 0.0013279
4790.0 0.0014045
4810.0 0.0013922
4830.0 0.0013509
4850.0 0.0015026
4870.0 0.0019807
4890.0 0.0023076
4910.0 0.0018325
4930.0 0.0016929
4950.0 0.001925
4970.0 0.0026009
4990.0 0.0034714
5010.0 0.0038848
5030.0 0.0031138
5050.0 0.0018964
5070.0 0.0013316
5090.0 0.0010959
5110.0 0.0010803
5130.0 0.0012245
5150.0 0.0012184
5170.0 0.0011792
5190.0 0.0011039
5210.0 0.0011335
5230.0 0.0013033
5250.0 0.0014714
5270.0 0.0014826
5290.0 0.0016608
5310.0 0.0020576
5330.0 0.002138
5350.0 0.0021154
5370.0 0.0023619
5390.0 0.0028026
5410.0 0.0025044
5430.0 0.0019792
5450.0 0.0019137
5470.0 0.0022077
5490.0 0.0028211
5510.0 0.0035412
5530.0 0.0040465
5550.0 0.0037351
5570.0 0.0033402
5590.0 0.0028268
5610.0 0.0027692
5630.0 0.002914
5650.0 0.0028181
5670.0 0.0026599
5690.0 0.0022646
5710.0 0.0022515
5730.0 0.0021484
5750.0 0.0012661
5770.0 0.0010027
5790.0 0.0011953
5810.0 0.0013705
5830.0 0.0018476
5850.0 0.0022479
5870.0 0.0023552
5890.0 0.0022404
5910.0 0.0021541
5930.0 0.0021202
5950.0 0.0022075
5970.0 0.0025965
5990.0 0.0022506
6010.0 0.0017853
6030.0 0.0014605
6050.0 0.0012818
6070.0 0.001428
6090.0 0.0016279
6110.0 0.0017144
6130.0 0.0015904
6150.0 0.0013322
6170.0 0.0012479
6190.0 0.0015398
6210.0 0.0021507
6230.0 0.0028438
6250.0 0.0029499
6270.0 0.0023988
6290.0 0.0020193
6310.0 0.0015662
6330.0 0.0011838
6350.0 0.0011133
6370.0 0.0011793
6390.0 0.0014215
6410.0 0.0017485
6430.0 0.0020775
6450.0 0.0025107
6470.0 0.0028147
6490.0 0.0034378
6510.0 0.0038534
6530.0 0.0037457
6550.0 0.0034385
6570.0 0.0030281
6590.0 0.0029318
6610.0 0.0024951
6630.0 0.002438
6650.0 0.002293
6670.0 0.0021772
6690.0 0.0019144
6710.0 0.0017813
6730.0 0.0012101
6750.0 0.0012533
6770.0 0.0015268
6790.0 0.0018989
6810.0 0.0015905
6830.0 0.0016322
6850.0 0.0014838
6870.0 0.0014136
6890.0 0.001294
6910.0 0.0013802
6930.0 0.0012893
6950.0 0.0014383
6970.0 0.001456
6990.0 0.0016208
7010.0 0.0016646
7030.0 0.001697
7050.0 0.0015222
7070.0 0.0013854
7090.0 0.0013754
7110.0 0.0013602
7130.0 0.0014792
7150.0 0.0016417
7170.0 0.0017985
7190.0 0.0018538
7210.0 0.0016994
7230.0 0.0017277
7250.0 0.0019186
7270.0 0.0021676
7290.0 0.0025136
7310.0 0.0025368
7330.0 0.0022868
7350.0 0.0020379
7370.0 0.0016748
7390.0 0.0017293
7410.0 0.002004
7430.0 0.0022364
7450.0 0.0024108
7470.0 0.0024033
7490.0 0.0023427
7510.0 0.0030846
7530.0 0.0027975
7550.0 0.002468
7570.0 0.0017681
7590.0 0.0010134
7610.0 0.00082323
7630.0 0.0010145
7650.0 0.0012522
7670.0 0.0017085
7690.0 0.0019339
7710.0 0.0018831
7730.0 0.0018835
7750.0 0.0022078
7770.0 0.0022277
7790.0 0.0020893
7810.0 0.0018807
7830.0 0.0019283
7850.0 0.0019311
7870.0 0.0018291
7890.0 0.0015225
7910.0 0.0011393
7930.0 0.0010734
7950.0 0.00096555
7970.0 0.00087483
7990.0 0.00084441
8010.0 0.00084315
8030.0 0.00082214
8050.0 0.00084959
8070.0 0.00086974
8090.0 0.00094611
8110.0 0.0008876
8130.0 0.00068259
8150.0 0.00065368
8170.0 0.00052754
8190.0 0.00047527
8210.0 0.0006167
8230.0 0.00068618
8250.0 0.00051803
8270.0 0.00045235
8290.0 0.00044944
8310.0 0.00033173
8330.0 0.00021014
8350.0 0.00016004
8370.0 0.00011905
8390.0 0.00018661
8410.0 0.00023101
8430.0 0.00028576
8450.0 0.00031847
8470.0 0.00040918
8490.0 0.00037228
8510.0 0.00034231
8530.0 0.00029693
8550.0 0.00047882
8570.0 0.00065183
8590.0 0.00061805
8610.0 0.00080452
8630.0 0.00090989
8650.0 0.00078632
8670.0 0.00087996
8690.0 0.0010227
8710.0 0.00092955
8730.0 0.00093318
8750.0 0.00081028
8770.0 0.00075829
8790.0 0.00078659
8810.0 0.00078774
8830.0 0.00057081
8850.0 0.00040446
8870.0 0.00032538
8890.0 0.00040313
8910.0 0.00050586
8930.0 0.00059287
8950.0 0.00067357
8970.0 0.00066954
8990.0 0.00059044
9010.0 0.00048295
9030.0 0.00044478
9050.0 0.00045434
9070.0 0.00046282
9090.0 0.0004694
9110.0 0.00047656
9130.0 0.000482
9150.0 0.00048625
9170.0 0.00049078
9190.0 0.00049561
9210.0 0.00050068
9230.0 0.00050605
9250.0 0.00051158
9270.0 0.00051732
9290.0 0.00052323
9310.0 0.00052926
9330.0 0.00053544
9350.0 0.00054182
9370.0 0.00054832
9390.0 0.00055495
9410.0 0.00056175
9430.0 0.00056873
9450.0 0.0005758
9470.0 0.00058302
9490.0 0.00059042
9510.0 0.00059795
9530.0 0.0006056
9550.0 0.00061343
9570.0 0.00062141
9590.0 0.00062949
9610.0 0.00063772
9630.0 0.00064611
9650.0 0.00065462
9670.0 0.00066322
9690.0 0.00067199
9710.0 0.00068089
9730.0 0.00068989
9750.0 0.00069901
9770.0 0.00070829
9790.0 0.00071765
9810.0 0.00072711
9830.0 0.00073669
9850.0 0.00074638
9870.0 0.00075614
9890.0 0.000766
9910.0 0.00077597
9930.0 0.00078601
9950.0 0.00079611
9970.0 0.00080631
9990.0 0.00081659
10010.0 0.00076574
10030.0 0.00077512
10050.0 0.00078455
10070.0 0.00079392
10090.0 0.00080344
10110.0 0.00081301
10130.0 0.00082258
10150.0 0.00083214
10170.0 0.00084172
10190.0 0.0008513
10210.0 0.00086086
10230.0 0.00087039
10250.0 0.00087992
10270.0 0.00088942
10290.0 0.00089887
10310.0 0.00090829
10330.0 0.00091767
10350.0 0.00092698
10370.0 0.00093622
10390.0 0.0009454
10410.0 0.00095451
10430.0 0.0009635
10450.0 0.00097242
10470.0 0.00098125
10490.0 0.00098995
10510.0 0.00099854
10530.0 0.001007
10550.0 0.0010154
10570.0 0.0010236
10590.0 0.0010316
10610.0 0.0010396
10630.0 0.0010473
10650.0 0.0010549
10670.0 0.0010624
10690.0 0.0010696
10710.0 0.0010767
10730.0 0.0010836
10750.0 0.0010903
10770.0 0.0010968
10790.0 0.0011031
10810.0 0.0011092
10830.0 0.001115
10850.0 0.0011205
10870.0 0.0011256
10890.0 0.00113
10910.0 0.0011333
10930.0 0.001135
10950.0 0.0011341
10970.0 0.0011301
10990.0 0.0011226
11010.0 0.0011233
11030.0 0.0011062
11050.0 0.0010853
11070.0 0.0010602
11090.0 0.0010298
11110.0 0.00099821
11130.0 0.0009652
11150.0 0.0009296
11170.0 0.00089296
11190.0 0.00085759
11210.0 0.00082131
11230.0 0.00078444
11250.0 0.00074961
11270.0 0.00071654
11290.0 0.00068382
11310.0 0.0006532
11330.0 0.00062651
11350.0 0.0006015
11370.0 0.0005785
11390.0 0.00055859
11410.0 0.00054106
11430.0 0.00052455
11450.0 0.00050996
11470.0 0.00049691
11490.0 0.00048431
11510.0 0.00047169
11530.0 0.00045952
11550.0 0.00044714
11570.0 0.00043375
11590.0 0.00041982
11610.0 0.00040565
11630.0 0.00039038
11650.0 0.00037423
11670.0 0.00035848
11690.0 0.00034269
11710.0 0.00032661
11730.0 0.00031118
11750.0 0.00029698
11770.0 0.00028317
11790.0 0.00027027
11810.0 0.0002589
11830.0 0.00024869
11850.0 0.00023923
11870.0 0.00023117
11890.0 0.00022429
11910.0 0.00021805
11930.0 0.00021246
11950.0 0.00020753
11970.0 0.00020288
11990.0 0.00019827
12010.0 0.0001938
12030.0 0.00018936
12050.0 0.0001847
12070.0 0.00017981
12090.0 0.00017504
12110.0 0.00017017
12130.0 0.00016523
12150.0 0.00016052
12170.0 0.0001562
12190.0 0.0001521
12210.0 0.00014861
12230.0 0.0001459
12250.0 0.00014394
12270.0 0.00014286
12290.0 0.00014274
12310.0 0.00014349
12330.0 0.00014524
12350.0 0.00014792
12370.0 0.00015126
12390.0 0.00015536
12410.0 0.00016037
12430.0 0.00016552
12450.0 0.00017087
12470.0 0.00017658
12490.0 0.00018227
12510.0 0.0001875
12530.0 0.00019261
12550.0 0.00019743
12570.0 0.0002015
12590.0 0.00020489
12610.0 0.00020774
12630.0 0.00020976
12650.0 0.00021082
12670.0 0.00021117
12690.0 0.00021072
12710.0 0.00020948
12730.0 0.00020755
12750.0 0.00020489
12770.0 0.00020162
12790.0 0.0001979
12810.0 0.00019368
12830.0 0.00018897
12850.0 0.00018412
12870.0 0.00017905
12890.0 0.00017365
12910.0 0.00016817
12930.0 0.00016274
12950.0 0.00015709
12970.0 0.00015129
12990.0 0.00014573
13010.0 0.00014017
13030.0 0.00013449
13050.0 0.00012896
13070.0 0.00012368
13090.0 0.00011834
13110.0 0.00011311
13130.0 0.00010821
13150.0 0.00010353
13170.0 9.8915e-05
13190.0 9.4764e-05
13210.0 9.1071e-05
13230.0 8.7674e-05
13250.0 8.4711e-05
13270.0 8.2316e-05
13290.0 8.0385e-05
13310.0 7.8948e-05
13330.0 7.8098e-05
13350.0 7.7779e-05
13370.0 7.8e-05
13390.0 7.8776e-05
13410.0 7.9944e-05
13430.0 8.1545e-05
13450.0 8.3578e-05
13470.0 8.5853e-05
13490.0 8.8266e-05
13510.0 9.101e-05
13530.0 9.3787e-05
13550.0 9.6432e-05
13570.0 9.9041e-05
13590.0 0.00010158
13610.0 0.00010383
13630.0 0.00010577
13650.0 0.00010754
13670.0 0.00010898
13690.0 0.00011005
13710.0 0.00011083
13730.0 0.00011133
13750.0 0.00011147
13770.0 0.00011134
13790.0 0.00011094
13810.0 0.0001103
13830.0 0.00010945
13850.0 0.00010839
13870.0 0.00010713
13890.0 0.00010573
13910.0 0.00010421
13930.0 0.0001025
13950.0 0.00010068
13970.0 9.8866e-05
13990.0 9.6934e-05
14010.0 9.4924e-05
14030.0 9.2953e-05
14050.0 9.1001e-05
14070.0 8.898e-05
14090.0 8.707e-05
14110.0 8.5297e-05
14130.0 8.3603e-05
14150.0 8.2029e-05
14170.0 8.0698e-05
14190.0 7.9559e-05
14210.0 7.8606e-05
14230.0 7.7909e-05
14250.0 7.7468e-05
14270.0 7.7269e-05
14290.0 7.7345e-05
14310.0 7.7665e-05
14330.0 7.8221e-05
14350.0 7.9033e-05
14370.0 8.0041e-05
14390.0 8.119e-05
14410.0 8.2553e-05
14430.0 8.4068e-05
14450.0 8.5639e-05
14470.0 8.7303e-05
14490.0 8.9122e-05
14510.0 9.0924e-05
14530.0 9.271e-05
14550.0 9.4587e-05
14570.0 9.6505e-05
14590.0 9.8376e-05
14610.0 0.00010032
14630.0 0.00010241
14650.0 0.00010451
14670.0 0.00010668
14690.0 0.00010905
14710.0 0.00011162
14730.0 0.00011421
14750.0 0.00011704
14770.0 0.00012015
14790.0 0.00012338
14810.0 0.00012673
14830.0 0.00013047
14850.0 0.00013431
14870.0 0.00013811
14890.0 0.00014201
14910.0 0.00014596
14930.0 0.00014961
14950.0 0.00015292
14970.0 0.00015595
14990.0 0.00015845
15010.0 0.00016033
15030.0 0.00016172
15050.0 0.00016264
15070.0 0.00016312
15090.0 0.00016332
15110.0 0.00016334
15130.0 0.00016324
15150.0 0.00016309
15170.0 0.00016291
15190.0 0.0001627
15210.0 0.0001625
15230.0 0.00016231
15250.0 0.0001621
15270.0 0.0001619
15290.0 0.00016173
15310.0 0.00016154
15330.0 0.00016135
15350.0 0.00016117
15370.0 0.000161
15390.0 0.0001608
15410.0 0.00016063
15430.0 0.00016046
15450.0 0.00016028
15470.0 0.0001601
15490.0 0.00015994
15510.0 0.00015978
15530.0 0.0001596
15550.0 0.00015943
15570.0 0.00015927
15590.0 0.0001591
15610.0 0.00015892
15630.0 0.00015876
15650.0 0.0001586
15670.0 0.00015842
15690.0 0.00015825
15710.0 0.00015809
15730.0 0.00015792
15750.0 0.00015774
15770.0 0.00015758
15790.0 0.00015741
15810.0 0.00015722
15830.0 0.00015704
15850.0 0.00015688
15870.0 0.00015669
15890.0 0.00015651
15910.0 0.00015634
15930.0 0.00015615
15950.0 0.00015595
15970.0 0.00015576
15990.0 0.00015558
16010.0 0.00015538
16030.0 0.00015517
16050.0 0.00015498
16070.0 0.00015478
16090.0 0.00015457
16110.0 0.00015437
16130.0 0.00015417
16150.0 0.00015394
16170.0 0.00015371
16190.0 0.0001535
16210.0 0.00015327
16230.0 0.00015303
16250.0 0.00015281
16270.0 0.00015258
16290.0 0.00015233
16310.0 0.00015208
16330.0 0.00015185
16350.0 0.00015159
16370.0 0.00015132
16390.0 0.00015107
16410.0 0.00015081
16430.0 0.00015053
16450.0 0.00015026
16470.0 0.00014999
16490.0 0.00014971
16510.0 0.00014941
16530.0 0.00014912
16550.0 0.00014883
16570.0 0.00014852
16590.0 0.00014821
16610.0 0.00014792
16630.0 0.0001476
16650.0 0.00014727
16670.0 0.00014696
16690.0 0.00014664
16710.0 0.00014629
16730.0 0.00014595
16750.0 0.00014562
16770.0 0.00014527
16790.0 0.0001449
16810.0 0.00014456
16830.0 0.0001442
16850.0 0.00014383
16870.0 0.00014346
16890.0 0.00014309
16910.0 0.0001427
16930.0 0.0001423
16950.0 0.00014192
16970.0 0.00014153
16990.0 0.00014112
17010.0 0.00014072
17030.0 0.00014032
17050.0 0.0001399
17070.0 0.00013948
17090.0 0.00013906
17110.0 0.00013864
17130.0 0.00013819
17150.0 0.00013775
17170.0 0.00013732
17190.0 0.00013687
17210.0 0.00013642
17230.0 0.00013598
17250.0 0.00013552
17270.0 0.00013504
17290.0 0.00013458
17310.0 0.00013412
17330.0 0.00013363
17350.0 0.00013314
17370.0 0.00013267
17390.0 0.00013219
17410.0 0.00013169
17430.0 0.0001312
17450.0 0.00013071
17470.0 0.00013019
17490.0 0.00012968
17510.0 0.00012918
17530.0 0.00012866
17550.0 0.00012814
17570.0 0.00012762
17590.0 0.00012711
17610.0 0.00012657
17630.0 0.00012604
17650.0 0.00012551
17670.0 0.00012498
17690.0 0.00012442
17710.0 0.00012388
17730.0 0.00012334
17750.0 0.00012279
17770.0 0.00012223
17790.0 0.00012169
17810.0 0.00012113
17830.0 0.00012056
17850.0 0.00012001
17870.0 0.00011945
17890.0 0.00011887
17910.0 0.00011829
17930.0 0.00011774
17950.0 0.00011716
17970.0 0.00011658
17990.0 0.00011601
18010.0 0.00011544
18030.0 0.00011484
18050.0 0.00011425
18070.0 0.00011368
18090.0 0.00011309
18110.0 0.00011249
18130.0 0.00011191
18150.0 0.00011133
18170.0 0.00011072
18190.0 0.00011013
18210.0 0.00010955
18230.0 0.00010894
18250.0 0.00010833
18270.0 0.00010774
18290.0 0.00010715
18310.0 0.00010654
18330.0 0.00010594
18350.0 0.00010535
18370.0 0.00010474
18390.0 0.00010413
18410.0 0.00010354
18430.0 0.00010294
18450.0 0.00010232
18470.0 0.00010172
18490.0 0.00010112
18510.0 0.00010051
18530.0 9.9902e-05
18550.0 9.9309e-05
18570.0 9.8703e-05
18590.0 9.8084e-05
18610.0 9.7483e-05
18630.0 9.6885e-05
18650.0 9.6272e-05
18670.0 9.566e-05
18690.0 9.507e-05
18710.0 9.4466e-05
18730.0 9.3855e-05
18750.0 9.3257e-05
18770.0 9.2666e-05
18790.0 9.2047e-05
18810.0 9.1442e-05
18830.0 9.0851e-05
18850.0 9.0251e-05
18870.0 8.9642e-05
18890.0 8.9052e-05
18910.0 8.8463e-05
18930.0 8.7857e-05
18950.0 8.726e-05
18970.0 8.6675e-05
18990.0 8.608e-05
19010.0 8.547e-05
19030.0 8.4889e-05
19050.0 8.4305e-05
19070.0 8.3709e-05
19090.0 8.3121e-05
19110.0 8.2549e-05
19130.0 8.1957e-05
19150.0 8.1365e-05
19170.0 8.0789e-05
19190.0 8.0213e-05
19210.0 7.9623e-05
19230.0 7.9042e-05
19250.0 7.8479e-05
19270.0 7.7901e-05
19290.0 7.7323e-05
19310.0 7.676e-05
19330.0 7.6196e-05
19350.0 7.5612e-05
19370.0 7.5046e-05
19390.0 7.449e-05
19410.0 7.3923e-05
19430.0 7.3353e-05
19450.0 7.2805e-05
19470.0 7.2252e-05
19490.0 7.1687e-05
19510.0 7.1135e-05
19530.0 7.0593e-05
19550.0 7.0034e-05
19570.0 6.9476e-05
19590.0 6.894e-05
19610.0 6.8398e-05
19630.0 6.7848e-05
19650.0 6.7311e-05
19670.0 6.6784e-05
19690.0 6.6239e-05
19710.0 6.57e-05
19730.0 6.5176e-05
19750.0 6.4647e-05
19770.0 6.4105e-05
19790.0 6.3583e-05
19810.0 6.3067e-05
19830.0 6.2539e-05
19850.0 6.2012e-05
19870.0 6.1496e-05
19890.0 6.0958e-05
19910.0 6.039e-05
19930.0 5.9806e-05
19950.0 5.9176e-05
19970.0 5.8454e-05
19990.0 5.7639e-05
20010.0 5.6885e-05
20030.0 5.5868e-05
20050.0 5.4728e-05
20070.0 5.3531e-05
20090.0 5.2278e-05
20110.0 5.0903e-05
20130.0 4.954e-05
20150.0 4.8212e-05
20170.0 4.6861e-05
20190.0 4.5513e-05
20210.0 4.4251e-05
20230.0 4.3031e-05
20250.0 4.1821e-05
20270.0 4.07e-05
20290.0 3.9677e-05
20310.0 3.8704e-05
20330.0 3.7794e-05
20350.0 3.7028e-05
20370.0 3.6342e-05
20390.0 3.5733e-05
20410.0 3.523e-05
20430.0 3.483e-05
20450.0 3.4504e-05
20470.0 3.4273e-05
20490.0 3.413e-05
20510.0 3.4063e-05
20530.0 3.4074e-05
20550.0 3.4152e-05
20570.0 3.4282e-05
20590.0 3.4475e-05
20610.0 3.4719e-05
20630.0 3.4992e-05
20650.0 3.5304e-05
20670.0 3.5669e-05
20690.0 3.6039e-05
20710.0 3.6422e-05
20730.0 3.6837e-05
20750.0 3.7266e-05
20770.0 3.7682e-05
20790.0 3.8115e-05
20810.0 3.8569e-05
20830.0 3.9012e-05
20850.0 3.9449e-05
20870.0 3.9914e-05
20890.0 4.0381e-05
20910.0 4.0823e-05
20930.0 4.1279e-05
20950.0 4.1749e-05
20970.0 4.2202e-05
20990.0 4.2647e-05
21010.0 4.3117e-05
21030.0 4.3575e-05
21050.0 4.4011e-05
21070.0 4.445e-05
21090.0 4.4895e-05
21110.0 4.5301e-05
21130.0 4.5687e-05
21150.0 4.607e-05
21170.0 4.6425e-05
21190.0 4.6739e-05
21210.0 4.7038e-05
21230.0 4.7308e-05
21250.0 4.7524e-05
21270.0 4.7697e-05
21290.0 4.7829e-05
21310.0 4.7904e-05
21330.0 4.7915e-05
21350.0 4.7866e-05
21370.0 4.7747e-05
21390.0 4.7556e-05
21410.0 4.7293e-05
21430.0 4.6934e-05
21450.0 4.65e-05
21470.0 4.6001e-05
21490.0 4.5412e-05
21510.0 4.474e-05
21530.0 4.4029e-05
21550.0 4.3258e-05
21570.0 4.2409e-05
21590.0 4.1543e-05
21610.0 4.0676e-05
21630.0 3.9777e-05
21650.0 3.8862e-05
21670.0 3.8028e-05
21690.0 3.7219e-05
21710.0 3.6443e-05
21730.0 3.5749e-05
21750.0 3.5149e-05
21770.0 3.4605e-05
21790.0 3.4163e-05
21810.0 3.3835e-05
21830.0 3.3604e-05
21850.0 3.3475e-05
21870.0 3.3454e-05
21890.0 3.3528e-05
21910.0 3.3701e-05
21930.0 3.3968e-05
21950.0 3.4305e-05
21970.0 3.4723e-05
21990.0 3.5236e-05
22010.0 3.5785e-05
22030.0 3.6376e-05
22050.0 3.7031e-05
22070.0 3.7723e-05
22090.0 3.8407e-05
22110.0 3.9126e-05
22130.0 3.9874e-05
22150.0 4.0598e-05
22170.0 4.1305e-05
22190.0 4.203e-05
22210.0 4.2727e-05
22230.0 4.3356e-05
22250.0 4.3965e-05
22270.0 4.454e-05
22290.0 4.5042e-05
22310.0 4.5482e-05
22330.0 4.5881e-05
22350.0 4.62e-05
22370.0 4.6434e-05
22390.0 4.6598e-05
22410.0 4.668e-05
22430.0 4.667e-05
22450.0 4.6577e-05
22470.0 4.6393e-05
22490.0 4.6119e-05
22510.0 4.5767e-05
22530.0 4.5313e-05
22550.0 4.4757e-05
22570.0 4.4137e-05
22590.0 4.3437e-05
22610.0 4.263e-05
22630.0 4.1754e-05
22650.0 4.0846e-05
22670.0 3.9839e-05
22690.0 3.8761e-05
22710.0 3.7668e-05
22730.0 3.6536e-05
22750.0 3.5304e-05
22770.0 3.4092e-05
22790.0 3.2902e-05
22810.0 3.1675e-05
22830.0 3.0445e-05
