#lamb flux
1010.0 2.9078e-06
1030.0 3.2005e-06
1050.0 3.5372e-06
1070.0 3.9162e-06
1090.0 4.3467e-06
1110.0 4.7882e-06
1130.0 5.2325e-06
1150.0 5.698e-06
1170.0 6.1781e-06
1190.0 6.6334e-06
1210.0 7.0947e-06
1230.0 7.5715e-06
1250.0 8.0386e-06
1270.0 8.4922e-06
1290.0 8.9714e-06
1310.0 9.4503e-06
1330.0 9.9095e-06
1350.0 1.0374e-05
1370.0 1.0853e-05
1390.0 1.1321e-05
1410.0 1.1774e-05
1430.0 1.2248e-05
1450.0 1.2722e-05
1470.0 1.318e-05
1490.0 1.3642e-05
1510.0 1.4131e-05
1530.0 1.4594e-05
1550.0 1.5051e-05
1570.0 1.5523e-05
1590.0 1.5995e-05
1610.0 1.6447e-05
1630.0 1.6912e-05
1650.0 1.7389e-05
1670.0 1.785e-05
1690.0 1.8305e-05
1710.0 1.8777e-05
1730.0 1.9252e-05
1750.0 1.9697e-05
1770.0 2.0155e-05
1790.0 2.0622e-05
1810.0 2.1073e-05
1830.0 2.1515e-05
1850.0 2.1983e-05
1870.0 2.2437e-05
1890.0 2.2874e-05
1910.0 2.3319e-05
1930.0 2.3772e-05
1950.0 2.4201e-05
1970.0 2.4622e-05
1990.0 2.5057e-05
2010.0 2.5481e-05
2030.0 2.5884e-05
2050.0 2.6296e-05
2070.0 2.6715e-05
2090.0 2.7101e-05
2110.0 2.7479e-05
2130.0 2.7864e-05
2150.0 2.8233e-05
2170.0 2.8574e-05
2190.0 2.8923e-05
2210.0 2.9265e-05
2230.0 2.9578e-05
2250.0 2.9879e-05
2270.0 3.0187e-05
2290.0 3.0469e-05
2310.0 3.0721e-05
2330.0 3.0972e-05
2350.0 3.1214e-05
2370.0 3.1427e-05
2390.0 3.1634e-05
2410.0 3.1861e-05
2430.0 3.2081e-05
2450.0 3.2312e-05
2470.0 3.2602e-05
2490.0 3.2988e-05
2510.0 3.3475e-05
2530.0 3.4222e-05
2550.0 3.5469e-05
2570.0 3.7417e-05
2590.0 4.0304e-05
2610.0 4.4828e-05
2630.0 5.1034e-05
2650.0 5.8476e-05
2670.0 6.7148e-05
2690.0 7.6618e-05
2710.0 8.549e-05
2730.0 9.3163e-05
2750.0 9.9797e-05
2770.0 0.00010476
2790.0 0.00010811
2810.0 0.00011043
2830.0 0.00011213
2850.0 0.00011319
2870.0 0.00011401
2890.0 0.00011482
2910.0 0.00011558
2930.0 0.00011621
2950.0 0.00011691
2970.0 0.00011765
2990.0 0.00011829
3010.0 0.0012781
3030.0 0.0012851
3050.0 0.0012916
3070.0 0.0012958
3090.0 0.001299
3110.0 0.0012995
3130.0 0.0012951
3150.0 0.0012853
3170.0 0.001269
3190.0 0.0012466
3210.0 0.0012212
3230.0 0.0011954
3250.0 0.0011657
3270.0 0.0011548
3290.0 0.0011423
3310.0 0.0011656
3330.0 0.0011933
3350.0 0.001231
3370.0 0.0012807
3390.0 0.0013402
3410.0 0.0014026
3430.0 0.00147
3450.0 0.0015443
3470.0 0.0016214
3490.0 0.0016997
3510.0 0.0017816
3530.0 0.0018636
3550.0 0.0019536
3570.0 0.0020519
3590.0 0.0021448
3610.0 0.0022602
3630.0 0.0023488
3650.0 0.0024439
3670.0 0.0025211
3690.0 0.0025905
3710.0 0.0026477
3730.0 0.0026536
3750.0 0.0026578
3770.0 0.0025629
3790.0 0.0025073
3810.0 0.0024393
3830.0 0.0022085
3850.0 0.0020431
3870.0 0.0021826
3890.0 0.0025811
3910.0 0.0032709
3930.0 0.0038316
3950.0 0.0041083
3970.0 0.0039345
3990.0 0.003673
4010.0 0.0038494
4030.0 0.0041542
4050.0 0.00431
4070.0 0.0038815
4090.0 0.0032132
4110.0 0.0034333
4130.0 0.0038121
4150.0 0.0039791
4170.0 0.0038518
4190.0 0.0036874
4210.0 0.004027
4230.0 0.0043806
4250.0 0.0045256
4270.0 0.0046637
4290.0 0.0045354
4310.0 0.0047215
4330.0 0.0052171
4350.0 0.006099
4370.0 0.0065915
4390.0 0.0062469
4410.0 0.0052671
4430.0 0.0044545
4450.0 0.0036407
4470.0 0.0035093
4490.0 0.0039323
4510.0 0.0047962
4530.0 0.0051933
4550.0 0.0055326
4570.0 0.0064572
4590.0 0.0081119
4610.0 0.010806
4630.0 0.012946
4650.0 0.013021
4670.0 0.013124
4690.0 0.014208
4710.0 0.014209
4730.0 0.011591
4750.0 0.008576
4770.0 0.0070668
4790.0 0.0067057
4810.0 0.0062396
4830.0 0.0063629
4850.0 0.0075063
4870.0 0.0094089
4890.0 0.0099766
4910.0 0.008593
4930.0 0.0082649
4950.0 0.0098823
4970.0 0.013023
4990.0 0.015601
5010.0 0.015778
5030.0 0.012785
5050.0 0.0088001
5070.0 0.0064773
5090.0 0.0056458
5110.0 0.0056623
5130.0 0.0061633
5150.0 0.0061958
5170.0 0.0061711
5190.0 0.006114
5210.0 0.0060137
5230.0 0.0063273
5250.0 0.0067209
5270.0 0.0076818
5290.0 0.009062
5310.0 0.009814
5330.0 0.010162
5350.0 0.010767
5370.0 0.011724
5390.0 0.012012
5410.0 0.011012
5430.0 0.0097998
5450.0 0.0096896
5470.0 0.011606
5490.0 0.014891
5510.0 0.018053
5530.0 0.019332
5550.0 0.018684
5570.0 0.017306
5590.0 0.015806
5610.0 0.015118
5630.0 0.015172
5650.0 0.0154
5670.0 0.015052
5690.0 0.014319
5710.0 0.013742
5730.0 0.012086
5750.0 0.0092829
5770.0 0.0082984
5790.0 0.0091607
5810.0 0.010572
5830.0 0.011878
5850.0 0.012557
5870.0 0.012432
5890.0 0.01151
5910.0 0.011013
5930.0 0.011195
5950.0 0.011825
5970.0 0.012077
5990.0 0.010959
6010.0 0.008966
6030.0 0.0073079
6050.0 0.0066795
6070.0 0.0070444
6090.0 0.0078662
6110.0 0.0079837
6130.0 0.0074011
6150.0 0.0072594
6170.0 0.008055
6190.0 0.0096325
6210.0 0.011571
6230.0 0.012853
6250.0 0.012572
6270.0 0.011148
6290.0 0.0091723
6310.0 0.0072912
6330.0 0.0060742
6350.0 0.005819
6370.0 0.0063924
6390.0 0.007228
6410.0 0.0083832
6430.0 0.0098863
6450.0 0.011872
6470.0 0.014576
6490.0 0.017339
6510.0 0.018273
6530.0 0.01728
6550.0 0.016552
6570.0 0.016523
6590.0 0.016023
6610.0 0.014862
6630.0 0.01385
6650.0 0.013188
6670.0 0.01322
6690.0 0.012915
6710.0 0.011574
6730.0 0.010096
6750.0 0.0091797
6770.0 0.0095904
6790.0 0.010261
6810.0 0.01081
6830.0 0.010987
6850.0 0.010552
6870.0 0.010075
6890.0 0.0098157
6910.0 0.0093158
6930.0 0.0089374
6950.0 0.0090296
6970.0 0.009339
6990.0 0.010161
7010.0 0.010776
7030.0 0.010367
7050.0 0.0094758
7070.0 0.0082823
7090.0 0.0069843
7110.0 0.0064343
7130.0 0.0067701
7150.0 0.007181
7170.0 0.0072544
7190.0 0.0070594
7210.0 0.0070476
7230.0 0.0079605
7250.0 0.0092668
7270.0 0.010298
7290.0 0.010648
7310.0 0.0099247
7330.0 0.0089253
7350.0 0.0081835
7370.0 0.0080015
7390.0 0.0082233
7410.0 0.0087505
7430.0 0.0097317
7450.0 0.010859
7470.0 0.012068
7490.0 0.012924
7510.0 0.011513
7530.0 0.010767
7550.0 0.0094272
7570.0 0.0080015
7590.0 0.0065256
7610.0 0.0062052
7630.0 0.0066936
7650.0 0.0076297
7670.0 0.0086896
7690.0 0.0095914
7710.0 0.010676
7730.0 0.011467
7750.0 0.011953
7770.0 0.012001
7790.0 0.011943
7810.0 0.012092
7830.0 0.011843
7850.0 0.011403
7870.0 0.010799
7890.0 0.0099234
7910.0 0.0089115
7930.0 0.007919
7950.0 0.0071441
7970.0 0.0069314
7990.0 0.0072196
8010.0 0.0076719
8030.0 0.0077603
8050.0 0.0079152
8070.0 0.007834
8090.0 0.0078228
8110.0 0.0075748
8130.0 0.0070863
8150.0 0.0066557
8170.0 0.0065941
8190.0 0.0067039
8210.0 0.0067791
8230.0 0.0066081
8250.0 0.0063249
8270.0 0.0055793
8290.0 0.0044729
8310.0 0.0033429
8330.0 0.0022887
8350.0 0.0016615
8370.0 0.0016282
8390.0 0.0019344
8410.0 0.0024033
8430.0 0.0029594
8450.0 0.0032624
8470.0 0.003454
8490.0 0.0036692
8510.0 0.0038867
8530.0 0.0043057
8550.0 0.005055
8570.0 0.0059019
8590.0 0.0066966
8610.0 0.0077927
8630.0 0.009045
8650.0 0.0097099
8670.0 0.0097691
8690.0 0.0095301
8710.0 0.0091008
8730.0 0.0087319
8750.0 0.0083269
8770.0 0.0081293
8790.0 0.0078226
8810.0 0.0072591
8830.0 0.0066959
8850.0 0.0057641
8870.0 0.0051604
8890.0 0.0047955
8910.0 0.0051202
8930.0 0.004976
8950.0 0.0050962
8970.0 0.0051675
8990.0 0.0052043
9010.0 0.0052764
9030.0 0.0051662
9050.0 0.0051589
9070.0 0.0051631
9090.0 0.0051676
9110.0 0.005172
9130.0 0.0051772
9150.0 0.0051838
9170.0 0.0051865
9190.0 0.0051838
9210.0 0.0052198
9230.0 0.0052216
9250.0 0.0052276
9270.0 0.005235
9290.0 0.0052435
9310.0 0.0052532
9330.0 0.0052636
9350.0 0.0052746
9370.0 0.0052863
9390.0 0.0052986
9410.0 0.0053113
9430.0 0.0053245
9450.0 0.0053382
9470.0 0.0053524
9490.0 0.005367
9510.0 0.0053821
9530.0 0.0053977
9550.0 0.0054138
9570.0 0.0054302
9590.0 0.0054471
9610.0 0.0054645
9630.0 0.0054822
9650.0 0.0055004
9670.0 0.0055189
9690.0 0.0055379
9710.0 0.0055572
9730.0 0.0055769
9750.0 0.0055969
9770.0 0.0056172
9790.0 0.0056379
9810.0 0.0056589
9830.0 0.0056801
9850.0 0.0057016
9870.0 0.0057234
9890.0 0.0057453
9910.0 0.0057675
9930.0 0.0057899
9950.0 0.0058104
9970.0 0.0058337
9990.0 0.005857
10010.0 0.0058766
10030.0 0.0058998
10050.0 0.0059214
10070.0 0.0059348
10090.0 0.0059613
10110.0 0.0059873
10130.0 0.0060123
10150.0 0.0060368
10170.0 0.0060605
10190.0 0.0060832
10210.0 0.0061062
10230.0 0.006129
10250.0 0.0061511
10270.0 0.006173
10290.0 0.0061952
10310.0 0.0062166
10330.0 0.0062373
10350.0 0.0062583
10370.0 0.0062791
10390.0 0.0062989
10410.0 0.0063184
10430.0 0.0063382
10450.0 0.006357
10470.0 0.0063751
10490.0 0.0063932
10510.0 0.0064108
10530.0 0.006427
10550.0 0.0064431
10570.0 0.0064591
10590.0 0.0064741
10610.0 0.0064882
10630.0 0.0065023
10650.0 0.0065157
10670.0 0.0065276
10690.0 0.0065393
10710.0 0.0065506
10730.0 0.0065608
10750.0 0.0065697
10770.0 0.0065789
10790.0 0.0065871
10810.0 0.0065939
10830.0 0.0065999
10850.0 0.0066051
10870.0 0.0066071
10890.0 0.0066054
10910.0 0.0065986
10930.0 0.0065826
10950.0 0.0065511
10970.0 0.0065018
10990.0 0.0064333
11010.0 0.0062476
11030.0 0.006118
11050.0 0.0059698
11070.0 0.0058
11090.0 0.0056033
11110.0 0.0054071
11130.0 0.00521
11150.0 0.0050068
11170.0 0.0048082
11190.0 0.004627
11210.0 0.0044522
11230.0 0.0042866
11250.0 0.0041416
11270.0 0.0040143
11290.0 0.003898
11310.0 0.0037978
11330.0 0.0037166
11350.0 0.0036445
11370.0 0.0035801
11390.0 0.0035237
11410.0 0.0034712
11430.0 0.003416
11450.0 0.0033596
11470.0 0.0033007
11490.0 0.003235
11510.0 0.0031605
11530.0 0.0030825
11550.0 0.0029994
11570.0 0.0029081
11590.0 0.0028139
11610.0 0.0027207
11630.0 0.0026238
11650.0 0.0025262
11670.0 0.0024358
11690.0 0.0023497
11710.0 0.0022663
11730.0 0.0021899
11750.0 0.0021224
11770.0 0.0020587
11790.0 0.0020004
11810.0 0.0019491
11830.0 0.0019022
11850.0 0.0018569
11870.0 0.0018154
11890.0 0.0017766
11910.0 0.0017374
11930.0 0.0016974
11950.0 0.0016581
11970.0 0.0016173
11990.0 0.0015734
12010.0 0.0015291
12030.0 0.0014847
12050.0 0.0014385
12070.0 0.0013915
12090.0 0.0013482
12110.0 0.0013064
12130.0 0.0012667
12150.0 0.001232
12170.0 0.0012031
12190.0 0.0011789
12210.0 0.001162
12230.0 0.0011528
12250.0 0.001151
12270.0 0.0011574
12290.0 0.0011711
12310.0 0.001191
12330.0 0.0012184
12350.0 0.0012515
12370.0 0.0012876
12390.0 0.0013275
12410.0 0.0013719
12430.0 0.0014142
12450.0 0.0014551
12470.0 0.0014957
12490.0 0.0015331
12510.0 0.0015646
12530.0 0.0015927
12550.0 0.001616
12570.0 0.0016326
12590.0 0.0016432
12610.0 0.0016484
12630.0 0.0016475
12650.0 0.0016409
12670.0 0.0016293
12690.0 0.0016128
12710.0 0.0015926
12730.0 0.0015692
12750.0 0.0015418
12770.0 0.0015124
12790.0 0.0014818
12810.0 0.0014493
12830.0 0.0014149
12850.0 0.001381
12870.0 0.0013465
12890.0 0.0013102
12910.0 0.0012737
12930.0 0.0012375
12950.0 0.0011994
12970.0 0.0011598
12990.0 0.0011212
13010.0 0.0010821
13030.0 0.0010416
13050.0 0.0010018
13070.0 0.00096379
13090.0 0.00092545
13110.0 0.00088845
13130.0 0.0008547
13150.0 0.00082351
13170.0 0.0007943
13190.0 0.00076971
13210.0 0.00074958
13230.0 0.00073301
13250.0 0.00072073
13270.0 0.00071291
13290.0 0.00070892
13310.0 0.00070886
13330.0 0.00071222
13350.0 0.00071832
13370.0 0.00072719
13390.0 0.00073833
13410.0 0.00074994
13430.0 0.0007626
13450.0 0.00077602
13470.0 0.00078889
13490.0 0.00080085
13510.0 0.0008129
13530.0 0.00082367
13550.0 0.00083277
13570.0 0.00084085
13590.0 0.00084798
13610.0 0.0008536
13630.0 0.00085795
13650.0 0.00086163
13670.0 0.00086431
13690.0 0.00086599
13710.0 0.00086699
13730.0 0.00086739
13750.0 0.00086689
13770.0 0.00086568
13790.0 0.00086378
13810.0 0.00086105
13830.0 0.00085754
13850.0 0.00085312
13870.0 0.00084769
13890.0 0.0008414
13910.0 0.00083426
13930.0 0.00082601
13950.0 0.00081696
13970.0 0.00080767
13990.0 0.00079772
14010.0 0.00078737
14030.0 0.00077728
14050.0 0.00076744
14070.0 0.00075755
14090.0 0.0007485
14110.0 0.00074039
14130.0 0.00073298
14150.0 0.00072646
14170.0 0.0007212
14190.0 0.00071697
14210.0 0.00071377
14230.0 0.00071176
14250.0 0.00071088
14270.0 0.00071117
14290.0 0.00071273
14310.0 0.00071529
14330.0 0.00071891
14350.0 0.00072373
14370.0 0.00072937
14390.0 0.00073553
14410.0 0.00074266
14430.0 0.00075038
14450.0 0.00075821
14470.0 0.0007664
14490.0 0.00077536
14510.0 0.0007843
14530.0 0.00079337
14550.0 0.00080338
14570.0 0.00081429
14590.0 0.00082576
14610.0 0.00083874
14630.0 0.00085395
14650.0 0.00087054
14670.0 0.00088881
14690.0 0.00090987
14710.0 0.00093351
14730.0 0.00095768
14750.0 0.00098409
14770.0 0.0010127
14790.0 0.0010414
14810.0 0.0010699
14830.0 0.0011
14850.0 0.0011288
14870.0 0.001155
14890.0 0.0011797
14910.0 0.0012023
14930.0 0.0012211
14950.0 0.0012362
14970.0 0.0012485
14990.0 0.001257
15010.0 0.0012622
15030.0 0.0012648
15050.0 0.0012651
15070.0 0.0012638
15090.0 0.0012614
15110.0 0.0012583
15130.0 0.0012548
15150.0 0.0012513
15170.0 0.0012476
15190.0 0.0012438
15210.0 0.0012401
15230.0 0.0012365
15250.0 0.0012327
15270.0 0.001229
15290.0 0.0012255
15310.0 0.0012219
15330.0 0.0012183
15350.0 0.0012149
15370.0 0.0012114
15390.0 0.0012078
15410.0 0.0012043
15430.0 0.0012009
15450.0 0.0011975
15470.0 0.001194
15490.0 0.0011907
15510.0 0.0011873
15530.0 0.0011839
15550.0 0.0011805
15570.0 0.0011773
15590.0 0.0011739
15610.0 0.0011705
15630.0 0.0011673
15650.0 0.001164
15670.0 0.0011607
15690.0 0.0011574
15710.0 0.0011542
15730.0 0.0011509
15750.0 0.0011476
15770.0 0.0011444
15790.0 0.0011412
15810.0 0.0011378
15830.0 0.0011346
15850.0 0.0011315
15870.0 0.0011282
15890.0 0.0011249
15910.0 0.0011218
15930.0 0.0011186
15950.0 0.0011153
15970.0 0.0011121
15990.0 0.0011089
16010.0 0.0011056
16030.0 0.0011023
16050.0 0.0010992
16070.0 0.001096
16090.0 0.0010927
16110.0 0.0010894
16130.0 0.0010863
16150.0 0.0010829
16170.0 0.0010796
16190.0 0.0010764
16210.0 0.0010732
16230.0 0.0010698
16250.0 0.0010665
16270.0 0.0010634
16290.0 0.00106
16310.0 0.0010566
16330.0 0.0010534
16350.0 0.0010501
16370.0 0.0010466
16390.0 0.0010433
16410.0 0.00104
16430.0 0.0010366
16450.0 0.0010332
16470.0 0.0010299
16490.0 0.0010265
16510.0 0.001023
16530.0 0.0010196
16550.0 0.0010163
16570.0 0.0010127
16590.0 0.0010092
16610.0 0.0010059
16630.0 0.0010024
16650.0 0.00099884
16670.0 0.00099541
16690.0 0.00099197
16710.0 0.0009883
16730.0 0.00098475
16750.0 0.00098128
16770.0 0.00097769
16790.0 0.00097401
16810.0 0.00097051
16830.0 0.00096697
16850.0 0.00096327
16870.0 0.00095965
16890.0 0.00095611
16910.0 0.00095238
16930.0 0.0009486
16950.0 0.000945
16970.0 0.00094134
16990.0 0.00093755
17010.0 0.00093384
17030.0 0.00093023
17050.0 0.00092642
17070.0 0.0009226
17090.0 0.0009189
17110.0 0.00091514
17130.0 0.00091119
17150.0 0.0009074
17170.0 0.00090367
17190.0 0.00089979
17210.0 0.00089589
17230.0 0.00089214
17250.0 0.00088827
17270.0 0.00088427
17290.0 0.00088039
17310.0 0.00087655
17330.0 0.00087256
17350.0 0.00086854
17370.0 0.00086472
17390.0 0.00086078
17410.0 0.00085673
17430.0 0.00085279
17450.0 0.00084891
17470.0 0.00084477
17490.0 0.0008407
17510.0 0.00083677
17530.0 0.00083274
17550.0 0.0008286
17570.0 0.00082461
17590.0 0.00082064
17610.0 0.00081648
17630.0 0.00081238
17650.0 0.00080838
17670.0 0.00080427
17690.0 0.00079999
17710.0 0.00079596
17730.0 0.0007919
17750.0 0.0007877
17770.0 0.00078354
17790.0 0.00077953
17810.0 0.00077532
17830.0 0.00077107
17850.0 0.00076695
17870.0 0.00076282
17890.0 0.00075853
17910.0 0.0007543
17930.0 0.00075023
17950.0 0.00074601
17970.0 0.00074174
17990.0 0.00073761
18010.0 0.00073345
18030.0 0.00072908
18050.0 0.00072485
18070.0 0.0007207
18090.0 0.00071643
18110.0 0.0007121
18130.0 0.00070795
18150.0 0.00070375
18170.0 0.00069942
18190.0 0.00069517
18210.0 0.00069101
18230.0 0.00068667
18250.0 0.0006823
18270.0 0.00067813
18290.0 0.00067389
18310.0 0.00066954
18330.0 0.00066529
18350.0 0.00066113
18370.0 0.00065678
18390.0 0.00065245
18410.0 0.00064825
18430.0 0.000644
18450.0 0.00063958
18470.0 0.00063533
18490.0 0.00063114
18510.0 0.00062682
18530.0 0.00062251
18550.0 0.00061834
18570.0 0.00061406
18590.0 0.00060967
18610.0 0.00060543
18630.0 0.00060122
18650.0 0.00059688
18670.0 0.00059254
18690.0 0.0005884
18710.0 0.00058414
18730.0 0.00057981
18750.0 0.00057559
18770.0 0.00057143
18790.0 0.00056703
18810.0 0.00056274
18830.0 0.00055859
18850.0 0.00055433
18870.0 0.00055001
18890.0 0.00054584
18910.0 0.00054168
18930.0 0.00053737
18950.0 0.00053312
18970.0 0.00052899
18990.0 0.00052475
19010.0 0.00052038
19030.0 0.00051626
19050.0 0.00051211
19070.0 0.00050785
19090.0 0.00050365
19110.0 0.00049959
19130.0 0.00049534
19150.0 0.00049108
19170.0 0.00048696
19190.0 0.00048284
19210.0 0.00047857
19230.0 0.00047439
19250.0 0.00047036
19270.0 0.00046619
19290.0 0.00046199
19310.0 0.00045794
19330.0 0.00045387
19350.0 0.0004496
19370.0 0.00044549
19390.0 0.00044147
19410.0 0.00043733
19430.0 0.00043316
19450.0 0.00042917
19470.0 0.00042512
19490.0 0.00042097
19510.0 0.00041692
19530.0 0.00041295
19550.0 0.00040882
19570.0 0.00040468
19590.0 0.00040073
19610.0 0.00039672
19630.0 0.00039262
19650.0 0.00038864
19670.0 0.00038473
19690.0 0.00038065
19710.0 0.00037661
19730.0 0.0003727
19750.0 0.00036873
19770.0 0.00036463
19790.0 0.0003607
19810.0 0.00035682
19830.0 0.00035281
19850.0 0.00034881
19870.0 0.00034492
19890.0 0.00034083
19910.0 0.00033649
19930.0 0.00033209
19950.0 0.00032737
19970.0 0.000322
19990.0 0.00031606
20010.0 0.00030981
20030.0 0.00030279
20050.0 0.00029517
20070.0 0.00028748
20090.0 0.00027978
20110.0 0.00027174
20130.0 0.00026424
20150.0 0.0002574
20170.0 0.00025089
20190.0 0.00024487
20210.0 0.00023968
20230.0 0.00023507
20250.0 0.00023091
20270.0 0.00022744
20290.0 0.00022461
20310.0 0.00022227
20330.0 0.00022044
20350.0 0.00021923
20370.0 0.00021847
20390.0 0.00021817
20410.0 0.00021834
20430.0 0.00021892
20450.0 0.00021997
20470.0 0.00022146
20490.0 0.00022329
20510.0 0.00022552
20530.0 0.00022823
20550.0 0.00023122
20570.0 0.0002344
20590.0 0.00023799
20610.0 0.00024184
20630.0 0.00024572
20650.0 0.00024976
20670.0 0.0002541
20690.0 0.00025825
20710.0 0.0002623
20730.0 0.0002664
20750.0 0.00027042
20770.0 0.00027412
20790.0 0.00027779
20810.0 0.00028146
20830.0 0.00028494
20850.0 0.00028832
20870.0 0.00029186
20890.0 0.00029546
20910.0 0.00029895
20930.0 0.00030263
20950.0 0.00030654
20970.0 0.00031044
20990.0 0.00031436
21010.0 0.00031855
21030.0 0.00032267
21050.0 0.00032658
21070.0 0.00033042
21090.0 0.00033415
21110.0 0.00033738
21130.0 0.00034021
21150.0 0.00034272
21170.0 0.0003447
21190.0 0.00034611
21210.0 0.00034705
21230.0 0.00034742
21250.0 0.0003472
21270.0 0.00034646
21290.0 0.00034515
21310.0 0.00034332
21330.0 0.0003411
21350.0 0.00033836
21370.0 0.00033516
21390.0 0.00033168
21410.0 0.0003279
21430.0 0.00032361
21450.0 0.00031922
21470.0 0.00031481
21490.0 0.00031016
21510.0 0.00030541
21530.0 0.00030088
21550.0 0.0002964
21570.0 0.00029192
21590.0 0.00028776
21610.0 0.00028398
21630.0 0.00028043
21650.0 0.00027721
21670.0 0.00027464
21690.0 0.00027249
21710.0 0.00027081
21730.0 0.00026971
21750.0 0.00026915
21770.0 0.00026915
21790.0 0.00026974
21810.0 0.00027084
21830.0 0.00027248
21850.0 0.00027471
21870.0 0.00027738
21890.0 0.00028038
21910.0 0.00028393
21930.0 0.00028786
21950.0 0.00029196
21970.0 0.00029641
21990.0 0.00030134
22010.0 0.00030622
22030.0 0.00031118
22050.0 0.00031638
22070.0 0.00032164
22090.0 0.00032663
22110.0 0.00033167
22130.0 0.00033671
22150.0 0.00034141
22170.0 0.0003458
22190.0 0.00035008
22210.0 0.00035395
22230.0 0.00035721
22250.0 0.00036008
22270.0 0.00036247
22290.0 0.0003642
22310.0 0.00036532
22330.0 0.00036582
22350.0 0.0003656
22370.0 0.0003647
22390.0 0.00036307
22410.0 0.00036062
22430.0 0.00035757
22450.0 0.00035388
22470.0 0.00034938
22490.0 0.00034429
22510.0 0.00033881
22530.0 0.00033256
22550.0 0.00032568
22570.0 0.00031867
22590.0 0.00031131
22610.0 0.0003034
22630.0 0.00029536
22650.0 0.00028751
22670.0 0.00027927
22690.0 0.00027092
22710.0 0.0002629
22730.0 0.000255
22750.0 0.00024682
22770.0 0.00023919
22790.0 0.00023207
22810.0 0.00022507
22830.0 0.00021841
22850.0 0.00021249
22870.0 0.00020698
22890.0 0.00020184
22910.0 0.00019744
22930.0 0.00019375
22950.0 0.00019061
22970.0 0.00018815
22990.0 0.00018658
23010.0 0.00018567
23030.0 0.00018552
23050.0 0.00018612
23070.0 0.0001874
23090.0 0.00018948
23110.0 0.00019226
23130.0 0.00019556
23150.0 0.00019944
23170.0 0.00020398
23190.0 0.00020879
23210.0 0.00021378
23230.0 0.00021919
23250.0 0.00022472
23270.0 0.00023007
23290.0 0.00023543
23310.0 0.00024083
23330.0 0.00024567
23350.0 0.00025011
