#lamb flux
1010.0 4.8151e-06
1030.0 5.2737e-06
1050.0 5.8014e-06
1070.0 6.3953e-06
1090.0 7.07e-06
1110.0 7.7621e-06
1130.0 8.4587e-06
1150.0 9.1885e-06
1170.0 9.9414e-06
1190.0 1.0655e-05
1210.0 1.1379e-05
1230.0 1.2127e-05
1250.0 1.2861e-05
1270.0 1.3573e-05
1290.0 1.4325e-05
1310.0 1.5077e-05
1330.0 1.5799e-05
1350.0 1.6529e-05
1370.0 1.7283e-05
1390.0 1.8018e-05
1410.0 1.8731e-05
1430.0 1.9477e-05
1450.0 2.0223e-05
1470.0 2.0944e-05
1490.0 2.1673e-05
1510.0 2.2443e-05
1530.0 2.3173e-05
1550.0 2.3893e-05
1570.0 2.4638e-05
1590.0 2.5383e-05
1610.0 2.6095e-05
1630.0 2.6829e-05
1650.0 2.7582e-05
1670.0 2.831e-05
1690.0 2.9027e-05
1710.0 2.9772e-05
1730.0 3.052e-05
1750.0 3.1222e-05
1770.0 3.1943e-05
1790.0 3.2677e-05
1810.0 3.3386e-05
1830.0 3.408e-05
1850.0 3.4814e-05
1870.0 3.5526e-05
1890.0 3.621e-05
1910.0 3.6905e-05
1930.0 3.7612e-05
1950.0 3.8281e-05
1970.0 3.8936e-05
1990.0 3.9611e-05
2010.0 4.0267e-05
2030.0 4.089e-05
2050.0 4.1526e-05
2070.0 4.2171e-05
2090.0 4.2763e-05
2110.0 4.3344e-05
2130.0 4.3932e-05
2150.0 4.4495e-05
2170.0 4.5014e-05
2190.0 4.5543e-05
2210.0 4.6061e-05
2230.0 4.6535e-05
2250.0 4.6988e-05
2270.0 4.7452e-05
2290.0 4.7874e-05
2310.0 4.8249e-05
2330.0 4.8624e-05
2350.0 4.8982e-05
2370.0 4.9292e-05
2390.0 4.9589e-05
2410.0 4.9902e-05
2430.0 5.0188e-05
2450.0 5.0463e-05
2470.0 5.0787e-05
2490.0 5.1198e-05
2510.0 5.1711e-05
2530.0 5.255e-05
2550.0 5.4065e-05
2570.0 5.6586e-05
2590.0 6.0498e-05
2610.0 6.6852e-05
2630.0 7.5808e-05
2650.0 8.6773e-05
2670.0 9.9786e-05
2690.0 0.00011425
2710.0 0.00012806
2730.0 0.00014025
2750.0 0.00015104
2770.0 0.00015938
2790.0 0.00016529
2810.0 0.00016964
2830.0 0.0001731
2850.0 0.00017554
2870.0 0.00017761
2890.0 0.00017969
2910.0 0.0001817
2930.0 0.00018349
2950.0 0.00018542
2970.0 0.00018742
2990.0 0.00018924
3010.0 0.0017381
3030.0 0.001755
3050.0 0.0017711
3070.0 0.0017832
3090.0 0.001793
3110.0 0.0017971
3130.0 0.0017911
3150.0 0.0017729
3170.0 0.0017383
3190.0 0.0016878
3210.0 0.0016258
3230.0 0.0015597
3250.0 0.0015535
3270.0 0.0015039
3290.0 0.0015631
3310.0 0.0015066
3330.0 0.0015355
3350.0 0.0015873
3370.0 0.001655
3390.0 0.0017354
3410.0 0.0018185
3430.0 0.0019074
3450.0 0.0020031
3470.0 0.0020993
3490.0 0.0021919
3510.0 0.0023088
3530.0 0.0024487
3550.0 0.0025371
3570.0 0.0026023
3590.0 0.0027736
3610.0 0.0028163
3630.0 0.0030276
3650.0 0.0031834
3670.0 0.0033486
3690.0 0.0033747
3710.0 0.0032809
3730.0 0.003329
3750.0 0.0033293
3770.0 0.0034665
3790.0 0.003671
3810.0 0.0040837
3830.0 0.0049411
3850.0 0.0058852
3870.0 0.006776
3890.0 0.007362
3910.0 0.0076354
3930.0 0.0079423
3950.0 0.0082557
3970.0 0.0072398
3990.0 0.0049174
4010.0 0.0042522
4030.0 0.0058099
4050.0 0.0073246
4070.0 0.0065103
4090.0 0.0040133
4110.0 0.0039048
4130.0 0.0055528
4150.0 0.0062947
4170.0 0.0052993
4190.0 0.0045215
4210.0 0.005932
4230.0 0.0062297
4250.0 0.005917
4270.0 0.0059612
4290.0 0.0054354
4310.0 0.0061017
4330.0 0.0071114
4350.0 0.0081685
4370.0 0.0081335
4390.0 0.0079284
4410.0 0.0069977
4430.0 0.0055199
4450.0 0.0042016
4470.0 0.004558
4490.0 0.0049335
4510.0 0.0067578
4530.0 0.007047
4550.0 0.0069371
4570.0 0.0080599
4590.0 0.010278
4610.0 0.014062
4630.0 0.017249
4650.0 0.017414
4670.0 0.017978
4690.0 0.019376
4710.0 0.018974
4730.0 0.015293
4750.0 0.010904
4770.0 0.0091048
4790.0 0.0080277
4810.0 0.0076082
4830.0 0.0083135
4850.0 0.0093368
4870.0 0.010961
4890.0 0.012035
4910.0 0.010715
4930.0 0.011151
4950.0 0.013863
4970.0 0.017173
4990.0 0.019735
5010.0 0.019727
5030.0 0.016706
5050.0 0.012095
5070.0 0.0088622
5090.0 0.0076659
5110.0 0.0078683
5130.0 0.00857
5150.0 0.0080689
5170.0 0.0080378
5190.0 0.0080031
5210.0 0.008144
5230.0 0.0088032
5250.0 0.009077
5270.0 0.009768
5290.0 0.011708
5310.0 0.013256
5330.0 0.013984
5350.0 0.014247
5370.0 0.015197
5390.0 0.015785
5410.0 0.014491
5430.0 0.013184
5450.0 0.013453
5470.0 0.015918
5490.0 0.020384
5510.0 0.024462
5530.0 0.025718
5550.0 0.024935
5570.0 0.023536
5590.0 0.022004
5610.0 0.021017
5630.0 0.02135
5650.0 0.022018
5670.0 0.021281
5690.0 0.020005
5710.0 0.019488
5730.0 0.017211
5750.0 0.013718
5770.0 0.012474
5790.0 0.014031
5810.0 0.015593
5830.0 0.017382
5850.0 0.017834
5870.0 0.017338
5890.0 0.016403
5910.0 0.015261
5930.0 0.015199
5950.0 0.016022
5970.0 0.016338
5990.0 0.014409
6010.0 0.011726
6030.0 0.0094971
6050.0 0.0085936
6070.0 0.0091106
6090.0 0.010232
6110.0 0.010484
6130.0 0.0098198
6150.0 0.0097328
6170.0 0.010759
6190.0 0.012557
6210.0 0.01504
6230.0 0.016979
6250.0 0.016108
6270.0 0.014064
6290.0 0.011745
6310.0 0.0093144
6330.0 0.0078903
6350.0 0.0077903
6370.0 0.0085504
6390.0 0.0094331
6410.0 0.011036
6430.0 0.013582
6450.0 0.016723
6470.0 0.01962
6490.0 0.022178
6510.0 0.023505
6530.0 0.022679
6550.0 0.021787
6570.0 0.021891
6590.0 0.021762
6610.0 0.020712
6630.0 0.019509
6650.0 0.01815
6670.0 0.017978
6690.0 0.017525
6710.0 0.016205
6730.0 0.014098
6750.0 0.012565
6770.0 0.01296
6790.0 0.013836
6810.0 0.015033
6830.0 0.015326
6850.0 0.014404
6870.0 0.01398
6890.0 0.013698
6910.0 0.012944
6930.0 0.0125
6950.0 0.012594
6970.0 0.012864
6990.0 0.013604
7010.0 0.014645
7030.0 0.014357
7050.0 0.013012
7070.0 0.01169
7090.0 0.0099893
7110.0 0.0088974
7130.0 0.0093495
7150.0 0.010129
7170.0 0.010321
7190.0 0.010085
7210.0 0.0099798
7230.0 0.011206
7250.0 0.012762
7270.0 0.013736
7290.0 0.013862
7310.0 0.013183
7330.0 0.012108
7350.0 0.011198
7370.0 0.010636
7390.0 0.010518
7410.0 0.011244
7430.0 0.012952
7450.0 0.01446
7470.0 0.016278
7490.0 0.018611
7510.0 0.017803
7530.0 0.015013
7550.0 0.012673
7570.0 0.010551
7590.0 0.0087414
7610.0 0.008473
7630.0 0.00891
7650.0 0.0098454
7670.0 0.011294
7690.0 0.01245
7710.0 0.01406
7730.0 0.014716
7750.0 0.015243
7770.0 0.016144
7790.0 0.016318
7810.0 0.016095
7830.0 0.015262
7850.0 0.014934
7870.0 0.014468
7890.0 0.013313
7910.0 0.012147
7930.0 0.011058
7950.0 0.0095071
7970.0 0.0090498
7990.0 0.0093594
8010.0 0.01086
8030.0 0.010936
8050.0 0.011369
8070.0 0.011192
8090.0 0.011203
8110.0 0.010939
8130.0 0.01034
8150.0 0.0096212
8170.0 0.0095483
8190.0 0.0096856
8210.0 0.0097977
8230.0 0.0091861
8250.0 0.0086409
8270.0 0.0076149
8290.0 0.0062634
8310.0 0.0049637
8330.0 0.0035586
8350.0 0.0026777
8370.0 0.002519
8390.0 0.0027814
8410.0 0.0032864
8430.0 0.0041276
8450.0 0.0045631
8470.0 0.0048952
8490.0 0.0053869
8510.0 0.0057825
8530.0 0.0064214
8550.0 0.0075928
8570.0 0.0086735
8590.0 0.0095175
8610.0 0.01096
8630.0 0.01269
8650.0 0.013381
8670.0 0.013592
8690.0 0.01354
8710.0 0.013084
8730.0 0.012555
8750.0 0.011784
8770.0 0.011593
8790.0 0.011221
8810.0 0.010387
8830.0 0.0098243
8850.0 0.0085688
8870.0 0.0078578
8890.0 0.007241
8910.0 0.0079491
8930.0 0.0075269
8950.0 0.0076697
8970.0 0.0078209
8990.0 0.0077761
9010.0 0.0078801
9030.0 0.0076038
9050.0 0.0075845
9070.0 0.0075922
9090.0 0.0075998
9110.0 0.0076106
9130.0 0.0076187
9150.0 0.0076258
9170.0 0.0076223
9190.0 0.0076042
9210.0 0.0076837
9230.0 0.0076762
9250.0 0.0076781
9270.0 0.0076827
9290.0 0.0076893
9310.0 0.0076972
9330.0 0.0077062
9350.0 0.007716
9370.0 0.0077263
9390.0 0.0077368
9410.0 0.0077478
9430.0 0.0077593
9450.0 0.0077709
9470.0 0.0077828
9490.0 0.0077952
9510.0 0.0078079
9530.0 0.0078207
9550.0 0.0078343
9570.0 0.0078482
9590.0 0.0078623
9610.0 0.0078768
9630.0 0.0078919
9650.0 0.0079074
9670.0 0.0079228
9690.0 0.007939
9710.0 0.0079557
9730.0 0.0079725
9750.0 0.0079897
9770.0 0.0080078
9790.0 0.0080258
9810.0 0.0080441
9830.0 0.008063
9850.0 0.0080823
9870.0 0.0081016
9890.0 0.0081213
9910.0 0.0081417
9930.0 0.008162
9950.0 0.0081774
9970.0 0.0082001
9990.0 0.0082229
10010.0 0.0082438
10030.0 0.008266
10050.0 0.0082854
10070.0 0.0082891
10090.0 0.0083177
10110.0 0.0083457
10130.0 0.008372
10150.0 0.0083974
10170.0 0.0084215
10190.0 0.0084443
10210.0 0.0084675
10230.0 0.0084907
10250.0 0.0085131
10270.0 0.0085354
10290.0 0.0085582
10310.0 0.0085804
10330.0 0.0086018
10350.0 0.0086238
10370.0 0.0086457
10390.0 0.0086667
10410.0 0.0086876
10430.0 0.008709
10450.0 0.0087294
10470.0 0.0087492
10490.0 0.0087691
10510.0 0.0087888
10530.0 0.008807
10550.0 0.0088252
10570.0 0.0088436
10590.0 0.008861
10610.0 0.0088775
10630.0 0.0088942
10650.0 0.0089102
10670.0 0.0089249
10690.0 0.0089394
10710.0 0.0089537
10730.0 0.0089668
10750.0 0.0089787
10770.0 0.0089911
10790.0 0.0090025
10810.0 0.0090124
10830.0 0.0090216
10850.0 0.0090299
10870.0 0.0090343
10890.0 0.009034
10910.0 0.0090267
10930.0 0.0090069
10950.0 0.0089662
10970.0 0.008901
10990.0 0.0088093
11010.0 0.0088736
11030.0 0.0086893
11050.0 0.008478
11070.0 0.0082362
11090.0 0.0079572
11110.0 0.0076805
11130.0 0.0074044
11150.0 0.007122
11170.0 0.0068487
11190.0 0.0066018
11210.0 0.0063659
11230.0 0.0061449
11250.0 0.0059533
11270.0 0.0057866
11290.0 0.0056355
11310.0 0.0055057
11330.0 0.0054004
11350.0 0.005306
11370.0 0.00522
11390.0 0.0051429
11410.0 0.0050689
11430.0 0.0049892
11450.0 0.0049062
11470.0 0.0048189
11490.0 0.0047216
11510.0 0.004612
11530.0 0.0044985
11550.0 0.0043789
11570.0 0.0042489
11590.0 0.0041163
11610.0 0.0039863
11630.0 0.0038522
11650.0 0.0037177
11670.0 0.0035934
11690.0 0.0034747
11710.0 0.0033589
11730.0 0.0032517
11750.0 0.0031555
11770.0 0.0030627
11790.0 0.0029755
11810.0 0.0028966
11830.0 0.0028224
11850.0 0.0027484
11870.0 0.0026792
11890.0 0.0026135
11910.0 0.0025466
11930.0 0.0024789
11950.0 0.002413
11970.0 0.0023457
11990.0 0.0022748
12010.0 0.0022047
12030.0 0.0021357
12050.0 0.0020651
12070.0 0.0019945
12090.0 0.0019302
12110.0 0.0018685
12130.0 0.0018101
12150.0 0.0017592
12170.0 0.0017166
12190.0 0.0016805
12210.0 0.0016547
12230.0 0.0016398
12250.0 0.0016351
12270.0 0.0016419
12290.0 0.0016593
12310.0 0.0016855
12330.0 0.0017225
12350.0 0.0017679
12370.0 0.0018179
12390.0 0.0018734
12410.0 0.0019356
12430.0 0.0019951
12450.0 0.002053
12470.0 0.0021105
12490.0 0.0021638
12510.0 0.0022091
12530.0 0.0022498
12550.0 0.0022843
12570.0 0.0023097
12590.0 0.0023272
12610.0 0.0023379
12630.0 0.0023406
12650.0 0.0023356
12670.0 0.0023244
12690.0 0.002307
12710.0 0.0022846
12730.0 0.0022579
12750.0 0.0022262
12770.0 0.0021916
12790.0 0.002155
12810.0 0.0021156
12830.0 0.0020733
12850.0 0.0020307
12870.0 0.0019868
12890.0 0.0019398
12910.0 0.0018916
12930.0 0.0018429
12950.0 0.0017906
12970.0 0.0017353
12990.0 0.0016805
13010.0 0.001624
13030.0 0.0015648
13050.0 0.0015057
13070.0 0.0014489
13090.0 0.0013909
13110.0 0.0013344
13130.0 0.0012825
13150.0 0.0012342
13170.0 0.0011883
13190.0 0.0011493
13210.0 0.0011169
13230.0 0.0010895
13250.0 0.0010683
13270.0 0.0010536
13290.0 0.0010442
13310.0 0.00104
13330.0 0.0010405
13350.0 0.0010446
13370.0 0.0010518
13390.0 0.0010615
13410.0 0.0010715
13430.0 0.0010822
13450.0 0.0010929
13470.0 0.0011025
13490.0 0.0011105
13510.0 0.0011177
13530.0 0.0011231
13550.0 0.0011266
13570.0 0.0011289
13590.0 0.0011301
13610.0 0.0011304
13630.0 0.00113
13650.0 0.0011295
13670.0 0.0011288
13690.0 0.0011281
13710.0 0.0011275
13730.0 0.0011271
13750.0 0.0011267
13770.0 0.0011261
13790.0 0.0011253
13810.0 0.0011239
13830.0 0.0011217
13850.0 0.0011187
13870.0 0.0011144
13890.0 0.001109
13910.0 0.0011023
13930.0 0.0010941
13950.0 0.0010846
13970.0 0.0010746
13990.0 0.0010638
14010.0 0.0010523
14030.0 0.0010412
14050.0 0.0010303
14070.0 0.0010196
14090.0 0.00101
14110.0 0.0010015
14130.0 0.00099389
14150.0 0.00098736
14170.0 0.00098216
14190.0 0.00097801
14210.0 0.00097487
14230.0 0.00097284
14250.0 0.00097185
14270.0 0.00097201
14290.0 0.00097345
14310.0 0.00097597
14330.0 0.00097973
14350.0 0.00098496
14370.0 0.00099133
14390.0 0.00099856
14410.0 0.0010072
14430.0 0.0010169
14450.0 0.0010271
14470.0 0.001038
14490.0 0.0010503
14510.0 0.0010628
14530.0 0.0010756
14550.0 0.00109
14570.0 0.0011057
14590.0 0.0011223
14610.0 0.0011409
14630.0 0.0011627
14650.0 0.0011863
14670.0 0.0012122
14690.0 0.0012418
14710.0 0.0012749
14730.0 0.0013087
14750.0 0.0013456
14770.0 0.0013854
14790.0 0.0014256
14810.0 0.0014654
14830.0 0.0015077
14850.0 0.0015483
14870.0 0.0015855
14890.0 0.0016208
14910.0 0.0016535
14930.0 0.0016809
14950.0 0.0017033
14970.0 0.0017219
14990.0 0.0017352
15010.0 0.0017436
15030.0 0.0017483
15050.0 0.0017498
15070.0 0.0017487
15090.0 0.0017461
15110.0 0.0017423
15130.0 0.001738
15150.0 0.0017337
15170.0 0.001729
15190.0 0.0017242
15210.0 0.0017195
15230.0 0.001715
15250.0 0.0017102
15270.0 0.0017055
15290.0 0.0017011
15310.0 0.0016966
15330.0 0.001692
15350.0 0.0016876
15370.0 0.0016833
15390.0 0.0016787
15410.0 0.0016743
15430.0 0.0016701
15450.0 0.0016657
15470.0 0.0016613
15490.0 0.0016571
15510.0 0.0016529
15530.0 0.0016486
15550.0 0.0016443
15570.0 0.0016403
15590.0 0.001636
15610.0 0.0016316
15630.0 0.0016276
15650.0 0.0016235
15670.0 0.0016192
15690.0 0.0016151
15710.0 0.0016111
15730.0 0.0016069
15750.0 0.0016027
15770.0 0.0015987
15790.0 0.0015946
15810.0 0.0015904
15830.0 0.0015863
15850.0 0.0015823
15870.0 0.0015782
15890.0 0.001574
15910.0 0.0015701
15930.0 0.001566
15950.0 0.0015617
15970.0 0.0015577
15990.0 0.0015537
16010.0 0.0015495
16030.0 0.0015452
16050.0 0.0015413
16070.0 0.0015372
16090.0 0.001533
16110.0 0.0015289
16130.0 0.0015249
16150.0 0.0015206
16170.0 0.0015163
16190.0 0.0015123
16210.0 0.0015081
16230.0 0.0015037
16250.0 0.0014996
16270.0 0.0014955
16290.0 0.0014912
16310.0 0.0014869
16330.0 0.0014827
16350.0 0.0014784
16370.0 0.0014739
16390.0 0.0014697
16410.0 0.0014654
16430.0 0.001461
16450.0 0.0014566
16470.0 0.0014524
16490.0 0.0014479
16510.0 0.0014434
16530.0 0.001439
16550.0 0.0014346
16570.0 0.00143
16590.0 0.0014254
16610.0 0.001421
16630.0 0.0014165
16650.0 0.0014118
16670.0 0.0014073
16690.0 0.0014028
16710.0 0.001398
16730.0 0.0013933
16750.0 0.0013888
16770.0 0.001384
16790.0 0.0013792
16810.0 0.0013745
16830.0 0.0013699
16850.0 0.0013649
16870.0 0.0013601
16890.0 0.0013555
16910.0 0.0013505
16930.0 0.0013454
16950.0 0.0013407
16970.0 0.0013358
16990.0 0.0013307
17010.0 0.0013258
17030.0 0.0013209
17050.0 0.0013158
17070.0 0.0013107
17090.0 0.0013057
17110.0 0.0013007
17130.0 0.0012953
17150.0 0.0012902
17170.0 0.0012852
17190.0 0.00128
17210.0 0.0012747
17230.0 0.0012696
17250.0 0.0012644
17270.0 0.0012589
17290.0 0.0012537
17310.0 0.0012485
17330.0 0.001243
17350.0 0.0012376
17370.0 0.0012324
17390.0 0.001227
17410.0 0.0012215
17430.0 0.0012161
17450.0 0.0012108
17470.0 0.0012051
17490.0 0.0011995
17510.0 0.0011941
17530.0 0.0011886
17550.0 0.0011829
17570.0 0.0011774
17590.0 0.0011719
17610.0 0.0011662
17630.0 0.0011605
17650.0 0.001155
17670.0 0.0011493
17690.0 0.0011434
17710.0 0.0011378
17730.0 0.0011322
17750.0 0.0011264
17770.0 0.0011206
17790.0 0.0011151
17810.0 0.0011092
17830.0 0.0011033
17850.0 0.0010976
17870.0 0.0010918
17890.0 0.0010859
17910.0 0.00108
17930.0 0.0010743
17950.0 0.0010684
17970.0 0.0010624
17990.0 0.0010567
18010.0 0.0010509
18030.0 0.0010447
18050.0 0.0010388
18070.0 0.001033
18090.0 0.001027
18110.0 0.001021
18130.0 0.0010151
18150.0 0.0010093
18170.0 0.0010032
18190.0 0.00099721
18210.0 0.00099136
18230.0 0.00098526
18250.0 0.00097912
18270.0 0.00097325
18290.0 0.00096728
18310.0 0.00096116
18330.0 0.00095518
18350.0 0.00094931
18370.0 0.00094319
18390.0 0.00093708
18410.0 0.00093116
18430.0 0.00092515
18450.0 0.00091892
18470.0 0.00091292
18490.0 0.00090701
18510.0 0.0009009
18530.0 0.00089481
18550.0 0.00088893
18570.0 0.00088288
18590.0 0.00087667
18610.0 0.00087067
18630.0 0.00086472
18650.0 0.00085858
18670.0 0.00085244
18690.0 0.00084658
18710.0 0.00084055
18730.0 0.00083442
18750.0 0.00082846
18770.0 0.00082256
18790.0 0.00081634
18810.0 0.00081026
18830.0 0.00080437
18850.0 0.00079835
18870.0 0.00079223
18890.0 0.00078632
18910.0 0.00078043
18930.0 0.00077432
18950.0 0.00076831
18970.0 0.00076245
18990.0 0.00075645
19010.0 0.00075026
19030.0 0.00074442
19050.0 0.00073855
19070.0 0.00073251
19090.0 0.00072656
19110.0 0.00072081
19130.0 0.00071479
19150.0 0.00070877
19170.0 0.00070294
19190.0 0.00069709
19210.0 0.00069106
19230.0 0.00068514
19250.0 0.00067943
19270.0 0.00067353
19290.0 0.0006676
19310.0 0.00066186
19330.0 0.0006561
19350.0 0.00065007
19370.0 0.00064426
19390.0 0.00063857
19410.0 0.00063271
19430.0 0.00062682
19450.0 0.00062119
19470.0 0.00061548
19490.0 0.00060961
19510.0 0.0006039
19530.0 0.00059829
19550.0 0.00059246
19570.0 0.00058662
19590.0 0.00058105
19610.0 0.0005754
19630.0 0.00056962
19650.0 0.00056401
19670.0 0.0005585
19690.0 0.00055276
19710.0 0.00054707
19730.0 0.00054156
19750.0 0.00053598
19770.0 0.00053021
19790.0 0.00052468
19810.0 0.00051923
19830.0 0.00051359
19850.0 0.00050796
19870.0 0.00050247
19890.0 0.00049666
19910.0 0.00049046
19930.0 0.00048406
19950.0 0.00047709
19970.0 0.00046903
19990.0 0.00045992
20010.0 0.00045018
20030.0 0.00043913
20050.0 0.00042704
20070.0 0.00041482
20090.0 0.00040258
20110.0 0.00038985
20130.0 0.00037806
20150.0 0.00036739
20170.0 0.00035736
20190.0 0.0003482
20210.0 0.00034042
20230.0 0.00033362
20250.0 0.00032757
20270.0 0.00032263
20290.0 0.00031869
20310.0 0.00031551
20330.0 0.00031309
20350.0 0.00031156
20370.0 0.0003107
20390.0 0.0003105
20410.0 0.00031097
20430.0 0.00031201
20450.0 0.00031377
20470.0 0.00031618
20490.0 0.00031911
20510.0 0.00032266
20530.0 0.00032699
20550.0 0.00033179
20570.0 0.00033691
20590.0 0.00034273
20610.0 0.00034899
20630.0 0.00035531
20650.0 0.00036192
20670.0 0.00036899
20690.0 0.00037574
20710.0 0.00038227
20730.0 0.00038884
20750.0 0.00039519
20770.0 0.00040095
20790.0 0.00040656
20810.0 0.00041206
20830.0 0.00041716
20850.0 0.00042203
20870.0 0.00042707
20890.0 0.00043211
20910.0 0.00043697
20930.0 0.0004421
20950.0 0.00044754
20970.0 0.00045298
20990.0 0.00045845
21010.0 0.00046431
21030.0 0.00047006
21050.0 0.00047549
21070.0 0.00048076
21090.0 0.00048582
21110.0 0.00049009
21130.0 0.00049374
21150.0 0.00049683
21170.0 0.00049911
21190.0 0.00050054
21210.0 0.00050123
21230.0 0.00050109
21250.0 0.00050015
21270.0 0.00049847
21290.0 0.00049602
21310.0 0.0004929
21330.0 0.00048933
21350.0 0.00048511
21370.0 0.00048033
21390.0 0.00047529
21410.0 0.00046995
21430.0 0.00046402
21450.0 0.00045807
21470.0 0.00045219
21490.0 0.0004461
21510.0 0.00043997
21530.0 0.0004342
21550.0 0.00042858
21570.0 0.00042303
21590.0 0.00041796
21610.0 0.00041341
21630.0 0.00040921
21650.0 0.00040549
21670.0 0.00040259
21690.0 0.00040027
21710.0 0.00039858
21730.0 0.00039765
21750.0 0.00039742
21770.0 0.00039794
21790.0 0.00039922
21810.0 0.00040116
21830.0 0.0004038
21850.0 0.00040723
21870.0 0.00041121
21890.0 0.00041561
21910.0 0.00042073
21930.0 0.00042634
21950.0 0.00043215
21970.0 0.00043839
21990.0 0.00044525
22010.0 0.000452
22030.0 0.00045879
22050.0 0.00046589
22070.0 0.00047298
22090.0 0.00047966
22110.0 0.00048635
22130.0 0.00049297
22150.0 0.00049905
22170.0 0.00050465
22190.0 0.00051002
22210.0 0.00051474
22230.0 0.00051859
22250.0 0.00052183
22270.0 0.00052432
22290.0 0.00052587
22310.0 0.00052654
22330.0 0.00052628
22350.0 0.000525
22370.0 0.00052278
22390.0 0.00051952
22410.0 0.00051509
22430.0 0.00050989
22450.0 0.00050383
22470.0 0.00049664
22490.0 0.00048869
22510.0 0.00048029
22530.0 0.00047084
22550.0 0.00046059
22570.0 0.00045027
22590.0 0.00043954
22610.0 0.00042812
22630.0 0.0004166
22650.0 0.00040544
22670.0 0.00039381
22690.0 0.0003821
22710.0 0.00037092
22730.0 0.00035996
22750.0 0.00034868
22770.0 0.0003382
22790.0 0.00032845
22810.0 0.00031891
22830.0 0.00030987
22850.0 0.00030184
22870.0 0.0002944
22890.0 0.00028747
22910.0 0.00028157
22930.0 0.00027663
22950.0 0.00027246
22970.0 0.00026922
22990.0 0.00026717
23010.0 0.00026605
23030.0 0.00026594
23050.0 0.00026687
23070.0 0.00026869
23090.0 0.00027163
23110.0 0.0002755
23130.0 0.00028005
23150.0 0.0002854
23170.0 0.00029161
23190.0 0.00029817
23210.0 0.00030494
23230.0 0.00031227
23250.0 0.00031972
23270.0 0.0003269
23290.0 0.00033406
23310.0 0.00034124
23330.0 0.00034764
23350.0 0.00035346
23370.0 0.00035884
23390.0 0.00036345
23410.0 0.00036712
23430.0 0.00037008
23450.0 0.00037221
23470.0 0.00037338
23490.0 0.00037371
23510.0 0.00037315
23530.0 0.00037172
23550.0 0.0003696
23570.0 0.00036671
