#lamb flux
1010.0 3.2037e-05
1030.0 3.5021e-05
1050.0 3.847e-05
1070.0 4.2366e-05
1090.0 4.6807e-05
1110.0 5.139e-05
1130.0 5.6039e-05
1150.0 6.0943e-05
1170.0 6.6044e-05
1190.0 7.0942e-05
1210.0 7.5959e-05
1230.0 8.1197e-05
1250.0 8.6403e-05
1270.0 9.1539e-05
1290.0 9.7019e-05
1310.0 0.00010258
1330.0 0.00010802
1350.0 0.00011359
1370.0 0.00011943
1390.0 0.00012522
1410.0 0.00013096
1430.0 0.00013702
1450.0 0.00014317
1470.0 0.00014923
1490.0 0.00015543
1510.0 0.000162
1530.0 0.00016836
1550.0 0.00017471
1570.0 0.00018129
1590.0 0.00018791
1610.0 0.00019431
1630.0 0.00020088
1650.0 0.00020758
1670.0 0.00021407
1690.0 0.00022042
1710.0 0.00022691
1730.0 0.00023333
1750.0 0.00023929
1770.0 0.00024524
1790.0 0.00025113
1810.0 0.00025664
1830.0 0.00026181
1850.0 0.00026707
1870.0 0.0002719
1890.0 0.00027624
1910.0 0.00028037
1930.0 0.00028429
1950.0 0.00028761
1970.0 0.0002905
1990.0 0.00029322
2010.0 0.00029546
2030.0 0.00029714
2050.0 0.00029859
2070.0 0.00029978
2090.0 0.00030031
2110.0 0.00030046
2130.0 0.00030041
2150.0 0.00029994
2170.0 0.00029895
2190.0 0.00029783
2210.0 0.00029647
2230.0 0.00029468
2250.0 0.00029265
2270.0 0.00029061
2290.0 0.00028825
2310.0 0.00028557
2330.0 0.0002829
2350.0 0.00028014
2370.0 0.00027715
2390.0 0.00027411
2410.0 0.00027114
2430.0 0.00026795
2450.0 0.00026453
2470.0 0.00026095
2490.0 0.00025707
2510.0 0.0002528
2530.0 0.00024856
2550.0 0.00024502
2570.0 0.00024316
2590.0 0.00024419
2610.0 0.00025052
2630.0 0.00026333
2650.0 0.00028205
2670.0 0.00030717
2690.0 0.00033808
2710.0 0.00037028
2730.0 0.00040144
2750.0 0.00043238
2770.0 0.00046008
2790.0 0.00048363
2810.0 0.00050521
2830.0 0.00052663
2850.0 0.00054589
2870.0 0.00056498
2890.0 0.00058535
2910.0 0.00060619
2930.0 0.00062638
2950.0 0.00064796
2970.0 0.00067056
2990.0 0.00069268
3010.0 0.0015838
3030.0 0.0016366
3050.0 0.0016905
3070.0 0.001742
3090.0 0.0017959
3110.0 0.0018507
3130.0 0.0019026
3150.0 0.0019519
3170.0 0.0020008
3190.0 0.002043
3210.0 0.0020752
3230.0 0.0021047
3250.0 0.0020704
3270.0 0.0020931
3290.0 0.0020735
3310.0 0.0022538
3330.0 0.0024193
3350.0 0.0025999
3370.0 0.0028082
3390.0 0.0030427
3410.0 0.0032867
3430.0 0.0035488
3450.0 0.0038383
3470.0 0.0041454
3490.0 0.0044661
3510.0 0.0048053
3530.0 0.0051675
3550.0 0.0056335
3570.0 0.0061714
3590.0 0.0066178
3610.0 0.0071184
3630.0 0.007307
3650.0 0.007456
3670.0 0.0075484
3690.0 0.0077603
3710.0 0.0080004
3730.0 0.0078683
3750.0 0.0076356
3770.0 0.0073164
3790.0 0.0069441
3810.0 0.0064727
3830.0 0.005725
3850.0 0.0035768
3870.0 0.0049695
3890.0 0.0067753
3910.0 0.0083598
3930.0 0.0096405
3950.0 0.010234
3970.0 0.01067
3990.0 0.012819
4010.0 0.01212
4030.0 0.010614
4050.0 0.0094154
4070.0 0.0084763
4090.0 0.0099304
4110.0 0.010588
4130.0 0.010677
4150.0 0.010542
4170.0 0.0099159
4190.0 0.0093688
4210.0 0.011061
4230.0 0.012531
4250.0 0.012762
4270.0 0.01231
4290.0 0.012541
4310.0 0.013312
4330.0 0.01511
4350.0 0.016221
4370.0 0.015993
4390.0 0.013486
4410.0 0.011545
4430.0 0.0097886
4450.0 0.0085082
4470.0 0.0088503
4490.0 0.01104
4510.0 0.011965
4530.0 0.013146
4550.0 0.014147
4570.0 0.01751
4590.0 0.025455
4610.0 0.033251
4630.0 0.03334
4650.0 0.031225
4670.0 0.033609
4690.0 0.037904
4710.0 0.032041
4730.0 0.023248
4750.0 0.018074
4770.0 0.016895
4790.0 0.017238
4810.0 0.016023
4830.0 0.017421
4850.0 0.021256
4870.0 0.02605
4890.0 0.023757
4910.0 0.020297
4930.0 0.021871
4950.0 0.028779
4970.0 0.037952
4990.0 0.039278
5010.0 0.034338
5030.0 0.026381
5050.0 0.018855
5070.0 0.015583
5090.0 0.014537
5110.0 0.014554
5130.0 0.015205
5150.0 0.014954
5170.0 0.015313
5190.0 0.014639
5210.0 0.014878
5230.0 0.015984
5250.0 0.017198
5270.0 0.021225
5290.0 0.024658
5310.0 0.024398
5330.0 0.025036
5350.0 0.028434
5370.0 0.030839
5390.0 0.028326
5410.0 0.024021
5430.0 0.02252
5450.0 0.025895
5470.0 0.033538
5490.0 0.041574
5510.0 0.045148
5530.0 0.045372
5550.0 0.042758
5570.0 0.040001
5590.0 0.038615
5610.0 0.03897
5630.0 0.039385
5650.0 0.039102
5670.0 0.038804
5690.0 0.037613
5710.0 0.032775
5730.0 0.027407
5750.0 0.023161
5770.0 0.023531
5790.0 0.025613
5810.0 0.02744
5830.0 0.028208
5850.0 0.027747
5870.0 0.025388
5890.0 0.02202
5910.0 0.021776
5930.0 0.023877
5950.0 0.024062
5970.0 0.021664
5990.0 0.018516
6010.0 0.015043
6030.0 0.012623
6050.0 0.012717
6070.0 0.014674
6090.0 0.015468
6110.0 0.013754
6130.0 0.012774
6150.0 0.013896
6170.0 0.016769
6190.0 0.019968
6210.0 0.021246
6230.0 0.020333
6250.0 0.01867
6270.0 0.016094
6290.0 0.013345
6310.0 0.011158
6330.0 0.010291
6350.0 0.010876
6370.0 0.01147
6390.0 0.012149
6410.0 0.013971
6430.0 0.017602
6450.0 0.022185
6470.0 0.024749
6490.0 0.02426
6510.0 0.023881
6530.0 0.024752
6550.0 0.025028
6570.0 0.025449
6590.0 0.025547
6610.0 0.025093
6630.0 0.025374
6650.0 0.02525
6670.0 0.023977
6690.0 0.02126
6710.0 0.018064
6730.0 0.017753
6750.0 0.019256
6770.0 0.020739
6790.0 0.021259
6810.0 0.021072
6830.0 0.020729
6850.0 0.020304
6870.0 0.019069
6890.0 0.018166
6910.0 0.017243
6930.0 0.0168
6950.0 0.018119
6970.0 0.019463
6990.0 0.020403
7010.0 0.020511
7030.0 0.019292
7050.0 0.016753
7070.0 0.013596
7090.0 0.011589
7110.0 0.011325
7130.0 0.012129
7150.0 0.012069
7170.0 0.010944
7190.0 0.010842
7210.0 0.012009
7230.0 0.013929
7250.0 0.015837
7270.0 0.016541
7290.0 0.015317
7310.0 0.013531
7330.0 0.012418
7350.0 0.012262
7370.0 0.012632
7390.0 0.013127
7410.0 0.014016
7430.0 0.016109
7450.0 0.01877
7470.0 0.021251
7490.0 0.022242
7510.0 0.021508
7530.0 0.018077
7550.0 0.014924
7570.0 0.012543
7590.0 0.011167
7610.0 0.01169
7630.0 0.013609
7650.0 0.015631
7670.0 0.017592
7690.0 0.019083
7710.0 0.020338
7730.0 0.02156
7750.0 0.022724
7770.0 0.023345
7790.0 0.02334
7810.0 0.023777
7830.0 0.024735
7850.0 0.024585
7870.0 0.023847
7890.0 0.022372
7910.0 0.021005
7930.0 0.02024
7950.0 0.020041
7970.0 0.019842
7990.0 0.019948
8010.0 0.020414
8030.0 0.020572
8050.0 0.021061
8070.0 0.02086
8090.0 0.02088
8110.0 0.02007
8130.0 0.019984
8150.0 0.01954
8170.0 0.019033
8190.0 0.018795
8210.0 0.01896
8230.0 0.018038
8250.0 0.017093
8270.0 0.015014
8290.0 0.012096
8310.0 0.0092169
8330.0 0.0070325
8350.0 0.006302
8370.0 0.0072683
8390.0 0.0086206
8410.0 0.0095542
8430.0 0.010396
8450.0 0.010952
8470.0 0.011516
8490.0 0.012816
8510.0 0.014426
8530.0 0.016814
8550.0 0.019645
8570.0 0.022233
8590.0 0.02433
8610.0 0.025988
8630.0 0.026994
8650.0 0.027162
8670.0 0.027247
8690.0 0.028246
8710.0 0.029108
8730.0 0.02994
8750.0 0.029558
8770.0 0.029766
8790.0 0.029443
8810.0 0.027502
8830.0 0.026623
8850.0 0.025078
8870.0 0.023883
8890.0 0.023023
8910.0 0.02348
8930.0 0.022211
8950.0 0.021295
8970.0 0.020951
8990.0 0.020563
9010.0 0.020045
9030.0 0.019554
9050.0 0.01943
9070.0 0.019371
9090.0 0.019315
9110.0 0.019262
9130.0 0.019205
9150.0 0.019147
9170.0 0.019068
9190.0 0.018974
9210.0 0.019049
9230.0 0.018951
9250.0 0.018872
9270.0 0.018799
9290.0 0.01873
9310.0 0.018662
9330.0 0.018596
9350.0 0.018531
9370.0 0.018466
9390.0 0.0184
9410.0 0.018334
9430.0 0.018266
9450.0 0.018189
9470.0 0.018114
9490.0 0.018056
9510.0 0.017993
9530.0 0.017927
9550.0 0.017861
9570.0 0.017794
9590.0 0.017725
9610.0 0.017657
9630.0 0.017588
9650.0 0.017519
9670.0 0.017449
9690.0 0.01738
9710.0 0.01731
9730.0 0.01724
9750.0 0.017171
9770.0 0.017101
9790.0 0.017031
9810.0 0.016961
9830.0 0.016891
9850.0 0.016821
9870.0 0.016751
9890.0 0.016681
9910.0 0.016611
9930.0 0.016539
9950.0 0.01635
9970.0 0.016315
9990.0 0.016273
10010.0 0.016227
10030.0 0.016171
10050.0 0.016107
10070.0 0.016038
10090.0 0.015975
10110.0 0.015904
10130.0 0.015837
10150.0 0.015769
10170.0 0.015696
10190.0 0.01562
10210.0 0.015549
10230.0 0.01548
10250.0 0.015406
10270.0 0.015333
10290.0 0.015264
10310.0 0.015191
10330.0 0.015114
10350.0 0.015042
10370.0 0.01497
10390.0 0.014894
10410.0 0.014818
10430.0 0.014748
10450.0 0.014673
10470.0 0.014595
10490.0 0.01452
10510.0 0.014446
10530.0 0.014365
10550.0 0.014287
10570.0 0.014212
10590.0 0.014133
10610.0 0.014052
10630.0 0.013975
10650.0 0.013897
10670.0 0.013812
10690.0 0.01373
10710.0 0.013651
10730.0 0.013567
10750.0 0.013479
10770.0 0.013398
10790.0 0.013314
10810.0 0.013226
10830.0 0.013139
10850.0 0.013056
10870.0 0.012963
10890.0 0.012868
10910.0 0.012775
10930.0 0.012676
10950.0 0.012563
10970.0 0.012445
10990.0 0.012321
11010.0 0.011425
11030.0 0.011272
11050.0 0.011127
11070.0 0.01098
11090.0 0.010824
11110.0 0.010682
11130.0 0.010547
11150.0 0.010409
11170.0 0.010273
11190.0 0.010149
11210.0 0.010021
11230.0 0.0098901
11250.0 0.0097657
11270.0 0.009645
11290.0 0.0095185
11310.0 0.0093932
11330.0 0.0092792
11350.0 0.009163
11370.0 0.0090454
11390.0 0.0089347
11410.0 0.0088277
11430.0 0.0087131
11450.0 0.0086013
11470.0 0.0084931
11490.0 0.0083796
11510.0 0.0082582
11530.0 0.0081397
11550.0 0.0080181
11570.0 0.0078849
11590.0 0.0077478
11610.0 0.0076111
11630.0 0.0074629
11650.0 0.0073053
11670.0 0.0071525
11690.0 0.0069972
11710.0 0.006834
11730.0 0.0066728
11750.0 0.0065204
11770.0 0.0063636
11790.0 0.0062084
11810.0 0.006064
11830.0 0.0059256
11850.0 0.0057853
11870.0 0.0056569
11890.0 0.0055402
11910.0 0.0054259
11930.0 0.0053167
11950.0 0.0052188
11970.0 0.0051254
11990.0 0.0050327
12010.0 0.0049481
12030.0 0.0048704
12050.0 0.0047941
12070.0 0.0047205
12090.0 0.0046567
12110.0 0.0045962
12130.0 0.0045384
12150.0 0.0044876
12170.0 0.0044442
12190.0 0.0044037
12210.0 0.004371
12230.0 0.0043476
12250.0 0.0043317
12270.0 0.0043243
12290.0 0.0043273
12310.0 0.0043403
12330.0 0.0043637
12350.0 0.0043983
12370.0 0.0044427
12390.0 0.0044976
12410.0 0.0045656
12430.0 0.0046399
12450.0 0.0047211
12470.0 0.0048113
12490.0 0.0049065
12510.0 0.005001
12530.0 0.0050992
12550.0 0.0051989
12570.0 0.005293
12590.0 0.0053819
12610.0 0.0054675
12630.0 0.0055446
12650.0 0.0056094
12670.0 0.0056657
12690.0 0.0057116
12710.0 0.005745
12730.0 0.0057671
12750.0 0.0057779
12770.0 0.005777
12790.0 0.0057663
12810.0 0.0057456
12830.0 0.0057148
12850.0 0.0056785
12870.0 0.0056364
12890.0 0.0055871
12910.0 0.0055345
12930.0 0.005481
12950.0 0.0054229
12970.0 0.0053618
12990.0 0.0053029
13010.0 0.0052432
13030.0 0.0051806
13050.0 0.0051185
13070.0 0.0050583
13090.0 0.0049949
13110.0 0.0049302
13130.0 0.0048676
13150.0 0.004805
13170.0 0.0047395
13190.0 0.0046779
13210.0 0.0046206
13230.0 0.0045648
13250.0 0.0045135
13270.0 0.0044702
13290.0 0.0044332
13310.0 0.004403
13330.0 0.0043828
13350.0 0.0043717
13370.0 0.004369
13390.0 0.0043748
13410.0 0.0043868
13430.0 0.0044036
13450.0 0.0044235
13470.0 0.0044431
13490.0 0.0044598
13510.0 0.0044726
13530.0 0.0044776
13550.0 0.0044737
13570.0 0.0044599
13590.0 0.0044345
13610.0 0.0043992
13630.0 0.0043554
13650.0 0.0043009
13670.0 0.0042393
13690.0 0.0041745
13710.0 0.0041052
13730.0 0.0040308
13750.0 0.0039608
13770.0 0.0038931
13790.0 0.0038263
13810.0 0.0037641
13830.0 0.0037089
13850.0 0.0036569
13870.0 0.0036094
13890.0 0.0035685
13910.0 0.0035326
13930.0 0.0035
13950.0 0.0034719
13970.0 0.0034485
13990.0 0.0034274
14010.0 0.0034087
14030.0 0.0033927
14050.0 0.0033784
14070.0 0.0033648
14090.0 0.0033522
14110.0 0.0033403
14130.0 0.0033282
14150.0 0.0033155
14170.0 0.0033027
14190.0 0.0032892
14210.0 0.0032745
14230.0 0.0032594
14250.0 0.0032441
14270.0 0.003228
14290.0 0.0032119
14310.0 0.0031969
14330.0 0.0031826
14350.0 0.0031691
14370.0 0.0031573
14390.0 0.0031471
14410.0 0.0031381
14430.0 0.0031306
14450.0 0.0031244
14470.0 0.0031192
14490.0 0.0031147
14510.0 0.0031107
14530.0 0.0031069
14550.0 0.0031034
14570.0 0.0031002
14590.0 0.0030974
14610.0 0.0030952
14630.0 0.0030944
14650.0 0.0030949
14670.0 0.0030972
14690.0 0.0031023
14710.0 0.0031107
14730.0 0.0031214
14750.0 0.0031361
14770.0 0.0031554
14790.0 0.0031784
14810.0 0.0032049
14830.0 0.0032386
14850.0 0.0032768
14870.0 0.0033179
14890.0 0.0033638
14910.0 0.0034143
14930.0 0.0034638
14950.0 0.0035107
14970.0 0.0035558
14990.0 0.0035936
15010.0 0.0036216
15030.0 0.0036413
15050.0 0.0036528
15070.0 0.0036555
15090.0 0.0036529
15110.0 0.0036466
15130.0 0.0036378
15150.0 0.0036276
15170.0 0.0036167
15190.0 0.0036054
15210.0 0.003594
15230.0 0.0035826
15250.0 0.003571
15270.0 0.0035594
15290.0 0.0035479
15310.0 0.0035363
15330.0 0.0035246
15350.0 0.003513
15370.0 0.0035014
15390.0 0.0034897
15410.0 0.003478
15430.0 0.0034664
15450.0 0.0034546
15470.0 0.0034429
15490.0 0.0034312
15510.0 0.0034195
15530.0 0.0034077
15550.0 0.003396
15570.0 0.0033844
15590.0 0.0033726
15610.0 0.0033608
15630.0 0.0033491
15650.0 0.0033374
15670.0 0.0033256
15690.0 0.0033139
15710.0 0.0033022
15730.0 0.0032905
15750.0 0.0032788
15770.0 0.0032671
15790.0 0.0032555
15810.0 0.0032437
15830.0 0.003232
15850.0 0.0032205
15870.0 0.0032088
15890.0 0.0031972
15910.0 0.0031856
15930.0 0.003174
15950.0 0.0031624
15970.0 0.0031509
15990.0 0.0031394
16010.0 0.0031278
16030.0 0.0031163
16050.0 0.0031049
16070.0 0.0030935
16090.0 0.003082
16110.0 0.0030706
16130.0 0.0030593
16150.0 0.0030479
16170.0 0.0030366
16190.0 0.0030253
16210.0 0.0030141
16230.0 0.0030028
16250.0 0.0029916
16270.0 0.0029805
16290.0 0.0029693
16310.0 0.0029581
16330.0 0.0029471
16350.0 0.0029361
16370.0 0.0029249
16390.0 0.002914
16410.0 0.0029031
16430.0 0.0028921
16450.0 0.0028812
16470.0 0.0028704
16490.0 0.0028596
16510.0 0.0028488
16530.0 0.0028381
16550.0 0.0028274
16570.0 0.0028167
16590.0 0.002806
16610.0 0.0027955
16630.0 0.0027849
16650.0 0.0027744
16670.0 0.0027639
16690.0 0.0027535
16710.0 0.002743
16730.0 0.0027327
16750.0 0.0027224
16770.0 0.0027121
16790.0 0.0027018
16810.0 0.0026917
16830.0 0.0026815
16850.0 0.0026714
16870.0 0.0026613
16890.0 0.0026513
16910.0 0.0026413
16930.0 0.0026313
16950.0 0.0026214
16970.0 0.0026116
16990.0 0.0026017
17010.0 0.002592
17030.0 0.0025823
17050.0 0.0025726
17070.0 0.0025629
17090.0 0.0025533
17110.0 0.0025438
17130.0 0.0025342
17150.0 0.0025248
17170.0 0.0025154
17190.0 0.002506
17210.0 0.0024966
17230.0 0.0024874
17250.0 0.0024781
17270.0 0.0024689
17290.0 0.0024597
17310.0 0.0024506
17330.0 0.0024415
17350.0 0.0024325
17370.0 0.0024236
17390.0 0.0024146
17410.0 0.0024057
17430.0 0.0023969
17450.0 0.0023881
17470.0 0.0023793
17490.0 0.0023706
17510.0 0.0023619
17530.0 0.0023533
17550.0 0.0023447
17570.0 0.0023362
17590.0 0.0023277
17610.0 0.0023192
17630.0 0.0023108
17650.0 0.0023025
17670.0 0.0022942
17690.0 0.0022859
17710.0 0.0022777
17730.0 0.0022695
17750.0 0.0022614
17770.0 0.0022533
17790.0 0.0022453
17810.0 0.0022372
17830.0 0.0022292
17850.0 0.0022213
17870.0 0.0022135
17890.0 0.0022056
17910.0 0.0021978
17930.0 0.0021901
17950.0 0.0021824
17970.0 0.0021747
17990.0 0.0021671
18010.0 0.0021596
18030.0 0.002152
18050.0 0.0021445
18070.0 0.0021371
18090.0 0.0021297
18110.0 0.0021223
18130.0 0.002115
18150.0 0.0021077
18170.0 0.0021005
18190.0 0.0020933
18210.0 0.0020862
18230.0 0.002079
18250.0 0.0020719
18270.0 0.0020649
18290.0 0.0020579
18310.0 0.0020509
18330.0 0.002044
18350.0 0.0020372
18370.0 0.0020303
18390.0 0.0020235
18410.0 0.0020168
18430.0 0.0020101
18450.0 0.0020034
18470.0 0.0019967
18490.0 0.0019902
18510.0 0.0019836
18530.0 0.0019771
18550.0 0.0019706
18570.0 0.0019642
18590.0 0.0019577
18610.0 0.0019514
18630.0 0.0019451
18650.0 0.0019387
18670.0 0.0019325
18690.0 0.0019263
18710.0 0.0019201
18730.0 0.0019139
18750.0 0.0019078
18770.0 0.0019018
18790.0 0.0018957
18810.0 0.0018897
18830.0 0.0018838
18850.0 0.0018778
18870.0 0.0018719
18890.0 0.001866
18910.0 0.0018603
18930.0 0.0018544
18950.0 0.0018487
18970.0 0.001843
18990.0 0.0018373
19010.0 0.0018315
19030.0 0.001826
19050.0 0.0018204
19070.0 0.0018148
19090.0 0.0018093
19110.0 0.0018038
19130.0 0.0017984
19150.0 0.0017929
19170.0 0.0017875
19190.0 0.0017822
19210.0 0.0017768
19230.0 0.0017715
19250.0 0.0017663
19270.0 0.001761
19290.0 0.0017558
19310.0 0.0017507
19330.0 0.0017455
19350.0 0.0017404
19370.0 0.0017353
19390.0 0.0017303
19410.0 0.0017252
19430.0 0.0017202
19450.0 0.0017153
19470.0 0.0017103
19490.0 0.0017054
19510.0 0.0017005
19530.0 0.0016957
19550.0 0.0016909
19570.0 0.001686
19590.0 0.0016813
19610.0 0.0016766
19630.0 0.0016718
19650.0 0.0016672
19670.0 0.0016626
19690.0 0.0016579
19710.0 0.0016533
19730.0 0.0016487
19750.0 0.0016442
19770.0 0.0016396
19790.0 0.0016351
19810.0 0.0016307
19830.0 0.0016262
19850.0 0.0016217
19870.0 0.0016171
19890.0 0.0016121
19910.0 0.0016066
19930.0 0.0016002
19950.0 0.0015926
19970.0 0.0015827
19990.0 0.0015704
20010.0 0.0015558
20030.0 0.0015381
20050.0 0.0015172
20070.0 0.0014947
20090.0 0.0014707
20110.0 0.0014441
20130.0 0.0014175
20150.0 0.0013916
20170.0 0.0013653
20190.0 0.001339
20210.0 0.0013143
20230.0 0.0012904
20250.0 0.0012664
20270.0 0.0012439
20290.0 0.0012229
20310.0 0.0012024
20330.0 0.0011825
20350.0 0.0011649
20370.0 0.0011482
20390.0 0.0011323
20410.0 0.0011179
20430.0 0.001105
20450.0 0.0010927
20470.0 0.0010816
20490.0 0.0010722
20510.0 0.0010638
20530.0 0.0010564
20550.0 0.0010504
20570.0 0.0010456
20590.0 0.0010417
20610.0 0.0010388
20630.0 0.001037
20650.0 0.0010359
20670.0 0.0010357
20690.0 0.0010362
20710.0 0.0010372
20730.0 0.0010387
20750.0 0.0010407
20770.0 0.0010427
20790.0 0.0010449
20810.0 0.0010472
20830.0 0.0010494
20850.0 0.0010513
20870.0 0.0010531
20890.0 0.0010546
20910.0 0.0010554
20930.0 0.0010558
20950.0 0.0010556
20970.0 0.0010547
20990.0 0.0010532
21010.0 0.0010509
21030.0 0.001048
21050.0 0.0010444
21070.0 0.0010401
21090.0 0.0010351
21110.0 0.0010296
21130.0 0.0010237
21150.0 0.0010172
21170.0 0.0010103
21190.0 0.0010034
21210.0 0.00099596
21230.0 0.00098829
21250.0 0.00098084
21270.0 0.00097344
21290.0 0.00096591
21310.0 0.00095862
21330.0 0.00095183
21350.0 0.00094512
21370.0 0.00093869
21390.0 0.00093284
21410.0 0.00092745
21430.0 0.00092232
21450.0 0.00091789
21470.0 0.00091412
21490.0 0.00091087
21510.0 0.00090824
21530.0 0.00090632
21550.0 0.00090504
21570.0 0.00090445
21590.0 0.00090457
21610.0 0.00090531
21630.0 0.00090679
21650.0 0.00090905
21670.0 0.00091171
21690.0 0.00091499
21710.0 0.00091895
21730.0 0.00092329
21750.0 0.00092786
21770.0 0.00093311
21790.0 0.00093861
21810.0 0.00094405
21830.0 0.00094967
21850.0 0.00095553
21870.0 0.00096114
21890.0 0.00096641
21910.0 0.00097172
21930.0 0.00097675
21950.0 0.00098123
21970.0 0.0009854
21990.0 0.00098934
22010.0 0.00099255
22030.0 0.00099521
22050.0 0.00099743
22070.0 0.00099906
22090.0 0.001
22110.0 0.0010004
22130.0 0.0010003
22150.0 0.00099945
22170.0 0.00099805
22190.0 0.00099598
22210.0 0.00099328
22230.0 0.00099006
22250.0 0.00098621
22270.0 0.00098166
22290.0 0.00097666
22310.0 0.00097115
22330.0 0.00096481
22350.0 0.00095798
22370.0 0.00095081
22390.0 0.00094297
22410.0 0.00093436
22430.0 0.00092564
22450.0 0.00091653
22470.0 0.00090667
22490.0 0.00089652
22510.0 0.00088637
22530.0 0.00087552
22550.0 0.00086421
22570.0 0.00085319
22590.0 0.00084204
22610.0 0.00083049
22630.0 0.0008191
22650.0 0.00080826
22670.0 0.00079718
22690.0 0.00078623
22710.0 0.00077593
22730.0 0.00076598
22750.0 0.00075592
22770.0 0.00074667
22790.0 0.00073811
22810.0 0.0007298
22830.0 0.00072191
22850.0 0.00071481
22870.0 0.00070811
22890.0 0.00070165
22910.0 0.00069581
22930.0 0.00069048
22950.0 0.00068539
22970.0 0.00068056
22990.0 0.00067633
23010.0 0.00067229
23030.0 0.00066839
23050.0 0.00066478
23070.0 0.00066141
23090.0 0.00065797
23110.0 0.00065465
23130.0 0.00065149
23150.0 0.00064831
23170.0 0.00064504
23190.0 0.00064184
23210.0 0.00063871
23230.0 0.00063545
23250.0 0.00063221
23270.0 0.0006291
23290.0 0.00062601
23310.0 0.00062289
23330.0 0.00062005
23350.0 0.00061739
23370.0 0.00061485
23390.0 0.00061252
23410.0 0.0006105
23430.0 0.00060864
23450.0 0.00060697
23470.0 0.00060555
23490.0 0.00060432
23510.0 0.0006032
23530.0 0.00060224
23550.0 0.0006014
23570.0 0.00060063
23590.0 0.0005999
23610.0 0.00059921
23630.0 0.00059855
23650.0 0.00059788
23670.0 0.00059722
23690.0 0.00059661
23710.0 0.00059603
23730.0 0.00059553
23750.0 0.00059518
23770.0 0.00059502
23790.0 0.00059513
23810.0 0.00059559
23830.0 0.00059645
23850.0 0.00059788
23870.0 0.00059999
23890.0 0.0006027
23910.0 0.00060614
23930.0 0.00061053
23950.0 0.00061568
