#lamb flux
1010.0 4.1561e-09
1030.0 4.5967e-09
1050.0 5.1034e-09
1070.0 5.6739e-09
1090.0 6.3218e-09
1110.0 6.9864e-09
1130.0 7.6552e-09
1150.0 8.3559e-09
1170.0 9.0786e-09
1190.0 9.7639e-09
1210.0 1.0459e-08
1230.0 1.1176e-08
1250.0 1.1879e-08
1270.0 1.2562e-08
1290.0 1.3284e-08
1310.0 1.4005e-08
1330.0 1.4697e-08
1350.0 1.5396e-08
1370.0 1.6118e-08
1390.0 1.6822e-08
1410.0 1.7505e-08
1430.0 1.8219e-08
1450.0 1.8933e-08
1470.0 1.9623e-08
1490.0 2.0321e-08
1510.0 2.1058e-08
1530.0 2.1756e-08
1550.0 2.2445e-08
1570.0 2.3159e-08
1590.0 2.3872e-08
1610.0 2.4555e-08
1630.0 2.5258e-08
1650.0 2.5981e-08
1670.0 2.668e-08
1690.0 2.7371e-08
1710.0 2.8089e-08
1730.0 2.8811e-08
1750.0 2.9491e-08
1770.0 3.0192e-08
1790.0 3.0907e-08
1810.0 3.1601e-08
1830.0 3.2283e-08
1850.0 3.3009e-08
1870.0 3.3716e-08
1890.0 3.4402e-08
1910.0 3.5102e-08
1930.0 3.5821e-08
1950.0 3.6508e-08
1970.0 3.7189e-08
1990.0 3.7897e-08
2010.0 3.8595e-08
2030.0 3.9269e-08
2050.0 3.9966e-08
2070.0 4.0682e-08
2090.0 4.1358e-08
2110.0 4.2035e-08
2130.0 4.2733e-08
2150.0 4.3419e-08
2170.0 4.4077e-08
2190.0 4.4761e-08
2210.0 4.545e-08
2230.0 4.6112e-08
2250.0 4.6773e-08
2270.0 4.7464e-08
2290.0 4.8134e-08
2310.0 4.8779e-08
2330.0 4.9449e-08
2350.0 5.0138e-08
2370.0 5.0824e-08
2390.0 5.1567e-08
2410.0 5.2446e-08
2430.0 5.3459e-08
2450.0 5.4668e-08
2470.0 5.6218e-08
2490.0 5.8172e-08
2510.0 6.0393e-08
2530.0 6.3066e-08
2550.0 6.6412e-08
2570.0 7.0575e-08
2590.0 7.5989e-08
2610.0 8.4096e-08
2630.0 9.567e-08
2650.0 1.108e-07
2670.0 1.3037e-07
2690.0 1.5442e-07
2710.0 1.8008e-07
2730.0 2.0544e-07
2750.0 2.3043e-07
2770.0 2.5215e-07
2790.0 2.6941e-07
2810.0 2.831e-07
2830.0 2.938e-07
2850.0 3.011e-07
2870.0 3.0646e-07
2890.0 3.1071e-07
2910.0 3.1409e-07
2930.0 3.1686e-07
2950.0 3.195e-07
2970.0 3.2209e-07
2990.0 3.2451e-07
3010.0 9.1724e-06
3030.0 9.241e-06
3050.0 9.3072e-06
3070.0 9.364e-06
3090.0 9.4128e-06
3110.0 9.4431e-06
3130.0 9.4419e-06
3150.0 9.3999e-06
3170.0 9.2993e-06
3190.0 9.1411e-06
3210.0 8.9407e-06
3230.0 8.7111e-06
3250.0 8.4846e-06
3270.0 8.3191e-06
3290.0 8.2272e-06
3310.0 8.2421e-06
3330.0 8.3614e-06
3350.0 8.5691e-06
3370.0 8.8657e-06
3390.0 9.2395e-06
3410.0 9.6462e-06
3430.0 1.0103e-05
3450.0 1.0629e-05
3470.0 1.1203e-05
3490.0 1.1811e-05
3510.0 1.2499e-05
3530.0 1.3235e-05
3550.0 1.3981e-05
3570.0 1.4759e-05
3590.0 1.5605e-05
3610.0 1.6476e-05
3630.0 1.7345e-05
3650.0 1.8247e-05
3670.0 1.907e-05
3690.0 1.9685e-05
3710.0 2.0038e-05
3730.0 2.0049e-05
3750.0 1.977e-05
3770.0 1.9661e-05
3790.0 1.9544e-05
3810.0 1.9064e-05
3830.0 1.9654e-05
3850.0 2.1975e-05
3870.0 2.3249e-05
3890.0 2.3143e-05
3910.0 2.3242e-05
3930.0 2.3854e-05
3950.0 2.4231e-05
3970.0 2.2076e-05
3990.0 1.8996e-05
4010.0 5.6932e-05
4030.0 6.8982e-05
4050.0 7.9083e-05
4070.0 6.8618e-05
4090.0 6.2147e-05
4110.0 5.4839e-05
4130.0 5.0474e-05
4150.0 5.3688e-05
4170.0 5.2885e-05
4190.0 5.6372e-05
4210.0 5.5857e-05
4230.0 5.9081e-05
4250.0 6.9894e-05
4270.0 7.0716e-05
4290.0 6.5164e-05
4310.0 6.771e-05
4330.0 7.2023e-05
4350.0 8.0756e-05
4370.0 9.1902e-05
4390.0 8.624e-05
4410.0 6.3717e-05
4430.0 5.394e-05
4450.0 4.9565e-05
4470.0 3.8043e-05
4490.0 4.1053e-05
4510.0 6.2011e-05
4530.0 7.1517e-05
4550.0 7.2137e-05
4570.0 8.1173e-05
4590.0 9.2464e-05
4610.0 0.00012471
4630.0 0.00016197
4650.0 0.00017566
4670.0 0.00016268
4690.0 0.00015522
4710.0 0.00016408
4730.0 0.00015485
4750.0 0.00011577
4770.0 8.492e-05
4790.0 7.9299e-05
4810.0 7.5584e-05
4830.0 6.9197e-05
4850.0 7.5931e-05
4870.0 0.00010031
4890.0 0.0001183
4910.0 0.00010379
4930.0 9.184e-05
4950.0 0.0001009
4970.0 0.0001294
4990.0 0.00017537
5010.0 0.00020173
5030.0 0.00017788
5050.0 0.00012035
5070.0 7.9315e-05
5090.0 6.3956e-05
5110.0 6.5773e-05
5130.0 7.5912e-05
5150.0 8.2245e-05
5170.0 8.1011e-05
5190.0 7.5699e-05
5210.0 7.9123e-05
5230.0 8.3176e-05
5250.0 8.9641e-05
5270.0 9.6716e-05
5290.0 0.00010718
5310.0 0.00012476
5330.0 0.00013806
5350.0 0.00013718
5370.0 0.00014409
5390.0 0.00016535
5410.0 0.0001652
5430.0 0.0001461
5450.0 0.00013423
5470.0 0.00014253
5490.0 0.00017413
5510.0 0.00021773
5530.0 0.00024972
5550.0 0.00024136
5570.0 0.00021941
5590.0 0.00019078
5610.0 0.00017595
5630.0 0.00017061
5650.0 0.00016249
5670.0 0.00015397
5690.0 0.00013765
5710.0 0.00013421
5730.0 0.00012363
5750.0 8.7168e-05
5770.0 6.8006e-05
5790.0 7.7065e-05
5810.0 8.702e-05
5830.0 0.00010679
5850.0 0.00012712
5870.0 0.00014104
5890.0 0.00014343
5910.0 0.00014071
5930.0 0.00013394
5950.0 0.00013649
5970.0 0.00015558
5990.0 0.00014629
6010.0 0.00012263
6030.0 0.00010361
6050.0 9.0227e-05
6070.0 8.9734e-05
6090.0 9.7302e-05
6110.0 0.0001088
6130.0 0.00011047
6150.0 9.5046e-05
6170.0 8.3611e-05
6190.0 9.4092e-05
6210.0 0.00012439
6230.0 0.00016323
6250.0 0.0001768
6270.0 0.0001545
6290.0 0.00012999
6310.0 0.00010148
6330.0 7.7754e-05
6350.0 6.9354e-05
6370.0 7.2933e-05
6390.0 8.4315e-05
6410.0 0.00010396
6430.0 0.0001214
6450.0 0.00013892
6470.0 0.00015906
6490.0 0.00019214
6510.0 0.00021483
6530.0 0.00021076
6550.0 0.00019059
6570.0 0.00016179
6590.0 0.00014589
6610.0 0.0001258
6630.0 0.00011397
6650.0 0.00010773
6670.0 0.00010466
6690.0 9.4564e-05
6710.0 8.5961e-05
6730.0 6.1916e-05
6750.0 6.1383e-05
6770.0 6.6719e-05
6790.0 7.6689e-05
6810.0 7.0172e-05
6830.0 7.2258e-05
6850.0 6.7584e-05
6870.0 6.1738e-05
6890.0 5.9278e-05
6910.0 6.3168e-05
6930.0 5.9166e-05
6950.0 6.0872e-05
6970.0 6.4026e-05
6990.0 7.2675e-05
7010.0 7.3294e-05
7030.0 7.4458e-05
7050.0 7.1008e-05
7070.0 6.7658e-05
7090.0 6.7856e-05
7110.0 6.9818e-05
7130.0 7.5135e-05
7150.0 7.98e-05
7170.0 8.8054e-05
7190.0 9.6796e-05
7210.0 9.5114e-05
7230.0 9.7779e-05
7250.0 0.00010508
7270.0 0.00011451
7290.0 0.00013591
7310.0 0.00014748
7330.0 0.00014255
7350.0 0.00012893
7370.0 0.00011218
7390.0 0.00010883
7410.0 0.00011565
7430.0 0.00012853
7450.0 0.00013999
7470.0 0.00013871
7490.0 0.00012647
7510.0 0.00014326
7530.0 0.0001417
7550.0 0.00012736
7570.0 9.9491e-05
7590.0 6.8396e-05
7610.0 5.8705e-05
7630.0 6.67e-05
7650.0 7.8863e-05
7670.0 9.8151e-05
7690.0 0.00010801
7710.0 0.00011256
7730.0 0.00011828
7750.0 0.00013279
7770.0 0.00013487
7790.0 0.00012389
7810.0 0.00011304
7830.0 0.00011657
7850.0 0.00011332
7870.0 0.00010389
7890.0 8.729e-05
7910.0 7.0955e-05
7930.0 6.7751e-05
7950.0 6.1723e-05
7970.0 5.7136e-05
7990.0 5.681e-05
8010.0 4.2075e-06
8030.0 4.1528e-06
8050.0 4.0968e-06
8070.0 4.1504e-06
8090.0 4.4595e-06
8110.0 4.3836e-06
8130.0 3.6159e-06
8150.0 3.5214e-06
8170.0 3.0332e-06
8190.0 2.8746e-06
8210.0 3.733e-06
8230.0 4.1562e-06
8250.0 3.7459e-06
8270.0 3.2603e-06
8290.0 3.1782e-06
8310.0 2.4461e-06
8330.0 1.6487e-06
8350.0 1.17e-06
8370.0 7.3717e-07
8390.0 1.3475e-06
8410.0 1.5702e-06
8430.0 1.9356e-06
8450.0 2.2729e-06
8470.0 2.8251e-06
8490.0 2.8051e-06
8510.0 2.7593e-06
8530.0 2.8797e-06
8550.0 3.8853e-06
8570.0 4.5996e-06
8590.0 4.9629e-06
8610.0 6.2692e-06
8630.0 7.5522e-06
8650.0 7.9004e-06
8670.0 8.3957e-06
8690.0 8.4428e-06
8710.0 7.6461e-06
8730.0 7.1121e-06
8750.0 6.2777e-06
8770.0 5.9566e-06
8790.0 5.8521e-06
8810.0 5.6076e-06
8830.0 4.4841e-06
8850.0 3.2827e-06
8870.0 2.5135e-06
8890.0 2.4574e-06
8910.0 2.8162e-06
8930.0 3.2032e-06
8950.0 3.2645e-06
8970.0 3.28e-06
8990.0 2.9253e-06
9010.0 3.0656e-05
9030.0 2.7778e-05
9050.0 2.7912e-05
9070.0 2.8133e-05
9090.0 2.8326e-05
9110.0 2.8564e-05
9130.0 2.8749e-05
9150.0 2.8892e-05
9170.0 2.9044e-05
9190.0 2.9207e-05
9210.0 2.9379e-05
9230.0 2.956e-05
9250.0 2.9744e-05
9270.0 2.9935e-05
9290.0 3.0131e-05
9310.0 3.0329e-05
9330.0 3.0531e-05
9350.0 3.074e-05
9370.0 3.0952e-05
9390.0 3.1166e-05
9410.0 3.1386e-05
9430.0 3.1612e-05
9450.0 3.1838e-05
9470.0 3.2068e-05
9490.0 3.2306e-05
9510.0 3.2546e-05
9530.0 3.2787e-05
9550.0 3.3036e-05
9570.0 3.329e-05
9590.0 3.3544e-05
9610.0 3.3803e-05
9630.0 3.4069e-05
9650.0 3.4337e-05
9670.0 3.4606e-05
9690.0 3.4882e-05
9710.0 3.5162e-05
9730.0 3.5443e-05
9750.0 3.5727e-05
9770.0 3.6021e-05
9790.0 3.6313e-05
9810.0 3.6608e-05
9830.0 3.6908e-05
9850.0 3.7213e-05
9870.0 3.7516e-05
9890.0 3.7824e-05
9910.0 3.8138e-05
9930.0 3.8452e-05
9950.0 3.8768e-05
9970.0 3.9089e-05
9990.0 3.9414e-05
10010.0 3.4201e-05
10030.0 3.4482e-05
10050.0 3.4768e-05
10070.0 3.5065e-05
10090.0 3.5344e-05
10110.0 3.563e-05
10130.0 3.5918e-05
10150.0 3.6204e-05
10170.0 3.6494e-05
10190.0 3.6789e-05
10210.0 3.708e-05
10230.0 3.7371e-05
10250.0 3.7666e-05
10270.0 3.7961e-05
10290.0 3.8252e-05
10310.0 3.8547e-05
10330.0 3.8845e-05
10350.0 3.9138e-05
10370.0 3.943e-05
10390.0 3.9726e-05
10410.0 4.0019e-05
10430.0 4.0308e-05
10450.0 4.0599e-05
10470.0 4.089e-05
10490.0 4.1177e-05
10510.0 4.1462e-05
10530.0 4.1752e-05
10550.0 4.2037e-05
10570.0 4.2316e-05
10590.0 4.2596e-05
10610.0 4.2876e-05
10630.0 4.3149e-05
10650.0 4.342e-05
10670.0 4.3694e-05
10690.0 4.3962e-05
10710.0 4.4225e-05
10730.0 4.4488e-05
10750.0 4.4752e-05
10770.0 4.5005e-05
10790.0 4.5255e-05
10810.0 4.5506e-05
10830.0 4.5749e-05
10850.0 4.5979e-05
10870.0 4.6202e-05
10890.0 4.6399e-05
10910.0 4.655e-05
10930.0 4.6636e-05
10950.0 4.6616e-05
10970.0 4.6458e-05
10990.0 4.6148e-05
11010.0 4.563e-05
11030.0 4.4904e-05
11050.0 4.4019e-05
11070.0 4.2961e-05
11090.0 4.169e-05
11110.0 4.0375e-05
11130.0 3.9004e-05
11150.0 3.7527e-05
11170.0 3.6005e-05
11190.0 3.4529e-05
11210.0 3.3004e-05
11230.0 3.144e-05
11250.0 2.9947e-05
11270.0 2.8512e-05
11290.0 2.7074e-05
11310.0 2.5713e-05
11330.0 2.4514e-05
11350.0 2.3381e-05
11370.0 2.2334e-05
11390.0 2.1428e-05
11410.0 2.0636e-05
11430.0 1.99e-05
11450.0 1.9266e-05
11470.0 1.8717e-05
11490.0 1.8207e-05
11510.0 1.7715e-05
11530.0 1.7259e-05
11550.0 1.6805e-05
11570.0 1.6322e-05
11590.0 1.5821e-05
11610.0 1.5311e-05
11630.0 1.4756e-05
11650.0 1.4162e-05
11670.0 1.3577e-05
11690.0 1.2983e-05
11710.0 1.2371e-05
11730.0 1.1777e-05
11750.0 1.1228e-05
11770.0 1.0689e-05
11790.0 1.0185e-05
11810.0 9.7403e-06
11830.0 9.3428e-06
11850.0 8.9768e-06
11870.0 8.6706e-06
11890.0 8.416e-06
11910.0 8.1923e-06
11930.0 8.0001e-06
11950.0 7.84e-06
11970.0 7.697e-06
11990.0 7.5618e-06
12010.0 7.4367e-06
12030.0 7.3161e-06
12050.0 7.1915e-06
12070.0 7.0619e-06
12090.0 6.937e-06
12110.0 6.8101e-06
12130.0 6.683e-06
12150.0 6.5658e-06
12170.0 6.4636e-06
12190.0 6.3751e-06
12210.0 6.3134e-06
12230.0 6.2835e-06
12250.0 6.2883e-06
12270.0 6.3358e-06
12290.0 6.4254e-06
12310.0 6.554e-06
12330.0 6.7339e-06
12350.0 6.9584e-06
12370.0 7.214e-06
12390.0 7.5087e-06
12410.0 7.854e-06
12430.0 8.205e-06
12450.0 8.5685e-06
12470.0 8.955e-06
12490.0 9.3431e-06
12510.0 9.7073e-06
12530.0 1.007e-05
12550.0 1.0419e-05
12570.0 1.0728e-05
12590.0 1.0998e-05
12610.0 1.124e-05
12630.0 1.1432e-05
12650.0 1.1565e-05
12670.0 1.1652e-05
12690.0 1.1687e-05
12710.0 1.1668e-05
12730.0 1.16e-05
12750.0 1.148e-05
12770.0 1.1314e-05
12790.0 1.1113e-05
12810.0 1.0873e-05
12830.0 1.0596e-05
12850.0 1.0306e-05
12870.0 9.999e-06
12890.0 9.6671e-06
12910.0 9.3296e-06
12930.0 8.9971e-06
12950.0 8.65e-06
12970.0 8.2968e-06
12990.0 7.9626e-06
13010.0 7.6325e-06
13030.0 7.2988e-06
13050.0 6.9782e-06
13070.0 6.678e-06
13090.0 6.3767e-06
13110.0 6.0851e-06
13130.0 5.8164e-06
13150.0 5.5618e-06
13170.0 5.3126e-06
13190.0 5.0908e-06
13210.0 4.8957e-06
13230.0 4.7172e-06
13250.0 4.5636e-06
13270.0 4.4424e-06
13290.0 4.3481e-06
13310.0 4.2832e-06
13330.0 4.2537e-06
13350.0 4.2571e-06
13370.0 4.2953e-06
13390.0 4.3703e-06
13410.0 4.4716e-06
13430.0 4.6034e-06
13450.0 4.7662e-06
13470.0 4.9469e-06
13490.0 5.1382e-06
13510.0 5.3541e-06
13530.0 5.5729e-06
13550.0 5.7823e-06
13570.0 5.9888e-06
13590.0 6.1901e-06
13610.0 6.3691e-06
13630.0 6.5254e-06
13650.0 6.6681e-06
13670.0 6.7866e-06
13690.0 6.8782e-06
13710.0 6.949e-06
13730.0 6.9996e-06
13750.0 7.0249e-06
13770.0 7.0307e-06
13790.0 7.0179e-06
13810.0 6.9869e-06
13830.0 6.9412e-06
13850.0 6.8791e-06
13870.0 6.8009e-06
13890.0 6.7115e-06
13910.0 6.6107e-06
13930.0 6.494e-06
13950.0 6.3666e-06
13970.0 6.2363e-06
13990.0 6.0944e-06
14010.0 5.9436e-06
14030.0 5.7931e-06
14050.0 5.6415e-06
14070.0 5.4814e-06
14090.0 5.328e-06
14110.0 5.1838e-06
14130.0 5.0441e-06
14150.0 4.9126e-06
14170.0 4.8003e-06
14190.0 4.7032e-06
14210.0 4.6209e-06
14230.0 4.5599e-06
14250.0 4.5205e-06
14270.0 4.5014e-06
14290.0 4.5055e-06
14310.0 4.5306e-06
14330.0 4.5756e-06
14350.0 4.642e-06
14370.0 4.7247e-06
14390.0 4.8186e-06
14410.0 4.9292e-06
14430.0 5.0506e-06
14450.0 5.1747e-06
14470.0 5.3033e-06
14490.0 5.4402e-06
14510.0 5.571e-06
14530.0 5.6953e-06
14550.0 5.8195e-06
14570.0 5.9388e-06
14590.0 6.0474e-06
14610.0 6.1524e-06
14630.0 6.2563e-06
14650.0 6.3531e-06
14670.0 6.4465e-06
14690.0 6.544e-06
14710.0 6.6464e-06
14730.0 6.7489e-06
14750.0 6.8624e-06
14770.0 6.9912e-06
14790.0 7.1307e-06
14810.0 7.282e-06
14830.0 7.4611e-06
14850.0 7.6559e-06
14870.0 7.8591e-06
14890.0 8.0783e-06
14910.0 8.3112e-06
14930.0 8.535e-06
14950.0 8.7442e-06
14970.0 8.9423e-06
14990.0 9.1084e-06
15010.0 9.2354e-06
15030.0 9.3294e-06
15050.0 9.3917e-06
15070.0 9.422e-06
15090.0 9.4327e-06
15110.0 9.4296e-06
15130.0 9.4177e-06
15150.0 9.4018e-06
15170.0 9.383e-06
15190.0 9.3628e-06
15210.0 9.3429e-06
15230.0 9.323e-06
15250.0 9.3024e-06
15270.0 9.2821e-06
15290.0 9.2628e-06
15310.0 9.243e-06
15330.0 9.223e-06
15350.0 9.2038e-06
15370.0 9.1847e-06
15390.0 9.1646e-06
15410.0 9.1453e-06
15430.0 9.1265e-06
15450.0 9.1073e-06
15470.0 9.0878e-06
15490.0 9.0693e-06
15510.0 9.0508e-06
15530.0 9.0317e-06
15550.0 9.013e-06
15570.0 8.9949e-06
15590.0 8.9761e-06
15610.0 8.957e-06
15630.0 8.939e-06
15650.0 8.9209e-06
15670.0 8.9022e-06
15690.0 8.884e-06
15710.0 8.8665e-06
15730.0 8.8481e-06
15750.0 8.8297e-06
15770.0 8.8121e-06
15790.0 8.7943e-06
15810.0 8.7756e-06
15830.0 8.7578e-06
15850.0 8.7405e-06
15870.0 8.7225e-06
15890.0 8.7045e-06
15910.0 8.6873e-06
15930.0 8.6697e-06
15950.0 8.6514e-06
15970.0 8.6338e-06
15990.0 8.6166e-06
16010.0 8.5986e-06
16030.0 8.5805e-06
16050.0 8.5636e-06
16070.0 8.5461e-06
16090.0 8.5282e-06
16110.0 8.5108e-06
16130.0 8.4939e-06
16150.0 8.4757e-06
16170.0 8.4579e-06
16190.0 8.4408e-06
16210.0 8.4233e-06
16230.0 8.4053e-06
16250.0 8.388e-06
16270.0 8.371e-06
16290.0 8.3531e-06
16310.0 8.3354e-06
16330.0 8.3183e-06
16350.0 8.3007e-06
16370.0 8.2822e-06
16390.0 8.265e-06
16410.0 8.2478e-06
16430.0 8.2298e-06
16450.0 8.212e-06
16470.0 8.1951e-06
16490.0 8.1772e-06
16510.0 8.159e-06
16530.0 8.1415e-06
16550.0 8.124e-06
16570.0 8.1057e-06
16590.0 8.0876e-06
16610.0 8.0704e-06
16630.0 8.0525e-06
16650.0 8.0342e-06
16670.0 8.0167e-06
16690.0 7.9991e-06
16710.0 7.9803e-06
16730.0 7.9622e-06
16750.0 7.9446e-06
16770.0 7.9263e-06
16790.0 7.9076e-06
16810.0 7.8899e-06
16830.0 7.872e-06
16850.0 7.8533e-06
16870.0 7.835e-06
16890.0 7.8171e-06
16910.0 7.7984e-06
16930.0 7.7793e-06
16950.0 7.7613e-06
16970.0 7.7429e-06
16990.0 7.7239e-06
17010.0 7.7054e-06
17030.0 7.6873e-06
17050.0 7.6682e-06
17070.0 7.6492e-06
17090.0 7.6307e-06
17110.0 7.612e-06
17130.0 7.5923e-06
17150.0 7.5735e-06
17170.0 7.555e-06
17190.0 7.5357e-06
17210.0 7.5164e-06
17230.0 7.4978e-06
17250.0 7.4786e-06
17270.0 7.4587e-06
17290.0 7.4396e-06
17310.0 7.4206e-06
17330.0 7.4008e-06
17350.0 7.3809e-06
17370.0 7.3621e-06
17390.0 7.3426e-06
17410.0 7.3226e-06
17430.0 7.3032e-06
17450.0 7.2841e-06
17470.0 7.2636e-06
17490.0 7.2435e-06
17510.0 7.2242e-06
17530.0 7.2043e-06
17550.0 7.1839e-06
17570.0 7.1642e-06
17590.0 7.1446e-06
17610.0 7.1241e-06
17630.0 7.1039e-06
17650.0 7.0842e-06
17670.0 7.0639e-06
17690.0 7.0428e-06
17710.0 7.0229e-06
17730.0 7.0029e-06
17750.0 6.9821e-06
17770.0 6.9616e-06
17790.0 6.9419e-06
17810.0 6.921e-06
17830.0 6.9e-06
17850.0 6.8797e-06
17870.0 6.8593e-06
17890.0 6.838e-06
17910.0 6.8171e-06
17930.0 6.797e-06
17950.0 6.7761e-06
17970.0 6.7549e-06
17990.0 6.7344e-06
18010.0 6.7139e-06
18030.0 6.6921e-06
18050.0 6.6711e-06
18070.0 6.6505e-06
18090.0 6.6292e-06
18110.0 6.6077e-06
18130.0 6.5871e-06
18150.0 6.5662e-06
18170.0 6.5445e-06
18190.0 6.5233e-06
18210.0 6.5026e-06
18230.0 6.4809e-06
18250.0 6.459e-06
18270.0 6.4381e-06
18290.0 6.4169e-06
18310.0 6.3951e-06
18330.0 6.3738e-06
18350.0 6.3529e-06
18370.0 6.331e-06
18390.0 6.3092e-06
18410.0 6.2881e-06
18430.0 6.2667e-06
18450.0 6.2443e-06
18470.0 6.2229e-06
18490.0 6.2018e-06
18510.0 6.1799e-06
18530.0 6.158e-06
18550.0 6.1369e-06
18570.0 6.1152e-06
18590.0 6.0928e-06
18610.0 6.0713e-06
18630.0 6.0499e-06
18650.0 6.0277e-06
18670.0 6.0055e-06
18690.0 5.9844e-06
18710.0 5.9626e-06
18730.0 5.9404e-06
18750.0 5.9188e-06
18770.0 5.8975e-06
18790.0 5.8749e-06
18810.0 5.8528e-06
18830.0 5.8314e-06
18850.0 5.8095e-06
18870.0 5.7871e-06
18890.0 5.7655e-06
18910.0 5.7441e-06
18930.0 5.7217e-06
18950.0 5.6996e-06
18970.0 5.6782e-06
18990.0 5.6562e-06
19010.0 5.6333e-06
19030.0 5.6119e-06
19050.0 5.5902e-06
19070.0 5.5679e-06
19090.0 5.5459e-06
19110.0 5.5247e-06
19130.0 5.5023e-06
19150.0 5.4799e-06
19170.0 5.4583e-06
19190.0 5.4365e-06
19210.0 5.414e-06
19230.0 5.3919e-06
19250.0 5.3706e-06
19270.0 5.3485e-06
19290.0 5.3262e-06
19310.0 5.3047e-06
19330.0 5.283e-06
19350.0 5.2603e-06
19370.0 5.2384e-06
19390.0 5.2169e-06
19410.0 5.1947e-06
19430.0 5.1723e-06
19450.0 5.151e-06
19470.0 5.1293e-06
19490.0 5.1069e-06
19510.0 5.0851e-06
19530.0 5.0637e-06
19550.0 5.0414e-06
19570.0 5.0189e-06
19590.0 4.9976e-06
19610.0 4.9759e-06
19630.0 4.9536e-06
19650.0 4.9319e-06
19670.0 4.9107e-06
19690.0 4.8884e-06
19710.0 4.8663e-06
19730.0 4.8449e-06
19750.0 4.8232e-06
19770.0 4.8007e-06
19790.0 4.7791e-06
19810.0 4.7578e-06
19830.0 4.7357e-06
19850.0 4.7134e-06
19870.0 4.6916e-06
19890.0 4.6682e-06
19910.0 4.6424e-06
19930.0 4.6149e-06
19950.0 4.5834e-06
19970.0 4.5446e-06
19990.0 4.4979e-06
20010.0 4.0017e-06
20030.0 3.9438e-06
20050.0 3.876e-06
20070.0 3.8026e-06
20090.0 3.7236e-06
20110.0 3.6342e-06
20130.0 3.5437e-06
20150.0 3.4541e-06
20170.0 3.3611e-06
20190.0 3.2668e-06
20210.0 3.1778e-06
20230.0 3.0909e-06
20250.0 3.0039e-06
20270.0 2.9231e-06
20290.0 2.8493e-06
20310.0 2.7792e-06
20330.0 2.7137e-06
20350.0 2.6594e-06
20370.0 2.6111e-06
20390.0 2.5688e-06
20410.0 2.5346e-06
20430.0 2.5082e-06
20450.0 2.4874e-06
20470.0 2.4734e-06
20490.0 2.4659e-06
20510.0 2.4637e-06
20530.0 2.4667e-06
20550.0 2.4743e-06
20570.0 2.4854e-06
20590.0 2.5004e-06
20610.0 2.5186e-06
20630.0 2.5386e-06
20650.0 2.561e-06
20670.0 2.5866e-06
20690.0 2.6127e-06
20710.0 2.6396e-06
20730.0 2.6687e-06
20750.0 2.6991e-06
20770.0 2.7289e-06
20790.0 2.7603e-06
20810.0 2.7935e-06
20830.0 2.8265e-06
20850.0 2.8597e-06
20870.0 2.8952e-06
20890.0 2.9314e-06
20910.0 2.9663e-06
20930.0 3.0025e-06
20950.0 3.0401e-06
20970.0 3.0767e-06
20990.0 3.1128e-06
21010.0 3.1508e-06
21030.0 3.1879e-06
21050.0 3.2233e-06
21070.0 3.2587e-06
21090.0 3.2942e-06
21110.0 3.3266e-06
21130.0 3.357e-06
21150.0 3.3864e-06
21170.0 3.4131e-06
21190.0 3.436e-06
21210.0 3.4567e-06
21230.0 3.4738e-06
21250.0 3.4861e-06
21270.0 3.4938e-06
21290.0 3.4967e-06
21310.0 3.4939e-06
21330.0 3.4857e-06
21350.0 3.4712e-06
21370.0 3.45e-06
21390.0 3.423e-06
21410.0 3.3899e-06
21430.0 3.348e-06
21450.0 3.301e-06
21470.0 3.2497e-06
21490.0 3.1918e-06
21510.0 3.1283e-06
21530.0 3.0637e-06
21550.0 2.9961e-06
21570.0 2.924e-06
21590.0 2.853e-06
21610.0 2.7845e-06
21630.0 2.7159e-06
21650.0 2.6488e-06
21670.0 2.5907e-06
21690.0 2.5371e-06
21710.0 2.4889e-06
21730.0 2.4493e-06
21750.0 2.4188e-06
21770.0 2.3956e-06
21790.0 2.3822e-06
21810.0 2.3785e-06
21830.0 2.3838e-06
21850.0 2.3987e-06
21870.0 2.4219e-06
21890.0 2.452e-06
21910.0 2.4905e-06
21930.0 2.5356e-06
21950.0 2.5845e-06
21970.0 2.6387e-06
21990.0 2.6996e-06
22010.0 2.7604e-06
22030.0 2.8221e-06
22050.0 2.8869e-06
22070.0 2.9521e-06
22090.0 3.0139e-06
22110.0 3.0761e-06
22130.0 3.1382e-06
22150.0 3.1963e-06
22170.0 3.251e-06
22190.0 3.3052e-06
22210.0 3.3557e-06
22230.0 3.4001e-06
22250.0 3.4419e-06
22270.0 3.4804e-06
22290.0 3.5133e-06
22310.0 3.5415e-06
22330.0 3.5664e-06
22350.0 3.5856e-06
22370.0 3.5992e-06
22390.0 3.6076e-06
22410.0 3.6103e-06
22430.0 3.6069e-06
22450.0 3.5976e-06
22470.0 3.5815e-06
22490.0 3.559e-06
22510.0 3.5309e-06
22530.0 3.4949e-06
22550.0 3.4512e-06
22570.0 3.4026e-06
22590.0 3.3479e-06
22610.0 3.285e-06
22630.0 3.2168e-06
