#lamb flux
1010.0 3.6253e-06
1030.0 3.9706e-06
1050.0 4.3679e-06
1070.0 4.8151e-06
1090.0 5.3231e-06
1110.0 5.8441e-06
1130.0 6.3686e-06
1150.0 6.9181e-06
1170.0 7.485e-06
1190.0 8.0226e-06
1210.0 8.5676e-06
1230.0 9.1308e-06
1250.0 9.6828e-06
1270.0 1.0219e-05
1290.0 1.0786e-05
1310.0 1.1352e-05
1330.0 1.1895e-05
1350.0 1.2445e-05
1370.0 1.3012e-05
1390.0 1.3566e-05
1410.0 1.4103e-05
1430.0 1.4664e-05
1450.0 1.5226e-05
1470.0 1.5769e-05
1490.0 1.6318e-05
1510.0 1.6898e-05
1530.0 1.7447e-05
1550.0 1.7989e-05
1570.0 1.855e-05
1590.0 1.9111e-05
1610.0 1.9647e-05
1630.0 2.02e-05
1650.0 2.0767e-05
1670.0 2.1315e-05
1690.0 2.1855e-05
1710.0 2.2416e-05
1730.0 2.2979e-05
1750.0 2.3507e-05
1770.0 2.405e-05
1790.0 2.4603e-05
1810.0 2.5136e-05
1830.0 2.5659e-05
1850.0 2.6212e-05
1870.0 2.6748e-05
1890.0 2.7263e-05
1910.0 2.7786e-05
1930.0 2.8319e-05
1950.0 2.8822e-05
1970.0 2.9315e-05
1990.0 2.9823e-05
2010.0 3.0318e-05
2030.0 3.0787e-05
2050.0 3.1265e-05
2070.0 3.1751e-05
2090.0 3.2197e-05
2110.0 3.2634e-05
2130.0 3.3077e-05
2150.0 3.3501e-05
2170.0 3.3891e-05
2190.0 3.429e-05
2210.0 3.468e-05
2230.0 3.5036e-05
2250.0 3.5377e-05
2270.0 3.5727e-05
2290.0 3.6045e-05
2310.0 3.6327e-05
2330.0 3.6609e-05
2350.0 3.6879e-05
2370.0 3.7112e-05
2390.0 3.7336e-05
2410.0 3.7572e-05
2430.0 3.7787e-05
2450.0 3.7994e-05
2470.0 3.8238e-05
2490.0 3.8547e-05
2510.0 3.8934e-05
2530.0 3.9566e-05
2550.0 4.0706e-05
2570.0 4.2604e-05
2590.0 4.555e-05
2610.0 5.0334e-05
2630.0 5.7076e-05
2650.0 6.5332e-05
2670.0 7.5129e-05
2690.0 8.6022e-05
2710.0 9.6418e-05
2730.0 0.00010559
2750.0 0.00011372
2770.0 0.00012
2790.0 0.00012445
2810.0 0.00012772
2830.0 0.00013033
2850.0 0.00013216
2870.0 0.00013372
2890.0 0.00013529
2910.0 0.0001368
2930.0 0.00013815
2950.0 0.0001396
2970.0 0.00014111
2990.0 0.00014248
3010.0 0.0013086
3030.0 0.0013214
3050.0 0.0013335
3070.0 0.0013426
3090.0 0.00135
3110.0 0.0013531
3130.0 0.0013485
3150.0 0.0013348
3170.0 0.0013088
3190.0 0.0012707
3210.0 0.0012241
3230.0 0.0011743
3250.0 0.0011697
3270.0 0.0011323
3290.0 0.0011768
3310.0 0.0011343
3330.0 0.0011561
3350.0 0.0011951
3370.0 0.0012461
3390.0 0.0013066
3410.0 0.0013691
3430.0 0.0014361
3450.0 0.0015081
3470.0 0.0015806
3490.0 0.0016503
3510.0 0.0017383
3530.0 0.0018437
3550.0 0.0019102
3570.0 0.0019593
3590.0 0.0020882
3610.0 0.0021204
3630.0 0.0022795
3650.0 0.0023968
3670.0 0.0025212
3690.0 0.0025409
3710.0 0.0024702
3730.0 0.0025064
3750.0 0.0025067
3770.0 0.00261
3790.0 0.002764
3810.0 0.0030746
3830.0 0.0037202
3850.0 0.004431
3870.0 0.0051017
3890.0 0.0055429
3910.0 0.0057488
3930.0 0.0059798
3950.0 0.0062157
3970.0 0.0054509
3990.0 0.0037024
4010.0 0.0032015
4030.0 0.0043743
4050.0 0.0055148
4070.0 0.0049016
4090.0 0.0030217
4110.0 0.0029399
4130.0 0.0041807
4150.0 0.0047393
4170.0 0.0039899
4190.0 0.0034043
4210.0 0.0044662
4230.0 0.0046904
4250.0 0.004455
4270.0 0.0044882
4290.0 0.0040923
4310.0 0.004594
4330.0 0.0053542
4350.0 0.0061501
4370.0 0.0061238
4390.0 0.0059693
4410.0 0.0052686
4430.0 0.004156
4450.0 0.0031634
4470.0 0.0034317
4490.0 0.0037145
4510.0 0.005088
4530.0 0.0053057
4550.0 0.005223
4570.0 0.0060684
4590.0 0.0077387
4610.0 0.010587
4630.0 0.012987
4650.0 0.013111
4670.0 0.013536
4690.0 0.014588
4710.0 0.014286
4730.0 0.011515
4750.0 0.0082094
4770.0 0.006855
4790.0 0.0060441
4810.0 0.0057282
4830.0 0.0062593
4850.0 0.0070298
4870.0 0.0082528
4890.0 0.0090615
4910.0 0.0080673
4930.0 0.0083955
4950.0 0.010438
4970.0 0.01293
4990.0 0.014858
5010.0 0.014852
5030.0 0.012578
5050.0 0.0091063
5070.0 0.0066724
5090.0 0.0057717
5110.0 0.0059241
5130.0 0.0064524
5150.0 0.0060752
5170.0 0.0060517
5190.0 0.0060256
5210.0 0.0061302
5230.0 0.0066232
5250.0 0.0068259
5270.0 0.0073419
5290.0 0.0087956
5310.0 0.0099536
5330.0 0.010495
5350.0 0.010687
5370.0 0.011395
5390.0 0.011829
5410.0 0.010854
5430.0 0.0098699
5450.0 0.010067
5470.0 0.011904
5490.0 0.015237
5510.0 0.018275
5530.0 0.019204
5550.0 0.018609
5570.0 0.017556
5590.0 0.016404
5610.0 0.015661
5630.0 0.0159
5650.0 0.016389
5670.0 0.015832
5690.0 0.014874
5710.0 0.014481
5730.0 0.012782
5750.0 0.010182
5770.0 0.009254
5790.0 0.010403
5810.0 0.011555
5830.0 0.012874
5850.0 0.013201
5870.0 0.012826
5890.0 0.012127
5910.0 0.011277
5930.0 0.011224
5950.0 0.011825
5970.0 0.012051
5990.0 0.010622
6010.0 0.0086412
6030.0 0.0069988
6050.0 0.0063329
6070.0 0.0067139
6090.0 0.0075401
6110.0 0.007726
6130.0 0.0072365
6150.0 0.0071724
6170.0 0.0079288
6190.0 0.0092534
6210.0 0.011083
6230.0 0.012512
6250.0 0.011871
6270.0 0.010364
6290.0 0.0086556
6310.0 0.0068641
6330.0 0.0058147
6350.0 0.005741
6370.0 0.0063011
6390.0 0.0069516
6410.0 0.0081328
6430.0 0.010009
6450.0 0.012324
6470.0 0.014459
6490.0 0.016344
6510.0 0.017322
6530.0 0.016713
6550.0 0.016055
6570.0 0.016132
6590.0 0.016037
6610.0 0.015264
6630.0 0.014377
6650.0 0.013375
6670.0 0.013249
6690.0 0.012915
6710.0 0.011942
6730.0 0.01039
6750.0 0.0092594
6770.0 0.0095506
6790.0 0.010196
6810.0 0.011079
6830.0 0.011294
6850.0 0.010615
6870.0 0.010303
6890.0 0.010095
6910.0 0.0095388
6930.0 0.009212
6950.0 0.0092813
6970.0 0.0094801
6990.0 0.010026
7010.0 0.010793
7030.0 0.01058
7050.0 0.0095887
7070.0 0.0086147
7090.0 0.0073615
7110.0 0.0065569
7130.0 0.00689
7150.0 0.0074644
7170.0 0.0076056
7190.0 0.0074322
7210.0 0.0073544
7230.0 0.008258
7250.0 0.009405
7270.0 0.010123
7290.0 0.010216
7310.0 0.0097152
7330.0 0.0089229
7350.0 0.0082525
7370.0 0.0078381
7390.0 0.0077514
7410.0 0.0082859
7430.0 0.0095451
7450.0 0.010656
7470.0 0.011996
7490.0 0.013715
7510.0 0.013122
7530.0 0.011069
7550.0 0.0093468
7570.0 0.007784
7590.0 0.0064511
7610.0 0.006255
7630.0 0.0065796
7650.0 0.0072727
7670.0 0.008345
7690.0 0.009202
7710.0 0.010395
7730.0 0.010884
7750.0 0.011277
7770.0 0.011947
7790.0 0.01208
7810.0 0.011918
7830.0 0.011305
7850.0 0.011065
7870.0 0.010723
7890.0 0.00987
7910.0 0.0090086
7930.0 0.0082033
7950.0 0.0070549
7970.0 0.0067176
7990.0 0.0069495
8010.0 0.0080658
8030.0 0.0081252
8050.0 0.008449
8070.0 0.0083199
8090.0 0.0083308
8110.0 0.0081364
8130.0 0.007693
8150.0 0.0071606
8170.0 0.0071084
8190.0 0.0072127
8210.0 0.0072983
8230.0 0.0068446
8250.0 0.0064403
8270.0 0.0056771
8290.0 0.0046709
8310.0 0.0037027
8330.0 0.0026553
8350.0 0.0019986
8370.0 0.0018807
8390.0 0.0020772
8410.0 0.0024549
8430.0 0.0030842
8450.0 0.0034105
8470.0 0.0036597
8490.0 0.0040285
8510.0 0.0043255
8530.0 0.0048048
8550.0 0.0056828
8570.0 0.0064934
8590.0 0.0071272
8610.0 0.0082099
8630.0 0.0095081
8650.0 0.010029
8670.0 0.010189
8690.0 0.010153
8710.0 0.009814
8730.0 0.0094199
8750.0 0.0088432
8770.0 0.0087021
8790.0 0.0084255
8810.0 0.0078009
8830.0 0.0073805
8850.0 0.006439
8870.0 0.0059063
8890.0 0.0054441
8910.0 0.005978
8930.0 0.0056619
8950.0 0.0057708
8970.0 0.0058861
8990.0 0.0058539
9010.0 0.005933
9030.0 0.005725
9050.0 0.0057104
9070.0 0.0057162
9090.0 0.005722
9110.0 0.0057301
9130.0 0.0057361
9150.0 0.0057415
9170.0 0.0057388
9190.0 0.0057252
9210.0 0.0057851
9230.0 0.0057795
9250.0 0.0057809
9270.0 0.0057843
9290.0 0.0057893
9310.0 0.0057953
9330.0 0.005802
9350.0 0.0058094
9370.0 0.0058172
9390.0 0.0058251
9410.0 0.0058334
9430.0 0.0058421
9450.0 0.0058507
9470.0 0.0058597
9490.0 0.0058691
9510.0 0.0058786
9530.0 0.0058883
9550.0 0.0058985
9570.0 0.0059089
9590.0 0.0059196
9610.0 0.0059305
9630.0 0.0059419
9650.0 0.0059535
9670.0 0.0059652
9690.0 0.0059774
9710.0 0.0059899
9730.0 0.0060025
9750.0 0.0060155
9770.0 0.0060291
9790.0 0.0060427
9810.0 0.0060564
9830.0 0.0060707
9850.0 0.0060852
9870.0 0.0060997
9890.0 0.0061146
9910.0 0.0061299
9930.0 0.0061452
9950.0 0.0061568
9970.0 0.0061739
9990.0 0.0061911
10010.0 0.0062068
10030.0 0.0062235
10050.0 0.0062381
10070.0 0.0062409
10090.0 0.0062624
10110.0 0.0062835
10130.0 0.0063033
10150.0 0.0063225
10170.0 0.0063406
10190.0 0.0063578
10210.0 0.0063753
10230.0 0.0063927
10250.0 0.0064095
10270.0 0.0064263
10290.0 0.0064436
10310.0 0.0064602
10330.0 0.0064763
10350.0 0.0064929
10370.0 0.0065094
10390.0 0.0065252
10410.0 0.006541
10430.0 0.0065571
10450.0 0.0065724
10470.0 0.0065873
10490.0 0.0066023
10510.0 0.0066171
10530.0 0.0066308
10550.0 0.0066446
10570.0 0.0066584
10590.0 0.0066715
10610.0 0.0066839
10630.0 0.0066965
10650.0 0.0067086
10670.0 0.0067196
10690.0 0.0067305
10710.0 0.0067413
10730.0 0.0067512
10750.0 0.0067601
10770.0 0.0067694
10790.0 0.006778
10810.0 0.0067855
10830.0 0.0067925
10850.0 0.0067987
10870.0 0.006802
10890.0 0.0068017
10910.0 0.0067963
10930.0 0.0067814
10950.0 0.0067507
10970.0 0.0067016
10990.0 0.0066325
11010.0 0.006681
11030.0 0.0065422
11050.0 0.0063831
11070.0 0.0062011
11090.0 0.005991
11110.0 0.0057827
11130.0 0.0055748
11150.0 0.0053622
11170.0 0.0051565
11190.0 0.0049705
11210.0 0.0047929
11230.0 0.0046265
11250.0 0.0044823
11270.0 0.0043568
11290.0 0.004243
11310.0 0.0041453
11330.0 0.004066
11350.0 0.0039949
11370.0 0.0039302
11390.0 0.0038721
11410.0 0.0038164
11430.0 0.0037564
11450.0 0.0036939
11470.0 0.0036282
11490.0 0.0035549
11510.0 0.0034724
11530.0 0.003387
11550.0 0.0032969
11570.0 0.003199
11590.0 0.0030992
11610.0 0.0030013
11630.0 0.0029004
11650.0 0.0027991
11670.0 0.0027055
11690.0 0.0026161
11710.0 0.0025289
11730.0 0.0024483
11750.0 0.0023758
11770.0 0.0023059
11790.0 0.0022403
11810.0 0.0021809
11830.0 0.002125
11850.0 0.0020693
11870.0 0.0020172
11890.0 0.0019677
11910.0 0.0019174
11930.0 0.0018664
11950.0 0.0018168
11970.0 0.0017661
11990.0 0.0017127
12010.0 0.0016599
12030.0 0.001608
12050.0 0.0015549
12070.0 0.0015017
12090.0 0.0014532
12110.0 0.0014068
12130.0 0.0013629
12150.0 0.0013245
12170.0 0.0012924
12190.0 0.0012653
12210.0 0.0012458
12230.0 0.0012346
12250.0 0.0012311
12270.0 0.0012362
12290.0 0.0012493
12310.0 0.001269
12330.0 0.0012969
12350.0 0.0013311
12370.0 0.0013687
12390.0 0.0014105
12410.0 0.0014573
12430.0 0.0015021
12450.0 0.0015457
12470.0 0.001589
12490.0 0.0016291
12510.0 0.0016632
12530.0 0.0016939
12550.0 0.0017199
12570.0 0.001739
12590.0 0.0017522
12610.0 0.0017602
12630.0 0.0017622
12650.0 0.0017585
12670.0 0.0017501
12690.0 0.001737
12710.0 0.0017201
12730.0 0.0017
12750.0 0.0016761
12770.0 0.00165
12790.0 0.0016225
12810.0 0.0015928
12830.0 0.001561
12850.0 0.0015289
12870.0 0.0014959
12890.0 0.0014605
12910.0 0.0014242
12930.0 0.0013875
12950.0 0.0013482
12970.0 0.0013065
12990.0 0.0012652
13010.0 0.0012227
13030.0 0.0011781
13050.0 0.0011337
13070.0 0.0010909
13090.0 0.0010472
13110.0 0.0010047
13130.0 0.00096562
13150.0 0.0009292
13170.0 0.00089471
13190.0 0.00086534
13210.0 0.00084093
13230.0 0.00082031
13250.0 0.00080432
13270.0 0.00079324
13290.0 0.00078617
13310.0 0.00078303
13330.0 0.00078341
13350.0 0.00078647
13370.0 0.00079194
13390.0 0.00079922
13410.0 0.00080677
13430.0 0.00081479
13450.0 0.00082289
13470.0 0.00083008
13490.0 0.00083611
13510.0 0.00084153
13530.0 0.00084557
13550.0 0.00084822
13570.0 0.00084994
13590.0 0.00085089
13610.0 0.00085108
13630.0 0.0008508
13650.0 0.00085038
13670.0 0.00084987
13690.0 0.00084933
13710.0 0.00084889
13730.0 0.00084864
13750.0 0.00084828
13770.0 0.00084783
13790.0 0.00084721
13810.0 0.00084618
13830.0 0.00084457
13850.0 0.00084227
13870.0 0.00083907
13890.0 0.00083496
13910.0 0.00082991
13930.0 0.00082372
13950.0 0.00081663
13970.0 0.00080911
13990.0 0.0008009
14010.0 0.0007923
14030.0 0.00078389
14050.0 0.00077575
14070.0 0.00076767
14090.0 0.0007604
14110.0 0.00075402
14130.0 0.00074831
14150.0 0.00074339
14170.0 0.00073947
14190.0 0.00073635
14210.0 0.00073398
14230.0 0.00073246
14250.0 0.00073171
14270.0 0.00073184
14290.0 0.00073292
14310.0 0.00073481
14330.0 0.00073764
14350.0 0.00074158
14370.0 0.00074638
14390.0 0.00075182
14410.0 0.00075834
14430.0 0.00076565
14450.0 0.0007733
14470.0 0.00078152
14490.0 0.00079074
14510.0 0.00080016
14530.0 0.00080986
14550.0 0.00082067
14570.0 0.00083251
14590.0 0.00084497
14610.0 0.00085903
14630.0 0.00087541
14650.0 0.00089318
14670.0 0.00091264
14690.0 0.00093496
14710.0 0.00095991
14730.0 0.00098535
14750.0 0.0010131
14770.0 0.0010431
14790.0 0.0010734
14810.0 0.0011033
14830.0 0.0011352
14850.0 0.0011657
14870.0 0.0011938
14890.0 0.0012203
14910.0 0.0012449
14930.0 0.0012656
14950.0 0.0012825
14970.0 0.0012964
14990.0 0.0013064
15010.0 0.0013128
15030.0 0.0013163
15050.0 0.0013174
15070.0 0.0013166
15090.0 0.0013146
15110.0 0.0013118
15130.0 0.0013086
15150.0 0.0013053
15170.0 0.0013018
15190.0 0.0012981
15210.0 0.0012946
15230.0 0.0012912
15250.0 0.0012876
15270.0 0.0012841
15290.0 0.0012808
15310.0 0.0012774
15330.0 0.0012739
15350.0 0.0012706
15370.0 0.0012674
15390.0 0.0012639
15410.0 0.0012606
15430.0 0.0012574
15450.0 0.0012541
15470.0 0.0012508
15490.0 0.0012476
15510.0 0.0012445
15530.0 0.0012412
15550.0 0.001238
15570.0 0.001235
15590.0 0.0012317
15610.0 0.0012285
15630.0 0.0012254
15650.0 0.0012223
15670.0 0.0012191
15690.0 0.001216
15710.0 0.001213
15730.0 0.0012099
15750.0 0.0012067
15770.0 0.0012037
15790.0 0.0012006
15810.0 0.0011974
15830.0 0.0011943
15850.0 0.0011913
15870.0 0.0011882
15890.0 0.0011851
15910.0 0.0011821
15930.0 0.0011791
15950.0 0.0011759
15970.0 0.0011728
15990.0 0.0011698
16010.0 0.0011666
16030.0 0.0011634
16050.0 0.0011605
16070.0 0.0011574
16090.0 0.0011542
16110.0 0.0011511
16130.0 0.0011481
16150.0 0.0011448
16170.0 0.0011416
16190.0 0.0011386
16210.0 0.0011354
16230.0 0.0011322
16250.0 0.001129
16270.0 0.001126
16290.0 0.0011227
16310.0 0.0011195
16330.0 0.0011163
16350.0 0.0011131
16370.0 0.0011097
16390.0 0.0011065
16410.0 0.0011033
16430.0 0.0011
16450.0 0.0010967
16470.0 0.0010935
16490.0 0.0010901
16510.0 0.0010867
16530.0 0.0010834
16550.0 0.0010801
16570.0 0.0010766
16590.0 0.0010732
16610.0 0.0010699
16630.0 0.0010665
16650.0 0.001063
16670.0 0.0010596
16690.0 0.0010562
16710.0 0.0010526
16730.0 0.001049
16750.0 0.0010456
16770.0 0.001042
16790.0 0.0010384
16810.0 0.0010349
16830.0 0.0010314
16850.0 0.0010277
16870.0 0.0010241
16890.0 0.0010205
16910.0 0.0010168
16930.0 0.001013
16950.0 0.0010094
16970.0 0.0010057
16990.0 0.0010019
17010.0 0.00099817
17030.0 0.00099453
17050.0 0.00099068
17070.0 0.00098682
17090.0 0.00098308
17110.0 0.00097928
17130.0 0.00097527
17150.0 0.00097142
17170.0 0.00096764
17190.0 0.00096369
17210.0 0.00095973
17230.0 0.00095591
17250.0 0.00095196
17270.0 0.00094787
17290.0 0.00094391
17310.0 0.00093998
17330.0 0.00093589
17350.0 0.00093176
17370.0 0.00092785
17390.0 0.0009238
17410.0 0.00091964
17430.0 0.00091558
17450.0 0.00091158
17470.0 0.00090731
17490.0 0.00090312
17510.0 0.00089905
17530.0 0.00089488
17550.0 0.0008906
17570.0 0.00088646
17590.0 0.00088235
17610.0 0.00087804
17630.0 0.00087377
17650.0 0.00086962
17670.0 0.00086535
17690.0 0.00086089
17710.0 0.00085669
17730.0 0.00085246
17750.0 0.00084807
17770.0 0.00084373
17790.0 0.00083954
17810.0 0.00083514
17830.0 0.00083069
17850.0 0.00082638
17870.0 0.00082205
17890.0 0.00081756
17910.0 0.00081312
17930.0 0.00080884
17950.0 0.00080441
17970.0 0.00079992
17990.0 0.00079557
18010.0 0.0007912
18030.0 0.00078659
18050.0 0.00078214
18070.0 0.00077776
18090.0 0.00077326
18110.0 0.00076869
18130.0 0.00076431
18150.0 0.00075987
18170.0 0.00075529
18190.0 0.00075081
18210.0 0.0007464
18230.0 0.00074181
18250.0 0.00073718
18270.0 0.00073276
18290.0 0.00072827
18310.0 0.00072366
18330.0 0.00071916
18350.0 0.00071474
18370.0 0.00071013
18390.0 0.00070554
18410.0 0.00070107
18430.0 0.00069655
18450.0 0.00069186
18470.0 0.00068734
18490.0 0.00068289
18510.0 0.0006783
18530.0 0.00067371
18550.0 0.00066928
18570.0 0.00066472
18590.0 0.00066005
18610.0 0.00065553
18630.0 0.00065105
18650.0 0.00064643
18670.0 0.00064181
18690.0 0.0006374
18710.0 0.00063286
18730.0 0.00062824
18750.0 0.00062375
18770.0 0.00061931
18790.0 0.00061463
18810.0 0.00061005
18830.0 0.00060562
18850.0 0.00060109
18870.0 0.00059647
18890.0 0.00059202
18910.0 0.00058759
18930.0 0.00058299
18950.0 0.00057847
18970.0 0.00057405
18990.0 0.00056954
19010.0 0.00056488
19030.0 0.00056048
19050.0 0.00055606
19070.0 0.00055151
19090.0 0.00054703
19110.0 0.0005427
19130.0 0.00053817
19150.0 0.00053363
19170.0 0.00052925
19190.0 0.00052485
19210.0 0.0005203
19230.0 0.00051584
19250.0 0.00051155
19270.0 0.0005071
19290.0 0.00050264
19310.0 0.00049832
19330.0 0.00049398
19350.0 0.00048944
19370.0 0.00048507
19390.0 0.00048078
19410.0 0.00047637
19430.0 0.00047194
19450.0 0.0004677
19470.0 0.0004634
19490.0 0.00045898
19510.0 0.00045468
19530.0 0.00045046
19550.0 0.00044607
19570.0 0.00044167
19590.0 0.00043748
19610.0 0.00043322
19630.0 0.00042887
19650.0 0.00042465
19670.0 0.0004205
19690.0 0.00041617
19710.0 0.00041189
19730.0 0.00040774
19750.0 0.00040354
19770.0 0.0003992
19790.0 0.00039504
19810.0 0.00039093
19830.0 0.00038669
19850.0 0.00038245
19870.0 0.00037831
19890.0 0.00037394
19910.0 0.00036927
19930.0 0.00036445
19950.0 0.00035921
19970.0 0.00035313
19990.0 0.00034628
20010.0 0.00033895
20030.0 0.00033062
20050.0 0.00032152
20070.0 0.00031232
20090.0 0.00030311
20110.0 0.00029352
20130.0 0.00028464
20150.0 0.00027661
20170.0 0.00026906
20190.0 0.00026216
20210.0 0.00025631
20230.0 0.00025118
20250.0 0.00024663
20270.0 0.00024291
20290.0 0.00023995
20310.0 0.00023755
20330.0 0.00023573
20350.0 0.00023458
20370.0 0.00023392
20390.0 0.00023378
20410.0 0.00023413
20430.0 0.00023492
20450.0 0.00023624
20470.0 0.00023806
20490.0 0.00024026
20510.0 0.00024294
20530.0 0.00024619
20550.0 0.00024981
20570.0 0.00025367
20590.0 0.00025805
20610.0 0.00026276
20630.0 0.00026752
20650.0 0.00027249
20670.0 0.00027782
20690.0 0.0002829
20710.0 0.00028781
20730.0 0.00029276
20750.0 0.00029754
20770.0 0.00030188
20790.0 0.0003061
20810.0 0.00031024
20830.0 0.00031409
20850.0 0.00031775
20870.0 0.00032154
20890.0 0.00032534
20910.0 0.000329
20930.0 0.00033286
20950.0 0.00033696
20970.0 0.00034105
20990.0 0.00034517
21010.0 0.00034959
21030.0 0.00035391
21050.0 0.000358
21070.0 0.00036197
21090.0 0.00036577
21110.0 0.00036899
21130.0 0.00037174
21150.0 0.00037406
21170.0 0.00037578
21190.0 0.00037686
21210.0 0.00037738
21230.0 0.00037727
21250.0 0.00037656
21270.0 0.0003753
21290.0 0.00037346
21310.0 0.00037111
21330.0 0.00036842
21350.0 0.00036524
21370.0 0.00036165
21390.0 0.00035785
21410.0 0.00035383
21430.0 0.00034936
21450.0 0.00034489
21470.0 0.00034045
21490.0 0.00033587
21510.0 0.00033125
21530.0 0.00032691
21550.0 0.00032268
21570.0 0.0003185
21590.0 0.00031468
21610.0 0.00031126
21630.0 0.0003081
21650.0 0.00030529
21670.0 0.00030311
21690.0 0.00030136
21710.0 0.0003001
21730.0 0.00029939
21750.0 0.00029922
21770.0 0.00029961
21790.0 0.00030058
21810.0 0.00030204
21830.0 0.00030402
21850.0 0.00030661
21870.0 0.0003096
21890.0 0.00031292
21910.0 0.00031677
21930.0 0.00032099
21950.0 0.00032537
21970.0 0.00033007
21990.0 0.00033523
22010.0 0.00034031
22030.0 0.00034543
22050.0 0.00035077
22070.0 0.00035611
22090.0 0.00036114
22110.0 0.00036618
22130.0 0.00037116
22150.0 0.00037574
22170.0 0.00037996
22190.0 0.00038399
22210.0 0.00038755
22230.0 0.00039045
22250.0 0.00039289
22270.0 0.00039476
22290.0 0.00039593
22310.0 0.00039644
22330.0 0.00039624
22350.0 0.00039528
22370.0 0.0003936
22390.0 0.00039115
22410.0 0.00038781
22430.0 0.0003839
22450.0 0.00037934
22470.0 0.00037393
22490.0 0.00036794
22510.0 0.00036161
22530.0 0.0003545
22550.0 0.00034678
22570.0 0.00033901
22590.0 0.00033093
22610.0 0.00032233
22630.0 0.00031366
22650.0 0.00030526
22670.0 0.0002965
22690.0 0.00028769
22710.0 0.00027927
22730.0 0.00027102
22750.0 0.00026252
22770.0 0.00025463
22790.0 0.00024729
22810.0 0.00024011
22830.0 0.0002333
22850.0 0.00022726
22870.0 0.00022166
22890.0 0.00021644
22910.0 0.00021199
22930.0 0.00020828
22950.0 0.00020514
22970.0 0.0002027
22990.0 0.00020116
23010.0 0.00020031
23030.0 0.00020023
23050.0 0.00020093
23070.0 0.0002023
23090.0 0.00020451
23110.0 0.00020742
23130.0 0.00021085
23150.0 0.00021488
23170.0 0.00021955
23190.0 0.0002245
23210.0 0.00022959
23230.0 0.00023511
23250.0 0.00024072
23270.0 0.00024612
23290.0 0.00025152
23310.0 0.00025692
23330.0 0.00026174
23350.0 0.00026612
23370.0 0.00027017
