#lamb flux
1010.0 2.6076e-06
1030.0 2.856e-06
1050.0 3.1417e-06
1070.0 3.4633e-06
1090.0 3.8287e-06
1110.0 4.2035e-06
1130.0 4.5807e-06
1150.0 4.976e-06
1170.0 5.3837e-06
1190.0 5.7704e-06
1210.0 6.1624e-06
1230.0 6.5675e-06
1250.0 6.9645e-06
1270.0 7.3502e-06
1290.0 7.7577e-06
1310.0 8.1651e-06
1330.0 8.5558e-06
1350.0 8.9511e-06
1370.0 9.3592e-06
1390.0 9.7572e-06
1410.0 1.0144e-05
1430.0 1.0548e-05
1450.0 1.0952e-05
1470.0 1.1342e-05
1490.0 1.1737e-05
1510.0 1.2154e-05
1530.0 1.2549e-05
1550.0 1.2939e-05
1570.0 1.3342e-05
1590.0 1.3746e-05
1610.0 1.4132e-05
1630.0 1.4529e-05
1650.0 1.4937e-05
1670.0 1.5331e-05
1690.0 1.572e-05
1710.0 1.6123e-05
1730.0 1.6528e-05
1750.0 1.6908e-05
1770.0 1.7298e-05
1790.0 1.7696e-05
1810.0 1.808e-05
1830.0 1.8456e-05
1850.0 1.8853e-05
1870.0 1.9239e-05
1890.0 1.9609e-05
1910.0 1.9986e-05
1930.0 2.0369e-05
1950.0 2.0731e-05
1970.0 2.1085e-05
1990.0 2.1451e-05
2010.0 2.1806e-05
2030.0 2.2144e-05
2050.0 2.2488e-05
2070.0 2.2837e-05
2090.0 2.3158e-05
2110.0 2.3472e-05
2130.0 2.3791e-05
2150.0 2.4096e-05
2170.0 2.4377e-05
2190.0 2.4664e-05
2210.0 2.4944e-05
2230.0 2.52e-05
2250.0 2.5446e-05
2270.0 2.5697e-05
2290.0 2.5926e-05
2310.0 2.6129e-05
2330.0 2.6332e-05
2350.0 2.6526e-05
2370.0 2.6693e-05
2390.0 2.6854e-05
2410.0 2.7024e-05
2430.0 2.7179e-05
2450.0 2.7328e-05
2470.0 2.7503e-05
2490.0 2.7726e-05
2510.0 2.8004e-05
2530.0 2.8458e-05
2550.0 2.9278e-05
2570.0 3.0644e-05
2590.0 3.2762e-05
2610.0 3.6203e-05
2630.0 4.1053e-05
2650.0 4.6991e-05
2670.0 5.4038e-05
2690.0 6.1873e-05
2710.0 6.935e-05
2730.0 7.5949e-05
2750.0 8.1792e-05
2770.0 8.6313e-05
2790.0 8.951e-05
2810.0 9.1868e-05
2830.0 9.374e-05
2850.0 9.5061e-05
2870.0 9.6181e-05
2890.0 9.7309e-05
2910.0 9.8399e-05
2930.0 9.9368e-05
2950.0 0.00010041
2970.0 0.00010149
2990.0 0.00010248
3010.0 0.00094125
3030.0 0.00095043
3050.0 0.00095911
3070.0 0.00096568
3090.0 0.00097101
3110.0 0.00097322
3130.0 0.00096997
3150.0 0.00096009
3170.0 0.00094137
3190.0 0.00091401
3210.0 0.00088045
3230.0 0.00084466
3250.0 0.00084131
3270.0 0.0008144
3290.0 0.00084646
3310.0 0.00081586
3330.0 0.00083154
3350.0 0.00085957
3370.0 0.00089627
3390.0 0.00093977
3410.0 0.00098478
3430.0 0.001033
3450.0 0.0010847
3470.0 0.0011369
3490.0 0.001187
3510.0 0.0012503
3530.0 0.0013261
3550.0 0.001374
3570.0 0.0014093
3590.0 0.001502
3610.0 0.0015251
3630.0 0.0016396
3650.0 0.001724
3670.0 0.0018134
3690.0 0.0018276
3710.0 0.0017767
3730.0 0.0018028
3750.0 0.001803
3770.0 0.0018773
3790.0 0.001988
3810.0 0.0022115
3830.0 0.0026758
3850.0 0.0031871
3870.0 0.0036695
3890.0 0.0039869
3910.0 0.0041349
3930.0 0.0043011
3950.0 0.0044708
3970.0 0.0039206
3990.0 0.002663
4010.0 0.0023028
4030.0 0.0031463
4050.0 0.0039666
4070.0 0.0035256
4090.0 0.0021734
4110.0 0.0021146
4130.0 0.0030071
4150.0 0.0034089
4170.0 0.0028698
4190.0 0.0024486
4210.0 0.0032124
4230.0 0.0033736
4250.0 0.0032043
4270.0 0.0032282
4290.0 0.0029435
4310.0 0.0033043
4330.0 0.0038511
4350.0 0.0044236
4370.0 0.0044047
4390.0 0.0042936
4410.0 0.0037896
4430.0 0.0029892
4450.0 0.0022753
4470.0 0.0024683
4490.0 0.0026717
4510.0 0.0036596
4530.0 0.0038163
4550.0 0.0037567
4570.0 0.0043648
4590.0 0.0055662
4610.0 0.0076151
4630.0 0.0093409
4650.0 0.0094305
4670.0 0.0097358
4690.0 0.010493
4710.0 0.010275
4730.0 0.0082821
4750.0 0.0059047
4770.0 0.0049306
4790.0 0.0043474
4810.0 0.0041201
4830.0 0.0045021
4850.0 0.0050563
4870.0 0.005936
4890.0 0.0065177
4910.0 0.0058025
4930.0 0.0060386
4950.0 0.0075076
4970.0 0.0092999
4990.0 0.010687
5010.0 0.010683
5030.0 0.0090471
5050.0 0.0065499
5070.0 0.0047992
5090.0 0.0041514
5110.0 0.004261
5130.0 0.004641
5150.0 0.0043697
5170.0 0.0043528
5190.0 0.004334
5210.0 0.0044124
5230.0 0.004774
5250.0 0.0049271
5270.0 0.0053073
5290.0 0.0063672
5310.0 0.0072159
5330.0 0.0076195
5350.0 0.0077704
5370.0 0.0082969
5390.0 0.0086261
5410.0 0.0079265
5430.0 0.0072186
5450.0 0.0073733
5470.0 0.0087326
5490.0 0.011194
5510.0 0.013447
5530.0 0.014151
5550.0 0.013734
5570.0 0.012976
5590.0 0.012144
5610.0 0.011611
5630.0 0.011807
5650.0 0.012189
5670.0 0.011793
5690.0 0.011097
5710.0 0.010821
5730.0 0.009567
5750.0 0.0076333
5770.0 0.0069484
5790.0 0.0078236
5810.0 0.0087042
5830.0 0.0097131
5850.0 0.0099763
5870.0 0.009709
5890.0 0.0091953
5910.0 0.0085644
5930.0 0.0085386
5950.0 0.009011
5970.0 0.0091984
5990.0 0.0081214
6010.0 0.0066126
6030.0 0.0053557
6050.0 0.0048462
6070.0 0.0051378
6090.0 0.00577
6110.0 0.0059122
6130.0 0.0055377
6150.0 0.0054886
6170.0 0.0060674
6190.0 0.0070811
6210.0 0.0084815
6230.0 0.0095749
6250.0 0.0090839
6270.0 0.0079309
6290.0 0.0066236
6310.0 0.0052527
6330.0 0.0044496
6350.0 0.0043932
6370.0 0.0048218
6390.0 0.0053196
6410.0 0.0062235
6430.0 0.0076593
6450.0 0.0094304
6470.0 0.011064
6490.0 0.012507
6510.0 0.013255
6530.0 0.012789
6550.0 0.012286
6570.0 0.012345
6590.0 0.012272
6610.0 0.01168
6630.0 0.011002
6650.0 0.010235
6670.0 0.010139
6690.0 0.0098828
6710.0 0.0091383
6730.0 0.0079506
6750.0 0.0070857
6770.0 0.0073085
6790.0 0.0078027
6810.0 0.0084778
6830.0 0.0086428
6850.0 0.0081228
6870.0 0.0078839
6890.0 0.0077249
6910.0 0.0072995
6930.0 0.0070494
6950.0 0.0071024
6970.0 0.0072546
6990.0 0.007672
7010.0 0.0082591
7030.0 0.0080965
7050.0 0.0073376
7070.0 0.0065923
7090.0 0.0056333
7110.0 0.0050176
7130.0 0.0052725
7150.0 0.0057121
7170.0 0.0058201
7190.0 0.0056874
7210.0 0.0056279
7230.0 0.0063193
7250.0 0.0071971
7270.0 0.0077463
7290.0 0.0078174
7310.0 0.0074345
7330.0 0.0068281
7350.0 0.0063151
7370.0 0.005998
7390.0 0.0059317
7410.0 0.0063407
7430.0 0.0073043
7450.0 0.0081547
7470.0 0.0091799
7490.0 0.010495
7510.0 0.010037
7530.0 0.0084588
7550.0 0.0071365
7570.0 0.0059379
7590.0 0.0049167
7610.0 0.004763
7630.0 0.0050057
7650.0 0.0055281
7670.0 0.0063375
7690.0 0.0069822
7710.0 0.0078807
7730.0 0.0082436
7750.0 0.0085342
7770.0 0.0090334
7790.0 0.009126
7810.0 0.0089958
7830.0 0.0085254
7850.0 0.0083374
7870.0 0.0080727
7890.0 0.0074241
7910.0 0.0067703
7930.0 0.0061598
7950.0 0.005293
7970.0 0.0050355
7990.0 0.0052049
8010.0 0.0060359
8030.0 0.0060752
8050.0 0.0063119
8070.0 0.0062103
8090.0 0.0062132
8110.0 0.0060631
8130.0 0.0057279
8150.0 0.005327
8170.0 0.0052838
8190.0 0.0053569
8210.0 0.0054159
8230.0 0.0050751
8250.0 0.0047713
8270.0 0.0042025
8290.0 0.0034548
8310.0 0.0027364
8330.0 0.0019608
8350.0 0.0014746
8370.0 0.0013865
8390.0 0.0015301
8410.0 0.0018069
8430.0 0.0022683
8450.0 0.0025062
8470.0 0.0026872
8490.0 0.0029556
8510.0 0.003171
8530.0 0.0035195
8550.0 0.0041593
8570.0 0.0047488
8590.0 0.0052082
8610.0 0.0059947
8630.0 0.0069371
8650.0 0.0073111
8670.0 0.0074223
8690.0 0.0073903
8710.0 0.0071379
8730.0 0.0068459
8750.0 0.0064218
8770.0 0.0063145
8790.0 0.006109
8810.0 0.0056517
8830.0 0.0053431
8850.0 0.0046579
8870.0 0.0042692
8890.0 0.0039322
8910.0 0.0043145
8930.0 0.0040833
8950.0 0.0041586
8970.0 0.0042385
8990.0 0.0042121
9010.0 0.0042674
9030.0 0.0041178
9050.0 0.0041073
9070.0 0.0041115
9090.0 0.0041156
9110.0 0.0041215
9130.0 0.0041258
9150.0 0.0041297
9170.0 0.0041278
9190.0 0.004118
9210.0 0.004161
9230.0 0.004157
9250.0 0.004158
9270.0 0.0041605
9290.0 0.0041641
9310.0 0.0041684
9330.0 0.0041732
9350.0 0.0041785
9370.0 0.0041841
9390.0 0.0041898
9410.0 0.0041957
9430.0 0.004202
9450.0 0.0042083
9470.0 0.0042147
9490.0 0.0042214
9510.0 0.0042283
9530.0 0.0042352
9550.0 0.0042426
9570.0 0.0042501
9590.0 0.0042578
9610.0 0.0042656
9630.0 0.0042738
9650.0 0.0042822
9670.0 0.0042905
9690.0 0.0042993
9710.0 0.0043084
9730.0 0.0043174
9750.0 0.0043267
9770.0 0.0043365
9790.0 0.0043463
9810.0 0.0043562
9830.0 0.0043664
9850.0 0.0043769
9870.0 0.0043873
9890.0 0.004398
9910.0 0.004409
9930.0 0.0044201
9950.0 0.0044284
9970.0 0.0044407
9990.0 0.004453
10010.0 0.0044644
10030.0 0.0044764
10050.0 0.0044869
10070.0 0.0044889
10090.0 0.0045044
10110.0 0.0045195
10130.0 0.0045338
10150.0 0.0045475
10170.0 0.0045606
10190.0 0.004573
10210.0 0.0045855
10230.0 0.0045981
10250.0 0.0046102
10270.0 0.0046223
10290.0 0.0046346
10310.0 0.0046466
10330.0 0.0046582
10350.0 0.0046702
10370.0 0.004682
10390.0 0.0046934
10410.0 0.0047047
10430.0 0.0047163
10450.0 0.0047273
10470.0 0.004738
10490.0 0.0047488
10510.0 0.0047595
10530.0 0.0047693
10550.0 0.0047792
10570.0 0.0047892
10590.0 0.0047986
10610.0 0.0048075
10630.0 0.0048166
10650.0 0.0048253
10670.0 0.0048332
10690.0 0.0048411
10710.0 0.0048488
10730.0 0.0048559
10750.0 0.0048624
10770.0 0.004869
10790.0 0.0048752
10810.0 0.0048806
10830.0 0.0048856
10850.0 0.0048901
10870.0 0.0048925
10890.0 0.0048923
10910.0 0.0048884
10930.0 0.0048776
10950.0 0.0048556
10970.0 0.0048203
10990.0 0.0047706
11010.0 0.0048054
11030.0 0.0047056
11050.0 0.0045912
11070.0 0.0044603
11090.0 0.0043092
11110.0 0.0041593
11130.0 0.0040098
11150.0 0.0038569
11170.0 0.0037089
11190.0 0.0035752
11210.0 0.0034474
11230.0 0.0033277
11250.0 0.003224
11270.0 0.0031337
11290.0 0.0030518
11310.0 0.0029816
11330.0 0.0029245
11350.0 0.0028734
11370.0 0.0028269
11390.0 0.0027851
11410.0 0.002745
11430.0 0.0027019
11450.0 0.0026569
11470.0 0.0026097
11490.0 0.002557
11510.0 0.0024976
11530.0 0.0024361
11550.0 0.0023714
11570.0 0.002301
11590.0 0.0022292
11610.0 0.0021588
11630.0 0.0020862
11650.0 0.0020133
11670.0 0.001946
11690.0 0.0018817
11710.0 0.001819
11730.0 0.001761
11750.0 0.0017088
11770.0 0.0016586
11790.0 0.0016114
11810.0 0.0015686
11830.0 0.0015284
11850.0 0.0014884
11870.0 0.0014509
11890.0 0.0014153
11910.0 0.0013791
11930.0 0.0013424
11950.0 0.0013068
11970.0 0.0012703
11990.0 0.0012319
12010.0 0.0011939
12030.0 0.0011566
12050.0 0.0011184
12070.0 0.0010801
12090.0 0.0010453
12110.0 0.0010118
12130.0 0.00098027
12150.0 0.0009527
12170.0 0.00092962
12190.0 0.00091007
12210.0 0.0008961
12230.0 0.00088799
12250.0 0.00088548
12270.0 0.00088916
12290.0 0.00089856
12310.0 0.00091277
12330.0 0.00093283
12350.0 0.00095739
12370.0 0.00098445
12390.0 0.0010145
12410.0 0.0010482
12430.0 0.0010804
12450.0 0.0011118
12470.0 0.0011429
12490.0 0.0011718
12510.0 0.0011963
12530.0 0.0012184
12550.0 0.001237
12570.0 0.0012508
12590.0 0.0012603
12610.0 0.0012661
12630.0 0.0012675
12650.0 0.0012648
12670.0 0.0012588
12690.0 0.0012494
12710.0 0.0012372
12730.0 0.0012228
12750.0 0.0012056
12770.0 0.0011868
12790.0 0.001167
12810.0 0.0011457
12830.0 0.0011228
12850.0 0.0010997
12870.0 0.0010759
12890.0 0.0010505
12910.0 0.0010244
12930.0 0.00099798
12950.0 0.00096968
12970.0 0.00093974
12990.0 0.00091004
13010.0 0.00087948
13030.0 0.00084738
13050.0 0.00081541
13070.0 0.00078461
13090.0 0.00075323
13110.0 0.00072265
13130.0 0.00069454
13150.0 0.00066834
13170.0 0.00064354
13190.0 0.00062241
13210.0 0.00060486
13230.0 0.00059003
13250.0 0.00057852
13270.0 0.00057055
13290.0 0.00056547
13310.0 0.00056321
13330.0 0.00056348
13350.0 0.00056568
13370.0 0.00056962
13390.0 0.00057485
13410.0 0.00058028
13430.0 0.00058605
13450.0 0.00059188
13470.0 0.00059705
13490.0 0.00060139
13510.0 0.00060529
13530.0 0.00060819
13550.0 0.0006101
13570.0 0.00061133
13590.0 0.00061202
13610.0 0.00061215
13630.0 0.00061195
13650.0 0.00061165
13670.0 0.00061129
13690.0 0.00061089
13710.0 0.00061058
13730.0 0.0006104
13750.0 0.00061014
13770.0 0.00060982
13790.0 0.00060937
13810.0 0.00060863
13830.0 0.00060747
13850.0 0.00060582
13870.0 0.00060352
13890.0 0.00060056
13910.0 0.00059693
13930.0 0.00059248
13950.0 0.00058737
13970.0 0.00058197
13990.0 0.00057607
14010.0 0.00056987
14030.0 0.00056383
14050.0 0.00055797
14070.0 0.00055216
14090.0 0.00054693
14110.0 0.00054234
14130.0 0.00053823
14150.0 0.0005347
14170.0 0.00053188
14190.0 0.00052963
14210.0 0.00052793
14230.0 0.00052683
14250.0 0.0005263
14270.0 0.00052639
14290.0 0.00052717
14310.0 0.00052853
14330.0 0.00053056
14350.0 0.0005334
14370.0 0.00053685
14390.0 0.00054076
14410.0 0.00054545
14430.0 0.00055071
14450.0 0.00055621
14470.0 0.00056212
14490.0 0.00056876
14510.0 0.00057553
14530.0 0.00058251
14550.0 0.00059028
14570.0 0.0005988
14590.0 0.00060776
14610.0 0.00061787
14630.0 0.00062965
14650.0 0.00064244
14670.0 0.00065643
14690.0 0.00067249
14710.0 0.00069043
14730.0 0.00070873
14750.0 0.00072869
14770.0 0.00075028
14790.0 0.00077203
14810.0 0.00079358
14830.0 0.00081649
14850.0 0.00083846
14870.0 0.00085863
14890.0 0.00087775
14910.0 0.00089544
14930.0 0.00091028
14950.0 0.00092244
14970.0 0.00093247
14990.0 0.00093968
15010.0 0.00094425
15030.0 0.00094679
15050.0 0.00094757
15070.0 0.00094699
15090.0 0.00094557
15110.0 0.00094355
15130.0 0.00094123
15150.0 0.00093885
15170.0 0.00093631
15190.0 0.00093371
15210.0 0.0009312
15230.0 0.00092872
15250.0 0.00092615
15270.0 0.00092361
15290.0 0.00092123
15310.0 0.00091878
15330.0 0.0009163
15350.0 0.00091393
15370.0 0.00091159
15390.0 0.0009091
15410.0 0.00090672
15430.0 0.00090442
15450.0 0.00090206
15470.0 0.00089965
15490.0 0.00089738
15510.0 0.00089512
15530.0 0.00089276
15550.0 0.00089047
15570.0 0.00088827
15590.0 0.00088595
15610.0 0.0008836
15630.0 0.00088139
15650.0 0.00087917
15670.0 0.00087686
15690.0 0.00087463
15710.0 0.00087248
15730.0 0.00087021
15750.0 0.00086794
15770.0 0.00086576
15790.0 0.00086357
15810.0 0.00086124
15830.0 0.00085903
15850.0 0.00085689
15870.0 0.00085465
15890.0 0.00085239
15910.0 0.00085026
15930.0 0.00084806
15950.0 0.00084575
15970.0 0.00084355
15990.0 0.00084138
16010.0 0.00083911
16030.0 0.00083682
16050.0 0.00083468
16070.0 0.00083246
16090.0 0.00083017
16110.0 0.00082796
16130.0 0.00082579
16150.0 0.00082344
16170.0 0.00082115
16190.0 0.00081895
16210.0 0.00081668
16230.0 0.00081434
16250.0 0.00081209
16270.0 0.00080987
16290.0 0.00080752
16310.0 0.0008052
16330.0 0.00080295
16350.0 0.00080063
16370.0 0.00079817
16390.0 0.00079589
16410.0 0.00079359
16430.0 0.00079119
16450.0 0.0007888
16470.0 0.00078652
16490.0 0.00078411
16510.0 0.00078165
16530.0 0.00077927
16550.0 0.0007769
16570.0 0.00077439
16590.0 0.00077191
16610.0 0.00076955
16630.0 0.00076708
16650.0 0.00076456
16670.0 0.00076213
16690.0 0.00075969
16710.0 0.00075707
16730.0 0.00075454
16750.0 0.00075207
16770.0 0.0007495
16790.0 0.00074687
16810.0 0.00074437
16830.0 0.00074183
16850.0 0.00073918
16870.0 0.00073657
16890.0 0.00073403
16910.0 0.00073135
16930.0 0.00072862
16950.0 0.00072602
16970.0 0.00072338
16990.0 0.00072064
17010.0 0.00071795
17030.0 0.00071533
17050.0 0.00071257
17070.0 0.00070979
17090.0 0.0007071
17110.0 0.00070436
17130.0 0.00070148
17150.0 0.00069871
17170.0 0.00069599
17190.0 0.00069315
17210.0 0.0006903
17230.0 0.00068755
17250.0 0.00068472
17270.0 0.00068177
17290.0 0.00067892
17310.0 0.0006761
17330.0 0.00067316
17350.0 0.00067019
17370.0 0.00066737
17390.0 0.00066446
17410.0 0.00066147
17430.0 0.00065855
17450.0 0.00065567
17470.0 0.0006526
17490.0 0.00064958
17510.0 0.00064666
17530.0 0.00064366
17550.0 0.00064058
17570.0 0.00063761
17590.0 0.00063465
17610.0 0.00063155
17630.0 0.00062848
17650.0 0.00062549
17670.0 0.00062242
17690.0 0.00061921
17710.0 0.00061619
17730.0 0.00061314
17750.0 0.00060999
17770.0 0.00060687
17790.0 0.00060385
17810.0 0.00060069
17830.0 0.00059749
17850.0 0.00059439
17870.0 0.00059128
17890.0 0.00058804
17910.0 0.00058485
17930.0 0.00058178
17950.0 0.00057858
17970.0 0.00057536
17990.0 0.00057223
18010.0 0.00056908
18030.0 0.00056577
18050.0 0.00056257
18070.0 0.00055942
18090.0 0.00055618
18110.0 0.00055289
18130.0 0.00054974
18150.0 0.00054655
18170.0 0.00054326
18190.0 0.00054003
18210.0 0.00053686
18230.0 0.00053356
18250.0 0.00053023
18270.0 0.00052705
18290.0 0.00052382
18310.0 0.00052051
18330.0 0.00051727
18350.0 0.00051409
18370.0 0.00051077
18390.0 0.00050747
18410.0 0.00050426
18430.0 0.00050101
18450.0 0.00049763
18470.0 0.00049438
18490.0 0.00049118
18510.0 0.00048788
18530.0 0.00048458
18550.0 0.00048139
18570.0 0.00047811
18590.0 0.00047475
18610.0 0.00047151
18630.0 0.00046828
18650.0 0.00046496
18670.0 0.00046163
18690.0 0.00045846
18710.0 0.0004552
18730.0 0.00045187
18750.0 0.00044864
18770.0 0.00044545
18790.0 0.00044208
18810.0 0.00043879
18830.0 0.0004356
18850.0 0.00043234
18870.0 0.00042902
18890.0 0.00042582
18910.0 0.00042264
18930.0 0.00041933
18950.0 0.00041607
18970.0 0.0004129
18990.0 0.00040965
19010.0 0.0004063
19030.0 0.00040314
19050.0 0.00039996
19070.0 0.00039668
19090.0 0.00039346
19110.0 0.00039035
19130.0 0.00038709
19150.0 0.00038383
19170.0 0.00038067
19190.0 0.00037751
19210.0 0.00037424
19230.0 0.00037103
19250.0 0.00036794
19270.0 0.00036474
19290.0 0.00036153
19310.0 0.00035843
19330.0 0.0003553
19350.0 0.00035204
19370.0 0.0003489
19390.0 0.00034581
19410.0 0.00034264
19430.0 0.00033945
19450.0 0.0003364
19470.0 0.00033331
19490.0 0.00033013
19510.0 0.00032704
19530.0 0.000324
19550.0 0.00032084
19570.0 0.00031768
19590.0 0.00031466
19610.0 0.0003116
19630.0 0.00030848
19650.0 0.00030544
19670.0 0.00030245
19690.0 0.00029934
19710.0 0.00029626
19730.0 0.00029328
19750.0 0.00029025
19770.0 0.00028713
19790.0 0.00028414
19810.0 0.00028118
19830.0 0.00027813
19850.0 0.00027508
19870.0 0.00027211
19890.0 0.00026896
19910.0 0.00026561
19930.0 0.00026214
19950.0 0.00025837
19970.0 0.000254
19990.0 0.00024906
20010.0 0.00024379
20030.0 0.00023781
20050.0 0.00023126
20070.0 0.00022464
20090.0 0.00021801
20110.0 0.00021112
20130.0 0.00020473
20150.0 0.00019896
20170.0 0.00019352
20190.0 0.00018857
20210.0 0.00018435
20230.0 0.00018067
20250.0 0.00017739
20270.0 0.00017472
20290.0 0.00017259
20310.0 0.00017086
20330.0 0.00016955
20350.0 0.00016872
20370.0 0.00016825
20390.0 0.00016815
20410.0 0.00016841
20430.0 0.00016897
20450.0 0.00016992
20470.0 0.00017123
20490.0 0.00017281
20510.0 0.00017474
20530.0 0.00017708
20550.0 0.00017968
20570.0 0.00018245
20590.0 0.0001856
20610.0 0.00018899
20630.0 0.00019242
20650.0 0.00019599
20670.0 0.00019982
20690.0 0.00020348
20710.0 0.00020702
20730.0 0.00021057
20750.0 0.00021401
20770.0 0.00021713
20790.0 0.00022017
20810.0 0.00022315
20830.0 0.00022591
20850.0 0.00022855
20870.0 0.00023127
20890.0 0.00023401
20910.0 0.00023664
20930.0 0.00023941
20950.0 0.00024236
20970.0 0.00024531
20990.0 0.00024827
21010.0 0.00025145
21030.0 0.00025456
21050.0 0.0002575
21070.0 0.00026035
21090.0 0.00026309
21110.0 0.00026541
21130.0 0.00026738
21150.0 0.00026905
21170.0 0.00027029
21190.0 0.00027106
21210.0 0.00027144
21230.0 0.00027136
21250.0 0.00027085
21270.0 0.00026994
21290.0 0.00026862
21310.0 0.00026693
21330.0 0.00026499
21350.0 0.00026271
21370.0 0.00026012
21390.0 0.00025739
21410.0 0.0002545
21430.0 0.00025129
21450.0 0.00024807
21470.0 0.00024488
21490.0 0.00024158
21510.0 0.00023826
21530.0 0.00023514
21550.0 0.00023209
21570.0 0.00022909
21590.0 0.00022634
21610.0 0.00022388
21630.0 0.0002216
21650.0 0.00021959
21670.0 0.00021802
21690.0 0.00021676
21710.0 0.00021585
21730.0 0.00021534
21750.0 0.00021522
21770.0 0.0002155
21790.0 0.0002162
21810.0 0.00021725
21830.0 0.00021867
21850.0 0.00022053
21870.0 0.00022269
21890.0 0.00022507
21910.0 0.00022784
21930.0 0.00023088
21950.0 0.00023403
21970.0 0.00023741
21990.0 0.00024112
22010.0 0.00024478
22030.0 0.00024846
22050.0 0.0002523
22070.0 0.00025614
22090.0 0.00025976
22110.0 0.00026338
22130.0 0.00026697
22150.0 0.00027026
22170.0 0.00027329
22190.0 0.00027619
22210.0 0.00027875
22230.0 0.00028084
22250.0 0.00028259
22270.0 0.00028394
22290.0 0.00028478
22310.0 0.00028515
22330.0 0.000285
22350.0 0.00028431
22370.0 0.00028311
22390.0 0.00028134
22410.0 0.00027894
22430.0 0.00027613
22450.0 0.00027284
22470.0 0.00026895
22490.0 0.00026465
22510.0 0.00026009
22530.0 0.00025498
22550.0 0.00024943
22570.0 0.00024384
22590.0 0.00023803
22610.0 0.00023184
22630.0 0.00022561
22650.0 0.00021956
22670.0 0.00021327
22690.0 0.00020692
22710.0 0.00020087
22730.0 0.00019493
22750.0 0.00018882
22770.0 0.00018315
22790.0 0.00017787
22810.0 0.0001727
22830.0 0.00016781
22850.0 0.00016346
22870.0 0.00015943
22890.0 0.00015568
22910.0 0.00015248
22930.0 0.00014981
22950.0 0.00014755
22970.0 0.0001458
22990.0 0.00014469
23010.0 0.00014408
23030.0 0.00014402
23050.0 0.00014452
23070.0 0.00014551
23090.0 0.0001471
23110.0 0.00014919
