#lamb flux
1010.0 2.0067e-07
1030.0 2.1364e-07
1050.0 2.2863e-07
1070.0 2.4552e-07
1090.0 2.6471e-07
1110.0 2.8444e-07
1130.0 3.0436e-07
1150.0 3.2527e-07
1170.0 3.4691e-07
1190.0 3.6752e-07
1210.0 3.8848e-07
1230.0 4.1022e-07
1250.0 4.3162e-07
1270.0 4.5252e-07
1290.0 4.7468e-07
1310.0 4.9693e-07
1330.0 5.1842e-07
1350.0 5.4026e-07
1370.0 5.6291e-07
1390.0 5.8516e-07
1410.0 6.0692e-07
1430.0 6.2975e-07
1450.0 6.5272e-07
1470.0 6.7511e-07
1490.0 6.9786e-07
1510.0 7.2193e-07
1530.0 7.4495e-07
1550.0 7.6779e-07
1570.0 7.9145e-07
1590.0 8.1522e-07
1610.0 8.3806e-07
1630.0 8.6158e-07
1650.0 8.8569e-07
1670.0 9.0905e-07
1690.0 9.3207e-07
1710.0 9.5583e-07
1730.0 9.796e-07
1750.0 1.0019e-06
1770.0 1.0246e-06
1790.0 1.0475e-06
1810.0 1.0694e-06
1830.0 1.0906e-06
1850.0 1.1127e-06
1870.0 1.1339e-06
1890.0 1.1539e-06
1910.0 1.1739e-06
1930.0 1.194e-06
1950.0 1.2125e-06
1970.0 1.2303e-06
1990.0 1.2483e-06
2010.0 1.2655e-06
2030.0 1.2813e-06
2050.0 1.2973e-06
2070.0 1.3133e-06
2090.0 1.3276e-06
2110.0 1.3413e-06
2130.0 1.3553e-06
2150.0 1.3685e-06
2170.0 1.3805e-06
2190.0 1.3929e-06
2210.0 1.4053e-06
2230.0 1.4166e-06
2250.0 1.4278e-06
2270.0 1.4398e-06
2290.0 1.4512e-06
2310.0 1.4619e-06
2330.0 1.4734e-06
2350.0 1.4852e-06
2370.0 1.4965e-06
2390.0 1.5084e-06
2410.0 1.5215e-06
2430.0 1.5345e-06
2450.0 1.5477e-06
2470.0 1.5623e-06
2490.0 1.5789e-06
2510.0 1.5978e-06
2530.0 1.6245e-06
2550.0 1.6678e-06
2570.0 1.7375e-06
2590.0 1.8455e-06
2610.0 2.0215e-06
2630.0 2.2749e-06
2650.0 2.5949e-06
2670.0 2.9868e-06
2690.0 3.4391e-06
2710.0 3.8946e-06
2730.0 4.3246e-06
2750.0 4.7361e-06
2770.0 5.0953e-06
2790.0 5.3964e-06
2810.0 5.6655e-06
2830.0 5.923e-06
2850.0 6.1578e-06
2870.0 6.3916e-06
2890.0 6.6393e-06
2910.0 6.8962e-06
2930.0 7.1543e-06
2950.0 7.4309e-06
2970.0 7.7238e-06
2990.0 8.0193e-06
3010.0 2.8376e-05
3030.0 2.9459e-05
3050.0 3.0537e-05
3070.0 3.151e-05
3090.0 3.2334e-05
3110.0 3.2783e-05
3130.0 3.2588e-05
3150.0 3.1462e-05
3170.0 2.8823e-05
3190.0 2.4621e-05
3210.0 1.8934e-05
3230.0 1.2553e-05
3250.0 1.9244e-05
3270.0 1.2035e-05
3290.0 2.7703e-05
3310.0 1.0921e-05
3330.0 1.0811e-05
3350.0 1.2947e-05
3370.0 1.5503e-05
3390.0 1.8298e-05
3410.0 2.1098e-05
3430.0 2.4049e-05
3450.0 2.7028e-05
3470.0 2.9776e-05
3490.0 3.17e-05
3510.0 3.8065e-05
3530.0 4.9291e-05
3550.0 4.8016e-05
3570.0 3.9594e-05
3590.0 5.3596e-05
3610.0 3.4687e-05
3630.0 5.6485e-05
3650.0 6.5795e-05
3670.0 8.3661e-05
3690.0 7.7678e-05
3710.0 5.2014e-05
3730.0 6.7131e-05
3750.0 6.8738e-05
3770.0 7.3774e-05
3790.0 7.1588e-05
3810.0 7.3697e-05
3830.0 0.00011583
3850.0 0.00014218
3870.0 0.00017533
3890.0 0.00017039
3910.0 0.00015229
3930.0 0.00015425
3950.0 0.00016661
3970.0 0.00018371
3990.0 0.0001178
4010.0 6.3764e-05
4030.0 0.00011339
4050.0 0.00014998
4070.0 0.00016045
4090.0 0.00011223
4110.0 7.1038e-05
4130.0 0.00011683
4150.0 0.00011928
4170.0 0.00011103
4190.0 0.00010075
4210.0 0.0001426
4230.0 0.00010506
4250.0 0.00011382
4270.0 0.00011308
4290.0 0.00010713
4310.0 0.00013734
4330.0 0.0001484
4350.0 0.00012365
4370.0 0.00010438
4390.0 0.00012722
4410.0 0.00013029
4430.0 9.5798e-05
4450.0 8.6923e-05
4470.0 0.00010742
4490.0 8.2188e-05
4510.0 0.00011472
4530.0 0.00011923
4550.0 0.0001415
4570.0 0.00019948
4590.0 0.00019727
4610.0 0.00015641
4630.0 0.00024962
4650.0 0.00033266
4670.0 0.00031724
4690.0 0.00022433
4710.0 0.00023789
4730.0 0.00026946
4750.0 0.00022198
4770.0 0.0001697
4790.0 0.00011453
4810.0 0.00015633
4830.0 0.00018412
4850.0 0.00016184
4870.0 6.8034e-05
4890.0 0.00018365
4910.0 0.00024077
4930.0 0.00026168
4950.0 0.00026964
4970.0 0.00018941
4990.0 0.00022042
5010.0 0.00025602
5030.0 0.00027442
5050.0 0.00025618
5070.0 0.00018116
5090.0 0.00014698
5110.0 0.00014209
5130.0 0.000135
5150.0 0.00014062
5170.0 0.00012548
5190.0 0.0001496
5210.0 0.00015198
5230.0 0.00016851
5250.0 0.00020028
5270.0 0.00016621
5290.0 0.00017302
5310.0 0.00025456
5330.0 0.00029292
5350.0 0.00024608
5370.0 0.00022147
5390.0 0.00025722
5410.0 0.00030725
5430.0 0.00032764
5450.0 0.00034499
5470.0 0.00034766
5490.0 0.00035838
5510.0 0.00042941
5530.0 0.00044649
5550.0 0.00047192
5570.0 0.000496
5590.0 0.00048799
5610.0 0.00045735
5630.0 0.00044696
5650.0 0.00046273
5670.0 0.00045258
5690.0 0.00038788
5710.0 0.00038408
5730.0 0.00038507
5750.0 0.00040083
5770.0 0.0003456
5790.0 0.00033003
5810.0 0.00033848
5830.0 0.00036569
5850.0 0.00034084
5870.0 0.00034286
5890.0 0.00040027
5910.0 0.00037386
5930.0 0.00030908
5950.0 0.00027952
5970.0 0.00030497
5990.0 0.00027723
6010.0 0.00025357
6030.0 0.00024866
6050.0 0.00022774
6070.0 0.00017647
6090.0 0.00016782
6110.0 0.0002153
6130.0 0.00024161
6150.0 0.00024956
6170.0 0.0002427
6190.0 0.00023148
6210.0 0.00024136
6230.0 0.0002929
6250.0 0.00027064
6270.0 0.00024333
6290.0 0.00022119
6310.0 0.00020034
6330.0 0.00018585
6350.0 0.00016611
6370.0 0.00016836
6390.0 0.0001959
6410.0 0.00024324
6430.0 0.00028753
6450.0 0.00028863
6470.0 0.00029185
6490.0 0.00035644
6510.0 0.00040921
6530.0 0.00038886
6550.0 0.00036896
6570.0 0.00037429
6590.0 0.00036889
6610.0 0.00039045
6630.0 0.0003641
6650.0 0.00031635
6670.0 0.00029182
6690.0 0.0002893
6710.0 0.00034243
6730.0 0.0003049
6750.0 0.00025079
6770.0 0.00022639
6790.0 0.00024052
6810.0 0.00027621
6830.0 0.00027492
6850.0 0.00024657
6870.0 0.00025538
6890.0 0.00025381
6910.0 0.00023853
6930.0 0.00026482
6950.0 0.00024635
6970.0 0.00022949
6990.0 0.00022877
7010.0 0.00023044
7030.0 0.00022384
7050.0 0.00021433
7070.0 0.00022988
7090.0 0.00021411
7110.0 0.00018154
7130.0 0.00015593
7150.0 0.00015313
7170.0 0.00019334
7190.0 0.00020498
7210.0 0.00019435
7230.0 0.0002044
7250.0 0.00019853
7270.0 0.00019365
7290.0 0.00020979
7310.0 0.00022996
7330.0 0.00022406
7350.0 0.00020787
7370.0 0.0001923
7390.0 0.00019287
7410.0 0.00022161
7430.0 0.00024952
7450.0 0.00026566
7470.0 0.00026946
7490.0 0.00029975
7510.0 0.00029615
7530.0 0.00026806
7550.0 0.00025368
7570.0 0.00021916
7590.0 0.00020858
7610.0 0.0002014
7630.0 0.00018547
7650.0 0.00019918
7670.0 0.00022059
7690.0 0.00024008
7710.0 0.00027385
7730.0 0.00028714
7750.0 0.00029824
7770.0 0.00030991
7790.0 0.00033605
7810.0 0.00033842
7830.0 0.00030362
7850.0 0.00030475
7870.0 0.00029334
7890.0 0.00030025
7910.0 0.0002827
7930.0 0.00028055
7950.0 0.0002355
7970.0 0.00023619
7990.0 0.00022818
8010.0 0.00024782
8030.0 0.00024667
8050.0 0.0002619
8070.0 0.00025115
8090.0 0.00025205
8110.0 0.00024801
8130.0 0.00024504
8150.0 0.00022993
8170.0 0.00022542
8190.0 0.00022467
8210.0 0.00022668
8230.0 0.00019813
8250.0 0.00018101
8270.0 0.00015985
8290.0 0.0001358
8310.0 0.00011954
8330.0 9.4613e-05
8350.0 7.6541e-05
8370.0 7.3843e-05
8390.0 7.1534e-05
8410.0 7.4805e-05
8430.0 9.6144e-05
8450.0 0.00010462
8470.0 0.00011252
8490.0 0.00013157
8510.0 0.00014306
8530.0 0.00016255
8550.0 0.00019213
8570.0 0.00021088
8590.0 0.00022161
8610.0 0.00024594
8630.0 0.00027956
8650.0 0.00028656
8670.0 0.0002923
8690.0 0.00030307
8710.0 0.00029695
8730.0 0.00028734
8750.0 0.00026456
8770.0 0.00026442
8790.0 0.00026045
8810.0 0.00023932
8830.0 0.00023941
8850.0 0.00021908
8870.0 0.00020872
8890.0 0.00018684
8910.0 0.0002081
8930.0 0.00018808
8950.0 0.00018841
8970.0 0.00019223
8990.0 0.00018653
9010.0 0.00019149
9030.0 0.00018178
9050.0 0.0001809
9070.0 0.00018098
9090.0 0.00018102
9110.0 0.00018119
9130.0 0.00018118
9150.0 0.00018107
9170.0 0.00018048
9190.0 0.00017916
9210.0 0.00018199
9230.0 0.00018119
9250.0 0.00018073
9270.0 0.00018034
9290.0 0.00017999
9310.0 0.00017966
9330.0 0.00017935
9350.0 0.00017903
9370.0 0.00017871
9390.0 0.00017837
9410.0 0.00017801
9430.0 0.00017765
9450.0 0.00017727
9470.0 0.00017687
9490.0 0.00017647
9510.0 0.00017606
9530.0 0.00017563
9550.0 0.0001752
9570.0 0.00017477
9590.0 0.00017432
9610.0 0.00017387
9630.0 0.00017342
9650.0 0.00017297
9670.0 0.00017251
9690.0 0.00017206
9710.0 0.0001716
9730.0 0.00017114
9750.0 0.00017069
9770.0 0.00017025
9790.0 0.0001698
9810.0 0.00016935
9830.0 0.00016892
9850.0 0.00016849
9870.0 0.00016806
9890.0 0.00016764
9910.0 0.00016723
9930.0 0.00016683
9950.0 0.00016616
9970.0 0.00016586
9990.0 0.00016556
10010.0 0.00016523
10030.0 0.00016491
10050.0 0.00016452
10070.0 0.00016382
10090.0 0.00016362
10110.0 0.00016342
10130.0 0.0001632
10150.0 0.00016296
10170.0 0.00016271
10190.0 0.00016245
10210.0 0.00016221
10230.0 0.00016197
10250.0 0.00016173
10270.0 0.00016151
10290.0 0.00016131
10310.0 0.00016111
10330.0 0.00016091
10350.0 0.00016074
10370.0 0.00016058
10390.0 0.00016043
10410.0 0.00016028
10430.0 0.00016016
10450.0 0.00016005
10470.0 0.00015994
10490.0 0.00015984
10510.0 0.00015976
10530.0 0.00015968
10550.0 0.00015962
10570.0 0.00015957
10590.0 0.00015953
10610.0 0.00015949
10630.0 0.00015948
10650.0 0.00015947
10670.0 0.00015946
10690.0 0.00015947
10710.0 0.00015949
10730.0 0.00015951
10750.0 0.00015954
10770.0 0.00015958
10790.0 0.00015964
10810.0 0.00015969
10830.0 0.00015975
10850.0 0.00015981
10870.0 0.00015983
10890.0 0.0001598
10910.0 0.00015966
10930.0 0.00015934
10950.0 0.0001587
10970.0 0.00015768
10990.0 0.00015623
11010.0 0.00015894
11030.0 0.00015617
11050.0 0.00015291
11070.0 0.00014914
11090.0 0.00014476
11110.0 0.0001404
11130.0 0.00013604
11150.0 0.00013157
11170.0 0.00012722
11190.0 0.00012327
11210.0 0.00011946
11230.0 0.00011583
11250.0 0.00011262
11270.0 0.00010975
11290.0 0.00010707
11310.0 0.00010468
11330.0 0.00010267
11350.0 0.00010081
11370.0 9.908e-05
11390.0 9.7525e-05
11410.0 9.6062e-05
11430.0 9.454e-05
11450.0 9.3034e-05
11470.0 9.1531e-05
11490.0 8.9927e-05
11510.0 8.8183e-05
11530.0 8.6428e-05
11550.0 8.4607e-05
11570.0 8.2633e-05
11590.0 8.0613e-05
11610.0 7.8615e-05
11630.0 7.6511e-05
11650.0 7.4339e-05
11670.0 7.2275e-05
11690.0 7.0236e-05
11710.0 6.8163e-05
11730.0 6.6168e-05
11750.0 6.4313e-05
11770.0 6.2452e-05
11790.0 6.0643e-05
11810.0 5.8971e-05
11830.0 5.7375e-05
11850.0 5.5768e-05
11870.0 5.4283e-05
11890.0 5.2909e-05
11910.0 5.1545e-05
11930.0 5.0215e-05
11950.0 4.8981e-05
11970.0 4.7771e-05
11990.0 4.654e-05
12010.0 4.5374e-05
12030.0 4.4264e-05
12050.0 4.315e-05
12070.0 4.2049e-05
12090.0 4.1064e-05
12110.0 4.0117e-05
12130.0 3.9208e-05
12150.0 3.8404e-05
12170.0 3.7716e-05
12190.0 3.7097e-05
12210.0 3.6619e-05
12230.0 3.6304e-05
12250.0 3.6137e-05
12270.0 3.6138e-05
12290.0 3.6319e-05
12310.0 3.6664e-05
12330.0 3.7193e-05
12350.0 3.789e-05
12370.0 3.8708e-05
12390.0 3.9656e-05
12410.0 4.0757e-05
12430.0 4.1873e-05
12450.0 4.3012e-05
12470.0 4.4192e-05
12490.0 4.5347e-05
12510.0 4.6408e-05
12530.0 4.7431e-05
12550.0 4.8386e-05
12570.0 4.9214e-05
12590.0 4.9932e-05
12610.0 5.0562e-05
12630.0 5.1075e-05
12650.0 5.1464e-05
12670.0 5.1763e-05
12690.0 5.197e-05
12710.0 5.2087e-05
12730.0 5.213e-05
12750.0 5.2094e-05
12770.0 5.1994e-05
12790.0 5.1841e-05
12810.0 5.1627e-05
12830.0 5.1346e-05
12850.0 5.1029e-05
12870.0 5.0662e-05
12890.0 5.022e-05
12910.0 4.9724e-05
12930.0 4.919e-05
12950.0 4.8567e-05
12970.0 4.7859e-05
12990.0 4.7129e-05
13010.0 4.6339e-05
13030.0 4.5464e-05
13050.0 4.4559e-05
13070.0 4.3659e-05
13090.0 4.2697e-05
13110.0 4.172e-05
13130.0 4.0791e-05
13150.0 3.9889e-05
13170.0 3.8986e-05
13190.0 3.8183e-05
13210.0 3.7485e-05
13230.0 3.6852e-05
13250.0 3.6318e-05
13270.0 3.5912e-05
13290.0 3.5604e-05
13310.0 3.5387e-05
13330.0 3.5276e-05
13350.0 3.5246e-05
13370.0 3.5277e-05
13390.0 3.5355e-05
13410.0 3.5453e-05
13430.0 3.5552e-05
13450.0 3.5633e-05
13470.0 3.5678e-05
13490.0 3.5677e-05
13510.0 3.5612e-05
13530.0 3.5483e-05
13550.0 3.53e-05
13570.0 3.506e-05
13590.0 3.4761e-05
13610.0 3.4437e-05
13630.0 3.4099e-05
13650.0 3.3735e-05
13670.0 3.3373e-05
13690.0 3.3034e-05
13710.0 3.2707e-05
13730.0 3.2387e-05
13750.0 3.211e-05
13770.0 3.1858e-05
13790.0 3.1618e-05
13810.0 3.1394e-05
13830.0 3.1188e-05
13850.0 3.0978e-05
13870.0 3.076e-05
13890.0 3.0541e-05
13910.0 3.0312e-05
13930.0 3.006e-05
13950.0 2.9795e-05
13970.0 2.9531e-05
13990.0 2.9251e-05
14010.0 2.8965e-05
14030.0 2.8691e-05
14050.0 2.8429e-05
14070.0 2.8169e-05
14090.0 2.7937e-05
14110.0 2.7735e-05
14130.0 2.7557e-05
14150.0 2.7406e-05
14170.0 2.729e-05
14190.0 2.7202e-05
14210.0 2.7143e-05
14230.0 2.7113e-05
14250.0 2.711e-05
14270.0 2.7136e-05
14290.0 2.7194e-05
14310.0 2.7274e-05
14330.0 2.738e-05
14350.0 2.7517e-05
14370.0 2.7673e-05
14390.0 2.7839e-05
14410.0 2.803e-05
14430.0 2.8235e-05
14450.0 2.8435e-05
14470.0 2.8639e-05
14490.0 2.8856e-05
14510.0 2.906e-05
14530.0 2.9253e-05
14550.0 2.9455e-05
14570.0 2.9662e-05
14590.0 2.9864e-05
14610.0 3.0086e-05
14630.0 3.0341e-05
14650.0 3.0616e-05
14670.0 3.0919e-05
14690.0 3.1278e-05
14710.0 3.1693e-05
14730.0 3.2127e-05
14750.0 3.2621e-05
14770.0 3.3181e-05
14790.0 3.3768e-05
14810.0 3.4375e-05
14830.0 3.5057e-05
14850.0 3.5745e-05
14870.0 3.6407e-05
14890.0 3.7068e-05
14910.0 3.7717e-05
14930.0 3.8285e-05
14950.0 3.8768e-05
14970.0 3.9182e-05
14990.0 3.9482e-05
15010.0 3.966e-05
15030.0 3.9742e-05
15050.0 3.9734e-05
15070.0 3.9647e-05
15090.0 3.9511e-05
15110.0 3.9341e-05
15130.0 3.915e-05
15150.0 3.8951e-05
15170.0 3.8745e-05
15190.0 3.8534e-05
15210.0 3.8326e-05
15230.0 3.8118e-05
15250.0 3.7907e-05
15270.0 3.7697e-05
15290.0 3.7491e-05
15310.0 3.7284e-05
15330.0 3.7075e-05
15350.0 3.687e-05
15370.0 3.6666e-05
15390.0 3.6458e-05
15410.0 3.6253e-05
15430.0 3.6051e-05
15450.0 3.5848e-05
15470.0 3.5643e-05
15490.0 3.5444e-05
15510.0 3.5244e-05
15530.0 3.5043e-05
15550.0 3.4844e-05
15570.0 3.4648e-05
15590.0 3.445e-05
15610.0 3.4251e-05
15630.0 3.4057e-05
15650.0 3.3863e-05
15670.0 3.3668e-05
15690.0 3.3476e-05
15710.0 3.3287e-05
15730.0 3.3095e-05
15750.0 3.2905e-05
15770.0 3.2718e-05
15790.0 3.2531e-05
15810.0 3.2342e-05
15830.0 3.2157e-05
15850.0 3.1975e-05
15870.0 3.1791e-05
15890.0 3.1608e-05
15910.0 3.1429e-05
15930.0 3.125e-05
15950.0 3.1068e-05
15970.0 3.0891e-05
15990.0 3.0716e-05
16010.0 3.054e-05
16030.0 3.0363e-05
16050.0 3.0193e-05
16070.0 3.0021e-05
16090.0 2.9849e-05
16110.0 2.968e-05
16130.0 2.9514e-05
16150.0 2.9343e-05
16170.0 2.9176e-05
16190.0 2.9012e-05
16210.0 2.8848e-05
16230.0 2.8683e-05
16250.0 2.8522e-05
16270.0 2.8363e-05
16290.0 2.8202e-05
16310.0 2.8043e-05
16330.0 2.7887e-05
16350.0 2.7731e-05
16370.0 2.7572e-05
16390.0 2.7419e-05
16410.0 2.7267e-05
16430.0 2.7114e-05
16450.0 2.6962e-05
16470.0 2.6814e-05
16490.0 2.6665e-05
16510.0 2.6515e-05
16530.0 2.6369e-05
16550.0 2.6224e-05
16570.0 2.6077e-05
16590.0 2.5932e-05
16610.0 2.5791e-05
16630.0 2.5649e-05
16650.0 2.5506e-05
16670.0 2.5368e-05
16690.0 2.523e-05
16710.0 2.5089e-05
16730.0 2.4952e-05
16750.0 2.4817e-05
16770.0 2.4681e-05
16790.0 2.4544e-05
16810.0 2.4412e-05
16830.0 2.4281e-05
16850.0 2.4147e-05
16870.0 2.4017e-05
16890.0 2.3888e-05
16910.0 2.3758e-05
16930.0 2.3627e-05
16950.0 2.3501e-05
16970.0 2.3375e-05
16990.0 2.3247e-05
17010.0 2.3123e-05
17030.0 2.3001e-05
17050.0 2.2876e-05
17070.0 2.2752e-05
17090.0 2.2631e-05
17110.0 2.251e-05
17130.0 2.2387e-05
17150.0 2.2267e-05
17170.0 2.215e-05
17190.0 2.2031e-05
17210.0 2.1913e-05
17230.0 2.1798e-05
17250.0 2.1682e-05
17270.0 2.1564e-05
17290.0 2.1449e-05
17310.0 2.1337e-05
17330.0 2.1222e-05
17350.0 2.1107e-05
17370.0 2.0997e-05
17390.0 2.0886e-05
17410.0 2.0774e-05
17430.0 2.0664e-05
17450.0 2.0557e-05
17470.0 2.0445e-05
17490.0 2.0335e-05
17510.0 2.0229e-05
17530.0 2.0122e-05
17550.0 2.0013e-05
17570.0 1.9908e-05
17590.0 1.9804e-05
17610.0 1.9698e-05
17630.0 1.9593e-05
17650.0 1.9491e-05
17670.0 1.9387e-05
17690.0 1.9281e-05
17710.0 1.918e-05
17730.0 1.908e-05
17750.0 1.8977e-05
17770.0 1.8876e-05
17790.0 1.8779e-05
17810.0 1.8678e-05
17830.0 1.8577e-05
17850.0 1.8479e-05
17870.0 1.8382e-05
17890.0 1.8282e-05
17910.0 1.8184e-05
17930.0 1.809e-05
17950.0 1.7993e-05
17970.0 1.7896e-05
17990.0 1.7803e-05
18010.0 1.7709e-05
18030.0 1.7612e-05
18050.0 1.7518e-05
18070.0 1.7426e-05
18090.0 1.7332e-05
18110.0 1.7237e-05
18130.0 1.7147e-05
18150.0 1.7056e-05
18170.0 1.6963e-05
18190.0 1.6873e-05
18210.0 1.6784e-05
18230.0 1.6692e-05
18250.0 1.6601e-05
18270.0 1.6513e-05
18290.0 1.6425e-05
18310.0 1.6335e-05
18330.0 1.6247e-05
18350.0 1.6162e-05
18370.0 1.6073e-05
18390.0 1.5985e-05
18410.0 1.59e-05
18430.0 1.5814e-05
18450.0 1.5726e-05
18470.0 1.5641e-05
18490.0 1.5558e-05
18510.0 1.5473e-05
18530.0 1.5388e-05
18550.0 1.5306e-05
18570.0 1.5222e-05
18590.0 1.5137e-05
18610.0 1.5055e-05
18630.0 1.4974e-05
18650.0 1.4891e-05
18670.0 1.4808e-05
18690.0 1.4729e-05
18710.0 1.4648e-05
18730.0 1.4566e-05
18750.0 1.4486e-05
18770.0 1.4408e-05
18790.0 1.4326e-05
18810.0 1.4246e-05
18830.0 1.4169e-05
18850.0 1.409e-05
18870.0 1.4011e-05
18890.0 1.3934e-05
18910.0 1.3858e-05
18930.0 1.3779e-05
18950.0 1.3702e-05
18970.0 1.3627e-05
18990.0 1.3551e-05
19010.0 1.3472e-05
19030.0 1.3398e-05
19050.0 1.3323e-05
19070.0 1.3247e-05
19090.0 1.3173e-05
19110.0 1.3101e-05
19130.0 1.3025e-05
19150.0 1.295e-05
19170.0 1.2878e-05
19190.0 1.2805e-05
19210.0 1.2731e-05
19230.0 1.2658e-05
19250.0 1.2588e-05
19270.0 1.2515e-05
19290.0 1.2443e-05
19310.0 1.2373e-05
19330.0 1.2302e-05
19350.0 1.2229e-05
19370.0 1.2159e-05
19390.0 1.209e-05
19410.0 1.2019e-05
19430.0 1.1948e-05
19450.0 1.188e-05
19470.0 1.1812e-05
19490.0 1.1742e-05
19510.0 1.1673e-05
19530.0 1.1607e-05
19550.0 1.1537e-05
19570.0 1.1467e-05
19590.0 1.1402e-05
19610.0 1.1335e-05
19630.0 1.1266e-05
19650.0 1.12e-05
19670.0 1.1135e-05
19690.0 1.1068e-05
19710.0 1.1001e-05
19730.0 1.0936e-05
19750.0 1.0871e-05
19770.0 1.0803e-05
19790.0 1.0739e-05
19810.0 1.0675e-05
19830.0 1.0609e-05
19850.0 1.0543e-05
19870.0 1.0479e-05
19890.0 1.041e-05
19910.0 1.0334e-05
19930.0 1.0254e-05
19950.0 1.0163e-05
19970.0 1.0053e-05
19990.0 9.9228e-06
20010.0 9.7782e-06
20030.0 9.6074e-06
20050.0 9.4138e-06
20070.0 9.212e-06
20090.0 9.0036e-06
20110.0 8.7783e-06
20130.0 8.562e-06
20150.0 8.3589e-06
20170.0 8.1589e-06
20190.0 7.9669e-06
20210.0 7.7954e-06
20230.0 7.6367e-06
20250.0 7.4858e-06
20270.0 7.3536e-06
20290.0 7.24e-06
20310.0 7.1387e-06
20330.0 7.0516e-06
20350.0 6.9871e-06
20370.0 6.9379e-06
20390.0 6.9045e-06
20410.0 6.8896e-06
20430.0 6.8917e-06
20450.0 6.9115e-06
20470.0 6.9499e-06
20490.0 7.004e-06
20510.0 7.0747e-06
20530.0 7.1646e-06
20550.0 7.2676e-06
20570.0 7.3798e-06
20590.0 7.508e-06
20610.0 7.6464e-06
20630.0 7.7868e-06
20650.0 7.9333e-06
20670.0 8.0889e-06
20690.0 8.237e-06
20710.0 8.3791e-06
20730.0 8.5199e-06
20750.0 8.6531e-06
20770.0 8.7712e-06
20790.0 8.8816e-06
20810.0 8.9841e-06
20830.0 9.0728e-06
20850.0 9.1504e-06
20870.0 9.222e-06
20890.0 9.285e-06
20910.0 9.3384e-06
20930.0 9.3876e-06
20950.0 9.4332e-06
20970.0 9.4735e-06
20990.0 9.5097e-06
21010.0 9.544e-06
21030.0 9.5735e-06
21050.0 9.5975e-06
21070.0 9.6166e-06
21090.0 9.6295e-06
21110.0 9.6349e-06
21130.0 9.6333e-06
21150.0 9.6238e-06
21170.0 9.6066e-06
21190.0 9.5833e-06
21210.0 9.5524e-06
21230.0 9.5145e-06
21250.0 9.4733e-06
21270.0 9.4286e-06
21290.0 9.3795e-06
21310.0 9.3292e-06
21330.0 9.2808e-06
21350.0 9.2311e-06
21370.0 9.1824e-06
21390.0 9.1377e-06
21410.0 9.0963e-06
21430.0 9.0564e-06
21450.0 9.0224e-06
21470.0 8.9941e-06
21490.0 8.9701e-06
21510.0 8.9512e-06
21530.0 8.9385e-06
21550.0 8.9312e-06
21570.0 8.9295e-06
21590.0 8.9338e-06
21610.0 8.9438e-06
21630.0 8.9601e-06
21650.0 8.9835e-06
21670.0 9.0118e-06
21690.0 9.0466e-06
21710.0 9.0892e-06
21730.0 9.1377e-06
21750.0 9.1911e-06
21770.0 9.2548e-06
21790.0 9.3253e-06
21810.0 9.4003e-06
21830.0 9.4826e-06
21850.0 9.5746e-06
21870.0 9.6706e-06
21890.0 9.7692e-06
21910.0 9.8771e-06
21930.0 9.9898e-06
21950.0 1.0102e-05
21970.0 1.0219e-05
21990.0 1.0344e-05
22010.0 1.0464e-05
22030.0 1.0582e-05
22050.0 1.0701e-05
22070.0 1.0818e-05
22090.0 1.0925e-05
22110.0 1.1028e-05
22130.0 1.1126e-05
22150.0 1.1212e-05
22170.0 1.1287e-05
22190.0 1.1353e-05
22210.0 1.1404e-05
22230.0 1.1438e-05
22250.0 1.1458e-05
22270.0 1.1461e-05
22290.0 1.1446e-05
22310.0 1.1416e-05
22330.0 1.1365e-05
22350.0 1.1297e-05
22370.0 1.1213e-05
22390.0 1.1111e-05
22410.0 1.0988e-05
22430.0 1.0856e-05
22450.0 1.0712e-05
22470.0 1.0549e-05
22490.0 1.0377e-05
22510.0 1.0202e-05
22530.0 1.0012e-05
22550.0 9.8123e-06
22570.0 9.6173e-06
22590.0 9.4201e-06
