#lamb flux
1010.0 4.7628e-06
1030.0 5.3355e-06
1050.0 5.9039e-06
1070.0 6.5461e-06
1090.0 7.3048e-06
1110.0 8.0823e-06
1130.0 8.8672e-06
1150.0 9.6937e-06
1170.0 1.0555e-05
1190.0 1.1388e-05
1210.0 1.225e-05
1230.0 1.3164e-05
1250.0 1.4083e-05
1270.0 1.5012e-05
1290.0 1.6022e-05
1310.0 1.7071e-05
1330.0 1.8122e-05
1350.0 1.9219e-05
1370.0 2.0379e-05
1390.0 2.1547e-05
1410.0 2.2712e-05
1430.0 2.3937e-05
1450.0 2.5175e-05
1470.0 2.6389e-05
1490.0 2.7613e-05
1510.0 2.8886e-05
1530.0 3.0094e-05
1550.0 3.1273e-05
1570.0 3.2462e-05
1590.0 3.3624e-05
1610.0 3.4706e-05
1630.0 3.577e-05
1650.0 3.6818e-05
1670.0 3.7785e-05
1690.0 3.8689e-05
1710.0 3.958e-05
1730.0 4.0421e-05
1750.0 4.1149e-05
1770.0 4.1852e-05
1790.0 4.2524e-05
1810.0 4.3117e-05
1830.0 4.365e-05
1850.0 4.4201e-05
1870.0 4.4694e-05
1890.0 4.5129e-05
1910.0 4.5564e-05
1930.0 4.6006e-05
1950.0 4.6398e-05
1970.0 4.6777e-05
1990.0 4.7189e-05
2010.0 4.7587e-05
2030.0 4.7955e-05
2050.0 4.835e-05
2070.0 4.8762e-05
2090.0 4.9116e-05
2110.0 4.9455e-05
2130.0 4.9796e-05
2150.0 5.0092e-05
2170.0 5.0318e-05
2190.0 5.0528e-05
2210.0 5.0691e-05
2230.0 5.0765e-05
2250.0 5.0772e-05
2270.0 5.0744e-05
2290.0 5.062e-05
2310.0 5.0394e-05
2330.0 5.0116e-05
2350.0 4.9767e-05
2370.0 4.9315e-05
2390.0 4.8795e-05
2410.0 4.8224e-05
2430.0 4.755e-05
2450.0 4.6774e-05
2470.0 4.5917e-05
2490.0 4.4973e-05
2510.0 4.3945e-05
2530.0 4.294e-05
2550.0 4.2112e-05
2570.0 4.1649e-05
2590.0 4.1757e-05
2610.0 4.2876e-05
2630.0 4.5136e-05
2650.0 4.8322e-05
2670.0 5.2442e-05
2690.0 5.7234e-05
2710.0 6.1739e-05
2730.0 6.5407e-05
2750.0 6.808e-05
2770.0 6.901e-05
2790.0 6.7995e-05
2810.0 6.5147e-05
2830.0 6.0391e-05
2850.0 5.4263e-05
2870.0 4.7092e-05
2890.0 3.8929e-05
2910.0 3.0187e-05
2930.0 2.1353e-05
2950.0 1.2033e-05
2970.0 3.2701e-06
2990.0 3.2701e-06
3010.0 6.6403e-06
3030.0 6.6403e-06
3050.0 6.6403e-06
3070.0 6.6403e-06
3090.0 6.6403e-06
3110.0 6.6403e-06
3130.0 6.6403e-06
3150.0 6.6403e-06
3170.0 6.6403e-06
3190.0 6.6403e-06
3210.0 6.6403e-06
3230.0 0.00026994
3250.0 0.00048086
3270.0 0.00045107
3290.0 0.00042106
3310.0 0.00032005
3330.0 0.00031063
3350.0 0.00034305
3370.0 0.00039141
3390.0 0.00044465
3410.0 0.00050174
3430.0 0.000577
3450.0 0.00065066
3470.0 0.00072696
3490.0 0.00075495
3510.0 0.0006857
3530.0 0.00065951
3550.0 0.00072973
3570.0 0.00078362
3590.0 0.00084928
3610.0 0.00082921
3630.0 0.0010046
3650.0 0.0010968
3670.0 0.0011583
3690.0 0.0011508
3710.0 0.0010419
3730.0 0.0010288
3750.0 0.0009773
3770.0 0.00094393
3790.0 0.00088897
3810.0 0.0008455
3830.0 0.00087251
3850.0 0.00046233
3870.0 0.00062023
3890.0 0.00071905
3910.0 0.00088395
3930.0 0.0011346
3950.0 0.0012299
3970.0 0.001374
3990.0 0.0016459
4010.0 0.0013956
4030.0 0.0012007
4050.0 0.00086708
4070.0 0.00081716
4090.0 0.0012044
4110.0 0.0012045
4130.0 0.001311
4150.0 0.0012565
4170.0 0.0011898
4190.0 0.0010798
4210.0 0.0014549
4230.0 0.0015364
4250.0 0.0016744
4270.0 0.0015941
4290.0 0.0015716
4310.0 0.0017071
4330.0 0.0020051
4350.0 0.0020928
4370.0 0.0020803
4390.0 0.0018981
4410.0 0.0017512
4430.0 0.0013651
4450.0 0.0011116
4470.0 0.0012002
4490.0 0.0014074
4510.0 0.0014651
4530.0 0.0014767
4550.0 0.0014938
4570.0 0.0021285
4590.0 0.0031859
4610.0 0.0037434
4630.0 0.0037919
4650.0 0.0040889
4670.0 0.0047674
4690.0 0.0051678
4710.0 0.004308
4730.0 0.003286
4750.0 0.0025741
4770.0 0.0022194
4790.0 0.0020301
4810.0 0.0019246
4830.0 0.0021332
4850.0 0.0025207
4870.0 0.002764
4890.0 0.0028868
4910.0 0.0027189
4930.0 0.0029396
4950.0 0.0035878
4970.0 0.0041798
4990.0 0.0043347
5010.0 0.0039916
5030.0 0.003315
5050.0 0.0025533
5070.0 0.0020364
5090.0 0.0018391
5110.0 0.0018103
5130.0 0.0018437
5150.0 0.0018307
5170.0 0.0017215
5190.0 0.001615
5210.0 0.0015875
5230.0 0.0018012
5250.0 0.0021498
5270.0 0.0025746
5290.0 0.00294
5310.0 0.0031504
5330.0 0.0034806
5350.0 0.0038705
5370.0 0.004019
5390.0 0.00365
5410.0 0.0032511
5430.0 0.0031909
5450.0 0.0037291
5470.0 0.0046124
5490.0 0.0053763
5510.0 0.005729
5530.0 0.0056655
5550.0 0.0054333
5570.0 0.0052743
5590.0 0.0051024
5610.0 0.0050322
5630.0 0.0050338
5650.0 0.0050719
5670.0 0.0050011
5690.0 0.004557
5710.0 0.0038682
5730.0 0.0034813
5750.0 0.0033584
5770.0 0.0034562
5790.0 0.0035863
5810.0 0.0037369
5830.0 0.0038146
5850.0 0.0036623
5870.0 0.0034791
5890.0 0.0034111
5910.0 0.0035525
5930.0 0.0037168
5950.0 0.0035195
5970.0 0.0031242
5990.0 0.0025982
6010.0 0.0021126
6030.0 0.0019506
6050.0 0.0021126
6070.0 0.0022457
6090.0 0.0021409
6110.0 0.0018896
6130.0 0.0019337
6150.0 0.0022497
6170.0 0.0025864
6190.0 0.0028391
6210.0 0.00288
6230.0 0.0028347
6250.0 0.0025886
6270.0 0.0021637
6290.0 0.0017864
6310.0 0.0015854
6330.0 0.001549
6350.0 0.0015768
6370.0 0.0015982
6390.0 0.0017974
6410.0 0.002242
6430.0 0.0027669
6450.0 0.0031043
6470.0 0.0032003
6490.0 0.0031784
6510.0 0.0032442
6530.0 0.0033435
6550.0 0.0033272
6570.0 0.0034526
6590.0 0.0035399
6610.0 0.0036002
6630.0 0.00354
6650.0 0.003306
6670.0 0.0030164
6690.0 0.0027429
6710.0 0.0025959
6730.0 0.002564
6750.0 0.0026105
6770.0 0.002682
6790.0 0.0027691
6810.0 0.0028279
6830.0 0.002774
6850.0 0.00264
6870.0 0.0024732
6890.0 0.0024176
6910.0 0.0023447
6930.0 0.0024267
6950.0 0.0025712
6970.0 0.0026393
6990.0 0.0026882
7010.0 0.0026113
7030.0 0.0024012
7050.0 0.0021246
7070.0 0.0018957
7090.0 0.001774
7110.0 0.0017586
7130.0 0.0017164
7150.0 0.0015341
7170.0 0.0014556
7190.0 0.0015925
7210.0 0.0018414
7230.0 0.0021234
7250.0 0.0022478
7270.0 0.0022218
7290.0 0.0020492
7310.0 0.0018916
7330.0 0.0018152
7350.0 0.0018203
7370.0 0.0018546
7390.0 0.0019428
7410.0 0.0021526
7430.0 0.0024878
7450.0 0.0028087
7470.0 0.0029626
7490.0 0.0028936
7510.0 0.0026932
7530.0 0.0023385
7550.0 0.002122
7570.0 0.0018918
7590.0 0.0017779
7610.0 0.0018213
7630.0 0.0019653
7650.0 0.0021694
7670.0 0.0023752
7690.0 0.0025183
7710.0 0.0026675
7730.0 0.0028206
7750.0 0.0029484
7770.0 0.0029165
7790.0 0.0029281
7810.0 0.0029723
7830.0 0.0029533
7850.0 0.0028507
7870.0 0.0027544
7890.0 0.0027644
7910.0 0.0026834
7930.0 0.0026378
7950.0 0.0024954
7970.0 0.0024205
7990.0 0.0023286
8010.0 0.0023578
8030.0 0.002372
8050.0 0.0023839
8070.0 0.0023526
8090.0 0.0023333
8110.0 0.0022465
8130.0 0.0022394
8150.0 0.0022071
8170.0 0.0021474
8190.0 0.0020986
8210.0 0.0020869
8230.0 0.0020325
8250.0 0.001988
8270.0 0.0017992
8290.0 0.0014685
8310.0 0.0011033
8330.0 0.00085221
8350.0 0.00079655
8370.0 0.00094931
8390.0 0.0011503
8410.0 0.0012421
8430.0 0.0012736
8450.0 0.0013383
8470.0 0.0014328
8490.0 0.001604
8510.0 0.0018293
8530.0 0.0020992
8550.0 0.0023514
8570.0 0.0025588
8590.0 0.0027172
8610.0 0.0028065
8630.0 0.0028095
8650.0 0.0027801
8670.0 0.0027783
8690.0 0.0029156
8710.0 0.0030995
8730.0 0.0032218
8750.0 0.0032074
8770.0 0.0032494
8790.0 0.0032346
8810.0 0.003036
8830.0 0.0028585
8850.0 0.0026234
8870.0 0.0024334
8890.0 0.0023702
8910.0 0.0023725
8930.0 0.0022404
8950.0 0.0020902
8970.0 0.0020274
8990.0 0.0020092
9010.0 0.001932
9030.0 0.0018887
9050.0 0.0018727
9070.0 0.0018653
9090.0 0.001859
9110.0 0.0018529
9130.0 0.0018467
9150.0 0.0018407
9170.0 0.0018339
9190.0 0.0018289
9210.0 0.0018312
9230.0 0.0018219
9250.0 0.0018142
9270.0 0.0018074
9290.0 0.0018012
9310.0 0.0017952
9330.0 0.0017894
9350.0 0.0017841
9370.0 0.0017788
9390.0 0.0017734
9410.0 0.0017682
9430.0 0.0017628
9450.0 0.0017552
9470.0 0.0017484
9490.0 0.0017456
9510.0 0.0017416
9530.0 0.0017374
9550.0 0.0017329
9570.0 0.0017283
9590.0 0.0017236
9610.0 0.0017189
9630.0 0.0017143
9650.0 0.0017096
9670.0 0.0017049
9690.0 0.0017003
9710.0 0.0016957
9730.0 0.0016911
9750.0 0.0016865
9770.0 0.0016819
9790.0 0.0016773
9810.0 0.0016727
9830.0 0.0016681
9850.0 0.0016636
9870.0 0.001659
9890.0 0.0016543
9910.0 0.0016497
9930.0 0.0016448
9950.0 0.0016274
9970.0 0.0016265
9990.0 0.0016247
10010.0 0.0016226
10030.0 0.0016194
10050.0 0.0016152
10070.0 0.0016109
10090.0 0.0016065
10110.0 0.0016013
10130.0 0.0015962
10150.0 0.0015913
10170.0 0.001586
10190.0 0.0015801
10210.0 0.0015748
10230.0 0.0015695
10250.0 0.0015637
10270.0 0.0015578
10290.0 0.0015523
10310.0 0.0015463
10330.0 0.0015398
10350.0 0.0015337
10370.0 0.0015276
10390.0 0.0015209
10410.0 0.0015141
10430.0 0.0015079
10450.0 0.001501
10470.0 0.0014937
10490.0 0.0014867
10510.0 0.0014797
10530.0 0.0014717
10550.0 0.0014639
10570.0 0.0014565
10590.0 0.0014484
10610.0 0.00144
10630.0 0.001432
10650.0 0.0014238
10670.0 0.0014147
10690.0 0.0014058
10710.0 0.001397
10730.0 0.0013877
10750.0 0.0013777
10770.0 0.0013684
10790.0 0.0013588
10810.0 0.0013485
10830.0 0.0013383
10850.0 0.0013284
10870.0 0.0013174
10890.0 0.0013061
10910.0 0.0012951
10930.0 0.0012836
10950.0 0.0012711
10970.0 0.0012585
10990.0 0.0012459
11010.0 0.0013147
11030.0 0.0012995
11050.0 0.0012848
11070.0 0.0012698
11090.0 0.0012537
11110.0 0.001239
11130.0 0.0012248
11150.0 0.0012103
11170.0 0.0011961
11190.0 0.001183
11210.0 0.0011696
11230.0 0.001156
11250.0 0.001143
11270.0 0.0011303
11290.0 0.0011171
11310.0 0.0011039
11330.0 0.0010916
11350.0 0.0010788
11370.0 0.0010657
11390.0 0.0010528
11410.0 0.0010398
11430.0 0.0010255
11450.0 0.001011
11470.0 0.00099639
11490.0 0.00098068
11510.0 0.00096361
11530.0 0.00094652
11550.0 0.00092882
11570.0 0.00090966
11590.0 0.00089004
11610.0 0.00087058
11630.0 0.00084999
11650.0 0.00082865
11670.0 0.00080823
11690.0 0.0007879
11710.0 0.00076712
11730.0 0.00074694
11750.0 0.000728
11770.0 0.00070889
11790.0 0.00069015
11810.0 0.00067265
11830.0 0.00065581
11850.0 0.00063879
11870.0 0.0006229
11890.0 0.0006081
11910.0 0.00059342
11930.0 0.00057913
11950.0 0.00056589
11970.0 0.00055301
11990.0 0.00054015
12010.0 0.00052812
12030.0 0.00051684
12050.0 0.00050579
12070.0 0.00049515
12090.0 0.00048573
12110.0 0.00047685
12130.0 0.00046852
12150.0 0.00046117
12170.0 0.00045483
12190.0 0.00044911
12210.0 0.00044445
12230.0 0.00044089
12250.0 0.00043828
12270.0 0.00043667
12290.0 0.0004361
12310.0 0.00043641
12330.0 0.00043774
12350.0 0.00043999
12370.0 0.00044293
12390.0 0.00044669
12410.0 0.0004515
12430.0 0.00045662
12450.0 0.00046219
12470.0 0.00046845
12490.0 0.00047507
12510.0 0.00048152
12530.0 0.00048829
12550.0 0.00049521
12570.0 0.0005016
12590.0 0.0005075
12610.0 0.00051313
12630.0 0.00051796
12650.0 0.00052153
12670.0 0.00052425
12690.0 0.00052588
12710.0 0.00052618
12730.0 0.00052528
12750.0 0.00052315
12770.0 0.00051976
12790.0 0.00051534
12810.0 0.00050988
12830.0 0.00050342
12850.0 0.00049648
12870.0 0.00048907
12890.0 0.0004811
12910.0 0.00047301
12930.0 0.00046508
12950.0 0.00045697
12970.0 0.00044891
12990.0 0.00044138
13010.0 0.0004341
13030.0 0.00042692
13050.0 0.00042011
13070.0 0.00041374
13090.0 0.0004074
13110.0 0.00040121
13130.0 0.00039534
13150.0 0.00038957
13170.0 0.00038368
13190.0 0.00037803
13210.0 0.0003726
13230.0 0.00036713
13250.0 0.00036177
13270.0 0.00035674
13290.0 0.00035189
13310.0 0.0003472
13330.0 0.00034298
13350.0 0.00033923
13370.0 0.00033587
13390.0 0.000333
13410.0 0.00033072
13430.0 0.00032887
13450.0 0.00032742
13470.0 0.00032631
13490.0 0.00032542
13510.0 0.00032464
13530.0 0.00032383
13550.0 0.00032286
13570.0 0.00032164
13590.0 0.00032003
13610.0 0.00031802
13630.0 0.00031561
13650.0 0.00031269
13670.0 0.00030935
13690.0 0.00030576
13710.0 0.00030184
13730.0 0.00029757
13750.0 0.00029342
13770.0 0.00028932
13790.0 0.00028521
13810.0 0.00028132
13830.0 0.0002778
13850.0 0.00027448
13870.0 0.00027143
13890.0 0.0002688
13910.0 0.00026648
13930.0 0.00026438
13950.0 0.00026255
13970.0 0.000261
13990.0 0.00025956
14010.0 0.00025821
14030.0 0.00025695
14050.0 0.00025571
14070.0 0.00025439
14090.0 0.000253
14110.0 0.00025155
14130.0 0.00024993
14150.0 0.00024811
14170.0 0.00024622
14190.0 0.0002442
14210.0 0.00024197
14230.0 0.00023967
14250.0 0.00023738
14270.0 0.00023499
14290.0 0.00023259
14310.0 0.00023039
14330.0 0.0002283
14350.0 0.00022634
14370.0 0.00022463
14390.0 0.00022321
14410.0 0.00022198
14430.0 0.00022101
14450.0 0.00022032
14470.0 0.00021984
14490.0 0.00021956
14510.0 0.00021948
14530.0 0.00021955
14550.0 0.00021976
14570.0 0.00022011
14590.0 0.00022058
14610.0 0.00022119
14630.0 0.000222
14650.0 0.00022298
14670.0 0.00022414
14690.0 0.00022558
14710.0 0.0002273
14730.0 0.0002292
14750.0 0.00023141
14770.0 0.00023399
14790.0 0.0002368
14810.0 0.00023986
14830.0 0.00024345
14850.0 0.00024737
14870.0 0.00025149
14890.0 0.000256
14910.0 0.00026089
14930.0 0.00026574
14950.0 0.00027044
14970.0 0.00027506
14990.0 0.00027916
15010.0 0.00028254
15030.0 0.0002853
15050.0 0.00028745
15070.0 0.00028892
15090.0 0.00028998
15110.0 0.00029075
15130.0 0.00029134
15150.0 0.00029183
15170.0 0.00029227
15190.0 0.0002927
15210.0 0.00029313
15230.0 0.00029356
15250.0 0.000294
15270.0 0.00029445
15290.0 0.00029491
15310.0 0.00029538
15330.0 0.00029586
15350.0 0.00029635
15370.0 0.00029685
15390.0 0.00029735
15410.0 0.00029786
15430.0 0.00029838
15450.0 0.00029891
15470.0 0.00029945
15490.0 0.00029999
15510.0 0.00030055
15530.0 0.0003011
15550.0 0.00030167
15570.0 0.00030224
15590.0 0.00030282
15610.0 0.0003034
15630.0 0.00030399
15650.0 0.00030459
15670.0 0.00030519
15690.0 0.00030579
15710.0 0.00030641
15730.0 0.00030702
15750.0 0.00030764
15770.0 0.00030826
15790.0 0.00030889
15810.0 0.00030952
15830.0 0.00031015
15850.0 0.00031079
15870.0 0.00031143
15890.0 0.00031207
15910.0 0.00031272
15930.0 0.00031337
15950.0 0.00031401
15970.0 0.00031466
15990.0 0.00031531
16010.0 0.00031596
16030.0 0.00031661
16050.0 0.00031727
16070.0 0.00031792
16090.0 0.00031857
16110.0 0.00031922
16130.0 0.00031987
16150.0 0.00032052
16170.0 0.00032116
16190.0 0.00032181
16210.0 0.00032245
16230.0 0.00032309
16250.0 0.00032373
16270.0 0.00032436
16290.0 0.00032499
16310.0 0.00032561
16330.0 0.00032624
16350.0 0.00032686
16370.0 0.00032747
16390.0 0.00032807
16410.0 0.00032868
16430.0 0.00032927
16450.0 0.00032986
16470.0 0.00033045
16490.0 0.00033103
16510.0 0.00033159
16530.0 0.00033216
16550.0 0.00033271
16570.0 0.00033326
16590.0 0.00033379
16610.0 0.00033433
16630.0 0.00033485
16650.0 0.00033536
16670.0 0.00033586
16690.0 0.00033635
16710.0 0.00033683
16730.0 0.0003373
16750.0 0.00033776
16770.0 0.00033821
16790.0 0.00033864
16810.0 0.00033907
16830.0 0.00033948
16850.0 0.00033988
16870.0 0.00034027
16890.0 0.00034065
16910.0 0.00034101
16930.0 0.00034135
16950.0 0.00034168
16970.0 0.000342
16990.0 0.00034231
17010.0 0.0003426
17030.0 0.00034288
17050.0 0.00034313
17070.0 0.00034338
17090.0 0.00034361
17110.0 0.00034382
17130.0 0.00034401
17150.0 0.00034419
17170.0 0.00034436
17190.0 0.0003445
17210.0 0.00034463
17230.0 0.00034475
17250.0 0.00034484
17270.0 0.00034492
17290.0 0.00034498
17310.0 0.00034502
17330.0 0.00034504
17350.0 0.00034504
17370.0 0.00034503
17390.0 0.000345
17410.0 0.00034495
17430.0 0.00034488
17450.0 0.0003448
17470.0 0.00034468
17490.0 0.00034456
17510.0 0.00034441
17530.0 0.00034425
17550.0 0.00034406
17570.0 0.00034386
17590.0 0.00034364
17610.0 0.0003434
17630.0 0.00034313
17650.0 0.00034286
17670.0 0.00034255
17690.0 0.00034223
17710.0 0.00034189
17730.0 0.00034154
17750.0 0.00034115
17770.0 0.00034076
17790.0 0.00034034
17810.0 0.00033991
17830.0 0.00033945
17850.0 0.00033897
17870.0 0.00033848
17890.0 0.00033796
17910.0 0.00033743
17930.0 0.00033688
17950.0 0.00033631
17970.0 0.00033572
17990.0 0.00033512
18010.0 0.0003345
18030.0 0.00033385
18050.0 0.00033319
18070.0 0.00033251
18090.0 0.00033181
18110.0 0.0003311
18130.0 0.00033037
18150.0 0.00032962
18170.0 0.00032885
18190.0 0.00032807
18210.0 0.00032727
18230.0 0.00032646
18250.0 0.00032562
18270.0 0.00032478
18290.0 0.00032391
18310.0 0.00032303
18330.0 0.00032214
18350.0 0.00032123
18370.0 0.00032031
18390.0 0.00031937
18410.0 0.00031842
18430.0 0.00031745
18450.0 0.00031647
18470.0 0.00031548
18490.0 0.00031447
18510.0 0.00031345
18530.0 0.00031242
18550.0 0.00031138
18570.0 0.00031032
18590.0 0.00030925
18610.0 0.00030817
18630.0 0.00030708
18650.0 0.00030598
18670.0 0.00030487
18690.0 0.00030375
18710.0 0.00030262
18730.0 0.00030148
18750.0 0.00030033
18770.0 0.00029917
18790.0 0.000298
18810.0 0.00029682
18830.0 0.00029564
18850.0 0.00029445
18870.0 0.00029324
18890.0 0.00029204
18910.0 0.00029083
18930.0 0.0002896
18950.0 0.00028838
18970.0 0.00028715
18990.0 0.00028591
19010.0 0.00028466
19030.0 0.00028341
19050.0 0.00028216
19070.0 0.0002809
19090.0 0.00027964
19110.0 0.00027838
19130.0 0.00027711
19150.0 0.00027583
19170.0 0.00027456
19190.0 0.00027328
19210.0 0.000272
19230.0 0.00027071
19250.0 0.00026943
19270.0 0.00026814
19290.0 0.00026685
19310.0 0.00026557
19330.0 0.00026428
19350.0 0.00026298
19370.0 0.00026169
19390.0 0.0002604
19410.0 0.00025911
19430.0 0.00025782
19450.0 0.00025653
19470.0 0.00025524
19490.0 0.00025395
19510.0 0.00025266
19530.0 0.00025138
19550.0 0.00025009
19570.0 0.00024881
19590.0 0.00024753
19610.0 0.00024625
19630.0 0.00024498
19650.0 0.0002437
19670.0 0.00024244
19690.0 0.00024117
19710.0 0.0002399
19730.0 0.00023864
19750.0 0.00023739
19770.0 0.00023613
19790.0 0.00023488
19810.0 0.00023364
19830.0 0.00023239
19850.0 0.00023114
19870.0 0.00022987
19890.0 0.00022856
19910.0 0.00022716
19930.0 0.00022563
19950.0 0.00022391
19970.0 0.00022187
19990.0 0.00021947
20010.0 0.00021675
20030.0 0.00021358
20050.0 0.00020997
20070.0 0.00020615
20090.0 0.00020213
20110.0 0.00019779
20130.0 0.0001935
20150.0 0.00018933
20170.0 0.00018514
20190.0 0.000181
20210.0 0.00017711
20230.0 0.00017335
20250.0 0.00016962
20270.0 0.0001661
20290.0 0.00016281
20310.0 0.0001596
20330.0 0.00015647
20350.0 0.00015365
20370.0 0.00015094
20390.0 0.00014831
20410.0 0.00014586
20430.0 0.00014359
20450.0 0.00014136
20470.0 0.00013928
20490.0 0.00013737
20510.0 0.00013557
20530.0 0.00013387
20550.0 0.00013231
20570.0 0.0001309
20590.0 0.00012958
20610.0 0.00012837
20630.0 0.00012729
20650.0 0.00012631
20670.0 0.00012541
20690.0 0.00012462
20710.0 0.00012391
20730.0 0.00012328
20750.0 0.00012271
20770.0 0.0001222
20790.0 0.00012173
20810.0 0.00012129
20830.0 0.00012088
20850.0 0.00012048
20870.0 0.00012009
20890.0 0.0001197
20910.0 0.00011927
20930.0 0.00011883
20950.0 0.00011836
20970.0 0.00011784
20990.0 0.00011729
21010.0 0.00011668
21030.0 0.00011601
21050.0 0.0001153
21070.0 0.00011452
21090.0 0.00011368
21110.0 0.0001128
21130.0 0.00011187
21150.0 0.00011088
21170.0 0.00010985
21190.0 0.00010881
21210.0 0.0001077
21230.0 0.00010655
21250.0 0.0001054
21270.0 0.00010424
21290.0 0.00010304
21310.0 0.00010183
21330.0 0.00010066
21350.0 9.947e-05
21370.0 9.8279e-05
21390.0 9.713e-05
21410.0 9.601e-05
21430.0 9.4882e-05
21450.0 9.3818e-05
21470.0 9.2819e-05
21490.0 9.1856e-05
21510.0 9.0945e-05
21530.0 9.0119e-05
21550.0 8.9356e-05
21570.0 8.8652e-05
21590.0 8.8034e-05
21610.0 8.7495e-05
21630.0 8.7028e-05
21650.0 8.664e-05
21670.0 8.6326e-05
21690.0 8.608e-05
21710.0 8.5904e-05
21730.0 8.5785e-05
21750.0 8.5708e-05
21770.0 8.5694e-05
21790.0 8.5717e-05
21810.0 8.5755e-05
21830.0 8.5817e-05
21850.0 8.5905e-05
21870.0 8.5983e-05
21890.0 8.6043e-05
21910.0 8.6108e-05
21930.0 8.6154e-05
21950.0 8.6163e-05
21970.0 8.6151e-05
21990.0 8.6119e-05
22010.0 8.604e-05
22030.0 8.5924e-05
22050.0 8.578e-05
22070.0 8.5602e-05
22090.0 8.5387e-05
22110.0 8.5146e-05
22130.0 8.4878e-05
22150.0 8.4584e-05
22170.0 8.4268e-05
22190.0 8.393e-05
22210.0 8.3573e-05
22230.0 8.3201e-05
22250.0 8.2811e-05
22270.0 8.24e-05
22290.0 8.1974e-05
22310.0 8.153e-05
22330.0 8.1054e-05
22350.0 8.0553e-05
22370.0 8.0029e-05
22390.0 7.9465e-05
22410.0 7.8851e-05
22430.0 7.8211e-05
22450.0 7.7529e-05
22470.0 7.6783e-05
22490.0 7.5991e-05
22510.0 7.517e-05
22530.0 7.4275e-05
22550.0 7.3317e-05
22570.0 7.2346e-05
22590.0 7.1338e-05
22610.0 7.0269e-05
22630.0 6.9185e-05
22650.0 6.8122e-05
22670.0 6.7018e-05
22690.0 6.5905e-05
22710.0 6.4834e-05
22730.0 6.3784e-05
22750.0 6.2713e-05
22770.0 6.1711e-05
22790.0 6.0773e-05
22810.0 5.9858e-05
22830.0 5.8986e-05
22850.0 5.8196e-05
22870.0 5.745e-05
22890.0 5.6737e-05
22910.0 5.6091e-05
22930.0 5.5503e-05
22950.0 5.4948e-05
22970.0 5.4426e-05
22990.0 5.3965e-05
23010.0 5.3527e-05
23030.0 5.3107e-05
23050.0 5.2713e-05
