#lamb flux
1010.0 2.1616e-08
1030.0 2.3908e-08
1050.0 2.6544e-08
1070.0 2.9511e-08
1090.0 3.2881e-08
1110.0 3.6337e-08
1130.0 3.9816e-08
1150.0 4.346e-08
1170.0 4.7219e-08
1190.0 5.0784e-08
1210.0 5.4396e-08
1230.0 5.8129e-08
1250.0 6.1787e-08
1270.0 6.5339e-08
1290.0 6.9092e-08
1310.0 7.2843e-08
1330.0 7.6439e-08
1350.0 8.0077e-08
1370.0 8.3832e-08
1390.0 8.7493e-08
1410.0 9.1046e-08
1430.0 9.476e-08
1450.0 9.8474e-08
1470.0 1.0206e-07
1490.0 1.0569e-07
1510.0 1.0953e-07
1530.0 1.1316e-07
1550.0 1.1674e-07
1570.0 1.2045e-07
1590.0 1.2416e-07
1610.0 1.2771e-07
1630.0 1.3137e-07
1650.0 1.3513e-07
1670.0 1.3877e-07
1690.0 1.4236e-07
1710.0 1.4609e-07
1730.0 1.4985e-07
1750.0 1.5339e-07
1770.0 1.5703e-07
1790.0 1.6075e-07
1810.0 1.6436e-07
1830.0 1.6791e-07
1850.0 1.7168e-07
1870.0 1.7536e-07
1890.0 1.7893e-07
1910.0 1.8257e-07
1930.0 1.8631e-07
1950.0 1.8988e-07
1970.0 1.9342e-07
1990.0 1.9711e-07
2010.0 2.0074e-07
2030.0 2.0424e-07
2050.0 2.0787e-07
2070.0 2.1159e-07
2090.0 2.1511e-07
2110.0 2.1863e-07
2130.0 2.2226e-07
2150.0 2.2583e-07
2170.0 2.2925e-07
2190.0 2.3281e-07
2210.0 2.3639e-07
2230.0 2.3984e-07
2250.0 2.4327e-07
2270.0 2.4687e-07
2290.0 2.5035e-07
2310.0 2.5371e-07
2330.0 2.5719e-07
2350.0 2.6078e-07
2370.0 2.6434e-07
2390.0 2.6821e-07
2410.0 2.7278e-07
2430.0 2.7805e-07
2450.0 2.8434e-07
2470.0 2.924e-07
2490.0 3.0256e-07
2510.0 3.1411e-07
2530.0 3.2801e-07
2550.0 3.4542e-07
2570.0 3.6707e-07
2590.0 3.9523e-07
2610.0 4.3739e-07
2630.0 4.9759e-07
2650.0 5.7631e-07
2670.0 6.7808e-07
2690.0 8.0314e-07
2710.0 9.3664e-07
2730.0 1.0685e-06
2750.0 1.1985e-06
2770.0 1.3115e-06
2790.0 1.4012e-06
2810.0 1.4725e-06
2830.0 1.5281e-06
2850.0 1.5661e-06
2870.0 1.594e-06
2890.0 1.616e-06
2910.0 1.6336e-06
2930.0 1.648e-06
2950.0 1.6618e-06
2970.0 1.6752e-06
2990.0 1.6878e-06
3010.0 4.7707e-05
3030.0 4.8064e-05
3050.0 4.8408e-05
3070.0 4.8703e-05
3090.0 4.8957e-05
3110.0 4.9115e-05
3130.0 4.9109e-05
3150.0 4.889e-05
3170.0 4.8367e-05
3190.0 4.7544e-05
3210.0 4.6502e-05
3230.0 4.5308e-05
3250.0 4.413e-05
3270.0 4.3269e-05
3290.0 4.2791e-05
3310.0 4.2868e-05
3330.0 4.3489e-05
3350.0 4.4569e-05
3370.0 4.6112e-05
3390.0 4.8056e-05
3410.0 5.0172e-05
3430.0 5.2547e-05
3450.0 5.5281e-05
3470.0 5.8268e-05
3490.0 6.1432e-05
3510.0 6.5009e-05
3530.0 6.8839e-05
3550.0 7.2717e-05
3570.0 7.6763e-05
3590.0 8.1163e-05
3610.0 8.5696e-05
3630.0 9.0216e-05
3650.0 9.4904e-05
3670.0 9.9185e-05
3690.0 0.00010239
3710.0 0.00010422
3730.0 0.00010428
3750.0 0.00010283
3770.0 0.00010226
3790.0 0.00010165
3810.0 9.9152e-05
3830.0 0.00010222
3850.0 0.0001143
3870.0 0.00012092
3890.0 0.00012037
3910.0 0.00012089
3930.0 0.00012407
3950.0 0.00012603
3970.0 0.00011482
3990.0 9.8799e-05
4010.0 0.00029611
4030.0 0.00035878
4050.0 0.00041132
4070.0 0.00035689
4090.0 0.00032324
4110.0 0.00028522
4130.0 0.00026252
4150.0 0.00027924
4170.0 0.00027506
4190.0 0.0002932
4210.0 0.00029052
4230.0 0.00030729
4250.0 0.00036353
4270.0 0.0003678
4290.0 0.00033893
4310.0 0.00035217
4330.0 0.0003746
4350.0 0.00042002
4370.0 0.00047799
4390.0 0.00044855
4410.0 0.0003314
4430.0 0.00028055
4450.0 0.00025779
4470.0 0.00019787
4490.0 0.00021352
4510.0 0.00032253
4530.0 0.00037197
4550.0 0.0003752
4570.0 0.00042219
4590.0 0.00048092
4610.0 0.00064864
4630.0 0.00084245
4650.0 0.00091363
4670.0 0.00084611
4690.0 0.00080734
4710.0 0.00085341
4730.0 0.00080538
4750.0 0.00060213
4770.0 0.00044168
4790.0 0.00041244
4810.0 0.00039312
4830.0 0.0003599
4850.0 0.00039493
4870.0 0.00052174
4890.0 0.00061528
4910.0 0.00053983
4930.0 0.00047767
4950.0 0.0005248
4970.0 0.00067302
4990.0 0.0009121
5010.0 0.0010493
5030.0 0.0009252
5050.0 0.00062596
5070.0 0.00041253
5090.0 0.00033264
5110.0 0.00034209
5130.0 0.00039483
5150.0 0.00042777
5170.0 0.00042135
5190.0 0.00039372
5210.0 0.00041153
5230.0 0.00043261
5250.0 0.00046624
5270.0 0.00050304
5290.0 0.00055747
5310.0 0.00064888
5330.0 0.00071807
5350.0 0.00071349
5370.0 0.00074946
5390.0 0.00086002
5410.0 0.00085925
5430.0 0.00075988
5450.0 0.00069816
5470.0 0.00074132
5490.0 0.00090569
5510.0 0.0011324
5530.0 0.0012988
5550.0 0.0012554
5570.0 0.0011412
5590.0 0.0009923
5610.0 0.00091513
5630.0 0.00088739
5650.0 0.00084516
5670.0 0.00080085
5690.0 0.00071596
5710.0 0.00069808
5730.0 0.00064304
5750.0 0.00045338
5770.0 0.00035371
5790.0 0.00040083
5810.0 0.00045261
5830.0 0.00055542
5850.0 0.00066117
5870.0 0.00073357
5890.0 0.00074601
5910.0 0.00073189
5930.0 0.00069667
5950.0 0.0007099
5970.0 0.00080921
5990.0 0.00076087
6010.0 0.00063784
6030.0 0.00053888
6050.0 0.0004693
6070.0 0.00046673
6090.0 0.00050609
6110.0 0.00056589
6130.0 0.00057456
6150.0 0.00049436
6170.0 0.00043488
6190.0 0.0004894
6210.0 0.00064697
6230.0 0.00084902
6250.0 0.0009196
6270.0 0.00080361
6290.0 0.00067612
6310.0 0.00052783
6330.0 0.00040442
6350.0 0.00036073
6370.0 0.00037934
6390.0 0.00043855
6410.0 0.00054075
6430.0 0.00063144
6450.0 0.00072253
6470.0 0.00082732
6490.0 0.00099934
6510.0 0.0011174
6530.0 0.0010962
6550.0 0.00099129
6570.0 0.00084151
6590.0 0.00075882
6610.0 0.0006543
6630.0 0.00059277
6650.0 0.00056033
6670.0 0.00054435
6690.0 0.00049185
6710.0 0.0004471
6730.0 0.00032204
6750.0 0.00031927
6770.0 0.00034702
6790.0 0.00039888
6810.0 0.00036498
6830.0 0.00037583
6850.0 0.00035152
6870.0 0.00032111
6890.0 0.00030832
6910.0 0.00032855
6930.0 0.00030774
6950.0 0.00031661
6970.0 0.00033302
6990.0 0.000378
7010.0 0.00038122
7030.0 0.00038727
7050.0 0.00036933
7070.0 0.00035191
7090.0 0.00035293
7110.0 0.00036314
7130.0 0.0003908
7150.0 0.00041506
7170.0 0.00045799
7190.0 0.00050346
7210.0 0.00049471
7230.0 0.00050858
7250.0 0.00054654
7270.0 0.0005956
7290.0 0.00070692
7310.0 0.00076707
7330.0 0.00074144
7350.0 0.00067059
7370.0 0.00058347
7390.0 0.00056604
7410.0 0.00060153
7430.0 0.00066852
7450.0 0.00072814
7470.0 0.00072145
7490.0 0.00065783
7510.0 0.00074515
7530.0 0.000737
7550.0 0.00066242
7570.0 0.00051748
7590.0 0.00035575
7610.0 0.00030534
7630.0 0.00034692
7650.0 0.00041019
7670.0 0.00051051
7690.0 0.00056177
7710.0 0.00058544
7730.0 0.00061522
7750.0 0.00069065
7770.0 0.00070151
7790.0 0.00064437
7810.0 0.00058795
7830.0 0.00060631
7850.0 0.00058939
7870.0 0.00054037
7890.0 0.00045401
7910.0 0.00036905
7930.0 0.00035239
7950.0 0.00032104
7970.0 0.00029718
7990.0 0.00029548
8010.0 2.1884e-05
8030.0 2.16e-05
8050.0 2.1308e-05
8070.0 2.1587e-05
8090.0 2.3195e-05
8110.0 2.28e-05
8130.0 1.8807e-05
8150.0 1.8316e-05
8170.0 1.5776e-05
8190.0 1.4952e-05
8210.0 1.9416e-05
8230.0 2.1617e-05
8250.0 1.9483e-05
8270.0 1.6958e-05
8290.0 1.6531e-05
8310.0 1.2723e-05
8330.0 8.575e-06
8350.0 6.0856e-06
8370.0 3.8342e-06
8390.0 7.0088e-06
8410.0 8.1671e-06
8430.0 1.0067e-05
8450.0 1.1822e-05
8470.0 1.4694e-05
8490.0 1.459e-05
8510.0 1.4351e-05
8530.0 1.4978e-05
8550.0 2.0208e-05
8570.0 2.3923e-05
8590.0 2.5813e-05
8610.0 3.2607e-05
8630.0 3.928e-05
8650.0 4.1091e-05
8670.0 4.3668e-05
8690.0 4.3912e-05
8710.0 3.9769e-05
8730.0 3.6991e-05
8750.0 3.2652e-05
8770.0 3.0981e-05
8790.0 3.0438e-05
8810.0 2.9166e-05
8830.0 2.3323e-05
8850.0 1.7074e-05
8870.0 1.3073e-05
8890.0 1.2781e-05
8910.0 1.4647e-05
8930.0 1.666e-05
8950.0 1.6979e-05
8970.0 1.706e-05
8990.0 1.5215e-05
9010.0 0.00015945
9030.0 0.00014448
9050.0 0.00014518
9070.0 0.00014632
9090.0 0.00014733
9110.0 0.00014857
9130.0 0.00014953
9150.0 0.00015027
9170.0 0.00015106
9190.0 0.00015191
9210.0 0.0001528
9230.0 0.00015375
9250.0 0.0001547
9270.0 0.00015569
9290.0 0.00015672
9310.0 0.00015775
9330.0 0.0001588
9350.0 0.00015988
9370.0 0.00016099
9390.0 0.0001621
9410.0 0.00016324
9430.0 0.00016442
9450.0 0.00016559
9470.0 0.00016679
9490.0 0.00016803
9510.0 0.00016927
9530.0 0.00017053
9550.0 0.00017183
9570.0 0.00017315
9590.0 0.00017447
9610.0 0.00017582
9630.0 0.0001772
9650.0 0.00017859
9670.0 0.00017999
9690.0 0.00018143
9710.0 0.00018288
9730.0 0.00018434
9750.0 0.00018582
9770.0 0.00018735
9790.0 0.00018887
9810.0 0.0001904
9830.0 0.00019197
9850.0 0.00019355
9870.0 0.00019513
9890.0 0.00019673
9910.0 0.00019836
9930.0 0.0002
9950.0 0.00020164
9970.0 0.00020331
9990.0 0.000205
10010.0 0.00017788
10030.0 0.00017935
10050.0 0.00018084
10070.0 0.00018238
10090.0 0.00018383
10110.0 0.00018532
10130.0 0.00018681
10150.0 0.0001883
10170.0 0.00018981
10190.0 0.00019134
10210.0 0.00019286
10230.0 0.00019437
10250.0 0.00019591
10270.0 0.00019744
10290.0 0.00019896
10310.0 0.00020049
10330.0 0.00020204
10350.0 0.00020356
10370.0 0.00020508
10390.0 0.00020662
10410.0 0.00020815
10430.0 0.00020965
10450.0 0.00021116
10470.0 0.00021268
10490.0 0.00021417
10510.0 0.00021565
10530.0 0.00021716
10550.0 0.00021864
10570.0 0.00022009
10590.0 0.00022155
10610.0 0.000223
10630.0 0.00022442
10650.0 0.00022583
10670.0 0.00022726
10690.0 0.00022865
10710.0 0.00023002
10730.0 0.00023139
10750.0 0.00023276
10770.0 0.00023408
10790.0 0.00023538
10810.0 0.00023668
10830.0 0.00023795
10850.0 0.00023914
10870.0 0.00024031
10890.0 0.00024133
10910.0 0.00024211
10930.0 0.00024256
10950.0 0.00024246
10970.0 0.00024163
10990.0 0.00024002
11010.0 0.00023733
11030.0 0.00023355
11050.0 0.00022895
11070.0 0.00022345
11090.0 0.00021684
11110.0 0.00021
11130.0 0.00020287
11150.0 0.00019519
11170.0 0.00018727
11190.0 0.00017959
11210.0 0.00017166
11230.0 0.00016353
11250.0 0.00015576
11270.0 0.00014829
11290.0 0.00014082
11310.0 0.00013374
11330.0 0.0001275
11350.0 0.00012161
11370.0 0.00011616
11390.0 0.00011145
11410.0 0.00010733
11430.0 0.0001035
11450.0 0.0001002
11470.0 9.7351e-05
11490.0 9.4696e-05
11510.0 9.2139e-05
11530.0 8.9765e-05
11550.0 8.7408e-05
11570.0 8.4892e-05
11590.0 8.2287e-05
11610.0 7.9636e-05
11630.0 7.675e-05
11650.0 7.3661e-05
11670.0 7.0616e-05
11690.0 6.7528e-05
11710.0 6.4342e-05
11730.0 6.1255e-05
11750.0 5.8399e-05
11770.0 5.5597e-05
11790.0 5.2972e-05
11810.0 5.066e-05
11830.0 4.8593e-05
11850.0 4.6689e-05
11870.0 4.5097e-05
11890.0 4.3773e-05
11910.0 4.261e-05
11930.0 4.161e-05
11950.0 4.0777e-05
11970.0 4.0033e-05
11990.0 3.933e-05
12010.0 3.8679e-05
12030.0 3.8052e-05
12050.0 3.7404e-05
12070.0 3.673e-05
12090.0 3.608e-05
12110.0 3.542e-05
12130.0 3.4759e-05
12150.0 3.415e-05
12170.0 3.3618e-05
12190.0 3.3158e-05
12210.0 3.2837e-05
12230.0 3.2681e-05
12250.0 3.2707e-05
12270.0 3.2953e-05
12290.0 3.3419e-05
12310.0 3.4088e-05
12330.0 3.5024e-05
12350.0 3.6191e-05
12370.0 3.7521e-05
12390.0 3.9054e-05
12410.0 4.085e-05
12430.0 4.2676e-05
12450.0 4.4566e-05
12470.0 4.6576e-05
12490.0 4.8595e-05
12510.0 5.0489e-05
12530.0 5.2373e-05
12550.0 5.4191e-05
12570.0 5.5795e-05
12590.0 5.7204e-05
12610.0 5.8459e-05
12630.0 5.946e-05
12650.0 6.0151e-05
12670.0 6.0605e-05
12690.0 6.0787e-05
12710.0 6.0686e-05
12730.0 6.0334e-05
12750.0 5.9707e-05
12770.0 5.8845e-05
12790.0 5.7801e-05
12810.0 5.6554e-05
12830.0 5.5111e-05
12850.0 5.3602e-05
12870.0 5.2006e-05
12890.0 5.028e-05
12910.0 4.8525e-05
12930.0 4.6795e-05
12950.0 4.499e-05
12970.0 4.3153e-05
12990.0 4.1414e-05
13010.0 3.9698e-05
13030.0 3.7962e-05
13050.0 3.6295e-05
13070.0 3.4733e-05
13090.0 3.3166e-05
13110.0 3.165e-05
13130.0 3.0252e-05
13150.0 2.8928e-05
13170.0 2.7632e-05
13190.0 2.6478e-05
13210.0 2.5463e-05
13230.0 2.4535e-05
13250.0 2.3736e-05
13270.0 2.3106e-05
13290.0 2.2615e-05
13310.0 2.2278e-05
13330.0 2.2124e-05
13350.0 2.2142e-05
13370.0 2.234e-05
13390.0 2.273e-05
13410.0 2.3258e-05
13430.0 2.3943e-05
13450.0 2.479e-05
13470.0 2.5729e-05
13490.0 2.6725e-05
13510.0 2.7847e-05
13530.0 2.8985e-05
13550.0 3.0075e-05
13570.0 3.1149e-05
13590.0 3.2196e-05
13610.0 3.3127e-05
13630.0 3.394e-05
13650.0 3.4682e-05
13670.0 3.5298e-05
13690.0 3.5774e-05
13710.0 3.6143e-05
13730.0 3.6406e-05
13750.0 3.6538e-05
13770.0 3.6568e-05
13790.0 3.6501e-05
13810.0 3.634e-05
13830.0 3.6102e-05
13850.0 3.5779e-05
13870.0 3.5373e-05
13890.0 3.4907e-05
13910.0 3.4383e-05
13930.0 3.3776e-05
13950.0 3.3113e-05
13970.0 3.2436e-05
13990.0 3.1698e-05
14010.0 3.0914e-05
14030.0 3.0131e-05
14050.0 2.9342e-05
14070.0 2.8509e-05
14090.0 2.7712e-05
14110.0 2.6962e-05
14130.0 2.6235e-05
14150.0 2.5551e-05
14170.0 2.4967e-05
14190.0 2.4462e-05
14210.0 2.4034e-05
14230.0 2.3717e-05
14250.0 2.3512e-05
14270.0 2.3412e-05
14290.0 2.3434e-05
14310.0 2.3564e-05
14330.0 2.3799e-05
14350.0 2.4144e-05
14370.0 2.4574e-05
14390.0 2.5062e-05
14410.0 2.5637e-05
14430.0 2.6269e-05
14450.0 2.6914e-05
14470.0 2.7583e-05
14490.0 2.8295e-05
14510.0 2.8976e-05
14530.0 2.9622e-05
14550.0 3.0268e-05
14570.0 3.0889e-05
14590.0 3.1453e-05
14610.0 3.1999e-05
14630.0 3.254e-05
14650.0 3.3043e-05
14670.0 3.3529e-05
14690.0 3.4036e-05
14710.0 3.4569e-05
14730.0 3.5102e-05
14750.0 3.5692e-05
14770.0 3.6362e-05
14790.0 3.7088e-05
14810.0 3.7875e-05
14830.0 3.8806e-05
14850.0 3.982e-05
14870.0 4.0876e-05
14890.0 4.2017e-05
14910.0 4.3228e-05
14930.0 4.4392e-05
14950.0 4.548e-05
14970.0 4.651e-05
14990.0 4.7374e-05
15010.0 4.8034e-05
15030.0 4.8524e-05
15050.0 4.8847e-05
15070.0 4.9005e-05
15090.0 4.9061e-05
15110.0 4.9045e-05
15130.0 4.8983e-05
15150.0 4.89e-05
15170.0 4.8802e-05
15190.0 4.8697e-05
15210.0 4.8594e-05
15230.0 4.849e-05
15250.0 4.8383e-05
15270.0 4.8277e-05
15290.0 4.8177e-05
15310.0 4.8074e-05
15330.0 4.797e-05
15350.0 4.787e-05
15370.0 4.7771e-05
15390.0 4.7667e-05
15410.0 4.7566e-05
15430.0 4.7468e-05
15450.0 4.7368e-05
15470.0 4.7267e-05
15490.0 4.7171e-05
15510.0 4.7075e-05
15530.0 4.6975e-05
15550.0 4.6878e-05
15570.0 4.6784e-05
15590.0 4.6686e-05
15610.0 4.6587e-05
15630.0 4.6493e-05
15650.0 4.6399e-05
15670.0 4.6302e-05
15690.0 4.6207e-05
15710.0 4.6116e-05
15730.0 4.602e-05
15750.0 4.5925e-05
15770.0 4.5833e-05
15790.0 4.574e-05
15810.0 4.5643e-05
15830.0 4.5551e-05
15850.0 4.546e-05
15870.0 4.5367e-05
15890.0 4.5273e-05
15910.0 4.5184e-05
15930.0 4.5092e-05
15950.0 4.4997e-05
15970.0 4.4906e-05
15990.0 4.4816e-05
16010.0 4.4723e-05
16030.0 4.4629e-05
16050.0 4.454e-05
16070.0 4.445e-05
16090.0 4.4356e-05
16110.0 4.4266e-05
16130.0 4.4178e-05
16150.0 4.4083e-05
16170.0 4.3991e-05
16190.0 4.3902e-05
16210.0 4.3811e-05
16230.0 4.3717e-05
16250.0 4.3627e-05
16270.0 4.3539e-05
16290.0 4.3445e-05
16310.0 4.3353e-05
16330.0 4.3265e-05
16350.0 4.3173e-05
16370.0 4.3077e-05
16390.0 4.2988e-05
16410.0 4.2898e-05
16430.0 4.2804e-05
16450.0 4.2712e-05
16470.0 4.2624e-05
16490.0 4.2531e-05
16510.0 4.2436e-05
16530.0 4.2345e-05
16550.0 4.2254e-05
16570.0 4.2159e-05
16590.0 4.2065e-05
16610.0 4.1975e-05
16630.0 4.1882e-05
16650.0 4.1787e-05
16670.0 4.1696e-05
16690.0 4.1604e-05
16710.0 4.1507e-05
16730.0 4.1413e-05
16750.0 4.1321e-05
16770.0 4.1226e-05
16790.0 4.1129e-05
16810.0 4.1036e-05
16830.0 4.0943e-05
16850.0 4.0846e-05
16870.0 4.0751e-05
16890.0 4.0658e-05
16910.0 4.056e-05
16930.0 4.0461e-05
16950.0 4.0367e-05
16970.0 4.0272e-05
16990.0 4.0173e-05
17010.0 4.0077e-05
17030.0 3.9983e-05
17050.0 3.9884e-05
17070.0 3.9784e-05
17090.0 3.9689e-05
17110.0 3.9591e-05
17130.0 3.9489e-05
17150.0 3.9391e-05
17170.0 3.9295e-05
17190.0 3.9194e-05
17210.0 3.9094e-05
17230.0 3.8997e-05
17250.0 3.8897e-05
17270.0 3.8794e-05
17290.0 3.8694e-05
17310.0 3.8596e-05
17330.0 3.8493e-05
17350.0 3.8389e-05
17370.0 3.8291e-05
17390.0 3.819e-05
17410.0 3.8086e-05
17430.0 3.7985e-05
17450.0 3.7886e-05
17470.0 3.7779e-05
17490.0 3.7675e-05
17510.0 3.7574e-05
17530.0 3.7471e-05
17550.0 3.7364e-05
17570.0 3.7262e-05
17590.0 3.716e-05
17610.0 3.7054e-05
17630.0 3.6948e-05
17650.0 3.6846e-05
17670.0 3.6741e-05
17690.0 3.663e-05
17710.0 3.6527e-05
17730.0 3.6423e-05
17750.0 3.6315e-05
17770.0 3.6208e-05
17790.0 3.6106e-05
17810.0 3.5997e-05
17830.0 3.5888e-05
17850.0 3.5782e-05
17870.0 3.5676e-05
17890.0 3.5566e-05
17910.0 3.5457e-05
17930.0 3.5352e-05
17950.0 3.5243e-05
17970.0 3.5133e-05
17990.0 3.5027e-05
18010.0 3.492e-05
18030.0 3.4807e-05
18050.0 3.4697e-05
18070.0 3.459e-05
18090.0 3.448e-05
18110.0 3.4367e-05
18130.0 3.426e-05
18150.0 3.4152e-05
18170.0 3.4039e-05
18190.0 3.3929e-05
18210.0 3.3821e-05
18230.0 3.3708e-05
18250.0 3.3594e-05
18270.0 3.3486e-05
18290.0 3.3375e-05
18310.0 3.3262e-05
18330.0 3.3151e-05
18350.0 3.3043e-05
18370.0 3.2929e-05
18390.0 3.2815e-05
18410.0 3.2705e-05
18430.0 3.2594e-05
18450.0 3.2478e-05
18470.0 3.2366e-05
18490.0 3.2256e-05
18510.0 3.2142e-05
18530.0 3.2029e-05
18550.0 3.1919e-05
18570.0 3.1806e-05
18590.0 3.169e-05
18610.0 3.1578e-05
18630.0 3.1466e-05
18650.0 3.1351e-05
18670.0 3.1236e-05
18690.0 3.1126e-05
18710.0 3.1013e-05
18730.0 3.0897e-05
18750.0 3.0785e-05
18770.0 3.0674e-05
18790.0 3.0556e-05
18810.0 3.0441e-05
18830.0 3.033e-05
18850.0 3.0216e-05
18870.0 3.0099e-05
18890.0 2.9987e-05
18910.0 2.9876e-05
18930.0 2.9759e-05
18950.0 2.9645e-05
18970.0 2.9533e-05
18990.0 2.9418e-05
19010.0 2.93e-05
19030.0 2.9188e-05
19050.0 2.9076e-05
19070.0 2.8959e-05
19090.0 2.8845e-05
19110.0 2.8735e-05
19130.0 2.8618e-05
19150.0 2.8502e-05
19170.0 2.8389e-05
19190.0 2.8276e-05
19210.0 2.8159e-05
19230.0 2.8044e-05
19250.0 2.7933e-05
19270.0 2.7818e-05
19290.0 2.7702e-05
19310.0 2.7591e-05
19330.0 2.7478e-05
19350.0 2.7359e-05
19370.0 2.7246e-05
19390.0 2.7134e-05
19410.0 2.7018e-05
19430.0 2.6902e-05
19450.0 2.6791e-05
19470.0 2.6678e-05
19490.0 2.6562e-05
19510.0 2.6448e-05
19530.0 2.6337e-05
19550.0 2.6221e-05
19570.0 2.6104e-05
19590.0 2.5993e-05
19610.0 2.588e-05
19630.0 2.5764e-05
19650.0 2.5652e-05
19670.0 2.5541e-05
19690.0 2.5425e-05
19710.0 2.5311e-05
19730.0 2.5199e-05
19750.0 2.5086e-05
19770.0 2.4969e-05
19790.0 2.4857e-05
19810.0 2.4746e-05
19830.0 2.4631e-05
19850.0 2.4515e-05
19870.0 2.4402e-05
19890.0 2.428e-05
19910.0 2.4146e-05
19930.0 2.4003e-05
19950.0 2.3839e-05
19970.0 2.3637e-05
19990.0 2.3394e-05
20010.0 2.0814e-05
20030.0 2.0512e-05
20050.0 2.016e-05
20070.0 1.9778e-05
20090.0 1.9367e-05
20110.0 1.8902e-05
20130.0 1.8432e-05
20150.0 1.7965e-05
20170.0 1.7482e-05
20190.0 1.6991e-05
20210.0 1.6528e-05
20230.0 1.6076e-05
20250.0 1.5624e-05
20270.0 1.5203e-05
20290.0 1.482e-05
20310.0 1.4455e-05
20330.0 1.4115e-05
20350.0 1.3832e-05
20370.0 1.3581e-05
20390.0 1.3361e-05
20410.0 1.3183e-05
20430.0 1.3046e-05
20450.0 1.2937e-05
20470.0 1.2864e-05
20490.0 1.2825e-05
20510.0 1.2814e-05
20530.0 1.283e-05
20550.0 1.2869e-05
20570.0 1.2927e-05
20590.0 1.3005e-05
20610.0 1.31e-05
20630.0 1.3204e-05
20650.0 1.332e-05
20670.0 1.3453e-05
20690.0 1.3589e-05
20710.0 1.3729e-05
20730.0 1.388e-05
20750.0 1.4038e-05
20770.0 1.4194e-05
20790.0 1.4357e-05
20810.0 1.4529e-05
20830.0 1.4701e-05
20850.0 1.4874e-05
20870.0 1.5058e-05
20890.0 1.5247e-05
20910.0 1.5428e-05
20930.0 1.5617e-05
20950.0 1.5812e-05
20970.0 1.6002e-05
20990.0 1.619e-05
21010.0 1.6388e-05
21030.0 1.6581e-05
21050.0 1.6765e-05
21070.0 1.6949e-05
21090.0 1.7134e-05
21110.0 1.7302e-05
21130.0 1.746e-05
21150.0 1.7613e-05
21170.0 1.7752e-05
21190.0 1.7871e-05
21210.0 1.7979e-05
21230.0 1.8068e-05
21250.0 1.8132e-05
21270.0 1.8172e-05
21290.0 1.8187e-05
21310.0 1.8172e-05
21330.0 1.813e-05
21350.0 1.8054e-05
21370.0 1.7944e-05
21390.0 1.7803e-05
21410.0 1.7631e-05
21430.0 1.7413e-05
21450.0 1.7169e-05
21470.0 1.6902e-05
21490.0 1.6601e-05
21510.0 1.6271e-05
21530.0 1.5935e-05
21550.0 1.5583e-05
21570.0 1.5208e-05
21590.0 1.4839e-05
21610.0 1.4482e-05
21630.0 1.4126e-05
21650.0 1.3777e-05
21670.0 1.3475e-05
21690.0 1.3196e-05
21710.0 1.2945e-05
21730.0 1.2739e-05
21750.0 1.2581e-05
21770.0 1.246e-05
21790.0 1.239e-05
21810.0 1.2371e-05
21830.0 1.2398e-05
21850.0 1.2476e-05
21870.0 1.2597e-05
21890.0 1.2753e-05
21910.0 1.2953e-05
21930.0 1.3188e-05
21950.0 1.3443e-05
21970.0 1.3724e-05
21990.0 1.4041e-05
22010.0 1.4357e-05
22030.0 1.4678e-05
22050.0 1.5015e-05
22070.0 1.5354e-05
22090.0 1.5676e-05
22110.0 1.5999e-05
22130.0 1.6322e-05
22150.0 1.6624e-05
22170.0 1.6909e-05
22190.0 1.7191e-05
22210.0 1.7453e-05
22230.0 1.7684e-05
22250.0 1.7902e-05
22270.0 1.8102e-05
22290.0 1.8273e-05
22310.0 1.842e-05
22330.0 1.8549e-05
22350.0 1.8649e-05
22370.0 1.872e-05
22390.0 1.8764e-05
22410.0 1.8778e-05
22430.0 1.876e-05
22450.0 1.8712e-05
22470.0 1.8628e-05
22490.0 1.8511e-05
22510.0 1.8365e-05
22530.0 1.8178e-05
22550.0 1.795e-05
22570.0 1.7698e-05
22590.0 1.7413e-05
22610.0 1.7086e-05
22630.0 1.6731e-05
