#lamb flux
1010.0 7.4003e-08
1030.0 8.3405e-08
1050.0 9.4219e-08
1070.0 1.0639e-07
1090.0 1.2022e-07
1110.0 1.344e-07
1130.0 1.4867e-07
1150.0 1.6363e-07
1170.0 1.7905e-07
1190.0 1.9367e-07
1210.0 2.085e-07
1230.0 2.2381e-07
1250.0 2.3882e-07
1270.0 2.5339e-07
1290.0 2.6879e-07
1310.0 2.8418e-07
1330.0 2.9894e-07
1350.0 3.1386e-07
1370.0 3.2927e-07
1390.0 3.4429e-07
1410.0 3.5886e-07
1430.0 3.7409e-07
1450.0 3.8933e-07
1470.0 4.0404e-07
1490.0 4.1892e-07
1510.0 4.3463e-07
1530.0 4.4951e-07
1550.0 4.6418e-07
1570.0 4.7936e-07
1590.0 4.9454e-07
1610.0 5.0904e-07
1630.0 5.2398e-07
1650.0 5.3929e-07
1670.0 5.541e-07
1690.0 5.6869e-07
1710.0 5.8383e-07
1730.0 5.9903e-07
1750.0 6.1329e-07
1770.0 6.2794e-07
1790.0 6.4285e-07
1810.0 6.5723e-07
1830.0 6.713e-07
1850.0 6.8619e-07
1870.0 7.0061e-07
1890.0 7.1445e-07
1910.0 7.2849e-07
1930.0 7.4277e-07
1950.0 7.5625e-07
1970.0 7.6941e-07
1990.0 7.8297e-07
2010.0 7.9611e-07
2030.0 8.0853e-07
2050.0 8.2117e-07
2070.0 8.3395e-07
2090.0 8.4562e-07
2110.0 8.5697e-07
2130.0 8.6844e-07
2150.0 8.793e-07
2170.0 8.8919e-07
2190.0 8.9922e-07
2210.0 9.0892e-07
2230.0 9.1762e-07
2250.0 9.258e-07
2270.0 9.341e-07
2290.0 9.4145e-07
2310.0 9.4772e-07
2330.0 9.5385e-07
2350.0 9.5954e-07
2370.0 9.6417e-07
2390.0 9.6849e-07
2410.0 9.7315e-07
2430.0 9.7735e-07
2450.0 9.815e-07
2470.0 9.868e-07
2490.0 9.938e-07
2510.0 1.0021e-06
2530.0 1.015e-06
2550.0 1.0375e-06
2570.0 1.0741e-06
2590.0 1.1311e-06
2610.0 1.2259e-06
2630.0 1.3623e-06
2650.0 1.5327e-06
2670.0 1.7388e-06
2690.0 1.9717e-06
2710.0 2.1957e-06
2730.0 2.3934e-06
2750.0 2.5667e-06
2770.0 2.6961e-06
2790.0 2.7798e-06
2810.0 2.8319e-06
2830.0 2.8616e-06
2850.0 2.8692e-06
2870.0 2.8661e-06
2890.0 2.8587e-06
2910.0 2.8479e-06
2930.0 2.8338e-06
2950.0 2.8206e-06
2970.0 2.8082e-06
2990.0 2.7947e-06
3010.0 5.7834e-05
3030.0 5.7534e-05
3050.0 5.7236e-05
3070.0 5.689e-05
3090.0 5.6523e-05
3110.0 5.6076e-05
3130.0 5.5479e-05
3150.0 5.47e-05
3170.0 5.3678e-05
3190.0 5.2439e-05
3210.0 5.1088e-05
3230.0 4.9733e-05
3250.0 4.8606e-05
3270.0 4.7861e-05
3290.0 4.7691e-05
3310.0 4.8061e-05
3330.0 4.9088e-05
3350.0 5.0611e-05
3370.0 5.2666e-05
3390.0 5.5187e-05
3410.0 5.79e-05
3430.0 6.0936e-05
3450.0 6.4407e-05
3470.0 6.8163e-05
3490.0 7.2102e-05
3510.0 7.6498e-05
3530.0 8.1162e-05
3550.0 8.5827e-05
3570.0 9.0687e-05
3590.0 9.6099e-05
3610.0 0.00010167
3630.0 0.00010753
3650.0 0.00011362
3670.0 0.00011936
3690.0 0.00012383
3710.0 0.00012662
3730.0 0.00012716
3750.0 0.00012545
3770.0 0.00011541
3790.0 0.00010413
3810.0 9.6545e-05
3830.0 8.432e-05
3850.0 6.2744e-05
3870.0 4.4606e-05
3890.0 7.4577e-05
3910.0 0.00012128
3930.0 0.00014668
3950.0 0.00014413
3970.0 0.00014732
3990.0 0.00017304
4010.0 0.00022227
4030.0 0.00022495
4050.0 0.00019937
4070.0 0.00017671
4090.0 0.00016706
4110.0 0.00020137
4130.0 0.00021048
4150.0 0.0002054
4170.0 0.00020829
4190.0 0.00021235
4210.0 0.00020961
4230.0 0.00023152
4250.0 0.00025307
4270.0 0.00025671
4290.0 0.00025991
4310.0 0.00026658
4330.0 0.00029393
4350.0 0.00033896
4370.0 0.00038484
4390.0 0.00036533
4410.0 0.00029917
4430.0 0.00025104
4450.0 0.00021504
4470.0 0.00020874
4490.0 0.00022934
4510.0 0.00025726
4530.0 0.00028425
4550.0 0.00032923
4570.0 0.00038958
4590.0 0.0004723
4610.0 0.00060652
4630.0 0.00073685
4650.0 0.00075768
4670.0 0.00073159
4690.0 0.00077968
4710.0 0.00082334
4730.0 0.00069833
4750.0 0.00049896
4770.0 0.00040652
4790.0 0.00039286
4810.0 0.0003653
4830.0 0.00034472
4850.0 0.00039476
4870.0 0.00050953
4890.0 0.00058565
4910.0 0.00049689
4930.0 0.0004397
4950.0 0.00049227
4970.0 0.00065979
4990.0 0.00085594
5010.0 0.0009106
5030.0 0.00075325
5050.0 0.00048626
5070.0 0.00033411
5090.0 0.00029649
5110.0 0.00030986
5130.0 0.00033359
5150.0 0.00035044
5170.0 0.00035004
5190.0 0.00034261
5210.0 0.00033175
5230.0 0.00033987
5250.0 0.00036311
5270.0 0.00041771
5290.0 0.0004818
5310.0 0.00053069
5330.0 0.00054431
5350.0 0.00054832
5370.0 0.00059574
5390.0 0.00064357
5410.0 0.00062578
5430.0 0.00054072
5450.0 0.00049714
5470.0 0.00055676
5490.0 0.00071395
5510.0 0.00091189
5530.0 0.0010136
5550.0 0.00098259
5570.0 0.00089034
5590.0 0.00079385
5610.0 0.00073327
5630.0 0.00069605
5650.0 0.00071161
5670.0 0.00069455
5690.0 0.00064442
5710.0 0.00061013
5730.0 0.00055349
5750.0 0.00039736
5770.0 0.00034488
5790.0 0.00038782
5810.0 0.00046861
5830.0 0.00053339
5850.0 0.00058498
5870.0 0.00060213
5890.0 0.00058158
5910.0 0.00055663
5930.0 0.00055799
5950.0 0.00058436
5970.0 0.00062264
5990.0 0.00058965
6010.0 0.00049606
6030.0 0.00041203
6050.0 0.00035757
6070.0 0.0003554
6090.0 0.0004006
6110.0 0.00044006
6130.0 0.00042412
6150.0 0.00039108
6170.0 0.00042521
6190.0 0.00051256
6210.0 0.00062529
6230.0 0.00072043
6250.0 0.0007223
6270.0 0.00064669
6290.0 0.00053562
6310.0 0.0004256
6330.0 0.00033836
6350.0 0.00030461
6370.0 0.00032958
6390.0 0.0003897
6410.0 0.00045011
6430.0 0.00052185
6450.0 0.00060732
6470.0 0.00074263
6490.0 0.00091434
6510.0 0.0010114
6530.0 0.00094055
6550.0 0.00086351
6570.0 0.00083865
6590.0 0.0008061
6610.0 0.00071979
6630.0 0.00064809
6650.0 0.00059638
6670.0 0.0006181
6690.0 0.00061038
6710.0 0.00054224
6730.0 0.00049274
6750.0 0.00044154
6770.0 0.00042865
6790.0 0.00047222
6810.0 0.00048598
6830.0 0.00049899
6850.0 0.00048869
6870.0 0.00046768
6890.0 0.00045651
6910.0 0.00043938
6930.0 0.00041272
6950.0 0.0004198
6970.0 0.00042602
6990.0 0.00047576
7010.0 0.00050698
7030.0 0.00046447
7050.0 0.00043556
7070.0 0.00042277
7090.0 0.00038702
7110.0 0.00036265
7130.0 0.00037052
7150.0 0.0003889
7170.0 0.0004126
7190.0 0.00041551
7210.0 0.00041223
7230.0 0.00042933
7250.0 0.00049204
7270.0 0.00057569
7290.0 0.00062422
7310.0 0.00060984
7330.0 0.00054271
7350.0 0.00048627
7370.0 0.00046893
7390.0 0.00047302
7410.0 0.00049432
7430.0 0.00054026
7450.0 0.000585
7470.0 0.00064287
7490.0 0.00071204
7510.0 0.00069217
7530.0 0.00065539
7550.0 0.0005474
7570.0 0.00044781
7590.0 0.00035538
7610.0 0.00032252
7630.0 0.00033995
7650.0 0.00038915
7670.0 0.00043122
7690.0 0.00048824
7710.0 0.00053703
7730.0 0.00055756
7750.0 0.00056453
7770.0 0.00056165
7790.0 0.00054773
7810.0 0.00056271
7830.0 0.00054593
7850.0 0.0004876
7870.0 0.00043922
7890.0 0.00040461
7910.0 0.00035911
7930.0 0.00030811
7950.0 0.00028087
7970.0 0.00027814
7990.0 0.00028987
8010.0 0.00030744
8030.0 0.00031062
8050.0 0.00031046
8070.0 0.00030258
8090.0 0.00030431
8110.0 0.00028809
8130.0 0.00026245
8150.0 0.00024633
8170.0 0.00023544
8190.0 0.00023811
8210.0 0.00024404
8230.0 0.0002573
8250.0 0.00025033
8270.0 0.00022385
8290.0 0.00017568
8310.0 0.0001195
8330.0 7.8239e-05
8350.0 5.6069e-05
8370.0 6.4772e-05
8390.0 7.2708e-05
8410.0 9.2977e-05
8430.0 0.00011302
8450.0 0.00012425
8470.0 0.00013193
8490.0 0.00013317
8510.0 0.00013724
8530.0 0.00015002
8550.0 0.00017011
8570.0 0.0002032
8590.0 0.00024439
8610.0 0.00028943
8630.0 0.00033762
8650.0 0.00037238
8670.0 0.00037042
8690.0 0.00035346
8710.0 0.00033292
8730.0 0.00031595
8750.0 0.00029859
8770.0 0.00028874
8790.0 0.00028236
8810.0 0.00026526
8830.0 0.00023324
8850.0 0.00019887
8870.0 0.000168
8890.0 0.00015546
8910.0 0.00016049
8930.0 0.00016414
8950.0 0.00018155
8970.0 0.00018553
8990.0 0.00018939
9010.0 0.00019153
9030.0 0.00019224
9050.0 0.00019345
9070.0 0.00019436
9090.0 0.00019503
9110.0 0.00019552
9130.0 0.00019604
9150.0 0.00019663
9170.0 0.00019725
9190.0 0.00019789
9210.0 0.00019865
9230.0 0.00019937
9250.0 0.00020015
9270.0 0.00020098
9290.0 0.00020184
9310.0 0.00020277
9330.0 0.00020374
9350.0 0.00020473
9370.0 0.00020578
9390.0 0.00020689
9410.0 0.00020802
9430.0 0.00020918
9450.0 0.00021041
9470.0 0.00021168
9490.0 0.00021297
9510.0 0.0002143
9530.0 0.00021569
9550.0 0.0002171
9570.0 0.00021853
9590.0 0.00022002
9610.0 0.00022155
9630.0 0.00022308
9650.0 0.00022466
9670.0 0.00022629
9690.0 0.00022793
9710.0 0.0002296
9730.0 0.00023131
9750.0 0.00023305
9770.0 0.00023478
9790.0 0.00023656
9810.0 0.00023837
9830.0 0.00024019
9850.0 0.00024202
9870.0 0.0002439
9890.0 0.00024578
9910.0 0.00024767
9930.0 0.00024958
9950.0 0.00025151
9970.0 0.00025343
9990.0 0.00025536
10010.0 0.00024876
10030.0 0.00025062
10050.0 0.00025246
10070.0 0.00025429
10090.0 0.00025619
10110.0 0.00025804
10130.0 0.0002599
10150.0 0.00026177
10170.0 0.00026362
10190.0 0.00026544
10210.0 0.00026728
10230.0 0.00026912
10250.0 0.00027091
10270.0 0.00027269
10290.0 0.00027449
10310.0 0.00027624
10330.0 0.00027795
10350.0 0.00027966
10370.0 0.00028136
10390.0 0.00028301
10410.0 0.00028463
10430.0 0.00028626
10450.0 0.00028782
10470.0 0.00028935
10490.0 0.00029086
10510.0 0.00029234
10530.0 0.00029374
10550.0 0.00029512
10570.0 0.00029649
10590.0 0.00029779
10610.0 0.00029904
10630.0 0.00030027
10650.0 0.00030145
10670.0 0.00030255
10690.0 0.00030361
10710.0 0.00030465
10730.0 0.00030561
10750.0 0.0003065
10770.0 0.00030738
10790.0 0.0003082
10810.0 0.00030892
10830.0 0.0003096
10850.0 0.00031023
10870.0 0.00031069
10890.0 0.00031097
10910.0 0.00031103
10930.0 0.00031067
10950.0 0.00030964
10970.0 0.00030785
10990.0 0.00030522
11010.0 0.0002945
11030.0 0.00028956
11050.0 0.00028376
11070.0 0.00027695
11090.0 0.00026881
11110.0 0.00026045
11130.0 0.00025176
11150.0 0.00024246
11170.0 0.00023296
11190.0 0.0002239
11210.0 0.0002147
11230.0 0.00020549
11250.0 0.00019694
11270.0 0.00018896
11290.0 0.00018122
11310.0 0.00017412
11330.0 0.00016807
11350.0 0.00016249
11370.0 0.00015745
11390.0 0.00015313
11410.0 0.00014934
11430.0 0.00014574
11450.0 0.00014249
11470.0 0.00013949
11490.0 0.00013646
11510.0 0.00013329
11530.0 0.00013011
11550.0 0.00012678
11570.0 0.0001231
11590.0 0.00011923
11610.0 0.00011529
11630.0 0.00011105
11650.0 0.00010661
11670.0 0.00010233
11690.0 9.8103e-05
11710.0 9.3858e-05
11730.0 8.9853e-05
11750.0 8.6233e-05
11770.0 8.2763e-05
11790.0 7.9578e-05
11810.0 7.6812e-05
11830.0 7.4357e-05
11850.0 7.2097e-05
11870.0 7.0173e-05
11890.0 6.8518e-05
11910.0 6.6986e-05
11930.0 6.5563e-05
11950.0 6.4257e-05
11970.0 6.2968e-05
11990.0 6.1621e-05
12010.0 6.0264e-05
12030.0 5.8879e-05
12050.0 5.74e-05
12070.0 5.5837e-05
12090.0 5.4325e-05
12110.0 5.2793e-05
12130.0 5.1259e-05
12150.0 4.9831e-05
12170.0 4.8551e-05
12190.0 4.7372e-05
12210.0 4.6417e-05
12230.0 4.5723e-05
12250.0 4.5281e-05
12270.0 4.5127e-05
12290.0 4.5268e-05
12310.0 4.567e-05
12330.0 4.6376e-05
12350.0 4.7345e-05
12370.0 4.8491e-05
12390.0 4.9839e-05
12410.0 5.143e-05
12430.0 5.3025e-05
12450.0 5.4646e-05
12470.0 5.6333e-05
12490.0 5.7973e-05
12510.0 5.9442e-05
12530.0 6.0841e-05
12550.0 6.2113e-05
12570.0 6.3143e-05
12590.0 6.3954e-05
12610.0 6.4581e-05
12630.0 6.496e-05
12650.0 6.5074e-05
12670.0 6.4982e-05
12690.0 6.4671e-05
12710.0 6.4163e-05
12730.0 6.3486e-05
12750.0 6.2622e-05
12770.0 6.1625e-05
12790.0 6.0535e-05
12810.0 5.933e-05
12830.0 5.8014e-05
12850.0 5.6679e-05
12870.0 5.5297e-05
12890.0 5.3827e-05
12910.0 5.2333e-05
12930.0 5.0847e-05
12950.0 4.9285e-05
12970.0 4.7667e-05
12990.0 4.6097e-05
13010.0 4.4512e-05
13030.0 4.2877e-05
13050.0 4.1269e-05
13070.0 3.973e-05
13090.0 3.8166e-05
13110.0 3.6636e-05
13130.0 3.5213e-05
13150.0 3.3864e-05
13170.0 3.2555e-05
13190.0 3.1402e-05
13210.0 3.0403e-05
13230.0 2.9516e-05
13250.0 2.8782e-05
13270.0 2.8231e-05
13290.0 2.7835e-05
13310.0 2.7604e-05
13330.0 2.7548e-05
13350.0 2.7645e-05
13370.0 2.79e-05
13390.0 2.8307e-05
13410.0 2.8797e-05
13430.0 2.9391e-05
13450.0 3.0082e-05
13470.0 3.0806e-05
13490.0 3.1534e-05
13510.0 3.2321e-05
13530.0 3.3082e-05
13550.0 3.3775e-05
13570.0 3.443e-05
13590.0 3.5041e-05
13610.0 3.5555e-05
13630.0 3.5976e-05
13650.0 3.6336e-05
13670.0 3.6604e-05
13690.0 3.6776e-05
13710.0 3.6871e-05
13730.0 3.6891e-05
13750.0 3.6829e-05
13770.0 3.6701e-05
13790.0 3.651e-05
13810.0 3.626e-05
13830.0 3.5969e-05
13850.0 3.5625e-05
13870.0 3.5233e-05
13890.0 3.4813e-05
13910.0 3.4364e-05
13930.0 3.387e-05
13950.0 3.3352e-05
13970.0 3.2837e-05
13990.0 3.2295e-05
14010.0 3.1736e-05
14030.0 3.1192e-05
14050.0 3.0658e-05
14070.0 3.0111e-05
14090.0 2.9601e-05
14110.0 2.9134e-05
14130.0 2.8695e-05
14150.0 2.8298e-05
14170.0 2.797e-05
14190.0 2.7701e-05
14210.0 2.749e-05
14230.0 2.7351e-05
14250.0 2.7283e-05
14270.0 2.7286e-05
14290.0 2.7364e-05
14310.0 2.7504e-05
14330.0 2.7705e-05
14350.0 2.7971e-05
14370.0 2.8283e-05
14390.0 2.8623e-05
14410.0 2.9014e-05
14430.0 2.9435e-05
14450.0 2.9862e-05
14470.0 3.0306e-05
14490.0 3.0787e-05
14510.0 3.1261e-05
14530.0 3.1733e-05
14550.0 3.2239e-05
14570.0 3.277e-05
14590.0 3.3307e-05
14610.0 3.389e-05
14630.0 3.4545e-05
14650.0 3.5235e-05
14670.0 3.5973e-05
14690.0 3.6806e-05
14710.0 3.7729e-05
14730.0 3.8668e-05
14750.0 3.9695e-05
14770.0 4.0815e-05
14790.0 4.1959e-05
14810.0 4.3113e-05
14830.0 4.4368e-05
14850.0 4.5608e-05
14870.0 4.6786e-05
14890.0 4.7945e-05
14910.0 4.9067e-05
14930.0 5.0056e-05
14950.0 5.0911e-05
14970.0 5.1662e-05
14990.0 5.2245e-05
15010.0 5.2658e-05
15030.0 5.2935e-05
15050.0 5.3089e-05
15070.0 5.3137e-05
15090.0 5.3118e-05
15110.0 5.3053e-05
15130.0 5.2961e-05
15150.0 5.286e-05
15170.0 5.2748e-05
15190.0 5.2631e-05
15210.0 5.2518e-05
15230.0 5.2406e-05
15250.0 5.2289e-05
15270.0 5.2174e-05
15290.0 5.2067e-05
15310.0 5.1955e-05
15330.0 5.1842e-05
15350.0 5.1734e-05
15370.0 5.1627e-05
15390.0 5.1513e-05
15410.0 5.1403e-05
15430.0 5.1298e-05
15450.0 5.1189e-05
15470.0 5.1077e-05
15490.0 5.0972e-05
15510.0 5.0867e-05
15530.0 5.0757e-05
15550.0 5.065e-05
15570.0 5.0547e-05
15590.0 5.0437e-05
15610.0 5.0326e-05
15630.0 5.0222e-05
15650.0 5.0116e-05
15670.0 5.0006e-05
15690.0 4.9898e-05
15710.0 4.9795e-05
15730.0 4.9685e-05
15750.0 4.9575e-05
15770.0 4.9469e-05
15790.0 4.9362e-05
15810.0 4.9247e-05
15830.0 4.9138e-05
15850.0 4.9032e-05
15870.0 4.892e-05
15890.0 4.8807e-05
15910.0 4.87e-05
15930.0 4.8589e-05
15950.0 4.8472e-05
15970.0 4.836e-05
15990.0 4.8249e-05
16010.0 4.8132e-05
16030.0 4.8014e-05
16050.0 4.7903e-05
16070.0 4.7788e-05
16090.0 4.7668e-05
16110.0 4.7552e-05
16130.0 4.7437e-05
16150.0 4.7313e-05
16170.0 4.7191e-05
16190.0 4.7073e-05
16210.0 4.6952e-05
16230.0 4.6826e-05
16250.0 4.6704e-05
16270.0 4.6584e-05
16290.0 4.6456e-05
16310.0 4.6329e-05
16330.0 4.6206e-05
16350.0 4.6078e-05
16370.0 4.5942e-05
16390.0 4.5816e-05
16410.0 4.5688e-05
16430.0 4.5554e-05
16450.0 4.542e-05
16470.0 4.5292e-05
16490.0 4.5156e-05
16510.0 4.5017e-05
16530.0 4.4882e-05
16550.0 4.4747e-05
16570.0 4.4605e-05
16590.0 4.4463e-05
16610.0 4.4328e-05
16630.0 4.4186e-05
16650.0 4.4041e-05
16670.0 4.39e-05
16690.0 4.3759e-05
16710.0 4.3608e-05
16730.0 4.3461e-05
16750.0 4.3317e-05
16770.0 4.3167e-05
16790.0 4.3014e-05
16810.0 4.2867e-05
16830.0 4.2718e-05
16850.0 4.2563e-05
16870.0 4.2409e-05
16890.0 4.2259e-05
16910.0 4.2101e-05
16930.0 4.1941e-05
16950.0 4.1787e-05
16970.0 4.163e-05
16990.0 4.1468e-05
17010.0 4.1309e-05
17030.0 4.1152e-05
17050.0 4.0988e-05
17070.0 4.0824e-05
17090.0 4.0663e-05
17110.0 4.05e-05
17130.0 4.0329e-05
17150.0 4.0164e-05
17170.0 4.0001e-05
17190.0 3.9831e-05
17210.0 3.9661e-05
17230.0 3.9496e-05
17250.0 3.9326e-05
17270.0 3.9151e-05
17290.0 3.8981e-05
17310.0 3.8811e-05
17330.0 3.8635e-05
17350.0 3.8458e-05
17370.0 3.8289e-05
17390.0 3.8114e-05
17410.0 3.7936e-05
17430.0 3.7761e-05
17450.0 3.7588e-05
17470.0 3.7405e-05
17490.0 3.7225e-05
17510.0 3.705e-05
17530.0 3.6871e-05
17550.0 3.6687e-05
17570.0 3.6509e-05
17590.0 3.6332e-05
17610.0 3.6147e-05
17630.0 3.5965e-05
17650.0 3.5786e-05
17670.0 3.5603e-05
17690.0 3.5413e-05
17710.0 3.5233e-05
17730.0 3.5051e-05
17750.0 3.4864e-05
17770.0 3.4679e-05
17790.0 3.4499e-05
17810.0 3.4312e-05
17830.0 3.4123e-05
17850.0 3.3939e-05
17870.0 3.3755e-05
17890.0 3.3564e-05
17910.0 3.3376e-05
17930.0 3.3194e-05
17950.0 3.3006e-05
17970.0 3.2817e-05
17990.0 3.2632e-05
18010.0 3.2447e-05
18030.0 3.2254e-05
18050.0 3.2066e-05
18070.0 3.1881e-05
18090.0 3.1692e-05
18110.0 3.1501e-05
18130.0 3.1316e-05
18150.0 3.113e-05
18170.0 3.0939e-05
18190.0 3.0751e-05
18210.0 3.0567e-05
18230.0 3.0376e-05
18250.0 3.0184e-05
18270.0 3e-05
18290.0 2.9813e-05
18310.0 2.9622e-05
18330.0 2.9436e-05
18350.0 2.9252e-05
18370.0 2.9062e-05
18390.0 2.8873e-05
18410.0 2.8689e-05
18430.0 2.8503e-05
18450.0 2.8311e-05
18470.0 2.8126e-05
18490.0 2.7943e-05
18510.0 2.7756e-05
18530.0 2.7569e-05
18550.0 2.7387e-05
18570.0 2.7202e-05
18590.0 2.7013e-05
18610.0 2.6829e-05
18630.0 2.6648e-05
18650.0 2.6461e-05
18670.0 2.6275e-05
18690.0 2.6096e-05
18710.0 2.5914e-05
18730.0 2.5729e-05
18750.0 2.5548e-05
18770.0 2.537e-05
18790.0 2.5183e-05
18810.0 2.5001e-05
18830.0 2.4824e-05
18850.0 2.4643e-05
18870.0 2.4461e-05
18890.0 2.4284e-05
18910.0 2.4108e-05
18930.0 2.3927e-05
18950.0 2.3748e-05
18970.0 2.3574e-05
18990.0 2.3396e-05
19010.0 2.3214e-05
19030.0 2.3042e-05
19050.0 2.2868e-05
19070.0 2.2691e-05
19090.0 2.2516e-05
19110.0 2.2347e-05
19130.0 2.2172e-05
19150.0 2.1996e-05
19170.0 2.1826e-05
19190.0 2.1656e-05
19210.0 2.1481e-05
19230.0 2.1309e-05
19250.0 2.1143e-05
19270.0 2.0973e-05
19290.0 2.0802e-05
19310.0 2.0637e-05
19330.0 2.0471e-05
19350.0 2.0299e-05
19370.0 2.0132e-05
19390.0 1.9969e-05
19410.0 1.9802e-05
19430.0 1.9635e-05
19450.0 1.9474e-05
19470.0 1.9312e-05
19490.0 1.9146e-05
19510.0 1.8984e-05
19530.0 1.8825e-05
19550.0 1.8661e-05
19570.0 1.8498e-05
19590.0 1.8341e-05
19610.0 1.8182e-05
19630.0 1.8021e-05
19650.0 1.7864e-05
19670.0 1.771e-05
19690.0 1.755e-05
19710.0 1.7392e-05
19730.0 1.7239e-05
19750.0 1.7084e-05
19770.0 1.6926e-05
19790.0 1.6773e-05
19810.0 1.6622e-05
19830.0 1.6468e-05
19850.0 1.6314e-05
19870.0 1.6163e-05
19890.0 1.6007e-05
19910.0 1.5841e-05
19930.0 1.5673e-05
19950.0 1.5493e-05
19970.0 1.5288e-05
19990.0 1.506e-05
20010.0 1.511e-05
20030.0 1.4828e-05
20050.0 1.4516e-05
20070.0 1.4192e-05
20090.0 1.3858e-05
20110.0 1.3496e-05
20130.0 1.3142e-05
20150.0 1.2802e-05
20170.0 1.2461e-05
20190.0 1.2124e-05
20210.0 1.1814e-05
20230.0 1.1518e-05
20250.0 1.1228e-05
20270.0 1.0963e-05
20290.0 1.0725e-05
20310.0 1.0503e-05
20330.0 1.0299e-05
20350.0 1.0132e-05
20370.0 9.9876e-06
20390.0 9.8648e-06
20410.0 9.7698e-06
20430.0 9.7011e-06
20450.0 9.6541e-06
20470.0 9.632e-06
20490.0 9.632e-06
20510.0 9.6521e-06
20530.0 9.6934e-06
20550.0 9.7509e-06
20570.0 9.8202e-06
20590.0 9.9059e-06
20610.0 1.0004e-05
20630.0 1.0106e-05
20650.0 1.0217e-05
20670.0 1.0341e-05
20690.0 1.0464e-05
20710.0 1.0586e-05
20730.0 1.0716e-05
20750.0 1.0848e-05
20770.0 1.0974e-05
20790.0 1.1103e-05
20810.0 1.1237e-05
20830.0 1.1368e-05
20850.0 1.1497e-05
20870.0 1.1635e-05
20890.0 1.1774e-05
20910.0 1.1908e-05
20930.0 1.2047e-05
20950.0 1.2192e-05
20970.0 1.2334e-05
20990.0 1.2475e-05
21010.0 1.2625e-05
21030.0 1.2773e-05
21050.0 1.2915e-05
21070.0 1.3057e-05
21090.0 1.3201e-05
21110.0 1.3333e-05
21130.0 1.3457e-05
21150.0 1.3579e-05
21170.0 1.3691e-05
21190.0 1.3788e-05
21210.0 1.3879e-05
21230.0 1.396e-05
21250.0 1.4023e-05
21270.0 1.4072e-05
21290.0 1.4108e-05
21310.0 1.4127e-05
21330.0 1.4128e-05
21350.0 1.4112e-05
21370.0 1.4076e-05
21390.0 1.4021e-05
21410.0 1.3948e-05
21430.0 1.3849e-05
21450.0 1.3731e-05
21470.0 1.3596e-05
21490.0 1.3439e-05
21510.0 1.326e-05
21530.0 1.3071e-05
21550.0 1.2868e-05
21570.0 1.2644e-05
21590.0 1.2415e-05
21610.0 1.2187e-05
21630.0 1.195e-05
21650.0 1.1708e-05
21670.0 1.1488e-05
21690.0 1.1274e-05
21710.0 1.1068e-05
21730.0 1.0883e-05
21750.0 1.0723e-05
21770.0 1.0578e-05
21790.0 1.0459e-05
21810.0 1.0371e-05
21830.0 1.0309e-05
21850.0 1.0274e-05
21870.0 1.027e-05
21890.0 1.0292e-05
21910.0 1.0341e-05
21930.0 1.0418e-05
21950.0 1.0515e-05
21970.0 1.0636e-05
21990.0 1.0786e-05
22010.0 1.0947e-05
22030.0 1.1122e-05
22050.0 1.1317e-05
22070.0 1.1524e-05
22090.0 1.173e-05
22110.0 1.1948e-05
22130.0 1.2176e-05
22150.0 1.2398e-05
22170.0 1.2615e-05
22190.0 1.2838e-05
22210.0 1.3052e-05
22230.0 1.3245e-05
22250.0 1.3431e-05
22270.0 1.3605e-05
22290.0 1.3755e-05
22310.0 1.3885e-05
22330.0 1.3999e-05
22350.0 1.4086e-05
22370.0 1.4146e-05
22390.0 1.4181e-05
22410.0 1.4187e-05
22430.0 1.4165e-05
22450.0 1.4115e-05
22470.0 1.4035e-05
22490.0 1.3927e-05
22510.0 1.3796e-05
22530.0 1.3632e-05
22550.0 1.3437e-05
22570.0 1.3226e-05
22590.0 1.2991e-05
22610.0 1.2725e-05
