#lamb flux
1010.0 7.6285e-08
1030.0 8.3629e-08
1050.0 9.2076e-08
1070.0 1.0159e-07
1090.0 1.1239e-07
1110.0 1.2346e-07
1130.0 1.3461e-07
1150.0 1.4629e-07
1170.0 1.5834e-07
1190.0 1.6977e-07
1210.0 1.8134e-07
1230.0 1.9331e-07
1250.0 2.0503e-07
1270.0 2.1641e-07
1290.0 2.2844e-07
1310.0 2.4046e-07
1330.0 2.5198e-07
1350.0 2.6364e-07
1370.0 2.7567e-07
1390.0 2.874e-07
1410.0 2.9878e-07
1430.0 3.1068e-07
1450.0 3.2258e-07
1470.0 3.3407e-07
1490.0 3.4569e-07
1510.0 3.5796e-07
1530.0 3.6958e-07
1550.0 3.8104e-07
1570.0 3.929e-07
1590.0 4.0476e-07
1610.0 4.1609e-07
1630.0 4.2776e-07
1650.0 4.3974e-07
1670.0 4.5131e-07
1690.0 4.6272e-07
1710.0 4.7457e-07
1730.0 4.8647e-07
1750.0 4.9763e-07
1770.0 5.0911e-07
1790.0 5.208e-07
1810.0 5.3208e-07
1830.0 5.4314e-07
1850.0 5.5484e-07
1870.0 5.662e-07
1890.0 5.7711e-07
1910.0 5.882e-07
1930.0 5.995e-07
1950.0 6.1019e-07
1970.0 6.2066e-07
1990.0 6.3146e-07
2010.0 6.4196e-07
2030.0 6.5194e-07
2050.0 6.6213e-07
2070.0 6.7245e-07
2090.0 6.8196e-07
2110.0 6.9126e-07
2130.0 7.007e-07
2150.0 7.0972e-07
2170.0 7.1803e-07
2190.0 7.2651e-07
2210.0 7.348e-07
2230.0 7.4238e-07
2250.0 7.4961e-07
2270.0 7.5703e-07
2290.0 7.6378e-07
2310.0 7.6978e-07
2330.0 7.7585e-07
2350.0 7.8183e-07
2370.0 7.8739e-07
2390.0 7.9346e-07
2410.0 8.0121e-07
2430.0 8.1055e-07
2450.0 8.2243e-07
2470.0 8.3894e-07
2490.0 8.6102e-07
2510.0 8.8668e-07
2530.0 9.1885e-07
2550.0 9.6105e-07
2570.0 1.0154e-06
2590.0 1.0879e-06
2610.0 1.1986e-06
2630.0 1.3559e-06
2650.0 1.5576e-06
2670.0 1.813e-06
2690.0 2.1189e-06
2710.0 2.4346e-06
2730.0 2.7348e-06
2750.0 3.0192e-06
2770.0 3.2527e-06
2790.0 3.4231e-06
2810.0 3.5443e-06
2830.0 3.6252e-06
2850.0 3.6637e-06
2870.0 3.6784e-06
2890.0 3.6796e-06
2910.0 3.6711e-06
2930.0 3.6564e-06
2950.0 3.6407e-06
2970.0 3.6249e-06
2990.0 3.6085e-06
3010.0 0.00011512
3030.0 0.00011465
3050.0 0.00011418
3070.0 0.00011365
3090.0 0.00011306
3110.0 0.00011229
3130.0 0.00011121
3150.0 0.00010971
3170.0 0.00010757
3190.0 0.00010484
3210.0 0.00010169
3230.0 9.8257e-05
3250.0 9.4747e-05
3270.0 9.2116e-05
3290.0 9.011e-05
3310.0 8.9644e-05
3330.0 9.0207e-05
3350.0 9.1777e-05
3370.0 9.4339e-05
3390.0 9.7765e-05
3410.0 0.00010161
3430.0 0.000106
3450.0 0.00011112
3470.0 0.00011679
3490.0 0.00012288
3510.0 0.00012983
3530.0 0.00013743
3550.0 0.00014559
3570.0 0.0001546
3590.0 0.00016467
3610.0 0.00017591
3630.0 0.00018708
3650.0 0.00019893
3670.0 0.0002096
3690.0 0.00021753
3710.0 0.0002215
3730.0 0.00021911
3750.0 0.00021053
3770.0 0.00021536
3790.0 0.00021039
3810.0 0.0001622
3830.0 0.00015582
3850.0 0.00022966
3870.0 0.00022163
3890.0 0.0001677
3910.0 0.00016301
3930.0 0.00020817
3950.0 0.0002491
3970.0 0.00028314
3990.0 0.00019477
4010.0 0.00036446
4030.0 0.00035159
4050.0 0.00037097
4070.0 0.00042067
4090.0 0.00039851
4110.0 0.00035146
4130.0 0.00043324
4150.0 0.00058087
4170.0 0.00045976
4190.0 0.00040541
4210.0 0.00045729
4230.0 0.00056738
4250.0 0.00067845
4270.0 0.00073772
4290.0 0.00065519
4310.0 0.00060501
4330.0 0.00059874
4350.0 0.00076786
4370.0 0.00093463
4390.0 0.00074158
4410.0 0.00041234
4430.0 0.00029113
4450.0 0.00027201
4470.0 0.00016777
4490.0 0.00029727
4510.0 0.00064112
4530.0 0.00078233
4550.0 0.00073734
4570.0 0.00065951
4590.0 0.00070556
4610.0 0.0014043
4630.0 0.0019717
4650.0 0.0018582
4670.0 0.001632
4690.0 0.0016783
4710.0 0.001757
4730.0 0.0014308
4750.0 0.0009203
4770.0 0.00063065
4790.0 0.00070599
4810.0 0.00074458
4830.0 0.00073809
4850.0 0.00080209
4870.0 0.0010627
4890.0 0.0012313
4910.0 0.00095186
4930.0 0.00092515
4950.0 0.0010679
4970.0 0.001427
4990.0 0.0019256
5010.0 0.0022226
5030.0 0.0017666
5050.0 0.0010726
5070.0 0.00076477
5090.0 0.00058225
5110.0 0.00054297
5130.0 0.00065177
5150.0 0.00062685
5170.0 0.0005877
5190.0 0.00052173
5210.0 0.00058106
5230.0 0.00072922
5250.0 0.00085428
5270.0 0.00078553
5290.0 0.000848
5310.0 0.0011472
5330.0 0.0012247
5350.0 0.001206
5370.0 0.0013625
5390.0 0.001704
5410.0 0.0014478
5430.0 0.001098
5450.0 0.0011133
5470.0 0.0013049
5490.0 0.0016406
5510.0 0.0019996
5530.0 0.0023194
5550.0 0.0020861
5570.0 0.0018668
5590.0 0.0015288
5610.0 0.0015606
5630.0 0.001765
5650.0 0.0016293
5670.0 0.0014984
5690.0 0.0012048
5710.0 0.001242
5730.0 0.0012116
5750.0 0.00064438
5770.0 0.00045971
5790.0 0.00057495
5810.0 0.0006069
5830.0 0.00095879
5850.0 0.0012561
5870.0 0.0013427
5890.0 0.0012722
5910.0 0.0012351
5930.0 0.0011925
5950.0 0.0012332
5970.0 0.0015376
5990.0 0.0012535
6010.0 0.00095806
6030.0 0.00077825
6050.0 0.00069539
6070.0 0.00084047
6090.0 0.00095065
6110.0 0.00096396
6130.0 0.00087916
6150.0 0.00068787
6170.0 0.00053639
6190.0 0.00066408
6210.0 0.0010624
6230.0 0.0015716
6250.0 0.0016855
6270.0 0.0012776
6290.0 0.0010944
6310.0 0.00083388
6330.0 0.00060601
6350.0 0.00059966
6370.0 0.00062981
6390.0 0.00075781
6410.0 0.00098098
6430.0 0.0011837
6450.0 0.0014614
6470.0 0.0015397
6490.0 0.0018476
6510.0 0.002074
6530.0 0.0021132
6550.0 0.0019477
6570.0 0.00157
6590.0 0.0015079
6610.0 0.0012466
6630.0 0.0013052
6650.0 0.0012662
6670.0 0.0011053
6690.0 0.00085485
6710.0 0.00083743
6730.0 0.00036131
6750.0 0.00049114
6770.0 0.00078387
6790.0 0.0010472
6810.0 0.00074049
6830.0 0.00075597
6850.0 0.00062751
6870.0 0.00059138
6890.0 0.00049613
6910.0 0.00060333
6930.0 0.00056732
6950.0 0.00068645
6970.0 0.00070833
6990.0 0.00078427
7010.0 0.00076087
7030.0 0.00086977
7050.0 0.00074774
7070.0 0.00062011
7090.0 0.00066435
7110.0 0.00070031
7130.0 0.00080729
7150.0 0.0009212
7170.0 0.0010318
7190.0 0.001092
7210.0 0.00096263
7230.0 0.00097264
7250.0 0.0010473
7270.0 0.0011305
7290.0 0.0013888
7310.0 0.0014525
7330.0 0.0013442
7350.0 0.0012008
7370.0 0.00087679
7390.0 0.00091551
7410.0 0.0011407
7430.0 0.0013011
7450.0 0.0013995
7470.0 0.0012794
7490.0 0.0010323
7510.0 0.0017087
7530.0 0.0015372
7550.0 0.0014449
7570.0 0.00096725
7590.0 0.00040791
7610.0 0.0002796
7630.0 0.00044185
7650.0 0.0006023
7670.0 0.00098077
7690.0 0.0010977
7710.0 0.00097823
7730.0 0.00096115
7750.0 0.0012773
7770.0 0.0013117
7790.0 0.001202
7810.0 0.00096558
7830.0 0.0010473
7850.0 0.0011566
7870.0 0.0011372
7890.0 0.00088596
7910.0 0.00058411
7930.0 0.00060627
7950.0 0.00054621
7970.0 0.00045647
7990.0 0.00040832
8010.0 0.00027767
8030.0 0.00025672
8050.0 0.00027659
8070.0 0.0003072
8090.0 0.0003691
8110.0 0.00034565
8130.0 0.00021241
8150.0 0.00021689
8170.0 0.00012842
8190.0 8.4109e-05
8210.0 0.00019375
8230.0 0.00023153
8250.0 0.00010007
8270.0 8.0197e-05
8290.0 0.00013898
8310.0 0.00011932
8330.0 7.3021e-05
8350.0 5.8714e-05
8370.0 1.6646e-05
8390.0 6.3233e-05
8410.0 7.4066e-05
8430.0 9.2223e-05
8450.0 0.00010358
8470.0 0.0001691
8490.0 0.0001385
8510.0 0.00010799
8530.0 5.6622e-05
8550.0 0.00018714
8570.0 0.00029023
8590.0 0.00020637
8610.0 0.00030647
8630.0 0.00033323
8650.0 0.00018467
8670.0 0.00026653
8690.0 0.00040876
8710.0 0.0003527
8730.0 0.00037902
8750.0 0.00030001
8770.0 0.00026783
8790.0 0.00029671
8810.0 0.0003202
8830.0 0.00018091
8850.0 8.274e-05
8870.0 5.9966e-05
8890.0 0.00013988
8910.0 0.00021781
8930.0 0.00028552
8950.0 0.00032093
8970.0 0.00031005
8990.0 0.00023612
9010.0 0.0001866
9030.0 0.00014279
9050.0 0.00014887
9070.0 0.00015499
9090.0 0.00015992
9110.0 0.00016581
9130.0 0.00017007
9150.0 0.00017312
9170.0 0.00017637
9190.0 0.00017984
9210.0 0.00018349
9230.0 0.00018735
9250.0 0.00019125
9270.0 0.00019529
9290.0 0.00019942
9310.0 0.00020356
9330.0 0.00020776
9350.0 0.0002121
9370.0 0.00021646
9390.0 0.00022085
9410.0 0.00022534
9430.0 0.00022996
9450.0 0.00023454
9470.0 0.0002392
9490.0 0.00024398
9510.0 0.0002488
9530.0 0.00025363
9550.0 0.00025863
9570.0 0.00026369
9590.0 0.00026876
9610.0 0.00027391
9630.0 0.00027918
9650.0 0.0002845
9670.0 0.0002898
9690.0 0.00029525
9710.0 0.00030078
9730.0 0.00030631
9750.0 0.00031191
9770.0 0.00031769
9790.0 0.00032344
9810.0 0.00032922
9830.0 0.00033512
9850.0 0.00034109
9870.0 0.00034704
9890.0 0.00035307
9910.0 0.00035922
9930.0 0.00036537
9950.0 0.00037154
9970.0 0.00037783
9990.0 0.00038418
10010.0 0.00034603
10030.0 0.00035163
10050.0 0.0003573
10070.0 0.0003629
10090.0 0.00036857
10110.0 0.00037436
10130.0 0.00038014
10150.0 0.00038588
10170.0 0.00039166
10190.0 0.00039752
10210.0 0.0004033
10230.0 0.00040907
10250.0 0.00041491
10270.0 0.00042074
10290.0 0.00042649
10310.0 0.00043231
10330.0 0.00043816
10350.0 0.00044392
10370.0 0.00044965
10390.0 0.00045543
10410.0 0.00046116
10430.0 0.00046679
10450.0 0.00047245
10470.0 0.0004781
10490.0 0.00048366
10510.0 0.00048915
10530.0 0.00049471
10550.0 0.00050017
10570.0 0.00050551
10590.0 0.00051084
10610.0 0.00051615
10630.0 0.00052131
10650.0 0.00052641
10670.0 0.00053153
10690.0 0.00053652
10710.0 0.00054139
10730.0 0.00054624
10750.0 0.00055106
10770.0 0.00055567
10790.0 0.00056021
10810.0 0.00056471
10830.0 0.00056905
10850.0 0.00057318
10870.0 0.00057718
10890.0 0.00058078
10910.0 0.00058372
10930.0 0.00058577
10950.0 0.0005864
10970.0 0.00058518
10990.0 0.00058191
11010.0 0.00059029
11030.0 0.00058138
11050.0 0.00057021
11070.0 0.00055663
11090.0 0.00054017
11110.0 0.00052307
11130.0 0.00050522
11150.0 0.00048604
11170.0 0.00046635
11190.0 0.00044733
11210.0 0.00042781
11230.0 0.00040795
11250.0 0.00038908
11270.0 0.00037107
11290.0 0.00035315
11310.0 0.00033624
11330.0 0.00032135
11350.0 0.00030728
11370.0 0.00029425
11390.0 0.00028287
11410.0 0.0002728
11430.0 0.00026331
11450.0 0.00025494
11470.0 0.00024751
11490.0 0.00024044
11510.0 0.00023351
11530.0 0.00022695
11550.0 0.0002204
11570.0 0.00021345
11590.0 0.00020631
11610.0 0.00019909
11630.0 0.00019136
11650.0 0.0001832
11670.0 0.00017522
11690.0 0.0001672
11710.0 0.00015899
11730.0 0.00015107
11750.0 0.00014373
11770.0 0.00013653
11790.0 0.00012977
11810.0 0.00012375
11830.0 0.0001183
11850.0 0.00011322
11870.0 0.00010887
11890.0 0.00010514
11910.0 0.00010178
11930.0 9.8788e-05
11950.0 9.6194e-05
11970.0 9.3806e-05
11990.0 9.1507e-05
12010.0 8.9343e-05
12030.0 8.7247e-05
12050.0 8.5102e-05
12070.0 8.2898e-05
12090.0 8.0768e-05
12110.0 7.861e-05
12130.0 7.6434e-05
12150.0 7.437e-05
12170.0 7.2472e-05
12190.0 7.0688e-05
12210.0 6.9184e-05
12230.0 6.8029e-05
12250.0 6.7225e-05
12270.0 6.6843e-05
12290.0 6.6908e-05
12310.0 6.7385e-05
12330.0 6.8361e-05
12350.0 6.9788e-05
12370.0 7.1541e-05
12390.0 7.3675e-05
12410.0 7.6286e-05
12430.0 7.897e-05
12450.0 8.1775e-05
12470.0 8.4789e-05
12490.0 8.7816e-05
12510.0 9.0623e-05
12530.0 9.3407e-05
12550.0 9.607e-05
12570.0 9.8362e-05
12590.0 0.00010032
12610.0 0.00010201
12630.0 0.00010328
12650.0 0.00010403
12670.0 0.00010439
12690.0 0.00010431
12710.0 0.00010377
12730.0 0.00010282
12750.0 0.00010145
12770.0 9.9699e-05
12790.0 9.7666e-05
12810.0 9.5322e-05
12830.0 9.2682e-05
12850.0 8.995e-05
12870.0 8.7096e-05
12890.0 8.4057e-05
12910.0 8.099e-05
12930.0 7.7979e-05
12950.0 7.4869e-05
12970.0 7.1724e-05
12990.0 6.8745e-05
13010.0 6.5809e-05
13030.0 6.2849e-05
13050.0 5.9999e-05
13070.0 5.7313e-05
13090.0 5.4616e-05
13110.0 5.1992e-05
13130.0 4.9549e-05
13150.0 4.7216e-05
13170.0 4.4914e-05
13190.0 4.2832e-05
13210.0 4.0965e-05
13230.0 3.9224e-05
13250.0 3.7679e-05
13270.0 3.64e-05
13290.0 3.5333e-05
13310.0 3.4494e-05
13330.0 3.3943e-05
13350.0 3.3662e-05
13370.0 3.3656e-05
13390.0 3.3945e-05
13410.0 3.4465e-05
13430.0 3.5236e-05
13450.0 3.6267e-05
13470.0 3.7465e-05
13490.0 3.8776e-05
13510.0 4.0306e-05
13530.0 4.1896e-05
13550.0 4.3449e-05
13570.0 4.5012e-05
13590.0 4.6572e-05
13610.0 4.7984e-05
13630.0 4.9239e-05
13650.0 5.0413e-05
13670.0 5.141e-05
13690.0 5.2198e-05
13710.0 5.2827e-05
13730.0 5.3303e-05
13750.0 5.3562e-05
13770.0 5.3659e-05
13790.0 5.3604e-05
13810.0 5.3394e-05
13830.0 5.3056e-05
13850.0 5.2586e-05
13870.0 5.1987e-05
13890.0 5.1295e-05
13910.0 5.0516e-05
13930.0 4.962e-05
13950.0 4.8647e-05
13970.0 4.7657e-05
13990.0 4.6588e-05
14010.0 4.5461e-05
14030.0 4.4344e-05
14050.0 4.3225e-05
14070.0 4.2053e-05
14090.0 4.0935e-05
14110.0 3.9885e-05
14130.0 3.887e-05
14150.0 3.7913e-05
14170.0 3.7091e-05
14190.0 3.6375e-05
14210.0 3.5758e-05
14230.0 3.5288e-05
14250.0 3.4968e-05
14270.0 3.4786e-05
14290.0 3.4765e-05
14310.0 3.4896e-05
14330.0 3.5171e-05
14350.0 3.5601e-05
14370.0 3.6157e-05
14390.0 3.6806e-05
14410.0 3.7588e-05
14430.0 3.8466e-05
14450.0 3.9384e-05
14470.0 4.0357e-05
14490.0 4.1416e-05
14510.0 4.2456e-05
14530.0 4.3469e-05
14550.0 4.4508e-05
14570.0 4.5534e-05
14590.0 4.6497e-05
14610.0 4.7455e-05
14630.0 4.8427e-05
14650.0 4.9357e-05
14670.0 5.0273e-05
14690.0 5.1236e-05
14710.0 5.2252e-05
14730.0 5.3267e-05
14750.0 5.438e-05
14770.0 5.5622e-05
14790.0 5.6948e-05
14810.0 5.8366e-05
14830.0 6.0014e-05
14850.0 6.1781e-05
14870.0 6.3606e-05
14890.0 6.5555e-05
14910.0 6.7606e-05
14930.0 6.9572e-05
14950.0 7.1409e-05
14970.0 7.3149e-05
14990.0 7.4623e-05
15010.0 7.5774e-05
15030.0 7.6656e-05
15050.0 7.7276e-05
15070.0 7.7639e-05
15090.0 7.7841e-05
15110.0 7.7933e-05
15130.0 7.7955e-05
15150.0 7.7945e-05
15170.0 7.7912e-05
15190.0 7.7869e-05
15210.0 7.783e-05
15230.0 7.7792e-05
15250.0 7.7749e-05
15270.0 7.7708e-05
15290.0 7.7678e-05
15310.0 7.7644e-05
15330.0 7.7608e-05
15350.0 7.758e-05
15370.0 7.7554e-05
15390.0 7.7519e-05
15410.0 7.7491e-05
15430.0 7.7469e-05
15450.0 7.7442e-05
15470.0 7.7413e-05
15490.0 7.7393e-05
15510.0 7.7373e-05
15530.0 7.7347e-05
15550.0 7.7325e-05
15570.0 7.7309e-05
15590.0 7.7285e-05
15610.0 7.7259e-05
15630.0 7.7242e-05
15650.0 7.7224e-05
15670.0 7.72e-05
15690.0 7.718e-05
15710.0 7.7165e-05
15730.0 7.7142e-05
15750.0 7.7119e-05
15770.0 7.7101e-05
15790.0 7.7081e-05
15810.0 7.7052e-05
15830.0 7.703e-05
15850.0 7.7012e-05
15870.0 7.6987e-05
15890.0 7.696e-05
15910.0 7.694e-05
15930.0 7.6915e-05
15950.0 7.6882e-05
15970.0 7.6855e-05
15990.0 7.683e-05
16010.0 7.6796e-05
16030.0 7.676e-05
16050.0 7.6733e-05
16070.0 7.6701e-05
16090.0 7.6662e-05
16110.0 7.6627e-05
16130.0 7.6594e-05
16150.0 7.6548e-05
16170.0 7.6503e-05
16190.0 7.6465e-05
16210.0 7.642e-05
16230.0 7.6369e-05
16250.0 7.6323e-05
16270.0 7.6278e-05
16290.0 7.6222e-05
16310.0 7.6167e-05
16330.0 7.6116e-05
16350.0 7.6058e-05
16370.0 7.5989e-05
16390.0 7.5931e-05
16410.0 7.587e-05
16430.0 7.58e-05
16450.0 7.573e-05
16470.0 7.5667e-05
16490.0 7.5592e-05
16510.0 7.5511e-05
16530.0 7.5436e-05
16550.0 7.5359e-05
16570.0 7.5271e-05
16590.0 7.5183e-05
16610.0 7.5103e-05
16630.0 7.5012e-05
16650.0 7.4916e-05
16670.0 7.4825e-05
16690.0 7.4732e-05
16710.0 7.4624e-05
16730.0 7.4521e-05
16750.0 7.442e-05
16770.0 7.4311e-05
16790.0 7.4195e-05
16810.0 7.4087e-05
16830.0 7.3975e-05
16850.0 7.3852e-05
16870.0 7.3732e-05
16890.0 7.3614e-05
16910.0 7.3483e-05
16930.0 7.3348e-05
16950.0 7.3221e-05
16970.0 7.3089e-05
16990.0 7.2947e-05
17010.0 7.2808e-05
17030.0 7.2673e-05
17050.0 7.2524e-05
17070.0 7.2373e-05
17090.0 7.2227e-05
17110.0 7.2075e-05
17130.0 7.1911e-05
17150.0 7.1754e-05
17170.0 7.1598e-05
17190.0 7.1432e-05
17210.0 7.1264e-05
17230.0 7.1101e-05
17250.0 7.093e-05
17270.0 7.0749e-05
17290.0 7.0574e-05
17310.0 7.0399e-05
17330.0 7.0213e-05
17350.0 7.0024e-05
17370.0 6.9844e-05
17390.0 6.9656e-05
17410.0 6.946e-05
17430.0 6.9268e-05
17450.0 6.9078e-05
17470.0 6.8871e-05
17490.0 6.8667e-05
17510.0 6.8469e-05
17530.0 6.8263e-05
17550.0 6.8049e-05
17570.0 6.7842e-05
17590.0 6.7635e-05
17610.0 6.7415e-05
17630.0 6.7196e-05
17650.0 6.6983e-05
17670.0 6.6761e-05
17690.0 6.6527e-05
17710.0 6.6307e-05
17730.0 6.6083e-05
17750.0 6.5849e-05
17770.0 6.5617e-05
17790.0 6.5391e-05
17810.0 6.5153e-05
17830.0 6.4911e-05
17850.0 6.4675e-05
17870.0 6.4437e-05
17890.0 6.4188e-05
17910.0 6.3941e-05
17930.0 6.3703e-05
17950.0 6.3454e-05
17970.0 6.3201e-05
17990.0 6.2955e-05
18010.0 6.2706e-05
18030.0 6.2443e-05
18050.0 6.2188e-05
18070.0 6.1936e-05
18090.0 6.1675e-05
18110.0 6.141e-05
18130.0 6.1155e-05
18150.0 6.0895e-05
18170.0 6.0627e-05
18190.0 6.0363e-05
18210.0 6.0102e-05
18230.0 5.9831e-05
18250.0 5.9556e-05
18270.0 5.9292e-05
18290.0 5.9023e-05
18310.0 5.8747e-05
18330.0 5.8476e-05
18350.0 5.8209e-05
18370.0 5.793e-05
18390.0 5.7652e-05
18410.0 5.738e-05
18430.0 5.7105e-05
18450.0 5.6819e-05
18470.0 5.6542e-05
18490.0 5.6268e-05
18510.0 5.5986e-05
18530.0 5.5704e-05
18550.0 5.5429e-05
18570.0 5.5147e-05
18590.0 5.4858e-05
18610.0 5.4578e-05
18630.0 5.4299e-05
18650.0 5.4011e-05
18670.0 5.3723e-05
18690.0 5.3446e-05
18710.0 5.3162e-05
18730.0 5.2873e-05
18750.0 5.259e-05
18770.0 5.231e-05
18790.0 5.2016e-05
18810.0 5.1728e-05
18830.0 5.1448e-05
18850.0 5.1161e-05
18870.0 5.087e-05
18890.0 5.0588e-05
18910.0 5.0306e-05
18930.0 5.0015e-05
18950.0 4.9728e-05
18970.0 4.9446e-05
18990.0 4.9159e-05
19010.0 4.8864e-05
19030.0 4.8583e-05
19050.0 4.8301e-05
19070.0 4.8011e-05
19090.0 4.7725e-05
19110.0 4.7447e-05
19130.0 4.7159e-05
19150.0 4.6869e-05
19170.0 4.6588e-05
19190.0 4.6306e-05
19210.0 4.6016e-05
19230.0 4.5731e-05
19250.0 4.5455e-05
19270.0 4.517e-05
19290.0 4.4885e-05
19310.0 4.4608e-05
19330.0 4.4329e-05
19350.0 4.4039e-05
19370.0 4.3759e-05
19390.0 4.3484e-05
19410.0 4.3202e-05
19430.0 4.2918e-05
19450.0 4.2646e-05
19470.0 4.237e-05
19490.0 4.2088e-05
19510.0 4.1812e-05
19530.0 4.1541e-05
19550.0 4.1261e-05
19570.0 4.0981e-05
19590.0 4.0712e-05
19610.0 4.0439e-05
19630.0 4.0162e-05
19650.0 3.9892e-05
19670.0 3.9626e-05
19690.0 3.9351e-05
19710.0 3.9078e-05
19730.0 3.8813e-05
19750.0 3.8545e-05
19770.0 3.827e-05
19790.0 3.8005e-05
19810.0 3.7743e-05
19830.0 3.7474e-05
19850.0 3.7205e-05
19870.0 3.6942e-05
19890.0 3.6665e-05
19910.0 3.6371e-05
19930.0 3.6065e-05
19950.0 3.5731e-05
19970.0 3.5341e-05
19990.0 3.4893e-05
20010.0 3.2699e-05
20030.0 3.2151e-05
20050.0 3.1528e-05
20070.0 3.0867e-05
20090.0 3.0168e-05
20110.0 2.9392e-05
20130.0 2.8616e-05
20150.0 2.7854e-05
20170.0 2.7072e-05
20190.0 2.6287e-05
20210.0 2.5548e-05
20230.0 2.4831e-05
20250.0 2.4116e-05
20270.0 2.3452e-05
20290.0 2.2845e-05
20310.0 2.2266e-05
20330.0 2.1722e-05
20350.0 2.1264e-05
20370.0 2.0851e-05
20390.0 2.0483e-05
20410.0 2.0177e-05
20430.0 1.993e-05
20450.0 1.9725e-05
20470.0 1.9573e-05
20490.0 1.9473e-05
20510.0 1.9416e-05
20530.0 1.9401e-05
20550.0 1.9426e-05
20570.0 1.9482e-05
20590.0 1.9573e-05
20610.0 1.9694e-05
20630.0 1.9833e-05
20650.0 1.9996e-05
20670.0 2.0188e-05
20690.0 2.0387e-05
20710.0 2.0594e-05
20730.0 2.082e-05
20750.0 2.1057e-05
20770.0 2.1288e-05
20790.0 2.153e-05
20810.0 2.1784e-05
20830.0 2.2033e-05
20850.0 2.2279e-05
20870.0 2.2541e-05
20890.0 2.2804e-05
20910.0 2.3053e-05
20930.0 2.331e-05
20950.0 2.3573e-05
20970.0 2.3826e-05
20990.0 2.4072e-05
21010.0 2.4332e-05
21030.0 2.4583e-05
21050.0 2.482e-05
21070.0 2.5056e-05
21090.0 2.5294e-05
21110.0 2.5508e-05
21130.0 2.5709e-05
21150.0 2.5905e-05
21170.0 2.6082e-05
21190.0 2.6234e-05
21210.0 2.6374e-05
21230.0 2.6492e-05
21250.0 2.6577e-05
21270.0 2.6633e-05
21290.0 2.666e-05
21310.0 2.6649e-05
21330.0 2.66e-05
21350.0 2.6511e-05
21370.0 2.6376e-05
21390.0 2.6199e-05
21410.0 2.598e-05
21430.0 2.57e-05
21450.0 2.5381e-05
21470.0 2.5028e-05
21490.0 2.4625e-05
21510.0 2.418e-05
21530.0 2.3722e-05
21550.0 2.3237e-05
21570.0 2.2716e-05
21590.0 2.2197e-05
21610.0 2.169e-05
21630.0 2.1177e-05
21650.0 2.0669e-05
21670.0 2.0219e-05
21690.0 1.9796e-05
21710.0 1.9404e-05
21730.0 1.9071e-05
21750.0 1.8798e-05
21770.0 1.857e-05
21790.0 1.8409e-05
21810.0 1.8315e-05
21830.0 1.8281e-05
21850.0 1.8311e-05
21870.0 1.8401e-05
21890.0 1.854e-05
21910.0 1.8737e-05
21930.0 1.8983e-05
21950.0 1.926e-05
21970.0 1.9575e-05
21990.0 1.9941e-05
22010.0 2.0312e-05
22030.0 2.0696e-05
22050.0 2.1108e-05
22070.0 2.1528e-05
22090.0 2.193e-05
22110.0 2.2343e-05
22130.0 2.2761e-05
22150.0 2.3156e-05
22170.0 2.3532e-05
22190.0 2.391e-05
22210.0 2.4266e-05
22230.0 2.4581e-05
22250.0 2.4881e-05
22270.0 2.516e-05
22290.0 2.5399e-05
22310.0 2.5604e-05
22330.0 2.5787e-05
22350.0 2.5929e-05
22370.0 2.6029e-05
22390.0 2.6093e-05
22410.0 2.6115e-05
22430.0 2.6092e-05
22450.0 2.6026e-05
22470.0 2.5913e-05
22490.0 2.5753e-05
22510.0 2.5553e-05
22530.0 2.5299e-05
22550.0 2.499e-05
22570.0 2.4647e-05
22590.0 2.426e-05
22610.0 2.3817e-05
22630.0 2.3336e-05
22650.0 2.2838e-05
22670.0 2.2287e-05
22690.0 2.1699e-05
22710.0 2.1104e-05
