#lamb flux
1010.0 0.00020435
1030.0 0.0002758
1050.0 0.00037197
1070.0 0.00049836
1090.0 0.00066372
1110.0 0.00086531
1130.0 0.0011038
1150.0 0.0013862
1170.0 0.0017132
1190.0 0.0020677
1210.0 0.0024559
1230.0 0.0028761
1250.0 0.0033079
1270.0 0.003736
1290.0 0.0041684
1310.0 0.0045773
1330.0 0.0049366
1350.0 0.0052467
1370.0 0.0055021
1390.0 0.0056775
1410.0 0.0057666
1430.0 0.005787
1450.0 0.0057276
1470.0 0.0055859
1490.0 0.0053806
1510.0 0.0051293
1530.0 0.0048207
1550.0 0.0044758
1570.0 0.0041114
1590.0 0.0037339
1610.0 0.0033483
1630.0 0.0029718
1650.0 0.0026088
1670.0 0.0022596
1690.0 0.0019307
1710.0 0.0016267
1730.0 0.0013468
1750.0 0.00109
1770.0 0.00085939
1790.0 0.00065356
1810.0 0.00047087
1830.0 0.00031095
1850.0 0.00019456
1870.0 0.00011563
1890.0 4.9937e-05
1910.0 1e-99
1930.0 1e-99
1950.0 1e-99
1970.0 1e-99
1990.0 1e-99
2010.0 1e-99
2030.0 1e-99
2050.0 1e-99
2070.0 1e-99
2090.0 1e-99
2110.0 3.9618e-05
2130.0 9.1667e-05
2150.0 0.00015072
2170.0 0.00021614
2190.0 0.00028762
2210.0 0.00038033
2230.0 0.00049757
2250.0 0.00062098
2270.0 0.00075025
2290.0 0.00088374
2310.0 0.0010202
2330.0 0.0011595
2350.0 0.0013006
2370.0 0.0014415
2390.0 0.0015818
2410.0 0.0017212
2430.0 0.0018568
2450.0 0.0019872
2470.0 0.0021121
2490.0 0.00223
2510.0 0.0023392
2530.0 0.002443
2550.0 0.0025474
2570.0 0.0026606
2590.0 0.0027946
2610.0 0.002978
2630.0 0.0032337
2650.0 0.0035717
2670.0 0.0040239
2690.0 0.0046208
2710.0 0.0053253
2730.0 0.0061063
2750.0 0.0069879
2770.0 0.007873
2790.0 0.0086671
2810.0 0.0093657
2830.0 0.0099614
2850.0 0.010347
2870.0 0.010583
2890.0 0.010717
2910.0 0.010749
2930.0 0.010683
2950.0 0.010579
2970.0 0.01044
2990.0 0.010248
3010.0 0.010025
3030.0 0.0097989
3050.0 0.009559
3070.0 0.0092867
3090.0 0.0090235
3110.0 0.008771
3130.0 0.0085237
3150.0 0.0077706
3170.0 0.0071644
3190.0 0.0065283
3210.0 0.0059515
3230.0 0.005668
3250.0 0.0065998
3270.0 0.0092418
3290.0 0.010541
3310.0 0.0073915
3330.0 0.0070406
3350.0 0.0073256
3370.0 0.0077065
3390.0 0.0080526
3410.0 0.0081605
3430.0 0.0080796
3450.0 0.0079456
3470.0 0.0079086
3490.0 0.0075295
3510.0 0.0056921
3530.0 0.0026663
3550.0 0.0019168
3570.0 0.006487
3590.0 0.013159
3610.0 0.016664
3630.0 0.025538
3650.0 0.027111
3670.0 0.021743
3690.0 0.015123
3710.0 0.011261
3730.0 0.011636
3750.0 0.012318
3770.0 0.012762
3790.0 0.013154
3810.0 0.016069
3830.0 0.014563
3850.0 0.011078
3870.0 0.0091178
3890.0 0.011804
3910.0 0.013793
3930.0 0.013918
3950.0 0.015322
3970.0 0.016903
3990.0 0.01623
4010.0 0.017591
4030.0 0.016779
4050.0 0.015717
4070.0 0.014862
4090.0 0.01512
4110.0 0.015937
4130.0 0.015668
4150.0 0.01469
4170.0 0.01412
4190.0 0.014491
4210.0 0.012914
4230.0 0.011576
4250.0 0.0097467
4270.0 0.0077343
4290.0 0.0077147
4310.0 0.0074366
4330.0 0.0074132
4350.0 0.0096964
4370.0 0.009837
4390.0 0.011616
4410.0 0.012767
4430.0 0.013819
4450.0 0.012052
4470.0 0.0098373
4490.0 0.0092918
4510.0 0.0085334
4530.0 0.0080263
4550.0 0.007444
4570.0 0.0072872
4590.0 0.0074262
4610.0 0.006403
4630.0 0.005769
4650.0 0.0049333
4670.0 0.0048291
4690.0 0.0039062
4710.0 0.0033194
4730.0 0.0024205
4750.0 0.0019541
4770.0 0.00079208
4790.0 0.00086342
4810.0 0.00077176
4830.0 1e-99
4850.0 1.367e-05
4870.0 1e-99
4890.0 1e-99
4910.0 0.00058582
4930.0 0.00083328
4950.0 1e-99
4970.0 1e-99
4990.0 1e-99
5010.0 1e-99
5030.0 1e-99
5050.0 1e-99
5070.0 1e-99
5090.0 1e-99
5110.0 1.5933e-05
5130.0 1e-99
5150.0 0.00019764
5170.0 1e-99
5190.0 1e-99
5210.0 1e-99
5230.0 1e-99
5250.0 7.4789e-05
5270.0 0.0012522
5290.0 0.0011576
5310.0 0.00044041
5330.0 0.00056617
5350.0 1e-99
5370.0 9.7967e-05
5390.0 0.00044294
5410.0 0.00030323
5430.0 0.00089936
5450.0 0.00021926
5470.0 0.00020175
5490.0 0.0020934
5510.0 0.0020697
5530.0 0.0021562
5550.0 0.0018953
5570.0 0.0025014
5590.0 0.0032876
5610.0 0.0033544
5630.0 0.0030684
5650.0 0.0031752
5670.0 0.0031572
5690.0 0.0034334
5710.0 0.0028827
5730.0 0.0032368
5750.0 0.0032566
5770.0 0.0030147
5790.0 0.0037319
5810.0 0.0041555
5830.0 0.0038784
5850.0 0.0030024
5870.0 0.0025336
5890.0 0.0025309
5910.0 0.0032233
5930.0 0.0030299
5950.0 0.0033335
5970.0 0.0034105
5990.0 0.003777
6010.0 0.0035969
6030.0 0.0037495
6050.0 0.0036876
6070.0 0.0031772
6090.0 0.0035501
6110.0 0.0037409
6130.0 0.0034462
6150.0 0.0034928
6170.0 0.0036239
6190.0 0.0026736
6210.0 0.0027818
6230.0 0.0030818
6250.0 0.0030507
6270.0 0.0030322
6290.0 0.0034149
6310.0 0.0039018
6330.0 0.0039756
6350.0 0.0038381
6370.0 0.0039976
6390.0 0.0034704
6410.0 0.0036394
6430.0 0.0033648
6450.0 0.0034887
6470.0 0.0036229
6490.0 0.003711
6510.0 0.0032283
6530.0 0.0033117
6550.0 0.0032633
6570.0 0.0029756
6590.0 0.0032656
6610.0 0.0032933
6630.0 0.0032947
6650.0 0.0030004
6670.0 0.0028308
6690.0 0.0027136
6710.0 0.0025501
6730.0 0.0024301
6750.0 0.0024412
6770.0 0.0021838
6790.0 0.00097867
6810.0 0.0013847
6830.0 0.0020899
6850.0 0.0017534
6870.0 0.0017265
6890.0 0.001671
6910.0 0.0016365
6930.0 0.0015115
6950.0 0.0016915
6970.0 0.0016167
6990.0 0.0015869
7010.0 0.0015512
7030.0 0.0017189
7050.0 0.0016928
7070.0 0.0011654
7090.0 0.00070199
7110.0 0.00059214
7130.0 0.00071989
7150.0 0.00080182
7170.0 0.00077361
7190.0 0.00052614
7210.0 0.00090964
7230.0 0.0012941
7250.0 0.0012388
7270.0 0.0012828
7290.0 0.0014568
7310.0 0.0011141
7330.0 0.0010079
7350.0 0.00090058
7370.0 0.0011863
7390.0 0.0015546
7410.0 0.00095994
7430.0 0.0010398
7450.0 0.00099333
7470.0 0.0013396
7490.0 0.0014118
7510.0 0.001105
7530.0 0.0013099
7550.0 0.00035339
7570.0 0.00020599
7590.0 0.00067054
7610.0 0.0011579
7630.0 0.00084519
7650.0 0.0011295
7670.0 0.00043626
7690.0 3.0963e-05
7710.0 0.00021691
7730.0 0.00067021
7750.0 0.00021421
7770.0 0.00082833
7790.0 0.0011015
7810.0 0.00067948
7830.0 0.0010385
7850.0 0.00045486
7870.0 0.00092376
7890.0 0.00060518
7910.0 0.00061533
7930.0 0.00026852
7950.0 1e-99
7970.0 0.0001946
7990.0 0.00051135
8010.0 0.0030588
8030.0 0.0029521
8050.0 0.0029024
8070.0 0.0028282
8090.0 0.0026488
8110.0 0.0025633
8130.0 0.0028172
8150.0 0.0030144
8170.0 0.0031307
8190.0 0.003304
8210.0 0.0031383
8230.0 0.0031376
8250.0 0.003103
8270.0 0.0031553
8290.0 0.003139
8310.0 0.0029684
8330.0 0.0028288
8350.0 0.0029334
8370.0 0.0029994
8390.0 0.0029106
8410.0 0.0028782
8430.0 0.0027687
8450.0 0.0026638
8470.0 0.0028941
8490.0 0.0029062
8510.0 0.0027003
8530.0 0.0027347
8550.0 0.0027042
8570.0 0.0024708
8590.0 0.0025217
8610.0 0.0025121
8630.0 0.0026488
8650.0 0.0026656
8670.0 0.0027028
8690.0 0.0026388
8710.0 0.0026013
8730.0 0.0024754
8750.0 0.0024075
8770.0 0.0023821
8790.0 0.0025452
8810.0 0.0023519
8830.0 0.0022975
8850.0 0.0024556
8870.0 0.0023219
8890.0 0.0021162
8910.0 0.0020953
8930.0 0.002174
8950.0 0.0019686
8970.0 0.0018806
8990.0 0.001835
9010.0 0.0017147
9030.0 0.0016873
9050.0 0.0016799
9070.0 0.0016735
9090.0 0.0016671
9110.0 0.0016607
9130.0 0.0016541
9150.0 0.0016475
9170.0 0.0016408
9190.0 0.0016341
9210.0 0.0016272
9230.0 0.0016204
9250.0 0.0016135
9270.0 0.0016065
9290.0 0.0015995
9310.0 0.0015938
9330.0 0.00159
9350.0 0.0015863
9370.0 0.0015824
9390.0 0.0015784
9410.0 0.0015744
9430.0 0.0015703
9450.0 0.0015661
9470.0 0.0015627
9490.0 0.0015588
9510.0 0.001554
9530.0 0.0015491
9550.0 0.0015445
9570.0 0.0015399
9590.0 0.0015352
9610.0 0.0015326
9630.0 0.0015303
9650.0 0.0015279
9670.0 0.0015252
9690.0 0.0015225
9710.0 0.0015198
9730.0 0.0015169
9750.0 0.001514
9770.0 0.0015112
9790.0 0.0015081
9810.0 0.0015048
9830.0 0.0015017
9850.0 0.0014975
9870.0 0.0014924
9890.0 0.0014901
9910.0 0.0014873
9930.0 0.0014836
9950.0 0.0014801
9970.0 0.0014769
9990.0 0.0014734
10010.0 0.0014697
10030.0 0.001466
10050.0 0.0014622
10070.0 0.0014583
10090.0 0.0014544
10110.0 0.0014504
10130.0 0.0014464
10150.0 0.0014423
10170.0 0.0014382
10190.0 0.0014341
10210.0 0.0014299
10230.0 0.0014257
10250.0 0.0014215
10270.0 0.0014173
10290.0 0.001413
10310.0 0.0014087
10330.0 0.0014044
10350.0 0.0014001
10370.0 0.0013958
10390.0 0.0013914
10410.0 0.001386
10430.0 0.0013802
10450.0 0.001377
10470.0 0.0013731
10490.0 0.0013691
10510.0 0.001365
10530.0 0.0013607
10550.0 0.0013563
10570.0 0.001352
10590.0 0.0013476
10610.0 0.0013432
10630.0 0.0013388
10650.0 0.0013345
10670.0 0.0013301
10690.0 0.0013257
10710.0 0.0013214
10730.0 0.001317
10750.0 0.0013126
10770.0 0.0013084
10790.0 0.0013041
10810.0 0.0012998
10830.0 0.0012955
10850.0 0.0012913
10870.0 0.001287
10890.0 0.0012826
10910.0 0.0012782
10930.0 0.0012737
10950.0 0.0012687
10970.0 0.0012635
10990.0 0.001258
11010.0 0.0011503
11030.0 0.0011436
11050.0 0.0011351
11070.0 0.0011251
11090.0 0.0011136
11110.0 0.0011014
11130.0 0.0010887
11150.0 0.0010755
11170.0 0.0010619
11190.0 0.0010484
11210.0 0.0010347
11230.0 0.0010208
11250.0 0.001007
11270.0 0.00099347
11290.0 0.00097974
11310.0 0.0009662
11330.0 0.00095327
11350.0 0.00094048
11370.0 0.0009279
11390.0 0.00091585
11410.0 0.00090422
11430.0 0.00089269
11450.0 0.00088158
11470.0 0.00087089
11490.0 0.00086037
11510.0 0.00084994
11530.0 0.00083984
11550.0 0.00082987
11570.0 0.00081986
11590.0 0.00080992
11610.0 0.00080011
11630.0 0.00079016
11650.0 0.00078009
11670.0 0.00077013
11690.0 0.00076012
11710.0 0.0007499
11730.0 0.00073965
11750.0 0.00072949
11770.0 0.00071912
11790.0 0.00070864
11810.0 0.00069829
11830.0 0.00068795
11850.0 0.00067741
11870.0 0.00066711
11890.0 0.00065708
11910.0 0.0006471
11930.0 0.00063731
11950.0 0.00062795
11970.0 0.00061888
11990.0 0.00061002
12010.0 0.00060166
12030.0 0.00059379
12050.0 0.00058627
12070.0 0.0005792
12090.0 0.0005727
12110.0 0.00056663
12130.0 0.000561
12150.0 0.00055582
12170.0 0.00055103
12190.0 0.00054662
12210.0 0.00054255
12230.0 0.00053873
12250.0 0.00053513
12270.0 0.00053172
12290.0 0.00052839
12310.0 0.00052506
12330.0 0.00052177
12350.0 0.00051842
12370.0 0.00051494
12390.0 0.00051133
12410.0 0.00050754
12430.0 0.00050354
12450.0 0.00049931
12470.0 0.00049482
12490.0 0.00049007
12510.0 0.00048511
12530.0 0.00047985
12550.0 0.00047427
12570.0 0.0004685
12590.0 0.00046251
12610.0 0.00045617
12630.0 0.0004496
12650.0 0.00044303
12670.0 0.0004362
12690.0 0.00042915
12710.0 0.00042213
12730.0 0.00041509
12750.0 0.00040775
12770.0 0.0004005
12790.0 0.00039342
12810.0 0.00038628
12830.0 0.00037909
12850.0 0.00037225
12870.0 0.00036558
12890.0 0.00035891
12910.0 0.00035253
12930.0 0.00034654
12950.0 0.00034068
12970.0 0.00033508
12990.0 0.00033004
13010.0 0.00032538
13030.0 0.00032105
13050.0 0.00031722
13070.0 0.00031392
13090.0 0.000311
13110.0 0.00030852
13130.0 0.00030651
13150.0 0.0003049
13170.0 0.00030365
13190.0 0.00030277
13210.0 0.00030218
13230.0 0.00030187
13250.0 0.0003018
13270.0 0.0003019
13290.0 0.00030217
13310.0 0.00030261
13330.0 0.0003031
13350.0 0.00030362
13370.0 0.00030417
13390.0 0.00030469
13410.0 0.00030508
13430.0 0.00030537
13450.0 0.00030551
13470.0 0.00030548
13490.0 0.00030527
13510.0 0.00030487
13530.0 0.00030428
13550.0 0.00030356
13570.0 0.00030269
13590.0 0.00030167
13610.0 0.00030057
13630.0 0.00029944
13650.0 0.00029815
13670.0 0.0002968
13690.0 0.00029542
13710.0 0.00029393
13730.0 0.00029223
13750.0 0.00029053
13770.0 0.00028872
13790.0 0.0002867
13810.0 0.00028455
13830.0 0.00028239
13850.0 0.00028001
13870.0 0.00027745
13890.0 0.00027492
13910.0 0.00027236
13930.0 0.00026963
13950.0 0.00026692
13970.0 0.00026443
13990.0 0.0002619
14010.0 0.0002594
14030.0 0.00025713
14050.0 0.00025501
14070.0 0.00025288
14090.0 0.00025099
14110.0 0.00024933
14130.0 0.00024776
14150.0 0.00024629
14170.0 0.00024508
14190.0 0.00024398
14210.0 0.00024292
14230.0 0.000242
14250.0 0.00024123
14270.0 0.00024046
14290.0 0.00023973
14310.0 0.00023918
14330.0 0.00023868
14350.0 0.0002382
14370.0 0.00023783
14390.0 0.0002376
14410.0 0.00023739
14430.0 0.00023725
14450.0 0.00023725
14470.0 0.00023733
14490.0 0.00023742
14510.0 0.00023762
14530.0 0.00023791
14550.0 0.00023821
14570.0 0.00023853
14590.0 0.00023891
14610.0 0.00023928
14630.0 0.00023961
14650.0 0.00023997
14670.0 0.00024034
14690.0 0.00024066
14710.0 0.00024093
14730.0 0.00024125
14750.0 0.00024151
14770.0 0.00024171
14790.0 0.00024189
14810.0 0.00024206
14830.0 0.00024209
14850.0 0.00024208
14870.0 0.00024207
14890.0 0.00024199
14910.0 0.00024184
14930.0 0.00024174
14950.0 0.00024169
14970.0 0.00024165
14990.0 0.00024171
15010.0 0.00024193
15030.0 0.00024225
15050.0 0.00024263
15070.0 0.00024316
15090.0 0.00024375
15110.0 0.00024436
15130.0 0.00024499
15150.0 0.00024565
15170.0 0.00024628
15190.0 0.00024688
15210.0 0.00024749
15230.0 0.00024809
15250.0 0.00024865
15270.0 0.00024919
15290.0 0.00024974
15310.0 0.00025025
15330.0 0.00025074
15350.0 0.00025122
15370.0 0.00025169
15390.0 0.0002521
15410.0 0.0002525
15430.0 0.00025291
15450.0 0.00025327
15470.0 0.00025359
15490.0 0.00025393
15510.0 0.00025424
15530.0 0.0002545
15550.0 0.00025475
15570.0 0.00025499
15590.0 0.00025518
15610.0 0.00025534
15630.0 0.0002555
15650.0 0.00025564
15670.0 0.00025573
15690.0 0.0002558
15710.0 0.00025588
15730.0 0.00025589
15750.0 0.00025588
15770.0 0.00025587
15790.0 0.00025583
15810.0 0.00025573
15830.0 0.00025563
15850.0 0.00025552
15870.0 0.00025537
15890.0 0.00025518
15910.0 0.000255
15930.0 0.00025478
15950.0 0.0002545
15970.0 0.00025423
15990.0 0.00025394
16010.0 0.0002536
16030.0 0.00025324
16050.0 0.00025288
16070.0 0.00025249
16090.0 0.00025205
16110.0 0.00025161
16130.0 0.00025116
16150.0 0.00025065
16170.0 0.00025012
16190.0 0.0002496
16210.0 0.00024904
16230.0 0.00024843
16250.0 0.00024784
16270.0 0.00024723
16290.0 0.00024657
16310.0 0.00024589
16330.0 0.00024522
16350.0 0.00024451
16370.0 0.00024374
16390.0 0.000243
16410.0 0.00024225
16430.0 0.00024145
16450.0 0.00024063
16470.0 0.00023983
16490.0 0.00023898
16510.0 0.0002381
16530.0 0.00023723
16550.0 0.00023634
16570.0 0.00023541
16590.0 0.00023447
16610.0 0.00023355
16630.0 0.00023259
16650.0 0.0002316
16670.0 0.00023063
16690.0 0.00022964
16710.0 0.00022859
16730.0 0.00022756
16750.0 0.00022653
16770.0 0.00022547
16790.0 0.00022438
16810.0 0.00022332
16830.0 0.00022223
16850.0 0.00022112
16870.0 0.00022
16890.0 0.0002189
16910.0 0.00021775
16930.0 0.00021658
16950.0 0.00021544
16970.0 0.00021429
16990.0 0.0002131
17010.0 0.00021192
17030.0 0.00021076
17050.0 0.00020955
17070.0 0.00020834
17090.0 0.00020714
17110.0 0.00020593
17130.0 0.00020469
17150.0 0.00020346
17170.0 0.00020225
17190.0 0.000201
17210.0 0.00019975
17230.0 0.00019853
17250.0 0.00019728
17270.0 0.000196
17290.0 0.00019475
17310.0 0.0001935
17330.0 0.00019223
17350.0 0.00019095
17370.0 0.0001897
17390.0 0.00018843
17410.0 0.00018715
17430.0 0.00018588
17450.0 0.00018463
17470.0 0.00018333
17490.0 0.00018204
17510.0 0.00018078
17530.0 0.00017951
17550.0 0.00017822
17570.0 0.00017695
17590.0 0.00017569
17610.0 0.00017441
17630.0 0.00017313
17650.0 0.00017187
17670.0 0.0001706
17690.0 0.00016931
17710.0 0.00016806
17730.0 0.00016681
17750.0 0.00016553
17770.0 0.00016428
17790.0 0.00016304
17810.0 0.00016178
17830.0 0.00016052
17850.0 0.00015928
17870.0 0.00015805
17890.0 0.0001568
17910.0 0.00015556
17930.0 0.00015435
17950.0 0.00015312
17970.0 0.00015189
17990.0 0.00015069
18010.0 0.00014949
18030.0 0.00014826
18050.0 0.00014706
18070.0 0.00014588
18090.0 0.00014468
18110.0 0.00014348
18130.0 0.00014232
18150.0 0.00014115
18170.0 0.00013997
18190.0 0.00013881
18210.0 0.00013767
18230.0 0.00013651
18250.0 0.00013535
18270.0 0.00013423
18290.0 0.0001331
18310.0 0.00013197
18330.0 0.00013085
18350.0 0.00012976
18370.0 0.00012865
18390.0 0.00012754
18410.0 0.00012646
18430.0 0.00012538
18450.0 0.00012429
18470.0 0.00012322
18490.0 0.00012217
18510.0 0.00012111
18530.0 0.00012006
18550.0 0.00011903
18570.0 0.000118
18590.0 0.00011696
18610.0 0.00011595
18630.0 0.00011494
18650.0 0.00011393
18670.0 0.00011293
18690.0 0.00011196
18710.0 0.00011098
18730.0 0.00010999
18750.0 0.00010904
18770.0 0.00010809
18790.0 0.00010712
18810.0 0.00010617
18830.0 0.00010525
18850.0 0.00010432
18870.0 0.00010339
18890.0 0.00010249
18910.0 0.0001016
18930.0 0.00010069
18950.0 9.9798e-05
18970.0 9.8927e-05
18990.0 9.8052e-05
19010.0 9.7165e-05
19030.0 9.6318e-05
19050.0 9.5474e-05
19070.0 9.4622e-05
19090.0 9.3785e-05
19110.0 9.2972e-05
19130.0 9.2142e-05
19150.0 9.1318e-05
19170.0 9.0518e-05
19190.0 8.9724e-05
19210.0 8.8919e-05
19230.0 8.813e-05
19250.0 8.7366e-05
19270.0 8.6592e-05
19290.0 8.5822e-05
19310.0 8.5074e-05
19330.0 8.433e-05
19350.0 8.3569e-05
19370.0 8.2833e-05
19390.0 8.2113e-05
19410.0 8.1384e-05
19430.0 8.0659e-05
19450.0 7.996e-05
19470.0 7.9261e-05
19490.0 7.8554e-05
19510.0 7.7865e-05
19530.0 7.719e-05
19550.0 7.6502e-05
19570.0 7.5818e-05
19590.0 7.5162e-05
19610.0 7.4504e-05
19630.0 7.384e-05
19650.0 7.3194e-05
19670.0 7.2562e-05
19690.0 7.1914e-05
19710.0 7.1276e-05
19730.0 7.0657e-05
19750.0 7.0035e-05
19770.0 6.9403e-05
19790.0 6.8795e-05
19810.0 6.8197e-05
19830.0 6.7589e-05
19850.0 6.6989e-05
19870.0 6.641e-05
19890.0 6.5824e-05
19910.0 6.5237e-05
19930.0 6.468e-05
19950.0 6.4142e-05
19970.0 6.3615e-05
19990.0 6.312e-05
20010.0 6.2675e-05
20030.0 6.2259e-05
20050.0 6.1881e-05
20070.0 6.1552e-05
20090.0 6.1262e-05
20110.0 6.1004e-05
20130.0 6.0785e-05
20150.0 6.0599e-05
20170.0 6.0439e-05
20190.0 6.0304e-05
20210.0 6.019e-05
20230.0 6.0093e-05
20250.0 6.0013e-05
20270.0 5.9942e-05
20290.0 5.9877e-05
20310.0 5.9817e-05
20330.0 5.9761e-05
20350.0 5.9697e-05
20370.0 5.963e-05
20390.0 5.9558e-05
20410.0 5.9478e-05
20430.0 5.9389e-05
20450.0 5.9293e-05
20470.0 5.9189e-05
20490.0 5.9077e-05
20510.0 5.8961e-05
20530.0 5.884e-05
20550.0 5.8716e-05
20570.0 5.8591e-05
20590.0 5.8466e-05
20610.0 5.8341e-05
20630.0 5.8218e-05
20650.0 5.8095e-05
20670.0 5.7975e-05
20690.0 5.7853e-05
20710.0 5.773e-05
20730.0 5.7604e-05
20750.0 5.7474e-05
20770.0 5.7335e-05
20790.0 5.7188e-05
20810.0 5.703e-05
20830.0 5.6857e-05
20850.0 5.667e-05
20870.0 5.6464e-05
20890.0 5.6239e-05
20910.0 5.5997e-05
20930.0 5.5734e-05
20950.0 5.545e-05
20970.0 5.5149e-05
20990.0 5.4832e-05
21010.0 5.4491e-05
21030.0 5.4136e-05
21050.0 5.3771e-05
21070.0 5.3389e-05
21090.0 5.299e-05
21110.0 5.2588e-05
21130.0 5.2177e-05
21150.0 5.1751e-05
21170.0 5.1317e-05
21190.0 5.0878e-05
21210.0 5.0423e-05
21230.0 4.9953e-05
21250.0 4.9478e-05
21270.0 4.8989e-05
21290.0 4.8479e-05
21310.0 4.7954e-05
21330.0 4.7419e-05
21350.0 4.686e-05
21370.0 4.6278e-05
21390.0 4.5837e-05
21410.0 4.5382e-05
21430.0 4.49e-05
21450.0 4.4409e-05
21470.0 4.391e-05
21490.0 4.339e-05
21510.0 4.2852e-05
21530.0 4.231e-05
21550.0 4.1753e-05
21570.0 4.1173e-05
21590.0 4.0586e-05
21610.0 3.9993e-05
21630.0 3.9379e-05
21650.0 3.8745e-05
21670.0 3.8117e-05
21690.0 3.7473e-05
21710.0 3.6808e-05
21730.0 3.6137e-05
21750.0 3.5463e-05
21770.0 3.476e-05
21790.0 3.4047e-05
21810.0 3.3332e-05
21830.0 3.2602e-05
21850.0 3.1851e-05
21870.0 3.1095e-05
21890.0 3.0337e-05
21910.0 2.9557e-05
21930.0 2.8766e-05
21950.0 2.7975e-05
21970.0 2.7171e-05
21990.0 2.6345e-05
22010.0 2.5526e-05
22030.0 2.4703e-05
22050.0 2.3867e-05
22070.0 2.337e-05
22090.0 2.3495e-05
22110.0 2.3621e-05
22130.0 2.3746e-05
22150.0 2.3869e-05
22170.0 2.3989e-05
22190.0 2.4109e-05
22210.0 2.4228e-05
22230.0 2.4343e-05
22250.0 2.4457e-05
22270.0 2.4571e-05
22290.0 2.4683e-05
22310.0 2.4793e-05
22330.0 2.4905e-05
22350.0 2.5015e-05
22370.0 2.5125e-05
22390.0 2.5235e-05
22410.0 2.5347e-05
22430.0 2.5458e-05
22450.0 2.557e-05
22470.0 2.5684e-05
22490.0 2.5798e-05
22510.0 2.5913e-05
22530.0 2.603e-05
22550.0 2.6149e-05
22570.0 2.6269e-05
22590.0 2.639e-05
22610.0 2.6513e-05
22630.0 2.6637e-05
22650.0 2.6762e-05
22670.0 2.6888e-05
22690.0 2.7016e-05
22710.0 2.7145e-05
22730.0 2.7275e-05
22750.0 2.7407e-05
22770.0 2.7539e-05
22790.0 2.7673e-05
22810.0 2.7808e-05
22830.0 2.7944e-05
22850.0 2.8081e-05
22870.0 2.822e-05
22890.0 2.8361e-05
22910.0 2.8503e-05
22930.0 2.8648e-05
22950.0 2.8795e-05
22970.0 2.8944e-05
22990.0 2.9096e-05
23010.0 2.9251e-05
23030.0 2.9409e-05
23050.0 2.9571e-05
23070.0 2.9737e-05
23090.0 2.9906e-05
23110.0 2.991e-05
23130.0 2.9901e-05
23150.0 2.9893e-05
23170.0 2.9885e-05
23190.0 2.9878e-05
23210.0 2.987e-05
23230.0 2.9864e-05
23250.0 2.9858e-05
23270.0 2.9852e-05
