#lamb flux
1010.0 1.7023e-06
1030.0 1.8737e-06
1050.0 2.0707e-06
1070.0 2.2926e-06
1090.0 2.5446e-06
1110.0 2.8031e-06
1130.0 3.0632e-06
1150.0 3.3357e-06
1170.0 3.6168e-06
1190.0 3.8833e-06
1210.0 4.1534e-06
1230.0 4.4325e-06
1250.0 4.7059e-06
1270.0 4.9715e-06
1290.0 5.2521e-06
1310.0 5.5324e-06
1330.0 5.8012e-06
1350.0 6.0731e-06
1370.0 6.3537e-06
1390.0 6.6273e-06
1410.0 6.8927e-06
1430.0 7.1702e-06
1450.0 7.4476e-06
1470.0 7.7156e-06
1490.0 7.9865e-06
1510.0 8.2727e-06
1530.0 8.5437e-06
1550.0 8.811e-06
1570.0 9.0874e-06
1590.0 9.3641e-06
1610.0 9.6283e-06
1630.0 9.9006e-06
1650.0 1.018e-05
1670.0 1.045e-05
1690.0 1.0716e-05
1710.0 1.0993e-05
1730.0 1.127e-05
1750.0 1.1531e-05
1770.0 1.1799e-05
1790.0 1.2073e-05
1810.0 1.2336e-05
1830.0 1.2595e-05
1850.0 1.2869e-05
1870.0 1.3135e-05
1890.0 1.3391e-05
1910.0 1.3651e-05
1930.0 1.3917e-05
1950.0 1.4168e-05
1970.0 1.4415e-05
1990.0 1.4669e-05
2010.0 1.4917e-05
2030.0 1.5153e-05
2050.0 1.5394e-05
2070.0 1.5639e-05
2090.0 1.5865e-05
2110.0 1.6087e-05
2130.0 1.6312e-05
2150.0 1.6528e-05
2170.0 1.6728e-05
2190.0 1.6932e-05
2210.0 1.7132e-05
2230.0 1.7316e-05
2250.0 1.7492e-05
2270.0 1.7672e-05
2290.0 1.7837e-05
2310.0 1.7985e-05
2330.0 1.8132e-05
2350.0 1.8273e-05
2370.0 1.8398e-05
2390.0 1.852e-05
2410.0 1.8652e-05
2430.0 1.8781e-05
2450.0 1.8916e-05
2470.0 1.9086e-05
2490.0 1.9312e-05
2510.0 1.9597e-05
2530.0 2.0035e-05
2550.0 2.0764e-05
2570.0 2.1905e-05
2590.0 2.3595e-05
2610.0 2.6243e-05
2630.0 2.9877e-05
2650.0 3.4233e-05
2670.0 3.931e-05
2690.0 4.4854e-05
2710.0 5.0048e-05
2730.0 5.454e-05
2750.0 5.8423e-05
2770.0 6.1331e-05
2790.0 6.3292e-05
2810.0 6.4649e-05
2830.0 6.5643e-05
2850.0 6.6265e-05
2870.0 6.6745e-05
2890.0 6.7218e-05
2910.0 6.7662e-05
2930.0 6.8033e-05
2950.0 6.8444e-05
2970.0 6.8875e-05
2990.0 6.9247e-05
3010.0 0.00074821
3030.0 0.00075232
3050.0 0.00075612
3070.0 0.00075859
3090.0 0.00076046
3110.0 0.00076075
3130.0 0.00075819
3150.0 0.00075244
3170.0 0.00074289
3190.0 0.00072979
3210.0 0.00071491
3230.0 0.0006998
3250.0 0.00068242
3270.0 0.00067603
3290.0 0.00066872
3310.0 0.00068237
3330.0 0.00069858
3350.0 0.00072067
3370.0 0.00074973
3390.0 0.00078459
3410.0 0.00082108
3430.0 0.00086058
3450.0 0.00090406
3470.0 0.00094921
3490.0 0.00099504
3510.0 0.001043
3530.0 0.001091
3550.0 0.0011437
3570.0 0.0012012
3590.0 0.0012556
3610.0 0.0013232
3630.0 0.0013751
3650.0 0.0014307
3670.0 0.0014759
3690.0 0.0015165
3710.0 0.00155
3730.0 0.0015535
3750.0 0.0015559
3770.0 0.0015004
3790.0 0.0014678
3810.0 0.001428
3830.0 0.0012929
3850.0 0.0011961
3870.0 0.0012777
3890.0 0.001511
3910.0 0.0019148
3930.0 0.0022431
3950.0 0.0024051
3970.0 0.0023033
3990.0 0.0021503
4010.0 0.0022535
4030.0 0.002432
4050.0 0.0025232
4070.0 0.0022723
4090.0 0.0018811
4110.0 0.0020099
4130.0 0.0022317
4150.0 0.0023294
4170.0 0.0022549
4190.0 0.0021587
4210.0 0.0023575
4230.0 0.0025645
4250.0 0.0026494
4270.0 0.0027302
4290.0 0.0026551
4310.0 0.002764
4330.0 0.0030542
4350.0 0.0035705
4370.0 0.0038588
4390.0 0.0036571
4410.0 0.0030835
4430.0 0.0026077
4450.0 0.0021313
4470.0 0.0020544
4490.0 0.0023021
4510.0 0.0028078
4530.0 0.0030403
4550.0 0.0032389
4570.0 0.0037802
4590.0 0.0047489
4610.0 0.0063263
4630.0 0.0075786
4650.0 0.0076225
4670.0 0.007683
4690.0 0.0083178
4710.0 0.0083183
4730.0 0.0067855
4750.0 0.0050206
4770.0 0.004137
4790.0 0.0039257
4810.0 0.0036528
4830.0 0.003725
4850.0 0.0043944
4870.0 0.0055082
4890.0 0.0058405
4910.0 0.0050305
4930.0 0.0048385
4950.0 0.0057853
4970.0 0.0076237
4990.0 0.0091333
5010.0 0.0092368
5030.0 0.0074847
5050.0 0.0051518
5070.0 0.0037919
5090.0 0.0033052
5110.0 0.0033148
5130.0 0.0036081
5150.0 0.0036272
5170.0 0.0036127
5190.0 0.0035793
5210.0 0.0035205
5230.0 0.0037038
5250.0 0.0039339
5270.0 0.0044961
5290.0 0.0053035
5310.0 0.0057432
5330.0 0.0059464
5350.0 0.0063002
5370.0 0.0068597
5390.0 0.0070278
5410.0 0.0064419
5430.0 0.0057326
5450.0 0.0056677
5470.0 0.006788
5490.0 0.0087092
5510.0 0.010557
5530.0 0.011304
5550.0 0.010925
5570.0 0.010119
5590.0 0.0092408
5610.0 0.0088381
5630.0 0.0088691
5650.0 0.0090016
5670.0 0.0087977
5690.0 0.0083685
5710.0 0.0080306
5730.0 0.0070626
5750.0 0.0054241
5770.0 0.0048484
5790.0 0.0053519
5810.0 0.0061762
5830.0 0.0069384
5850.0 0.0073342
5870.0 0.007261
5890.0 0.0067219
5910.0 0.0064313
5930.0 0.0065368
5950.0 0.0069045
5970.0 0.007051
5990.0 0.0063977
6010.0 0.005234
6030.0 0.0042661
6050.0 0.0038992
6070.0 0.0041123
6090.0 0.004592
6110.0 0.0046606
6130.0 0.0043205
6150.0 0.0042378
6170.0 0.0047022
6190.0 0.0056231
6210.0 0.0067549
6230.0 0.0075031
6250.0 0.0073393
6270.0 0.0065077
6290.0 0.0053545
6310.0 0.0042564
6330.0 0.0035459
6350.0 0.0033969
6370.0 0.0037317
6390.0 0.0042194
6410.0 0.0048938
6430.0 0.0057713
6450.0 0.0069304
6470.0 0.0085088
6490.0 0.010122
6510.0 0.010667
6530.0 0.010088
6550.0 0.0096624
6570.0 0.0096457
6590.0 0.0093534
6610.0 0.0086757
6630.0 0.008085
6650.0 0.0076984
6670.0 0.0077173
6690.0 0.0075393
6710.0 0.0067565
6730.0 0.0058937
6750.0 0.0053588
6770.0 0.0055985
6790.0 0.0059898
6810.0 0.0063106
6830.0 0.0064138
6850.0 0.0061598
6870.0 0.0058815
6890.0 0.00573
6910.0 0.0054382
6930.0 0.0052173
6950.0 0.0052712
6970.0 0.0054517
6990.0 0.0059317
7010.0 0.0062904
7030.0 0.0060521
7050.0 0.0055316
7070.0 0.0048349
7090.0 0.0040772
7110.0 0.0037561
7130.0 0.0039521
7150.0 0.004192
7170.0 0.0042349
7190.0 0.004121
7210.0 0.0041141
7230.0 0.0046471
7250.0 0.0054096
7270.0 0.0060114
7290.0 0.0062161
7310.0 0.0057937
7330.0 0.0052103
7350.0 0.0047772
7370.0 0.004671
7390.0 0.0048005
7410.0 0.0051082
7430.0 0.005681
7450.0 0.0063393
7470.0 0.007045
7490.0 0.0075445
7510.0 0.0067208
7530.0 0.0062859
7550.0 0.0055038
7570.0 0.0046717
7590.0 0.0038101
7610.0 0.0036232
7630.0 0.0039085
7650.0 0.0044553
7670.0 0.0050744
7690.0 0.0056012
7710.0 0.0062349
7730.0 0.0066971
7750.0 0.0069815
7770.0 0.0070093
7790.0 0.0069761
7810.0 0.0070631
7830.0 0.0069183
7850.0 0.0066615
7870.0 0.0063088
7890.0 0.0057974
7910.0 0.0052065
7930.0 0.0046268
7950.0 0.0041742
7970.0 0.0040501
7990.0 0.0042186
8010.0 0.0044831
8030.0 0.0045349
8050.0 0.0046256
8070.0 0.0045784
8090.0 0.004572
8110.0 0.0044272
8130.0 0.0041418
8150.0 0.0038904
8170.0 0.0038545
8190.0 0.0039188
8210.0 0.0039629
8230.0 0.0038631
8250.0 0.0036977
8270.0 0.0032619
8290.0 0.0026152
8310.0 0.0019545
8330.0 0.0013382
8350.0 0.00097156
8370.0 0.0009521
8390.0 0.0011312
8410.0 0.0014055
8430.0 0.0017307
8450.0 0.001908
8470.0 0.0020201
8490.0 0.002146
8510.0 0.0022734
8530.0 0.0025185
8550.0 0.0029569
8570.0 0.0034524
8590.0 0.0039174
8610.0 0.0045588
8630.0 0.0052916
8650.0 0.0056808
8670.0 0.0057157
8690.0 0.005576
8710.0 0.005325
8730.0 0.0051094
8750.0 0.0048726
8770.0 0.0047571
8790.0 0.0045778
8810.0 0.0042482
8830.0 0.0039187
8850.0 0.0033735
8870.0 0.0030203
8890.0 0.0028068
8910.0 0.002997
8930.0 0.0029127
8950.0 0.0029831
8970.0 0.003025
8990.0 0.0030467
9010.0 0.0030889
9030.0 0.0030244
9050.0 0.0030201
9070.0 0.0030226
9090.0 0.0030252
9110.0 0.0030278
9130.0 0.0030309
9150.0 0.0030347
9170.0 0.0030363
9190.0 0.0030347
9210.0 0.0030558
9230.0 0.0030568
9250.0 0.0030603
9270.0 0.0030647
9290.0 0.0030697
9310.0 0.0030753
9330.0 0.0030814
9350.0 0.0030879
9370.0 0.0030947
9390.0 0.0031019
9410.0 0.0031093
9430.0 0.0031171
9450.0 0.0031251
9470.0 0.0031334
9490.0 0.003142
9510.0 0.0031508
9530.0 0.00316
9550.0 0.0031693
9570.0 0.003179
9590.0 0.0031889
9610.0 0.003199
9630.0 0.0032094
9650.0 0.00322
9670.0 0.0032309
9690.0 0.003242
9710.0 0.0032533
9730.0 0.0032648
9750.0 0.0032765
9770.0 0.0032884
9790.0 0.0033005
9810.0 0.0033128
9830.0 0.0033253
9850.0 0.0033378
9870.0 0.0033506
9890.0 0.0033635
9910.0 0.0033764
9930.0 0.0033895
9950.0 0.0034015
9970.0 0.0034152
9990.0 0.0034288
10010.0 0.0034403
10030.0 0.0034539
10050.0 0.0034665
10070.0 0.0034743
10090.0 0.0034899
10110.0 0.0035051
10130.0 0.0035197
10150.0 0.0035341
10170.0 0.003548
10190.0 0.0035612
10210.0 0.0035747
10230.0 0.0035881
10250.0 0.003601
10270.0 0.0036138
10290.0 0.0036268
10310.0 0.0036393
10330.0 0.0036514
10350.0 0.0036637
10370.0 0.0036759
10390.0 0.0036875
10410.0 0.0036989
10430.0 0.0037105
10450.0 0.0037215
10470.0 0.0037321
10490.0 0.0037427
10510.0 0.003753
10530.0 0.0037625
10550.0 0.0037719
10570.0 0.0037813
10590.0 0.0037901
10610.0 0.0037983
10630.0 0.0038066
10650.0 0.0038144
10670.0 0.0038214
10690.0 0.0038282
10710.0 0.0038349
10730.0 0.0038408
10750.0 0.003846
10770.0 0.0038514
10790.0 0.0038562
10810.0 0.0038602
10830.0 0.0038637
10850.0 0.0038668
10870.0 0.0038679
10890.0 0.0038669
10910.0 0.003863
10930.0 0.0038536
10950.0 0.0038351
10970.0 0.0038063
10990.0 0.0037662
11010.0 0.0036575
11030.0 0.0035816
11050.0 0.0034949
11070.0 0.0033954
11090.0 0.0032803
11110.0 0.0031655
11130.0 0.0030501
11150.0 0.0029311
11170.0 0.0028148
11190.0 0.0027088
11210.0 0.0026064
11230.0 0.0025094
11250.0 0.0024246
11270.0 0.00235
11290.0 0.002282
11310.0 0.0022233
11330.0 0.0021758
11350.0 0.0021336
11370.0 0.0020958
11390.0 0.0020629
11410.0 0.0020321
11430.0 0.0019998
11450.0 0.0019668
11470.0 0.0019323
11490.0 0.0018938
11510.0 0.0018502
11530.0 0.0018046
11550.0 0.0017559
11570.0 0.0017025
11590.0 0.0016473
11610.0 0.0015928
11630.0 0.0015361
11650.0 0.0014789
11670.0 0.001426
11690.0 0.0013756
11710.0 0.0013267
11730.0 0.001282
11750.0 0.0012425
11770.0 0.0012052
11790.0 0.0011711
11810.0 0.001141
11830.0 0.0011136
11850.0 0.0010871
11870.0 0.0010628
11890.0 0.0010401
11910.0 0.0010171
11930.0 0.00099372
11950.0 0.0009707
11970.0 0.00094679
11990.0 0.00092109
12010.0 0.00089517
12030.0 0.00086915
12050.0 0.0008421
12070.0 0.00081462
12090.0 0.00078929
12110.0 0.0007648
12130.0 0.00074156
12150.0 0.00072127
12170.0 0.00070433
12190.0 0.00069015
12210.0 0.00068027
12230.0 0.00067489
12250.0 0.00067383
12270.0 0.00067755
12290.0 0.00068559
12310.0 0.00069723
12330.0 0.00071328
12350.0 0.00073266
12370.0 0.00075381
12390.0 0.00077714
12410.0 0.00080313
12430.0 0.00082788
12450.0 0.00085187
12470.0 0.00087563
12490.0 0.00089749
12510.0 0.00091596
12530.0 0.00093238
12550.0 0.00094604
12570.0 0.00095574
12590.0 0.00096196
12610.0 0.00096503
12630.0 0.00096448
12650.0 0.00096059
12670.0 0.00095381
12690.0 0.00094418
12710.0 0.00093233
12730.0 0.00091863
12750.0 0.0009026
12770.0 0.00088538
12790.0 0.0008675
12810.0 0.00084846
12830.0 0.00082833
12850.0 0.00080845
12870.0 0.00078825
12890.0 0.00076702
12910.0 0.00074564
12930.0 0.00072446
12950.0 0.00070215
12970.0 0.00067899
12990.0 0.0006564
13010.0 0.0006335
13030.0 0.00060979
13050.0 0.00058646
13070.0 0.00056422
13090.0 0.00054178
13110.0 0.00052012
13130.0 0.00050036
13150.0 0.0004821
13170.0 0.000465
13190.0 0.00045061
13210.0 0.00043882
13230.0 0.00042912
13250.0 0.00042193
13270.0 0.00041735
13290.0 0.00041502
13310.0 0.00041498
13330.0 0.00041695
13350.0 0.00042052
13370.0 0.00042571
13390.0 0.00043223
13410.0 0.00043903
13430.0 0.00044644
13450.0 0.0004543
13470.0 0.00046183
13490.0 0.00046883
13510.0 0.00047589
13530.0 0.0004822
13550.0 0.00048752
13570.0 0.00049225
13590.0 0.00049642
13610.0 0.00049971
13630.0 0.00050226
13650.0 0.00050441
13670.0 0.00050598
13690.0 0.00050697
13710.0 0.00050755
13730.0 0.00050779
13750.0 0.00050749
13770.0 0.00050679
13790.0 0.00050567
13810.0 0.00050408
13830.0 0.00050202
13850.0 0.00049944
13870.0 0.00049625
13890.0 0.00049257
13910.0 0.00048839
13930.0 0.00048356
13950.0 0.00047827
13970.0 0.00047283
13990.0 0.000467
14010.0 0.00046094
14030.0 0.00045503
14050.0 0.00044927
14070.0 0.00044349
14090.0 0.00043819
14110.0 0.00043344
14130.0 0.0004291
14150.0 0.00042528
14170.0 0.0004222
14190.0 0.00041973
14210.0 0.00041786
14230.0 0.00041668
14250.0 0.00041616
14270.0 0.00041633
14290.0 0.00041725
14310.0 0.00041874
14330.0 0.00042087
14350.0 0.00042369
14370.0 0.00042699
14390.0 0.00043059
14410.0 0.00043477
14430.0 0.00043929
14450.0 0.00044387
14470.0 0.00044867
14490.0 0.00045391
14510.0 0.00045914
14530.0 0.00046446
14550.0 0.00047032
14570.0 0.00047671
14590.0 0.00048342
14610.0 0.00049102
14630.0 0.00049992
14650.0 0.00050964
14670.0 0.00052033
14690.0 0.00053266
14710.0 0.0005465
14730.0 0.00056065
14750.0 0.00057611
14770.0 0.00059283
14790.0 0.00060967
14810.0 0.00062632
14830.0 0.00064396
14850.0 0.00066081
14870.0 0.00067617
14890.0 0.00069062
14910.0 0.00070387
14930.0 0.00071484
14950.0 0.0007237
14970.0 0.00073088
14990.0 0.00073589
15010.0 0.00073892
15030.0 0.00074043
15050.0 0.00074062
15070.0 0.00073984
15090.0 0.00073846
15110.0 0.00073663
15130.0 0.0007346
15150.0 0.00073254
15170.0 0.00073036
15190.0 0.00072813
15210.0 0.00072598
15230.0 0.00072386
15250.0 0.00072166
15270.0 0.00071949
15290.0 0.00071745
15310.0 0.00071535
15330.0 0.00071323
15350.0 0.0007112
15370.0 0.00070919
15390.0 0.00070707
15410.0 0.00070503
15430.0 0.00070306
15450.0 0.00070103
15470.0 0.00069898
15490.0 0.00069703
15510.0 0.00069509
15530.0 0.00069308
15550.0 0.00069112
15570.0 0.00068922
15590.0 0.00068724
15610.0 0.00068523
15630.0 0.00068334
15650.0 0.00068144
15670.0 0.00067947
15690.0 0.00067756
15710.0 0.00067571
15730.0 0.00067377
15750.0 0.00067183
15770.0 0.00066997
15790.0 0.0006681
15810.0 0.00066612
15830.0 0.00066423
15850.0 0.00066239
15870.0 0.00066048
15890.0 0.00065856
15910.0 0.00065674
15930.0 0.00065486
15950.0 0.0006529
15970.0 0.00065102
15990.0 0.00064918
16010.0 0.00064725
16030.0 0.0006453
16050.0 0.00064348
16070.0 0.0006416
16090.0 0.00063966
16110.0 0.00063778
16130.0 0.00063595
16150.0 0.00063396
16170.0 0.00063202
16190.0 0.00063016
16210.0 0.00062825
16230.0 0.00062628
16250.0 0.00062438
16270.0 0.00062251
16290.0 0.00062053
16310.0 0.00061858
16330.0 0.00061669
16350.0 0.00061474
16370.0 0.00061269
16390.0 0.00061077
16410.0 0.00060885
16430.0 0.00060684
16450.0 0.00060486
16470.0 0.00060295
16490.0 0.00060094
16510.0 0.00059889
16530.0 0.00059692
16550.0 0.00059495
16570.0 0.00059287
16590.0 0.00059082
16610.0 0.00058886
16630.0 0.00058682
16650.0 0.00058474
16670.0 0.00058274
16690.0 0.00058072
16710.0 0.00057857
16730.0 0.00057649
16750.0 0.00057446
16770.0 0.00057236
16790.0 0.00057021
16810.0 0.00056816
16830.0 0.00056608
16850.0 0.00056392
16870.0 0.0005618
16890.0 0.00055973
16910.0 0.00055755
16930.0 0.00055533
16950.0 0.00055322
16970.0 0.00055108
16990.0 0.00054886
17010.0 0.00054669
17030.0 0.00054458
17050.0 0.00054234
17070.0 0.00054011
17090.0 0.00053794
17110.0 0.00053574
17130.0 0.00053343
17150.0 0.00053121
17170.0 0.00052903
17190.0 0.00052676
17210.0 0.00052448
17230.0 0.00052228
17250.0 0.00052002
17270.0 0.00051767
17290.0 0.0005154
17310.0 0.00051315
17330.0 0.00051082
17350.0 0.00050846
17370.0 0.00050622
17390.0 0.00050392
17410.0 0.00050155
17430.0 0.00049924
17450.0 0.00049697
17470.0 0.00049454
17490.0 0.00049217
17510.0 0.00048986
17530.0 0.0004875
17550.0 0.00048508
17570.0 0.00048274
17590.0 0.00048042
17610.0 0.00047799
17630.0 0.00047558
17650.0 0.00047324
17670.0 0.00047084
17690.0 0.00046833
17710.0 0.00046597
17730.0 0.00046359
17750.0 0.00046113
17770.0 0.0004587
17790.0 0.00045635
17810.0 0.00045389
17830.0 0.0004514
17850.0 0.00044899
17870.0 0.00044657
17890.0 0.00044406
17910.0 0.00044158
17930.0 0.0004392
17950.0 0.00043673
17970.0 0.00043423
17990.0 0.00043181
18010.0 0.00042938
18030.0 0.00042682
18050.0 0.00042434
18070.0 0.00042191
18090.0 0.00041941
18110.0 0.00041688
18130.0 0.00041445
18150.0 0.00041199
18170.0 0.00040945
18190.0 0.00040697
18210.0 0.00040453
18230.0 0.00040199
18250.0 0.00039943
18270.0 0.00039699
18290.0 0.00039451
18310.0 0.00039196
18330.0 0.00038948
18350.0 0.00038704
18370.0 0.00038449
18390.0 0.00038196
18410.0 0.0003795
18430.0 0.00037701
18450.0 0.00037442
18470.0 0.00037193
18490.0 0.00036949
18510.0 0.00036695
18530.0 0.00036443
18550.0 0.00036199
18570.0 0.00035949
18590.0 0.00035691
18610.0 0.00035443
18630.0 0.00035197
18650.0 0.00034943
18670.0 0.00034689
18690.0 0.00034446
18710.0 0.00034197
18730.0 0.00033943
18750.0 0.00033697
18770.0 0.00033453
18790.0 0.00033195
18810.0 0.00032944
18830.0 0.00032701
18850.0 0.00032452
18870.0 0.00032199
18890.0 0.00031954
18910.0 0.00031711
18930.0 0.00031459
18950.0 0.0003121
18970.0 0.00030968
18990.0 0.0003072
19010.0 0.00030464
19030.0 0.00030223
19050.0 0.0002998
19070.0 0.0002973
19090.0 0.00029485
19110.0 0.00029247
19130.0 0.00028998
19150.0 0.00028749
19170.0 0.00028508
19190.0 0.00028266
19210.0 0.00028017
19230.0 0.00027772
19250.0 0.00027536
19270.0 0.00027292
19290.0 0.00027046
19310.0 0.00026809
19330.0 0.0002657
19350.0 0.00026321
19370.0 0.0002608
19390.0 0.00025844
19410.0 0.00025602
19430.0 0.00025358
19450.0 0.00025124
19470.0 0.00024888
19490.0 0.00024645
19510.0 0.00024408
19530.0 0.00024175
19550.0 0.00023933
19570.0 0.00023691
19590.0 0.0002346
19610.0 0.00023225
19630.0 0.00022985
19650.0 0.00022752
19670.0 0.00022523
19690.0 0.00022284
19710.0 0.00022048
19730.0 0.00021819
19750.0 0.00021586
19770.0 0.00021346
19790.0 0.00021116
19810.0 0.00020889
19830.0 0.00020654
19850.0 0.0002042
19870.0 0.00020192
19890.0 0.00019953
19910.0 0.00019699
19930.0 0.00019441
19950.0 0.00019165
19970.0 0.00018851
19990.0 0.00018503
20010.0 0.00018137
20030.0 0.00017726
20050.0 0.0001728
20070.0 0.0001683
20090.0 0.00016379
20110.0 0.00015908
20130.0 0.00015469
20150.0 0.00015069
20170.0 0.00014688
20190.0 0.00014335
20210.0 0.00014031
20230.0 0.00013762
20250.0 0.00013518
20270.0 0.00013315
20290.0 0.00013149
20310.0 0.00013012
20330.0 0.00012905
20350.0 0.00012834
20370.0 0.00012789
20390.0 0.00012772
20410.0 0.00012782
20430.0 0.00012816
20450.0 0.00012878
20470.0 0.00012965
20490.0 0.00013072
20510.0 0.00013202
20530.0 0.00013361
20550.0 0.00013536
20570.0 0.00013722
20590.0 0.00013933
20610.0 0.00014158
20630.0 0.00014385
20650.0 0.00014622
20670.0 0.00014876
20690.0 0.00015119
20710.0 0.00015355
20730.0 0.00015596
20750.0 0.00015831
20770.0 0.00016048
20790.0 0.00016262
20810.0 0.00016477
20830.0 0.00016681
20850.0 0.00016879
20870.0 0.00017086
20890.0 0.00017297
20910.0 0.00017501
20930.0 0.00017717
20950.0 0.00017946
20970.0 0.00018174
20990.0 0.00018403
21010.0 0.00018649
21030.0 0.0001889
21050.0 0.00019119
21070.0 0.00019344
21090.0 0.00019562
21110.0 0.00019751
21130.0 0.00019917
21150.0 0.00020063
21170.0 0.0002018
21190.0 0.00020262
21210.0 0.00020317
21230.0 0.00020338
21250.0 0.00020326
21270.0 0.00020283
21290.0 0.00020206
21310.0 0.00020099
21330.0 0.00019969
21350.0 0.00019809
21370.0 0.00019621
21390.0 0.00019417
21410.0 0.00019196
21430.0 0.00018945
21450.0 0.00018688
21470.0 0.00018429
21490.0 0.00018157
21510.0 0.00017879
21530.0 0.00017614
21550.0 0.00017352
21570.0 0.00017089
21590.0 0.00016846
21610.0 0.00016625
21630.0 0.00016417
21650.0 0.00016229
21670.0 0.00016078
21690.0 0.00015952
21710.0 0.00015854
21730.0 0.00015789
21750.0 0.00015757
21770.0 0.00015757
21790.0 0.00015791
21810.0 0.00015856
21830.0 0.00015952
21850.0 0.00016082
21870.0 0.00016238
21890.0 0.00016414
21910.0 0.00016622
21930.0 0.00016852
21950.0 0.00017092
21970.0 0.00017353
21990.0 0.00017641
22010.0 0.00017927
22030.0 0.00018217
22050.0 0.00018522
22070.0 0.00018829
22090.0 0.00019121
22110.0 0.00019417
22130.0 0.00019712
22150.0 0.00019987
22170.0 0.00020244
22190.0 0.00020494
22210.0 0.00020721
22230.0 0.00020912
22250.0 0.0002108
22270.0 0.0002122
22290.0 0.00021321
22310.0 0.00021386
22330.0 0.00021416
22350.0 0.00021403
22370.0 0.0002135
22390.0 0.00021255
22410.0 0.00021111
22430.0 0.00020933
22450.0 0.00020717
22470.0 0.00020454
22490.0 0.00020155
22510.0 0.00019835
22530.0 0.00019469
22550.0 0.00019066
22570.0 0.00018656
22590.0 0.00018225
22610.0 0.00017762
22630.0 0.00017291
22650.0 0.00016832
22670.0 0.00016349
22690.0 0.0001586
22710.0 0.0001539
22730.0 0.00014928
22750.0 0.00014449
22770.0 0.00014003
22790.0 0.00013586
22810.0 0.00013176
22830.0 0.00012786
22850.0 0.0001244
22870.0 0.00012117
22890.0 0.00011816
22910.0 0.00011558
22930.0 0.00011342
22950.0 0.00011159
22970.0 0.00011015
22990.0 0.00010923
23010.0 0.0001087
23030.0 0.00010861
23050.0 0.00010896
