#lamb flux
1010.0 4.9248e-06
1030.0 5.2258e-06
1050.0 5.572e-06
1070.0 5.9618e-06
1090.0 6.4046e-06
1110.0 6.8588e-06
1130.0 7.3161e-06
1150.0 7.7951e-06
1170.0 8.2893e-06
1190.0 8.7581e-06
1210.0 9.2333e-06
1230.0 9.7245e-06
1250.0 1.0206e-05
1270.0 1.0674e-05
1290.0 1.1168e-05
1310.0 1.1662e-05
1330.0 1.2136e-05
1350.0 1.2616e-05
1370.0 1.3111e-05
1390.0 1.3594e-05
1410.0 1.4063e-05
1430.0 1.4554e-05
1450.0 1.5045e-05
1470.0 1.5519e-05
1490.0 1.5999e-05
1510.0 1.6506e-05
1530.0 1.6987e-05
1550.0 1.7462e-05
1570.0 1.7953e-05
1590.0 1.8445e-05
1610.0 1.8916e-05
1630.0 1.9402e-05
1650.0 1.99e-05
1670.0 2.0383e-05
1690.0 2.086e-05
1710.0 2.1356e-05
1730.0 2.1855e-05
1750.0 2.2324e-05
1770.0 2.2809e-05
1790.0 2.3303e-05
1810.0 2.3782e-05
1830.0 2.4254e-05
1850.0 2.4756e-05
1870.0 2.5245e-05
1890.0 2.5719e-05
1910.0 2.6204e-05
1930.0 2.6701e-05
1950.0 2.7177e-05
1970.0 2.765e-05
1990.0 2.8141e-05
2010.0 2.8626e-05
2030.0 2.9096e-05
2050.0 2.9583e-05
2070.0 3.0084e-05
2090.0 3.0559e-05
2110.0 3.1035e-05
2130.0 3.1529e-05
2150.0 3.2016e-05
2170.0 3.2486e-05
2190.0 3.2977e-05
2210.0 3.3474e-05
2230.0 3.3956e-05
2250.0 3.444e-05
2270.0 3.4949e-05
2290.0 3.5446e-05
2310.0 3.5929e-05
2330.0 3.6431e-05
2350.0 3.6942e-05
2370.0 3.7437e-05
2390.0 3.7942e-05
2410.0 3.8472e-05
2430.0 3.8988e-05
2450.0 3.9486e-05
2470.0 3.9975e-05
2490.0 4.0431e-05
2510.0 4.0823e-05
2530.0 4.1209e-05
2550.0 4.1689e-05
2570.0 4.2423e-05
2590.0 4.3631e-05
2610.0 4.5772e-05
2630.0 4.9122e-05
2650.0 5.3644e-05
2670.0 5.95e-05
2690.0 6.6634e-05
2710.0 7.4223e-05
2730.0 8.1796e-05
2750.0 8.9489e-05
2770.0 9.6662e-05
2790.0 0.00010307
2810.0 0.00010909
2830.0 0.00011509
2850.0 0.00012062
2870.0 0.00012609
2890.0 0.0001318
2910.0 0.00013758
2930.0 0.00014318
2950.0 0.00014905
2970.0 0.00015508
2990.0 0.00016095
3010.0 0.00034551
3030.0 0.00035814
3050.0 0.0003709
3070.0 0.00038311
3090.0 0.00039592
3110.0 0.00040925
3130.0 0.00042241
3150.0 0.00043546
3170.0 0.0004488
3190.0 0.00046034
3210.0 0.00046928
3230.0 0.0004763
3250.0 0.00041977
3270.0 0.00036362
3290.0 0.0002777
3310.0 0.00031119
3330.0 0.00033515
3350.0 0.00035794
3370.0 0.00038055
3390.0 0.00040319
3410.0 0.00042583
3430.0 0.00044842
3450.0 0.00047107
3470.0 0.00049364
3490.0 0.00051274
3510.0 0.00051917
3530.0 0.00054327
3550.0 0.00066375
3570.0 0.00084141
3590.0 0.00095208
3610.0 0.0010837
3630.0 0.0010095
3650.0 0.0009234
3670.0 0.00088997
3690.0 0.0010578
3710.0 0.0013424
3730.0 0.0014431
3750.0 0.0014981
3770.0 0.0015129
3790.0 0.0014879
3810.0 0.0013504
3830.0 0.0010458
3850.0 0.00083527
3870.0 0.00081364
3890.0 0.0011104
3910.0 0.0015098
3930.0 0.0017702
3950.0 0.0018679
3970.0 0.0018583
3990.0 0.0021206
4010.0 0.0023706
4030.0 0.0022174
4050.0 0.0019398
4070.0 0.0016411
4090.0 0.0016313
4110.0 0.0018482
4130.0 0.0018757
4150.0 0.0018909
4170.0 0.0017816
4190.0 0.0016987
4210.0 0.0017197
4230.0 0.0019765
4250.0 0.0019959
4270.0 0.0019827
4290.0 0.0019639
4310.0 0.0019656
4330.0 0.0021717
4350.0 0.0025011
4370.0 0.0025417
4390.0 0.0021995
4410.0 0.0018169
4430.0 0.0015577
4450.0 0.0013403
4470.0 0.0012986
4490.0 0.0015525
4510.0 0.0017418
4530.0 0.0019096
4550.0 0.0020525
4570.0 0.0024249
4590.0 0.0034577
4610.0 0.0046318
4630.0 0.0047976
4650.0 0.0045545
4670.0 0.0048404
4690.0 0.0053099
4710.0 0.004695
4730.0 0.0034573
4750.0 0.002631
4770.0 0.0023953
4790.0 0.0024044
4810.0 0.002254
4830.0 0.0024591
4850.0 0.0031221
4870.0 0.0038778
4890.0 0.0034658
4910.0 0.0030464
4930.0 0.0033798
4950.0 0.0044404
4970.0 0.0057612
4990.0 0.0059377
5010.0 0.0051156
5030.0 0.0038385
5050.0 0.0027522
5070.0 0.0023144
5090.0 0.0021952
5110.0 0.0022275
5130.0 0.0023176
5150.0 0.0022869
5170.0 0.0023307
5190.0 0.0022567
5210.0 0.0023319
5230.0 0.0024951
5250.0 0.002751
5270.0 0.0033909
5290.0 0.0038721
5310.0 0.0038927
5330.0 0.0040542
5350.0 0.0045764
5370.0 0.0048682
5390.0 0.0045177
5410.0 0.0038695
5430.0 0.0036816
5450.0 0.0042512
5470.0 0.0054869
5490.0 0.0068135
5510.0 0.0074966
5530.0 0.0076568
5550.0 0.0073014
5570.0 0.0068022
5590.0 0.0065765
5610.0 0.0066577
5630.0 0.0068149
5650.0 0.0068286
5670.0 0.0067277
5690.0 0.0065411
5710.0 0.0058712
5730.0 0.0049122
5750.0 0.0041228
5770.0 0.0041473
5790.0 0.0045573
5810.0 0.0049024
5830.0 0.0050639
5850.0 0.0050596
5870.0 0.0046771
5890.0 0.0040944
5910.0 0.0040068
5930.0 0.0043462
5950.0 0.0044906
5970.0 0.004116
5990.0 0.0035442
6010.0 0.0029237
6030.0 0.0024553
6050.0 0.0024179
6070.0 0.0027484
6090.0 0.0028936
6110.0 0.0026459
6130.0 0.0024489
6150.0 0.0026016
6170.0 0.0031148
6190.0 0.0037163
6210.0 0.004041
6230.0 0.0039012
6250.0 0.0035758
6270.0 0.0030943
6290.0 0.0025652
6310.0 0.0021232
6330.0 0.0019179
6350.0 0.0019975
6370.0 0.0021655
6390.0 0.0023439
6410.0 0.0026669
6430.0 0.0032836
6450.0 0.0041353
6470.0 0.0047073
6490.0 0.0047193
6510.0 0.0046078
6530.0 0.0046951
6550.0 0.0047999
6570.0 0.0048423
6590.0 0.0048425
6610.0 0.004711
6630.0 0.0047176
6650.0 0.0047336
6670.0 0.0045513
6690.0 0.0040813
6710.0 0.00345
6730.0 0.0033034
6750.0 0.0035501
6770.0 0.0038602
6790.0 0.0039793
6810.0 0.0039344
6830.0 0.0038806
6850.0 0.0037961
6870.0 0.0035793
6890.0 0.0033727
6910.0 0.0032234
6930.0 0.0031069
6950.0 0.0032979
6970.0 0.0035895
6990.0 0.0037859
7010.0 0.0038301
7030.0 0.0036197
7050.0 0.0031424
7070.0 0.0025476
7090.0 0.0021644
7110.0 0.0020878
7130.0 0.0022022
7150.0 0.0022295
7170.0 0.0020507
7190.0 0.0020106
7210.0 0.0022151
7230.0 0.0025438
7250.0 0.0029074
7270.0 0.0030617
7290.0 0.0028828
7310.0 0.0025579
7330.0 0.0023409
7350.0 0.0022913
7370.0 0.0023513
7390.0 0.0024572
7410.0 0.0026329
7430.0 0.0029928
7450.0 0.0034791
7470.0 0.0039722
7490.0 0.0042019
7510.0 0.0040713
7530.0 0.003522
7550.0 0.002868
7570.0 0.002384
7590.0 0.0021003
7610.0 0.0021597
7630.0 0.002494
7650.0 0.0028664
7670.0 0.0032415
7690.0 0.0035595
7710.0 0.0037895
7730.0 0.0039822
7750.0 0.0041626
7770.0 0.0043219
7790.0 0.0043359
7810.0 0.0043797
7830.0 0.004515
7850.0 0.0045203
7870.0 0.0043976
7890.0 0.0040821
7910.0 0.0038327
7930.0 0.0036516
7950.0 0.0036465
7970.0 0.0036208
7990.0 0.0036545
8010.0 0.0036397
8030.0 0.0036526
8050.0 0.0037484
8070.0 0.0036925
8090.0 0.0036917
8110.0 0.003548
8130.0 0.0035257
8150.0 0.003428
8170.0 0.0033314
8190.0 0.0032851
8210.0 0.0033085
8230.0 0.003105
8250.0 0.0029108
8270.0 0.0025428
8290.0 0.0020509
8310.0 0.001591
8330.0 0.0012223
8350.0 0.0010789
8370.0 0.0012148
8390.0 0.0014043
8410.0 0.0015515
8430.0 0.001723
8450.0 0.0018164
8470.0 0.0019028
8490.0 0.0021162
8510.0 0.0023591
8530.0 0.002742
8550.0 0.0032166
8570.0 0.0036446
8590.0 0.0039883
8610.0 0.0042811
8630.0 0.0044907
8650.0 0.0045251
8670.0 0.0045366
8690.0 0.004688
8710.0 0.0047772
8730.0 0.0048739
8750.0 0.0047756
8770.0 0.0047916
8790.0 0.0047256
8810.0 0.0044008
8830.0 0.0042831
8850.0 0.0040408
8870.0 0.00386
8890.0 0.0036872
8910.0 0.003781
8930.0 0.0035579
8950.0 0.0034264
8970.0 0.0033767
8990.0 0.0032985
9010.0 0.0032395
9030.0 0.0031541
9050.0 0.003135
9070.0 0.0031264
9090.0 0.0031179
9110.0 0.0031099
9130.0 0.003101
9150.0 0.0030918
9170.0 0.0030787
9190.0 0.0030608
9210.0 0.003076
9230.0 0.0030602
9250.0 0.0030474
9270.0 0.0030354
9290.0 0.0030239
9310.0 0.0030127
9330.0 0.0030016
9350.0 0.0029906
9370.0 0.0029796
9390.0 0.0029683
9410.0 0.0029571
9430.0 0.0029455
9450.0 0.0029328
9470.0 0.0029203
9490.0 0.0029097
9510.0 0.0028984
9530.0 0.0028869
9550.0 0.0028752
9570.0 0.0028633
9590.0 0.0028513
9610.0 0.0028392
9630.0 0.002827
9650.0 0.0028148
9670.0 0.0028026
9690.0 0.0027903
9710.0 0.0027781
9730.0 0.0027658
9750.0 0.0027534
9770.0 0.0027411
9790.0 0.0027287
9810.0 0.0027164
9830.0 0.002704
9850.0 0.0026917
9870.0 0.0026794
9890.0 0.002667
9910.0 0.0026547
9930.0 0.0026421
9950.0 0.0026131
9970.0 0.0026057
9990.0 0.0025975
10010.0 0.0025887
10030.0 0.0025786
10050.0 0.0025672
10070.0 0.0025549
10090.0 0.0025439
10110.0 0.0025318
10130.0 0.0025203
10150.0 0.0025086
10170.0 0.0024964
10190.0 0.0024837
10210.0 0.0024717
10230.0 0.0024601
10250.0 0.0024478
10270.0 0.0024357
10290.0 0.0024242
10310.0 0.0024121
10330.0 0.0023995
10350.0 0.0023878
10370.0 0.0023761
10390.0 0.0023638
10410.0 0.0023517
10430.0 0.0023403
10450.0 0.0023283
10470.0 0.002316
10490.0 0.0023043
10510.0 0.0022926
10530.0 0.00228
10550.0 0.0022678
10570.0 0.0022562
10590.0 0.0022441
10610.0 0.0022317
10630.0 0.0022199
10650.0 0.0022081
10670.0 0.0021954
10690.0 0.0021832
10710.0 0.0021713
10730.0 0.0021589
10750.0 0.0021458
10770.0 0.002134
10790.0 0.0021218
10810.0 0.0021089
10830.0 0.0020964
10850.0 0.0020843
10870.0 0.0020709
10890.0 0.0020572
10910.0 0.0020436
10930.0 0.002029
10950.0 0.0020121
10970.0 0.0019938
10990.0 0.0019742
11010.0 0.0017817
11030.0 0.0017581
11050.0 0.0017352
11070.0 0.0017119
11090.0 0.0016867
11110.0 0.0016634
11130.0 0.0016408
11150.0 0.0016174
11170.0 0.0015941
11190.0 0.0015724
11210.0 0.0015501
11230.0 0.0015271
11250.0 0.0015052
11270.0 0.001484
11290.0 0.0014619
11310.0 0.0014402
11330.0 0.0014207
11350.0 0.0014012
11370.0 0.0013818
11390.0 0.0013639
11410.0 0.0013471
11430.0 0.0013296
11450.0 0.0013129
11470.0 0.0012972
11490.0 0.0012811
11510.0 0.001264
11530.0 0.0012476
11550.0 0.0012307
11570.0 0.0012122
11590.0 0.0011929
11610.0 0.0011736
11630.0 0.0011523
11650.0 0.0011293
11670.0 0.0011068
11690.0 0.0010836
11710.0 0.0010589
11730.0 0.0010343
11750.0 0.0010109
11770.0 0.00098659
11790.0 0.00096244
11810.0 0.00093996
11830.0 0.00091841
11850.0 0.00089653
11870.0 0.00087664
11890.0 0.00085869
11910.0 0.00084119
11930.0 0.00082462
11950.0 0.00080994
11970.0 0.00079607
11990.0 0.00078239
12010.0 0.00077007
12030.0 0.00075885
12050.0 0.0007479
12070.0 0.00073735
12090.0 0.00072832
12110.0 0.00071974
12130.0 0.00071152
12150.0 0.00070433
12170.0 0.00069824
12190.0 0.00069251
12210.0 0.00068796
12230.0 0.00068487
12250.0 0.000683
12270.0 0.0006825
12290.0 0.00068375
12310.0 0.00068669
12330.0 0.00069145
12350.0 0.00069814
12370.0 0.00070652
12390.0 0.00071672
12410.0 0.00072912
12430.0 0.00074255
12450.0 0.00075707
12470.0 0.00077296
12490.0 0.00078952
12510.0 0.00080583
12530.0 0.00082254
12550.0 0.00083926
12570.0 0.00085493
12590.0 0.00086961
12610.0 0.00088362
12630.0 0.00089621
12650.0 0.00090688
12670.0 0.00091624
12690.0 0.00092402
12710.0 0.00093
12730.0 0.00093437
12750.0 0.00093713
12770.0 0.00093825
12790.0 0.00093798
12810.0 0.00093627
12830.0 0.00093308
12850.0 0.00092903
12870.0 0.00092403
12890.0 0.00091783
12910.0 0.00091096
12930.0 0.00090375
12950.0 0.00089558
12970.0 0.00088665
12990.0 0.00087781
13010.0 0.00086854
13030.0 0.00085849
13050.0 0.00084825
13070.0 0.00083813
13090.0 0.00082722
13110.0 0.00081594
13130.0 0.00080495
13150.0 0.00079391
13170.0 0.00078236
13190.0 0.00077158
13210.0 0.00076172
13230.0 0.00075226
13250.0 0.00074379
13270.0 0.00073692
13290.0 0.00073134
13310.0 0.00072714
13330.0 0.00072479
13350.0 0.0007241
13370.0 0.00072489
13390.0 0.00072709
13410.0 0.00073021
13430.0 0.00073397
13450.0 0.00073805
13470.0 0.00074181
13490.0 0.00074485
13510.0 0.00074691
13530.0 0.00074744
13550.0 0.0007463
13570.0 0.00074336
13590.0 0.00073837
13610.0 0.00073174
13630.0 0.00072377
13650.0 0.00071407
13670.0 0.00070333
13690.0 0.00069223
13710.0 0.00068054
13730.0 0.00066815
13750.0 0.00065665
13770.0 0.00064562
13790.0 0.0006348
13810.0 0.00062475
13830.0 0.00061585
13850.0 0.00060743
13870.0 0.00059966
13890.0 0.0005929
13910.0 0.00058687
13930.0 0.00058125
13950.0 0.00057627
13970.0 0.00057202
13990.0 0.00056808
14010.0 0.00056449
14030.0 0.00056135
14050.0 0.00055852
14070.0 0.00055583
14090.0 0.00055341
14110.0 0.00055121
14130.0 0.00054909
14150.0 0.00054704
14170.0 0.00054511
14190.0 0.00054322
14210.0 0.00054133
14230.0 0.00053951
14250.0 0.00053777
14270.0 0.00053608
14290.0 0.00053451
14310.0 0.00053312
14330.0 0.0005319
14350.0 0.00053086
14370.0 0.00053003
14390.0 0.00052936
14410.0 0.00052885
14430.0 0.00052846
14450.0 0.00052809
14470.0 0.00052773
14490.0 0.00052734
14510.0 0.00052684
14530.0 0.00052621
14550.0 0.00052549
14570.0 0.00052468
14590.0 0.00052382
14610.0 0.00052299
14630.0 0.0005223
14650.0 0.00052181
14670.0 0.00052161
14690.0 0.00052188
14710.0 0.00052275
14730.0 0.00052409
14750.0 0.00052616
14770.0 0.00052914
14790.0 0.00053284
14810.0 0.00053725
14830.0 0.00054298
14850.0 0.00054956
14870.0 0.00055667
14890.0 0.00056461
14910.0 0.0005733
14930.0 0.00058174
14950.0 0.00058963
14970.0 0.00059713
14990.0 0.00060324
15010.0 0.00060759
15030.0 0.00061044
15050.0 0.00061183
15070.0 0.0006117
15090.0 0.00061063
15110.0 0.00060891
15130.0 0.00060675
15150.0 0.00060438
15170.0 0.00060186
15190.0 0.00059928
15210.0 0.00059669
15230.0 0.00059409
15250.0 0.00059146
15270.0 0.00058883
15290.0 0.00058622
15310.0 0.0005836
15330.0 0.00058096
15350.0 0.00057834
15370.0 0.00057573
15390.0 0.00057308
15410.0 0.00057045
15430.0 0.00056783
15450.0 0.0005652
15470.0 0.00056256
15490.0 0.00055995
15510.0 0.00055734
15530.0 0.00055471
15550.0 0.0005521
15570.0 0.0005495
15590.0 0.00054689
15610.0 0.00054427
15630.0 0.00054168
15650.0 0.00053909
15670.0 0.00053649
15690.0 0.00053391
15710.0 0.00053135
15730.0 0.00052877
15750.0 0.0005262
15770.0 0.00052365
15790.0 0.0005211
15810.0 0.00051854
15830.0 0.00051601
15850.0 0.00051349
15870.0 0.00051097
15890.0 0.00050845
15910.0 0.00050596
15930.0 0.00050347
15950.0 0.00050097
15970.0 0.0004985
15990.0 0.00049605
16010.0 0.00049358
16030.0 0.00049113
16050.0 0.00048871
16070.0 0.00048628
16090.0 0.00048386
16110.0 0.00048146
16130.0 0.00047908
16150.0 0.00047669
16170.0 0.00047431
16190.0 0.00047196
16210.0 0.00046961
16230.0 0.00046727
16250.0 0.00046495
16270.0 0.00046265
16290.0 0.00046034
16310.0 0.00045805
16330.0 0.00045578
16350.0 0.00045352
16370.0 0.00045125
16390.0 0.00044902
16410.0 0.0004468
16430.0 0.00044458
16450.0 0.00044238
16470.0 0.00044021
16490.0 0.00043803
16510.0 0.00043586
16530.0 0.00043372
16550.0 0.00043159
16570.0 0.00042946
16590.0 0.00042734
16610.0 0.00042526
16630.0 0.00042318
16650.0 0.0004211
16670.0 0.00041906
16690.0 0.00041702
16710.0 0.00041498
16730.0 0.00041296
16750.0 0.00041097
16770.0 0.00040898
16790.0 0.00040699
16810.0 0.00040504
16830.0 0.0004031
16850.0 0.00040116
16870.0 0.00039924
16890.0 0.00039735
16910.0 0.00039545
16930.0 0.00039355
16950.0 0.0003917
16970.0 0.00038985
16990.0 0.000388
17010.0 0.00038618
17030.0 0.00038438
17050.0 0.00038257
17070.0 0.00038078
17090.0 0.00037901
17110.0 0.00037726
17130.0 0.0003755
17150.0 0.00037377
17170.0 0.00037206
17190.0 0.00037034
17210.0 0.00036865
17230.0 0.00036698
17250.0 0.00036531
17270.0 0.00036365
17290.0 0.00036201
17310.0 0.00036038
17330.0 0.00035876
17350.0 0.00035715
17370.0 0.00035557
17390.0 0.000354
17410.0 0.00035242
17430.0 0.00035088
17450.0 0.00034934
17470.0 0.0003478
17490.0 0.00034628
17510.0 0.00034479
17530.0 0.0003433
17550.0 0.00034181
17570.0 0.00034035
17590.0 0.0003389
17610.0 0.00033745
17630.0 0.00033602
17650.0 0.00033461
17670.0 0.0003332
17690.0 0.00033179
17710.0 0.00033041
17730.0 0.00032905
17750.0 0.00032768
17770.0 0.00032633
17790.0 0.000325
17810.0 0.00032367
17830.0 0.00032235
17850.0 0.00032105
17870.0 0.00031976
17890.0 0.00031847
17910.0 0.00031719
17930.0 0.00031594
17950.0 0.00031469
17970.0 0.00031344
17990.0 0.00031222
18010.0 0.00031101
18030.0 0.00030978
18050.0 0.00030859
18070.0 0.00030741
18090.0 0.00030623
18110.0 0.00030505
18130.0 0.0003039
18150.0 0.00030276
18170.0 0.00030161
18190.0 0.00030049
18210.0 0.00029938
18230.0 0.00029826
18250.0 0.00029715
18270.0 0.00029607
18290.0 0.000295
18310.0 0.00029392
18330.0 0.00029286
18350.0 0.00029182
18370.0 0.00029077
18390.0 0.00028973
18410.0 0.00028871
18430.0 0.0002877
18450.0 0.00028668
18470.0 0.00028568
18490.0 0.0002847
18510.0 0.00028371
18530.0 0.00028274
18550.0 0.00028178
18570.0 0.00028083
18590.0 0.00027987
18610.0 0.00027893
18630.0 0.00027801
18650.0 0.00027708
18670.0 0.00027616
18690.0 0.00027526
18710.0 0.00027436
18730.0 0.00027346
18750.0 0.00027258
18770.0 0.00027172
18790.0 0.00027084
18810.0 0.00026997
18830.0 0.00026913
18850.0 0.00026828
18870.0 0.00026743
18890.0 0.00026661
18910.0 0.00026579
18930.0 0.00026496
18950.0 0.00026415
18970.0 0.00026336
18990.0 0.00026256
19010.0 0.00026176
19030.0 0.00026098
19050.0 0.00026021
19070.0 0.00025943
19090.0 0.00025867
19110.0 0.00025792
19130.0 0.00025717
19150.0 0.00025642
19170.0 0.00025569
19190.0 0.00025496
19210.0 0.00025423
19230.0 0.00025351
19250.0 0.0002528
19270.0 0.00025209
19290.0 0.00025139
19310.0 0.0002507
19330.0 0.00025002
19350.0 0.00024932
19370.0 0.00024864
19390.0 0.00024798
19410.0 0.00024731
19430.0 0.00024664
19450.0 0.00024599
19470.0 0.00024535
19490.0 0.0002447
19510.0 0.00024406
19530.0 0.00024343
19550.0 0.0002428
19570.0 0.00024217
19590.0 0.00024156
19610.0 0.00024094
19630.0 0.00024033
19650.0 0.00023973
19670.0 0.00023914
19690.0 0.00023854
19710.0 0.00023795
19730.0 0.00023737
19750.0 0.00023679
19770.0 0.0002362
19790.0 0.00023564
19810.0 0.00023507
19830.0 0.0002345
19850.0 0.00023393
19870.0 0.00023335
19890.0 0.00023272
19910.0 0.00023201
19930.0 0.00023118
19950.0 0.00023017
19970.0 0.00022886
19990.0 0.00022719
20010.0 0.0002252
20030.0 0.00022276
20050.0 0.00021987
20070.0 0.00021673
20090.0 0.00021336
20110.0 0.00020959
20130.0 0.00020581
20150.0 0.00020211
20170.0 0.00019831
20190.0 0.0001945
20210.0 0.00019091
20230.0 0.00018742
20250.0 0.00018392
20270.0 0.00018064
20290.0 0.00017761
20310.0 0.00017468
20330.0 0.00017187
20350.0 0.00016945
20370.0 0.00016722
20390.0 0.00016516
20410.0 0.00016337
20430.0 0.00016186
20450.0 0.00016052
20470.0 0.00015942
20490.0 0.00015857
20510.0 0.00015794
20530.0 0.0001575
20550.0 0.00015727
20570.0 0.0001572
20590.0 0.0001573
20610.0 0.00015753
20630.0 0.00015787
20650.0 0.00015831
20670.0 0.00015886
20690.0 0.00015943
20710.0 0.00016001
20730.0 0.00016063
20750.0 0.00016124
20770.0 0.00016178
20790.0 0.00016229
20810.0 0.00016275
20830.0 0.00016311
20850.0 0.00016338
20870.0 0.00016356
20890.0 0.00016363
20910.0 0.00016357
20930.0 0.0001634
20950.0 0.0001631
20970.0 0.0001627
20990.0 0.00016219
21010.0 0.00016155
21030.0 0.00016081
21050.0 0.00016001
21070.0 0.00015911
21090.0 0.00015812
21110.0 0.00015711
21130.0 0.00015608
21150.0 0.00015498
21170.0 0.00015388
21190.0 0.00015282
21210.0 0.00015175
21230.0 0.00015068
21250.0 0.0001497
21270.0 0.00014878
21290.0 0.0001479
21310.0 0.0001471
21330.0 0.00014642
21350.0 0.0001458
21370.0 0.00014528
21390.0 0.00014487
21410.0 0.00014455
21430.0 0.00014434
21450.0 0.00014423
21470.0 0.00014422
21490.0 0.00014431
21510.0 0.0001445
21530.0 0.00014477
21550.0 0.00014513
21570.0 0.00014558
21590.0 0.00014611
21610.0 0.00014669
21630.0 0.00014736
21650.0 0.00014813
21670.0 0.00014889
21690.0 0.00014972
21710.0 0.00015062
21730.0 0.00015154
21750.0 0.00015247
21770.0 0.00015348
21790.0 0.0001545
21810.0 0.0001555
21830.0 0.00015651
21850.0 0.00015755
21870.0 0.00015855
21890.0 0.0001595
21910.0 0.00016047
21930.0 0.0001614
21950.0 0.00016225
21970.0 0.00016307
21990.0 0.00016386
22010.0 0.00016455
22030.0 0.00016515
22050.0 0.00016569
22070.0 0.00016614
22090.0 0.00016648
22110.0 0.00016673
22130.0 0.00016687
22150.0 0.00016688
22170.0 0.00016679
22190.0 0.00016656
22210.0 0.00016621
22230.0 0.00016574
22250.0 0.00016515
22270.0 0.00016441
22290.0 0.00016357
22310.0 0.00016263
22330.0 0.00016151
22350.0 0.0001603
22370.0 0.00015903
22390.0 0.00015763
22410.0 0.00015609
22430.0 0.00015454
22450.0 0.00015293
22470.0 0.0001512
22490.0 0.00014943
22510.0 0.00014768
22530.0 0.00014583
22550.0 0.00014393
22570.0 0.00014209
22590.0 0.00014026
22610.0 0.00013838
22630.0 0.00013655
22650.0 0.00013483
22670.0 0.00013309
22690.0 0.00013138
22710.0 0.00012979
22730.0 0.00012826
22750.0 0.00012672
22770.0 0.00012531
22790.0 0.000124
22810.0 0.00012274
22830.0 0.00012153
22850.0 0.00012044
22870.0 0.00011941
22890.0 0.0001184
22910.0 0.00011748
22930.0 0.00011664
22950.0 0.00011582
22970.0 0.00011504
22990.0 0.00011436
23010.0 0.0001137
23030.0 0.00011307
23050.0 0.00011249
