#lamb flux
1010.0 1.6395e-06
1030.0 1.7794e-06
1050.0 1.9406e-06
1070.0 2.1221e-06
1090.0 2.3282e-06
1110.0 2.5398e-06
1130.0 2.7529e-06
1150.0 2.9763e-06
1170.0 3.2069e-06
1190.0 3.4259e-06
1210.0 3.648e-06
1230.0 3.8778e-06
1250.0 4.1032e-06
1270.0 4.3225e-06
1290.0 4.5543e-06
1310.0 4.7864e-06
1330.0 5.0094e-06
1350.0 5.2352e-06
1370.0 5.4686e-06
1390.0 5.6967e-06
1410.0 5.9185e-06
1430.0 6.1506e-06
1450.0 6.3831e-06
1470.0 6.6083e-06
1490.0 6.8363e-06
1510.0 7.0772e-06
1530.0 7.3061e-06
1550.0 7.5322e-06
1570.0 7.7662e-06
1590.0 8.0005e-06
1610.0 8.2248e-06
1630.0 8.4559e-06
1650.0 8.6928e-06
1670.0 8.922e-06
1690.0 9.1479e-06
1710.0 9.3821e-06
1730.0 9.617e-06
1750.0 9.8372e-06
1770.0 1.0063e-05
1790.0 1.0292e-05
1810.0 1.0513e-05
1830.0 1.0729e-05
1850.0 1.0956e-05
1870.0 1.1176e-05
1890.0 1.1386e-05
1910.0 1.1598e-05
1930.0 1.1814e-05
1950.0 1.2016e-05
1970.0 1.2213e-05
1990.0 1.2415e-05
2010.0 1.2611e-05
2030.0 1.2795e-05
2050.0 1.2983e-05
2070.0 1.3172e-05
2090.0 1.3345e-05
2110.0 1.3514e-05
2130.0 1.3685e-05
2150.0 1.3847e-05
2170.0 1.3996e-05
2190.0 1.4149e-05
2210.0 1.4298e-05
2230.0 1.4434e-05
2250.0 1.4565e-05
2270.0 1.47e-05
2290.0 1.4824e-05
2310.0 1.4934e-05
2330.0 1.5046e-05
2350.0 1.5155e-05
2370.0 1.5251e-05
2390.0 1.5344e-05
2410.0 1.5442e-05
2430.0 1.5532e-05
2450.0 1.5616e-05
2470.0 1.571e-05
2490.0 1.5824e-05
2510.0 1.5961e-05
2530.0 1.6186e-05
2550.0 1.6601e-05
2570.0 1.7309e-05
2590.0 1.8432e-05
2610.0 2.0285e-05
2630.0 2.2939e-05
2650.0 2.6238e-05
2670.0 3.0206e-05
2690.0 3.4683e-05
2710.0 3.9037e-05
2730.0 4.2968e-05
2750.0 4.6543e-05
2770.0 4.9427e-05
2790.0 5.1597e-05
2810.0 5.3328e-05
2830.0 5.4822e-05
2850.0 5.6018e-05
2870.0 5.7123e-05
2890.0 5.8266e-05
2910.0 5.9414e-05
2930.0 6.0509e-05
2950.0 6.1683e-05
2970.0 6.2914e-05
2990.0 6.4106e-05
3010.0 0.00043991
3030.0 0.00044837
3050.0 0.00045662
3070.0 0.00046361
3090.0 0.00046942
3110.0 0.00047226
3130.0 0.00047001
3150.0 0.00046083
3170.0 0.00044105
3190.0 0.00041051
3210.0 0.00037045
3230.0 0.00032617
3250.0 0.00036003
3270.0 0.00031579
3290.0 0.00040721
3310.0 0.00031117
3330.0 0.00031475
3350.0 0.00033367
3370.0 0.00035743
3390.0 0.00038449
3410.0 0.00041202
3430.0 0.00044121
3450.0 0.00047153
3470.0 0.00050064
3490.0 0.00052489
3510.0 0.00057605
3530.0 0.00065546
3550.0 0.00066051
3570.0 0.00062422
3590.0 0.00072189
3610.0 0.00062993
3630.0 0.0007784
3650.0 0.00085372
3670.0 0.00097224
3690.0 0.00094036
3710.0 0.00078457
3730.0 0.00086481
3750.0 0.00087079
3770.0 0.00094031
3790.0 0.00099018
3810.0 0.0011179
3830.0 0.0015712
3850.0 0.0019665
3870.0 0.0023405
3890.0 0.0024206
3910.0 0.0023225
3930.0 0.0023452
3950.0 0.0024536
3970.0 0.0022851
3990.0 0.0013901
4010.0 0.00093996
4030.0 0.0015494
4050.0 0.0021062
4070.0 0.0019942
4090.0 0.001188
4110.0 0.00093926
4130.0 0.0015441
4150.0 0.0017325
4170.0 0.001447
4190.0 0.0012138
4210.0 0.0017417
4230.0 0.0016018
4250.0 0.0015446
4270.0 0.0015379
4290.0 0.0013857
4310.0 0.0016806
4330.0 0.001938
4350.0 0.0019968
4370.0 0.0018438
4390.0 0.0019396
4410.0 0.001824
4430.0 0.0013693
4450.0 0.0010762
4470.0 0.0012806
4490.0 0.0012114
4510.0 0.0017448
4530.0 0.001795
4550.0 0.0018281
4570.0 0.0022812
4590.0 0.0026507
4610.0 0.0031388
4630.0 0.0041707
4650.0 0.004594
4670.0 0.0046539
4690.0 0.0044607
4710.0 0.0044278
4730.0 0.0039195
4750.0 0.0028945
4770.0 0.0023504
4790.0 0.0018514
4810.0 0.0019913
4830.0 0.0022885
4850.0 0.0023138
4870.0 0.002079
4890.0 0.0028425
4910.0 0.0029221
4930.0 0.0031659
4950.0 0.0037172
4970.0 0.0038408
4990.0 0.0043687
5010.0 0.0045275
5030.0 0.0041746
5050.0 0.0033407
5070.0 0.0024087
5090.0 0.002029
5110.0 0.0020569
5130.0 0.0021515
5150.0 0.0020419
5170.0 0.001965
5190.0 0.0020748
5210.0 0.0021332
5230.0 0.0023452
5250.0 0.0025151
5270.0 0.0024174
5290.0 0.0027933
5310.0 0.0034926
5330.0 0.0038168
5350.0 0.0035896
5370.0 0.003613
5390.0 0.0039068
5410.0 0.0039158
5430.0 0.0038003
5450.0 0.0039502
5470.0 0.0043693
5490.0 0.0051947
5510.0 0.0062191
5530.0 0.0064779
5550.0 0.0064629
5570.0 0.006365
5590.0 0.0060928
5610.0 0.0057665
5630.0 0.0057949
5650.0 0.0060099
5670.0 0.0058071
5690.0 0.00526
5710.0 0.0051813
5730.0 0.0047916
5750.0 0.004273
5770.0 0.0038034
5790.0 0.0040319
5810.0 0.0043108
5830.0 0.00475
5850.0 0.0046796
5870.0 0.004579
5890.0 0.0047035
5910.0 0.0043421
5930.0 0.0040058
5950.0 0.0040122
5970.0 0.0041869
5990.0 0.0036941
6010.0 0.0031235
6030.0 0.0027157
6050.0 0.0024577
6070.0 0.0023172
6090.0 0.0024763
6110.0 0.0027452
6130.0 0.0027577
6150.0 0.0027815
6170.0 0.0029179
6190.0 0.0031487
6210.0 0.0036185
6230.0 0.004215
6250.0 0.0039298
6270.0 0.0034425
6290.0 0.002971
6310.0 0.0024632
6330.0 0.0021659
6350.0 0.0020786
6370.0 0.0022196
6390.0 0.0024767
6410.0 0.0029699
6430.0 0.0036482
6450.0 0.0042308
6470.0 0.0046881
6490.0 0.0053391
6510.0 0.0058198
6530.0 0.0056223
6550.0 0.0053784
6570.0 0.0054285
6590.0 0.0054248
6610.0 0.0053772
6630.0 0.005059
6650.0 0.0045672
6670.0 0.004413
6690.0 0.0043263
6710.0 0.0043815
6730.0 0.0038318
6750.0 0.0032895
6770.0 0.0032333
6790.0 0.0034483
6810.0 0.0038554
6830.0 0.0039072
6850.0 0.0035913
6870.0 0.0035778
6890.0 0.00353
6910.0 0.003325
6930.0 0.0033713
6950.0 0.0032996
6970.0 0.0032546
6990.0 0.0033498
7010.0 0.0035574
7030.0 0.0035024
7050.0 0.0032191
7070.0 0.003089
7090.0 0.0027297
7110.0 0.0023648
7130.0 0.0023291
7150.0 0.0024725
7170.0 0.0026982
7190.0 0.0027118
7210.0 0.0026334
7230.0 0.0028879
7250.0 0.0031142
7270.0 0.00323
7290.0 0.0033025
7310.0 0.0033031
7330.0 0.0031112
7350.0 0.0028848
7370.0 0.0026867
7390.0 0.0026332
7410.0 0.0028891
7430.0 0.0033413
7450.0 0.003669
7470.0 0.0040111
7490.0 0.0046451
7510.0 0.0045784
7530.0 0.0038292
7550.0 0.0033244
7570.0 0.0027874
7590.0 0.0024371
7610.0 0.0023689
7630.0 0.0023524
7650.0 0.0025489
7670.0 0.0028994
7690.0 0.0031827
7710.0 0.003628
7730.0 0.0037681
7750.0 0.0039012
7770.0 0.0041804
7790.0 0.0043508
7810.0 0.0042869
7830.0 0.0039407
7850.0 0.0039104
7870.0 0.0038082
7890.0 0.003642
7910.0 0.0033753
7930.0 0.0031965
7950.0 0.0026769
7970.0 0.0025855
7990.0 0.0025981
8010.0 0.0030174
8030.0 0.0030238
8050.0 0.0031901
8070.0 0.003106
8090.0 0.0031154
8110.0 0.0030611
8130.0 0.0029462
8150.0 0.0027366
8170.0 0.0027095
8190.0 0.002734
8210.0 0.0027637
8230.0 0.0024962
8250.0 0.0023136
8270.0 0.0020407
8290.0 0.0017138
8310.0 0.0014372
8330.0 0.0010821
8350.0 0.0008425
8370.0 0.0007888
8390.0 0.00080662
8410.0 0.00089705
8430.0 0.0011477
8450.0 0.0012649
8470.0 0.0013663
8490.0 0.0015579
8510.0 0.0016887
8530.0 0.0018914
8550.0 0.0022388
8570.0 0.0025003
8590.0 0.0026717
8610.0 0.0030323
8630.0 0.0034958
8650.0 0.0036353
8670.0 0.003713
8690.0 0.0037741
8710.0 0.0036794
8730.0 0.0035344
8750.0 0.0032699
8770.0 0.0032437
8790.0 0.003166
8810.0 0.0029211
8830.0 0.0028426
8850.0 0.002528
8870.0 0.0023666
8890.0 0.0021478
8910.0 0.0023982
8930.0 0.0022133
8950.0 0.0022444
8970.0 0.0022984
8990.0 0.0022595
9010.0 0.0023015
9030.0 0.0021959
9050.0 0.002188
9070.0 0.0021902
9090.0 0.0021923
9110.0 0.0021958
9130.0 0.0021976
9150.0 0.0021986
9170.0 0.002195
9190.0 0.0021851
9210.0 0.0022152
9230.0 0.0022097
9250.0 0.0022078
9270.0 0.0022067
9290.0 0.0022063
9310.0 0.0022062
9330.0 0.0022063
9350.0 0.0022066
9370.0 0.002207
9390.0 0.0022072
9410.0 0.0022075
9430.0 0.0022078
9450.0 0.002208
9470.0 0.0022081
9490.0 0.0022084
9510.0 0.0022085
9530.0 0.0022086
9550.0 0.0022089
9570.0 0.0022092
9590.0 0.0022094
9610.0 0.0022096
9630.0 0.00221
9650.0 0.0022104
9670.0 0.0022108
9690.0 0.0022113
9710.0 0.0022119
9730.0 0.0022124
9750.0 0.0022131
9770.0 0.002214
9790.0 0.0022149
9810.0 0.0022157
9830.0 0.0022168
9850.0 0.002218
9870.0 0.0022191
9890.0 0.0022203
9910.0 0.0022218
9930.0 0.0022233
9950.0 0.0022226
9970.0 0.002225
9990.0 0.0022274
10010.0 0.0022295
10030.0 0.0022317
10050.0 0.0022331
10070.0 0.0022296
10090.0 0.0022337
10110.0 0.0022378
10130.0 0.0022414
10150.0 0.0022447
10170.0 0.0022478
10190.0 0.0022505
10210.0 0.0022533
10230.0 0.0022562
10250.0 0.002259
10270.0 0.0022619
10290.0 0.0022649
10310.0 0.0022678
10330.0 0.0022707
10350.0 0.0022738
10370.0 0.0022769
10390.0 0.00228
10410.0 0.0022831
10430.0 0.0022863
10450.0 0.0022895
10470.0 0.0022926
10490.0 0.0022958
10510.0 0.002299
10530.0 0.0023021
10550.0 0.0023052
10570.0 0.0023084
10590.0 0.0023115
10610.0 0.0023145
10630.0 0.0023176
10650.0 0.0023207
10670.0 0.0023236
10690.0 0.0023265
10710.0 0.0023295
10730.0 0.0023323
10750.0 0.0023349
10770.0 0.0023377
10790.0 0.0023404
10810.0 0.0023429
10830.0 0.0023453
10850.0 0.0023475
10870.0 0.0023489
10890.0 0.0023492
10910.0 0.0023478
10930.0 0.0023432
10950.0 0.0023334
10970.0 0.0023173
10990.0 0.0022944
11010.0 0.0023445
11030.0 0.002298
11050.0 0.0022442
11070.0 0.0021824
11090.0 0.002111
11110.0 0.0020402
11130.0 0.0019696
11150.0 0.0018976
11170.0 0.0018281
11190.0 0.0017653
11210.0 0.0017053
11230.0 0.0016491
11250.0 0.0016003
11270.0 0.0015577
11290.0 0.0015187
11310.0 0.001485
11330.0 0.0014573
11350.0 0.0014322
11370.0 0.001409
11390.0 0.0013881
11410.0 0.0013679
11430.0 0.0013463
11450.0 0.0013241
11470.0 0.001301
11490.0 0.0012755
11510.0 0.0012472
11530.0 0.0012181
11550.0 0.0011878
11570.0 0.0011549
11590.0 0.0011215
11610.0 0.0010887
11630.0 0.0010549
11650.0 0.0010207
11670.0 0.00098886
11690.0 0.00095816
11710.0 0.00092781
11730.0 0.0008993
11750.0 0.00087331
11770.0 0.00084779
11790.0 0.00082338
11810.0 0.00080098
11830.0 0.00077965
11850.0 0.00075818
11870.0 0.00073805
11890.0 0.00071905
11910.0 0.00069982
11930.0 0.00068059
11950.0 0.00066218
11970.0 0.00064367
11990.0 0.00062444
12010.0 0.00060576
12030.0 0.00058762
12050.0 0.00056924
12070.0 0.00055099
12090.0 0.00053448
12110.0 0.00051867
12130.0 0.00050368
12150.0 0.00049055
12170.0 0.00047948
12190.0 0.00046991
12210.0 0.00046286
12230.0 0.00045853
12250.0 0.00045676
12270.0 0.00045784
12290.0 0.00046168
12310.0 0.0004679
12330.0 0.00047694
12350.0 0.00048827
12370.0 0.000501
12390.0 0.00051536
12410.0 0.00053163
12430.0 0.00054748
12450.0 0.00056314
12470.0 0.00057893
12490.0 0.00059381
12510.0 0.00060682
12530.0 0.00061883
12550.0 0.00062942
12570.0 0.0006378
12590.0 0.00064427
12610.0 0.00064916
12630.0 0.00065211
12650.0 0.00065316
12670.0 0.00065272
12690.0 0.0006508
12710.0 0.00064759
12730.0 0.00064331
12750.0 0.00063781
12770.0 0.00063148
12790.0 0.00062457
12810.0 0.00061687
12830.0 0.00060833
12850.0 0.00059954
12870.0 0.00059022
12890.0 0.00057997
12910.0 0.00056919
12930.0 0.00055807
12950.0 0.00054584
12970.0 0.0005326
12990.0 0.00051926
13010.0 0.00050529
13030.0 0.00049035
13050.0 0.00047526
13070.0 0.00046056
13090.0 0.00044534
13110.0 0.00043029
13130.0 0.0004163
13150.0 0.00040308
13170.0 0.00039032
13190.0 0.00037928
13210.0 0.00036994
13230.0 0.00036183
13250.0 0.00035529
13270.0 0.00035053
13290.0 0.00034718
13310.0 0.00034515
13330.0 0.00034444
13350.0 0.0003447
13370.0 0.00034574
13390.0 0.00034736
13410.0 0.00034909
13430.0 0.00035087
13450.0 0.00035251
13470.0 0.00035372
13490.0 0.00035444
13510.0 0.00035465
13530.0 0.00035425
13550.0 0.00035333
13570.0 0.00035197
13590.0 0.00035022
13610.0 0.00034827
13630.0 0.00034627
13650.0 0.00034421
13670.0 0.00034225
13690.0 0.0003405
13710.0 0.00033893
13730.0 0.00033754
13750.0 0.0003364
13770.0 0.00033541
13790.0 0.00033449
13810.0 0.00033357
13830.0 0.00033261
13850.0 0.00033148
13870.0 0.0003301
13890.0 0.00032847
13910.0 0.00032656
13930.0 0.00032425
13950.0 0.00032164
13970.0 0.0003189
13990.0 0.00031593
14010.0 0.00031281
14030.0 0.00030979
14050.0 0.00030688
14070.0 0.00030401
14090.0 0.00030145
14110.0 0.00029923
14130.0 0.00029727
14150.0 0.00029562
14170.0 0.00029434
14190.0 0.00029335
14210.0 0.00029264
14230.0 0.00029222
14250.0 0.00029208
14270.0 0.00029225
14290.0 0.00029275
14310.0 0.00029352
14330.0 0.00029462
14350.0 0.00029612
14370.0 0.00029791
14390.0 0.0002999
14410.0 0.00030229
14430.0 0.00030494
14450.0 0.00030767
14470.0 0.00031059
14490.0 0.00031383
14510.0 0.00031707
14530.0 0.00032036
14550.0 0.00032397
14570.0 0.00032787
14590.0 0.0003319
14610.0 0.0003364
14630.0 0.00034163
14650.0 0.00034727
14670.0 0.00035344
14690.0 0.00036055
14710.0 0.00036854
14730.0 0.00037672
14750.0 0.00038572
14770.0 0.00039556
14790.0 0.00040557
14810.0 0.0004156
14830.0 0.00042643
14850.0 0.00043696
14870.0 0.00044678
14890.0 0.00045623
14910.0 0.00046516
14930.0 0.00047276
14950.0 0.00047907
14970.0 0.00048437
14990.0 0.0004882
15010.0 0.00049059
15030.0 0.00049187
15050.0 0.00049216
15070.0 0.00049163
15090.0 0.0004906
15110.0 0.00048921
15130.0 0.00048763
15150.0 0.000486
15170.0 0.00048427
15190.0 0.00048251
15210.0 0.00048078
15230.0 0.00047907
15250.0 0.00047732
15270.0 0.00047558
15290.0 0.00047391
15310.0 0.00047221
15330.0 0.00047049
15350.0 0.00046883
15370.0 0.00046718
15390.0 0.00046547
15410.0 0.0004638
15430.0 0.00046218
15450.0 0.00046052
15470.0 0.00045885
15490.0 0.00045725
15510.0 0.00045565
15530.0 0.00045401
15550.0 0.0004524
15570.0 0.00045083
15590.0 0.00044921
15610.0 0.00044758
15630.0 0.00044603
15650.0 0.00044446
15670.0 0.00044286
15690.0 0.0004413
15710.0 0.00043978
15730.0 0.00043821
15750.0 0.00043665
15770.0 0.00043513
15790.0 0.00043361
15810.0 0.00043203
15830.0 0.0004305
15850.0 0.00042902
15870.0 0.00042749
15890.0 0.00042596
15910.0 0.00042449
15930.0 0.000423
15950.0 0.00042146
15970.0 0.00041998
15990.0 0.00041851
16010.0 0.00041701
16030.0 0.00041549
16050.0 0.00041406
16070.0 0.00041259
16090.0 0.0004111
16110.0 0.00040964
16130.0 0.00040822
16150.0 0.00040671
16170.0 0.00040524
16190.0 0.00040381
16210.0 0.00040236
16230.0 0.00040088
16250.0 0.00039945
16270.0 0.00039803
16290.0 0.00039657
16310.0 0.00039511
16330.0 0.00039371
16350.0 0.00039227
16370.0 0.00039077
16390.0 0.00038936
16410.0 0.00038795
16430.0 0.0003865
16450.0 0.00038506
16470.0 0.00038367
16490.0 0.00038223
16510.0 0.00038077
16530.0 0.00037936
16550.0 0.00037795
16570.0 0.00037648
16590.0 0.00037504
16610.0 0.00037365
16630.0 0.00037222
16650.0 0.00037077
16670.0 0.00036937
16690.0 0.00036797
16710.0 0.00036649
16730.0 0.00036506
16750.0 0.00036366
16770.0 0.00036222
16790.0 0.00036076
16810.0 0.00035936
16830.0 0.00035795
16850.0 0.00035649
16870.0 0.00035506
16890.0 0.00035366
16910.0 0.0003522
16930.0 0.00035072
16950.0 0.00034932
16970.0 0.00034789
16990.0 0.00034642
17010.0 0.00034499
17030.0 0.00034359
17050.0 0.00034212
17070.0 0.00034066
17090.0 0.00033924
17110.0 0.0003378
17130.0 0.0003363
17150.0 0.00033486
17170.0 0.00033344
17190.0 0.00033197
17210.0 0.0003305
17230.0 0.00032908
17250.0 0.00032763
17270.0 0.00032613
17290.0 0.00032468
17310.0 0.00032324
17330.0 0.00032175
17350.0 0.00032026
17370.0 0.00031883
17390.0 0.00031737
17410.0 0.00031588
17430.0 0.00031442
17450.0 0.00031298
17470.0 0.00031146
17490.0 0.00030997
17510.0 0.00030852
17530.0 0.00030705
17550.0 0.00030553
17570.0 0.00030407
17590.0 0.00030262
17610.0 0.00030111
17630.0 0.00029962
17650.0 0.00029816
17670.0 0.00029667
17690.0 0.00029513
17710.0 0.00029367
17730.0 0.0002922
17750.0 0.00029068
17770.0 0.00028919
17790.0 0.00028774
17810.0 0.00028623
17830.0 0.0002847
17850.0 0.00028323
17870.0 0.00028175
17890.0 0.00028021
17910.0 0.0002787
17930.0 0.00027725
17950.0 0.00027574
17970.0 0.00027422
17990.0 0.00027275
18010.0 0.00027127
18030.0 0.00026972
18050.0 0.00026822
18070.0 0.00026675
18090.0 0.00026523
18110.0 0.0002637
18130.0 0.00026224
18150.0 0.00026075
18170.0 0.00025922
18190.0 0.00025773
18210.0 0.00025626
18230.0 0.00025474
18250.0 0.0002532
18270.0 0.00025173
18290.0 0.00025025
18310.0 0.00024872
18330.0 0.00024723
18350.0 0.00024578
18370.0 0.00024426
18390.0 0.00024274
18410.0 0.00024128
18430.0 0.00023979
18450.0 0.00023825
18470.0 0.00023677
18490.0 0.00023531
18510.0 0.00023381
18530.0 0.00023231
18550.0 0.00023086
18570.0 0.00022938
18590.0 0.00022786
18610.0 0.00022639
18630.0 0.00022493
18650.0 0.00022343
18670.0 0.00022193
18690.0 0.00022049
18710.0 0.00021902
18730.0 0.00021753
18750.0 0.00021608
18770.0 0.00021464
18790.0 0.00021313
18810.0 0.00021165
18830.0 0.00021022
18850.0 0.00020876
18870.0 0.00020728
18890.0 0.00020585
18910.0 0.00020442
18930.0 0.00020295
18950.0 0.00020149
18970.0 0.00020008
18990.0 0.00019863
19010.0 0.00019714
19030.0 0.00019573
19050.0 0.00019432
19070.0 0.00019286
19090.0 0.00019143
19110.0 0.00019005
19130.0 0.00018861
19150.0 0.00018716
19170.0 0.00018576
19190.0 0.00018436
19210.0 0.00018291
19230.0 0.0001815
19250.0 0.00018013
19270.0 0.00017872
19290.0 0.0001773
19310.0 0.00017593
19330.0 0.00017456
19350.0 0.00017312
19370.0 0.00017173
19390.0 0.00017037
19410.0 0.00016898
19430.0 0.00016758
19450.0 0.00016624
19470.0 0.00016488
19490.0 0.00016348
19510.0 0.00016212
19530.0 0.00016079
19550.0 0.00015941
19570.0 0.00015802
19590.0 0.0001567
19610.0 0.00015536
19630.0 0.00015399
19650.0 0.00015266
19670.0 0.00015136
19690.0 0.00015
19710.0 0.00014865
19730.0 0.00014735
19750.0 0.00014603
19770.0 0.00014467
19790.0 0.00014336
19810.0 0.00014208
19830.0 0.00014074
19850.0 0.00013941
19870.0 0.00013811
19890.0 0.00013673
19910.0 0.00013525
19930.0 0.0001337
19950.0 0.00013199
19970.0 0.00012997
19990.0 0.00012767
20010.0 0.00012517
20030.0 0.00012229
20050.0 0.00011912
20070.0 0.00011588
20090.0 0.00011262
20110.0 0.00010919
20130.0 0.00010599
20150.0 0.00010307
20170.0 0.00010029
20190.0 9.7733e-05
20210.0 9.5534e-05
20230.0 9.3583e-05
20250.0 9.1819e-05
20270.0 9.0352e-05
20290.0 8.9156e-05
20310.0 8.816e-05
20330.0 8.7374e-05
20350.0 8.6851e-05
20370.0 8.6518e-05
20390.0 8.6381e-05
20410.0 8.6447e-05
20430.0 8.6693e-05
20450.0 8.7152e-05
20470.0 8.7817e-05
20490.0 8.8648e-05
20510.0 8.9672e-05
20530.0 9.0931e-05
20550.0 9.2342e-05
20570.0 9.3856e-05
20590.0 9.5577e-05
20610.0 9.743e-05
20630.0 9.9304e-05
20650.0 0.00010126
20670.0 0.00010335
20690.0 0.00010534
20710.0 0.00010725
20730.0 0.00010916
20750.0 0.00011099
20770.0 0.00011263
20790.0 0.0001142
20810.0 0.0001157
20830.0 0.00011706
20850.0 0.00011832
20870.0 0.00011958
20890.0 0.00012079
20910.0 0.00012193
20930.0 0.0001231
20950.0 0.00012431
20970.0 0.0001255
20990.0 0.00012668
21010.0 0.00012793
21030.0 0.00012913
21050.0 0.00013024
21070.0 0.00013131
21090.0 0.0001323
21110.0 0.00013311
21130.0 0.00013376
21150.0 0.00013427
21170.0 0.00013459
21190.0 0.00013472
21210.0 0.00013467
21230.0 0.00013444
21250.0 0.00013404
21270.0 0.0001335
21290.0 0.00013279
21310.0 0.00013195
21330.0 0.00013105
21350.0 0.00013003
21370.0 0.00012891
21390.0 0.00012777
21410.0 0.0001266
21430.0 0.00012534
21450.0 0.00012411
21470.0 0.00012293
21490.0 0.00012173
21510.0 0.00012055
21530.0 0.00011948
21550.0 0.00011846
21570.0 0.00011748
21590.0 0.00011662
21610.0 0.00011588
21630.0 0.00011523
21650.0 0.0001147
21670.0 0.00011434
21690.0 0.00011412
21710.0 0.00011404
21730.0 0.00011412
21750.0 0.00011435
21770.0 0.00011476
21790.0 0.00011534
21810.0 0.00011605
21830.0 0.00011693
21850.0 0.00011799
21870.0 0.00011916
21890.0 0.00012042
21910.0 0.00012185
21930.0 0.0001234
21950.0 0.00012497
21970.0 0.00012664
21990.0 0.00012846
22010.0 0.00013023
22030.0 0.000132
22050.0 0.00013383
22070.0 0.00013564
22090.0 0.00013733
22110.0 0.00013901
22130.0 0.00014064
22150.0 0.00014211
22170.0 0.00014344
22190.0 0.00014469
22210.0 0.00014574
22230.0 0.00014656
22250.0 0.00014719
22270.0 0.00014761
22290.0 0.00014778
22310.0 0.0001477
22330.0 0.00014737
22350.0 0.00014676
22370.0 0.00014591
22390.0 0.00014479
22410.0 0.00014336
22430.0 0.00014175
22450.0 0.00013992
22470.0 0.00013781
22490.0 0.00013553
22510.0 0.00013315
22530.0 0.00013052
22550.0 0.0001277
22570.0 0.00012489
22590.0 0.00012201
22610.0 0.00011897
22630.0 0.00011594
22650.0 0.00011303
22670.0 0.00011002
22690.0 0.00010702
22710.0 0.00010417
22730.0 0.0001014
22750.0 9.8572e-05
22770.0 9.5956e-05
22790.0 9.3532e-05
22810.0 9.1171e-05
22830.0 8.894e-05
22850.0 8.6963e-05
22870.0 8.5133e-05
22890.0 8.3427e-05
22910.0 8.197e-05
22930.0 8.0746e-05
22950.0 7.9703e-05
22970.0 7.888e-05
22990.0 7.8341e-05
23010.0 7.8019e-05
23030.0 7.7935e-05
