#lamb flux
1010.0 1.802e-07
1030.0 1.993e-07
1050.0 2.2127e-07
1070.0 2.4601e-07
1090.0 2.741e-07
1110.0 3.0292e-07
1130.0 3.3192e-07
1150.0 3.6229e-07
1170.0 3.9363e-07
1190.0 4.2335e-07
1210.0 4.5346e-07
1230.0 4.8458e-07
1250.0 5.1507e-07
1270.0 5.4468e-07
1290.0 5.7597e-07
1310.0 6.0723e-07
1330.0 6.3722e-07
1350.0 6.6754e-07
1370.0 6.9884e-07
1390.0 7.2937e-07
1410.0 7.5898e-07
1430.0 7.8995e-07
1450.0 8.2091e-07
1470.0 8.5083e-07
1490.0 8.8108e-07
1510.0 9.1303e-07
1530.0 9.4332e-07
1550.0 9.7319e-07
1570.0 1.0041e-06
1590.0 1.0351e-06
1610.0 1.0646e-06
1630.0 1.0952e-06
1650.0 1.1265e-06
1670.0 1.1568e-06
1690.0 1.1867e-06
1710.0 1.2179e-06
1730.0 1.2492e-06
1750.0 1.2787e-06
1770.0 1.309e-06
1790.0 1.3401e-06
1810.0 1.3702e-06
1830.0 1.3997e-06
1850.0 1.4312e-06
1870.0 1.4619e-06
1890.0 1.4916e-06
1910.0 1.522e-06
1930.0 1.5531e-06
1950.0 1.5829e-06
1970.0 1.6124e-06
1990.0 1.6431e-06
2010.0 1.6734e-06
2030.0 1.7026e-06
2050.0 1.7328e-06
2070.0 1.7639e-06
2090.0 1.7932e-06
2110.0 1.8225e-06
2130.0 1.8528e-06
2150.0 1.8826e-06
2170.0 1.9111e-06
2190.0 1.9407e-06
2210.0 1.9706e-06
2230.0 1.9993e-06
2250.0 2.028e-06
2270.0 2.0579e-06
2290.0 2.087e-06
2310.0 2.115e-06
2330.0 2.144e-06
2350.0 2.1739e-06
2370.0 2.2036e-06
2390.0 2.2358e-06
2410.0 2.274e-06
2430.0 2.3179e-06
2450.0 2.3703e-06
2470.0 2.4375e-06
2490.0 2.5222e-06
2510.0 2.6185e-06
2530.0 2.7344e-06
2550.0 2.8795e-06
2570.0 3.06e-06
2590.0 3.2947e-06
2610.0 3.6462e-06
2630.0 4.1481e-06
2650.0 4.8042e-06
2670.0 5.6526e-06
2690.0 6.6952e-06
2710.0 7.8081e-06
2730.0 8.9077e-06
2750.0 9.9908e-06
2770.0 1.0933e-05
2790.0 1.1681e-05
2810.0 1.2275e-05
2830.0 1.2739e-05
2850.0 1.3055e-05
2870.0 1.3288e-05
2890.0 1.3472e-05
2910.0 1.3618e-05
2930.0 1.3738e-05
2950.0 1.3853e-05
2970.0 1.3965e-05
2990.0 1.407e-05
3010.0 0.0003977
3030.0 0.00040067
3050.0 0.00040354
3070.0 0.000406
3090.0 0.00040812
3110.0 0.00040943
3130.0 0.00040938
3150.0 0.00040756
3170.0 0.0004032
3190.0 0.00039634
3210.0 0.00038765
3230.0 0.0003777
3250.0 0.00036788
3270.0 0.0003607
3290.0 0.00035671
3310.0 0.00035736
3330.0 0.00036253
3350.0 0.00037154
3370.0 0.0003844
3390.0 0.00040061
3410.0 0.00041824
3430.0 0.00043804
3450.0 0.00046084
3470.0 0.00048573
3490.0 0.00051211
3510.0 0.00054193
3530.0 0.00057386
3550.0 0.00060619
3570.0 0.00063992
3590.0 0.00067659
3610.0 0.00071438
3630.0 0.00075206
3650.0 0.00079115
3670.0 0.00082683
3690.0 0.00085351
3710.0 0.0008688
3730.0 0.0008693
3750.0 0.00085721
3770.0 0.00085245
3790.0 0.00084738
3810.0 0.00082656
3830.0 0.00085215
3850.0 0.0009528
3870.0 0.001008
3890.0 0.0010035
3910.0 0.0010077
3930.0 0.0010343
3950.0 0.0010506
3970.0 0.00095718
3990.0 0.00082361
4010.0 0.0024685
4030.0 0.0029909
4050.0 0.0034289
4070.0 0.0029751
4090.0 0.0026946
4110.0 0.0023777
4130.0 0.0021884
4150.0 0.0023278
4170.0 0.002293
4190.0 0.0024442
4210.0 0.0024218
4230.0 0.0025616
4250.0 0.0030305
4270.0 0.0030661
4290.0 0.0028254
4310.0 0.0029358
4330.0 0.0031228
4350.0 0.0035014
4370.0 0.0039847
4390.0 0.0037392
4410.0 0.0027626
4430.0 0.0023387
4450.0 0.002149
4470.0 0.0016495
4490.0 0.00178
4510.0 0.0026887
4530.0 0.0031008
4550.0 0.0031277
4570.0 0.0035195
4590.0 0.0040091
4610.0 0.0054073
4630.0 0.0070229
4650.0 0.0076163
4670.0 0.0070534
4690.0 0.0067302
4710.0 0.0071143
4730.0 0.0067139
4750.0 0.0050195
4770.0 0.003682
4790.0 0.0034382
4810.0 0.0032772
4830.0 0.0030002
4850.0 0.0032922
4870.0 0.0043494
4890.0 0.0051291
4910.0 0.0045002
4930.0 0.003982
4950.0 0.0043748
4970.0 0.0056104
4990.0 0.0076035
5010.0 0.0087468
5030.0 0.0077127
5050.0 0.0052181
5070.0 0.003439
5090.0 0.002773
5110.0 0.0028518
5130.0 0.0032914
5150.0 0.003566
5170.0 0.0035125
5190.0 0.0032822
5210.0 0.0034306
5230.0 0.0036063
5250.0 0.0038866
5270.0 0.0041934
5290.0 0.0046471
5310.0 0.0054091
5330.0 0.0059858
5350.0 0.0059476
5370.0 0.0062474
5390.0 0.007169
5410.0 0.0071626
5430.0 0.0063342
5450.0 0.0058197
5470.0 0.0061795
5490.0 0.0075495
5510.0 0.0094396
5530.0 0.010827
5550.0 0.010464
5570.0 0.0095126
5590.0 0.0082713
5610.0 0.007628
5630.0 0.0073967
5650.0 0.0070447
5670.0 0.0066754
5690.0 0.0059678
5710.0 0.0058187
5730.0 0.0053599
5750.0 0.003779
5770.0 0.0029482
5790.0 0.003341
5810.0 0.0037726
5830.0 0.0046294
5850.0 0.0055108
5870.0 0.0061143
5890.0 0.0062179
5910.0 0.0061002
5930.0 0.0058066
5950.0 0.0059169
5970.0 0.0067446
5990.0 0.0063416
6010.0 0.0053162
6030.0 0.0044914
6050.0 0.0039114
6070.0 0.00389
6090.0 0.0042181
6110.0 0.0047165
6130.0 0.0047888
6150.0 0.0041203
6170.0 0.0036246
6190.0 0.004079
6210.0 0.0053923
6230.0 0.0070763
6250.0 0.0076646
6270.0 0.0066978
6290.0 0.0056352
6310.0 0.0043993
6330.0 0.0033707
6350.0 0.0030066
6370.0 0.0031617
6390.0 0.0036551
6410.0 0.004507
6430.0 0.0052629
6450.0 0.0060221
6470.0 0.0068954
6490.0 0.0083292
6510.0 0.0093132
6530.0 0.0091368
6550.0 0.0082621
6570.0 0.0070138
6590.0 0.0063245
6610.0 0.0054534
6630.0 0.0049405
6650.0 0.0046702
6670.0 0.004537
6690.0 0.0040994
6710.0 0.0037265
6730.0 0.0026841
6750.0 0.002661
6770.0 0.0028923
6790.0 0.0033245
6810.0 0.003042
6830.0 0.0031324
6850.0 0.0029298
6870.0 0.0026764
6890.0 0.0025697
6910.0 0.0027384
6930.0 0.0025649
6950.0 0.0026388
6970.0 0.0027756
6990.0 0.0031505
7010.0 0.0031773
7030.0 0.0032278
7050.0 0.0030782
7070.0 0.002933
7090.0 0.0029416
7110.0 0.0030267
7130.0 0.0032572
7150.0 0.0034594
7170.0 0.0038172
7190.0 0.0041962
7210.0 0.0041233
7230.0 0.0042388
7250.0 0.0045553
7270.0 0.0049641
7290.0 0.0058919
7310.0 0.0063933
7330.0 0.0061797
7350.0 0.0055891
7370.0 0.004863
7390.0 0.0047178
7410.0 0.0050135
7430.0 0.0055719
7450.0 0.0060688
7470.0 0.0060131
7490.0 0.0054828
7510.0 0.0062106
7530.0 0.0061427
7550.0 0.0055211
7570.0 0.0043131
7590.0 0.0029651
7610.0 0.0025449
7630.0 0.0028915
7650.0 0.0034188
7670.0 0.004255
7690.0 0.0046823
7710.0 0.0048796
7730.0 0.0051278
7750.0 0.0057566
7770.0 0.0058471
7790.0 0.0053708
7810.0 0.0049006
7830.0 0.0050536
7850.0 0.0049126
7870.0 0.004504
7890.0 0.0037843
7910.0 0.0030761
7930.0 0.0029372
7950.0 0.0026759
7970.0 0.002477
7990.0 0.0024629
8010.0 0.00018241
8030.0 0.00018004
8050.0 0.00017761
8070.0 0.00017994
8090.0 0.00019334
8110.0 0.00019005
8130.0 0.00015676
8150.0 0.00015267
8170.0 0.0001315
8190.0 0.00012463
8210.0 0.00016184
8230.0 0.00018019
8250.0 0.0001624
8270.0 0.00014135
8290.0 0.00013779
8310.0 0.00010605
8330.0 7.1478e-05
8350.0 5.0727e-05
8370.0 3.196e-05
8390.0 5.8423e-05
8410.0 6.8079e-05
8430.0 8.3918e-05
8450.0 9.8543e-05
8470.0 0.00012248
8490.0 0.00012162
8510.0 0.00011963
8530.0 0.00012485
8550.0 0.00016845
8570.0 0.00019942
8590.0 0.00021517
8610.0 0.00027181
8630.0 0.00032744
8650.0 0.00034253
8670.0 0.00036401
8690.0 0.00036605
8710.0 0.00033151
8730.0 0.00030836
8750.0 0.00027218
8770.0 0.00025826
8790.0 0.00025373
8810.0 0.00024313
8830.0 0.00019442
8850.0 0.00014233
8870.0 0.00010898
8890.0 0.00010655
8910.0 0.0001221
8930.0 0.00013889
8950.0 0.00014155
8970.0 0.00014221
8990.0 0.00012684
9010.0 0.0013292
9030.0 0.0012044
9050.0 0.0012102
9070.0 0.0012198
9090.0 0.0012282
9110.0 0.0012385
9130.0 0.0012465
9150.0 0.0012527
9170.0 0.0012593
9190.0 0.0012664
9210.0 0.0012738
9230.0 0.0012817
9250.0 0.0012896
9270.0 0.0012979
9290.0 0.0013064
9310.0 0.001315
9330.0 0.0013238
9350.0 0.0013328
9370.0 0.001342
9390.0 0.0013513
9410.0 0.0013608
9430.0 0.0013706
9450.0 0.0013804
9470.0 0.0013904
9490.0 0.0014007
9510.0 0.0014111
9530.0 0.0014216
9550.0 0.0014324
9570.0 0.0014434
9590.0 0.0014544
9610.0 0.0014656
9630.0 0.0014772
9650.0 0.0014888
9670.0 0.0015004
9690.0 0.0015124
9710.0 0.0015245
9730.0 0.0015367
9750.0 0.0015491
9770.0 0.0015618
9790.0 0.0015745
9810.0 0.0015872
9830.0 0.0016003
9850.0 0.0016135
9870.0 0.0016266
9890.0 0.00164
9910.0 0.0016536
9930.0 0.0016672
9950.0 0.0016809
9970.0 0.0016948
9990.0 0.0017089
10010.0 0.0014829
10030.0 0.0014951
10050.0 0.0015075
10070.0 0.0015203
10090.0 0.0015324
10110.0 0.0015449
10130.0 0.0015573
10150.0 0.0015697
10170.0 0.0015823
10190.0 0.0015951
10210.0 0.0016077
10230.0 0.0016203
10250.0 0.0016331
10270.0 0.0016459
10290.0 0.0016585
10310.0 0.0016713
10330.0 0.0016843
10350.0 0.001697
10370.0 0.0017096
10390.0 0.0017224
10410.0 0.0017352
10430.0 0.0017477
10450.0 0.0017603
10470.0 0.0017729
10490.0 0.0017854
10510.0 0.0017977
10530.0 0.0018103
10550.0 0.0018226
10570.0 0.0018347
10590.0 0.0018469
10610.0 0.001859
10630.0 0.0018709
10650.0 0.0018826
10670.0 0.0018945
10690.0 0.0019061
10710.0 0.0019175
10730.0 0.0019289
10750.0 0.0019404
10770.0 0.0019513
10790.0 0.0019622
10810.0 0.0019731
10830.0 0.0019836
10850.0 0.0019936
10870.0 0.0020032
10890.0 0.0020118
10910.0 0.0020183
10930.0 0.002022
10950.0 0.0020212
10970.0 0.0020143
10990.0 0.0020009
11010.0 0.0019784
11030.0 0.0019469
11050.0 0.0019086
11070.0 0.0018627
11090.0 0.0018076
11110.0 0.0017506
11130.0 0.0016911
11150.0 0.0016271
11170.0 0.0015611
11190.0 0.0014971
11210.0 0.001431
11230.0 0.0013632
11250.0 0.0012984
11270.0 0.0012362
11290.0 0.0011739
11310.0 0.0011149
11330.0 0.0010629
11350.0 0.0010137
11370.0 0.00096836
11390.0 0.0009291
11410.0 0.00089475
11430.0 0.00086283
11450.0 0.00083532
11470.0 0.00081154
11490.0 0.00078941
11510.0 0.00076809
11530.0 0.00074831
11550.0 0.00072865
11570.0 0.00070768
11590.0 0.00068597
11610.0 0.00066387
11630.0 0.00063981
11650.0 0.00061405
11670.0 0.00058867
11690.0 0.00056293
11710.0 0.00053637
11730.0 0.00051064
11750.0 0.00048683
11770.0 0.00046347
11790.0 0.00044159
11810.0 0.00042232
11830.0 0.00040509
11850.0 0.00038922
11870.0 0.00037594
11890.0 0.0003649
11910.0 0.0003552
11930.0 0.00034687
11950.0 0.00033993
11970.0 0.00033373
11990.0 0.00032786
12010.0 0.00032244
12030.0 0.00031721
12050.0 0.00031181
12070.0 0.00030619
12090.0 0.00030077
12110.0 0.00029527
12130.0 0.00028976
12150.0 0.00028468
12170.0 0.00028025
12190.0 0.00027641
12210.0 0.00027374
12230.0 0.00027244
12250.0 0.00027265
12270.0 0.00027471
12290.0 0.00027859
12310.0 0.00028417
12330.0 0.00029197
12350.0 0.0003017
12370.0 0.00031278
12390.0 0.00032556
12410.0 0.00034054
12430.0 0.00035575
12450.0 0.00037151
12470.0 0.00038827
12490.0 0.0004051
12510.0 0.00042089
12530.0 0.0004366
12550.0 0.00045175
12570.0 0.00046513
12590.0 0.00047687
12610.0 0.00048733
12630.0 0.00049567
12650.0 0.00050143
12670.0 0.00050522
12690.0 0.00050673
12710.0 0.0005059
12730.0 0.00050296
12750.0 0.00049773
12770.0 0.00049055
12790.0 0.00048184
12810.0 0.00047145
12830.0 0.00045942
12850.0 0.00044684
12870.0 0.00043354
12890.0 0.00041915
12910.0 0.00040451
12930.0 0.0003901
12950.0 0.00037505
12970.0 0.00035973
12990.0 0.00034524
13010.0 0.00033093
13030.0 0.00031646
13050.0 0.00030256
13070.0 0.00028955
13090.0 0.00027648
13110.0 0.00026384
13130.0 0.00025219
13150.0 0.00024115
13170.0 0.00023034
13190.0 0.00022073
13210.0 0.00021227
13230.0 0.00020453
13250.0 0.00019787
13270.0 0.00019261
13290.0 0.00018853
13310.0 0.00018571
13330.0 0.00018443
13350.0 0.00018458
13370.0 0.00018623
13390.0 0.00018949
13410.0 0.00019388
13430.0 0.00019959
13450.0 0.00020665
13470.0 0.00021449
13490.0 0.00022278
13510.0 0.00023214
13530.0 0.00024163
13550.0 0.00025071
13570.0 0.00025966
13590.0 0.00026839
13610.0 0.00027615
13630.0 0.00028293
13650.0 0.00028912
13670.0 0.00029425
13690.0 0.00029822
13710.0 0.0003013
13730.0 0.00030349
13750.0 0.00030459
13770.0 0.00030484
13790.0 0.00030428
13810.0 0.00030294
13830.0 0.00030096
13850.0 0.00029827
13870.0 0.00029487
13890.0 0.000291
13910.0 0.00028663
13930.0 0.00028157
13950.0 0.00027604
13970.0 0.00027039
13990.0 0.00026424
14010.0 0.0002577
14030.0 0.00025118
14050.0 0.0002446
14070.0 0.00023766
14090.0 0.00023101
14110.0 0.00022476
14130.0 0.0002187
14150.0 0.000213
14170.0 0.00020813
14190.0 0.00020392
14210.0 0.00020035
14230.0 0.00019771
14250.0 0.000196
14270.0 0.00019517
14290.0 0.00019535
14310.0 0.00019644
14330.0 0.00019839
14350.0 0.00020127
14370.0 0.00020485
14390.0 0.00020893
14410.0 0.00021372
14430.0 0.00021899
14450.0 0.00022436
14470.0 0.00022994
14490.0 0.00023588
14510.0 0.00024155
14530.0 0.00024694
14550.0 0.00025232
14570.0 0.0002575
14590.0 0.0002622
14610.0 0.00026675
14630.0 0.00027126
14650.0 0.00027546
14670.0 0.00027951
14690.0 0.00028373
14710.0 0.00028818
14730.0 0.00029262
14750.0 0.00029754
14770.0 0.00030312
14790.0 0.00030917
14810.0 0.00031573
14830.0 0.0003235
14850.0 0.00033195
14870.0 0.00034076
14890.0 0.00035026
14910.0 0.00036036
14930.0 0.00037006
14950.0 0.00037913
14970.0 0.00038772
14990.0 0.00039492
15010.0 0.00040043
15030.0 0.00040451
15050.0 0.0004072
15070.0 0.00040852
15090.0 0.00040898
15110.0 0.00040885
15130.0 0.00040833
15150.0 0.00040764
15170.0 0.00040683
15190.0 0.00040595
15210.0 0.00040509
15230.0 0.00040423
15250.0 0.00040333
15270.0 0.00040245
15290.0 0.00040162
15310.0 0.00040076
15330.0 0.00039989
15350.0 0.00039906
15370.0 0.00039823
15390.0 0.00039736
15410.0 0.00039652
15430.0 0.00039571
15450.0 0.00039488
15470.0 0.00039403
15490.0 0.00039323
15510.0 0.00039243
15530.0 0.0003916
15550.0 0.00039079
15570.0 0.00039
15590.0 0.00038919
15610.0 0.00038836
15630.0 0.00038758
15650.0 0.00038679
15670.0 0.00038598
15690.0 0.00038519
15710.0 0.00038443
15730.0 0.00038364
15750.0 0.00038284
15770.0 0.00038207
15790.0 0.0003813
15810.0 0.00038049
15830.0 0.00037972
15850.0 0.00037897
15870.0 0.00037819
15890.0 0.00037741
15910.0 0.00037666
15930.0 0.0003759
15950.0 0.00037511
15970.0 0.00037435
15990.0 0.0003736
16010.0 0.00037282
16030.0 0.00037203
16050.0 0.0003713
16070.0 0.00037054
16090.0 0.00036977
16110.0 0.00036901
16130.0 0.00036828
16150.0 0.00036749
16170.0 0.00036672
16190.0 0.00036598
16210.0 0.00036522
16230.0 0.00036444
16250.0 0.00036369
16270.0 0.00036295
16290.0 0.00036217
16310.0 0.00036141
16330.0 0.00036066
16350.0 0.0003599
16370.0 0.0003591
16390.0 0.00035836
16410.0 0.00035761
16430.0 0.00035683
16450.0 0.00035606
16470.0 0.00035532
16490.0 0.00035455
16510.0 0.00035376
16530.0 0.000353
16550.0 0.00035224
16570.0 0.00035145
16590.0 0.00035066
16610.0 0.00034992
16630.0 0.00034914
16650.0 0.00034835
16670.0 0.00034759
16690.0 0.00034682
16710.0 0.00034601
16730.0 0.00034523
16750.0 0.00034446
16770.0 0.00034367
16790.0 0.00034286
16810.0 0.00034209
16830.0 0.00034131
16850.0 0.0003405
16870.0 0.00033971
16890.0 0.00033894
16910.0 0.00033812
16930.0 0.0003373
16950.0 0.00033651
16970.0 0.00033572
16990.0 0.00033489
17010.0 0.00033409
17030.0 0.00033331
17050.0 0.00033248
17070.0 0.00033165
17090.0 0.00033085
17110.0 0.00033004
17130.0 0.00032919
17150.0 0.00032837
17170.0 0.00032757
17190.0 0.00032673
17210.0 0.00032589
17230.0 0.00032509
17250.0 0.00032426
17270.0 0.0003234
17290.0 0.00032257
17310.0 0.00032174
17330.0 0.00032089
17350.0 0.00032002
17370.0 0.00031921
17390.0 0.00031836
17410.0 0.0003175
17430.0 0.00031665
17450.0 0.00031582
17470.0 0.00031494
17490.0 0.00031407
17510.0 0.00031323
17530.0 0.00031236
17550.0 0.00031148
17570.0 0.00031063
17590.0 0.00030978
17610.0 0.00030889
17630.0 0.00030801
17650.0 0.00030716
17670.0 0.00030628
17690.0 0.00030536
17710.0 0.0003045
17730.0 0.00030363
17750.0 0.00030273
17770.0 0.00030184
17790.0 0.00030099
17810.0 0.00030008
17830.0 0.00029917
17850.0 0.00029829
17870.0 0.00029741
17890.0 0.00029648
17910.0 0.00029558
17930.0 0.0002947
17950.0 0.0002938
17970.0 0.00029288
17990.0 0.00029199
18010.0 0.0002911
18030.0 0.00029016
18050.0 0.00028925
18070.0 0.00028835
18090.0 0.00028743
18110.0 0.0002865
18130.0 0.0002856
18150.0 0.0002847
18170.0 0.00028376
18190.0 0.00028284
18210.0 0.00028194
18230.0 0.000281
18250.0 0.00028005
18270.0 0.00027915
18290.0 0.00027823
18310.0 0.00027728
18330.0 0.00027635
18350.0 0.00027545
18370.0 0.0002745
18390.0 0.00027356
18410.0 0.00027264
18430.0 0.00027171
18450.0 0.00027074
18470.0 0.00026981
18490.0 0.0002689
18510.0 0.00026795
18530.0 0.000267
18550.0 0.00026609
18570.0 0.00026514
18590.0 0.00026417
18610.0 0.00026324
18630.0 0.00026231
18650.0 0.00026135
18670.0 0.00026039
18690.0 0.00025947
18710.0 0.00025853
18730.0 0.00025757
18750.0 0.00025663
18770.0 0.0002557
18790.0 0.00025472
18810.0 0.00025376
18830.0 0.00025284
18850.0 0.00025189
18870.0 0.00025092
18890.0 0.00024998
18910.0 0.00024905
18930.0 0.00024808
18950.0 0.00024713
18970.0 0.0002462
18990.0 0.00024524
19010.0 0.00024425
19030.0 0.00024332
19050.0 0.00024238
19070.0 0.00024141
19090.0 0.00024046
19110.0 0.00023954
19130.0 0.00023857
19150.0 0.0002376
19170.0 0.00023666
19190.0 0.00023572
19210.0 0.00023474
19230.0 0.00023378
19250.0 0.00023286
19270.0 0.0002319
19290.0 0.00023093
19310.0 0.00023
19330.0 0.00022906
19350.0 0.00022808
19370.0 0.00022713
19390.0 0.00022619
19410.0 0.00022523
19430.0 0.00022426
19450.0 0.00022334
19470.0 0.0002224
19490.0 0.00022143
19510.0 0.00022048
19530.0 0.00021955
19550.0 0.00021858
19570.0 0.00021761
19590.0 0.00021669
19610.0 0.00021574
19630.0 0.00021478
19650.0 0.00021384
19670.0 0.00021292
19690.0 0.00021195
19710.0 0.00021099
19730.0 0.00021007
19750.0 0.00020913
19770.0 0.00020815
19790.0 0.00020721
19810.0 0.00020629
19830.0 0.00020533
19850.0 0.00020437
19870.0 0.00020342
19890.0 0.0002024
19910.0 0.00020129
19930.0 0.00020009
19950.0 0.00019873
19970.0 0.00019704
19990.0 0.00019502
20010.0 0.00017351
20030.0 0.000171
20050.0 0.00016806
20070.0 0.00016487
20090.0 0.00016145
20110.0 0.00015757
20130.0 0.00015365
20150.0 0.00014976
20170.0 0.00014573
20190.0 0.00014164
20210.0 0.00013778
20230.0 0.00013402
20250.0 0.00013024
20270.0 0.00012674
20290.0 0.00012354
20310.0 0.0001205
20330.0 0.00011766
20350.0 0.0001153
20370.0 0.00011321
20390.0 0.00011138
20410.0 0.00010989
20430.0 0.00010875
20450.0 0.00010785
20470.0 0.00010724
20490.0 0.00010691
20510.0 0.00010682
20530.0 0.00010695
20550.0 0.00010728
20570.0 0.00010776
20590.0 0.00010841
20610.0 0.0001092
20630.0 0.00011007
20650.0 0.00011104
20670.0 0.00011215
20690.0 0.00011328
20710.0 0.00011445
20730.0 0.00011571
20750.0 0.00011703
20770.0 0.00011832
20790.0 0.00011968
20810.0 0.00012112
20830.0 0.00012255
20850.0 0.00012399
20870.0 0.00012553
20890.0 0.0001271
20910.0 0.00012861
20930.0 0.00013018
20950.0 0.00013181
20970.0 0.0001334
20990.0 0.00013497
21010.0 0.00013661
21030.0 0.00013822
21050.0 0.00013976
21070.0 0.00014129
21090.0 0.00014283
21110.0 0.00014423
21130.0 0.00014555
21150.0 0.00014683
21170.0 0.00014798
21190.0 0.00014898
21210.0 0.00014987
21230.0 0.00015062
21250.0 0.00015115
21270.0 0.00015149
21290.0 0.00015161
21310.0 0.00015149
21330.0 0.00015113
21350.0 0.00015051
21370.0 0.00014958
21390.0 0.00014841
21410.0 0.00014698
21430.0 0.00014516
21450.0 0.00014312
21470.0 0.0001409
21490.0 0.00013839
21510.0 0.00013564
21530.0 0.00013284
21550.0 0.0001299
21570.0 0.00012678
21590.0 0.0001237
21610.0 0.00012073
21630.0 0.00011775
21650.0 0.00011485
21670.0 0.00011233
21690.0 0.00011
21710.0 0.00010791
21730.0 0.0001062
21750.0 0.00010488
21770.0 0.00010387
21790.0 0.00010329
21810.0 0.00010313
21830.0 0.00010336
21850.0 0.000104
21870.0 0.00010501
21890.0 0.00010631
21910.0 0.00010798
21930.0 0.00010994
21950.0 0.00011206
21970.0 0.00011441
21990.0 0.00011705
22010.0 0.00011968
22030.0 0.00012236
22050.0 0.00012517
22070.0 0.000128
22090.0 0.00013068
22110.0 0.00013337
22130.0 0.00013607
22150.0 0.00013858
22170.0 0.00014096
22190.0 0.00014331
22210.0 0.00014549
22230.0 0.00014742
22250.0 0.00014923
22270.0 0.0001509
22290.0 0.00015233
22310.0 0.00015355
22330.0 0.00015463
22350.0 0.00015546
22370.0 0.00015605
22390.0 0.00015642
22410.0 0.00015654
22430.0 0.00015639
22450.0 0.00015598
22470.0 0.00015529
22490.0 0.00015431
22510.0 0.00015309
22530.0 0.00015153
22550.0 0.00014964
22570.0 0.00014753
22590.0 0.00014516
22610.0 0.00014243
22630.0 0.00013947
22650.0 0.00013642
22670.0 0.00013304
22690.0 0.00012944
22710.0 0.0001258
22730.0 0.00012205
22750.0 0.00011799
22770.0 0.00011402
22790.0 0.00011014
22810.0 0.00010616
22830.0 0.00010219
22850.0 9.8471e-05
22870.0 9.4827e-05
22890.0 9.1202e-05
22910.0 8.7862e-05
22930.0 8.4802e-05
22950.0 8.1885e-05
22970.0 7.9187e-05
22990.0 7.6952e-05
