#lamb flux
1010.0 7.3918e-05
1030.0 8.3214e-05
1050.0 9.3277e-05
1070.0 0.00010466
1090.0 0.00011786
1110.0 0.00013147
1130.0 0.00014528
1150.0 0.00015988
1170.0 0.00017513
1190.0 0.00018989
1210.0 0.00020513
1230.0 0.00022121
1250.0 0.00023734
1270.0 0.00025351
1290.0 0.00027097
1310.0 0.00028894
1330.0 0.00030682
1350.0 0.00032538
1370.0 0.00034495
1390.0 0.00036462
1410.0 0.00038427
1430.0 0.00040503
1450.0 0.00042616
1470.0 0.00044705
1490.0 0.00046835
1510.0 0.00049076
1530.0 0.00051239
1550.0 0.00053383
1570.0 0.00055582
1590.0 0.00057773
1610.0 0.00059866
1630.0 0.00061976
1650.0 0.00064097
1670.0 0.00066114
1690.0 0.00068056
1710.0 0.00070002
1730.0 0.00071889
1750.0 0.00073592
1770.0 0.0007526
1790.0 0.00076875
1810.0 0.00078337
1830.0 0.00079671
1850.0 0.00081007
1870.0 0.00082192
1890.0 0.00083212
1910.0 0.0008416
1930.0 0.00085041
1950.0 0.00085735
1970.0 0.00086304
1990.0 0.00086825
2010.0 0.0008721
2030.0 0.0008743
2050.0 0.00087586
2070.0 0.00087668
2090.0 0.00087547
2110.0 0.00087308
2130.0 0.00086996
2150.0 0.00086537
2170.0 0.00085901
2190.0 0.00085197
2210.0 0.00084382
2230.0 0.00083399
2250.0 0.00082299
2270.0 0.00081142
2290.0 0.00079841
2310.0 0.00078396
2330.0 0.00076893
2350.0 0.00075309
2370.0 0.00073601
2390.0 0.00071823
2410.0 0.00070005
2430.0 0.00068067
2450.0 0.00066011
2470.0 0.00063862
2490.0 0.00061599
2510.0 0.00059231
2530.0 0.00056889
2550.0 0.00054758
2570.0 0.00053078
2590.0 0.00052099
2610.0 0.00052312
2630.0 0.0005386
2650.0 0.00056479
2670.0 0.00060153
2690.0 0.00064596
2710.0 0.00068777
2730.0 0.00072172
2750.0 0.00074776
2770.0 0.00075917
2790.0 0.00075454
2810.0 0.0007367
2830.0 0.00070678
2850.0 0.00066683
2870.0 0.00062048
2890.0 0.0005691
2910.0 0.00051476
2930.0 0.0004599
2950.0 0.0004035
2970.0 0.00034625
2990.0 0.00029008
3010.0 0.00052801
3030.0 0.00040152
3050.0 0.00027522
3070.0 0.00015252
3090.0 0.00011486
3110.0 0.00011486
3130.0 0.00011486
3150.0 0.00011486
3170.0 0.00011486
3190.0 0.00011486
3210.0 0.00048301
3230.0 0.0022539
3250.0 0.0045008
3270.0 0.0048936
3290.0 0.0060519
3310.0 0.0051003
3330.0 0.0052524
3350.0 0.0058105
3370.0 0.0065754
3390.0 0.0074571
3410.0 0.008397
3430.0 0.0095424
3450.0 0.010751
3470.0 0.012026
3490.0 0.012975
3510.0 0.013454
3530.0 0.014227
3550.0 0.014606
3570.0 0.014226
3590.0 0.014995
3610.0 0.014339
3630.0 0.017566
3650.0 0.019892
3670.0 0.021341
3690.0 0.019659
3710.0 0.015482
3730.0 0.014041
3750.0 0.012255
3770.0 0.010883
3790.0 0.0095312
3810.0 0.009299
3830.0 0.011444
3850.0 0.0045231
3870.0 0.010559
3890.0 0.012845
3910.0 0.013648
3930.0 0.016238
3950.0 0.017667
3970.0 0.021014
3990.0 0.025985
4010.0 0.018196
4030.0 0.01467
4050.0 0.012162
4070.0 0.013143
4090.0 0.020469
4110.0 0.018942
4130.0 0.020027
4150.0 0.018735
4170.0 0.01794
4190.0 0.016529
4210.0 0.024577
4230.0 0.025585
4250.0 0.027511
4270.0 0.025676
4290.0 0.02649
4310.0 0.03023
4330.0 0.035342
4350.0 0.034617
4370.0 0.033154
4390.0 0.028949
4410.0 0.026875
4430.0 0.021503
4450.0 0.018558
4470.0 0.020993
4490.0 0.025397
4510.0 0.026388
4530.0 0.027952
4550.0 0.029841
4570.0 0.041214
4590.0 0.05991
4610.0 0.071253
4630.0 0.071086
4650.0 0.071827
4670.0 0.080193
4690.0 0.088154
4710.0 0.072199
4730.0 0.054806
4750.0 0.043976
4770.0 0.039818
4790.0 0.038409
4810.0 0.036763
4830.0 0.040397
4850.0 0.046287
4870.0 0.051015
4890.0 0.05234
4910.0 0.047154
4930.0 0.049637
4950.0 0.061988
4970.0 0.075838
4990.0 0.079414
5010.0 0.072854
5030.0 0.060091
5050.0 0.045254
5070.0 0.035803
5090.0 0.032126
5110.0 0.03136
5130.0 0.032132
5150.0 0.032078
5170.0 0.031416
5190.0 0.029983
5210.0 0.029361
5230.0 0.032269
5250.0 0.035983
5270.0 0.04255
5290.0 0.049217
5310.0 0.05083
5330.0 0.053611
5350.0 0.059242
5370.0 0.063134
5390.0 0.057518
5410.0 0.050552
5430.0 0.048177
5450.0 0.055097
5470.0 0.068618
5490.0 0.081174
5510.0 0.086596
5530.0 0.084971
5550.0 0.080159
5570.0 0.076883
5590.0 0.073953
5610.0 0.07295
5630.0 0.071875
5650.0 0.07096
5670.0 0.07038
5690.0 0.065245
5710.0 0.054535
5730.0 0.04733
5750.0 0.043313
5770.0 0.043502
5790.0 0.044884
5810.0 0.046773
5830.0 0.047356
5850.0 0.044715
5870.0 0.040993
5890.0 0.037748
5910.0 0.037956
5930.0 0.039735
5950.0 0.037287
5970.0 0.032753
5990.0 0.027214
6010.0 0.021872
6030.0 0.019461
6050.0 0.020488
6070.0 0.02231
6090.0 0.022308
6110.0 0.019761
6130.0 0.019556
6150.0 0.022321
6170.0 0.026166
6190.0 0.029647
6210.0 0.030182
6230.0 0.029341
6250.0 0.026944
6270.0 0.022944
6290.0 0.019115
6310.0 0.016665
6330.0 0.01601
6350.0 0.016543
6370.0 0.016658
6390.0 0.017931
6410.0 0.021759
6430.0 0.027569
6450.0 0.032495
6470.0 0.03424
6490.0 0.033568
6510.0 0.034186
6530.0 0.035656
6550.0 0.035341
6570.0 0.036511
6590.0 0.036996
6610.0 0.037494
6630.0 0.037643
6650.0 0.036021
6670.0 0.033159
6690.0 0.029497
6710.0 0.027062
6730.0 0.027131
6750.0 0.028481
6770.0 0.029534
6790.0 0.030248
6810.0 0.0306
6830.0 0.029966
6850.0 0.028915
6870.0 0.027179
6890.0 0.026443
6910.0 0.025132
6930.0 0.025656
6950.0 0.027561
6970.0 0.028541
6990.0 0.029376
7010.0 0.028863
7030.0 0.026763
7050.0 0.02355
7070.0 0.020238
7090.0 0.01809
7110.0 0.017789
7130.0 0.018189
7150.0 0.016952
7170.0 0.01584
7190.0 0.016609
7210.0 0.018657
7230.0 0.02165
7250.0 0.023524
7270.0 0.023753
7290.0 0.021857
7310.0 0.019869
7330.0 0.018674
7350.0 0.018602
7370.0 0.019053
7390.0 0.019823
7410.0 0.021615
7430.0 0.025069
7450.0 0.028774
7470.0 0.031157
7490.0 0.031341
7510.0 0.029876
7530.0 0.025281
7550.0 0.022463
7570.0 0.019743
7590.0 0.018468
7610.0 0.019471
7630.0 0.021905
7650.0 0.024886
7670.0 0.027715
7690.0 0.029657
7710.0 0.03187
7730.0 0.034289
7750.0 0.036508
7770.0 0.036633
7790.0 0.037042
7810.0 0.038292
7830.0 0.03933
7850.0 0.03863
7870.0 0.037396
7890.0 0.036956
7910.0 0.035332
7930.0 0.03501
7950.0 0.033609
7970.0 0.033207
7990.0 0.032653
8010.0 0.034124
8030.0 0.034617
8050.0 0.035301
8070.0 0.035178
8090.0 0.035263
8110.0 0.034019
8130.0 0.03407
8150.0 0.033657
8170.0 0.032926
8190.0 0.032541
8210.0 0.032844
8230.0 0.031915
8250.0 0.030919
8270.0 0.027622
8290.0 0.022378
8310.0 0.016751
8330.0 0.012756
8350.0 0.011757
8370.0 0.014047
8390.0 0.017163
8410.0 0.018915
8430.0 0.019902
8450.0 0.020979
8470.0 0.022324
8490.0 0.025015
8510.0 0.028606
8530.0 0.033353
8550.0 0.038406
8570.0 0.042928
8590.0 0.046572
8610.0 0.049092
8630.0 0.05009
8650.0 0.050164
8670.0 0.050381
8690.0 0.052704
8710.0 0.055485
8730.0 0.05775
8750.0 0.057585
8770.0 0.058404
8790.0 0.058142
8810.0 0.054571
8830.0 0.052237
8850.0 0.04879
8870.0 0.046009
8890.0 0.044866
8910.0 0.045409
8930.0 0.043155
8950.0 0.040924
8970.0 0.040095
8990.0 0.039676
9010.0 0.038282
9030.0 0.037409
9050.0 0.037135
9070.0 0.037006
9090.0 0.036891
9110.0 0.03678
9130.0 0.036666
9150.0 0.036552
9170.0 0.036414
9190.0 0.036288
9210.0 0.036378
9230.0 0.036193
9250.0 0.036042
9270.0 0.035906
9290.0 0.035782
9310.0 0.035661
9330.0 0.035543
9350.0 0.035432
9370.0 0.035322
9390.0 0.035208
9410.0 0.035098
9430.0 0.034985
9450.0 0.03484
9470.0 0.034705
9490.0 0.034627
9510.0 0.034532
9530.0 0.034431
9550.0 0.034328
9570.0 0.034224
9590.0 0.034117
9610.0 0.034009
9630.0 0.033902
9650.0 0.033795
9670.0 0.033686
9690.0 0.033579
9710.0 0.033472
9730.0 0.033364
9750.0 0.033256
9770.0 0.033149
9790.0 0.033042
9810.0 0.032933
9830.0 0.032826
9850.0 0.032718
9870.0 0.032609
9890.0 0.0325
9910.0 0.032391
9930.0 0.032278
9950.0 0.031904
9970.0 0.031871
9990.0 0.031824
10010.0 0.031766
10030.0 0.031687
10050.0 0.031589
10070.0 0.031486
10090.0 0.031385
10110.0 0.031268
10130.0 0.031159
10150.0 0.031047
10170.0 0.030925
10190.0 0.030794
10210.0 0.030675
10230.0 0.030558
10250.0 0.03043
10270.0 0.030303
10290.0 0.030183
10310.0 0.030054
10330.0 0.029915
10350.0 0.029786
10370.0 0.029657
10390.0 0.029517
10410.0 0.029377
10430.0 0.029246
10450.0 0.029105
10470.0 0.028956
10490.0 0.028815
10510.0 0.028672
10530.0 0.028512
10550.0 0.028357
10570.0 0.02821
10590.0 0.028052
10610.0 0.027887
10630.0 0.027731
10650.0 0.027571
10670.0 0.027396
10690.0 0.027225
10710.0 0.027058
10730.0 0.02688
10750.0 0.02669
10770.0 0.026516
10790.0 0.026336
10810.0 0.026143
10830.0 0.025953
10850.0 0.025769
10870.0 0.025564
10890.0 0.025354
10910.0 0.02515
10930.0 0.024935
10950.0 0.024697
10970.0 0.024453
10990.0 0.024207
11010.0 0.024275
11030.0 0.023968
11050.0 0.02367
11070.0 0.023369
11090.0 0.02305
11110.0 0.02276
11130.0 0.022484
11150.0 0.022205
11170.0 0.021935
11190.0 0.021687
11210.0 0.021437
11230.0 0.021183
11250.0 0.020942
11270.0 0.020708
11290.0 0.020464
11310.0 0.02022
11330.0 0.019994
11350.0 0.01976
11370.0 0.019518
11390.0 0.019283
11410.0 0.019049
11430.0 0.018792
11450.0 0.018533
11470.0 0.018273
11490.0 0.017996
11510.0 0.017695
11530.0 0.017397
11550.0 0.017089
11570.0 0.016755
11590.0 0.016413
11610.0 0.016074
11630.0 0.015714
11650.0 0.015338
11670.0 0.014978
11690.0 0.014618
11710.0 0.014248
11730.0 0.013887
11750.0 0.013549
11770.0 0.013206
11790.0 0.01287
11810.0 0.012557
11830.0 0.012258
11850.0 0.011955
11870.0 0.011676
11890.0 0.011419
11910.0 0.011165
11930.0 0.01092
11950.0 0.010695
11970.0 0.010478
11990.0 0.010261
12010.0 0.01006
12030.0 0.0098719
12050.0 0.0096872
12070.0 0.0095085
12090.0 0.009351
12110.0 0.0092017
12130.0 0.0090602
12150.0 0.0089352
12170.0 0.0088271
12190.0 0.0087277
12210.0 0.0086461
12230.0 0.0085841
12250.0 0.0085383
12270.0 0.0085099
12290.0 0.008501
12310.0 0.0085099
12330.0 0.008538
12350.0 0.0085852
12370.0 0.0086484
12390.0 0.0087296
12410.0 0.0088336
12430.0 0.0089479
12450.0 0.0090743
12470.0 0.0092176
12490.0 0.0093711
12510.0 0.0095245
12530.0 0.0096867
12550.0 0.009854
12570.0 0.010013
12590.0 0.010163
12610.0 0.010309
12630.0 0.010439
12650.0 0.010545
12670.0 0.010633
12690.0 0.010701
12710.0 0.010741
12730.0 0.010757
12750.0 0.010748
12770.0 0.010713
12790.0 0.010657
12810.0 0.01058
12830.0 0.010482
12850.0 0.010373
12870.0 0.010254
12890.0 0.010122
12910.0 0.0099869
12930.0 0.0098536
12950.0 0.0097154
12970.0 0.0095766
12990.0 0.0094469
13010.0 0.0093206
13030.0 0.0091946
13050.0 0.0090742
13070.0 0.0089611
13090.0 0.0088465
13110.0 0.0087331
13130.0 0.0086246
13150.0 0.008517
13170.0 0.0084054
13190.0 0.0082983
13210.0 0.0081959
13230.0 0.008093
13250.0 0.0079934
13270.0 0.0079029
13290.0 0.0078182
13310.0 0.00774
13330.0 0.0076748
13350.0 0.0076223
13370.0 0.0075813
13390.0 0.0075534
13410.0 0.0075385
13430.0 0.0075334
13450.0 0.0075369
13470.0 0.0075452
13490.0 0.0075546
13510.0 0.007563
13530.0 0.0075651
13550.0 0.0075577
13570.0 0.0075387
13590.0 0.007505
13610.0 0.007457
13630.0 0.0073959
13650.0 0.0073183
13670.0 0.0072281
13690.0 0.0071306
13710.0 0.0070243
13730.0 0.0069079
13750.0 0.0067961
13770.0 0.0066863
13790.0 0.0065769
13810.0 0.006474
13830.0 0.0063822
13850.0 0.0062958
13870.0 0.0062172
13890.0 0.0061502
13910.0 0.0060921
13930.0 0.0060403
13950.0 0.0059965
13970.0 0.0059606
13990.0 0.0059287
14010.0 0.0059006
14030.0 0.0058761
14050.0 0.0058533
14070.0 0.0058303
14090.0 0.0058074
14110.0 0.0057836
14130.0 0.0057574
14150.0 0.0057277
14170.0 0.0056961
14190.0 0.0056615
14210.0 0.0056226
14230.0 0.0055814
14250.0 0.0055392
14270.0 0.0054941
14290.0 0.0054479
14310.0 0.0054045
14330.0 0.0053626
14350.0 0.0053224
14370.0 0.0052866
14390.0 0.005256
14410.0 0.0052289
14430.0 0.0052068
14450.0 0.00519
14470.0 0.0051774
14490.0 0.0051687
14510.0 0.0051638
14530.0 0.0051619
14550.0 0.0051628
14570.0 0.0051663
14590.0 0.005172
14610.0 0.0051804
14630.0 0.0051925
14650.0 0.0052077
14670.0 0.0052263
14690.0 0.0052501
14710.0 0.0052794
14730.0 0.0053117
14750.0 0.00535
14770.0 0.0053952
14790.0 0.0054451
14810.0 0.0054996
14830.0 0.0055648
14850.0 0.0056363
14870.0 0.0057121
14890.0 0.0057957
14910.0 0.0058871
14930.0 0.0059775
14950.0 0.0060647
14970.0 0.00615
14990.0 0.0062241
15010.0 0.0062828
15030.0 0.0063284
15050.0 0.0063609
15070.0 0.006379
15090.0 0.0063883
15110.0 0.0063915
15130.0 0.0063906
15150.0 0.0063875
15170.0 0.0063833
15190.0 0.0063785
15210.0 0.0063736
15230.0 0.0063686
15250.0 0.0063636
15270.0 0.0063586
15290.0 0.0063538
15310.0 0.0063489
15330.0 0.006344
15350.0 0.0063392
15370.0 0.0063345
15390.0 0.0063296
15410.0 0.0063248
15430.0 0.0063202
15450.0 0.0063155
15470.0 0.0063107
15490.0 0.0063061
15510.0 0.0063015
15530.0 0.0062968
15550.0 0.0062922
15570.0 0.0062877
15590.0 0.0062831
15610.0 0.0062784
15630.0 0.0062739
15650.0 0.0062694
15670.0 0.0062648
15690.0 0.0062602
15710.0 0.0062558
15730.0 0.0062512
15750.0 0.0062466
15770.0 0.0062421
15790.0 0.0062376
15810.0 0.0062329
15830.0 0.0062284
15850.0 0.0062239
15870.0 0.0062193
15890.0 0.0062147
15910.0 0.0062101
15930.0 0.0062055
15950.0 0.0062008
15970.0 0.0061962
15990.0 0.0061915
16010.0 0.0061868
16030.0 0.006182
16050.0 0.0061774
16070.0 0.0061726
16090.0 0.0061678
16110.0 0.006163
16130.0 0.0061582
16150.0 0.0061532
16170.0 0.0061482
16190.0 0.0061433
16210.0 0.0061383
16230.0 0.0061332
16250.0 0.0061282
16270.0 0.0061231
16290.0 0.0061179
16310.0 0.0061127
16330.0 0.0061075
16350.0 0.0061021
16370.0 0.0060966
16390.0 0.0060913
16410.0 0.0060858
16430.0 0.0060803
16450.0 0.0060746
16470.0 0.0060691
16490.0 0.0060633
16510.0 0.0060575
16530.0 0.0060517
16550.0 0.0060458
16570.0 0.0060397
16590.0 0.0060336
16610.0 0.0060276
16630.0 0.0060213
16650.0 0.006015
16670.0 0.0060087
16690.0 0.0060023
16710.0 0.0059956
16730.0 0.005989
16750.0 0.0059824
16770.0 0.0059756
16790.0 0.0059686
16810.0 0.0059617
16830.0 0.0059547
16850.0 0.0059475
16870.0 0.0059403
16890.0 0.005933
16910.0 0.0059255
16930.0 0.0059179
16950.0 0.0059103
16970.0 0.0059026
16990.0 0.0058947
17010.0 0.0058868
17030.0 0.0058788
17050.0 0.0058706
17070.0 0.0058623
17090.0 0.005854
17110.0 0.0058455
17130.0 0.0058368
17150.0 0.0058282
17170.0 0.0058194
17190.0 0.0058104
17210.0 0.0058014
17230.0 0.0057923
17250.0 0.005783
17270.0 0.0057735
17290.0 0.005764
17310.0 0.0057544
17330.0 0.0057446
17350.0 0.0057347
17370.0 0.0057248
17390.0 0.0057147
17410.0 0.0057044
17430.0 0.0056941
17450.0 0.0056837
17470.0 0.005673
17490.0 0.0056622
17510.0 0.0056515
17530.0 0.0056405
17550.0 0.0056294
17570.0 0.0056182
17590.0 0.0056069
17610.0 0.0055954
17630.0 0.0055838
17650.0 0.0055722
17670.0 0.0055604
17690.0 0.0055483
17710.0 0.0055363
17730.0 0.0055242
17750.0 0.0055118
17770.0 0.0054994
17790.0 0.005487
17810.0 0.0054743
17830.0 0.0054615
17850.0 0.0054486
17870.0 0.0054357
17890.0 0.0054225
17910.0 0.0054093
17930.0 0.005396
17950.0 0.0053826
17970.0 0.005369
17990.0 0.0053554
18010.0 0.0053416
18030.0 0.0053277
18050.0 0.0053137
18070.0 0.0052997
18090.0 0.0052855
18110.0 0.0052711
18130.0 0.0052568
18150.0 0.0052424
18170.0 0.0052278
18190.0 0.0052131
18210.0 0.0051984
18230.0 0.0051835
18250.0 0.0051685
18270.0 0.0051536
18290.0 0.0051385
18310.0 0.0051233
18330.0 0.005108
18350.0 0.0050928
18370.0 0.0050773
18390.0 0.0050618
18410.0 0.0050463
18430.0 0.0050306
18450.0 0.0050148
18470.0 0.0049991
18490.0 0.0049833
18510.0 0.0049674
18530.0 0.0049514
18550.0 0.0049355
18570.0 0.0049194
18590.0 0.0049032
18610.0 0.004887
18630.0 0.0048709
18650.0 0.0048545
18670.0 0.0048382
18690.0 0.0048219
18710.0 0.0048055
18730.0 0.004789
18750.0 0.0047726
18770.0 0.0047561
18790.0 0.0047395
18810.0 0.0047229
18830.0 0.0047064
18850.0 0.0046897
18870.0 0.004673
18890.0 0.0046564
18910.0 0.0046398
18930.0 0.004623
18950.0 0.0046063
18970.0 0.0045896
18990.0 0.0045729
19010.0 0.0045561
19030.0 0.0045394
19050.0 0.0045227
19070.0 0.0045059
19090.0 0.0044891
19110.0 0.0044724
19130.0 0.0044557
19150.0 0.0044389
19170.0 0.0044222
19190.0 0.0044055
19210.0 0.0043887
19230.0 0.004372
19250.0 0.0043554
19270.0 0.0043387
19290.0 0.0043221
19310.0 0.0043055
19330.0 0.0042889
19350.0 0.0042723
19370.0 0.0042558
19390.0 0.0042393
19410.0 0.0042228
19430.0 0.0042063
19450.0 0.00419
19470.0 0.0041736
19490.0 0.0041572
19510.0 0.0041409
19530.0 0.0041247
19550.0 0.0041085
19570.0 0.0040922
19590.0 0.0040762
19610.0 0.0040601
19630.0 0.004044
19650.0 0.004028
19670.0 0.0040122
19690.0 0.0039962
19710.0 0.0039804
19730.0 0.0039646
19750.0 0.0039489
19770.0 0.0039332
19790.0 0.0039176
19810.0 0.003902
19830.0 0.0038864
19850.0 0.0038706
19870.0 0.0038547
19890.0 0.003838
19910.0 0.0038198
19930.0 0.0037995
19950.0 0.003776
19970.0 0.0037473
19990.0 0.0037124
20010.0 0.0036722
20030.0 0.0036243
20050.0 0.0035692
20070.0 0.0035101
20090.0 0.0034478
20110.0 0.0033797
20130.0 0.0033123
20150.0 0.0032468
20170.0 0.0031808
20190.0 0.0031153
20210.0 0.0030539
20230.0 0.0029945
20250.0 0.0029353
20270.0 0.0028795
20290.0 0.0028271
20310.0 0.0027758
20330.0 0.0027254
20350.0 0.0026799
20370.0 0.0026359
20390.0 0.0025929
20410.0 0.0025526
20430.0 0.0025152
20450.0 0.0024783
20470.0 0.0024435
20490.0 0.0024118
20510.0 0.0023821
20530.0 0.0023538
20550.0 0.0023284
20570.0 0.0023059
20590.0 0.002285
20610.0 0.0022666
20630.0 0.0022509
20650.0 0.0022372
20670.0 0.0022256
20690.0 0.0022163
20710.0 0.0022089
20730.0 0.0022034
20750.0 0.0021996
20770.0 0.0021969
20790.0 0.0021955
20810.0 0.0021953
20830.0 0.0021957
20850.0 0.0021964
20870.0 0.0021977
20890.0 0.0021989
20910.0 0.0021994
20930.0 0.0021996
20950.0 0.0021992
20970.0 0.0021976
20990.0 0.0021948
21010.0 0.0021909
21030.0 0.0021855
21050.0 0.0021786
21070.0 0.0021702
21090.0 0.00216
21110.0 0.0021485
21130.0 0.0021357
21150.0 0.0021211
21170.0 0.0021054
21190.0 0.0020888
21210.0 0.0020708
21230.0 0.0020515
21250.0 0.002032
21270.0 0.0020119
21290.0 0.0019908
21310.0 0.0019695
21330.0 0.0019488
21350.0 0.0019274
21370.0 0.001906
21390.0 0.0018853
21410.0 0.0018653
21430.0 0.001845
21450.0 0.0018261
21470.0 0.0018085
21490.0 0.0017917
21510.0 0.0017762
21530.0 0.0017624
21550.0 0.0017502
21570.0 0.0017393
21590.0 0.0017304
21610.0 0.0017232
21630.0 0.0017179
21650.0 0.0017144
21670.0 0.0017126
21690.0 0.0017124
21710.0 0.0017139
21730.0 0.0017168
21750.0 0.0017205
21770.0 0.0017258
21790.0 0.001732
21810.0 0.0017384
21830.0 0.0017453
21850.0 0.0017528
21870.0 0.0017599
21890.0 0.0017664
21910.0 0.001773
21930.0 0.001779
21950.0 0.0017839
21970.0 0.0017882
21990.0 0.0017919
22010.0 0.0017943
22030.0 0.0017956
22050.0 0.0017961
22070.0 0.0017957
22090.0 0.0017941
22110.0 0.0017918
22130.0 0.0017886
22150.0 0.0017846
22170.0 0.0017798
22190.0 0.0017743
22210.0 0.0017681
22230.0 0.0017614
22250.0 0.001754
22270.0 0.0017459
22290.0 0.0017372
22310.0 0.001728
22330.0 0.0017178
22350.0 0.001707
22370.0 0.0016956
22390.0 0.0016832
22410.0 0.0016695
22430.0 0.0016555
22450.0 0.0016405
22470.0 0.0016241
22490.0 0.0016069
22510.0 0.0015892
22530.0 0.0015701
22550.0 0.0015497
22570.0 0.0015292
22590.0 0.0015082
22610.0 0.001486
22630.0 0.0014637
22650.0 0.001442
22670.0 0.0014196
22690.0 0.0013972
22710.0 0.0013759
22730.0 0.0013551
22750.0 0.0013339
22770.0 0.0013143
22790.0 0.0012962
22810.0 0.0012785
22830.0 0.0012618
22850.0 0.0012468
22870.0 0.0012327
22890.0 0.0012192
22910.0 0.0012072
22930.0 0.0011962
22950.0 0.001186
22970.0 0.0011763
22990.0 0.0011679
23010.0 0.0011599
23030.0 0.0011522
23050.0 0.001145
23070.0 0.0011381
23090.0 0.0011311
23110.0 0.0011242
23130.0 0.0011173
23150.0 0.0011103
23170.0 0.0011028
23190.0 0.0010953
23210.0 0.0010877
23230.0 0.0010797
23250.0 0.0010715
23270.0 0.0010635
23290.0 0.0010553
23310.0 0.001047
23330.0 0.001039
23350.0 0.0010314
23370.0 0.0010237
23390.0 0.0010164
23410.0 0.0010096
23430.0 0.001003
23450.0 0.00099652
23470.0 0.00099044
23490.0 0.00098461
23510.0 0.00097877
23530.0 0.0009731
23550.0 0.00096771
23570.0 0.00096228
23590.0 0.00095684
23610.0 0.00095156
23630.0 0.00094636
23650.0 0.00094104
23670.0 0.0009359
23690.0 0.000931
23710.0 0.00092622
23730.0 0.00092166
23750.0 0.00091764
23770.0 0.0009141
23790.0 0.00091114
23810.0 0.000909
23830.0 0.00090775
23850.0 0.00090761
23870.0 0.00090881
23890.0 0.00091125
23910.0 0.00091512
23930.0 0.00092074
23950.0 0.00092782
23970.0 0.00093601
23990.0 0.00094601
24010.0 0.00095748
24030.0 0.00096965
24050.0 0.00098279
24070.0 0.00099762
24090.0 0.0010124
24110.0 0.0010272
24130.0 0.0010428
24150.0 0.0010586
24170.0 0.0010737
