#lamb flux
1010.0 4.9574e-10
1030.0 5.4829e-10
1050.0 6.0874e-10
1070.0 6.7678e-10
1090.0 7.5407e-10
1110.0 8.3334e-10
1130.0 9.1312e-10
1150.0 9.9669e-10
1170.0 1.0829e-09
1190.0 1.1646e-09
1210.0 1.2475e-09
1230.0 1.3331e-09
1250.0 1.417e-09
1270.0 1.4984e-09
1290.0 1.5845e-09
1310.0 1.6705e-09
1330.0 1.753e-09
1350.0 1.8364e-09
1370.0 1.9226e-09
1390.0 2.0065e-09
1410.0 2.088e-09
1430.0 2.1732e-09
1450.0 2.2584e-09
1470.0 2.3407e-09
1490.0 2.4239e-09
1510.0 2.5118e-09
1530.0 2.5951e-09
1550.0 2.6773e-09
1570.0 2.7624e-09
1590.0 2.8475e-09
1610.0 2.9289e-09
1630.0 3.0128e-09
1650.0 3.099e-09
1670.0 3.1824e-09
1690.0 3.2648e-09
1710.0 3.3504e-09
1730.0 3.4366e-09
1750.0 3.5177e-09
1770.0 3.6013e-09
1790.0 3.6866e-09
1810.0 3.7694e-09
1830.0 3.8508e-09
1850.0 3.9373e-09
1870.0 4.0217e-09
1890.0 4.1035e-09
1910.0 4.187e-09
1930.0 4.2727e-09
1950.0 4.3547e-09
1970.0 4.4359e-09
1990.0 4.5204e-09
2010.0 4.6036e-09
2030.0 4.684e-09
2050.0 4.7672e-09
2070.0 4.8525e-09
2090.0 4.9333e-09
2110.0 5.0139e-09
2130.0 5.0972e-09
2150.0 5.179e-09
2170.0 5.2575e-09
2190.0 5.3391e-09
2210.0 5.4213e-09
2230.0 5.5003e-09
2250.0 5.5791e-09
2270.0 5.6615e-09
2290.0 5.7415e-09
2310.0 5.8184e-09
2330.0 5.8983e-09
2350.0 5.9805e-09
2370.0 6.0623e-09
2390.0 6.1509e-09
2410.0 6.2558e-09
2430.0 6.3766e-09
2450.0 6.5209e-09
2470.0 6.7058e-09
2490.0 6.9388e-09
2510.0 7.2037e-09
2530.0 7.5225e-09
2550.0 7.9216e-09
2570.0 8.4182e-09
2590.0 9.064e-09
2610.0 1.0031e-08
2630.0 1.1412e-08
2650.0 1.3217e-08
2670.0 1.5551e-08
2690.0 1.8419e-08
2710.0 2.148e-08
2730.0 2.4506e-08
2750.0 2.7485e-08
2770.0 3.0077e-08
2790.0 3.2135e-08
2810.0 3.3768e-08
2830.0 3.5045e-08
2850.0 3.5916e-08
2870.0 3.6555e-08
2890.0 3.7061e-08
2910.0 3.7465e-08
2930.0 3.7795e-08
2950.0 3.811e-08
2970.0 3.8418e-08
2990.0 3.8707e-08
3010.0 1.0941e-06
3030.0 1.1023e-06
3050.0 1.1102e-06
3070.0 1.1169e-06
3090.0 1.1228e-06
3110.0 1.1264e-06
3130.0 1.1262e-06
3150.0 1.1212e-06
3170.0 1.1092e-06
3190.0 1.0904e-06
3210.0 1.0664e-06
3230.0 1.0391e-06
3250.0 1.012e-06
3270.0 9.923e-07
3290.0 9.8134e-07
3310.0 9.8312e-07
3330.0 9.9735e-07
3350.0 1.0221e-06
3370.0 1.0575e-06
3390.0 1.1021e-06
3410.0 1.1506e-06
3430.0 1.2051e-06
3450.0 1.2678e-06
3470.0 1.3363e-06
3490.0 1.4089e-06
3510.0 1.4909e-06
3530.0 1.5787e-06
3550.0 1.6677e-06
3570.0 1.7604e-06
3590.0 1.8613e-06
3610.0 1.9653e-06
3630.0 2.069e-06
3650.0 2.1765e-06
3670.0 2.2747e-06
3690.0 2.348e-06
3710.0 2.3901e-06
3730.0 2.3915e-06
3750.0 2.3582e-06
3770.0 2.3451e-06
3790.0 2.3312e-06
3810.0 2.2739e-06
3830.0 2.3443e-06
3850.0 2.6212e-06
3870.0 2.7732e-06
3890.0 2.7605e-06
3910.0 2.7723e-06
3930.0 2.8453e-06
3950.0 2.8902e-06
3970.0 2.6333e-06
3990.0 2.2658e-06
4010.0 6.7909e-06
4030.0 8.2282e-06
4050.0 9.4331e-06
4070.0 8.1848e-06
4090.0 7.4129e-06
4110.0 6.5412e-06
4130.0 6.0205e-06
4150.0 6.404e-06
4170.0 6.3082e-06
4190.0 6.7241e-06
4210.0 6.6626e-06
4230.0 7.0472e-06
4250.0 8.337e-06
4270.0 8.4351e-06
4290.0 7.7728e-06
4310.0 8.0765e-06
4330.0 8.591e-06
4350.0 9.6326e-06
4370.0 1.0962e-05
4390.0 1.0287e-05
4410.0 7.6001e-06
4430.0 6.434e-06
4450.0 5.9121e-06
4470.0 4.5377e-06
4490.0 4.8968e-06
4510.0 7.3967e-06
4530.0 8.5306e-06
4550.0 8.6046e-06
4570.0 9.6824e-06
4590.0 1.1029e-05
4610.0 1.4876e-05
4630.0 1.932e-05
4650.0 2.0953e-05
4670.0 1.9404e-05
4690.0 1.8515e-05
4710.0 1.9572e-05
4730.0 1.847e-05
4750.0 1.3809e-05
4770.0 1.0129e-05
4790.0 9.4588e-06
4810.0 9.0157e-06
4830.0 8.2538e-06
4850.0 9.0571e-06
4870.0 1.1965e-05
4890.0 1.4111e-05
4910.0 1.238e-05
4930.0 1.0955e-05
4950.0 1.2035e-05
4970.0 1.5435e-05
4990.0 2.0918e-05
5010.0 2.4063e-05
5030.0 2.1218e-05
5050.0 1.4355e-05
5070.0 9.4607e-06
5090.0 7.6287e-06
5110.0 7.8454e-06
5130.0 9.0548e-06
5150.0 9.8102e-06
5170.0 9.663e-06
5190.0 9.0294e-06
5210.0 9.4378e-06
5230.0 9.9213e-06
5250.0 1.0692e-05
5270.0 1.1536e-05
5290.0 1.2785e-05
5310.0 1.4881e-05
5330.0 1.6468e-05
5350.0 1.6363e-05
5370.0 1.7188e-05
5390.0 1.9723e-05
5410.0 1.9706e-05
5430.0 1.7427e-05
5450.0 1.6011e-05
5470.0 1.7001e-05
5490.0 2.0771e-05
5510.0 2.5971e-05
5530.0 2.9787e-05
5550.0 2.879e-05
5570.0 2.6172e-05
5590.0 2.2757e-05
5610.0 2.0987e-05
5630.0 2.0351e-05
5650.0 1.9383e-05
5670.0 1.8367e-05
5690.0 1.642e-05
5710.0 1.601e-05
5730.0 1.4747e-05
5750.0 1.0398e-05
5770.0 8.1119e-06
5790.0 9.1926e-06
5810.0 1.038e-05
5830.0 1.2738e-05
5850.0 1.5163e-05
5870.0 1.6824e-05
5890.0 1.7109e-05
5910.0 1.6785e-05
5930.0 1.5977e-05
5950.0 1.6281e-05
5970.0 1.8558e-05
5990.0 1.745e-05
6010.0 1.4628e-05
6030.0 1.2359e-05
6050.0 1.0763e-05
6070.0 1.0704e-05
6090.0 1.1607e-05
6110.0 1.2978e-05
6130.0 1.3177e-05
6150.0 1.1338e-05
6170.0 9.9735e-06
6190.0 1.1224e-05
6210.0 1.4838e-05
6230.0 1.9471e-05
6250.0 2.109e-05
6270.0 1.843e-05
6290.0 1.5506e-05
6310.0 1.2105e-05
6330.0 9.2748e-06
6350.0 8.2729e-06
6370.0 8.6998e-06
6390.0 1.0058e-05
6410.0 1.2401e-05
6430.0 1.4481e-05
6450.0 1.657e-05
6470.0 1.8973e-05
6490.0 2.2919e-05
6510.0 2.5626e-05
6530.0 2.5141e-05
6550.0 2.2734e-05
6570.0 1.9299e-05
6590.0 1.7403e-05
6610.0 1.5005e-05
6630.0 1.3594e-05
6650.0 1.2851e-05
6670.0 1.2484e-05
6690.0 1.128e-05
6710.0 1.0254e-05
6730.0 7.3856e-06
6750.0 7.3221e-06
6770.0 7.9586e-06
6790.0 9.1478e-06
6810.0 8.3704e-06
6830.0 8.6192e-06
6850.0 8.0617e-06
6870.0 7.3644e-06
6890.0 7.0709e-06
6910.0 7.535e-06
6930.0 7.0576e-06
6950.0 7.2611e-06
6970.0 7.6373e-06
6990.0 8.6689e-06
7010.0 8.7428e-06
7030.0 8.8817e-06
7050.0 8.4701e-06
7070.0 8.0705e-06
7090.0 8.0941e-06
7110.0 8.3283e-06
7130.0 8.9625e-06
7150.0 9.5189e-06
7170.0 1.0503e-05
7190.0 1.1546e-05
7210.0 1.1346e-05
7230.0 1.1664e-05
7250.0 1.2534e-05
7270.0 1.3659e-05
7290.0 1.6212e-05
7310.0 1.7592e-05
7330.0 1.7004e-05
7350.0 1.5379e-05
7370.0 1.3381e-05
7390.0 1.2981e-05
7410.0 1.3795e-05
7430.0 1.5332e-05
7450.0 1.6699e-05
7470.0 1.6546e-05
7490.0 1.5086e-05
7510.0 1.7089e-05
7530.0 1.6902e-05
7550.0 1.5192e-05
7570.0 1.1868e-05
7590.0 8.1586e-06
7610.0 7.0026e-06
7630.0 7.9562e-06
7650.0 9.4071e-06
7670.0 1.1708e-05
7690.0 1.2884e-05
7710.0 1.3426e-05
7730.0 1.4109e-05
7750.0 1.5839e-05
7770.0 1.6088e-05
7790.0 1.4778e-05
7810.0 1.3484e-05
7830.0 1.3905e-05
7850.0 1.3517e-05
7870.0 1.2393e-05
7890.0 1.0412e-05
7910.0 8.4637e-06
7930.0 8.0816e-06
7950.0 7.3626e-06
7970.0 6.8154e-06
7990.0 6.7765e-06
8010.0 5.0188e-07
8030.0 4.9536e-07
8050.0 4.8868e-07
8070.0 4.9508e-07
8090.0 5.3195e-07
8110.0 5.2288e-07
8130.0 4.3131e-07
8150.0 4.2005e-07
8170.0 3.6181e-07
8190.0 3.4289e-07
8210.0 4.4528e-07
8230.0 4.9576e-07
8250.0 4.4682e-07
8270.0 3.889e-07
8290.0 3.7911e-07
8310.0 2.9178e-07
8330.0 1.9666e-07
8350.0 1.3956e-07
8370.0 8.7932e-08
8390.0 1.6074e-07
8410.0 1.873e-07
8430.0 2.3088e-07
8450.0 2.7111e-07
8470.0 3.3698e-07
8490.0 3.346e-07
8510.0 3.2913e-07
8530.0 3.4349e-07
8550.0 4.6344e-07
8570.0 5.4865e-07
8590.0 5.9198e-07
8610.0 7.478e-07
8630.0 9.0084e-07
8650.0 9.4237e-07
8670.0 1.0015e-06
8690.0 1.0071e-06
8710.0 9.1203e-07
8730.0 8.4834e-07
8750.0 7.4882e-07
8770.0 7.1051e-07
8790.0 6.9804e-07
8810.0 6.6888e-07
8830.0 5.3487e-07
8850.0 3.9156e-07
8870.0 2.9981e-07
8890.0 2.9312e-07
8910.0 3.3591e-07
8930.0 3.8208e-07
8950.0 3.894e-07
8970.0 3.9124e-07
8990.0 3.4894e-07
9010.0 3.6567e-06
9030.0 3.3134e-06
9050.0 3.3294e-06
9070.0 3.3557e-06
9090.0 3.3787e-06
9110.0 3.4072e-06
9130.0 3.4291e-06
9150.0 3.4462e-06
9170.0 3.4644e-06
9190.0 3.4838e-06
9210.0 3.5043e-06
9230.0 3.5259e-06
9250.0 3.5478e-06
9270.0 3.5706e-06
9290.0 3.5941e-06
9310.0 3.6177e-06
9330.0 3.6417e-06
9350.0 3.6667e-06
9370.0 3.692e-06
9390.0 3.7174e-06
9410.0 3.7437e-06
9430.0 3.7707e-06
9450.0 3.7976e-06
9470.0 3.8251e-06
9490.0 3.8534e-06
9510.0 3.882e-06
9530.0 3.9108e-06
9550.0 3.9406e-06
9570.0 3.9708e-06
9590.0 4.0012e-06
9610.0 4.0321e-06
9630.0 4.0638e-06
9650.0 4.0958e-06
9670.0 4.1278e-06
9690.0 4.1607e-06
9710.0 4.1941e-06
9730.0 4.2276e-06
9750.0 4.2616e-06
9770.0 4.2966e-06
9790.0 4.3315e-06
9810.0 4.3666e-06
9830.0 4.4024e-06
9850.0 4.4388e-06
9870.0 4.4749e-06
9890.0 4.5117e-06
9910.0 4.5491e-06
9930.0 4.5866e-06
9950.0 4.6242e-06
9970.0 4.6626e-06
9990.0 4.7013e-06
10010.0 4.0795e-06
10030.0 4.113e-06
10050.0 4.1472e-06
10070.0 4.1825e-06
10090.0 4.2158e-06
10110.0 4.25e-06
10130.0 4.2843e-06
10150.0 4.3184e-06
10170.0 4.353e-06
10190.0 4.3882e-06
10210.0 4.4229e-06
10230.0 4.4576e-06
10250.0 4.4928e-06
10270.0 4.528e-06
10290.0 4.5627e-06
10310.0 4.5979e-06
10330.0 4.6335e-06
10350.0 4.6684e-06
10370.0 4.7032e-06
10390.0 4.7385e-06
10410.0 4.7735e-06
10430.0 4.8079e-06
10450.0 4.8426e-06
10470.0 4.8774e-06
10490.0 4.9116e-06
10510.0 4.9456e-06
10530.0 4.9802e-06
10550.0 5.0141e-06
10570.0 5.0474e-06
10590.0 5.0808e-06
10610.0 5.1143e-06
10630.0 5.1468e-06
10650.0 5.1792e-06
10670.0 5.2118e-06
10690.0 5.2438e-06
10710.0 5.2752e-06
10730.0 5.3066e-06
10750.0 5.338e-06
10770.0 5.3682e-06
10790.0 5.3981e-06
10810.0 5.428e-06
10830.0 5.4569e-06
10850.0 5.4844e-06
10870.0 5.511e-06
10890.0 5.5345e-06
10910.0 5.5525e-06
10930.0 5.5627e-06
10950.0 5.5604e-06
10970.0 5.5415e-06
10990.0 5.5045e-06
11010.0 5.4427e-06
11030.0 5.3562e-06
11050.0 5.2506e-06
11070.0 5.1244e-06
11090.0 4.9728e-06
11110.0 4.816e-06
11130.0 4.6524e-06
11150.0 4.4763e-06
11170.0 4.2947e-06
11190.0 4.1186e-06
11210.0 3.9367e-06
11230.0 3.7502e-06
11250.0 3.572e-06
11270.0 3.4009e-06
11290.0 3.2295e-06
11310.0 3.067e-06
11330.0 2.924e-06
11350.0 2.7889e-06
11370.0 2.664e-06
11390.0 2.556e-06
11410.0 2.4615e-06
11430.0 2.3737e-06
11450.0 2.298e-06
11470.0 2.2326e-06
11490.0 2.1717e-06
11510.0 2.1131e-06
11530.0 2.0586e-06
11550.0 2.0046e-06
11570.0 1.9469e-06
11590.0 1.8871e-06
11610.0 1.8263e-06
11630.0 1.7601e-06
11650.0 1.6893e-06
11670.0 1.6195e-06
11690.0 1.5486e-06
11710.0 1.4756e-06
11730.0 1.4048e-06
11750.0 1.3393e-06
11770.0 1.275e-06
11790.0 1.2148e-06
11810.0 1.1618e-06
11830.0 1.1144e-06
11850.0 1.0708e-06
11870.0 1.0342e-06
11890.0 1.0039e-06
11910.0 9.7719e-07
11930.0 9.5425e-07
11950.0 9.3516e-07
11970.0 9.181e-07
11990.0 9.0197e-07
12010.0 8.8705e-07
12030.0 8.7267e-07
12050.0 8.5781e-07
12070.0 8.4235e-07
12090.0 8.2744e-07
12110.0 8.1231e-07
12130.0 7.9715e-07
12150.0 7.8318e-07
12170.0 7.7098e-07
12190.0 7.6042e-07
12210.0 7.5306e-07
12230.0 7.495e-07
12250.0 7.5008e-07
12270.0 7.5573e-07
12290.0 7.6642e-07
12310.0 7.8176e-07
12330.0 8.0322e-07
12350.0 8.3e-07
12370.0 8.6049e-07
12390.0 8.9564e-07
12410.0 9.3683e-07
12430.0 9.787e-07
12450.0 1.0221e-06
12470.0 1.0682e-06
12490.0 1.1144e-06
12510.0 1.1579e-06
12530.0 1.2011e-06
12550.0 1.2428e-06
12570.0 1.2796e-06
12590.0 1.3119e-06
12610.0 1.3407e-06
12630.0 1.3636e-06
12650.0 1.3795e-06
12670.0 1.3899e-06
12690.0 1.394e-06
12710.0 1.3918e-06
12730.0 1.3837e-06
12750.0 1.3693e-06
12770.0 1.3495e-06
12790.0 1.3256e-06
12810.0 1.297e-06
12830.0 1.2639e-06
12850.0 1.2293e-06
12870.0 1.1927e-06
12890.0 1.1531e-06
12910.0 1.1128e-06
12930.0 1.0732e-06
12950.0 1.0318e-06
12970.0 9.8964e-07
12990.0 9.4978e-07
13010.0 9.1041e-07
13030.0 8.706e-07
13050.0 8.3237e-07
13070.0 7.9656e-07
13090.0 7.6061e-07
13110.0 7.2584e-07
13130.0 6.9378e-07
13150.0 6.6342e-07
13170.0 6.3369e-07
13190.0 6.0724e-07
13210.0 5.8396e-07
13230.0 5.6267e-07
13250.0 5.4435e-07
13270.0 5.2989e-07
13290.0 5.1865e-07
13310.0 5.109e-07
13330.0 5.0738e-07
13350.0 5.0779e-07
13370.0 5.1234e-07
13390.0 5.2129e-07
13410.0 5.3338e-07
13430.0 5.491e-07
13450.0 5.6851e-07
13470.0 5.9006e-07
13490.0 6.1289e-07
13510.0 6.3864e-07
13530.0 6.6473e-07
13550.0 6.8972e-07
13570.0 7.1435e-07
13590.0 7.3836e-07
13610.0 7.5971e-07
13630.0 7.7836e-07
13650.0 7.9538e-07
13670.0 8.0951e-07
13690.0 8.2043e-07
13710.0 8.2888e-07
13730.0 8.3492e-07
13750.0 8.3794e-07
13770.0 8.3862e-07
13790.0 8.371e-07
13810.0 8.334e-07
13830.0 8.2795e-07
13850.0 8.2054e-07
13870.0 8.1122e-07
13890.0 8.0055e-07
13910.0 7.8852e-07
13930.0 7.746e-07
13950.0 7.5941e-07
13970.0 7.4387e-07
13990.0 7.2695e-07
14010.0 7.0895e-07
14030.0 6.91e-07
14050.0 6.7292e-07
14070.0 6.5382e-07
14090.0 6.3552e-07
14110.0 6.1833e-07
14130.0 6.0166e-07
14150.0 5.8597e-07
14170.0 5.7258e-07
14190.0 5.61e-07
14210.0 5.5118e-07
14230.0 5.4391e-07
14250.0 5.3921e-07
14270.0 5.3693e-07
14290.0 5.3741e-07
14310.0 5.4041e-07
14330.0 5.4578e-07
14350.0 5.537e-07
14370.0 5.6356e-07
14390.0 5.7476e-07
14410.0 5.8796e-07
14430.0 6.0244e-07
14450.0 6.1724e-07
14470.0 6.3258e-07
14490.0 6.4891e-07
14510.0 6.6451e-07
14530.0 6.7934e-07
14550.0 6.9416e-07
14570.0 7.0838e-07
14590.0 7.2133e-07
14610.0 7.3386e-07
14630.0 7.4625e-07
14650.0 7.578e-07
14670.0 7.6894e-07
14690.0 7.8057e-07
14710.0 7.9279e-07
14730.0 8.0501e-07
14750.0 8.1855e-07
14770.0 8.3391e-07
14790.0 8.5056e-07
14810.0 8.6859e-07
14830.0 8.8997e-07
14850.0 9.132e-07
14870.0 9.3744e-07
14890.0 9.6359e-07
14910.0 9.9136e-07
14930.0 1.0181e-06
14950.0 1.043e-06
14970.0 1.0666e-06
14990.0 1.0865e-06
15010.0 1.1016e-06
15030.0 1.1128e-06
15050.0 1.1202e-06
15070.0 1.1239e-06
15090.0 1.1251e-06
15110.0 1.1248e-06
15130.0 1.1233e-06
15150.0 1.1215e-06
15170.0 1.1192e-06
15190.0 1.1168e-06
15210.0 1.1144e-06
15230.0 1.1121e-06
15250.0 1.1096e-06
15270.0 1.1072e-06
15290.0 1.1049e-06
15310.0 1.1025e-06
15330.0 1.1001e-06
15350.0 1.0978e-06
15370.0 1.0956e-06
15390.0 1.0932e-06
15410.0 1.0909e-06
15430.0 1.0886e-06
15450.0 1.0863e-06
15470.0 1.084e-06
15490.0 1.0818e-06
15510.0 1.0796e-06
15530.0 1.0773e-06
15550.0 1.0751e-06
15570.0 1.0729e-06
15590.0 1.0707e-06
15610.0 1.0684e-06
15630.0 1.0662e-06
15650.0 1.0641e-06
15670.0 1.0619e-06
15690.0 1.0597e-06
15710.0 1.0576e-06
15730.0 1.0554e-06
15750.0 1.0532e-06
15770.0 1.0511e-06
15790.0 1.049e-06
15810.0 1.0468e-06
15830.0 1.0446e-06
15850.0 1.0426e-06
15870.0 1.0404e-06
15890.0 1.0383e-06
15910.0 1.0362e-06
15930.0 1.0341e-06
15950.0 1.0319e-06
15970.0 1.0298e-06
15990.0 1.0278e-06
16010.0 1.0256e-06
16030.0 1.0235e-06
16050.0 1.0215e-06
16070.0 1.0194e-06
16090.0 1.0172e-06
16110.0 1.0152e-06
16130.0 1.0132e-06
16150.0 1.011e-06
16170.0 1.0089e-06
16190.0 1.0068e-06
16210.0 1.0047e-06
16230.0 1.0026e-06
16250.0 1.0005e-06
16270.0 9.9849e-07
16290.0 9.9636e-07
16310.0 9.9424e-07
16330.0 9.9221e-07
16350.0 9.9011e-07
16370.0 9.8791e-07
16390.0 9.8585e-07
16410.0 9.838e-07
16430.0 9.8166e-07
16450.0 9.7954e-07
16470.0 9.7751e-07
16490.0 9.7538e-07
16510.0 9.7321e-07
16530.0 9.7112e-07
16550.0 9.6904e-07
16570.0 9.6685e-07
16590.0 9.6469e-07
16610.0 9.6264e-07
16630.0 9.605e-07
16650.0 9.5833e-07
16670.0 9.5623e-07
16690.0 9.5413e-07
16710.0 9.5189e-07
16730.0 9.4974e-07
16750.0 9.4763e-07
16770.0 9.4545e-07
16790.0 9.4322e-07
16810.0 9.4111e-07
16830.0 9.3897e-07
16850.0 9.3674e-07
16870.0 9.3456e-07
16890.0 9.3243e-07
16910.0 9.3019e-07
16930.0 9.2792e-07
16950.0 9.2577e-07
16970.0 9.2358e-07
16990.0 9.2131e-07
17010.0 9.191e-07
17030.0 9.1694e-07
17050.0 9.1467e-07
17070.0 9.124e-07
17090.0 9.102e-07
17110.0 9.0797e-07
17130.0 9.0562e-07
17150.0 9.0337e-07
17170.0 9.0116e-07
17190.0 8.9886e-07
17210.0 8.9655e-07
17230.0 8.9434e-07
17250.0 8.9205e-07
17270.0 8.8968e-07
17290.0 8.874e-07
17310.0 8.8513e-07
17330.0 8.8278e-07
17350.0 8.804e-07
17370.0 8.7815e-07
17390.0 8.7583e-07
17410.0 8.7345e-07
17430.0 8.7113e-07
17450.0 8.6885e-07
17470.0 8.664e-07
17490.0 8.6401e-07
17510.0 8.617e-07
17530.0 8.5933e-07
17550.0 8.5689e-07
17570.0 8.5455e-07
17590.0 8.5222e-07
17610.0 8.4977e-07
17630.0 8.4735e-07
17650.0 8.4501e-07
17670.0 8.4259e-07
17690.0 8.4006e-07
17710.0 8.3769e-07
17730.0 8.3531e-07
17750.0 8.3283e-07
17770.0 8.3039e-07
17790.0 8.2803e-07
17810.0 8.2555e-07
17830.0 8.2304e-07
17850.0 8.2061e-07
17870.0 8.1818e-07
17890.0 8.1565e-07
17910.0 8.1315e-07
17930.0 8.1075e-07
17950.0 8.0825e-07
17970.0 8.0573e-07
17990.0 8.0329e-07
18010.0 8.0083e-07
18030.0 7.9824e-07
18050.0 7.9573e-07
18070.0 7.9327e-07
18090.0 7.9074e-07
18110.0 7.8816e-07
18130.0 7.8571e-07
18150.0 7.8321e-07
18170.0 7.8063e-07
18190.0 7.7811e-07
18210.0 7.7563e-07
18230.0 7.7304e-07
18250.0 7.7043e-07
18270.0 7.6794e-07
18290.0 7.6541e-07
18310.0 7.6281e-07
18330.0 7.6027e-07
18350.0 7.5778e-07
18370.0 7.5517e-07
18390.0 7.5257e-07
18410.0 7.5005e-07
18430.0 7.4749e-07
18450.0 7.4482e-07
18470.0 7.4227e-07
18490.0 7.3975e-07
18510.0 7.3714e-07
18530.0 7.3453e-07
18550.0 7.3202e-07
18570.0 7.2942e-07
18590.0 7.2676e-07
18610.0 7.2418e-07
18630.0 7.2163e-07
18650.0 7.1899e-07
18670.0 7.1634e-07
18690.0 7.1382e-07
18710.0 7.1123e-07
18730.0 7.0858e-07
18750.0 7.06e-07
18770.0 7.0346e-07
18790.0 7.0076e-07
18810.0 6.9812e-07
18830.0 6.9557e-07
18850.0 6.9295e-07
18870.0 6.9029e-07
18890.0 6.8772e-07
18910.0 6.8515e-07
18930.0 6.8248e-07
18950.0 6.7986e-07
18970.0 6.773e-07
18990.0 6.7467e-07
19010.0 6.7194e-07
19030.0 6.6939e-07
19050.0 6.668e-07
19070.0 6.6414e-07
19090.0 6.6152e-07
19110.0 6.5898e-07
19130.0 6.5632e-07
19150.0 6.5365e-07
19170.0 6.5107e-07
19190.0 6.4847e-07
19210.0 6.4578e-07
19230.0 6.4315e-07
19250.0 6.4061e-07
19270.0 6.3797e-07
19290.0 6.3531e-07
19310.0 6.3275e-07
19330.0 6.3016e-07
19350.0 6.2745e-07
19370.0 6.2483e-07
19390.0 6.2227e-07
19410.0 6.1963e-07
19430.0 6.1696e-07
19450.0 6.1441e-07
19470.0 6.1182e-07
19490.0 6.0916e-07
19510.0 6.0655e-07
19530.0 6.04e-07
19550.0 6.0134e-07
19570.0 5.9866e-07
19590.0 5.9612e-07
19610.0 5.9352e-07
19630.0 5.9087e-07
19650.0 5.8828e-07
19670.0 5.8575e-07
19690.0 5.8309e-07
19710.0 5.8046e-07
19730.0 5.7791e-07
19750.0 5.7531e-07
19770.0 5.7263e-07
19790.0 5.7005e-07
19810.0 5.6751e-07
19830.0 5.6487e-07
19850.0 5.6222e-07
19870.0 5.5962e-07
19890.0 5.5682e-07
19910.0 5.5375e-07
19930.0 5.5047e-07
19950.0 5.4671e-07
19970.0 5.4208e-07
19990.0 5.3651e-07
20010.0 4.7733e-07
20030.0 4.7042e-07
20050.0 4.6234e-07
20070.0 4.5358e-07
20090.0 4.4415e-07
20110.0 4.3349e-07
20130.0 4.227e-07
20150.0 4.1201e-07
20170.0 4.0092e-07
20190.0 3.8967e-07
20210.0 3.7905e-07
20230.0 3.6869e-07
20250.0 3.583e-07
20270.0 3.4867e-07
20290.0 3.3987e-07
20310.0 3.3151e-07
20330.0 3.2369e-07
20350.0 3.1721e-07
20370.0 3.1145e-07
20390.0 3.064e-07
20410.0 3.0233e-07
20430.0 2.9918e-07
20450.0 2.9669e-07
20470.0 2.9502e-07
20490.0 2.9413e-07
20510.0 2.9387e-07
20530.0 2.9423e-07
20550.0 2.9514e-07
20570.0 2.9646e-07
20590.0 2.9825e-07
20610.0 3.0042e-07
20630.0 3.0281e-07
20650.0 3.0548e-07
20670.0 3.0853e-07
20690.0 3.1164e-07
20710.0 3.1486e-07
20730.0 3.1833e-07
20750.0 3.2195e-07
20770.0 3.2551e-07
20790.0 3.2925e-07
20810.0 3.3321e-07
20830.0 3.3715e-07
20850.0 3.411e-07
20870.0 3.4534e-07
20890.0 3.4966e-07
20910.0 3.5382e-07
20930.0 3.5814e-07
20950.0 3.6262e-07
20970.0 3.6699e-07
20990.0 3.713e-07
21010.0 3.7583e-07
21030.0 3.8026e-07
21050.0 3.8448e-07
21070.0 3.887e-07
21090.0 3.9293e-07
21110.0 3.9679e-07
21130.0 4.0042e-07
21150.0 4.0393e-07
21170.0 4.0711e-07
21190.0 4.0985e-07
21210.0 4.1231e-07
21230.0 4.1436e-07
21250.0 4.1582e-07
21270.0 4.1675e-07
21290.0 4.1709e-07
21310.0 4.1676e-07
21330.0 4.1578e-07
21350.0 4.1405e-07
21370.0 4.1151e-07
21390.0 4.0829e-07
21410.0 4.0435e-07
21430.0 3.9935e-07
21450.0 3.9374e-07
21470.0 3.8763e-07
21490.0 3.8072e-07
21510.0 3.7314e-07
21530.0 3.6544e-07
21550.0 3.5737e-07
21570.0 3.4877e-07
21590.0 3.4031e-07
21610.0 3.3213e-07
21630.0 3.2395e-07
21650.0 3.1595e-07
21670.0 3.0902e-07
21690.0 3.0263e-07
21710.0 2.9687e-07
21730.0 2.9216e-07
21750.0 2.8852e-07
21770.0 2.8575e-07
21790.0 2.8415e-07
21810.0 2.8371e-07
21830.0 2.8434e-07
21850.0 2.8612e-07
21870.0 2.8889e-07
21890.0 2.9247e-07
21910.0 2.9706e-07
21930.0 3.0245e-07
21950.0 3.0829e-07
21970.0 3.1475e-07
21990.0 3.2201e-07
22010.0 3.2926e-07
22030.0 3.3662e-07
22050.0 3.4436e-07
22070.0 3.5213e-07
22090.0 3.595e-07
22110.0 3.6692e-07
22130.0 3.7433e-07
22150.0 3.8125e-07
22170.0 3.8778e-07
22190.0 3.9425e-07
22210.0 4.0026e-07
22230.0 4.0556e-07
22250.0 4.1055e-07
22270.0 4.1514e-07
22290.0 4.1906e-07
22310.0 4.2243e-07
22330.0 4.254e-07
22350.0 4.2769e-07
22370.0 4.2931e-07
22390.0 4.3032e-07
22410.0 4.3064e-07
22430.0 4.3023e-07
22450.0 4.2912e-07
22470.0 4.2721e-07
22490.0 4.2452e-07
22510.0 4.2116e-07
22530.0 4.1687e-07
22550.0 4.1166e-07
22570.0 4.0587e-07
22590.0 3.9934e-07
22610.0 3.9183e-07
