#lamb flux
1010.0 2.4482e-07
1030.0 2.7502e-07
1050.0 3.0976e-07
1070.0 3.4887e-07
1090.0 3.933e-07
1110.0 4.3886e-07
1130.0 4.8472e-07
1150.0 5.3276e-07
1170.0 5.8231e-07
1190.0 6.293e-07
1210.0 6.7692e-07
1230.0 7.2614e-07
1250.0 7.7435e-07
1270.0 8.2118e-07
1290.0 8.7066e-07
1310.0 9.201e-07
1330.0 9.6752e-07
1350.0 1.0155e-06
1370.0 1.065e-06
1390.0 1.1132e-06
1410.0 1.1601e-06
1430.0 1.209e-06
1450.0 1.258e-06
1470.0 1.3053e-06
1490.0 1.3531e-06
1510.0 1.4036e-06
1530.0 1.4514e-06
1550.0 1.4985e-06
1570.0 1.5473e-06
1590.0 1.5961e-06
1610.0 1.6427e-06
1630.0 1.6907e-06
1650.0 1.74e-06
1670.0 1.7876e-06
1690.0 1.8345e-06
1710.0 1.8832e-06
1730.0 1.9321e-06
1750.0 1.9779e-06
1770.0 2.025e-06
1790.0 2.073e-06
1810.0 2.1192e-06
1830.0 2.1645e-06
1850.0 2.2124e-06
1870.0 2.2588e-06
1890.0 2.3033e-06
1910.0 2.3485e-06
1930.0 2.3945e-06
1950.0 2.4379e-06
1970.0 2.4804e-06
1990.0 2.5241e-06
2010.0 2.5664e-06
2030.0 2.6065e-06
2050.0 2.6474e-06
2070.0 2.6886e-06
2090.0 2.7264e-06
2110.0 2.7632e-06
2130.0 2.8003e-06
2150.0 2.8356e-06
2170.0 2.8677e-06
2190.0 2.9004e-06
2210.0 2.932e-06
2230.0 2.9605e-06
2250.0 2.9873e-06
2270.0 3.0146e-06
2290.0 3.0389e-06
2310.0 3.0597e-06
2330.0 3.0801e-06
2350.0 3.0992e-06
2370.0 3.1148e-06
2390.0 3.1294e-06
2410.0 3.1449e-06
2430.0 3.1587e-06
2450.0 3.172e-06
2470.0 3.1886e-06
2490.0 3.2107e-06
2510.0 3.2373e-06
2530.0 3.2805e-06
2550.0 3.3573e-06
2570.0 3.4838e-06
2590.0 3.6803e-06
2610.0 4.0035e-06
2630.0 4.4636e-06
2650.0 5.031e-06
2670.0 5.7086e-06
2690.0 6.4642e-06
2710.0 7.182e-06
2730.0 7.8076e-06
2750.0 8.35e-06
2770.0 8.7504e-06
2790.0 9.0079e-06
2810.0 9.169e-06
2830.0 9.2649e-06
2850.0 9.2966e-06
2870.0 9.2993e-06
2890.0 9.2923e-06
2910.0 9.2769e-06
2930.0 9.2518e-06
2950.0 9.2307e-06
2970.0 9.2124e-06
2990.0 9.19e-06
3010.0 0.00016571
3030.0 0.00016518
3050.0 0.00016464
3070.0 0.00016393
3090.0 0.00016316
3110.0 0.00016214
3130.0 0.00016065
3150.0 0.0001586
3170.0 0.00015584
3190.0 0.00015243
3210.0 0.00014868
3230.0 0.00014494
3250.0 0.00014209
3270.0 0.00014018
3290.0 0.00014027
3310.0 0.00014155
3330.0 0.00014495
3350.0 0.00014982
3370.0 0.00015626
3390.0 0.00016405
3410.0 0.00017237
3430.0 0.00018162
3450.0 0.00019212
3470.0 0.0002034
3490.0 0.00021513
3510.0 0.00022819
3530.0 0.000242
3550.0 0.00025552
3570.0 0.00026937
3590.0 0.00028491
3610.0 0.00030028
3630.0 0.00031684
3650.0 0.00033376
3670.0 0.00034972
3690.0 0.000362
3710.0 0.00036967
3730.0 0.00037229
3750.0 0.00036958
3770.0 0.00033692
3790.0 0.00030226
3810.0 0.00028217
3830.0 0.00024349
3850.0 0.00017547
3870.0 0.00013468
3890.0 0.00022641
3910.0 0.00036028
3930.0 0.0004362
3950.0 0.00043588
3970.0 0.00043569
3990.0 0.00051103
4010.0 0.00063429
4030.0 0.00065266
4050.0 0.00058754
4070.0 0.00051098
4090.0 0.00047889
4110.0 0.00057458
4130.0 0.00059506
4150.0 0.0005668
4170.0 0.0005852
4190.0 0.00060066
4210.0 0.00059198
4230.0 0.00064264
4250.0 0.0007
4270.0 0.00070726
4290.0 0.00071826
4310.0 0.00074661
4330.0 0.00082547
4350.0 0.00094152
4370.0 0.0010645
4390.0 0.0010253
4410.0 0.00085964
4430.0 0.00072446
4450.0 0.00061635
4470.0 0.00060321
4490.0 0.00065484
4510.0 0.00071662
4530.0 0.00078404
4550.0 0.00091327
4570.0 0.0010984
4590.0 0.0013446
4610.0 0.0016897
4630.0 0.0020245
4650.0 0.0020948
4670.0 0.0020544
4690.0 0.0021878
4710.0 0.0022865
4730.0 0.0019435
4750.0 0.0014133
4770.0 0.0011599
4790.0 0.0011069
4810.0 0.0010281
4830.0 0.00097485
4850.0 0.0011228
4870.0 0.0014333
4890.0 0.0016261
4910.0 0.0013986
4930.0 0.0012487
4950.0 0.0014049
4970.0 0.0018714
4990.0 0.0023946
5010.0 0.0025096
5030.0 0.0020783
5050.0 0.0013682
5070.0 0.00094668
5090.0 0.00084195
5110.0 0.00087984
5130.0 0.00094357
5150.0 0.00099328
5170.0 0.00099326
5190.0 0.00097628
5210.0 0.0009447
5230.0 0.00095998
5250.0 0.001022
5270.0 0.0011935
5290.0 0.0013784
5310.0 0.0014979
5330.0 0.0015365
5350.0 0.0015604
5370.0 0.0016943
5390.0 0.0018
5410.0 0.0017505
5430.0 0.0015325
5450.0 0.0014193
5470.0 0.0015999
5490.0 0.0020481
5510.0 0.002596
5530.0 0.0028614
5550.0 0.0027935
5570.0 0.0025476
5590.0 0.0022925
5610.0 0.0021141
5630.0 0.0020037
5650.0 0.0020569
5670.0 0.0020146
5690.0 0.0018914
5710.0 0.0017823
5730.0 0.0015988
5750.0 0.0011903
5770.0 0.0010436
5790.0 0.0011641
5810.0 0.0014035
5830.0 0.0015712
5850.0 0.0016937
5870.0 0.0017319
5890.0 0.0016679
5910.0 0.0015969
5930.0 0.001607
5950.0 0.0016867
5970.0 0.0017654
5990.0 0.0016765
6010.0 0.0014183
6030.0 0.0011789
6050.0 0.0010283
6070.0 0.0010191
6090.0 0.0011433
6110.0 0.0012465
6130.0 0.0012007
6150.0 0.0011279
6170.0 0.0012487
6190.0 0.0015013
6210.0 0.0018014
6230.0 0.0020307
6250.0 0.0020221
6270.0 0.0018242
6290.0 0.0015101
6310.0 0.0012049
6330.0 0.00096724
6350.0 0.0008773
6370.0 0.00095659
6390.0 0.0011228
6410.0 0.0012867
6430.0 0.0014884
6450.0 0.00173
6470.0 0.0021374
6490.0 0.0026211
6510.0 0.0028776
6530.0 0.0026752
6550.0 0.0024693
6570.0 0.0024293
6590.0 0.0023345
6610.0 0.0021103
6630.0 0.0018947
6650.0 0.0017516
6670.0 0.0018188
6690.0 0.0018088
6710.0 0.0016036
6730.0 0.0014862
6750.0 0.0013216
6770.0 0.0012723
6790.0 0.0013723
6810.0 0.0014462
6830.0 0.0014815
6850.0 0.0014561
6870.0 0.0013959
6890.0 0.0013676
6910.0 0.0013002
6930.0 0.0012283
6950.0 0.0012354
6970.0 0.0012611
6990.0 0.001404
7010.0 0.0014939
7030.0 0.0013605
7050.0 0.0012744
7070.0 0.0012258
7090.0 0.0011029
7110.0 0.0010275
7130.0 0.0010459
7150.0 0.0010862
7170.0 0.0011441
7190.0 0.0011459
7210.0 0.0011516
7230.0 0.001213
7250.0 0.0013969
7270.0 0.0016318
7290.0 0.0017488
7310.0 0.0016944
7330.0 0.0015071
7350.0 0.0013547
7370.0 0.0013322
7390.0 0.0013448
7410.0 0.0013941
7430.0 0.0015264
7450.0 0.0016545
7470.0 0.0018335
7490.0 0.0020259
7510.0 0.0018626
7530.0 0.0017832
7550.0 0.0014977
7570.0 0.0012587
7590.0 0.0010374
7610.0 0.00095231
7630.0 0.00099648
7650.0 0.0011397
7670.0 0.0012416
7690.0 0.0014006
7710.0 0.0015613
7730.0 0.0016329
7750.0 0.0016369
7770.0 0.001631
7790.0 0.0016072
7810.0 0.0016696
7830.0 0.0016141
7850.0 0.0014402
7870.0 0.0013008
7890.0 0.001212
7910.0 0.0010933
7930.0 0.00093561
7950.0 0.00085654
7970.0 0.00085162
7990.0 0.00089141
8010.0 0.00094643
8030.0 0.00096032
8050.0 0.00095646
8070.0 0.00092938
8090.0 0.00092516
8110.0 0.00087924
8130.0 0.00081952
8150.0 0.00077051
8170.0 0.00075177
8190.0 0.00076786
8210.0 0.00076995
8230.0 0.0008007
8250.0 0.00079589
8270.0 0.00071143
8290.0 0.00054652
8310.0 0.00037217
8330.0 0.00024548
8350.0 0.00017426
8370.0 0.00020691
8390.0 0.00022897
8410.0 0.00029327
8430.0 0.00035538
8450.0 0.00038939
8470.0 0.0004039
8490.0 0.00041481
8510.0 0.00043335
8530.0 0.00048462
8550.0 0.00053548
8570.0 0.0006292
8590.0 0.00077174
8610.0 0.00090375
8630.0 0.0010565
8650.0 0.0011884
8670.0 0.0011709
8690.0 0.0010973
8710.0 0.0010371
8730.0 0.00098029
8750.0 0.0009377
8770.0 0.00091007
8790.0 0.00088183
8810.0 0.00082161
8830.0 0.00074091
8850.0 0.00064159
8870.0 0.0005482
8890.0 0.0004952
8910.0 0.00050085
8930.0 0.00050023
8950.0 0.00054321
8970.0 0.00055585
8990.0 0.00057745
9010.0 0.00059889
9030.0 0.00060366
9050.0 0.00060591
9070.0 0.0006076
9090.0 0.00060885
9110.0 0.00060948
9130.0 0.00061047
9150.0 0.00061185
9170.0 0.00061322
9190.0 0.00061457
9210.0 0.00061668
9230.0 0.00061825
9250.0 0.00062006
9270.0 0.00062197
9290.0 0.000624
9310.0 0.00062621
9330.0 0.00062855
9350.0 0.00063096
9370.0 0.00063351
9390.0 0.00063623
9410.0 0.00063902
9430.0 0.00064188
9450.0 0.00064495
9470.0 0.00064811
9490.0 0.00065133
9510.0 0.00065469
9530.0 0.00065819
9550.0 0.00066172
9570.0 0.00066534
9590.0 0.00066912
9610.0 0.00067298
9630.0 0.00067687
9650.0 0.00068089
9670.0 0.00068504
9690.0 0.00068922
9710.0 0.00069346
9730.0 0.00069783
9750.0 0.00070226
9770.0 0.00070666
9790.0 0.00071121
9810.0 0.00071584
9830.0 0.00072048
9850.0 0.00072516
9870.0 0.00072996
9890.0 0.00073477
9910.0 0.00073957
9930.0 0.00074445
9950.0 0.00074936
9970.0 0.00075426
9990.0 0.00075917
10010.0 0.00074676
10030.0 0.00075157
10050.0 0.0007563
10070.0 0.00076091
10090.0 0.00076584
10110.0 0.00077065
10130.0 0.00077545
10150.0 0.00078029
10170.0 0.00078505
10190.0 0.0007897
10210.0 0.00079442
10230.0 0.00079912
10250.0 0.00080369
10270.0 0.00080823
10290.0 0.00081281
10310.0 0.00081725
10330.0 0.00082155
10350.0 0.0008259
10370.0 0.00083019
10390.0 0.00083431
10410.0 0.00083837
10430.0 0.00084245
10450.0 0.00084636
10470.0 0.00085013
10490.0 0.00085388
10510.0 0.00085754
10530.0 0.00086095
10550.0 0.00086431
10570.0 0.00086766
10590.0 0.0008708
10610.0 0.00087377
10630.0 0.00087673
10650.0 0.00087954
10670.0 0.0008821
10690.0 0.00088458
10710.0 0.00088699
10730.0 0.00088918
10750.0 0.00089113
10770.0 0.00089311
10790.0 0.0008949
10810.0 0.00089643
10830.0 0.00089783
10850.0 0.00089909
10870.0 0.00089986
10890.0 0.00090012
10910.0 0.00089974
10930.0 0.00089818
10950.0 0.00089466
10970.0 0.00088893
10990.0 0.00088081
11010.0 0.00085107
11030.0 0.00083609
11050.0 0.00081866
11070.0 0.00079829
11090.0 0.00077412
11110.0 0.00074943
11130.0 0.00072393
11150.0 0.00069678
11170.0 0.00066926
11190.0 0.00064319
11210.0 0.00061696
11230.0 0.00059092
11250.0 0.00056699
11270.0 0.00054489
11290.0 0.00052364
11310.0 0.00050438
11330.0 0.00048809
11350.0 0.0004732
11370.0 0.00045979
11390.0 0.00044833
11410.0 0.00043823
11430.0 0.00042852
11450.0 0.00041961
11470.0 0.0004112
11490.0 0.00040255
11510.0 0.00039328
11530.0 0.00038389
11550.0 0.00037397
11570.0 0.00036298
11590.0 0.00035144
11610.0 0.00033975
11630.0 0.00032724
11650.0 0.0003142
11670.0 0.00030176
11690.0 0.00028954
11710.0 0.00027738
11730.0 0.00026599
11750.0 0.00025577
11770.0 0.00024603
11790.0 0.00023713
11810.0 0.00022943
11830.0 0.0002226
11850.0 0.0002163
11870.0 0.0002109
11890.0 0.00020619
11910.0 0.00020176
11930.0 0.00019757
11950.0 0.00019365
11970.0 0.00018971
11990.0 0.00018553
12010.0 0.0001813
12030.0 0.00017697
12050.0 0.00017235
12070.0 0.0001675
12090.0 0.00016285
12110.0 0.00015817
12130.0 0.00015354
12150.0 0.00014928
12170.0 0.00014551
12190.0 0.0001421
12210.0 0.0001394
12230.0 0.00013752
12250.0 0.00013642
12270.0 0.0001362
12290.0 0.00013687
12310.0 0.0001383
12330.0 0.00014064
12350.0 0.00014373
12370.0 0.00014731
12390.0 0.00015146
12410.0 0.00015629
12430.0 0.00016108
12450.0 0.00016589
12470.0 0.00017084
12490.0 0.0001756
12510.0 0.00017981
12530.0 0.00018376
12550.0 0.00018729
12570.0 0.00019007
12590.0 0.00019219
12610.0 0.00019374
12630.0 0.00019454
12650.0 0.00019459
12670.0 0.00019402
12690.0 0.00019282
12710.0 0.00019107
12730.0 0.00018885
12750.0 0.0001861
12770.0 0.00018301
12790.0 0.00017967
12810.0 0.00017603
12830.0 0.0001721
12850.0 0.00016813
12870.0 0.00016406
12890.0 0.00015974
12910.0 0.00015536
12930.0 0.00015101
12950.0 0.00014644
12970.0 0.00014171
12990.0 0.00013711
13010.0 0.00013246
13030.0 0.00012767
13050.0 0.00012295
13070.0 0.00011844
13090.0 0.00011386
13110.0 0.00010939
13130.0 0.00010526
13150.0 0.00010135
13170.0 9.7596e-05
13190.0 9.4315e-05
13210.0 9.1508e-05
13230.0 8.9057e-05
13250.0 8.7074e-05
13270.0 8.5633e-05
13290.0 8.4659e-05
13310.0 8.4182e-05
13330.0 8.4206e-05
13350.0 8.4667e-05
13370.0 8.5577e-05
13390.0 8.691e-05
13410.0 8.8452e-05
13430.0 9.0269e-05
13450.0 9.2338e-05
13470.0 9.4466e-05
13490.0 9.6573e-05
13510.0 9.8821e-05
13530.0 0.00010096
13550.0 0.00010289
13570.0 0.00010468
13590.0 0.00010634
13610.0 0.00010771
13630.0 0.00010881
13650.0 0.00010974
13670.0 0.00011041
13690.0 0.00011082
13710.0 0.00011102
13730.0 0.00011102
13750.0 0.00011079
13770.0 0.00011039
13790.0 0.00010982
13810.0 0.0001091
13830.0 0.00010826
13850.0 0.00010728
13870.0 0.00010616
13890.0 0.00010496
13910.0 0.00010368
13930.0 0.00010226
13950.0 0.00010078
13970.0 9.9308e-05
13990.0 9.7756e-05
14010.0 9.6157e-05
14030.0 9.4603e-05
14050.0 9.3081e-05
14070.0 9.1527e-05
14090.0 9.0083e-05
14110.0 8.8767e-05
14130.0 8.7539e-05
14150.0 8.6434e-05
14170.0 8.5532e-05
14190.0 8.48e-05
14210.0 8.4237e-05
14230.0 8.3883e-05
14250.0 8.3731e-05
14270.0 8.3781e-05
14290.0 8.4048e-05
14310.0 8.4486e-05
14330.0 8.5097e-05
14350.0 8.5893e-05
14370.0 8.6812e-05
14390.0 8.7806e-05
14410.0 8.8938e-05
14430.0 9.0151e-05
14450.0 9.1372e-05
14470.0 9.2636e-05
14490.0 9.3999e-05
14510.0 9.5342e-05
14530.0 9.6681e-05
14550.0 9.812e-05
14570.0 9.9643e-05
14590.0 0.0001012
14610.0 0.0001029
14630.0 0.00010484
14650.0 0.0001069
14670.0 0.00010913
14690.0 0.00011167
14710.0 0.00011448
14730.0 0.00011736
14750.0 0.00012051
14770.0 0.00012393
14790.0 0.00012742
14810.0 0.00013092
14830.0 0.00013469
14850.0 0.00013839
14870.0 0.00014187
14890.0 0.00014526
14910.0 0.00014849
14930.0 0.0001513
14950.0 0.0001537
14970.0 0.00015577
14990.0 0.00015734
15010.0 0.00015843
15030.0 0.00015914
15050.0 0.0001595
15070.0 0.00015957
15090.0 0.00015946
15110.0 0.00015922
15130.0 0.00015891
15150.0 0.00015858
15170.0 0.00015822
15190.0 0.00015785
15210.0 0.00015748
15230.0 0.00015713
15250.0 0.00015675
15270.0 0.00015638
15290.0 0.00015604
15310.0 0.00015568
15330.0 0.00015531
15350.0 0.00015497
15370.0 0.00015463
15390.0 0.00015426
15410.0 0.00015391
15430.0 0.00015357
15450.0 0.00015322
15470.0 0.00015286
15490.0 0.00015252
15510.0 0.00015218
15530.0 0.00015183
15550.0 0.00015149
15570.0 0.00015115
15590.0 0.0001508
15610.0 0.00015044
15630.0 0.00015011
15650.0 0.00014977
15670.0 0.00014942
15690.0 0.00014907
15710.0 0.00014874
15730.0 0.00014839
15750.0 0.00014803
15770.0 0.0001477
15790.0 0.00014735
15810.0 0.00014699
15830.0 0.00014664
15850.0 0.0001463
15870.0 0.00014594
15890.0 0.00014558
15910.0 0.00014524
15930.0 0.00014488
15950.0 0.00014451
15970.0 0.00014416
15990.0 0.0001438
16010.0 0.00014343
16030.0 0.00014306
16050.0 0.0001427
16070.0 0.00014234
16090.0 0.00014196
16110.0 0.00014159
16130.0 0.00014123
16150.0 0.00014084
16170.0 0.00014045
16190.0 0.00014008
16210.0 0.0001397
16230.0 0.0001393
16250.0 0.00013892
16270.0 0.00013854
16290.0 0.00013814
16310.0 0.00013774
16330.0 0.00013736
16350.0 0.00013696
16370.0 0.00013653
16390.0 0.00013614
16410.0 0.00013574
16430.0 0.00013532
16450.0 0.0001349
16470.0 0.0001345
16490.0 0.00013408
16510.0 0.00013365
16530.0 0.00013323
16550.0 0.00013281
16570.0 0.00013237
16590.0 0.00013193
16610.0 0.00013151
16630.0 0.00013107
16650.0 0.00013063
16670.0 0.00013019
16690.0 0.00012975
16710.0 0.00012929
16730.0 0.00012884
16750.0 0.00012839
16770.0 0.00012793
16790.0 0.00012746
16810.0 0.00012701
16830.0 0.00012655
16850.0 0.00012607
16870.0 0.0001256
16890.0 0.00012514
16910.0 0.00012466
16930.0 0.00012417
16950.0 0.0001237
16970.0 0.00012322
16990.0 0.00012272
17010.0 0.00012224
17030.0 0.00012176
17050.0 0.00012126
17070.0 0.00012076
17090.0 0.00012027
17110.0 0.00011977
17130.0 0.00011925
17150.0 0.00011875
17170.0 0.00011825
17190.0 0.00011774
17210.0 0.00011722
17230.0 0.00011672
17250.0 0.00011621
17270.0 0.00011568
17290.0 0.00011516
17310.0 0.00011465
17330.0 0.00011411
17350.0 0.00011358
17370.0 0.00011307
17390.0 0.00011254
17410.0 0.000112
17430.0 0.00011147
17450.0 0.00011095
17470.0 0.0001104
17490.0 0.00010985
17510.0 0.00010932
17530.0 0.00010878
17550.0 0.00010823
17570.0 0.00010769
17590.0 0.00010716
17610.0 0.0001066
17630.0 0.00010605
17650.0 0.00010551
17670.0 0.00010496
17690.0 0.00010439
17710.0 0.00010385
17730.0 0.0001033
17750.0 0.00010274
17770.0 0.00010219
17790.0 0.00010165
17810.0 0.00010108
17830.0 0.00010052
17850.0 9.9963e-05
17870.0 9.941e-05
17890.0 9.8839e-05
17910.0 9.8274e-05
17930.0 9.7728e-05
17950.0 9.7164e-05
17970.0 9.6596e-05
17990.0 9.6043e-05
18010.0 9.5488e-05
18030.0 9.4909e-05
18050.0 9.4346e-05
18070.0 9.3793e-05
18090.0 9.3226e-05
18110.0 9.2652e-05
18130.0 9.21e-05
18150.0 9.1543e-05
18170.0 9.097e-05
18190.0 9.0409e-05
18210.0 8.9857e-05
18230.0 8.9285e-05
18250.0 8.8711e-05
18270.0 8.8159e-05
18290.0 8.76e-05
18310.0 8.7029e-05
18330.0 8.6471e-05
18350.0 8.5923e-05
18370.0 8.5354e-05
18390.0 8.4788e-05
18410.0 8.4237e-05
18430.0 8.3681e-05
18450.0 8.3107e-05
18470.0 8.2552e-05
18490.0 8.2006e-05
18510.0 8.1445e-05
18530.0 8.0885e-05
18550.0 8.0343e-05
18570.0 7.9789e-05
18590.0 7.9223e-05
18610.0 7.8675e-05
18630.0 7.8131e-05
18650.0 7.7573e-05
18670.0 7.7016e-05
18690.0 7.6482e-05
18710.0 7.5935e-05
18730.0 7.5382e-05
18750.0 7.4842e-05
18770.0 7.4308e-05
18790.0 7.375e-05
18810.0 7.3205e-05
18830.0 7.2674e-05
18850.0 7.2135e-05
18870.0 7.1588e-05
18890.0 7.1059e-05
18910.0 7.0532e-05
18930.0 6.9989e-05
18950.0 6.9455e-05
18970.0 6.8934e-05
18990.0 6.8402e-05
19010.0 6.7857e-05
19030.0 6.734e-05
19050.0 6.6821e-05
19070.0 6.629e-05
19090.0 6.5767e-05
19110.0 6.526e-05
19130.0 6.4733e-05
19150.0 6.4207e-05
19170.0 6.3697e-05
19190.0 6.3187e-05
19210.0 6.2663e-05
19230.0 6.2148e-05
19250.0 6.1651e-05
19270.0 6.114e-05
19290.0 6.0628e-05
19310.0 6.0131e-05
19330.0 5.9633e-05
19350.0 5.9116e-05
19370.0 5.8616e-05
19390.0 5.8126e-05
19410.0 5.7625e-05
19430.0 5.7122e-05
19450.0 5.6639e-05
19470.0 5.6152e-05
19490.0 5.5653e-05
19510.0 5.5167e-05
19530.0 5.469e-05
19550.0 5.4196e-05
19570.0 5.3703e-05
19590.0 5.3231e-05
19610.0 5.2754e-05
19630.0 5.2268e-05
19650.0 5.1796e-05
19670.0 5.1332e-05
19690.0 5.0851e-05
19710.0 5.0375e-05
19730.0 4.9914e-05
19750.0 4.9447e-05
19770.0 4.8968e-05
19790.0 4.8507e-05
19810.0 4.8053e-05
19830.0 4.7587e-05
19850.0 4.7121e-05
19870.0 4.6668e-05
19890.0 4.6195e-05
19910.0 4.5697e-05
19930.0 4.5191e-05
19950.0 4.465e-05
19970.0 4.4038e-05
19990.0 4.336e-05
20010.0 4.329e-05
20030.0 4.2463e-05
20050.0 4.1552e-05
20070.0 4.0614e-05
20090.0 3.965e-05
20110.0 3.8613e-05
20130.0 3.7606e-05
20150.0 3.6647e-05
20170.0 3.569e-05
20190.0 3.4755e-05
20210.0 3.39e-05
20230.0 3.3091e-05
20250.0 3.2305e-05
20270.0 3.1596e-05
20290.0 3.0964e-05
20310.0 3.0381e-05
20330.0 2.9855e-05
20350.0 2.943e-05
20370.0 2.907e-05
20390.0 2.8774e-05
20410.0 2.8556e-05
20430.0 2.841e-05
20450.0 2.8329e-05
20470.0 2.8317e-05
20490.0 2.8366e-05
20510.0 2.8472e-05
20530.0 2.8639e-05
20550.0 2.8851e-05
20570.0 2.9093e-05
20590.0 2.9384e-05
20610.0 2.9707e-05
20630.0 3.0041e-05
20650.0 3.0399e-05
20670.0 3.0792e-05
20690.0 3.1176e-05
20710.0 3.156e-05
20730.0 3.196e-05
20750.0 3.2363e-05
20770.0 3.2745e-05
20790.0 3.3136e-05
20810.0 3.3539e-05
20830.0 3.393e-05
20850.0 3.4316e-05
20870.0 3.4727e-05
20890.0 3.5143e-05
20910.0 3.5544e-05
20930.0 3.5962e-05
20950.0 3.64e-05
20970.0 3.683e-05
20990.0 3.7259e-05
21010.0 3.7715e-05
21030.0 3.8165e-05
21050.0 3.8596e-05
21070.0 3.9027e-05
21090.0 3.9462e-05
21110.0 3.9856e-05
21130.0 4.0224e-05
21150.0 4.058e-05
21170.0 4.09e-05
21190.0 4.1174e-05
21210.0 4.1423e-05
21230.0 4.1634e-05
21250.0 4.1791e-05
21270.0 4.1903e-05
21290.0 4.197e-05
21310.0 4.1984e-05
21330.0 4.1946e-05
21350.0 4.1855e-05
21370.0 4.1706e-05
21390.0 4.1505e-05
21410.0 4.1251e-05
21430.0 4.0923e-05
21450.0 4.0547e-05
21470.0 4.0129e-05
21490.0 3.965e-05
21510.0 3.9115e-05
21530.0 3.8562e-05
21550.0 3.7971e-05
21570.0 3.733e-05
21590.0 3.6684e-05
21610.0 3.6046e-05
21630.0 3.5389e-05
21650.0 3.4728e-05
21670.0 3.4132e-05
21690.0 3.3559e-05
21710.0 3.3014e-05
21730.0 3.2533e-05
21750.0 3.2124e-05
21770.0 3.176e-05
21790.0 3.1475e-05
21810.0 3.1275e-05
21830.0 3.115e-05
21850.0 3.1106e-05
21870.0 3.1144e-05
21890.0 3.1254e-05
21910.0 3.1446e-05
21930.0 3.1711e-05
21950.0 3.2032e-05
21970.0 3.242e-05
21990.0 3.2888e-05
22010.0 3.3386e-05
22030.0 3.392e-05
22050.0 3.451e-05
22070.0 3.5133e-05
22090.0 3.575e-05
22110.0 3.6397e-05
22130.0 3.707e-05
22150.0 3.7722e-05
22170.0 3.8356e-05
22190.0 3.9003e-05
22210.0 3.9621e-05
22230.0 4.0174e-05
22250.0 4.0702e-05
22270.0 4.119e-05
22290.0 4.1605e-05
22310.0 4.1957e-05
22330.0 4.2256e-05
22350.0 4.2472e-05
22370.0 4.2605e-05
22390.0 4.2661e-05
22410.0 4.2629e-05
22430.0 4.2512e-05
22450.0 4.2313e-05
22470.0 4.2021e-05
22490.0 4.1646e-05
22510.0 4.1206e-05
22530.0 4.0669e-05
22550.0 4.004e-05
22570.0 3.9366e-05
22590.0 3.8628e-05
22610.0 3.7801e-05
22630.0 3.6926e-05
22650.0 3.6041e-05
22670.0 3.5078e-05
22690.0 3.4066e-05
22710.0 3.306e-05
22730.0 3.2035e-05
22750.0 3.0936e-05
22770.0 2.9874e-05
22790.0 2.8846e-05
22810.0 2.78e-05
22830.0 2.6767e-05
