#lamb flux
1010.0 6.9685e-09
1030.0 7.625e-09
1050.0 8.3802e-09
1070.0 9.2303e-09
1090.0 1.0196e-08
1110.0 1.1186e-08
1130.0 1.2183e-08
1150.0 1.3227e-08
1170.0 1.4304e-08
1190.0 1.5325e-08
1210.0 1.636e-08
1230.0 1.743e-08
1250.0 1.8478e-08
1270.0 1.9495e-08
1290.0 2.0571e-08
1310.0 2.1645e-08
1330.0 2.2675e-08
1350.0 2.3717e-08
1370.0 2.4793e-08
1390.0 2.5842e-08
1410.0 2.6859e-08
1430.0 2.7923e-08
1450.0 2.8986e-08
1470.0 3.0014e-08
1490.0 3.1053e-08
1510.0 3.215e-08
1530.0 3.3189e-08
1550.0 3.4214e-08
1570.0 3.5274e-08
1590.0 3.6335e-08
1610.0 3.7349e-08
1630.0 3.8393e-08
1650.0 3.9465e-08
1670.0 4.0501e-08
1690.0 4.1522e-08
1710.0 4.2583e-08
1730.0 4.3649e-08
1750.0 4.465e-08
1770.0 4.5679e-08
1790.0 4.6728e-08
1810.0 4.7741e-08
1830.0 4.8735e-08
1850.0 4.9788e-08
1870.0 5.081e-08
1890.0 5.1794e-08
1910.0 5.2794e-08
1930.0 5.3816e-08
1950.0 5.4784e-08
1970.0 5.5734e-08
1990.0 5.6716e-08
2010.0 5.7673e-08
2030.0 5.8586e-08
2050.0 5.952e-08
2070.0 6.047e-08
2090.0 6.1349e-08
2110.0 6.2212e-08
2130.0 6.3092e-08
2150.0 6.3938e-08
2170.0 6.4725e-08
2190.0 6.5531e-08
2210.0 6.6325e-08
2230.0 6.7059e-08
2250.0 6.7769e-08
2270.0 6.8499e-08
2290.0 6.9176e-08
2310.0 6.9791e-08
2330.0 7.0419e-08
2350.0 7.1047e-08
2370.0 7.1647e-08
2390.0 7.2306e-08
2410.0 7.3138e-08
2430.0 7.414e-08
2450.0 7.5405e-08
2470.0 7.7137e-08
2490.0 7.9427e-08
2510.0 8.2081e-08
2530.0 8.5372e-08
2550.0 8.9622e-08
2570.0 9.5015e-08
2590.0 1.0211e-07
2610.0 1.1284e-07
2630.0 1.2805e-07
2650.0 1.4761e-07
2670.0 1.7248e-07
2690.0 2.0245e-07
2710.0 2.3365e-07
2730.0 2.6362e-07
2750.0 2.923e-07
2770.0 3.162e-07
2790.0 3.3404e-07
2810.0 3.4711e-07
2830.0 3.5624e-07
2850.0 3.6117e-07
2870.0 3.6371e-07
2890.0 3.649e-07
2910.0 3.651e-07
2930.0 3.6465e-07
2950.0 3.6409e-07
2970.0 3.6351e-07
2990.0 3.6283e-07
3010.0 1.1527e-05
3030.0 1.1508e-05
3050.0 1.1488e-05
3070.0 1.1461e-05
3090.0 1.1427e-05
3110.0 1.1374e-05
3130.0 1.1288e-05
3150.0 1.1157e-05
3170.0 1.096e-05
3190.0 1.0701e-05
3210.0 1.0396e-05
3230.0 1.0059e-05
3250.0 9.7145e-06
3270.0 9.4567e-06
3290.0 9.2646e-06
3310.0 9.226e-06
3330.0 9.2945e-06
3350.0 9.466e-06
3370.0 9.7391e-06
3390.0 1.01e-05
3410.0 1.0503e-05
3430.0 1.0963e-05
3450.0 1.1497e-05
3470.0 1.2086e-05
3490.0 1.2718e-05
3510.0 1.3437e-05
3530.0 1.4222e-05
3550.0 1.5056e-05
3570.0 1.5969e-05
3590.0 1.6983e-05
3610.0 1.8101e-05
3630.0 1.9207e-05
3650.0 2.0377e-05
3670.0 2.1429e-05
3690.0 2.2209e-05
3710.0 2.2604e-05
3730.0 2.2398e-05
3750.0 2.1618e-05
3770.0 2.2104e-05
3790.0 2.1748e-05
3810.0 1.746e-05
3830.0 1.7142e-05
3850.0 2.4457e-05
3870.0 2.4384e-05
3890.0 1.9225e-05
3910.0 1.8202e-05
3930.0 2.2054e-05
3950.0 2.5893e-05
3970.0 2.8288e-05
3990.0 1.9431e-05
4010.0 4.1126e-05
4030.0 4.2266e-05
4050.0 4.6554e-05
4070.0 4.9532e-05
4090.0 4.6365e-05
4110.0 3.9894e-05
4130.0 4.657e-05
4150.0 6.1036e-05
4170.0 4.9502e-05
4190.0 4.4997e-05
4210.0 4.9829e-05
4230.0 6.0291e-05
4250.0 7.2421e-05
4270.0 7.8081e-05
4290.0 6.9181e-05
4310.0 6.4917e-05
4330.0 6.4623e-05
4350.0 8.1272e-05
4370.0 9.8257e-05
4390.0 7.9493e-05
4410.0 4.5605e-05
4430.0 3.3182e-05
4450.0 3.1137e-05
4470.0 1.9277e-05
4490.0 3.1651e-05
4510.0 6.7393e-05
4530.0 8.1928e-05
4550.0 7.697e-05
4570.0 7.035e-05
4590.0 7.5465e-05
4610.0 0.00014477
4630.0 0.00020258
4650.0 0.00019414
4670.0 0.00017128
4690.0 0.00017333
4710.0 0.00018123
4730.0 0.00015107
4750.0 9.9608e-05
4770.0 6.8213e-05
4790.0 7.4354e-05
4810.0 7.7841e-05
4830.0 7.6467e-05
4850.0 8.2951e-05
4870.0 0.00010987
4890.0 0.00012743
4910.0 0.00010024
4930.0 9.6728e-05
4950.0 0.00011108
4970.0 0.00014723
4990.0 0.00019897
5010.0 0.00023043
5030.0 0.00018587
5050.0 0.00011498
5070.0 8.11e-05
5090.0 6.1638e-05
5110.0 5.8008e-05
5130.0 6.9731e-05
5150.0 6.8273e-05
5170.0 6.4349e-05
5190.0 5.7279e-05
5210.0 6.3753e-05
5230.0 7.8294e-05
5250.0 9.0882e-05
5270.0 8.493e-05
5290.0 9.1631e-05
5310.0 0.00012209
5330.0 0.00013166
5350.0 0.00012983
5370.0 0.0001451
5390.0 0.00018016
5410.0 0.00015612
5430.0 0.00012127
5450.0 0.00012148
5470.0 0.00014027
5490.0 0.00017511
5510.0 0.00021337
5530.0 0.00024745
5550.0 0.00022463
5570.0 0.0002017
5590.0 0.00016634
5610.0 0.00016762
5630.0 0.00018668
5650.0 0.0001721
5670.0 0.00015849
5690.0 0.00012878
5710.0 0.00013212
5730.0 0.00012798
5750.0 7.0789e-05
5770.0 5.0698e-05
5790.0 6.2514e-05
5810.0 6.6029e-05
5830.0 0.00010168
5850.0 0.00013239
5870.0 0.00014274
5890.0 0.00013679
5910.0 0.00013323
5930.0 0.000128
5950.0 0.00013193
5970.0 0.00016324
5990.0 0.00013519
6010.0 0.00010461
6030.0 8.556e-05
6050.0 7.6277e-05
6070.0 8.9998e-05
6090.0 0.00010096
6110.0 0.00010347
6130.0 9.6006e-05
6150.0 7.5882e-05
6170.0 5.9079e-05
6190.0 7.1596e-05
6210.0 0.00011266
6230.0 0.00016586
6250.0 0.00017898
6270.0 0.00013772
6290.0 0.00011789
6310.0 9.0013e-05
6330.0 6.5723e-05
6350.0 6.4306e-05
6370.0 6.7512e-05
6390.0 8.0598e-05
6410.0 0.0001042
6430.0 0.00012532
6450.0 0.00015334
6470.0 0.00016232
6490.0 0.00019442
6510.0 0.00021805
6530.0 0.00022239
6550.0 0.00020453
6570.0 0.00016416
6590.0 0.00015587
6610.0 0.00012924
6630.0 0.00013379
6650.0 0.00012997
6670.0 0.00011377
6690.0 8.8375e-05
6710.0 8.6221e-05
6730.0 3.7799e-05
6750.0 5.0742e-05
6770.0 7.9623e-05
6790.0 0.00010531
6810.0 7.5176e-05
6830.0 7.6763e-05
6850.0 6.3941e-05
6870.0 5.9819e-05
6890.0 5.0559e-05
6910.0 6.1512e-05
6930.0 5.7907e-05
6950.0 6.9218e-05
6970.0 7.1912e-05
6990.0 7.9831e-05
7010.0 7.7116e-05
7030.0 8.8277e-05
7050.0 7.6514e-05
7070.0 6.3826e-05
7090.0 6.8456e-05
7110.0 7.2632e-05
7130.0 8.3589e-05
7150.0 9.4732e-05
7170.0 0.00010621
7190.0 0.00011342
7210.0 0.00010111
7230.0 0.0001024
7250.0 0.00010975
7270.0 0.00011781
7290.0 0.00014515
7310.0 0.00015344
7330.0 0.00014354
7350.0 0.00012855
7370.0 9.535e-05
7390.0 9.8344e-05
7410.0 0.00012045
7430.0 0.00013727
7450.0 0.00014789
7470.0 0.00013532
7490.0 0.00010806
7510.0 0.0001742
7530.0 0.00015874
7550.0 0.00014973
7570.0 0.00010173
7590.0 4.5149e-05
7610.0 3.1875e-05
7630.0 4.8391e-05
7650.0 6.5066e-05
7670.0 0.00010358
7690.0 0.00011541
7710.0 0.00010429
7730.0 0.00010352
7750.0 0.0001359
7770.0 0.00013967
7790.0 0.00012771
7810.0 0.00010324
7830.0 0.00011187
7850.0 0.00012261
7870.0 0.00011988
7890.0 9.371e-05
7910.0 6.2989e-05
7930.0 6.5262e-05
7950.0 5.8954e-05
7970.0 4.9664e-05
7990.0 4.49e-05
8010.0 2.3591e-05
8030.0 2.1529e-05
8050.0 2.3376e-05
8070.0 2.6495e-05
8090.0 3.2534e-05
8110.0 3.0515e-05
8130.0 1.7855e-05
8150.0 1.8601e-05
8170.0 1.0115e-05
8190.0 5.8398e-06
8210.0 1.651e-05
8230.0 2.0058e-05
8250.0 7.3465e-06
8270.0 5.6661e-06
8290.0 1.1849e-05
8310.0 1.0556e-05
8330.0 6.4413e-06
8350.0 5.2039e-06
8370.0 1.072e-06
8390.0 5.5591e-06
8410.0 6.4139e-06
8430.0 7.9732e-06
8450.0 8.9761e-06
8470.0 1.5324e-05
8490.0 1.2377e-05
8510.0 9.3641e-06
8530.0 4.3214e-06
8550.0 1.6981e-05
8570.0 2.6726e-05
8590.0 1.8177e-05
8610.0 2.7639e-05
8630.0 2.9932e-05
8650.0 1.5237e-05
8670.0 2.3285e-05
8690.0 3.7254e-05
8710.0 3.1825e-05
8730.0 3.448e-05
8750.0 2.689e-05
8770.0 2.38e-05
8790.0 2.6601e-05
8810.0 2.904e-05
8830.0 1.5729e-05
8850.0 6.34e-06
8870.0 4.4057e-06
8890.0 1.224e-05
8910.0 1.9749e-05
8930.0 2.6329e-05
8950.0 2.9406e-05
8970.0 2.827e-05
8990.0 2.0957e-05
9010.0 1.9933e-05
9030.0 1.5048e-05
9050.0 1.5644e-05
9070.0 1.6268e-05
9090.0 1.6776e-05
9110.0 1.7391e-05
9130.0 1.7835e-05
9150.0 1.8151e-05
9170.0 1.8488e-05
9190.0 1.8848e-05
9210.0 1.9226e-05
9230.0 1.9626e-05
9250.0 2.003e-05
9270.0 2.0446e-05
9290.0 2.0874e-05
9310.0 2.13e-05
9330.0 2.1732e-05
9350.0 2.2179e-05
9370.0 2.2628e-05
9390.0 2.3078e-05
9410.0 2.3539e-05
9430.0 2.4014e-05
9450.0 2.4482e-05
9470.0 2.4959e-05
9490.0 2.5448e-05
9510.0 2.5942e-05
9530.0 2.6434e-05
9550.0 2.6945e-05
9570.0 2.7462e-05
9590.0 2.7979e-05
9610.0 2.8503e-05
9630.0 2.9042e-05
9650.0 2.9583e-05
9670.0 3.0123e-05
9690.0 3.0678e-05
9710.0 3.1241e-05
9730.0 3.1803e-05
9750.0 3.2373e-05
9770.0 3.2962e-05
9790.0 3.3547e-05
9810.0 3.4134e-05
9830.0 3.4734e-05
9850.0 3.5342e-05
9870.0 3.5945e-05
9890.0 3.6558e-05
9910.0 3.7184e-05
9930.0 3.7809e-05
9950.0 3.8436e-05
9970.0 3.9076e-05
9990.0 3.9722e-05
10010.0 3.5388e-05
10030.0 3.5954e-05
10050.0 3.6527e-05
10070.0 3.7095e-05
10090.0 3.7667e-05
10110.0 3.8253e-05
10130.0 3.8838e-05
10150.0 3.9418e-05
10170.0 4.0003e-05
10190.0 4.0597e-05
10210.0 4.1183e-05
10230.0 4.1767e-05
10250.0 4.236e-05
10270.0 4.2951e-05
10290.0 4.3535e-05
10310.0 4.4126e-05
10330.0 4.4722e-05
10350.0 4.5307e-05
10370.0 4.589e-05
10390.0 4.6479e-05
10410.0 4.7064e-05
10430.0 4.7637e-05
10450.0 4.8215e-05
10470.0 4.8794e-05
10490.0 4.9361e-05
10510.0 4.9924e-05
10530.0 5.0494e-05
10550.0 5.1055e-05
10570.0 5.1602e-05
10590.0 5.215e-05
10610.0 5.2697e-05
10630.0 5.3229e-05
10650.0 5.3755e-05
10670.0 5.4284e-05
10690.0 5.4802e-05
10710.0 5.5306e-05
10730.0 5.581e-05
10750.0 5.6312e-05
10770.0 5.6792e-05
10790.0 5.7266e-05
10810.0 5.7737e-05
10830.0 5.8193e-05
10850.0 5.8625e-05
10870.0 5.9047e-05
10890.0 5.9429e-05
10910.0 5.9742e-05
10930.0 5.9961e-05
10950.0 6.0036e-05
10970.0 5.9917e-05
10990.0 5.9585e-05
11010.0 5.9238e-05
11030.0 5.8336e-05
11050.0 5.7205e-05
11070.0 5.5832e-05
11090.0 5.417e-05
11110.0 5.2445e-05
11130.0 5.0645e-05
11150.0 4.8712e-05
11170.0 4.6729e-05
11190.0 4.4812e-05
11210.0 4.2845e-05
11230.0 4.0841e-05
11250.0 3.8936e-05
11270.0 3.7115e-05
11290.0 3.53e-05
11310.0 3.3586e-05
11330.0 3.2074e-05
11350.0 3.0646e-05
11370.0 2.9321e-05
11390.0 2.8165e-05
11410.0 2.7141e-05
11430.0 2.6178e-05
11450.0 2.5332e-05
11470.0 2.4583e-05
11490.0 2.3873e-05
11510.0 2.318e-05
11530.0 2.2527e-05
11550.0 2.1877e-05
11570.0 2.1188e-05
11590.0 2.0481e-05
11610.0 1.9767e-05
11630.0 1.9002e-05
11650.0 1.8193e-05
11670.0 1.7402e-05
11690.0 1.6605e-05
11710.0 1.579e-05
11730.0 1.5002e-05
11750.0 1.4271e-05
11770.0 1.3554e-05
11790.0 1.288e-05
11810.0 1.228e-05
11830.0 1.1738e-05
11850.0 1.1232e-05
11870.0 1.0799e-05
11890.0 1.043e-05
11910.0 1.0097e-05
11930.0 9.8027e-06
11950.0 9.5488e-06
11970.0 9.3163e-06
11990.0 9.0938e-06
12010.0 8.8856e-06
12030.0 8.6848e-06
12050.0 8.4801e-06
12070.0 8.2701e-06
12090.0 8.0679e-06
12110.0 7.8634e-06
12130.0 7.6579e-06
12150.0 7.4637e-06
12170.0 7.2865e-06
12190.0 7.1217e-06
12210.0 6.9854e-06
12230.0 6.8842e-06
12250.0 6.8192e-06
12270.0 6.7976e-06
12290.0 6.8215e-06
12310.0 6.8873e-06
12330.0 7.0048e-06
12350.0 7.1687e-06
12370.0 7.3658e-06
12390.0 7.6026e-06
12410.0 7.8893e-06
12430.0 8.1832e-06
12450.0 8.4897e-06
12470.0 8.8184e-06
12490.0 9.1487e-06
12510.0 9.456e-06
12530.0 9.7612e-06
12550.0 1.0054e-05
12570.0 1.0308e-05
12590.0 1.0526e-05
12610.0 1.0716e-05
12630.0 1.0862e-05
12650.0 1.0951e-05
12670.0 1.0999e-05
12690.0 1.0999e-05
12710.0 1.0949e-05
12730.0 1.0855e-05
12750.0 1.0714e-05
12770.0 1.0532e-05
12790.0 1.0318e-05
12810.0 1.007e-05
12830.0 9.79e-06
12850.0 9.4992e-06
12870.0 9.195e-06
12890.0 8.8702e-06
12910.0 8.5423e-06
12930.0 8.2207e-06
12950.0 7.8883e-06
12970.0 7.5524e-06
12990.0 7.2349e-06
13010.0 6.9224e-06
13030.0 6.6079e-06
13050.0 6.3058e-06
13070.0 6.0219e-06
13090.0 5.7371e-06
13110.0 5.4609e-06
13130.0 5.2043e-06
13150.0 4.9598e-06
13170.0 4.7189e-06
13190.0 4.5017e-06
13210.0 4.3073e-06
13230.0 4.1265e-06
13250.0 3.9665e-06
13270.0 3.8347e-06
13290.0 3.7257e-06
13310.0 3.641e-06
13330.0 3.5872e-06
13350.0 3.5623e-06
13370.0 3.567e-06
13390.0 3.6039e-06
13410.0 3.6656e-06
13430.0 3.7546e-06
13450.0 3.8718e-06
13470.0 4.0073e-06
13490.0 4.1549e-06
13510.0 4.3264e-06
13530.0 4.5041e-06
13550.0 4.6774e-06
13570.0 4.8516e-06
13590.0 5.0248e-06
13610.0 5.1816e-06
13630.0 5.3209e-06
13650.0 5.4509e-06
13670.0 5.5613e-06
13690.0 5.6488e-06
13710.0 5.7188e-06
13730.0 5.7719e-06
13750.0 5.8016e-06
13770.0 5.8134e-06
13790.0 5.8087e-06
13810.0 5.7871e-06
13830.0 5.7514e-06
13850.0 5.7013e-06
13870.0 5.6368e-06
13890.0 5.562e-06
13910.0 5.4773e-06
13930.0 5.3795e-06
13950.0 5.2727e-06
13970.0 5.1637e-06
13990.0 5.0457e-06
14010.0 4.9207e-06
14030.0 4.7966e-06
14050.0 4.6719e-06
14070.0 4.541e-06
14090.0 4.4157e-06
14110.0 4.298e-06
14130.0 4.1839e-06
14150.0 4.0763e-06
14170.0 3.9839e-06
14190.0 3.9032e-06
14210.0 3.8339e-06
14230.0 3.7811e-06
14250.0 3.7453e-06
14270.0 3.7252e-06
14290.0 3.7234e-06
14310.0 3.7387e-06
14330.0 3.7702e-06
14350.0 3.8192e-06
14370.0 3.8822e-06
14390.0 3.9556e-06
14410.0 4.0436e-06
14430.0 4.1421e-06
14450.0 4.2446e-06
14470.0 4.3528e-06
14490.0 4.4699e-06
14510.0 4.5841e-06
14530.0 4.6946e-06
14550.0 4.8071e-06
14570.0 4.9171e-06
14590.0 5.0191e-06
14610.0 5.1195e-06
14630.0 5.2202e-06
14650.0 5.3153e-06
14670.0 5.4078e-06
14690.0 5.5045e-06
14710.0 5.6059e-06
14730.0 5.707e-06
14750.0 5.8182e-06
14770.0 5.943e-06
14790.0 6.0773e-06
14810.0 6.2219e-06
14830.0 6.3917e-06
14850.0 6.5754e-06
14870.0 6.7666e-06
14890.0 6.9723e-06
14910.0 7.1903e-06
14930.0 7.4003e-06
14950.0 7.5974e-06
14970.0 7.7846e-06
14990.0 7.9434e-06
15010.0 8.0675e-06
15030.0 8.1623e-06
15050.0 8.2289e-06
15070.0 8.2671e-06
15090.0 8.2879e-06
15110.0 8.2965e-06
15130.0 8.2974e-06
15150.0 8.2948e-06
15170.0 8.2897e-06
15190.0 8.2835e-06
15210.0 8.2776e-06
15230.0 8.2718e-06
15250.0 8.2655e-06
15270.0 8.2594e-06
15290.0 8.2544e-06
15310.0 8.249e-06
15330.0 8.2434e-06
15350.0 8.2386e-06
15370.0 8.234e-06
15390.0 8.2285e-06
15410.0 8.2237e-06
15430.0 8.2195e-06
15450.0 8.2148e-06
15470.0 8.2099e-06
15490.0 8.2059e-06
15510.0 8.202e-06
15530.0 8.1975e-06
15550.0 8.1933e-06
15570.0 8.1898e-06
15590.0 8.1855e-06
15610.0 8.1809e-06
15630.0 8.1774e-06
15650.0 8.1737e-06
15670.0 8.1694e-06
15690.0 8.1655e-06
15710.0 8.1622e-06
15730.0 8.1581e-06
15750.0 8.1539e-06
15770.0 8.1503e-06
15790.0 8.1466e-06
15810.0 8.1419e-06
15830.0 8.138e-06
15850.0 8.1344e-06
15870.0 8.1302e-06
15890.0 8.1258e-06
15910.0 8.1221e-06
15930.0 8.118e-06
15950.0 8.113e-06
15970.0 8.1087e-06
15990.0 8.1046e-06
16010.0 8.0997e-06
16030.0 8.0944e-06
16050.0 8.0903e-06
16070.0 8.0855e-06
16090.0 8.0801e-06
16110.0 8.0751e-06
16130.0 8.0705e-06
16150.0 8.0643e-06
16170.0 8.0585e-06
16190.0 8.0533e-06
16210.0 8.0475e-06
16230.0 8.041e-06
16250.0 8.0351e-06
16270.0 8.0294e-06
16290.0 8.0226e-06
16310.0 8.0158e-06
16330.0 8.0095e-06
16350.0 8.0025e-06
16370.0 7.9944e-06
16390.0 7.9875e-06
16410.0 7.9804e-06
16430.0 7.9723e-06
16450.0 7.9643e-06
16470.0 7.9569e-06
16490.0 7.9484e-06
16510.0 7.9394e-06
16530.0 7.9309e-06
16550.0 7.9223e-06
16570.0 7.9126e-06
16590.0 7.9029e-06
16610.0 7.8941e-06
16630.0 7.8842e-06
16650.0 7.8738e-06
16670.0 7.864e-06
16690.0 7.8539e-06
16710.0 7.8424e-06
16730.0 7.8314e-06
16750.0 7.8207e-06
16770.0 7.8091e-06
16790.0 7.7969e-06
16810.0 7.7856e-06
16830.0 7.7738e-06
16850.0 7.761e-06
16870.0 7.7484e-06
16890.0 7.7361e-06
16910.0 7.7226e-06
16930.0 7.7087e-06
16950.0 7.6956e-06
16970.0 7.682e-06
16990.0 7.6674e-06
17010.0 7.6532e-06
17030.0 7.6393e-06
17050.0 7.6242e-06
17070.0 7.6088e-06
17090.0 7.5939e-06
17110.0 7.5785e-06
17130.0 7.5619e-06
17150.0 7.546e-06
17170.0 7.5303e-06
17190.0 7.5136e-06
17210.0 7.4965e-06
17230.0 7.4802e-06
17250.0 7.463e-06
17270.0 7.4449e-06
17290.0 7.4273e-06
17310.0 7.4098e-06
17330.0 7.3912e-06
17350.0 7.3723e-06
17370.0 7.3544e-06
17390.0 7.3356e-06
17410.0 7.3161e-06
17430.0 7.297e-06
17450.0 7.278e-06
17470.0 7.2574e-06
17490.0 7.2371e-06
17510.0 7.2175e-06
17530.0 7.197e-06
17550.0 7.1758e-06
17570.0 7.1553e-06
17590.0 7.1348e-06
17610.0 7.113e-06
17630.0 7.0914e-06
17650.0 7.0703e-06
17670.0 7.0484e-06
17690.0 7.0252e-06
17710.0 7.0035e-06
17730.0 6.9814e-06
17750.0 6.9583e-06
17770.0 6.9354e-06
17790.0 6.9132e-06
17810.0 6.8897e-06
17830.0 6.8658e-06
17850.0 6.8425e-06
17870.0 6.8191e-06
17890.0 6.7945e-06
17910.0 6.7702e-06
17930.0 6.7467e-06
17950.0 6.7222e-06
17970.0 6.6973e-06
17990.0 6.6731e-06
18010.0 6.6486e-06
18030.0 6.6227e-06
18050.0 6.5976e-06
18070.0 6.5728e-06
18090.0 6.5471e-06
18110.0 6.5211e-06
18130.0 6.496e-06
18150.0 6.4704e-06
18170.0 6.444e-06
18190.0 6.418e-06
18210.0 6.3924e-06
18230.0 6.3657e-06
18250.0 6.3386e-06
18270.0 6.3127e-06
18290.0 6.2862e-06
18310.0 6.259e-06
18330.0 6.2323e-06
18350.0 6.2061e-06
18370.0 6.1786e-06
18390.0 6.1512e-06
18410.0 6.1245e-06
18430.0 6.0974e-06
18450.0 6.0692e-06
18470.0 6.0419e-06
18490.0 6.015e-06
18510.0 5.9871e-06
18530.0 5.9593e-06
18550.0 5.9323e-06
18570.0 5.9045e-06
18590.0 5.876e-06
18610.0 5.8483e-06
18630.0 5.8208e-06
18650.0 5.7924e-06
18670.0 5.7639e-06
18690.0 5.7366e-06
18710.0 5.7086e-06
18730.0 5.68e-06
18750.0 5.6521e-06
18770.0 5.6245e-06
18790.0 5.5954e-06
18810.0 5.5669e-06
18830.0 5.5392e-06
18850.0 5.5108e-06
18870.0 5.482e-06
18890.0 5.4541e-06
18910.0 5.4262e-06
18930.0 5.3973e-06
18950.0 5.3689e-06
18970.0 5.341e-06
18990.0 5.3125e-06
19010.0 5.2832e-06
19030.0 5.2554e-06
19050.0 5.2273e-06
19070.0 5.1986e-06
19090.0 5.1702e-06
19110.0 5.1426e-06
19130.0 5.1139e-06
19150.0 5.0851e-06
19170.0 5.0572e-06
19190.0 5.0291e-06
19210.0 5.0003e-06
19230.0 4.9719e-06
19250.0 4.9444e-06
19270.0 4.916e-06
19290.0 4.8876e-06
19310.0 4.8599e-06
19330.0 4.8321e-06
19350.0 4.8032e-06
19370.0 4.7752e-06
19390.0 4.7477e-06
19410.0 4.7195e-06
19430.0 4.6912e-06
19450.0 4.6639e-06
19470.0 4.6363e-06
19490.0 4.6081e-06
19510.0 4.5805e-06
19530.0 4.5533e-06
19550.0 4.5252e-06
19570.0 4.4971e-06
19590.0 4.4701e-06
19610.0 4.4428e-06
19630.0 4.4149e-06
19650.0 4.3878e-06
19670.0 4.3611e-06
19690.0 4.3334e-06
19710.0 4.3059e-06
19730.0 4.2793e-06
19750.0 4.2523e-06
19770.0 4.2245e-06
19790.0 4.1978e-06
19810.0 4.1714e-06
19830.0 4.1442e-06
19850.0 4.117e-06
19870.0 4.0904e-06
19890.0 4.0623e-06
19910.0 4.0322e-06
19930.0 4.0009e-06
19950.0 3.9662e-06
19970.0 3.9254e-06
19990.0 3.878e-06
20010.0 3.5747e-06
20030.0 3.5168e-06
20050.0 3.4506e-06
20070.0 3.38e-06
20090.0 3.3049e-06
20110.0 3.2213e-06
20130.0 3.1374e-06
20150.0 3.0548e-06
20170.0 2.9698e-06
20190.0 2.8842e-06
20210.0 2.8036e-06
20230.0 2.7253e-06
20250.0 2.6472e-06
20270.0 2.5746e-06
20290.0 2.5082e-06
20310.0 2.445e-06
20330.0 2.3856e-06
20350.0 2.3358e-06
20370.0 2.291e-06
20390.0 2.2512e-06
20410.0 2.2182e-06
20430.0 2.1919e-06
20450.0 2.1701e-06
20470.0 2.1543e-06
20490.0 2.1441e-06
20510.0 2.1386e-06
20530.0 2.1377e-06
20550.0 2.1411e-06
20570.0 2.1479e-06
20590.0 2.1584e-06
20610.0 2.1721e-06
20630.0 2.1877e-06
20650.0 2.2058e-06
20670.0 2.227e-06
20690.0 2.249e-06
20710.0 2.2718e-06
20730.0 2.2968e-06
20750.0 2.3228e-06
20770.0 2.3483e-06
20790.0 2.375e-06
20810.0 2.4031e-06
20830.0 2.4307e-06
20850.0 2.4582e-06
20870.0 2.4874e-06
20890.0 2.5168e-06
20910.0 2.5448e-06
20930.0 2.5737e-06
20950.0 2.6033e-06
20970.0 2.6319e-06
20990.0 2.6599e-06
21010.0 2.6893e-06
21030.0 2.7178e-06
21050.0 2.7447e-06
21070.0 2.7715e-06
21090.0 2.7984e-06
21110.0 2.8227e-06
21130.0 2.8454e-06
21150.0 2.8675e-06
21170.0 2.8874e-06
21190.0 2.9043e-06
21210.0 2.9197e-06
21230.0 2.9325e-06
21250.0 2.9415e-06
21270.0 2.9471e-06
21290.0 2.9491e-06
21310.0 2.9468e-06
21330.0 2.9402e-06
21350.0 2.9288e-06
21370.0 2.9121e-06
21390.0 2.8908e-06
21410.0 2.8646e-06
21430.0 2.8315e-06
21450.0 2.7941e-06
21470.0 2.7531e-06
21490.0 2.7067e-06
21510.0 2.6555e-06
21530.0 2.6032e-06
21550.0 2.5482e-06
21570.0 2.4893e-06
21590.0 2.431e-06
21610.0 2.3744e-06
21630.0 2.3174e-06
21650.0 2.2613e-06
21670.0 2.2121e-06
21690.0 2.1663e-06
21710.0 2.1244e-06
21730.0 2.0892e-06
21750.0 2.061e-06
21770.0 2.0383e-06
21790.0 2.0232e-06
21810.0 2.0157e-06
21830.0 2.0152e-06
21850.0 2.0221e-06
21870.0 2.0356e-06
21890.0 2.0546e-06
21910.0 2.0801e-06
21930.0 2.111e-06
21950.0 2.1452e-06
21970.0 2.1836e-06
21990.0 2.2274e-06
22010.0 2.2716e-06
22030.0 2.3169e-06
22050.0 2.3649e-06
22070.0 2.4137e-06
22090.0 2.4601e-06
22110.0 2.5073e-06
22130.0 2.5548e-06
22150.0 2.5994e-06
22170.0 2.6417e-06
22190.0 2.6839e-06
22210.0 2.7234e-06
22230.0 2.7582e-06
22250.0 2.7912e-06
22270.0 2.8217e-06
22290.0 2.8477e-06
22310.0 2.87e-06
22330.0 2.8897e-06
22350.0 2.9048e-06
22370.0 2.9154e-06
22390.0 2.9219e-06
22410.0 2.9238e-06
22430.0 2.9207e-06
22450.0 2.913e-06
22470.0 2.8999e-06
22490.0 2.8816e-06
22510.0 2.859e-06
22530.0 2.8302e-06
22550.0 2.7953e-06
22570.0 2.7566e-06
22590.0 2.713e-06
22610.0 2.663e-06
22630.0 2.6089e-06
