#lamb flux
1010.0 0.00047986
1030.0 0.00064456
1050.0 0.00086455
1070.0 0.0011518
1090.0 0.0015256
1110.0 0.001979
1130.0 0.002513
1150.0 0.0031452
1170.0 0.0038756
1190.0 0.0046659
1210.0 0.0055298
1230.0 0.0064644
1250.0 0.0074241
1270.0 0.0083754
1290.0 0.0093365
1310.0 0.010246
1330.0 0.011047
1350.0 0.01174
1370.0 0.012313
1390.0 0.01271
1410.0 0.012917
1430.0 0.012974
1450.0 0.012857
1470.0 0.012558
1490.0 0.01212
1510.0 0.01158
1530.0 0.010913
1550.0 0.010168
1570.0 0.0093859
1590.0 0.0085754
1610.0 0.0077468
1630.0 0.0069384
1650.0 0.0061598
1670.0 0.005411
1690.0 0.0047061
1710.0 0.0040564
1730.0 0.0034594
1750.0 0.0029119
1770.0 0.0024221
1790.0 0.0019866
1810.0 0.0016013
1830.0 0.0012655
1850.0 0.00097126
1870.0 0.00071493
1890.0 0.00050268
1910.0 0.0003329
1930.0 0.0002031
1950.0 0.00016566
1970.0 0.00016547
1990.0 0.00016663
2010.0 0.000169
2030.0 0.00017248
2050.0 0.00017716
2070.0 0.00026766
2090.0 0.00039862
2110.0 0.00055583
2130.0 0.0007383
2150.0 0.00094411
2170.0 0.0011709
2190.0 0.0014184
2210.0 0.0016793
2230.0 0.0019488
2250.0 0.0022318
2270.0 0.0025282
2290.0 0.0028334
2310.0 0.0031446
2330.0 0.0034626
2350.0 0.0037846
2370.0 0.0041053
2390.0 0.0044249
2410.0 0.0047433
2430.0 0.0050529
2450.0 0.0053513
2470.0 0.0056391
2490.0 0.0059141
2510.0 0.0061727
2530.0 0.0064259
2550.0 0.0066907
2570.0 0.0069878
2590.0 0.0073466
2610.0 0.0078427
2630.0 0.0085275
2650.0 0.0094197
2670.0 0.010597
2690.0 0.012129
2710.0 0.013915
2730.0 0.015878
2750.0 0.018078
2770.0 0.020279
2790.0 0.022256
2810.0 0.024002
2830.0 0.025503
2850.0 0.026502
2870.0 0.027146
2890.0 0.027553
2910.0 0.027721
2930.0 0.027662
2950.0 0.027516
2970.0 0.027294
2990.0 0.026954
3010.0 0.026546
3030.0 0.026133
3050.0 0.025692
3070.0 0.025175
3090.0 0.02468
3110.0 0.024212
3130.0 0.02376
3150.0 0.022221
3170.0 0.021048
3190.0 0.019874
3210.0 0.018914
3230.0 0.018712
3250.0 0.021285
3270.0 0.027537
3290.0 0.031189
3310.0 0.026083
3330.0 0.025748
3350.0 0.026469
3370.0 0.027383
3390.0 0.028223
3410.0 0.028545
3430.0 0.028456
3450.0 0.028253
3470.0 0.02826
3490.0 0.027514
3510.0 0.023567
3530.0 0.015712
3550.0 0.012944
3570.0 0.024667
3590.0 0.039793
3610.0 0.048344
3630.0 0.068037
3650.0 0.070929
3670.0 0.058213
3690.0 0.043186
3710.0 0.03488
3730.0 0.036056
3750.0 0.037769
3770.0 0.039164
3790.0 0.040516
3810.0 0.04682
3830.0 0.042851
3850.0 0.034649
3870.0 0.030166
3890.0 0.036077
3910.0 0.040366
3930.0 0.040714
3950.0 0.044288
3970.0 0.048333
3990.0 0.047233
4010.0 0.050048
4030.0 0.047921
4050.0 0.045469
4070.0 0.043531
4090.0 0.044093
4110.0 0.045774
4130.0 0.044826
4150.0 0.042298
4170.0 0.040924
4190.0 0.041325
4210.0 0.037216
4230.0 0.03357
4250.0 0.028848
4270.0 0.023925
4290.0 0.023512
4310.0 0.022774
4330.0 0.022874
4350.0 0.028052
4370.0 0.028581
4390.0 0.032883
4410.0 0.035735
4430.0 0.037898
4450.0 0.033445
4470.0 0.028075
4490.0 0.026618
4510.0 0.024805
4530.0 0.023641
4550.0 0.022318
4570.0 0.021986
4590.0 0.022399
4610.0 0.020369
4630.0 0.019101
4650.0 0.017323
4670.0 0.016916
4690.0 0.014492
4710.0 0.012798
4730.0 0.01055
4750.0 0.0093336
4770.0 0.0055587
4790.0 0.0057553
4810.0 0.0053528
4830.0 0.00069739
4850.0 0.0028288
4870.0 0.00060761
4890.0 0.00073523
4910.0 0.0045305
4930.0 0.0051695
4950.0 0.00060042
4970.0 0.0011725
4990.0 0.0016219
5010.0 0.00045284
5030.0 0.00041674
5050.0 0.0015427
5070.0 0.001276
5090.0 0.0014287
5110.0 0.0019368
5130.0 0.001588
5150.0 0.0025291
5170.0 0.00051692
5190.0 0.00048102
5210.0 0.0012004
5230.0 0.00049911
5250.0 0.002042
5270.0 0.0056665
5290.0 0.0054282
5310.0 0.0032184
5330.0 0.0035889
5350.0 0.0015044
5370.0 0.0019516
5390.0 0.0030746
5410.0 0.0025804
5430.0 0.0045019
5450.0 0.0023109
5470.0 0.0022796
5490.0 0.0072612
5510.0 0.0072965
5530.0 0.0075294
5550.0 0.0070158
5570.0 0.0083641
5590.0 0.010043
5610.0 0.010194
5630.0 0.009622
5650.0 0.0098541
5670.0 0.0097877
5690.0 0.010345
5710.0 0.0091785
5730.0 0.010031
5750.0 0.0099979
5770.0 0.0093728
5790.0 0.010764
5810.0 0.011409
5830.0 0.011039
5850.0 0.0094632
5870.0 0.0085696
5890.0 0.0086506
5910.0 0.010263
5930.0 0.009911
5950.0 0.010599
5970.0 0.010808
5990.0 0.011642
6010.0 0.011228
6030.0 0.011527
6050.0 0.011421
6070.0 0.010375
6090.0 0.011221
6110.0 0.011604
6130.0 0.010923
6150.0 0.010966
6170.0 0.011187
6190.0 0.0090362
6210.0 0.0092281
6230.0 0.0099046
6250.0 0.0098342
6270.0 0.0097904
6290.0 0.010663
6310.0 0.011765
6330.0 0.011911
6350.0 0.011558
6370.0 0.011895
6390.0 0.010728
6410.0 0.011052
6430.0 0.010407
6450.0 0.010646
6470.0 0.010907
6490.0 0.011082
6510.0 0.010002
6530.0 0.010131
6550.0 0.0099796
6570.0 0.0093224
6590.0 0.0099632
6610.0 0.010015
6630.0 0.0099288
6650.0 0.0092113
6670.0 0.0088128
6690.0 0.0085121
6710.0 0.008087
6730.0 0.0077943
6750.0 0.0078266
6770.0 0.0073984
6790.0 0.0048812
6810.0 0.0057754
6830.0 0.0069605
6850.0 0.0061093
6870.0 0.0059925
6890.0 0.0058468
6910.0 0.0057497
6930.0 0.0054537
6950.0 0.005811
6970.0 0.0055642
6990.0 0.0054502
7010.0 0.00537
7030.0 0.0057128
7050.0 0.0055944
7070.0 0.0043903
7090.0 0.0033563
7110.0 0.0029999
7130.0 0.0033737
7150.0 0.0035237
7170.0 0.0034358
7190.0 0.0027319
7210.0 0.0037033
7230.0 0.0045249
7250.0 0.0043901
7270.0 0.0044653
7290.0 0.0048348
7310.0 0.0040799
7330.0 0.0037994
7350.0 0.0034967
7370.0 0.0040665
7390.0 0.0048344
7410.0 0.0035097
7430.0 0.00367
7450.0 0.003546
7470.0 0.004291
7490.0 0.0044111
7510.0 0.003698
7530.0 0.0041325
7550.0 0.0019295
7570.0 0.0014199
7590.0 0.0026279
7610.0 0.0036588
7630.0 0.0030156
7650.0 0.0036361
7670.0 0.0021068
7690.0 0.00080344
7710.0 0.0014377
7730.0 0.00265
7750.0 0.0014504
7770.0 0.002982
7790.0 0.0035309
7810.0 0.0026561
7830.0 0.0034651
7850.0 0.0022011
7870.0 0.00323
7890.0 0.0025254
7910.0 0.0025215
7930.0 0.001615
7950.0 0.00064852
7970.0 0.0013841
7990.0 0.0022117
8010.0 0.0082639
8030.0 0.0079991
8050.0 0.0078671
8070.0 0.0076527
8090.0 0.0070909
8110.0 0.0068916
8130.0 0.0076091
8150.0 0.0081227
8170.0 0.0084188
8190.0 0.0088589
8210.0 0.0084417
8230.0 0.0084506
8250.0 0.0083709
8270.0 0.0084698
8290.0 0.0084064
8310.0 0.0079615
8330.0 0.0076341
8350.0 0.0079066
8370.0 0.0080647
8390.0 0.0078341
8410.0 0.0077467
8430.0 0.0074569
8450.0 0.0072053
8470.0 0.007804
8490.0 0.0078388
8510.0 0.0073002
8530.0 0.007351
8550.0 0.0072649
8570.0 0.0066735
8590.0 0.0067939
8610.0 0.00679
8630.0 0.0071263
8650.0 0.0071667
8670.0 0.0072468
8690.0 0.007081
8710.0 0.0069555
8730.0 0.0066436
8750.0 0.0064768
8770.0 0.0064204
8790.0 0.0068091
8810.0 0.0063287
8830.0 0.0062004
8850.0 0.0065982
8870.0 0.006242
8890.0 0.0057137
8910.0 0.0056497
8930.0 0.0058141
8950.0 0.0053005
8970.0 0.0050691
8990.0 0.0049476
9010.0 0.0046321
9030.0 0.0045589
9050.0 0.0045384
9070.0 0.0045206
9090.0 0.0045026
9110.0 0.0044844
9130.0 0.004466
9150.0 0.0044474
9170.0 0.0044287
9190.0 0.0044097
9210.0 0.0043907
9230.0 0.0043714
9250.0 0.0043521
9270.0 0.0043326
9290.0 0.004313
9310.0 0.0042965
9330.0 0.0042848
9350.0 0.004273
9370.0 0.0042609
9390.0 0.0042487
9410.0 0.0042363
9430.0 0.0042238
9450.0 0.0042109
9470.0 0.0042001
9490.0 0.0041881
9510.0 0.0041737
9530.0 0.0041593
9550.0 0.0041454
9570.0 0.0041316
9590.0 0.0041175
9610.0 0.0041086
9630.0 0.0041004
9650.0 0.0040917
9670.0 0.0040824
9690.0 0.0040734
9710.0 0.0040642
9730.0 0.0040545
9750.0 0.0040447
9770.0 0.0040353
9790.0 0.0040252
9810.0 0.0040149
9830.0 0.0040047
9850.0 0.003992
9870.0 0.0039768
9890.0 0.0039689
9910.0 0.0039597
9930.0 0.003948
9950.0 0.0039372
9970.0 0.003927
9990.0 0.0039163
10010.0 0.0039052
10030.0 0.0038938
10050.0 0.0038823
10070.0 0.0038706
10090.0 0.0038587
10110.0 0.0038469
10130.0 0.0038349
10150.0 0.0038229
10170.0 0.0038108
10190.0 0.0037987
10210.0 0.0037865
10230.0 0.0037742
10250.0 0.003762
10270.0 0.0037497
10290.0 0.0037373
10310.0 0.003725
10330.0 0.0037126
10350.0 0.0037002
10370.0 0.0036878
10390.0 0.0036752
10410.0 0.00366
10430.0 0.0036439
10450.0 0.0036346
10470.0 0.0036236
10490.0 0.0036122
10510.0 0.0036006
10530.0 0.0035883
10550.0 0.0035761
10570.0 0.0035641
10590.0 0.0035518
10610.0 0.0035394
10630.0 0.0035274
10650.0 0.0035153
10670.0 0.003503
10690.0 0.0034909
10710.0 0.0034791
10730.0 0.003467
10750.0 0.0034548
10770.0 0.0034431
10790.0 0.0034314
10810.0 0.0034195
10830.0 0.0034078
10850.0 0.0033964
10870.0 0.0033845
10890.0 0.0033725
10910.0 0.0033607
10930.0 0.0033484
10950.0 0.0033352
10970.0 0.0033213
10990.0 0.0033067
11010.0 0.0031134
11030.0 0.0030957
11050.0 0.0030741
11070.0 0.003049
11090.0 0.0030203
11110.0 0.0029902
11130.0 0.002959
11150.0 0.0029263
11170.0 0.0028929
11190.0 0.0028598
11210.0 0.0028259
11230.0 0.0027914
11250.0 0.0027575
11270.0 0.0027239
11290.0 0.00269
11310.0 0.0026566
11330.0 0.0026248
11350.0 0.0025933
11370.0 0.0025624
11390.0 0.002533
11410.0 0.0025046
11430.0 0.0024764
11450.0 0.0024494
11470.0 0.0024234
11490.0 0.0023978
11510.0 0.0023724
11530.0 0.0023478
11550.0 0.0023235
11570.0 0.002299
11590.0 0.0022746
11610.0 0.0022504
11630.0 0.0022259
11650.0 0.0022008
11670.0 0.0021761
11690.0 0.0021512
11710.0 0.0021256
11730.0 0.0020999
11750.0 0.0020745
11770.0 0.0020485
11790.0 0.0020222
11810.0 0.0019962
11830.0 0.0019703
11850.0 0.0019439
11870.0 0.001918
11890.0 0.001893
11910.0 0.0018681
11930.0 0.0018436
11950.0 0.0018204
11970.0 0.0017978
11990.0 0.0017758
12010.0 0.0017551
12030.0 0.0017357
12050.0 0.0017171
12070.0 0.0016997
12090.0 0.0016837
12110.0 0.0016688
12130.0 0.001655
12150.0 0.0016423
12170.0 0.0016306
12190.0 0.0016197
12210.0 0.0016096
12230.0 0.0016001
12250.0 0.0015911
12270.0 0.0015824
12290.0 0.0015738
12310.0 0.0015651
12330.0 0.0015564
12350.0 0.0015473
12370.0 0.0015378
12390.0 0.0015279
12410.0 0.0015172
12430.0 0.001506
12450.0 0.0014941
12470.0 0.0014815
12490.0 0.001468
12510.0 0.0014541
12530.0 0.0014393
12550.0 0.0014236
12570.0 0.0014075
12590.0 0.001391
12610.0 0.0013734
12630.0 0.0013553
12650.0 0.0013374
12670.0 0.0013189
12690.0 0.0012998
12710.0 0.001281
12730.0 0.0012623
12750.0 0.0012428
12770.0 0.0012238
12790.0 0.0012053
12810.0 0.0011867
12830.0 0.0011682
12850.0 0.0011507
12870.0 0.0011337
12890.0 0.0011169
12910.0 0.0011009
12930.0 0.001086
12950.0 0.0010716
12970.0 0.0010578
12990.0 0.0010456
13010.0 0.0010344
13030.0 0.0010241
13050.0 0.0010151
13070.0 0.0010074
13090.0 0.0010007
13110.0 0.0009951
13130.0 0.0009906
13150.0 0.00098701
13170.0 0.00098423
13190.0 0.00098221
13210.0 0.00098076
13230.0 0.00097981
13250.0 0.00097925
13270.0 0.00097891
13290.0 0.00097877
13310.0 0.00097876
13330.0 0.0009787
13350.0 0.00097853
13370.0 0.0009782
13390.0 0.00097758
13410.0 0.00097661
13430.0 0.00097522
13450.0 0.00097331
13470.0 0.00097093
13490.0 0.00096811
13510.0 0.00096459
13530.0 0.00096059
13550.0 0.00095632
13570.0 0.00095162
13590.0 0.00094642
13610.0 0.00094112
13630.0 0.00093576
13650.0 0.00092992
13670.0 0.00092392
13690.0 0.00091797
13710.0 0.00091172
13730.0 0.00090487
13750.0 0.00089823
13770.0 0.00089142
13790.0 0.0008841
13810.0 0.00087656
13830.0 0.0008692
13850.0 0.00086135
13870.0 0.00085314
13890.0 0.00084517
13910.0 0.00083724
13930.0 0.00082893
13950.0 0.00082078
13970.0 0.0008133
13990.0 0.00080575
14010.0 0.00079833
14030.0 0.00079157
14050.0 0.00078524
14070.0 0.00077884
14090.0 0.00077312
14110.0 0.00076803
14130.0 0.00076318
14150.0 0.00075857
14170.0 0.00075467
14190.0 0.0007511
14210.0 0.00074761
14230.0 0.0007445
14250.0 0.00074179
14270.0 0.00073908
14290.0 0.00073648
14310.0 0.00073433
14330.0 0.00073233
14350.0 0.00073035
14370.0 0.00072866
14390.0 0.00072732
14410.0 0.00072599
14430.0 0.00072484
14450.0 0.00072404
14470.0 0.00072339
14490.0 0.00072275
14510.0 0.0007224
14530.0 0.00072226
14550.0 0.0007221
14570.0 0.00072198
14590.0 0.00072204
14610.0 0.00072205
14630.0 0.00072194
14650.0 0.0007219
14670.0 0.00072189
14690.0 0.00072172
14710.0 0.00072143
14730.0 0.00072129
14750.0 0.00072098
14770.0 0.00072049
14790.0 0.00071997
14810.0 0.00071943
14830.0 0.0007185
14850.0 0.00071749
14870.0 0.0007165
14890.0 0.00071533
14910.0 0.00071398
14930.0 0.00071279
14950.0 0.00071178
14970.0 0.00071079
14990.0 0.00071012
15010.0 0.0007099
15030.0 0.00070996
15050.0 0.00071022
15070.0 0.00071091
15090.0 0.00071178
15110.0 0.0007127
15130.0 0.00071369
15150.0 0.00071477
15170.0 0.00071577
15190.0 0.00071672
15210.0 0.0007177
15230.0 0.00071865
15250.0 0.00071948
15270.0 0.00072029
15290.0 0.00072115
15310.0 0.0007219
15330.0 0.00072258
15350.0 0.00072328
15370.0 0.00072394
15390.0 0.00072445
15410.0 0.00072496
15430.0 0.00072548
15450.0 0.00072589
15470.0 0.00072622
15490.0 0.00072658
15510.0 0.00072689
15530.0 0.00072707
15550.0 0.00072724
15570.0 0.00072741
15590.0 0.00072744
15610.0 0.00072739
15630.0 0.00072738
15650.0 0.00072729
15670.0 0.00072709
15690.0 0.00072688
15710.0 0.00072667
15730.0 0.00072632
15750.0 0.0007259
15770.0 0.0007255
15790.0 0.00072502
15810.0 0.0007244
15830.0 0.00072379
15850.0 0.00072318
15870.0 0.00072244
15890.0 0.00072164
15910.0 0.00072086
15930.0 0.00071998
15950.0 0.00071898
15970.0 0.00071798
15990.0 0.00071697
16010.0 0.00071583
16030.0 0.00071461
16050.0 0.00071346
16070.0 0.0007122
16090.0 0.00071083
16110.0 0.00070948
16130.0 0.0007081
16150.0 0.00070655
16170.0 0.00070499
16190.0 0.00070345
16210.0 0.00070182
16230.0 0.00070009
16250.0 0.00069838
16270.0 0.00069665
16290.0 0.00069479
16310.0 0.0006929
16330.0 0.00069103
16350.0 0.00068906
16370.0 0.00068696
16390.0 0.00068495
16410.0 0.00068288
16430.0 0.00068071
16450.0 0.00067852
16470.0 0.00067636
16490.0 0.00067408
16510.0 0.00067173
16530.0 0.00066942
16550.0 0.00066707
16570.0 0.0006646
16590.0 0.00066212
16610.0 0.0006597
16630.0 0.00065717
16650.0 0.00065459
16670.0 0.00065204
16690.0 0.00064946
16710.0 0.00064673
16730.0 0.00064405
16750.0 0.00064138
16770.0 0.00063863
16790.0 0.00063581
16810.0 0.00063307
16830.0 0.00063028
16850.0 0.0006274
16870.0 0.00062454
16890.0 0.0006217
16910.0 0.00061875
16930.0 0.00061576
16950.0 0.00061285
16970.0 0.00060989
16990.0 0.00060685
17010.0 0.00060385
17030.0 0.00060088
17050.0 0.0005978
17070.0 0.00059471
17090.0 0.00059166
17110.0 0.00058858
17130.0 0.00058541
17150.0 0.0005823
17170.0 0.00057921
17190.0 0.00057605
17210.0 0.00057287
17230.0 0.00056976
17250.0 0.00056659
17270.0 0.00056335
17290.0 0.00056017
17310.0 0.00055701
17330.0 0.00055377
17350.0 0.00055052
17370.0 0.00054737
17390.0 0.00054415
17410.0 0.00054089
17430.0 0.00053769
17450.0 0.00053451
17470.0 0.00053121
17490.0 0.00052795
17510.0 0.00052476
17530.0 0.00052152
17550.0 0.00051824
17570.0 0.00051504
17590.0 0.00051185
17610.0 0.00050858
17630.0 0.00050534
17650.0 0.00050215
17670.0 0.00049893
17690.0 0.00049563
17710.0 0.00049245
17730.0 0.00048927
17750.0 0.00048604
17770.0 0.00048283
17790.0 0.0004797
17810.0 0.00047649
17830.0 0.00047327
17850.0 0.00047012
17870.0 0.00046698
17890.0 0.00046377
17910.0 0.00046061
17930.0 0.00045753
17950.0 0.00045439
17970.0 0.00045124
17990.0 0.00044816
18010.0 0.00044509
18030.0 0.00044194
18050.0 0.00043886
18070.0 0.00043583
18090.0 0.00043275
18110.0 0.00042967
18130.0 0.00042668
18150.0 0.00042368
18170.0 0.00042064
18190.0 0.00041765
18210.0 0.00041471
18230.0 0.00041171
18250.0 0.00040871
18270.0 0.00040581
18290.0 0.00040289
18310.0 0.00039995
18330.0 0.00039706
18350.0 0.00039422
18370.0 0.00039132
18390.0 0.00038845
18410.0 0.00038564
18430.0 0.00038282
18450.0 0.00037995
18470.0 0.00037717
18490.0 0.00037443
18510.0 0.00037165
18530.0 0.00036889
18550.0 0.00036621
18570.0 0.00036349
18590.0 0.00036074
18610.0 0.00035807
18630.0 0.00035543
18650.0 0.00035275
18670.0 0.00035009
18690.0 0.00034753
18710.0 0.00034493
18730.0 0.00034232
18750.0 0.00033977
18770.0 0.00033725
18790.0 0.00033466
18810.0 0.00033213
18830.0 0.00032967
18850.0 0.00032718
18870.0 0.00032468
18890.0 0.00032226
18910.0 0.00031985
18930.0 0.0003174
18950.0 0.000315
18970.0 0.00031265
18990.0 0.00031027
19010.0 0.00030786
19030.0 0.00030556
19050.0 0.00030326
19070.0 0.00030094
19090.0 0.00029865
19110.0 0.00029643
19130.0 0.00029415
19150.0 0.00029189
19170.0 0.00028969
19190.0 0.0002875
19210.0 0.00028527
19230.0 0.00028309
19250.0 0.00028098
19270.0 0.00027883
19290.0 0.00027668
19310.0 0.0002746
19330.0 0.00027252
19350.0 0.00027039
19370.0 0.00026832
19390.0 0.0002663
19410.0 0.00026425
19430.0 0.0002622
19450.0 0.00026023
19470.0 0.00025825
19490.0 0.00025624
19510.0 0.00025428
19530.0 0.00025237
19550.0 0.0002504
19570.0 0.00024844
19590.0 0.00024656
19610.0 0.00024467
19630.0 0.00024276
19650.0 0.00024089
19670.0 0.00023907
19690.0 0.00023719
19710.0 0.00023534
19730.0 0.00023354
19750.0 0.00023173
19770.0 0.00022988
19790.0 0.00022811
19810.0 0.00022636
19830.0 0.00022457
19850.0 0.00022281
19870.0 0.00022111
19890.0 0.00021938
19910.0 0.00021765
19930.0 0.00021602
19950.0 0.00021445
19970.0 0.00021292
19990.0 0.0002115
20010.0 0.00021025
20030.0 0.00020909
20050.0 0.00020805
20070.0 0.00020717
20090.0 0.0002064
20110.0 0.00020571
20130.0 0.00020512
20150.0 0.00020462
20170.0 0.00020417
20190.0 0.00020378
20210.0 0.00020343
20230.0 0.00020312
20250.0 0.00020283
20270.0 0.00020256
20290.0 0.00020231
20310.0 0.00020205
20330.0 0.0002018
20350.0 0.00020153
20370.0 0.00020124
20390.0 0.00020094
20410.0 0.00020061
20430.0 0.00020027
20450.0 0.0001999
20470.0 0.00019951
20490.0 0.00019911
20510.0 0.00019869
20530.0 0.00019826
20550.0 0.00019783
20570.0 0.0001974
20590.0 0.00019697
20610.0 0.00019655
20630.0 0.00019614
20650.0 0.00019573
20670.0 0.00019531
20690.0 0.00019491
20710.0 0.0001945
20730.0 0.00019408
20750.0 0.00019364
20770.0 0.00019319
20790.0 0.00019271
20810.0 0.00019219
20830.0 0.00019163
20850.0 0.00019104
20870.0 0.00019038
20890.0 0.00018967
20910.0 0.00018891
20930.0 0.0001881
20950.0 0.00018723
20970.0 0.00018631
20990.0 0.00018536
21010.0 0.00018434
21030.0 0.00018329
21050.0 0.00018222
21070.0 0.00018111
21090.0 0.00017996
21110.0 0.00017881
21130.0 0.00017765
21150.0 0.00017645
21170.0 0.00017524
21190.0 0.00017403
21210.0 0.00017277
21230.0 0.00017148
21250.0 0.00017019
21270.0 0.00016887
21290.0 0.00016749
21310.0 0.00016607
21330.0 0.00016464
21350.0 0.00016314
21370.0 0.00016158
21390.0 0.00015995
21410.0 0.00015826
21430.0 0.00015647
21450.0 0.00015465
21470.0 0.0001528
21490.0 0.00015088
21510.0 0.00014889
21530.0 0.00014689
21550.0 0.00014484
21570.0 0.0001427
21590.0 0.00014054
21610.0 0.00013837
21630.0 0.00013611
21650.0 0.00013379
21670.0 0.0001315
21690.0 0.00012914
21710.0 0.00012672
21730.0 0.00012428
21750.0 0.00012184
21770.0 0.00011929
21790.0 0.00011671
21810.0 0.00011412
21830.0 0.00011149
21850.0 0.00010878
21870.0 0.00010606
21890.0 0.00010333
21910.0 0.00010053
21930.0 9.7688e-05
21950.0 9.4857e-05
21970.0 9.1981e-05
21990.0 8.9026e-05
22010.0 8.6104e-05
22030.0 8.3177e-05
22050.0 8.0202e-05
22070.0 7.8222e-05
22090.0 7.8076e-05
22110.0 7.7929e-05
22130.0 7.7782e-05
22150.0 7.7638e-05
22170.0 7.7497e-05
22190.0 7.7356e-05
22210.0 7.7217e-05
22230.0 7.7082e-05
22250.0 7.6948e-05
22270.0 7.6814e-05
22290.0 7.6682e-05
22310.0 7.6552e-05
22330.0 7.6421e-05
22350.0 7.6291e-05
22370.0 7.6161e-05
22390.0 7.6031e-05
22410.0 7.59e-05
22430.0 7.5769e-05
22450.0 7.5637e-05
22470.0 7.5503e-05
22490.0 7.5368e-05
22510.0 7.5233e-05
22530.0 7.5094e-05
22550.0 7.4954e-05
22570.0 7.4814e-05
22590.0 7.4671e-05
22610.0 7.4526e-05
22630.0 7.438e-05
22650.0 7.4233e-05
22670.0 7.4083e-05
22690.0 7.3932e-05
22710.0 7.378e-05
22730.0 7.3626e-05
22750.0 7.3471e-05
22770.0 7.3314e-05
22790.0 7.3156e-05
22810.0 7.2997e-05
22830.0 7.2835e-05
22850.0 7.2672e-05
22870.0 7.2508e-05
22890.0 7.2341e-05
22910.0 7.2172e-05
22930.0 7.2e-05
22950.0 7.1826e-05
22970.0 7.1648e-05
22990.0 7.1468e-05
23010.0 7.1283e-05
23030.0 7.1095e-05
23050.0 7.0902e-05
23070.0 7.0705e-05
23090.0 7.0504e-05
23110.0 7.05e-05
23130.0 7.051e-05
23150.0 7.052e-05
23170.0 7.0529e-05
23190.0 7.0538e-05
23210.0 7.0546e-05
23230.0 7.0554e-05
23250.0 7.0561e-05
23270.0 7.0567e-05
23290.0 7.0573e-05
23310.0 7.0578e-05
23330.0 7.0583e-05
23350.0 7.0587e-05
23370.0 7.0592e-05
23390.0 7.0596e-05
