#lamb flux
1010.0 9.8072e-06
1030.0 1.081e-05
1050.0 1.2215e-05
1070.0 1.4383e-05
1090.0 1.7094e-05
1110.0 1.9954e-05
1130.0 2.2905e-05
1150.0 2.6044e-05
1170.0 2.9282e-05
1190.0 3.2284e-05
1210.0 3.5176e-05
1230.0 3.7922e-05
1250.0 4.058e-05
1270.0 4.2758e-05
1290.0 4.4586e-05
1310.0 4.5869e-05
1330.0 4.6495e-05
1350.0 4.6605e-05
1370.0 4.6271e-05
1390.0 4.5425e-05
1410.0 4.4147e-05
1430.0 4.2644e-05
1450.0 4.0909e-05
1470.0 3.8978e-05
1490.0 3.6988e-05
1510.0 3.5039e-05
1530.0 3.3056e-05
1550.0 3.1134e-05
1570.0 2.9337e-05
1590.0 2.7656e-05
1610.0 2.6189e-05
1630.0 2.5387e-05
1650.0 2.4822e-05
1670.0 2.4482e-05
1690.0 2.4398e-05
1710.0 2.4617e-05
1730.0 2.5129e-05
1750.0 2.5906e-05
1770.0 2.7028e-05
1790.0 2.8508e-05
1810.0 3.0333e-05
1830.0 3.2532e-05
1850.0 3.5189e-05
1870.0 3.8259e-05
1890.0 4.175e-05
1910.0 4.5721e-05
1930.0 5.0191e-05
1950.0 5.5087e-05
1970.0 6.043e-05
1990.0 6.6266e-05
2010.0 7.2506e-05
2030.0 7.9079e-05
2050.0 8.6033e-05
2070.0 9.3318e-05
2090.0 0.00010073
2110.0 0.00010829
2130.0 0.000116
2150.0 0.00012369
2170.0 0.00013124
2190.0 0.00013875
2210.0 0.00014612
2230.0 0.00015318
2250.0 0.00015998
2270.0 0.00016661
2290.0 0.00017289
2310.0 0.00017878
2330.0 0.00018448
2350.0 0.00018999
2370.0 0.00019521
2390.0 0.0002004
2410.0 0.00020582
2430.0 0.00021146
2450.0 0.00021752
2470.0 0.00022452
2490.0 0.00023271
2510.0 0.00024177
2530.0 0.00025242
2550.0 0.00026544
2570.0 0.00028105
2590.0 0.00030002
2610.0 0.00032548
2630.0 0.00035786
2650.0 0.00039612
2670.0 0.00044144
2690.0 0.00049329
2710.0 0.0005463
2730.0 0.00059809
2750.0 0.00065023
2770.0 0.00069968
2790.0 0.00074612
2810.0 0.00079304
2830.0 0.00084372
2850.0 0.00089534
2870.0 0.00095026
2890.0 0.0010106
2910.0 0.0010746
2930.0 0.0011396
2950.0 0.0012094
2970.0 0.0012831
2990.0 0.0013577
3010.0 0.0014344
3030.0 0.0015158
3050.0 0.0015994
3070.0 0.0016811
3090.0 0.0017643
3110.0 0.0018457
3130.0 0.0019197
3150.0 0.0019845
3170.0 0.0020375
3190.0 0.0020752
3210.0 0.0021005
3230.0 0.0021151
3250.0 0.002121
3270.0 0.0021243
3290.0 0.0021282
3310.0 0.0021336
3330.0 0.0021424
3350.0 0.0021537
3370.0 0.0021665
3390.0 0.0021583
3410.0 0.002155
3430.0 0.0021738
3450.0 0.0021875
3470.0 0.0021793
3490.0 0.0022965
3510.0 0.0027442
3530.0 0.0033945
3550.0 0.0038333
3570.0 0.0042306
3590.0 0.0047619
3610.0 0.0047585
3630.0 0.0043784
3650.0 0.0045039
3670.0 0.0052294
3690.0 0.0058924
3710.0 0.0061328
3730.0 0.0061673
3750.0 0.0065106
3770.0 0.0065352
3790.0 0.0062503
3810.0 0.0059099
3830.0 0.0055975
3850.0 0.0056101
3870.0 0.0058538
3890.0 0.0060233
3910.0 0.0060736
3930.0 0.0060732
3950.0 0.0065073
3970.0 0.0070063
3990.0 0.0068439
4010.0 0.0061269
4030.0 0.0055419
4050.0 0.0055382
4070.0 0.0057824
4090.0 0.0057231
4110.0 0.0055218
4130.0 0.0055017
4150.0 0.005767
4170.0 0.0063256
4190.0 0.0065563
4210.0 0.0061268
4230.0 0.0056021
4250.0 0.0052509
4270.0 0.0050346
4290.0 0.005035
4310.0 0.0051409
4330.0 0.0049184
4350.0 0.0044111
4370.0 0.0039814
4390.0 0.0036864
4410.0 0.0035431
4430.0 0.0036666
4450.0 0.0040279
4470.0 0.004418
4490.0 0.0046989
4510.0 0.0051341
4530.0 0.0058986
4550.0 0.0066851
4570.0 0.0071814
4590.0 0.0076129
4610.0 0.0079495
4630.0 0.0079523
4650.0 0.0074115
4670.0 0.0065693
4690.0 0.0058962
4710.0 0.0056517
4730.0 0.0053831
4750.0 0.0047409
4770.0 0.0042505
4790.0 0.0043567
4810.0 0.0046837
4830.0 0.0045725
4850.0 0.0040805
4870.0 0.0041191
4890.0 0.0042031
4910.0 0.0042417
4930.0 0.0041614
4950.0 0.0040731
4970.0 0.0038811
4990.0 0.0035938
5010.0 0.0034165
5030.0 0.0034008
5050.0 0.0034239
5070.0 0.0034523
5090.0 0.0034715
5110.0 0.003484
5130.0 0.0035601
5150.0 0.0037195
5170.0 0.0040126
5190.0 0.0043987
5210.0 0.0046894
5230.0 0.0048609
5250.0 0.0049617
5270.0 0.0050732
5290.0 0.0051355
5310.0 0.0050686
5330.0 0.0048952
5350.0 0.0047345
5370.0 0.0047329
5390.0 0.0048062
5410.0 0.0048399
5430.0 0.0047722
5450.0 0.0046972
5470.0 0.004619
5490.0 0.0045504
5510.0 0.0045255
5530.0 0.0045351
5550.0 0.0045592
5570.0 0.0045593
5590.0 0.0044624
5610.0 0.0042842
5630.0 0.0040986
5650.0 0.0039014
5670.0 0.0037492
5690.0 0.0036166
5710.0 0.0035568
5730.0 0.0035491
5750.0 0.0034909
5770.0 0.0034309
5790.0 0.0034692
5810.0 0.0035666
5830.0 0.0036424
5850.0 0.0036644
5870.0 0.0035767
5890.0 0.0034452
5910.0 0.0033465
5930.0 0.0032142
5950.0 0.0030913
5970.0 0.003104
5990.0 0.0031649
6010.0 0.0031523
6030.0 0.0030597
6050.0 0.0030426
6070.0 0.0031281
6090.0 0.0032174
6110.0 0.0031947
6130.0 0.0030206
6150.0 0.0028011
6170.0 0.0026813
6190.0 0.0026391
6210.0 0.0026074
6230.0 0.0025668
6250.0 0.002573
6270.0 0.0026481
6290.0 0.0027467
6310.0 0.0028571
6330.0 0.0029705
6350.0 0.0030284
6370.0 0.003024
6390.0 0.002999
6410.0 0.0030108
6430.0 0.0030386
6450.0 0.0030329
6470.0 0.0030249
6490.0 0.0030272
6510.0 0.0030229
6530.0 0.0029926
6550.0 0.0029323
6570.0 0.0028452
6590.0 0.0027553
6610.0 0.0026854
6630.0 0.0026302
6650.0 0.0025489
6670.0 0.0024619
6690.0 0.0023937
6710.0 0.002354
6730.0 0.0023237
6750.0 0.0023023
6770.0 0.0022785
6790.0 0.0022367
6810.0 0.0021869
6830.0 0.002162
6850.0 0.0021507
6870.0 0.0021411
6890.0 0.0021395
6910.0 0.0021196
6930.0 0.0020943
6950.0 0.0020847
6970.0 0.0020658
6990.0 0.0020339
7010.0 0.0020005
7030.0 0.0019644
7050.0 0.0019267
7070.0 0.0018799
7090.0 0.0018422
7110.0 0.0018725
7130.0 0.00192
7150.0 0.0019469
7170.0 0.001963
7190.0 0.0019627
7210.0 0.001937
7230.0 0.0019002
7250.0 0.0018848
7270.0 0.0018494
7290.0 0.0018217
7310.0 0.0018078
7330.0 0.0018176
7350.0 0.0018145
7370.0 0.0018012
7390.0 0.001786
7410.0 0.0017655
7430.0 0.0017406
7450.0 0.001713
7470.0 0.001684
7490.0 0.0016396
7510.0 0.001579
7530.0 0.0015234
7550.0 0.0014878
7570.0 0.0014984
7590.0 0.0014931
7610.0 0.0014758
7630.0 0.0014583
7650.0 0.0014732
7670.0 0.0015089
7690.0 0.0015627
7710.0 0.0015946
7730.0 0.0016546
7750.0 0.0016953
7770.0 0.001733
7790.0 0.0017486
7810.0 0.0017247
7830.0 0.0017193
7850.0 0.0016955
7870.0 0.0016549
7890.0 0.0015996
7910.0 0.0015552
7930.0 0.0015295
7950.0 0.0015137
7970.0 0.0015152
7990.0 0.0015197
8010.0 0.0015066
8030.0 0.0014921
8050.0 0.0014645
8070.0 0.0014398
8090.0 0.001411
8110.0 0.0014181
8130.0 0.0014303
8150.0 0.0014357
8170.0 0.0014223
8190.0 0.0014095
8210.0 0.0013626
8230.0 0.0012774
8250.0 0.0012267
8270.0 0.001198
8290.0 0.0011838
8310.0 0.0011843
8330.0 0.0012113
8350.0 0.0011924
8370.0 0.0011703
8390.0 0.0011868
8410.0 0.0012158
8430.0 0.0012701
8450.0 0.0013187
8470.0 0.0013289
8490.0 0.0013391
8510.0 0.001328
8530.0 0.0013133
8550.0 0.0013225
8570.0 0.0013235
8590.0 0.0013133
8610.0 0.0013486
8630.0 0.0013546
8650.0 0.001325
8670.0 0.0013213
8690.0 0.001325
8710.0 0.0013001
8730.0 0.0012919
8750.0 0.0012513
8770.0 0.0012354
8790.0 0.0012192
8810.0 0.0012076
8830.0 0.0011638
8850.0 0.0010845
8870.0 0.0010208
8890.0 0.00098836
8910.0 0.00092746
8930.0 0.0008626
8950.0 0.00084473
8970.0 0.00083598
8990.0 0.00083552
9010.0 0.00082888
9030.0 0.00082299
9050.0 0.00081744
9070.0 0.00081197
9090.0 0.0008065
9110.0 0.00080104
9130.0 0.00079557
9150.0 0.00079012
9170.0 0.00078467
9190.0 0.00077922
9210.0 0.00077376
9230.0 0.00076833
9250.0 0.00076293
9270.0 0.00075751
9290.0 0.00075212
9310.0 0.00074674
9330.0 0.00074136
9350.0 0.00073602
9370.0 0.00073067
9390.0 0.00072536
9410.0 0.00072006
9430.0 0.00071477
9450.0 0.00070947
9470.0 0.00070433
9490.0 0.00069923
9510.0 0.00069398
9530.0 0.00068879
9550.0 0.00068362
9570.0 0.0006785
9590.0 0.00067341
9610.0 0.00066835
9630.0 0.00066333
9650.0 0.00065833
9670.0 0.00065336
9690.0 0.00064843
9710.0 0.00064352
9730.0 0.00063865
9750.0 0.0006338
9770.0 0.00062899
9790.0 0.00062421
9810.0 0.00061946
9830.0 0.00061462
9850.0 0.00060903
9870.0 0.00060452
9890.0 0.00060025
9910.0 0.0005959
9930.0 0.00059117
9950.0 0.00058676
9970.0 0.00058242
9990.0 0.00057798
10010.0 0.00057314
10030.0 0.0005686
10050.0 0.00056452
10070.0 0.00056042
10090.0 0.00055633
10110.0 0.00055203
10130.0 0.00054744
10150.0 0.00054337
10170.0 0.00053937
10190.0 0.00053523
10210.0 0.00053122
10230.0 0.00052726
10250.0 0.00052319
10270.0 0.00051917
10290.0 0.00051528
10310.0 0.0005113
10330.0 0.00050727
10350.0 0.00050341
10370.0 0.00049958
10390.0 0.00049567
10410.0 0.00049182
10430.0 0.00048812
10450.0 0.00048435
10470.0 0.00048054
10490.0 0.00047686
10510.0 0.00047323
10530.0 0.00046944
10550.0 0.00046576
10570.0 0.00046222
10590.0 0.0004586
10610.0 0.00045496
10630.0 0.00045146
10650.0 0.00044798
10670.0 0.00044437
10690.0 0.00044086
10710.0 0.00043744
10730.0 0.00043395
10750.0 0.00043039
10770.0 0.00042705
10790.0 0.00042368
10810.0 0.00042023
10830.0 0.00041686
10850.0 0.00041361
10870.0 0.0004102
10890.0 0.00040683
10910.0 0.00040363
10930.0 0.00040045
10950.0 0.00039726
10970.0 0.00039423
10990.0 0.00039142
11010.0 0.00037691
11030.0 0.00037442
11050.0 0.00037213
11070.0 0.00036991
11090.0 0.00036764
11110.0 0.00036549
11130.0 0.00036336
11150.0 0.00036114
11170.0 0.00035888
11190.0 0.00035667
11210.0 0.00035439
11230.0 0.00035202
11250.0 0.00034972
11270.0 0.00034747
11290.0 0.00034516
11310.0 0.0003429
11330.0 0.00034083
11350.0 0.00033878
11370.0 0.00033677
11390.0 0.00033491
11410.0 0.00033315
11430.0 0.00033137
11450.0 0.00032969
11470.0 0.00032811
11490.0 0.00032652
11510.0 0.0003249
11530.0 0.00032334
11550.0 0.00032178
11570.0 0.00032012
11590.0 0.00031843
11610.0 0.00031676
11630.0 0.00031497
11650.0 0.00031307
11670.0 0.00031123
11690.0 0.00030937
11710.0 0.00030741
11730.0 0.00030547
11750.0 0.00030362
11770.0 0.00030172
11790.0 0.00029983
11810.0 0.00029804
11830.0 0.00029631
11850.0 0.00029454
11870.0 0.00029289
11890.0 0.00029137
11910.0 0.00028987
11930.0 0.00028843
11950.0 0.00028715
11970.0 0.00028595
11990.0 0.00028479
12010.0 0.0002838
12030.0 0.00028297
12050.0 0.00028225
12070.0 0.00028167
12090.0 0.00028131
12110.0 0.00028111
12130.0 0.00028107
12150.0 0.00028122
12170.0 0.00028155
12190.0 0.00028206
12210.0 0.00028273
12230.0 0.00028355
12250.0 0.0002845
12270.0 0.00028559
12290.0 0.00028677
12310.0 0.000288
12330.0 0.00028931
12350.0 0.00029065
12370.0 0.00029196
12390.0 0.00029326
12410.0 0.00029454
12430.0 0.00029569
12450.0 0.00029672
12470.0 0.00029763
12490.0 0.00029836
12510.0 0.00029891
12530.0 0.00029924
12550.0 0.00029934
12570.0 0.0002992
12590.0 0.00029882
12610.0 0.00029814
12630.0 0.00029719
12650.0 0.00029607
12670.0 0.00029468
12690.0 0.00029301
12710.0 0.00029122
12730.0 0.00028929
12750.0 0.00028706
12770.0 0.00028476
12790.0 0.00028246
12810.0 0.00028003
12830.0 0.00027749
12850.0 0.00027507
12870.0 0.00027268
12890.0 0.0002702
12910.0 0.00026781
12930.0 0.00026556
12950.0 0.00026326
12970.0 0.00026097
12990.0 0.00025888
13010.0 0.00025685
13030.0 0.0002548
13050.0 0.00025287
13070.0 0.00025111
13090.0 0.00024933
13110.0 0.00024762
13130.0 0.00024607
13150.0 0.00024461
13170.0 0.00024317
13190.0 0.00024189
13210.0 0.00024075
13230.0 0.00023965
13250.0 0.00023863
13270.0 0.00023774
13290.0 0.00023688
13310.0 0.00023602
13330.0 0.00023522
13350.0 0.00023446
13370.0 0.00023365
13390.0 0.00023279
13410.0 0.00023198
13430.0 0.0002311
13450.0 0.00023014
13470.0 0.00022915
13490.0 0.00022814
13510.0 0.00022699
13530.0 0.00022579
13550.0 0.00022459
13570.0 0.00022332
13590.0 0.00022196
13610.0 0.00022059
13630.0 0.00021924
13650.0 0.00021777
13670.0 0.00021628
13690.0 0.00021482
13710.0 0.00021332
13730.0 0.0002117
13750.0 0.00021017
13770.0 0.00020863
13790.0 0.00020702
13810.0 0.0002054
13830.0 0.00020383
13850.0 0.00020218
13870.0 0.00020047
13890.0 0.00019879
13910.0 0.0001971
13930.0 0.00019529
13950.0 0.00019346
13970.0 0.0001917
13990.0 0.00018985
14010.0 0.00018793
14030.0 0.00018606
14050.0 0.00018419
14070.0 0.0001822
14090.0 0.00018027
14110.0 0.00017841
14130.0 0.00017653
14150.0 0.00017466
14170.0 0.00017292
14190.0 0.00017125
14210.0 0.00016957
14230.0 0.00016799
14250.0 0.00016651
14270.0 0.00016502
14290.0 0.00016355
14310.0 0.00016219
14330.0 0.00016085
14350.0 0.00015947
14370.0 0.00015813
14390.0 0.00015684
14410.0 0.0001555
14430.0 0.00015415
14450.0 0.00015286
14470.0 0.00015159
14490.0 0.00015028
14510.0 0.00014905
14530.0 0.0001479
14550.0 0.00014675
14570.0 0.00014564
14590.0 0.00014463
14610.0 0.00014363
14630.0 0.00014265
14650.0 0.00014173
14670.0 0.00014086
14690.0 0.00013999
14710.0 0.00013914
14730.0 0.00013837
14750.0 0.0001376
14770.0 0.00013685
14790.0 0.00013616
14810.0 0.00013551
14830.0 0.00013488
14850.0 0.00013431
14870.0 0.00013381
14890.0 0.00013336
14910.0 0.00013296
14930.0 0.00013262
14950.0 0.00013231
14970.0 0.00013202
14990.0 0.00013174
15010.0 0.00013147
15030.0 0.00013117
15050.0 0.00013085
15070.0 0.00013052
15090.0 0.00013018
15110.0 0.00012981
15130.0 0.00012944
15150.0 0.00012906
15170.0 0.00012868
15190.0 0.00012829
15210.0 0.0001279
15230.0 0.00012751
15250.0 0.0001271
15270.0 0.0001267
15290.0 0.00012631
15310.0 0.0001259
15330.0 0.00012549
15350.0 0.00012509
15370.0 0.00012468
15390.0 0.00012426
15410.0 0.00012385
15430.0 0.00012343
15450.0 0.00012302
15470.0 0.00012259
15490.0 0.00012218
15510.0 0.00012176
15530.0 0.00012133
15550.0 0.0001209
15570.0 0.00012048
15590.0 0.00012005
15610.0 0.00011962
15630.0 0.0001192
15650.0 0.00011877
15670.0 0.00011833
15690.0 0.0001179
15710.0 0.00011748
15730.0 0.00011704
15750.0 0.00011661
15770.0 0.00011618
15790.0 0.00011575
15810.0 0.00011531
15830.0 0.00011487
15850.0 0.00011445
15870.0 0.00011401
15890.0 0.00011358
15910.0 0.00011315
15930.0 0.00011272
15950.0 0.00011228
15970.0 0.00011185
15990.0 0.00011142
16010.0 0.00011099
16030.0 0.00011055
16050.0 0.00011013
16070.0 0.0001097
16090.0 0.00010927
16110.0 0.00010884
16130.0 0.00010842
16150.0 0.00010799
16170.0 0.00010756
16190.0 0.00010714
16210.0 0.00010672
16230.0 0.0001063
16250.0 0.00010588
16270.0 0.00010547
16290.0 0.00010505
16310.0 0.00010463
16330.0 0.00010422
16350.0 0.0001038
16370.0 0.00010339
16390.0 0.00010298
16410.0 0.00010257
16430.0 0.00010216
16450.0 0.00010176
16470.0 0.00010136
16490.0 0.00010096
16510.0 0.00010055
16530.0 0.00010016
16550.0 9.9762e-05
16570.0 9.9362e-05
16590.0 9.8967e-05
16610.0 9.8581e-05
16630.0 9.8192e-05
16650.0 9.7802e-05
16670.0 9.7419e-05
16690.0 9.7039e-05
16710.0 9.6651e-05
16730.0 9.6271e-05
16750.0 9.5898e-05
16770.0 9.5521e-05
16790.0 9.5143e-05
16810.0 9.4775e-05
16830.0 9.4409e-05
16850.0 9.4038e-05
16870.0 9.3673e-05
16890.0 9.3314e-05
16910.0 9.295e-05
16930.0 9.2586e-05
16950.0 9.2232e-05
16970.0 9.1879e-05
16990.0 9.1522e-05
17010.0 9.1172e-05
17030.0 9.0828e-05
17050.0 9.0479e-05
17070.0 9.0132e-05
17090.0 8.9793e-05
17110.0 8.9453e-05
17130.0 8.9109e-05
17150.0 8.8774e-05
17170.0 8.8443e-05
17190.0 8.8109e-05
17210.0 8.7778e-05
17230.0 8.7454e-05
17250.0 8.7128e-05
17270.0 8.6799e-05
17290.0 8.6478e-05
17310.0 8.6161e-05
17330.0 8.584e-05
17350.0 8.5521e-05
17370.0 8.5212e-05
17390.0 8.49e-05
17410.0 8.4587e-05
17430.0 8.428e-05
17450.0 8.3978e-05
17470.0 8.3668e-05
17490.0 8.3363e-05
17510.0 8.3066e-05
17530.0 8.2767e-05
17550.0 8.2466e-05
17570.0 8.2173e-05
17590.0 8.1883e-05
17610.0 8.1588e-05
17630.0 8.1297e-05
17650.0 8.1012e-05
17670.0 8.0725e-05
17690.0 8.0433e-05
17710.0 8.0153e-05
17730.0 7.9874e-05
17750.0 7.9592e-05
17770.0 7.9313e-05
17790.0 7.9041e-05
17810.0 7.8764e-05
17830.0 7.8487e-05
17850.0 7.8217e-05
17870.0 7.7949e-05
17890.0 7.7676e-05
17910.0 7.7406e-05
17930.0 7.7145e-05
17950.0 7.688e-05
17970.0 7.6614e-05
17990.0 7.6356e-05
18010.0 7.6098e-05
18030.0 7.5833e-05
18050.0 7.5575e-05
18070.0 7.5322e-05
18090.0 7.5066e-05
18110.0 7.4809e-05
18130.0 7.456e-05
18150.0 7.4311e-05
18170.0 7.4058e-05
18190.0 7.381e-05
18210.0 7.3566e-05
18230.0 7.3317e-05
18250.0 7.3068e-05
18270.0 7.2827e-05
18290.0 7.2586e-05
18310.0 7.2341e-05
18330.0 7.2101e-05
18350.0 7.1866e-05
18370.0 7.1625e-05
18390.0 7.1386e-05
18410.0 7.1153e-05
18430.0 7.0918e-05
18450.0 7.0679e-05
18470.0 7.0447e-05
18490.0 7.0218e-05
18510.0 6.9985e-05
18530.0 6.9754e-05
18550.0 6.9529e-05
18570.0 6.93e-05
18590.0 6.9069e-05
18610.0 6.8844e-05
18630.0 6.8621e-05
18650.0 6.8393e-05
18670.0 6.8167e-05
18690.0 6.7949e-05
18710.0 6.7727e-05
18730.0 6.7504e-05
18750.0 6.7286e-05
18770.0 6.707e-05
18790.0 6.6846e-05
18810.0 6.6627e-05
18830.0 6.6414e-05
18850.0 6.6198e-05
18870.0 6.598e-05
18890.0 6.5768e-05
18910.0 6.5558e-05
18930.0 6.5342e-05
18950.0 6.5129e-05
18970.0 6.4922e-05
18990.0 6.4711e-05
19010.0 6.4496e-05
19030.0 6.4291e-05
19050.0 6.4085e-05
19070.0 6.3876e-05
19090.0 6.3669e-05
19110.0 6.3469e-05
19130.0 6.3262e-05
19150.0 6.3055e-05
19170.0 6.2855e-05
19190.0 6.2654e-05
19210.0 6.2449e-05
19230.0 6.2247e-05
19250.0 6.2052e-05
19270.0 6.1852e-05
19290.0 6.1652e-05
19310.0 6.1458e-05
19330.0 6.1263e-05
19350.0 6.1062e-05
19370.0 6.0867e-05
19390.0 6.0676e-05
19410.0 6.0482e-05
19430.0 6.0286e-05
19450.0 6.0099e-05
19470.0 5.9909e-05
19490.0 5.9716e-05
19510.0 5.9528e-05
19530.0 5.9343e-05
19550.0 5.9153e-05
19570.0 5.8963e-05
19590.0 5.8781e-05
19610.0 5.8597e-05
19630.0 5.8411e-05
19650.0 5.8229e-05
19670.0 5.8051e-05
19690.0 5.7867e-05
19710.0 5.7686e-05
19730.0 5.7509e-05
19750.0 5.7331e-05
19770.0 5.7149e-05
19790.0 5.6974e-05
19810.0 5.6802e-05
19830.0 5.6625e-05
19850.0 5.6449e-05
19870.0 5.6277e-05
19890.0 5.6097e-05
19910.0 5.5905e-05
19930.0 5.5705e-05
19950.0 5.5486e-05
19970.0 5.5231e-05
19990.0 5.4936e-05
20010.0 5.4612e-05
20030.0 5.4232e-05
20050.0 5.38e-05
20070.0 5.3342e-05
20090.0 5.2858e-05
20110.0 5.2322e-05
20130.0 5.1787e-05
20150.0 5.1264e-05
20170.0 5.0728e-05
20190.0 5.019e-05
20210.0 4.9683e-05
20230.0 4.919e-05
20250.0 4.8693e-05
20270.0 4.8226e-05
20290.0 4.7791e-05
20310.0 4.7365e-05
20330.0 4.6949e-05
20350.0 4.6583e-05
20370.0 4.6234e-05
20390.0 4.5897e-05
20410.0 4.559e-05
20430.0 4.5313e-05
20450.0 4.5042e-05
20470.0 4.4793e-05
20490.0 4.4574e-05
20510.0 4.4372e-05
20530.0 4.4182e-05
20550.0 4.4016e-05
20570.0 4.3874e-05
20590.0 4.3742e-05
20610.0 4.3628e-05
20630.0 4.3532e-05
20650.0 4.345e-05
20670.0 4.3377e-05
20690.0 4.3319e-05
20710.0 4.3271e-05
20730.0 4.3228e-05
20750.0 4.3188e-05
20770.0 4.3154e-05
20790.0 4.3117e-05
20810.0 4.3074e-05
20830.0 4.3025e-05
20850.0 4.2969e-05
20870.0 4.2896e-05
20890.0 4.2808e-05
20910.0 4.2709e-05
20930.0 4.2591e-05
20950.0 4.2451e-05
20970.0 4.2297e-05
20990.0 4.213e-05
21010.0 4.1935e-05
21030.0 4.1727e-05
21050.0 4.1514e-05
21070.0 4.1283e-05
21090.0 4.1032e-05
21110.0 4.0788e-05
21130.0 4.054e-05
21150.0 4.0278e-05
21170.0 4.0017e-05
21190.0 3.9766e-05
21210.0 3.9506e-05
21230.0 3.9241e-05
21250.0 3.8993e-05
21270.0 3.8751e-05
21290.0 3.8505e-05
21310.0 3.8267e-05
21330.0 3.805e-05
21350.0 3.783e-05
21370.0 3.7614e-05
21390.0 3.7414e-05
21410.0 3.7223e-05
21430.0 3.7023e-05
21450.0 3.6839e-05
21470.0 3.6668e-05
21490.0 3.6495e-05
21510.0 3.6324e-05
21530.0 3.6166e-05
21550.0 3.6011e-05
21570.0 3.5848e-05
21590.0 3.5694e-05
21610.0 3.5546e-05
21630.0 3.5393e-05
21650.0 3.5233e-05
21670.0 3.5089e-05
21690.0 3.4942e-05
21710.0 3.4787e-05
21730.0 3.4636e-05
21750.0 3.4492e-05
21770.0 3.4333e-05
21790.0 3.4173e-05
21810.0 3.4021e-05
21830.0 3.3865e-05
21850.0 3.3699e-05
21870.0 3.3537e-05
21890.0 3.3382e-05
21910.0 3.3215e-05
21930.0 3.3046e-05
21950.0 3.2885e-05
21970.0 3.2719e-05
21990.0 3.2538e-05
22010.0 3.237e-05
22030.0 3.2205e-05
22050.0 3.2031e-05
22070.0 3.1857e-05
22090.0 3.1697e-05
22110.0 3.1532e-05
22130.0 3.1362e-05
22150.0 3.1203e-05
22170.0 3.1052e-05
22190.0 3.0894e-05
22210.0 3.0743e-05
22230.0 3.0611e-05
22250.0 3.048e-05
22270.0 3.0351e-05
22290.0 3.0238e-05
22310.0 3.0135e-05
22330.0 3.0029e-05
22350.0 2.9936e-05
22370.0 2.9856e-05
22390.0 2.978e-05
22410.0 2.9706e-05
22430.0 2.9648e-05
22450.0 2.9597e-05
22470.0 2.9546e-05
22490.0 2.9504e-05
22510.0 2.9471e-05
22530.0 2.9439e-05
22550.0 2.9408e-05
22570.0 2.9389e-05
22590.0 2.9375e-05
22610.0 2.9362e-05
22630.0 2.9356e-05
22650.0 2.936e-05
22670.0 2.9365e-05
22690.0 2.9374e-05
22710.0 2.9393e-05
22730.0 2.9418e-05
22750.0 2.9444e-05
22770.0 2.9481e-05
22790.0 2.9527e-05
22810.0 2.9577e-05
22830.0 2.9635e-05
22850.0 2.9704e-05
22870.0 2.9781e-05
22890.0 2.9865e-05
22910.0 2.9961e-05
