#lamb flux
1010.0 9.3467e-08
1030.0 1.0337e-07
1050.0 1.1477e-07
1070.0 1.276e-07
1090.0 1.4217e-07
1110.0 1.5712e-07
1130.0 1.7216e-07
1150.0 1.8792e-07
1170.0 2.0417e-07
1190.0 2.1958e-07
1210.0 2.352e-07
1230.0 2.5134e-07
1250.0 2.6716e-07
1270.0 2.8252e-07
1290.0 2.9875e-07
1310.0 3.1496e-07
1330.0 3.3051e-07
1350.0 3.4624e-07
1370.0 3.6248e-07
1390.0 3.7831e-07
1410.0 3.9367e-07
1430.0 4.0973e-07
1450.0 4.2579e-07
1470.0 4.4131e-07
1490.0 4.57e-07
1510.0 4.7358e-07
1530.0 4.8928e-07
1550.0 5.0478e-07
1570.0 5.2081e-07
1590.0 5.3687e-07
1610.0 5.5221e-07
1630.0 5.6804e-07
1650.0 5.8429e-07
1670.0 6.0001e-07
1690.0 6.1554e-07
1710.0 6.3169e-07
1730.0 6.4793e-07
1750.0 6.6322e-07
1770.0 6.7898e-07
1790.0 6.9508e-07
1810.0 7.1067e-07
1830.0 7.2602e-07
1850.0 7.4234e-07
1870.0 7.5825e-07
1890.0 7.7367e-07
1910.0 7.8941e-07
1930.0 8.0557e-07
1950.0 8.2103e-07
1970.0 8.3634e-07
1990.0 8.5227e-07
2010.0 8.6796e-07
2030.0 8.8313e-07
2050.0 8.988e-07
2070.0 9.149e-07
2090.0 9.3011e-07
2110.0 9.4532e-07
2130.0 9.6102e-07
2150.0 9.7645e-07
2170.0 9.9125e-07
2190.0 1.0066e-06
2210.0 1.0221e-06
2230.0 1.037e-06
2250.0 1.0519e-06
2270.0 1.0674e-06
2290.0 1.0825e-06
2310.0 1.097e-06
2330.0 1.1121e-06
2350.0 1.1276e-06
2370.0 1.143e-06
2390.0 1.1597e-06
2410.0 1.1795e-06
2430.0 1.2022e-06
2450.0 1.2294e-06
2470.0 1.2643e-06
2490.0 1.3082e-06
2510.0 1.3582e-06
2530.0 1.4183e-06
2550.0 1.4935e-06
2570.0 1.5872e-06
2590.0 1.7089e-06
2610.0 1.8912e-06
2630.0 2.1515e-06
2650.0 2.4919e-06
2670.0 2.9319e-06
2690.0 3.4727e-06
2710.0 4.0499e-06
2730.0 4.6203e-06
2750.0 5.1821e-06
2770.0 5.6707e-06
2790.0 6.0587e-06
2810.0 6.3667e-06
2830.0 6.6073e-06
2850.0 6.7715e-06
2870.0 6.8921e-06
2890.0 6.9875e-06
2910.0 7.0637e-06
2930.0 7.1259e-06
2950.0 7.1853e-06
2970.0 7.2434e-06
2990.0 7.2979e-06
3010.0 0.00020628
3030.0 0.00020782
3050.0 0.00020931
3070.0 0.00021059
3090.0 0.00021169
3110.0 0.00021237
3130.0 0.00021234
3150.0 0.0002114
3170.0 0.00020913
3190.0 0.00020558
3210.0 0.00020107
3230.0 0.00019591
3250.0 0.00019081
3270.0 0.00018709
3290.0 0.00018502
3310.0 0.00018536
3330.0 0.00018804
3350.0 0.00019271
3370.0 0.00019938
3390.0 0.00020779
3410.0 0.00021694
3430.0 0.00022721
3450.0 0.00023903
3470.0 0.00025194
3490.0 0.00026562
3510.0 0.00028109
3530.0 0.00029765
3550.0 0.00031442
3570.0 0.00033191
3590.0 0.00035094
3610.0 0.00037054
3630.0 0.00039008
3650.0 0.00041036
3670.0 0.00042886
3690.0 0.0004427
3710.0 0.00045063
3730.0 0.00045089
3750.0 0.00044462
3770.0 0.00044215
3790.0 0.00043952
3810.0 0.00042872
3830.0 0.00044199
3850.0 0.0004942
3870.0 0.00052286
3890.0 0.00052047
3910.0 0.00052269
3930.0 0.00053645
3950.0 0.00054492
3970.0 0.00049647
3990.0 0.00042719
4010.0 0.0012804
4030.0 0.0015513
4050.0 0.0017785
4070.0 0.0015432
4090.0 0.0013976
4110.0 0.0012333
4130.0 0.0011351
4150.0 0.0012074
4170.0 0.0011893
4190.0 0.0012678
4210.0 0.0012562
4230.0 0.0013287
4250.0 0.0015719
4270.0 0.0015903
4290.0 0.0014655
4310.0 0.0015227
4330.0 0.0016197
4350.0 0.0018161
4370.0 0.0020668
4390.0 0.0019395
4410.0 0.0014329
4430.0 0.0012131
4450.0 0.0011147
4470.0 0.00085555
4490.0 0.00092324
4510.0 0.0013946
4530.0 0.0016084
4550.0 0.0016223
4570.0 0.0018255
4590.0 0.0020794
4610.0 0.0028047
4630.0 0.0036427
4650.0 0.0039504
4670.0 0.0036585
4690.0 0.0034908
4710.0 0.0036901
4730.0 0.0034824
4750.0 0.0026035
4770.0 0.0019098
4790.0 0.0017834
4810.0 0.0016998
4830.0 0.0015562
4850.0 0.0017076
4870.0 0.0022559
4890.0 0.0026604
4910.0 0.0023342
4930.0 0.0020654
4950.0 0.0022692
4970.0 0.00291
4990.0 0.0039438
5010.0 0.0045368
5030.0 0.0040004
5050.0 0.0027066
5070.0 0.0017837
5090.0 0.0014383
5110.0 0.0014792
5130.0 0.0017072
5150.0 0.0018496
5170.0 0.0018219
5190.0 0.0017024
5210.0 0.0017794
5230.0 0.0018706
5250.0 0.0020159
5270.0 0.0021751
5290.0 0.0024104
5310.0 0.0028057
5330.0 0.0031048
5350.0 0.003085
5370.0 0.0032405
5390.0 0.0037186
5410.0 0.0037152
5430.0 0.0032856
5450.0 0.0030187
5470.0 0.0032053
5490.0 0.003916
5510.0 0.0048964
5530.0 0.005616
5550.0 0.0054279
5570.0 0.0049344
5590.0 0.0042905
5610.0 0.0039568
5630.0 0.0038369
5650.0 0.0036543
5670.0 0.0034627
5690.0 0.0030957
5710.0 0.0030183
5730.0 0.0027804
5750.0 0.0019603
5770.0 0.0015294
5790.0 0.0017331
5810.0 0.001957
5830.0 0.0024015
5850.0 0.0028587
5870.0 0.0031718
5890.0 0.0032255
5910.0 0.0031645
5930.0 0.0030122
5950.0 0.0030694
5970.0 0.0034988
5990.0 0.0032898
6010.0 0.0027578
6030.0 0.00233
6050.0 0.0020291
6070.0 0.002018
6090.0 0.0021882
6110.0 0.0024468
6130.0 0.0024842
6150.0 0.0021375
6170.0 0.0018803
6190.0 0.002116
6210.0 0.0027973
6230.0 0.0036709
6250.0 0.0039761
6270.0 0.0034746
6290.0 0.0029233
6310.0 0.0022822
6330.0 0.0017486
6350.0 0.0015597
6370.0 0.0016402
6390.0 0.0018961
6410.0 0.002338
6430.0 0.0027302
6450.0 0.003124
6470.0 0.0035771
6490.0 0.0043209
6510.0 0.0048313
6530.0 0.0047398
6550.0 0.0042861
6570.0 0.0036385
6590.0 0.0032809
6610.0 0.002829
6630.0 0.002563
6650.0 0.0024227
6670.0 0.0023536
6690.0 0.0021266
6710.0 0.0019332
6730.0 0.0013924
6750.0 0.0013804
6770.0 0.0015004
6790.0 0.0017246
6810.0 0.0015781
6830.0 0.001625
6850.0 0.0015199
6870.0 0.0013884
6890.0 0.0013331
6910.0 0.0014206
6930.0 0.0013306
6950.0 0.0013689
6970.0 0.0014399
6990.0 0.0016344
7010.0 0.0016483
7030.0 0.0016745
7050.0 0.0015969
7070.0 0.0015215
7090.0 0.001526
7110.0 0.0015701
7130.0 0.0016897
7150.0 0.0017946
7170.0 0.0019802
7190.0 0.0021768
7210.0 0.002139
7230.0 0.0021989
7250.0 0.0023631
7270.0 0.0025752
7290.0 0.0030565
7310.0 0.0033166
7330.0 0.0032058
7350.0 0.0028994
7370.0 0.0025228
7390.0 0.0024474
7410.0 0.0026008
7430.0 0.0028905
7450.0 0.0031483
7470.0 0.0031194
7490.0 0.0028443
7510.0 0.0032218
7530.0 0.0031866
7550.0 0.0028641
7570.0 0.0022374
7590.0 0.0015382
7610.0 0.0013202
7630.0 0.0015
7650.0 0.0017735
7670.0 0.0022073
7690.0 0.002429
7710.0 0.0025313
7730.0 0.0026601
7750.0 0.0029862
7770.0 0.0030332
7790.0 0.0027861
7810.0 0.0025422
7830.0 0.0026215
7850.0 0.0025484
7870.0 0.0023364
7890.0 0.0019631
7910.0 0.0015957
7930.0 0.0015236
7950.0 0.0013881
7970.0 0.0012849
7990.0 0.0012776
8010.0 9.4622e-05
8030.0 9.3392e-05
8050.0 9.2132e-05
8070.0 9.3339e-05
8090.0 0.00010029
8110.0 9.8582e-05
8130.0 8.1318e-05
8150.0 7.9194e-05
8170.0 6.8214e-05
8190.0 6.4647e-05
8210.0 8.3951e-05
8230.0 9.3469e-05
8250.0 8.4242e-05
8270.0 7.3321e-05
8290.0 7.1475e-05
8310.0 5.501e-05
8330.0 3.7077e-05
8350.0 2.6313e-05
8370.0 1.6578e-05
8390.0 3.0305e-05
8410.0 3.5313e-05
8430.0 4.3529e-05
8450.0 5.1115e-05
8470.0 6.3533e-05
8490.0 6.3085e-05
8510.0 6.2053e-05
8530.0 6.4761e-05
8550.0 8.7376e-05
8570.0 0.00010344
8590.0 0.00011161
8610.0 0.00014099
8630.0 0.00016984
8650.0 0.00017767
8670.0 0.00018881
8690.0 0.00018987
8710.0 0.00017195
8730.0 0.00015994
8750.0 0.00014118
8770.0 0.00013396
8790.0 0.00013161
8810.0 0.00012611
8830.0 0.00010084
8850.0 7.3825e-05
8870.0 5.6527e-05
8890.0 5.5264e-05
8910.0 6.3333e-05
8930.0 7.2037e-05
8950.0 7.3417e-05
8970.0 7.3764e-05
8990.0 6.5788e-05
9010.0 0.00068943
9030.0 0.00062471
9050.0 0.00062772
9070.0 0.00063268
9090.0 0.00063702
9110.0 0.00064239
9130.0 0.00064653
9150.0 0.00064975
9170.0 0.00065318
9190.0 0.00065684
9210.0 0.0006607
9230.0 0.00066478
9250.0 0.00066891
9270.0 0.0006732
9290.0 0.00067762
9310.0 0.00068207
9330.0 0.00068661
9350.0 0.00069132
9370.0 0.00069608
9390.0 0.00070089
9410.0 0.00070583
9430.0 0.00071093
9450.0 0.00071601
9470.0 0.00072119
9490.0 0.00072652
9510.0 0.00073192
9530.0 0.00073734
9550.0 0.00074295
9570.0 0.00074866
9590.0 0.00075438
9610.0 0.00076021
9630.0 0.00076619
9650.0 0.00077222
9670.0 0.00077826
9690.0 0.00078446
9710.0 0.00079076
9730.0 0.00079707
9750.0 0.00080348
9770.0 0.00081007
9790.0 0.00081666
9810.0 0.00082328
9830.0 0.00083004
9850.0 0.00083688
9870.0 0.0008437
9890.0 0.00085063
9910.0 0.0008577
9930.0 0.00086476
9950.0 0.00087185
9970.0 0.00087908
9990.0 0.00088639
10010.0 0.00076915
10030.0 0.00077547
10050.0 0.00078191
10070.0 0.00078857
10090.0 0.00079485
10110.0 0.00080129
10130.0 0.00080775
10150.0 0.00081419
10170.0 0.00082071
10190.0 0.00082734
10210.0 0.0008339
10230.0 0.00084043
10250.0 0.00084708
10270.0 0.00085371
10290.0 0.00086026
10310.0 0.00086689
10330.0 0.0008736
10350.0 0.00088018
10370.0 0.00088675
10390.0 0.00089339
10410.0 0.0009
10430.0 0.00090648
10450.0 0.00091303
10470.0 0.00091959
10490.0 0.00092604
10510.0 0.00093245
10530.0 0.00093896
10550.0 0.00094537
10570.0 0.00095164
10590.0 0.00095794
10610.0 0.00096424
10630.0 0.00097038
10650.0 0.00097648
10670.0 0.00098264
10690.0 0.00098867
10710.0 0.00099458
10730.0 0.0010005
10750.0 0.0010064
10770.0 0.0010121
10790.0 0.0010178
10810.0 0.0010234
10830.0 0.0010288
10850.0 0.001034
10870.0 0.0010391
10890.0 0.0010435
10910.0 0.0010469
10930.0 0.0010488
10950.0 0.0010483
10970.0 0.0010448
10990.0 0.0010378
11010.0 0.0010262
11030.0 0.0010098
11050.0 0.00098995
11070.0 0.00096616
11090.0 0.00093758
11110.0 0.00090801
11130.0 0.00087717
11150.0 0.00084396
11170.0 0.00080973
11190.0 0.00077652
11210.0 0.00074223
11230.0 0.00070707
11250.0 0.00067347
11270.0 0.00064121
11290.0 0.00060888
11310.0 0.00057826
11330.0 0.00055129
11350.0 0.00052582
11370.0 0.00050227
11390.0 0.00048191
11410.0 0.00046409
11430.0 0.00044753
11450.0 0.00043327
11470.0 0.00042093
11490.0 0.00040946
11510.0 0.0003984
11530.0 0.00038813
11550.0 0.00037794
11570.0 0.00036706
11590.0 0.0003558
11610.0 0.00034434
11630.0 0.00033186
11650.0 0.0003185
11670.0 0.00030533
11690.0 0.00029198
11710.0 0.00027821
11730.0 0.00026486
11750.0 0.00025251
11770.0 0.0002404
11790.0 0.00022904
11810.0 0.00021905
11830.0 0.00021011
11850.0 0.00020188
11870.0 0.00019499
11890.0 0.00018927
11910.0 0.00018424
11930.0 0.00017991
11950.0 0.00017631
11970.0 0.0001731
11990.0 0.00017006
12010.0 0.00016724
12030.0 0.00016453
12050.0 0.00016173
12070.0 0.00015882
12090.0 0.00015601
12110.0 0.00015315
12130.0 0.00015029
12150.0 0.00014766
12170.0 0.00014536
12190.0 0.00014337
12210.0 0.00014198
12230.0 0.00014131
12250.0 0.00014142
12270.0 0.00014249
12290.0 0.0001445
12310.0 0.00014739
12330.0 0.00015144
12350.0 0.00015649
12370.0 0.00016224
12390.0 0.00016886
12410.0 0.00017663
12430.0 0.00018452
12450.0 0.0001927
12470.0 0.00020139
12490.0 0.00021012
12510.0 0.00021831
12530.0 0.00022646
12550.0 0.00023431
12570.0 0.00024125
12590.0 0.00024734
12610.0 0.00025277
12630.0 0.0002571
12650.0 0.00026008
12670.0 0.00026205
12690.0 0.00026283
12710.0 0.0002624
12730.0 0.00026088
12750.0 0.00025816
12770.0 0.00025444
12790.0 0.00024992
12810.0 0.00024453
12830.0 0.00023829
12850.0 0.00023177
12870.0 0.00022487
12890.0 0.0002174
12910.0 0.00020981
12930.0 0.00020234
12950.0 0.00019453
12970.0 0.00018659
12990.0 0.00017907
13010.0 0.00017165
13030.0 0.00016414
13050.0 0.00015693
13070.0 0.00015018
13090.0 0.00014341
13110.0 0.00013685
13130.0 0.0001308
13150.0 0.00012508
13170.0 0.00011948
13190.0 0.00011449
13210.0 0.0001101
13230.0 0.00010609
13250.0 0.00010263
13270.0 9.9906e-05
13290.0 9.7785e-05
13310.0 9.6326e-05
13330.0 9.5661e-05
13350.0 9.5738e-05
13370.0 9.6596e-05
13390.0 9.8283e-05
13410.0 0.00010056
13430.0 0.00010353
13450.0 0.00010719
13470.0 0.00011125
13490.0 0.00011555
13510.0 0.00012041
13530.0 0.00012533
13550.0 0.00013004
13570.0 0.00013468
13590.0 0.00013921
13610.0 0.00014324
13630.0 0.00014675
13650.0 0.00014996
13670.0 0.00015262
13690.0 0.00015468
13710.0 0.00015628
13730.0 0.00015742
13750.0 0.00015798
13770.0 0.00015811
13790.0 0.00015783
13810.0 0.00015713
13830.0 0.0001561
13850.0 0.00015471
13870.0 0.00015295
13890.0 0.00015093
13910.0 0.00014867
13930.0 0.00014604
13950.0 0.00014318
13970.0 0.00014025
13990.0 0.00013706
14010.0 0.00013367
14030.0 0.00013028
14050.0 0.00012687
14070.0 0.00012327
14090.0 0.00011982
14110.0 0.00011658
14130.0 0.00011344
14150.0 0.00011048
14170.0 0.00010795
14190.0 0.00010577
14210.0 0.00010392
14230.0 0.00010255
14250.0 0.00010166
14270.0 0.00010123
14290.0 0.00010132
14310.0 0.00010189
14330.0 0.0001029
14350.0 0.00010439
14370.0 0.00010625
14390.0 0.00010837
14410.0 0.00011085
14430.0 0.00011358
14450.0 0.00011637
14470.0 0.00011927
14490.0 0.00012234
14510.0 0.00012529
14530.0 0.00012808
14550.0 0.00013088
14570.0 0.00013356
14590.0 0.000136
14610.0 0.00013836
14630.0 0.0001407
14650.0 0.00014287
14670.0 0.00014498
14690.0 0.00014717
14710.0 0.00014947
14730.0 0.00015178
14750.0 0.00015433
14770.0 0.00015722
14790.0 0.00016036
14810.0 0.00016376
14830.0 0.00016779
14850.0 0.00017217
14870.0 0.00017674
14890.0 0.00018167
14910.0 0.00018691
14930.0 0.00019195
14950.0 0.00019665
14970.0 0.0002011
14990.0 0.00020484
15010.0 0.0002077
15030.0 0.00020981
15050.0 0.00021121
15070.0 0.00021189
15090.0 0.00021213
15110.0 0.00021206
15130.0 0.0002118
15150.0 0.00021144
15170.0 0.00021101
15190.0 0.00021056
15210.0 0.00021011
15230.0 0.00020967
15250.0 0.0002092
15270.0 0.00020875
15290.0 0.00020831
15310.0 0.00020787
15330.0 0.00020742
15350.0 0.00020698
15370.0 0.00020656
15390.0 0.0002061
15410.0 0.00020567
15430.0 0.00020525
15450.0 0.00020482
15470.0 0.00020438
15490.0 0.00020396
15510.0 0.00020354
15530.0 0.00020311
15550.0 0.00020269
15570.0 0.00020229
15590.0 0.00020186
15610.0 0.00020144
15630.0 0.00020103
15650.0 0.00020062
15670.0 0.0002002
15690.0 0.00019979
15710.0 0.0001994
15730.0 0.00019899
15750.0 0.00019857
15770.0 0.00019818
15790.0 0.00019778
15810.0 0.00019736
15830.0 0.00019695
15850.0 0.00019657
15870.0 0.00019616
15890.0 0.00019576
15910.0 0.00019537
15930.0 0.00019497
15950.0 0.00019456
15970.0 0.00019417
15990.0 0.00019378
16010.0 0.00019338
16030.0 0.00019297
16050.0 0.00019259
16070.0 0.0001922
16090.0 0.00019179
16110.0 0.0001914
16130.0 0.00019102
16150.0 0.00019061
16170.0 0.00019021
16190.0 0.00018983
16210.0 0.00018943
16230.0 0.00018903
16250.0 0.00018864
16270.0 0.00018826
16290.0 0.00018785
16310.0 0.00018745
16330.0 0.00018707
16350.0 0.00018668
16370.0 0.00018626
16390.0 0.00018587
16410.0 0.00018548
16430.0 0.00018508
16450.0 0.00018468
16470.0 0.0001843
16490.0 0.0001839
16510.0 0.00018349
16530.0 0.0001831
16550.0 0.0001827
16570.0 0.00018229
16590.0 0.00018188
16610.0 0.0001815
16630.0 0.00018109
16650.0 0.00018068
16670.0 0.00018029
16690.0 0.00017989
16710.0 0.00017947
16730.0 0.00017906
16750.0 0.00017867
16770.0 0.00017825
16790.0 0.00017783
16810.0 0.00017744
16830.0 0.00017703
16850.0 0.00017661
16870.0 0.0001762
16890.0 0.0001758
16910.0 0.00017538
16930.0 0.00017495
16950.0 0.00017454
16970.0 0.00017413
16990.0 0.0001737
17010.0 0.00017329
17030.0 0.00017288
17050.0 0.00017245
17070.0 0.00017202
17090.0 0.00017161
17110.0 0.00017119
17130.0 0.00017074
17150.0 0.00017032
17170.0 0.0001699
17190.0 0.00016947
17210.0 0.00016904
17230.0 0.00016862
17250.0 0.00016819
17270.0 0.00016774
17290.0 0.00016731
17310.0 0.00016688
17330.0 0.00016644
17350.0 0.00016599
17370.0 0.00016557
17390.0 0.00016513
17410.0 0.00016468
17430.0 0.00016424
17450.0 0.00016381
17470.0 0.00016335
17490.0 0.0001629
17510.0 0.00016247
17530.0 0.00016202
17550.0 0.00016156
17570.0 0.00016112
17590.0 0.00016068
17610.0 0.00016022
17630.0 0.00015976
17650.0 0.00015932
17670.0 0.00015886
17690.0 0.00015839
17710.0 0.00015794
17730.0 0.00015749
17750.0 0.00015702
17770.0 0.00015656
17790.0 0.00015612
17810.0 0.00015565
17830.0 0.00015518
17850.0 0.00015472
17870.0 0.00015426
17890.0 0.00015378
17910.0 0.00015331
17930.0 0.00015286
17950.0 0.00015239
17970.0 0.00015191
17990.0 0.00015145
18010.0 0.00015099
18030.0 0.0001505
18050.0 0.00015003
18070.0 0.00014956
18090.0 0.00014909
18110.0 0.0001486
18130.0 0.00014814
18150.0 0.00014767
18170.0 0.00014718
18190.0 0.0001467
18210.0 0.00014624
18230.0 0.00014575
18250.0 0.00014526
18270.0 0.00014479
18290.0 0.00014431
18310.0 0.00014382
18330.0 0.00014334
18350.0 0.00014287
18370.0 0.00014238
18390.0 0.00014189
18410.0 0.00014141
18430.0 0.00014093
18450.0 0.00014043
18470.0 0.00013995
18490.0 0.00013947
18510.0 0.00013898
18530.0 0.00013849
18550.0 0.00013801
18570.0 0.00013753
18590.0 0.00013702
18610.0 0.00013654
18630.0 0.00013606
18650.0 0.00013556
18670.0 0.00013506
18690.0 0.00013458
18710.0 0.00013409
18730.0 0.00013359
18750.0 0.00013311
18770.0 0.00013263
18790.0 0.00013212
18810.0 0.00013162
18830.0 0.00013114
18850.0 0.00013065
18870.0 0.00013015
18890.0 0.00012966
18910.0 0.00012918
18930.0 0.00012868
18950.0 0.00012818
18970.0 0.0001277
18990.0 0.0001272
19010.0 0.00012669
19030.0 0.00012621
19050.0 0.00012572
19070.0 0.00012522
19090.0 0.00012472
19110.0 0.00012424
19130.0 0.00012374
19150.0 0.00012324
19170.0 0.00012275
19190.0 0.00012226
19210.0 0.00012176
19230.0 0.00012126
19250.0 0.00012078
19270.0 0.00012028
19290.0 0.00011978
19310.0 0.0001193
19330.0 0.00011881
19350.0 0.0001183
19370.0 0.00011781
19390.0 0.00011732
19410.0 0.00011682
19430.0 0.00011632
19450.0 0.00011584
19470.0 0.00011535
19490.0 0.00011485
19510.0 0.00011436
19530.0 0.00011388
19550.0 0.00011338
19570.0 0.00011287
19590.0 0.00011239
19610.0 0.0001119
19630.0 0.0001114
19650.0 0.00011091
19670.0 0.00011044
19690.0 0.00010994
19710.0 0.00010944
19730.0 0.00010896
19750.0 0.00010847
19770.0 0.00010796
19790.0 0.00010748
19810.0 0.000107
19830.0 0.0001065
19850.0 0.000106
19870.0 0.00010551
19890.0 0.00010498
19910.0 0.0001044
19930.0 0.00010378
19950.0 0.00010308
19970.0 0.0001022
19990.0 0.00010115
20010.0 8.9995e-05
20030.0 8.8693e-05
20050.0 8.7169e-05
20070.0 8.5517e-05
20090.0 8.374e-05
20110.0 8.173e-05
20130.0 7.9696e-05
20150.0 7.7679e-05
20170.0 7.5589e-05
20190.0 7.3468e-05
20210.0 7.1465e-05
20230.0 6.9512e-05
20250.0 6.7554e-05
20270.0 6.5738e-05
20290.0 6.4079e-05
20310.0 6.2502e-05
20330.0 6.1029e-05
20350.0 5.9806e-05
20370.0 5.8721e-05
20390.0 5.7769e-05
20410.0 5.7001e-05
20430.0 5.6408e-05
20450.0 5.5938e-05
20470.0 5.5624e-05
20490.0 5.5455e-05
20510.0 5.5406e-05
20530.0 5.5475e-05
20550.0 5.5646e-05
20570.0 5.5895e-05
20590.0 5.6232e-05
20610.0 5.6641e-05
20630.0 5.7091e-05
20650.0 5.7594e-05
20670.0 5.817e-05
20690.0 5.8756e-05
20710.0 5.9363e-05
20730.0 6.0017e-05
20750.0 6.07e-05
20770.0 6.1372e-05
20790.0 6.2077e-05
20810.0 6.2823e-05
20830.0 6.3566e-05
20850.0 6.4311e-05
20870.0 6.511e-05
20890.0 6.5924e-05
20910.0 6.671e-05
20930.0 6.7524e-05
20950.0 6.8369e-05
20970.0 6.9192e-05
20990.0 7.0004e-05
21010.0 7.0858e-05
21030.0 7.1693e-05
21050.0 7.249e-05
21070.0 7.3285e-05
21090.0 7.4084e-05
21110.0 7.4811e-05
21130.0 7.5495e-05
21150.0 7.6158e-05
21170.0 7.6757e-05
21190.0 7.7273e-05
21210.0 7.7737e-05
21230.0 7.8123e-05
21250.0 7.8399e-05
21270.0 7.8573e-05
21290.0 7.8638e-05
21310.0 7.8576e-05
21330.0 7.839e-05
21350.0 7.8065e-05
21370.0 7.7587e-05
21390.0 7.6979e-05
21410.0 7.6236e-05
21430.0 7.5293e-05
21450.0 7.4236e-05
21470.0 7.3084e-05
21490.0 7.1781e-05
21510.0 7.0352e-05
21530.0 6.89e-05
21550.0 6.7379e-05
21570.0 6.5757e-05
21590.0 6.4162e-05
21610.0 6.2621e-05
21630.0 6.1077e-05
21650.0 5.957e-05
21670.0 5.8263e-05
21690.0 5.7058e-05
21710.0 5.5972e-05
21730.0 5.5083e-05
21750.0 5.4397e-05
21770.0 5.3875e-05
21790.0 5.3574e-05
21810.0 5.3491e-05
21830.0 5.3609e-05
21850.0 5.3945e-05
21870.0 5.4467e-05
21890.0 5.5142e-05
21910.0 5.6008e-05
21930.0 5.7024e-05
21950.0 5.8124e-05
21970.0 5.9343e-05
21990.0 6.0711e-05
22010.0 6.2078e-05
22030.0 6.3466e-05
22050.0 6.4925e-05
22070.0 6.6391e-05
22090.0 6.7779e-05
22110.0 6.9179e-05
22130.0 7.0576e-05
22150.0 7.1881e-05
22170.0 7.3112e-05
22190.0 7.4331e-05
22210.0 7.5466e-05
22230.0 7.6464e-05
22250.0 7.7404e-05
22270.0 7.827e-05
22290.0 7.901e-05
22310.0 7.9645e-05
22330.0 8.0205e-05
22350.0 8.0637e-05
22370.0 8.0942e-05
22390.0 8.1133e-05
22410.0 8.1193e-05
22430.0 8.1116e-05
22450.0 8.0907e-05
22470.0 8.0546e-05
22490.0 8.0038e-05
22510.0 7.9406e-05
22530.0 7.8597e-05
22550.0 7.7613e-05
22570.0 7.6522e-05
22590.0 7.5292e-05
22610.0 7.3876e-05
22630.0 7.2343e-05
22650.0 7.0759e-05
22670.0 6.9007e-05
22690.0 6.7137e-05
22710.0 6.5251e-05
22730.0 6.3307e-05
22750.0 6.1199e-05
22770.0 5.9139e-05
22790.0 5.7128e-05
22810.0 5.5063e-05
22830.0 5.3004e-05
