#lamb flux
1010.0 3.2377e-05
1030.0 3.7555e-05
1050.0 4.1162e-05
1070.0 4.2183e-05
1090.0 3.9686e-05
1110.0 3.1761e-05
1130.0 1.8502e-05
1150.0 7.1148e-06
1170.0 1e-99
1190.0 1e-99
1210.0 1e-99
1230.0 1e-99
1250.0 1e-99
1270.0 1e-99
1290.0 1e-99
1310.0 1e-99
1330.0 1e-99
1350.0 1e-99
1370.0 1e-99
1390.0 1e-99
1410.0 1e-99
1430.0 1e-99
1450.0 1e-99
1470.0 1e-99
1490.0 1e-99
1510.0 1e-99
1530.0 1e-99
1550.0 2.9018e-05
1570.0 0.00011786
1590.0 0.00020896
1610.0 0.00030018
1630.0 0.00039073
1650.0 0.00047977
1670.0 0.00056561
1690.0 0.00064775
1710.0 0.00072678
1730.0 0.00080198
1750.0 0.00087167
1770.0 0.00093781
1790.0 0.0010004
1810.0 0.0010583
1830.0 0.001112
1850.0 0.0011637
1870.0 0.0012115
1890.0 0.0012552
1910.0 0.0012964
1930.0 0.0013355
1950.0 0.0013705
1970.0 0.0014027
1990.0 0.0014336
2010.0 0.0014617
2030.0 0.0014867
2050.0 0.0015104
2070.0 0.0015329
2090.0 0.0015518
2110.0 0.0015689
2130.0 0.0015851
2150.0 0.0015992
2170.0 0.0016108
2190.0 0.001622
2210.0 0.0016323
2230.0 0.0016405
2250.0 0.0016477
2270.0 0.0016553
2290.0 0.0016615
2310.0 0.0016662
2330.0 0.0016714
2350.0 0.0016765
2370.0 0.0016805
2390.0 0.0016849
2410.0 0.0016906
2430.0 0.0016964
2450.0 0.0017032
2470.0 0.0017138
2490.0 0.0017306
2510.0 0.0017543
2530.0 0.0017914
2550.0 0.0018498
2570.0 0.0019332
2590.0 0.0020465
2610.0 0.0022104
2630.0 0.0024256
2650.0 0.0026834
2670.0 0.0029946
2690.0 0.0033608
2710.0 0.0037491
2730.0 0.0041448
2750.0 0.0045603
2770.0 0.0049612
2790.0 0.0053262
2810.0 0.0056637
2830.0 0.0059749
2850.0 0.0062351
2870.0 0.0064644
2890.0 0.0066757
2910.0 0.0068717
2930.0 0.0070573
2950.0 0.0072448
2970.0 0.0074361
2990.0 0.0076287
3010.0 0.0078245
3030.0 0.0080262
3050.0 0.0082295
3070.0 0.0084281
3090.0 0.0086283
3110.0 0.0088314
3130.0 0.0090419
3150.0 0.0093684
3170.0 0.0097618
3190.0 0.010288
3210.0 0.010974
3230.0 0.011843
3250.0 0.012752
3270.0 0.013254
3290.0 0.014646
3310.0 0.018687
3330.0 0.019557
3350.0 0.019649
3370.0 0.01969
3390.0 0.019738
3410.0 0.019825
3430.0 0.019943
3450.0 0.020069
3470.0 0.020167
3490.0 0.020312
3510.0 0.020665
3530.0 0.020666
3550.0 0.019916
3570.0 0.019007
3590.0 0.018872
3610.0 0.019902
3630.0 0.018918
3650.0 0.017542
3670.0 0.016491
3690.0 0.016452
3710.0 0.017266
3730.0 0.0178
3750.0 0.018026
3770.0 0.018671
3790.0 0.019449
3810.0 0.018777
3830.0 0.017722
3850.0 0.017171
3870.0 0.01708
3890.0 0.016667
3910.0 0.016197
3930.0 0.016277
3950.0 0.016929
3970.0 0.017704
3990.0 0.01846
4010.0 0.017937
4030.0 0.01743
4050.0 0.017369
4070.0 0.017393
4090.0 0.01736
4110.0 0.017063
4130.0 0.016488
4150.0 0.015981
4170.0 0.015884
4190.0 0.015132
4210.0 0.014242
4230.0 0.013199
4250.0 0.012234
4270.0 0.011658
4290.0 0.011037
4310.0 0.010903
4330.0 0.011255
4350.0 0.01131
4370.0 0.011787
4390.0 0.012375
4410.0 0.012929
4430.0 0.012606
4450.0 0.011859
4470.0 0.011291
4490.0 0.010963
4510.0 0.010885
4530.0 0.010966
4550.0 0.011068
4570.0 0.011229
4590.0 0.011548
4610.0 0.012268
4630.0 0.012747
4650.0 0.013121
4670.0 0.012889
4690.0 0.012291
4710.0 0.01161
4730.0 0.011247
4750.0 0.010997
4770.0 0.011291
4790.0 0.011188
4810.0 0.01091
4830.0 0.011306
4850.0 0.0113
4870.0 0.011761
4890.0 0.011149
4910.0 0.010474
4930.0 0.0096823
4950.0 0.0090229
4970.0 0.008258
4990.0 0.0076258
5010.0 0.0075952
5030.0 0.0077999
5050.0 0.0075998
5070.0 0.0077665
5090.0 0.0080852
5110.0 0.0080237
5130.0 0.0079718
5150.0 0.0079058
5170.0 0.0080017
5190.0 0.0081439
5210.0 0.0078947
5230.0 0.0077655
5250.0 0.0075532
5270.0 0.0072695
5290.0 0.0071918
5310.0 0.0071885
5330.0 0.0069215
5350.0 0.0068855
5370.0 0.0066974
5390.0 0.006454
5410.0 0.0063486
5430.0 0.0061503
5450.0 0.0063549
5470.0 0.0064357
5490.0 0.0062133
5510.0 0.0063842
5530.0 0.0064325
5550.0 0.0065627
5570.0 0.0064714
5590.0 0.0062008
5610.0 0.0061533
5630.0 0.0062717
5650.0 0.0062002
5670.0 0.0060869
5690.0 0.005885
5710.0 0.0060067
5730.0 0.0060736
5750.0 0.0058489
5770.0 0.0056244
5790.0 0.0050768
5810.0 0.0043541
5830.0 0.004868
5850.0 0.005692
5870.0 0.005999
5890.0 0.0061347
5910.0 0.0061807
5930.0 0.0063105
5950.0 0.0062641
5970.0 0.0062884
5990.0 0.0062515
6010.0 0.0061946
6030.0 0.0060594
6050.0 0.0060909
6070.0 0.0062718
6090.0 0.0062341
6110.0 0.0061019
6130.0 0.0060463
6150.0 0.0058934
6170.0 0.0057177
6190.0 0.0057045
6210.0 0.0055763
6230.0 0.0055452
6250.0 0.0055258
6270.0 0.0055021
6290.0 0.0054903
6310.0 0.0054668
6330.0 0.0054113
6350.0 0.0053222
6370.0 0.0052638
6390.0 0.0053128
6410.0 0.0051922
6430.0 0.0051467
6450.0 0.0050626
6470.0 0.004976
6490.0 0.0049272
6510.0 0.0049574
6530.0 0.0048442
6550.0 0.0047683
6570.0 0.0047644
6590.0 0.0047337
6610.0 0.0047172
6630.0 0.0045561
6650.0 0.004471
6670.0 0.0044543
6690.0 0.0043994
6710.0 0.004308
6730.0 0.0042795
6750.0 0.0043033
6770.0 0.0046106
6790.0 0.0053873
6810.0 0.0050037
6830.0 0.0042237
6850.0 0.0040705
6870.0 0.0039783
6890.0 0.0039549
6910.0 0.0039328
6930.0 0.0039248
6950.0 0.0038401
6970.0 0.0037055
6990.0 0.0036305
7010.0 0.0036491
7030.0 0.0035913
7050.0 0.0034901
7070.0 0.0034903
7090.0 0.0035411
7110.0 0.0035996
7130.0 0.0035278
7150.0 0.003473
7170.0 0.0034409
7190.0 0.0034849
7210.0 0.0033916
7230.0 0.0033082
7250.0 0.0033048
7270.0 0.0032726
7290.0 0.0032386
7310.0 0.0032997
7330.0 0.0032309
7350.0 0.0031204
7370.0 0.0029731
7390.0 0.0028493
7410.0 0.0029072
7430.0 0.0028779
7450.0 0.0028526
7470.0 0.0027856
7490.0 0.0027067
7510.0 0.0026778
7530.0 0.002628
7550.0 0.0028355
7570.0 0.002814
7590.0 0.0025293
7610.0 0.002383
7630.0 0.0025388
7650.0 0.0025022
7670.0 0.0025949
7690.0 0.0027682
7710.0 0.0027715
7730.0 0.0026658
7750.0 0.0028631
7770.0 0.0026314
7790.0 0.0024833
7810.0 0.0026755
7830.0 0.0026847
7850.0 0.0028182
7870.0 0.0027597
7890.0 0.0028011
7910.0 0.0027451
7930.0 0.0028002
7950.0 0.0029698
7970.0 0.0028839
7990.0 0.0025897
8010.0 0.0027679
8030.0 0.0027269
8050.0 0.0026787
8070.0 0.0026057
8090.0 0.0023491
8110.0 0.0023444
8130.0 0.0025702
8150.0 0.0026903
8170.0 0.0027375
8190.0 0.0028299
8210.0 0.0027571
8230.0 0.0027401
8250.0 0.0027358
8270.0 0.0026935
8290.0 0.0026411
8310.0 0.0025153
8330.0 0.0024994
8350.0 0.0025545
8370.0 0.0025738
8390.0 0.0025397
8410.0 0.0025065
8430.0 0.0024451
8450.0 0.0024261
8470.0 0.0025521
8490.0 0.002574
8510.0 0.0024487
8530.0 0.0023797
8550.0 0.0023588
8570.0 0.0022609
8590.0 0.002245
8610.0 0.0022819
8630.0 0.0023108
8650.0 0.0023029
8670.0 0.0022925
8690.0 0.0022576
8710.0 0.0021679
8730.0 0.0021401
8750.0 0.0020988
8770.0 0.0021031
8790.0 0.0021134
8810.0 0.002039
8830.0 0.0020365
8850.0 0.0020822
8870.0 0.0019801
8890.0 0.0018789
8910.0 0.0018301
8930.0 0.0017756
8950.0 0.0017019
8970.0 0.0016319
8990.0 0.0016012
9010.0 0.0015298
9030.0 0.0015101
9050.0 0.0015015
9070.0 0.0014934
9090.0 0.0014853
9110.0 0.0014769
9130.0 0.0014685
9150.0 0.0014603
9170.0 0.001452
9190.0 0.0014436
9210.0 0.0014351
9230.0 0.0014265
9250.0 0.001418
9270.0 0.0014094
9290.0 0.0014007
9310.0 0.0013923
9330.0 0.0013844
9350.0 0.0013765
9370.0 0.0013686
9390.0 0.0013606
9410.0 0.0013526
9430.0 0.0013446
9450.0 0.0013366
9470.0 0.0013294
9490.0 0.0013217
9510.0 0.0013133
9530.0 0.0013049
9550.0 0.0012967
9570.0 0.0012887
9590.0 0.0012806
9610.0 0.001273
9630.0 0.0012655
9650.0 0.001258
9670.0 0.0012505
9690.0 0.0012431
9710.0 0.0012357
9730.0 0.0012282
9750.0 0.0012208
9770.0 0.0012135
9790.0 0.0012062
9810.0 0.0011989
9830.0 0.0011917
9850.0 0.0011838
9870.0 0.0011757
9890.0 0.0011693
9910.0 0.0011627
9930.0 0.0011549
9950.0 0.0011479
9970.0 0.0011415
9990.0 0.0011349
10010.0 0.0011283
10030.0 0.0011217
10050.0 0.001115
10070.0 0.0011084
10090.0 0.0011018
10110.0 0.0010953
10130.0 0.0010888
10150.0 0.0010824
10170.0 0.001076
10190.0 0.0010697
10210.0 0.0010635
10230.0 0.0010573
10250.0 0.0010512
10270.0 0.0010452
10290.0 0.0010392
10310.0 0.0010333
10330.0 0.0010274
10350.0 0.0010217
10370.0 0.001016
10390.0 0.0010103
10410.0 0.001004
10430.0 0.00099772
10450.0 0.00099299
10470.0 0.00098791
10490.0 0.00098287
10510.0 0.00097782
10530.0 0.00097261
10550.0 0.00096751
10570.0 0.00096256
10590.0 0.00095758
10610.0 0.00095261
10630.0 0.00094783
10650.0 0.0009431
10670.0 0.00093829
10690.0 0.00093363
10710.0 0.0009291
10730.0 0.00092455
10750.0 0.00091997
10770.0 0.00091564
10790.0 0.00091134
10810.0 0.000907
10830.0 0.00090278
10850.0 0.00089872
10870.0 0.00089453
10890.0 0.00089039
10910.0 0.00088639
10930.0 0.00088238
10950.0 0.00087824
10970.0 0.00087411
10990.0 0.00087003
11010.0 0.00084309
11030.0 0.00083886
11050.0 0.00083499
11070.0 0.00083116
11090.0 0.00082708
11110.0 0.0008233
11130.0 0.00081956
11150.0 0.00081557
11170.0 0.00081148
11190.0 0.00080758
11210.0 0.00080348
11230.0 0.00079919
11250.0 0.00079509
11270.0 0.00079113
11290.0 0.00078704
11310.0 0.00078309
11330.0 0.00077964
11350.0 0.00077626
11370.0 0.00077301
11390.0 0.00077015
11410.0 0.00076758
11430.0 0.00076498
11450.0 0.00076264
11470.0 0.00076056
11490.0 0.00075848
11510.0 0.00075634
11530.0 0.00075436
11550.0 0.00075239
11570.0 0.00075019
11590.0 0.00074793
11610.0 0.00074569
11630.0 0.00074317
11650.0 0.00074039
11670.0 0.00073768
11690.0 0.00073483
11710.0 0.00073171
11730.0 0.00072853
11750.0 0.00072546
11770.0 0.00072214
11790.0 0.00071872
11810.0 0.00071546
11830.0 0.00071222
11850.0 0.00070877
11870.0 0.00070555
11890.0 0.00070258
11910.0 0.00069959
11930.0 0.0006967
11950.0 0.00069415
11970.0 0.00069174
11990.0 0.00068937
12010.0 0.00068731
12030.0 0.00068552
12050.0 0.00068385
12070.0 0.00068231
12090.0 0.00068115
12110.0 0.00068011
12130.0 0.00067916
12150.0 0.0006784
12170.0 0.0006778
12190.0 0.00067714
12210.0 0.00067651
12230.0 0.00067594
12250.0 0.00067527
12270.0 0.0006744
12290.0 0.00067341
12310.0 0.00067228
12330.0 0.00067077
12350.0 0.00066896
12370.0 0.00066695
12390.0 0.00066455
12410.0 0.0006616
12430.0 0.00065851
12450.0 0.00065516
12470.0 0.00065133
12490.0 0.00064722
12510.0 0.00064309
12530.0 0.00063858
12550.0 0.00063374
12570.0 0.00062893
12590.0 0.00062408
12610.0 0.0006189
12630.0 0.00061369
12650.0 0.00060881
12670.0 0.0006038
12690.0 0.00059875
12710.0 0.000594
12730.0 0.00058945
12750.0 0.00058477
12770.0 0.00058042
12790.0 0.00057644
12810.0 0.00057259
12830.0 0.00056889
12850.0 0.00056566
12870.0 0.00056271
12890.0 0.00055992
12910.0 0.00055747
12930.0 0.00055541
12950.0 0.00055356
12970.0 0.00055198
12990.0 0.0005508
13010.0 0.00054991
13030.0 0.00054927
13050.0 0.00054891
13070.0 0.00054879
13090.0 0.00054883
13110.0 0.00054901
13130.0 0.00054927
13150.0 0.00054954
13170.0 0.00054974
13190.0 0.0005498
13210.0 0.00054967
13230.0 0.00054928
13250.0 0.00054855
13270.0 0.00054752
13290.0 0.00054611
13310.0 0.00054423
13330.0 0.000542
13350.0 0.00053945
13370.0 0.00053643
13390.0 0.00053299
13410.0 0.00052944
13430.0 0.00052553
13450.0 0.00052123
13470.0 0.00051679
13490.0 0.00051227
13510.0 0.00050726
13530.0 0.00050213
13550.0 0.00049705
13570.0 0.00049177
13590.0 0.00048623
13610.0 0.00048076
13630.0 0.00047537
13650.0 0.00046969
13670.0 0.00046402
13690.0 0.00045852
13710.0 0.00045295
13730.0 0.00044715
13750.0 0.00044174
13770.0 0.00043645
13790.0 0.0004311
13810.0 0.00042591
13830.0 0.00042108
13850.0 0.00041625
13870.0 0.00041151
13890.0 0.00040709
13910.0 0.00040288
13930.0 0.00039868
13950.0 0.00039468
13970.0 0.00039101
13990.0 0.00038739
14010.0 0.00038385
14030.0 0.00038056
14050.0 0.00037742
14070.0 0.00037425
14090.0 0.00037128
14110.0 0.0003685
14130.0 0.00036578
14150.0 0.00036313
14170.0 0.00036068
14190.0 0.00035833
14210.0 0.00035599
14230.0 0.00035376
14250.0 0.00035165
14270.0 0.00034953
14290.0 0.00034743
14310.0 0.00034545
14330.0 0.00034349
14350.0 0.00034151
14370.0 0.00033958
14390.0 0.00033771
14410.0 0.0003358
14430.0 0.00033389
14450.0 0.00033204
14470.0 0.00033019
14490.0 0.00032827
14510.0 0.00032641
14530.0 0.00032458
14550.0 0.0003227
14570.0 0.00032081
14590.0 0.00031896
14610.0 0.00031708
14630.0 0.00031513
14650.0 0.00031321
14670.0 0.00031131
14690.0 0.00030934
14710.0 0.00030733
14730.0 0.0003054
14750.0 0.00030341
14770.0 0.00030137
14790.0 0.00029935
14810.0 0.00029734
14830.0 0.00029521
14850.0 0.00029309
14870.0 0.00029102
14890.0 0.00028891
14910.0 0.00028677
14930.0 0.00028473
14950.0 0.00028278
14970.0 0.00028086
14990.0 0.00027908
15010.0 0.00027748
15030.0 0.00027598
15050.0 0.00027457
15070.0 0.00027332
15090.0 0.00027214
15110.0 0.000271
15130.0 0.00026989
15150.0 0.00026883
15170.0 0.00026776
15190.0 0.00026669
15210.0 0.00026564
15230.0 0.00026461
15250.0 0.00026355
15270.0 0.0002625
15290.0 0.00026149
15310.0 0.00026046
15330.0 0.00025943
15350.0 0.00025843
15370.0 0.00025744
15390.0 0.00025641
15410.0 0.00025541
15430.0 0.00025444
15450.0 0.00025345
15470.0 0.00025245
15490.0 0.00025149
15510.0 0.00025054
15530.0 0.00024957
15550.0 0.00024862
15570.0 0.00024769
15590.0 0.00024674
15610.0 0.00024579
15630.0 0.00024487
15650.0 0.00024396
15670.0 0.00024304
15690.0 0.00024213
15710.0 0.00024125
15730.0 0.00024035
15750.0 0.00023945
15770.0 0.00023859
15790.0 0.00023772
15810.0 0.00023683
15830.0 0.00023598
15850.0 0.00023514
15870.0 0.00023429
15890.0 0.00023344
15910.0 0.00023263
15930.0 0.00023181
15950.0 0.00023097
15970.0 0.00023016
15990.0 0.00022937
16010.0 0.00022857
16030.0 0.00022776
16050.0 0.00022699
16070.0 0.00022622
16090.0 0.00022544
16110.0 0.00022468
16130.0 0.00022394
16150.0 0.00022317
16170.0 0.00022241
16190.0 0.00022169
16210.0 0.00022095
16230.0 0.00022021
16250.0 0.0002195
16270.0 0.0002188
16290.0 0.00021808
16310.0 0.00021737
16330.0 0.00021669
16350.0 0.000216
16370.0 0.00021529
16390.0 0.00021462
16410.0 0.00021395
16430.0 0.00021328
16450.0 0.00021261
16470.0 0.00021197
16490.0 0.00021131
16510.0 0.00021065
16530.0 0.00021001
16550.0 0.00020939
16570.0 0.00020874
16590.0 0.0002081
16610.0 0.0002075
16630.0 0.00020688
16650.0 0.00020625
16670.0 0.00020565
16690.0 0.00020506
16710.0 0.00020444
16730.0 0.00020384
16750.0 0.00020326
16770.0 0.00020267
16790.0 0.00020207
16810.0 0.0002015
16830.0 0.00020094
16850.0 0.00020035
16870.0 0.00019978
16890.0 0.00019923
16910.0 0.00019866
16930.0 0.00019808
16950.0 0.00019754
16970.0 0.00019699
16990.0 0.00019643
17010.0 0.00019589
17030.0 0.00019536
17050.0 0.00019481
17070.0 0.00019427
17090.0 0.00019374
17110.0 0.00019322
17130.0 0.00019266
17150.0 0.00019214
17170.0 0.00019163
17190.0 0.0001911
17210.0 0.00019057
17230.0 0.00019007
17250.0 0.00018956
17270.0 0.00018903
17290.0 0.00018852
17310.0 0.00018802
17330.0 0.0001875
17350.0 0.00018698
17370.0 0.0001865
17390.0 0.00018599
17410.0 0.00018548
17430.0 0.00018499
17450.0 0.00018451
17470.0 0.00018399
17490.0 0.00018348
17510.0 0.000183
17530.0 0.00018251
17550.0 0.000182
17570.0 0.00018151
17590.0 0.00018104
17610.0 0.00018053
17630.0 0.00018004
17650.0 0.00017957
17670.0 0.00017908
17690.0 0.00017856
17710.0 0.00017809
17730.0 0.00017761
17750.0 0.00017711
17770.0 0.00017663
17790.0 0.00017616
17810.0 0.00017567
17830.0 0.00017517
17850.0 0.00017469
17870.0 0.00017422
17890.0 0.00017371
17910.0 0.00017322
17930.0 0.00017276
17950.0 0.00017227
17970.0 0.00017177
17990.0 0.0001713
18010.0 0.00017083
18030.0 0.00017032
18050.0 0.00016983
18070.0 0.00016936
18090.0 0.00016886
18110.0 0.00016836
18130.0 0.00016789
18150.0 0.00016741
18170.0 0.00016691
18190.0 0.00016642
18210.0 0.00016595
18230.0 0.00016544
18250.0 0.00016494
18270.0 0.00016446
18290.0 0.00016397
18310.0 0.00016346
18330.0 0.00016297
18350.0 0.0001625
18370.0 0.00016199
18390.0 0.00016148
18410.0 0.000161
18430.0 0.0001605
18450.0 0.00015998
18470.0 0.00015948
18490.0 0.000159
18510.0 0.00015848
18530.0 0.00015797
18550.0 0.00015749
18570.0 0.00015698
18590.0 0.00015645
18610.0 0.00015595
18630.0 0.00015545
18650.0 0.00015493
18670.0 0.0001544
18690.0 0.00015391
18710.0 0.0001534
18730.0 0.00015287
18750.0 0.00015236
18770.0 0.00015186
18790.0 0.00015131
18810.0 0.00015078
18830.0 0.00015028
18850.0 0.00014975
18870.0 0.00014921
18890.0 0.0001487
18910.0 0.00014818
18930.0 0.00014764
18950.0 0.0001471
18970.0 0.00014658
18990.0 0.00014605
19010.0 0.00014548
19030.0 0.00014496
19050.0 0.00014443
19070.0 0.00014388
19090.0 0.00014334
19110.0 0.00014282
19130.0 0.00014226
19150.0 0.0001417
19170.0 0.00014116
19190.0 0.00014062
19210.0 0.00014005
19230.0 0.00013949
19250.0 0.00013896
19270.0 0.0001384
19290.0 0.00013784
19310.0 0.00013729
19330.0 0.00013674
19350.0 0.00013615
19370.0 0.00013559
19390.0 0.00013504
19410.0 0.00013447
19430.0 0.00013388
19450.0 0.00013333
19470.0 0.00013277
19490.0 0.00013218
19510.0 0.00013161
19530.0 0.00013105
19550.0 0.00013046
19570.0 0.00012987
19590.0 0.0001293
19610.0 0.00012873
19630.0 0.00012813
19650.0 0.00012755
19670.0 0.00012699
19690.0 0.00012638
19710.0 0.00012579
19730.0 0.00012521
19750.0 0.00012462
19770.0 0.00012401
19790.0 0.00012342
19810.0 0.00012284
19830.0 0.00012223
19850.0 0.00012163
19870.0 0.00012106
19890.0 0.00012047
19910.0 0.00011988
19930.0 0.00011933
19950.0 0.00011882
19970.0 0.00011833
19990.0 0.00011791
20010.0 0.00011758
20030.0 0.0001173
20050.0 0.00011708
20070.0 0.00011693
20090.0 0.00011682
20110.0 0.00011673
20130.0 0.00011666
20150.0 0.0001166
20170.0 0.00011654
20190.0 0.00011647
20210.0 0.0001164
20230.0 0.00011632
20250.0 0.00011622
20270.0 0.00011612
20290.0 0.00011601
20310.0 0.00011589
20330.0 0.00011575
20350.0 0.00011561
20370.0 0.00011546
20390.0 0.00011529
20410.0 0.00011512
20430.0 0.00011495
20450.0 0.00011477
20470.0 0.00011458
20490.0 0.00011439
20510.0 0.00011421
20530.0 0.00011401
20550.0 0.00011383
20570.0 0.00011366
20590.0 0.00011348
20610.0 0.00011331
20630.0 0.00011315
20650.0 0.000113
20670.0 0.00011283
20690.0 0.00011268
20710.0 0.00011253
20730.0 0.00011237
20750.0 0.0001122
20770.0 0.00011203
20790.0 0.00011184
20810.0 0.00011164
20830.0 0.00011142
20850.0 0.00011119
20870.0 0.00011093
20890.0 0.00011064
20910.0 0.00011035
20930.0 0.00011004
20950.0 0.00010971
20970.0 0.00010937
20990.0 0.00010903
21010.0 0.00010866
21030.0 0.0001083
21050.0 0.00010794
21070.0 0.00010758
21090.0 0.0001072
21110.0 0.00010685
21130.0 0.00010652
21150.0 0.00010617
21170.0 0.00010583
21190.0 0.00010551
21210.0 0.00010518
21230.0 0.00010485
21250.0 0.00010453
21270.0 0.00010422
21290.0 0.00010388
21310.0 0.00010355
21330.0 0.00010323
21350.0 0.00010288
21370.0 0.00010252
21390.0 0.00010217
21410.0 0.00010181
21430.0 0.00010141
21450.0 0.00010102
21470.0 0.00010064
21490.0 0.00010023
21510.0 9.9803e-05
21530.0 9.9394e-05
21550.0 9.8976e-05
21570.0 9.8532e-05
21590.0 9.8098e-05
21610.0 9.7677e-05
21630.0 9.7238e-05
21650.0 9.6783e-05
21670.0 9.637e-05
21690.0 9.595e-05
21710.0 9.5518e-05
21730.0 9.5102e-05
21750.0 9.4707e-05
21770.0 9.4285e-05
21790.0 9.3871e-05
21810.0 9.348e-05
21830.0 9.3086e-05
21850.0 9.2677e-05
21870.0 9.2286e-05
21890.0 9.1914e-05
21910.0 9.1525e-05
21930.0 9.1139e-05
21950.0 9.0779e-05
21970.0 9.0417e-05
21990.0 9.0039e-05
22010.0 8.9698e-05
22030.0 8.9376e-05
22050.0 8.9052e-05
22070.0 8.8744e-05
22090.0 8.8474e-05
22110.0 8.8211e-05
22130.0 8.7958e-05
22150.0 8.7739e-05
22170.0 8.7547e-05
22190.0 8.7359e-05
22210.0 8.7194e-05
22230.0 8.7066e-05
22250.0 8.6946e-05
22270.0 8.6836e-05
22290.0 8.675e-05
22310.0 8.6679e-05
22330.0 8.6603e-05
22350.0 8.654e-05
22370.0 8.649e-05
22390.0 8.6438e-05
22410.0 8.6379e-05
22430.0 8.6334e-05
22450.0 8.6291e-05
22470.0 8.6236e-05
22490.0 8.6184e-05
22510.0 8.6141e-05
22530.0 8.6086e-05
22550.0 8.6025e-05
22570.0 8.5978e-05
22590.0 8.5935e-05
22610.0 8.5885e-05
22630.0 8.5845e-05
22650.0 8.5825e-05
22670.0 8.5803e-05
22690.0 8.579e-05
22710.0 8.58e-05
22730.0 8.5825e-05
22750.0 8.5851e-05
22770.0 8.5905e-05
22790.0 8.5984e-05
22810.0 8.6076e-05
22830.0 8.6186e-05
22850.0 8.6325e-05
22870.0 8.6481e-05
22890.0 8.6651e-05
22910.0 8.6844e-05
22930.0 8.7059e-05
22950.0 8.7287e-05
22970.0 8.753e-05
22990.0 8.7797e-05
23010.0 8.8078e-05
23030.0 8.8373e-05
23050.0 8.8686e-05
23070.0 8.9019e-05
23090.0 8.9366e-05
23110.0 8.9748e-05
23130.0 9.0155e-05
23150.0 9.0586e-05
23170.0 9.1043e-05
23190.0 9.153e-05
23210.0 9.2045e-05
23230.0 9.2593e-05
23250.0 9.3173e-05
