#lamb flux
1010.0 9.5595e-06
1030.0 1.0188e-05
1050.0 1.1453e-05
1070.0 1.2872e-05
1090.0 1.4356e-05
1110.0 1.5881e-05
1130.0 1.7415e-05
1150.0 1.9018e-05
1170.0 2.0658e-05
1190.0 2.2174e-05
1210.0 2.367e-05
1230.0 2.5162e-05
1250.0 2.6578e-05
1270.0 2.7868e-05
1290.0 2.916e-05
1310.0 3.0362e-05
1330.0 3.1417e-05
1350.0 3.2423e-05
1370.0 3.3427e-05
1390.0 3.4365e-05
1410.0 3.5261e-05
1430.0 3.6249e-05
1450.0 3.7295e-05
1470.0 3.838e-05
1490.0 3.9596e-05
1510.0 4.103e-05
1530.0 4.2554e-05
1550.0 4.4246e-05
1570.0 4.6189e-05
1590.0 4.8355e-05
1610.0 5.0698e-05
1630.0 5.3372e-05
1650.0 5.6336e-05
1670.0 5.9501e-05
1690.0 6.2889e-05
1710.0 6.6572e-05
1730.0 7.0482e-05
1750.0 7.4471e-05
1770.0 7.8661e-05
1790.0 8.3e-05
1810.0 8.734e-05
1830.0 9.1648e-05
1850.0 9.6021e-05
1870.0 0.00010022
1890.0 0.00010416
1910.0 0.00010789
1930.0 0.00011135
1950.0 0.00011433
1970.0 0.00011686
1990.0 0.00011901
2010.0 0.00012062
2030.0 0.00012164
2050.0 0.00012221
2070.0 0.00012233
2090.0 0.00012184
2110.0 0.00012091
2130.0 0.00011963
2150.0 0.00011797
2170.0 0.00011594
2190.0 0.00011376
2210.0 0.00011143
2230.0 0.00010893
2250.0 0.00010638
2270.0 0.00010393
2290.0 0.00010149
2310.0 9.9108e-05
2330.0 9.6931e-05
2350.0 9.4956e-05
2370.0 9.3156e-05
2390.0 9.1631e-05
2410.0 9.0466e-05
2430.0 8.9603e-05
2450.0 8.9094e-05
2470.0 8.9062e-05
2490.0 8.9558e-05
2510.0 9.0508e-05
2530.0 9.2197e-05
2550.0 9.501e-05
2570.0 9.9251e-05
2590.0 0.0001054
2610.0 0.0001149
2630.0 0.00012814
2650.0 0.00014464
2670.0 0.00016486
2690.0 0.00018842
2710.0 0.00021264
2730.0 0.00023613
2750.0 0.00025926
2770.0 0.00028022
2790.0 0.0002987
2810.0 0.00031602
2830.0 0.00033334
2850.0 0.00035025
2870.0 0.00036797
2890.0 0.00038739
2910.0 0.00040833
2930.0 0.00043028
2950.0 0.00045427
2970.0 0.00048022
2990.0 0.00050731
3010.0 0.00060718
3030.0 0.00064192
3050.0 0.00067819
3070.0 0.0007143
3090.0 0.00075085
3110.0 0.00078579
3130.0 0.00081636
3150.0 0.00084135
3170.0 0.00085724
3190.0 0.00088444
3210.0 0.0009755
3230.0 0.0011163
3250.0 0.0011749
3270.0 0.0011132
3290.0 0.0010154
3310.0 0.00096432
3330.0 0.00094344
3350.0 0.00094187
3370.0 0.00094684
3390.0 0.00095845
3410.0 0.00096452
3430.0 0.00093439
3450.0 0.00092363
3470.0 0.00092066
3490.0 0.0010308
3510.0 0.0013572
3530.0 0.0016839
3550.0 0.0019187
3570.0 0.0021416
3590.0 0.0022704
3610.0 0.0022556
3630.0 0.002215
3650.0 0.0023285
3670.0 0.0026575
3690.0 0.0030588
3710.0 0.0034129
3730.0 0.0037078
3750.0 0.0039703
3770.0 0.0039227
3790.0 0.0036507
3810.0 0.0033783
3830.0 0.0031141
3850.0 0.003007
3870.0 0.0031504
3890.0 0.0034599
3910.0 0.0037768
3930.0 0.0041203
3950.0 0.0046212
3970.0 0.0049832
3990.0 0.0048296
4010.0 0.0043833
4030.0 0.0038515
4050.0 0.0035273
4070.0 0.0033882
4090.0 0.0033203
4110.0 0.003366
4130.0 0.0033697
4150.0 0.0033847
4170.0 0.0035257
4190.0 0.003763
4210.0 0.0037591
4230.0 0.0037044
4250.0 0.0037141
4270.0 0.0038216
4290.0 0.0040213
4310.0 0.0042106
4330.0 0.0040994
4350.0 0.0037387
4370.0 0.0033844
4390.0 0.0030322
4410.0 0.0026809
4430.0 0.0025419
4450.0 0.0025933
4470.0 0.002703
4490.0 0.0028903
4510.0 0.0032981
4530.0 0.0041437
4550.0 0.0053994
4570.0 0.0063105
4590.0 0.0069637
4610.0 0.0079185
4630.0 0.0086505
4650.0 0.0083743
4670.0 0.0073202
4690.0 0.0062131
4710.0 0.0054489
4730.0 0.0049519
4750.0 0.0044659
4770.0 0.0041029
4790.0 0.0042248
4810.0 0.0045587
4830.0 0.0046917
4850.0 0.0045889
4870.0 0.0047014
4890.0 0.0050256
4910.0 0.0053211
4930.0 0.0055121
4950.0 0.005545
4970.0 0.005322
4990.0 0.0048578
5010.0 0.0043483
5030.0 0.0039224
5050.0 0.0036398
5070.0 0.0034482
5090.0 0.0032999
5110.0 0.0032548
5130.0 0.0032535
5150.0 0.0033075
5170.0 0.0035513
5190.0 0.0039452
5210.0 0.0044438
5230.0 0.0048666
5250.0 0.005216
5270.0 0.0056075
5290.0 0.0060126
5310.0 0.0062438
5330.0 0.0062226
5350.0 0.0060395
5370.0 0.0059718
5390.0 0.0061643
5410.0 0.0065581
5430.0 0.006966
5450.0 0.0072994
5470.0 0.0074926
5490.0 0.0074744
5510.0 0.0073548
5530.0 0.0072305
5550.0 0.0071078
5570.0 0.0069355
5590.0 0.0067363
5610.0 0.0065001
5630.0 0.0061558
5650.0 0.0056931
5670.0 0.0052713
5690.0 0.0050143
5710.0 0.0048613
5730.0 0.0046853
5750.0 0.004559
5770.0 0.004521
5790.0 0.0045339
5810.0 0.0045023
5830.0 0.0044785
5850.0 0.0044547
5870.0 0.0043325
5890.0 0.0041899
5910.0 0.00402
5930.0 0.0036965
5950.0 0.0033237
5970.0 0.0030557
5990.0 0.0029181
6010.0 0.0028397
6030.0 0.0027447
6050.0 0.0026968
6070.0 0.0028048
6090.0 0.0029636
6110.0 0.003041
6130.0 0.0030153
6150.0 0.0029568
6170.0 0.002925
6190.0 0.0028902
6210.0 0.0027913
6230.0 0.0026032
6250.0 0.0024208
6270.0 0.0023122
6290.0 0.0022419
6310.0 0.002292
6330.0 0.0024852
6350.0 0.002728
6370.0 0.0029026
6390.0 0.0030437
6410.0 0.0032119
6430.0 0.0033409
6450.0 0.0034314
6470.0 0.0035194
6490.0 0.003606
6510.0 0.003667
6530.0 0.0036917
6550.0 0.0037127
6570.0 0.0036619
6590.0 0.0035277
6610.0 0.0033977
6630.0 0.0032848
6650.0 0.0031382
6670.0 0.0029648
6690.0 0.0028297
6710.0 0.0027492
6730.0 0.0026685
6750.0 0.0026093
6770.0 0.0026073
6790.0 0.0026092
6810.0 0.0025648
6830.0 0.0025134
6850.0 0.0025288
6870.0 0.0025423
6890.0 0.0024985
6910.0 0.0024754
6930.0 0.0024612
6950.0 0.0024166
6970.0 0.0023518
6990.0 0.0022854
7010.0 0.0022284
7030.0 0.0021575
7050.0 0.0020334
7070.0 0.0019
7090.0 0.0018749
7110.0 0.0019434
7130.0 0.0020184
7150.0 0.0020724
7170.0 0.0021338
7190.0 0.0021853
7210.0 0.0021771
7230.0 0.0021742
7250.0 0.0022139
7270.0 0.0021947
7290.0 0.0021506
7310.0 0.0021519
7330.0 0.0022161
7350.0 0.0023118
7370.0 0.0023734
7390.0 0.0024159
7410.0 0.002459
7430.0 0.0024598
7450.0 0.0024238
7470.0 0.0023789
7490.0 0.0022824
7510.0 0.0021891
7530.0 0.0021686
7550.0 0.0021494
7570.0 0.0021314
7590.0 0.002144
7610.0 0.0021509
7630.0 0.0021695
7650.0 0.0022593
7670.0 0.0023823
7690.0 0.0025003
7710.0 0.0025891
7730.0 0.0026704
7750.0 0.0027526
7770.0 0.0028312
7790.0 0.0029026
7810.0 0.0029317
7830.0 0.0028737
7850.0 0.0027776
7870.0 0.0026784
7890.0 0.0025902
7910.0 0.0025591
7930.0 0.0025243
7950.0 0.0024739
7970.0 0.002415
7990.0 0.0023876
8010.0 0.0022483
8030.0 0.0022414
8050.0 0.0022301
8070.0 0.0022041
8090.0 0.002181
8110.0 0.0021751
8130.0 0.0021837
8150.0 0.0021754
8170.0 0.0021551
8190.0 0.0020959
8210.0 0.0019888
8230.0 0.0018885
8250.0 0.0018436
8270.0 0.0017724
8290.0 0.0016364
8310.0 0.0015024
8330.0 0.0014166
8350.0 0.0013749
8370.0 0.00142
8390.0 0.0015325
8410.0 0.0016383
8430.0 0.0017437
8450.0 0.0018792
8470.0 0.002
8490.0 0.0021325
8510.0 0.0022649
8530.0 0.0023951
8550.0 0.0025005
8570.0 0.0025793
8590.0 0.0026417
8610.0 0.0027037
8630.0 0.0027195
8650.0 0.0026738
8670.0 0.0026823
8690.0 0.0027803
8710.0 0.0029066
8730.0 0.0029494
8750.0 0.0029082
8770.0 0.0029127
8790.0 0.0029131
8810.0 0.0028352
8830.0 0.0026333
8850.0 0.0023833
8870.0 0.0022015
8890.0 0.0021343
8910.0 0.0020585
8930.0 0.0019193
8950.0 0.0017983
8970.0 0.0017609
8990.0 0.0017816
9010.0 0.001779
9030.0 0.0017591
9050.0 0.0017448
9070.0 0.0017353
9090.0 0.0017264
9110.0 0.0017177
9130.0 0.0017091
9150.0 0.0017006
9170.0 0.001692
9190.0 0.0016839
9210.0 0.0016764
9230.0 0.0016678
9250.0 0.0016594
9270.0 0.0016512
9290.0 0.0016431
9310.0 0.0016351
9330.0 0.0016273
9350.0 0.0016196
9370.0 0.0016119
9390.0 0.0016043
9410.0 0.0015967
9430.0 0.001589
9450.0 0.0015798
9470.0 0.0015713
9490.0 0.0015656
9510.0 0.0015591
9530.0 0.0015526
9550.0 0.0015458
9570.0 0.0015389
9590.0 0.0015321
9610.0 0.0015253
9630.0 0.0015185
9650.0 0.0015117
9670.0 0.0015051
9690.0 0.0014984
9710.0 0.0014917
9730.0 0.0014852
9750.0 0.0014787
9770.0 0.0014721
9790.0 0.0014656
9810.0 0.0014592
9830.0 0.0014528
9850.0 0.0014461
9870.0 0.0014399
9890.0 0.0014336
9910.0 0.0014272
9930.0 0.0014209
9950.0 0.0014133
9970.0 0.0014073
9990.0 0.0014012
10010.0 0.0013949
10030.0 0.0013886
10050.0 0.0013825
10070.0 0.0013763
10090.0 0.0013703
10110.0 0.0013634
10130.0 0.0013541
10150.0 0.0013482
10170.0 0.0013428
10190.0 0.0013367
10210.0 0.0013307
10230.0 0.0013246
10250.0 0.0013179
10270.0 0.0013112
10290.0 0.0013048
10310.0 0.001298
10330.0 0.0012907
10350.0 0.0012839
10370.0 0.0012771
10390.0 0.0012698
10410.0 0.0012625
10430.0 0.0012556
10450.0 0.0012483
10470.0 0.0012407
10490.0 0.0012333
10510.0 0.001226
10530.0 0.0012179
10550.0 0.00121
10570.0 0.0012024
10590.0 0.0011944
10610.0 0.0011861
10630.0 0.0011782
10650.0 0.0011701
10670.0 0.0011614
10690.0 0.0011529
10710.0 0.0011445
10730.0 0.0011357
10750.0 0.0011264
10770.0 0.0011177
10790.0 0.0011088
10810.0 0.0010994
10830.0 0.00109
10850.0 0.001081
10870.0 0.0010711
10890.0 0.0010612
10910.0 0.0010516
10930.0 0.0010418
10950.0 0.0010315
10970.0 0.0010214
10990.0 0.0010118
11010.0 0.0009952
11030.0 0.00098437
11050.0 0.00097423
11070.0 0.00096423
11090.0 0.00095393
11110.0 0.00094456
11130.0 0.00093569
11150.0 0.00092684
11170.0 0.00091838
11190.0 0.00091074
11210.0 0.00090329
11230.0 0.00089608
11250.0 0.00088957
11270.0 0.0008836
11290.0 0.00087779
11310.0 0.0008724
11330.0 0.00086768
11350.0 0.00086311
11370.0 0.00085866
11390.0 0.0008545
11410.0 0.00085045
11430.0 0.0008461
11450.0 0.00084167
11470.0 0.00083715
11490.0 0.00083219
11510.0 0.00082667
11530.0 0.00082092
11550.0 0.00081475
11570.0 0.00080783
11590.0 0.00080043
11610.0 0.00079276
11630.0 0.0007843
11650.0 0.0007751
11670.0 0.00076578
11690.0 0.000756
11710.0 0.00074538
11730.0 0.00073438
11750.0 0.00072332
11770.0 0.00071138
11790.0 0.00069881
11810.0 0.00068618
11830.0 0.00067319
11850.0 0.00065914
11870.0 0.00064519
11890.0 0.00063147
11910.0 0.00061725
11930.0 0.00060286
11950.0 0.00058913
11970.0 0.00057551
11990.0 0.00056168
12010.0 0.00054863
12030.0 0.00053633
12050.0 0.00052425
12070.0 0.00051258
12090.0 0.0005022
12110.0 0.00049234
12130.0 0.00048295
12150.0 0.0004745
12170.0 0.000467
12190.0 0.00045991
12210.0 0.00045374
12230.0 0.0004486
12250.0 0.00044425
12270.0 0.00044069
12290.0 0.00043805
12310.0 0.00043622
12330.0 0.00043512
12350.0 0.00043473
12370.0 0.00043491
12390.0 0.00043561
12410.0 0.00043688
12430.0 0.00043836
12450.0 0.00044005
12470.0 0.000442
12490.0 0.00044405
12510.0 0.00044597
12530.0 0.00044797
12550.0 0.00044995
12570.0 0.00045168
12590.0 0.00045318
12610.0 0.00045451
12630.0 0.00045548
12650.0 0.00045594
12670.0 0.00045598
12690.0 0.0004555
12710.0 0.00045442
12730.0 0.00045275
12750.0 0.0004504
12770.0 0.0004474
12790.0 0.00044386
12810.0 0.00043971
12830.0 0.00043494
12850.0 0.00042992
12870.0 0.0004246
12890.0 0.00041888
12910.0 0.00041309
12930.0 0.00040739
12950.0 0.00040155
12970.0 0.00039571
12990.0 0.00039025
13010.0 0.00038497
13030.0 0.00037975
13050.0 0.00037483
13070.0 0.00037027
13090.0 0.00036578
13110.0 0.00036147
13130.0 0.00035748
13150.0 0.00035367
13170.0 0.00034991
13190.0 0.00034643
13210.0 0.00034319
13230.0 0.00034004
13250.0 0.00033703
13270.0 0.00033425
13290.0 0.00033157
13310.0 0.00032893
13330.0 0.00032644
13350.0 0.00032406
13370.0 0.00032166
13390.0 0.00031924
13410.0 0.00031692
13430.0 0.00031453
13450.0 0.00031204
13470.0 0.00030951
13490.0 0.00030696
13510.0 0.00030419
13530.0 0.00030134
13550.0 0.00029847
13570.0 0.00029548
13590.0 0.00029234
13610.0 0.0002892
13630.0 0.00028608
13650.0 0.00028281
13670.0 0.00027954
13690.0 0.00027635
13710.0 0.00027313
13730.0 0.00026979
13750.0 0.00026664
13770.0 0.00026355
13790.0 0.00026042
13810.0 0.00025735
13830.0 0.00025444
13850.0 0.00025152
13870.0 0.00024863
13890.0 0.00024591
13910.0 0.00024331
13930.0 0.00024073
13950.0 0.00023829
13970.0 0.00023609
13990.0 0.00023397
14010.0 0.00023194
14030.0 0.00023012
14050.0 0.00022842
14070.0 0.00022677
14090.0 0.00022526
14110.0 0.00022388
14130.0 0.00022256
14150.0 0.00022128
14170.0 0.00022011
14190.0 0.000219
14210.0 0.00021789
14230.0 0.00021684
14250.0 0.00021585
14270.0 0.00021485
14290.0 0.00021386
14310.0 0.00021294
14330.0 0.00021203
14350.0 0.00021111
14370.0 0.00021022
14390.0 0.00020938
14410.0 0.00020851
14430.0 0.00020765
14450.0 0.00020684
14470.0 0.00020603
14490.0 0.0002052
14510.0 0.00020441
14530.0 0.00020365
14550.0 0.00020285
14570.0 0.00020205
14590.0 0.00020127
14610.0 0.00020046
14630.0 0.0001996
14650.0 0.00019876
14670.0 0.00019796
14690.0 0.00019718
14710.0 0.00019647
14730.0 0.00019596
14750.0 0.00019563
14770.0 0.00019557
14790.0 0.00019586
14810.0 0.00019653
14830.0 0.00019772
14850.0 0.00019945
14870.0 0.00020164
14890.0 0.00020437
14910.0 0.00020762
14930.0 0.00021107
14950.0 0.00021457
14970.0 0.00021814
14990.0 0.00022139
15010.0 0.00022414
15030.0 0.00022643
15050.0 0.00022827
15070.0 0.00022958
15090.0 0.00023057
15110.0 0.00023134
15130.0 0.00023197
15150.0 0.00023252
15170.0 0.00023303
15190.0 0.00023354
15210.0 0.00023405
15230.0 0.00023456
15250.0 0.00023509
15270.0 0.00023563
15290.0 0.00023618
15310.0 0.00023674
15330.0 0.00023731
15350.0 0.00023789
15370.0 0.00023848
15390.0 0.00023908
15410.0 0.0002397
15430.0 0.00024032
15450.0 0.00024095
15470.0 0.0002416
15490.0 0.00024225
15510.0 0.00024292
15530.0 0.00024359
15550.0 0.00024427
15570.0 0.00024496
15590.0 0.00024566
15610.0 0.00024637
15630.0 0.00024709
15650.0 0.00024781
15670.0 0.00024855
15690.0 0.00024929
15710.0 0.00025004
15730.0 0.0002508
15750.0 0.00025157
15770.0 0.00025234
15790.0 0.00025312
15810.0 0.00025391
15830.0 0.00025471
15850.0 0.00025551
15870.0 0.00025632
15890.0 0.00025713
15910.0 0.00025795
15930.0 0.00025878
15950.0 0.00025961
15970.0 0.00026044
15990.0 0.00026129
16010.0 0.00026213
16030.0 0.00026298
16050.0 0.00026384
16070.0 0.0002647
16090.0 0.00026556
16110.0 0.00026643
16130.0 0.0002673
16150.0 0.00026817
16170.0 0.00026904
16190.0 0.00026992
16210.0 0.0002708
16230.0 0.00027168
16250.0 0.00027256
16270.0 0.00027344
16290.0 0.00027433
16310.0 0.00027521
16330.0 0.0002761
16350.0 0.00027698
16370.0 0.00027787
16390.0 0.00027875
16410.0 0.00027963
16430.0 0.00028052
16450.0 0.0002814
16470.0 0.00028227
16490.0 0.00028315
16510.0 0.00028402
16530.0 0.00028489
16550.0 0.00028576
16570.0 0.00028662
16590.0 0.00028748
16610.0 0.00028834
16630.0 0.00028919
16650.0 0.00029003
16670.0 0.00029088
16690.0 0.00029171
16710.0 0.00029254
16730.0 0.00029336
16750.0 0.00029418
16770.0 0.00029499
16790.0 0.00029579
16810.0 0.00029658
16830.0 0.00029737
16850.0 0.00029815
16870.0 0.00029892
16890.0 0.00029968
16910.0 0.00030043
16930.0 0.00030117
16950.0 0.00030191
16970.0 0.00030263
16990.0 0.00030334
17010.0 0.00030404
17030.0 0.00030473
17050.0 0.00030541
17070.0 0.00030607
17090.0 0.00030673
17110.0 0.00030737
17130.0 0.000308
17150.0 0.00030861
17170.0 0.00030922
17190.0 0.00030981
17210.0 0.00031038
17230.0 0.00031094
17250.0 0.00031149
17270.0 0.00031202
17290.0 0.00031254
17310.0 0.00031304
17330.0 0.00031353
17350.0 0.000314
17370.0 0.00031446
17390.0 0.0003149
17410.0 0.00031532
17430.0 0.00031573
17450.0 0.00031612
17470.0 0.00031649
17490.0 0.00031684
17510.0 0.00031718
17530.0 0.0003175
17550.0 0.00031781
17570.0 0.00031809
17590.0 0.00031836
17610.0 0.00031861
17630.0 0.00031884
17650.0 0.00031905
17670.0 0.00031924
17690.0 0.00031941
17710.0 0.00031957
17730.0 0.00031971
17750.0 0.00031982
17770.0 0.00031992
17790.0 0.00032
17810.0 0.00032005
17830.0 0.00032009
17850.0 0.00032011
17870.0 0.00032011
17890.0 0.00032009
17910.0 0.00032005
17930.0 0.00031999
17950.0 0.00031991
17970.0 0.00031981
17990.0 0.00031969
18010.0 0.00031955
18030.0 0.00031938
18050.0 0.0003192
18070.0 0.000319
18090.0 0.00031878
18110.0 0.00031854
18130.0 0.00031828
18150.0 0.000318
18170.0 0.0003177
18190.0 0.00031738
18210.0 0.00031704
18230.0 0.00031668
18250.0 0.0003163
18270.0 0.0003159
18290.0 0.00031548
18310.0 0.00031504
18330.0 0.00031458
18350.0 0.0003141
18370.0 0.00031361
18390.0 0.00031309
18410.0 0.00031256
18430.0 0.000312
18450.0 0.00031143
18470.0 0.00031084
18490.0 0.00031023
18510.0 0.00030961
18530.0 0.00030896
18550.0 0.0003083
18570.0 0.00030762
18590.0 0.00030692
18610.0 0.00030621
18630.0 0.00030547
18650.0 0.00030472
18670.0 0.00030396
18690.0 0.00030317
18710.0 0.00030237
18730.0 0.00030156
18750.0 0.00030073
18770.0 0.00029988
18790.0 0.00029902
18810.0 0.00029814
18830.0 0.00029724
18850.0 0.00029633
18870.0 0.00029541
18890.0 0.00029447
18910.0 0.00029352
18930.0 0.00029255
18950.0 0.00029157
18970.0 0.00029058
18990.0 0.00028957
19010.0 0.00028855
19030.0 0.00028752
19050.0 0.00028647
19070.0 0.00028541
19090.0 0.00028434
19110.0 0.00028326
19130.0 0.00028217
19150.0 0.00028106
19170.0 0.00027995
19190.0 0.00027882
19210.0 0.00027768
19230.0 0.00027653
19250.0 0.00027538
19270.0 0.00027421
19290.0 0.00027303
19310.0 0.00027184
19330.0 0.00027065
19350.0 0.00026944
19370.0 0.00026823
19390.0 0.00026701
19410.0 0.00026578
19430.0 0.00026454
19450.0 0.0002633
19470.0 0.00026205
19490.0 0.00026079
19510.0 0.00025952
19530.0 0.00025825
19550.0 0.00025697
19570.0 0.00025569
19590.0 0.0002544
19610.0 0.0002531
19630.0 0.0002518
19650.0 0.0002505
19670.0 0.00024919
19690.0 0.00024788
19710.0 0.00024656
19730.0 0.00024523
19750.0 0.00024391
19770.0 0.00024258
19790.0 0.00024124
19810.0 0.00023991
19830.0 0.00023856
19850.0 0.0002372
19870.0 0.00023583
19890.0 0.0002344
19910.0 0.0002329
19930.0 0.00023127
19950.0 0.00022947
19970.0 0.00022738
19990.0 0.00022497
20010.0 0.00022227
20030.0 0.00021916
20050.0 0.00021569
20070.0 0.00021201
20090.0 0.00020817
20110.0 0.00020403
20130.0 0.00019993
20150.0 0.00019592
20170.0 0.00019187
20190.0 0.00018784
20210.0 0.00018401
20230.0 0.00018027
20250.0 0.00017653
20270.0 0.00017297
20290.0 0.00016961
20310.0 0.00016631
20330.0 0.0001631
20350.0 0.00016018
20370.0 0.00015738
20390.0 0.0001547
20410.0 0.00015221
20430.0 0.00014993
20450.0 0.00014773
20470.0 0.0001457
20490.0 0.00014386
20510.0 0.00014216
20530.0 0.00014057
20550.0 0.00013913
20570.0 0.00013782
20590.0 0.0001366
20610.0 0.00013548
20630.0 0.00013444
20650.0 0.00013346
20670.0 0.00013255
20690.0 0.00013167
20710.0 0.00013082
20730.0 0.00012999
20750.0 0.00012916
20770.0 0.00012832
20790.0 0.00012746
20810.0 0.00012658
20830.0 0.00012566
20850.0 0.0001247
20870.0 0.00012369
20890.0 0.00012263
20910.0 0.00012152
20930.0 0.00012036
20950.0 0.00011915
20970.0 0.00011789
20990.0 0.0001166
21010.0 0.00011525
21030.0 0.00011386
21050.0 0.00011247
21070.0 0.00011103
21090.0 0.00010956
21110.0 0.0001081
21130.0 0.00010665
21150.0 0.00010516
21170.0 0.00010369
21190.0 0.00010224
21210.0 0.00010079
21230.0 9.9326e-05
21250.0 9.7915e-05
21270.0 9.6526e-05
21290.0 9.5138e-05
21310.0 9.3783e-05
21330.0 9.2487e-05
21350.0 9.1199e-05
21370.0 8.9939e-05
21390.0 8.8734e-05
21410.0 8.7571e-05
21430.0 8.6419e-05
21450.0 8.533e-05
21470.0 8.4297e-05
21490.0 8.3297e-05
21510.0 8.2339e-05
21530.0 8.144e-05
21550.0 8.058e-05
21570.0 7.9754e-05
21590.0 7.8973e-05
21610.0 7.8233e-05
21630.0 7.7522e-05
21650.0 7.6838e-05
21670.0 7.6188e-05
21690.0 7.5558e-05
21710.0 7.4944e-05
21730.0 7.4346e-05
21750.0 7.3761e-05
21770.0 7.3183e-05
21790.0 7.2611e-05
21810.0 7.2046e-05
21830.0 7.1482e-05
21850.0 7.0919e-05
21870.0 7.0357e-05
21890.0 6.9797e-05
21910.0 6.9234e-05
21930.0 6.8669e-05
21950.0 6.8105e-05
21970.0 6.7537e-05
21990.0 6.6961e-05
22010.0 6.6385e-05
22030.0 6.5805e-05
22050.0 6.5214e-05
22070.0 6.4615e-05
22090.0 6.4013e-05
22110.0 6.3398e-05
22130.0 6.2767e-05
22150.0 6.213e-05
22170.0 6.1483e-05
22190.0 6.0813e-05
22210.0 6.0129e-05
22230.0 5.9446e-05
22250.0 5.8743e-05
22270.0 5.8021e-05
22290.0 5.7297e-05
22310.0 5.6567e-05
22330.0 5.5807e-05
22350.0 5.5044e-05
22370.0 5.4284e-05
22390.0 5.3506e-05
22410.0 5.2708e-05
22430.0 5.1924e-05
22450.0 5.1139e-05
22470.0 5.0333e-05
22490.0 4.953e-05
22510.0 4.8743e-05
22530.0 4.7937e-05
22550.0 4.7125e-05
22570.0 4.634e-05
22590.0 4.5562e-05
22610.0 4.4778e-05
22630.0 4.4014e-05
22650.0 4.3284e-05
22670.0 4.2554e-05
22690.0 4.184e-05
22710.0 4.1162e-05
22730.0 4.0509e-05
22750.0 3.9858e-05
22770.0 3.925e-05
22790.0 3.8679e-05
22810.0 3.8125e-05
22830.0 3.7595e-05
22850.0 3.7105e-05
22870.0 3.6636e-05
22890.0 3.6184e-05
22910.0 3.5762e-05
22930.0 3.5365e-05
22950.0 3.4982e-05
22970.0 3.4614e-05
22990.0 3.4273e-05
23010.0 3.3942e-05
23030.0 3.362e-05
