#lamb flux
1010.0 9.8202e-05
1030.0 0.00012511
1050.0 0.00015724
1070.0 0.00019496
1090.0 0.00023966
1110.0 0.00028822
1130.0 0.0003398
1150.0 0.00039275
1170.0 0.00044912
1190.0 0.00050488
1210.0 0.00056434
1230.0 0.0006269
1250.0 0.00068937
1270.0 0.00075056
1290.0 0.00081404
1310.0 0.00087613
1330.0 0.00093374
1350.0 0.00098888
1370.0 0.001042
1390.0 0.0010895
1410.0 0.0011308
1430.0 0.0011698
1450.0 0.0012041
1470.0 0.0012322
1490.0 0.0012571
1510.0 0.0012845
1530.0 0.0013081
1550.0 0.0013263
1570.0 0.001329
1590.0 0.0013307
1610.0 0.0013302
1630.0 0.0013314
1650.0 0.0013347
1670.0 0.0013381
1690.0 0.0013428
1710.0 0.001351
1730.0 0.0013614
1750.0 0.0013718
1770.0 0.0013854
1790.0 0.0014018
1810.0 0.0014192
1830.0 0.001438
1850.0 0.0014614
1870.0 0.0014862
1890.0 0.0015114
1910.0 0.0015388
1930.0 0.0015684
1950.0 0.0015969
1970.0 0.0016263
1990.0 0.0016588
2010.0 0.0016924
2030.0 0.0017267
2050.0 0.0017635
2070.0 0.0018013
2090.0 0.0018381
2110.0 0.0018758
2130.0 0.0019154
2150.0 0.0019553
2170.0 0.0019947
2190.0 0.0020361
2210.0 0.0020789
2230.0 0.0021217
2250.0 0.0021651
2270.0 0.0022105
2290.0 0.0022555
2310.0 0.0022994
2330.0 0.0023447
2350.0 0.0023905
2370.0 0.0024349
2390.0 0.0024794
2410.0 0.0025253
2430.0 0.0025702
2450.0 0.0026148
2470.0 0.0026624
2490.0 0.0027154
2510.0 0.0027742
2530.0 0.0028475
2550.0 0.0029465
2570.0 0.0030779
2590.0 0.0032508
2610.0 0.0034984
2630.0 0.0038279
2650.0 0.0042315
2670.0 0.0047312
2690.0 0.0053376
2710.0 0.0060007
2730.0 0.006694
2750.0 0.0074393
2770.0 0.0081679
2790.0 0.0088273
2810.0 0.0094266
2830.0 0.0099651
2850.0 0.010383
2870.0 0.010722
2890.0 0.01101
2910.0 0.011252
2930.0 0.011454
2950.0 0.011648
2970.0 0.011838
2990.0 0.012015
3010.0 0.012187
3030.0 0.012367
3050.0 0.012547
3070.0 0.012712
3090.0 0.012884
3110.0 0.013063
3130.0 0.013255
3150.0 0.013443
3170.0 0.013754
3190.0 0.014219
3210.0 0.014893
3230.0 0.015876
3250.0 0.017256
3270.0 0.018641
3290.0 0.02072
3310.0 0.024737
3330.0 0.025734
3350.0 0.025977
3370.0 0.026187
3390.0 0.026398
3410.0 0.026591
3430.0 0.026772
3450.0 0.026949
3470.0 0.027128
3490.0 0.027265
3510.0 0.027235
3530.0 0.026329
3550.0 0.025187
3570.0 0.025671
3590.0 0.027536
3610.0 0.029939
3630.0 0.0314
3650.0 0.030203
3670.0 0.027352
3690.0 0.0254
3710.0 0.025346
3730.0 0.026195
3750.0 0.026745
3770.0 0.027759
3790.0 0.028929
3810.0 0.028998
3830.0 0.027237
3850.0 0.02552
3870.0 0.024851
3890.0 0.025159
3910.0 0.025178
3930.0 0.025343
3950.0 0.026633
3970.0 0.028133
3990.0 0.028923
4010.0 0.028658
4030.0 0.027751
4050.0 0.027345
4070.0 0.027103
4090.0 0.027118
4110.0 0.02695
4130.0 0.026091
4150.0 0.025102
4170.0 0.024762
4190.0 0.023854
4210.0 0.022184
4230.0 0.020392
4250.0 0.018556
4270.0 0.017168
4290.0 0.016319
4310.0 0.016011
4330.0 0.016391
4350.0 0.017069
4370.0 0.017639
4390.0 0.018818
4410.0 0.019758
4430.0 0.019575
4450.0 0.018053
4470.0 0.016631
4490.0 0.015992
4510.0 0.015595
4530.0 0.015463
4550.0 0.015335
4570.0 0.015396
4590.0 0.015725
4610.0 0.016192
4630.0 0.01648
4650.0 0.016583
4670.0 0.01619
4690.0 0.015155
4710.0 0.014131
4730.0 0.013392
4750.0 0.012906
4770.0 0.01273
4790.0 0.012575
4810.0 0.012171
4830.0 0.011815
4850.0 0.012184
4870.0 0.011849
4890.0 0.011659
4910.0 0.011346
4930.0 0.010553
4950.0 0.009323
4970.0 0.0085848
4990.0 0.0079596
5010.0 0.0075945
5030.0 0.0076435
5050.0 0.0078551
5070.0 0.0079791
5090.0 0.0082996
5110.0 0.0082794
5130.0 0.0081803
5150.0 0.0082054
5170.0 0.0080374
5190.0 0.008047
5210.0 0.0080432
5230.0 0.0077817
5250.0 0.0077958
5270.0 0.0079096
5290.0 0.0078129
5310.0 0.0075815
5330.0 0.0073639
5350.0 0.0071186
5370.0 0.0069904
5390.0 0.0068781
5410.0 0.0067376
5430.0 0.0067602
5450.0 0.0067526
5470.0 0.0068531
5490.0 0.0072119
5510.0 0.0074182
5530.0 0.0075206
5550.0 0.0076233
5570.0 0.007717
5590.0 0.0076639
5610.0 0.0076611
5630.0 0.0077474
5650.0 0.0077303
5670.0 0.0076357
5690.0 0.0075181
5710.0 0.0075403
5730.0 0.0077461
5750.0 0.0075325
5770.0 0.0072457
5790.0 0.0068484
5810.0 0.0061649
5830.0 0.0067079
5850.0 0.0074491
5870.0 0.0077085
5890.0 0.0079003
5910.0 0.0081826
5930.0 0.0083166
5950.0 0.0083805
5970.0 0.0084658
5990.0 0.0085583
6010.0 0.0084711
6030.0 0.0083822
6050.0 0.0084305
6070.0 0.0085328
6090.0 0.0086223
6110.0 0.0085414
6130.0 0.0084123
6150.0 0.008261
6170.0 0.0081037
6190.0 0.0078305
6210.0 0.0077227
6230.0 0.0077884
6250.0 0.0077704
6270.0 0.0077511
6290.0 0.0078615
6310.0 0.0079863
6330.0 0.0079501
6350.0 0.0078088
6370.0 0.0077908
6390.0 0.0077035
6410.0 0.007608
6430.0 0.0074753
6450.0 0.0074089
6470.0 0.0073418
6490.0 0.0073085
6510.0 0.0072053
6530.0 0.0070873
6550.0 0.0069761
6570.0 0.0068844
6590.0 0.0069279
6610.0 0.0069111
6630.0 0.0067047
6650.0 0.0065064
6670.0 0.0064292
6690.0 0.0063178
6710.0 0.0061477
6730.0 0.0060693
6750.0 0.0060941
6770.0 0.0063931
6790.0 0.0069778
6810.0 0.0066262
6830.0 0.0058525
6850.0 0.0055545
6870.0 0.0054211
6890.0 0.0053646
6910.0 0.0053165
6930.0 0.0052581
6950.0 0.005195
6970.0 0.0049967
6990.0 0.0048847
7010.0 0.0048836
7030.0 0.0048493
7050.0 0.0047071
7070.0 0.0045437
7090.0 0.0044593
7110.0 0.0044731
7130.0 0.0044239
7150.0 0.0043688
7170.0 0.0043106
7190.0 0.004265
7210.0 0.0042662
7230.0 0.004263
7250.0 0.004232
7270.0 0.0041931
7290.0 0.0041902
7310.0 0.0041535
7330.0 0.0040324
7350.0 0.0038627
7370.0 0.0037604
7390.0 0.0037093
7410.0 0.003601
7430.0 0.0035798
7450.0 0.0035272
7470.0 0.0035358
7490.0 0.003455
7510.0 0.0033277
7530.0 0.0033191
7550.0 0.0032703
7570.0 0.0031839
7590.0 0.0030093
7610.0 0.0029715
7630.0 0.0030519
7650.0 0.0030809
7670.0 0.0029885
7690.0 0.0030216
7710.0 0.0030868
7730.0 0.0031081
7750.0 0.0031706
7770.0 0.0030982
7790.0 0.0030035
7810.0 0.0030937
7830.0 0.003194
7850.0 0.0031765
7870.0 0.0032336
7890.0 0.0031879
7910.0 0.0031252
7930.0 0.0030749
7950.0 0.0031411
7970.0 0.0031284
7990.0 0.0029143
8010.0 0.0043177
8030.0 0.004225
8050.0 0.0041566
8070.0 0.0040295
8090.0 0.0036261
8110.0 0.0035823
8130.0 0.0039833
8150.0 0.0042091
8170.0 0.004322
8190.0 0.0044986
8210.0 0.0043421
8230.0 0.0043492
8250.0 0.0043322
8270.0 0.004306
8290.0 0.0042391
8310.0 0.0040333
8330.0 0.0039553
8350.0 0.0040713
8370.0 0.004118
8390.0 0.0040264
8410.0 0.0039788
8430.0 0.0038492
8450.0 0.0037798
8470.0 0.0040351
8490.0 0.0040602
8510.0 0.0038212
8530.0 0.0037657
8550.0 0.0037204
8570.0 0.0034966
8590.0 0.0035165
8610.0 0.0035542
8630.0 0.0036585
8650.0 0.0036645
8670.0 0.0036687
8690.0 0.0035987
8710.0 0.0034867
8730.0 0.003387
8750.0 0.0033236
8770.0 0.0033172
8790.0 0.0034129
8810.0 0.0032436
8830.0 0.0032141
8850.0 0.003353
8870.0 0.0031799
8890.0 0.002966
8910.0 0.0029128
8930.0 0.0029
8950.0 0.0027181
8970.0 0.0026069
8990.0 0.0025498
9010.0 0.0024097
9030.0 0.0023746
9050.0 0.0023625
9070.0 0.0023515
9090.0 0.0023404
9110.0 0.0023291
9130.0 0.0023177
9150.0 0.0023064
9170.0 0.002295
9190.0 0.0022835
9210.0 0.0022718
9230.0 0.0022601
9250.0 0.0022483
9270.0 0.0022365
9290.0 0.0022245
9310.0 0.0022136
9330.0 0.002204
9350.0 0.0021944
9370.0 0.0021847
9390.0 0.0021749
9410.0 0.0021651
9430.0 0.0021553
9450.0 0.0021453
9470.0 0.0021365
9490.0 0.002127
9510.0 0.0021164
9530.0 0.0021058
9550.0 0.0020955
9570.0 0.0020853
9590.0 0.0020751
9610.0 0.0020662
9630.0 0.0020576
9650.0 0.002049
9670.0 0.0020401
9690.0 0.0020314
9710.0 0.0020227
9730.0 0.0020138
9750.0 0.002005
9770.0 0.0019963
9790.0 0.0019874
9810.0 0.0019786
9830.0 0.0019698
9850.0 0.00196
9870.0 0.0019493
9890.0 0.0019417
9910.0 0.0019337
9930.0 0.0019241
9950.0 0.0019154
9970.0 0.0019073
9990.0 0.001899
10010.0 0.0018905
10030.0 0.001882
10050.0 0.0018734
10070.0 0.0018648
10090.0 0.0018563
10110.0 0.0018477
10130.0 0.0018392
10150.0 0.0018308
10170.0 0.0018224
10190.0 0.001814
10210.0 0.0018057
10230.0 0.0017974
10250.0 0.0017892
10270.0 0.001781
10290.0 0.0017729
10310.0 0.0017648
10330.0 0.0017568
10350.0 0.0017488
10370.0 0.0017409
10390.0 0.001733
10410.0 0.0017239
10430.0 0.0017145
10450.0 0.0017082
10470.0 0.0017012
10490.0 0.0016942
10510.0 0.0016871
10530.0 0.0016797
10550.0 0.0016724
10570.0 0.0016652
10590.0 0.001658
10610.0 0.0016508
10630.0 0.0016438
10650.0 0.0016368
10670.0 0.0016298
10690.0 0.0016229
10710.0 0.0016161
10730.0 0.0016094
10750.0 0.0016025
10770.0 0.001596
10790.0 0.0015895
10810.0 0.001583
10830.0 0.0015765
10850.0 0.0015703
10870.0 0.0015639
10890.0 0.0015575
10910.0 0.0015512
10930.0 0.0015449
10950.0 0.0015382
10970.0 0.0015314
10990.0 0.0015244
11010.0 0.0014764
11030.0 0.0014688
11050.0 0.001461
11070.0 0.0014527
11090.0 0.0014437
11110.0 0.0014347
11130.0 0.0014257
11150.0 0.0014161
11170.0 0.0014062
11190.0 0.0013966
11210.0 0.0013867
11230.0 0.0013763
11250.0 0.0013663
11270.0 0.0013565
11290.0 0.0013464
11310.0 0.0013365
11330.0 0.0013275
11350.0 0.0013186
11370.0 0.0013099
11390.0 0.0013019
11410.0 0.0012943
11430.0 0.0012868
11450.0 0.0012797
11470.0 0.001273
11490.0 0.0012664
11510.0 0.0012597
11530.0 0.0012534
11550.0 0.001247
11570.0 0.0012404
11590.0 0.0012336
11610.0 0.001227
11630.0 0.0012199
11650.0 0.0012124
11670.0 0.001205
11690.0 0.0011975
11710.0 0.0011895
11730.0 0.0011814
11750.0 0.0011735
11770.0 0.0011652
11790.0 0.0011568
11810.0 0.0011485
11830.0 0.0011404
11850.0 0.0011319
11870.0 0.0011237
11890.0 0.001116
11910.0 0.0011083
11930.0 0.0011008
11950.0 0.0010938
11970.0 0.0010872
11990.0 0.0010806
12010.0 0.0010746
12030.0 0.0010691
12050.0 0.0010639
12070.0 0.001059
12090.0 0.0010548
12110.0 0.0010509
12130.0 0.0010472
12150.0 0.0010439
12170.0 0.0010409
12190.0 0.001038
12210.0 0.0010352
12230.0 0.0010326
12250.0 0.0010299
12270.0 0.0010271
12290.0 0.0010241
12310.0 0.0010209
12330.0 0.0010173
12350.0 0.0010133
12370.0 0.001009
12390.0 0.0010042
12410.0 0.00099864
12430.0 0.00099286
12450.0 0.00098668
12470.0 0.00097985
12490.0 0.00097258
12510.0 0.00096525
12530.0 0.00095737
12550.0 0.00094898
12570.0 0.0009406
12590.0 0.00093213
12610.0 0.00092315
12630.0 0.00091409
12650.0 0.00090546
12670.0 0.00089661
12690.0 0.00088766
12710.0 0.00087913
12730.0 0.00087086
12750.0 0.00086236
12770.0 0.00085433
12790.0 0.00084683
12810.0 0.00083949
12830.0 0.00083235
12850.0 0.00082593
12870.0 0.00081993
12890.0 0.00081414
12910.0 0.0008089
12930.0 0.00080427
12950.0 0.00079995
12970.0 0.00079608
12990.0 0.0007929
13010.0 0.0007902
13030.0 0.00078792
13050.0 0.00078617
13070.0 0.00078489
13090.0 0.00078394
13110.0 0.00078331
13130.0 0.00078293
13150.0 0.00078269
13170.0 0.00078248
13190.0 0.00078223
13210.0 0.00078183
13230.0 0.00078119
13250.0 0.00078022
13270.0 0.00077893
13290.0 0.00077723
13310.0 0.00077499
13330.0 0.00077235
13350.0 0.00076932
13370.0 0.00076573
13390.0 0.0007616
13410.0 0.0007573
13430.0 0.00075254
13450.0 0.00074726
13470.0 0.00074175
13490.0 0.0007361
13510.0 0.00072978
13530.0 0.00072328
13550.0 0.00071679
13570.0 0.00071003
13590.0 0.00070289
13610.0 0.00069584
13630.0 0.00068887
13650.0 0.00068151
13670.0 0.00067413
13690.0 0.00066698
13710.0 0.0006597
13730.0 0.00065208
13750.0 0.00064495
13770.0 0.00063794
13790.0 0.0006308
13810.0 0.00062383
13830.0 0.00061731
13850.0 0.00061074
13870.0 0.00060422
13890.0 0.00059812
13910.0 0.00059227
13930.0 0.0005864
13950.0 0.00058077
13970.0 0.00057565
13990.0 0.00057056
14010.0 0.0005656
14030.0 0.00056102
14050.0 0.00055667
14070.0 0.00055229
14090.0 0.00054823
14110.0 0.0005445
14130.0 0.00054086
14150.0 0.00053733
14170.0 0.00053414
14190.0 0.00053111
14210.0 0.00052812
14230.0 0.0005253
14250.0 0.00052269
14270.0 0.00052005
14290.0 0.00051746
14310.0 0.00051507
14330.0 0.00051273
14350.0 0.00051036
14370.0 0.00050809
14390.0 0.00050595
14410.0 0.00050375
14430.0 0.00050157
14450.0 0.00049952
14470.0 0.00049748
14490.0 0.00049536
14510.0 0.00049335
14530.0 0.00049141
14550.0 0.0004894
14570.0 0.00048737
14590.0 0.00048543
14610.0 0.00048343
14630.0 0.00048134
14650.0 0.00047929
14670.0 0.00047726
14690.0 0.00047512
14710.0 0.00047293
14730.0 0.00047083
14750.0 0.00046866
14770.0 0.00046638
14790.0 0.00046412
14810.0 0.00046187
14830.0 0.00045942
14850.0 0.00045696
14870.0 0.00045456
14890.0 0.0004521
14910.0 0.00044956
14930.0 0.00044716
14950.0 0.0004449
14970.0 0.00044268
14990.0 0.00044066
15010.0 0.00043892
15030.0 0.00043735
15050.0 0.00043591
15070.0 0.00043472
15090.0 0.00043365
15110.0 0.00043261
15130.0 0.00043163
15150.0 0.00043073
15170.0 0.00042979
15190.0 0.00042884
15210.0 0.00042793
15230.0 0.00042702
15250.0 0.00042607
15270.0 0.00042512
15290.0 0.00042423
15310.0 0.00042329
15330.0 0.00042234
15350.0 0.00042142
15370.0 0.00042051
15390.0 0.00041953
15410.0 0.00041858
15430.0 0.00041766
15450.0 0.00041671
15470.0 0.00041573
15490.0 0.00041481
15510.0 0.00041387
15530.0 0.0004129
15550.0 0.00041194
15570.0 0.00041101
15590.0 0.00041003
15610.0 0.00040903
15630.0 0.00040809
15650.0 0.00040713
15670.0 0.00040613
15690.0 0.00040516
15710.0 0.00040422
15730.0 0.00040323
15750.0 0.00040223
15770.0 0.00040126
15790.0 0.00040029
15810.0 0.00039926
15830.0 0.00039827
15850.0 0.0003973
15870.0 0.0003963
15890.0 0.00039529
15910.0 0.00039431
15930.0 0.00039332
15950.0 0.00039228
15970.0 0.00039128
15990.0 0.00039028
16010.0 0.00038926
16030.0 0.00038821
16050.0 0.00038723
16070.0 0.00038622
16090.0 0.00038517
16110.0 0.00038416
16130.0 0.00038316
16150.0 0.0003821
16170.0 0.00038105
16190.0 0.00038004
16210.0 0.00037901
16230.0 0.00037795
16250.0 0.00037692
16270.0 0.0003759
16290.0 0.00037484
16310.0 0.00037379
16330.0 0.00037276
16350.0 0.00037171
16370.0 0.00037061
16390.0 0.00036958
16410.0 0.00036854
16430.0 0.00036747
16450.0 0.0003664
16470.0 0.00036538
16490.0 0.0003643
16510.0 0.00036321
16530.0 0.00036216
16550.0 0.00036111
16570.0 0.00036001
16590.0 0.00035892
16610.0 0.00035788
16630.0 0.00035681
16650.0 0.00035571
16670.0 0.00035466
16690.0 0.0003536
16710.0 0.00035248
16730.0 0.00035139
16750.0 0.00035033
16770.0 0.00034924
16790.0 0.00034813
16810.0 0.00034707
16830.0 0.00034599
16850.0 0.00034488
16870.0 0.0003438
16890.0 0.00034273
16910.0 0.00034162
16930.0 0.0003405
16950.0 0.00033943
16970.0 0.00033834
16990.0 0.00033722
17010.0 0.00033613
17030.0 0.00033506
17050.0 0.00033395
17070.0 0.00033283
17090.0 0.00033175
17110.0 0.00033066
17130.0 0.00032952
17150.0 0.00032842
17170.0 0.00032734
17190.0 0.00032623
17210.0 0.00032511
17230.0 0.00032404
17250.0 0.00032293
17270.0 0.0003218
17290.0 0.0003207
17310.0 0.00031961
17330.0 0.00031849
17350.0 0.00031735
17370.0 0.00031628
17390.0 0.00031518
17410.0 0.00031405
17430.0 0.00031295
17450.0 0.00031187
17470.0 0.00031073
17490.0 0.0003096
17510.0 0.00030852
17530.0 0.00030741
17550.0 0.00030628
17570.0 0.00030518
17590.0 0.0003041
17610.0 0.00030297
17630.0 0.00030185
17650.0 0.00030077
17670.0 0.00029966
17690.0 0.0002985
17710.0 0.00029741
17730.0 0.00029632
17750.0 0.00029519
17770.0 0.00029408
17790.0 0.00029301
17810.0 0.00029189
17830.0 0.00029076
17850.0 0.00028966
17870.0 0.00028857
17890.0 0.00028743
17910.0 0.00028631
17930.0 0.00028524
17950.0 0.00028413
17970.0 0.00028301
17990.0 0.00028192
18010.0 0.00028083
18030.0 0.00027969
18050.0 0.00027858
18070.0 0.0002775
18090.0 0.00027639
18110.0 0.00027526
18130.0 0.00027418
18150.0 0.00027309
18170.0 0.00027197
18190.0 0.00027087
18210.0 0.00026979
18230.0 0.00026867
18250.0 0.00026754
18270.0 0.00026647
18290.0 0.00026537
18310.0 0.00026425
18330.0 0.00026316
18350.0 0.0002621
18370.0 0.00026098
18390.0 0.00025987
18410.0 0.00025879
18430.0 0.0002577
18450.0 0.00025657
18470.0 0.00025548
18490.0 0.00025441
18510.0 0.00025331
18530.0 0.0002522
18550.0 0.00025114
18570.0 0.00025005
18590.0 0.00024893
18610.0 0.00024784
18630.0 0.00024677
18650.0 0.00024566
18670.0 0.00024456
18690.0 0.0002435
18710.0 0.00024242
18730.0 0.00024131
18750.0 0.00024024
18770.0 0.00023918
18790.0 0.00023806
18810.0 0.00023696
18830.0 0.0002359
18850.0 0.00023482
18870.0 0.00023371
18890.0 0.00023265
18910.0 0.00023159
18930.0 0.00023049
18950.0 0.00022941
18970.0 0.00022835
18990.0 0.00022727
19010.0 0.00022615
19030.0 0.0002251
19050.0 0.00022404
19070.0 0.00022294
19090.0 0.00022187
19110.0 0.00022083
19130.0 0.00021974
19150.0 0.00021864
19170.0 0.00021759
19190.0 0.00021653
19210.0 0.00021543
19230.0 0.00021435
19250.0 0.00021331
19270.0 0.00021224
19290.0 0.00021115
19310.0 0.00021011
19330.0 0.00020906
19350.0 0.00020795
19370.0 0.00020689
19390.0 0.00020584
19410.0 0.00020477
19430.0 0.00020368
19450.0 0.00020265
19470.0 0.0002016
19490.0 0.00020051
19510.0 0.00019945
19530.0 0.00019842
19550.0 0.00019734
19570.0 0.00019625
19590.0 0.00019522
19610.0 0.00019416
19630.0 0.00019309
19650.0 0.00019204
19670.0 0.00019101
19690.0 0.00018993
19710.0 0.00018886
19730.0 0.00018783
19750.0 0.00018677
19770.0 0.00018568
19790.0 0.00018464
19810.0 0.00018361
19830.0 0.00018255
19850.0 0.00018149
19870.0 0.00018048
19890.0 0.00017944
19910.0 0.0001784
19930.0 0.00017743
19950.0 0.00017651
19970.0 0.00017564
19990.0 0.00017486
20010.0 0.00017421
20030.0 0.00017364
20050.0 0.00017316
20070.0 0.00017278
20090.0 0.00017248
20110.0 0.0001722
20130.0 0.00017197
20150.0 0.00017177
20170.0 0.00017156
20190.0 0.00017136
20210.0 0.00017116
20230.0 0.00017095
20250.0 0.00017073
20270.0 0.0001705
20290.0 0.00017027
20310.0 0.00017001
20330.0 0.00016974
20350.0 0.00016946
20370.0 0.00016918
20390.0 0.00016887
20410.0 0.00016855
20430.0 0.00016823
20450.0 0.00016789
20470.0 0.00016754
20490.0 0.00016719
20510.0 0.00016685
20530.0 0.00016649
20550.0 0.00016614
20570.0 0.00016581
20590.0 0.00016547
20610.0 0.00016515
20630.0 0.00016484
20650.0 0.00016453
20670.0 0.00016421
20690.0 0.00016391
20710.0 0.00016361
20730.0 0.00016329
20750.0 0.00016297
20770.0 0.00016264
20790.0 0.00016229
20810.0 0.00016191
20830.0 0.00016151
20850.0 0.00016109
20870.0 0.00016062
20890.0 0.00016012
20910.0 0.00015961
20930.0 0.00015907
20950.0 0.00015849
20970.0 0.0001579
20990.0 0.0001573
21010.0 0.00015666
21030.0 0.00015602
21050.0 0.00015539
21070.0 0.00015475
21090.0 0.00015409
21110.0 0.00015346
21130.0 0.00015284
21150.0 0.0001522
21170.0 0.00015158
21190.0 0.00015098
21210.0 0.00015037
21230.0 0.00014974
21250.0 0.00014913
21270.0 0.00014852
21290.0 0.00014789
21310.0 0.00014725
21330.0 0.00014662
21350.0 0.00014596
21370.0 0.00014527
21390.0 0.00014459
21410.0 0.0001439
21430.0 0.00014314
21450.0 0.0001424
21470.0 0.00014165
21490.0 0.00014087
21510.0 0.00014007
21530.0 0.00013928
21550.0 0.00013848
21570.0 0.00013763
21590.0 0.0001368
21610.0 0.00013597
21630.0 0.00013512
21650.0 0.00013424
21670.0 0.00013342
21690.0 0.00013258
21710.0 0.00013172
21730.0 0.00013088
21750.0 0.00013006
21770.0 0.0001292
21790.0 0.00012834
21810.0 0.00012751
21830.0 0.00012668
21850.0 0.00012582
21870.0 0.00012497
21890.0 0.00012416
21910.0 0.00012331
21930.0 0.00012246
21950.0 0.00012164
21970.0 0.00012082
21990.0 0.00011997
22010.0 0.00011917
22030.0 0.00011839
22050.0 0.0001176
22070.0 0.00011682
22090.0 0.00011606
22110.0 0.0001153
22130.0 0.00011455
22150.0 0.00011385
22170.0 0.00011319
22190.0 0.00011252
22210.0 0.00011189
22230.0 0.00011131
22250.0 0.00011073
22270.0 0.00011017
22290.0 0.00010964
22310.0 0.00010913
22330.0 0.00010861
22350.0 0.00010811
22370.0 0.00010762
22390.0 0.00010713
22410.0 0.00010662
22430.0 0.00010614
22450.0 0.00010565
22470.0 0.00010514
22490.0 0.00010464
22510.0 0.00010414
22530.0 0.00010362
22550.0 0.00010309
22570.0 0.00010257
22590.0 0.00010205
22610.0 0.00010151
22630.0 0.00010098
22650.0 0.00010047
22670.0 9.9951e-05
22690.0 9.9433e-05
22710.0 9.8934e-05
22730.0 9.8445e-05
22750.0 9.795e-05
22770.0 9.7481e-05
22790.0 9.7031e-05
22810.0 9.6588e-05
22830.0 9.6158e-05
22850.0 9.5751e-05
22870.0 9.5354e-05
22890.0 9.4963e-05
22910.0 9.4589e-05
22930.0 9.4228e-05
22950.0 9.387e-05
22970.0 9.3518e-05
22990.0 9.3178e-05
23010.0 9.2839e-05
23030.0 9.2502e-05
23050.0 9.2169e-05
23070.0 9.184e-05
23090.0 9.1511e-05
23110.0 9.1388e-05
23130.0 9.1292e-05
23150.0 9.1206e-05
23170.0 9.1134e-05
23190.0 9.1078e-05
23210.0 9.1038e-05
23230.0 9.1017e-05
23250.0 9.1015e-05
23270.0 9.1028e-05
23290.0 9.106e-05
23310.0 9.1115e-05
