#lamb flux
1010.0 8.0253e-11
1030.0 1.0094e-10
1050.0 1.2474e-10
1070.0 1.5153e-10
1090.0 1.8196e-10
1110.0 2.1318e-10
1130.0 2.446e-10
1150.0 2.7752e-10
1170.0 3.1148e-10
1190.0 3.4369e-10
1210.0 3.7634e-10
1230.0 4.1008e-10
1250.0 4.4314e-10
1270.0 4.7524e-10
1290.0 5.0917e-10
1310.0 5.4306e-10
1330.0 5.7557e-10
1350.0 6.0843e-10
1370.0 6.4235e-10
1390.0 6.7542e-10
1410.0 7.0749e-10
1430.0 7.4101e-10
1450.0 7.7453e-10
1470.0 8.0691e-10
1490.0 8.3963e-10
1510.0 8.742e-10
1530.0 9.0695e-10
1550.0 9.3926e-10
1570.0 9.727e-10
1590.0 1.0062e-09
1610.0 1.0382e-09
1630.0 1.0712e-09
1650.0 1.1051e-09
1670.0 1.1379e-09
1690.0 1.1703e-09
1710.0 1.204e-09
1730.0 1.238e-09
1750.0 1.2699e-09
1770.0 1.3029e-09
1790.0 1.3365e-09
1810.0 1.3692e-09
1830.0 1.4014e-09
1850.0 1.4356e-09
1870.0 1.469e-09
1890.0 1.5014e-09
1910.0 1.5345e-09
1930.0 1.5686e-09
1950.0 1.6012e-09
1970.0 1.6335e-09
1990.0 1.6672e-09
2010.0 1.7005e-09
2030.0 1.7327e-09
2050.0 1.7661e-09
2070.0 1.8004e-09
2090.0 1.833e-09
2110.0 1.8657e-09
2130.0 1.8995e-09
2150.0 1.9329e-09
2170.0 1.9651e-09
2190.0 1.9987e-09
2210.0 2.0327e-09
2230.0 2.0656e-09
2250.0 2.0986e-09
2270.0 2.1334e-09
2290.0 2.1673e-09
2310.0 2.2002e-09
2330.0 2.2344e-09
2350.0 2.269e-09
2370.0 2.3025e-09
2390.0 2.3365e-09
2410.0 2.3722e-09
2430.0 2.4075e-09
2450.0 2.4434e-09
2470.0 2.4832e-09
2490.0 2.5296e-09
2510.0 2.583e-09
2530.0 2.6523e-09
2550.0 2.7482e-09
2570.0 2.8771e-09
2590.0 3.0477e-09
2610.0 3.2915e-09
2630.0 3.6148e-09
2650.0 4.0102e-09
2670.0 4.4984e-09
2690.0 5.0897e-09
2710.0 5.7376e-09
2730.0 6.4192e-09
2750.0 7.1568e-09
2770.0 7.8889e-09
2790.0 8.5698e-09
2810.0 9.2095e-09
2830.0 9.8083e-09
2850.0 1.0312e-08
2870.0 1.0757e-08
2890.0 1.1172e-08
2910.0 1.1559e-08
2930.0 1.1927e-08
2950.0 1.2305e-08
2970.0 1.2697e-08
2990.0 1.3098e-08
3010.0 1.3516e-08
3030.0 1.3962e-08
3050.0 1.4429e-08
3070.0 1.4904e-08
3090.0 1.5408e-08
3110.0 1.5944e-08
3130.0 1.6519e-08
3150.0 1.7172e-08
3170.0 1.8006e-08
3190.0 1.9092e-08
3210.0 2.0513e-08
3230.0 2.2404e-08
3250.0 2.4807e-08
3270.0 2.7094e-08
3290.0 3.0722e-08
3310.0 3.8154e-08
3330.0 4.0623e-08
3350.0 4.1837e-08
3370.0 4.3005e-08
3390.0 4.4192e-08
3410.0 4.5392e-08
3430.0 4.6601e-08
3450.0 4.781e-08
3470.0 4.8998e-08
3490.0 5.0143e-08
3510.0 5.1181e-08
3530.0 5.0724e-08
3550.0 4.9323e-08
3570.0 5.0048e-08
3590.0 5.3208e-08
3610.0 5.799e-08
3630.0 5.9894e-08
3650.0 5.7529e-08
3670.0 5.2837e-08
3690.0 5.0108e-08
3710.0 5.0739e-08
3730.0 5.2409e-08
3750.0 5.3307e-08
3770.0 5.5102e-08
3790.0 5.7108e-08
3810.0 5.6299e-08
3830.0 5.2468e-08
3850.0 4.904e-08
3870.0 4.7412e-08
3890.0 4.6871e-08
3910.0 4.5821e-08
3930.0 4.5291e-08
3950.0 4.6568e-08
3970.0 4.8061e-08
3990.0 4.8496e-08
4010.0 4.6715e-08
4030.0 4.4173e-08
4050.0 4.2539e-08
4070.0 4.1156e-08
4090.0 4.0036e-08
4110.0 3.8574e-08
4130.0 3.6267e-08
4150.0 3.3947e-08
4170.0 3.2571e-08
4190.0 3.0372e-08
4210.0 2.7495e-08
4230.0 2.4583e-08
4250.0 2.1819e-08
4270.0 1.9755e-08
4290.0 1.8229e-08
4310.0 1.7421e-08
4330.0 1.7392e-08
4350.0 1.7478e-08
4370.0 1.7645e-08
4390.0 1.8298e-08
4410.0 1.8748e-08
4430.0 1.8099e-08
4450.0 1.6433e-08
4470.0 1.4977e-08
4490.0 1.4185e-08
4510.0 1.3676e-08
4530.0 1.3422e-08
4550.0 1.3204e-08
4570.0 1.3148e-08
4590.0 1.3329e-08
4610.0 1.3738e-08
4630.0 1.3981e-08
4650.0 1.4102e-08
4670.0 1.3759e-08
4690.0 1.294e-08
4710.0 1.2125e-08
4730.0 1.1596e-08
4750.0 1.1272e-08
4770.0 1.1312e-08
4790.0 1.1268e-08
4810.0 1.1027e-08
4830.0 1.1049e-08
4850.0 1.1393e-08
4870.0 1.1507e-08
4890.0 1.13e-08
4910.0 1.1038e-08
4930.0 1.0409e-08
4950.0 9.5025e-09
4970.0 8.8816e-09
4990.0 8.3721e-09
5010.0 8.263e-09
5030.0 8.5413e-09
5050.0 8.7603e-09
5070.0 9.0877e-09
5090.0 9.637e-09
5110.0 9.7838e-09
5130.0 9.8691e-09
5150.0 1.0051e-08
5170.0 1.0136e-08
5190.0 1.0402e-08
5210.0 1.0456e-08
5230.0 1.0348e-08
5250.0 1.0431e-08
5270.0 1.0577e-08
5290.0 1.0605e-08
5310.0 1.0526e-08
5330.0 1.0326e-08
5350.0 1.0186e-08
5370.0 1.0077e-08
5390.0 9.9436e-09
5410.0 9.8332e-09
5430.0 9.8297e-09
5450.0 9.9739e-09
5470.0 1.0159e-08
5490.0 1.0448e-08
5510.0 1.0764e-08
5530.0 1.0897e-08
5550.0 1.1059e-08
5570.0 1.1083e-08
5590.0 1.0853e-08
5610.0 1.0775e-08
5630.0 1.0856e-08
5650.0 1.0724e-08
5670.0 1.0487e-08
5690.0 1.0173e-08
5710.0 1.0146e-08
5730.0 1.0253e-08
5750.0 9.8163e-09
5770.0 9.3127e-09
5790.0 8.5616e-09
5810.0 7.4895e-09
5830.0 8.0734e-09
5850.0 8.9374e-09
5870.0 9.131e-09
5890.0 9.18e-09
5910.0 9.2551e-09
5930.0 9.2355e-09
5950.0 9.0828e-09
5970.0 8.9743e-09
5990.0 8.845e-09
6010.0 8.5756e-09
6030.0 8.2818e-09
6050.0 8.1524e-09
6070.0 8.1156e-09
6090.0 7.9925e-09
6110.0 7.7262e-09
6130.0 7.4632e-09
6150.0 7.1638e-09
6170.0 6.8644e-09
6190.0 6.5566e-09
6210.0 6.3252e-09
6230.0 6.2335e-09
6250.0 6.1014e-09
6270.0 5.9738e-09
6290.0 5.9275e-09
6310.0 5.8893e-09
6330.0 5.7599e-09
6350.0 5.5726e-09
6370.0 5.4661e-09
6390.0 5.3583e-09
6410.0 5.209e-09
6430.0 5.0677e-09
6450.0 4.9562e-09
6470.0 4.8502e-09
6490.0 4.7764e-09
6510.0 4.6937e-09
6530.0 4.5745e-09
6550.0 4.4732e-09
6570.0 4.4041e-09
6590.0 4.397e-09
6610.0 4.3694e-09
6630.0 4.2232e-09
6650.0 4.1038e-09
6670.0 4.0612e-09
6690.0 3.9973e-09
6710.0 3.9013e-09
6730.0 3.8668e-09
6750.0 3.8968e-09
6770.0 4.1284e-09
6790.0 4.6136e-09
6810.0 4.3811e-09
6830.0 3.8485e-09
6850.0 3.6964e-09
6870.0 3.6398e-09
6890.0 3.6402e-09
6910.0 3.648e-09
6930.0 3.6563e-09
6950.0 3.6451e-09
6970.0 3.5525e-09
6990.0 3.5205e-09
7010.0 3.5729e-09
7030.0 3.5897e-09
7050.0 3.5376e-09
7070.0 3.5017e-09
7090.0 3.5243e-09
7110.0 3.6064e-09
7130.0 3.6182e-09
7150.0 3.6316e-09
7170.0 3.651e-09
7190.0 3.7015e-09
7210.0 3.7416e-09
7230.0 3.7819e-09
7250.0 3.8323e-09
7270.0 3.8683e-09
7290.0 3.9293e-09
7310.0 4.0017e-09
7330.0 3.9707e-09
7350.0 3.8874e-09
7370.0 3.8345e-09
7390.0 3.8253e-09
7410.0 3.8411e-09
7430.0 3.8889e-09
7450.0 3.9131e-09
7470.0 3.9686e-09
7490.0 3.9459e-09
7510.0 3.9029e-09
7530.0 3.9488e-09
7550.0 4.071e-09
7570.0 4.0608e-09
7590.0 3.8511e-09
7610.0 3.8192e-09
7630.0 4.0355e-09
7650.0 4.1164e-09
7670.0 4.144e-09
7690.0 4.3285e-09
7710.0 4.4684e-09
7730.0 4.5114e-09
7750.0 4.7466e-09
7770.0 4.6252e-09
7790.0 4.5155e-09
7810.0 4.7837e-09
7830.0 4.9671e-09
7850.0 5.0914e-09
7870.0 5.1917e-09
7890.0 5.2316e-09
7910.0 5.1931e-09
7930.0 5.2289e-09
7950.0 5.4649e-09
7970.0 5.4637e-09
7990.0 5.0891e-09
8010.0 4.8814e-09
8030.0 4.9792e-09
8050.0 5.0859e-09
8070.0 4.6007e-09
8090.0 3.0093e-09
8110.0 3.1425e-09
8130.0 4.4881e-09
8150.0 4.8335e-09
8170.0 5.0255e-09
8190.0 5.1345e-09
8210.0 5.0699e-09
8230.0 5.4966e-09
8250.0 5.6167e-09
8270.0 5.3112e-09
8290.0 5.1013e-09
8310.0 5.027e-09
8330.0 5.3017e-09
8350.0 5.5525e-09
8370.0 5.4476e-09
8390.0 5.1949e-09
8410.0 5.19e-09
8430.0 4.8626e-09
8450.0 4.9695e-09
8470.0 5.4303e-09
8490.0 5.4468e-09
8510.0 5.0507e-09
8530.0 4.7333e-09
8550.0 4.5371e-09
8570.0 4.2762e-09
8590.0 4.3984e-09
8610.0 4.6673e-09
8630.0 4.7923e-09
8650.0 4.8753e-09
8670.0 4.7413e-09
8690.0 4.6309e-09
8710.0 4.3069e-09
8730.0 4.1524e-09
8750.0 4.3222e-09
8770.0 4.39e-09
8790.0 4.3761e-09
8810.0 4.3554e-09
8830.0 4.4484e-09
8850.0 4.671e-09
8870.0 4.3617e-09
8890.0 4.114e-09
8910.0 4.0533e-09
8930.0 3.8097e-09
8950.0 3.6704e-09
8970.0 3.6689e-09
8990.0 3.512e-09
9010.0 3.297e-09
9030.0 3.2222e-09
9050.0 3.1953e-09
9070.0 3.1714e-09
9090.0 3.1473e-09
9110.0 3.1231e-09
9130.0 3.0988e-09
9150.0 3.0743e-09
9170.0 3.0498e-09
9190.0 3.0253e-09
9210.0 3.0007e-09
9230.0 2.976e-09
9250.0 2.9514e-09
9270.0 2.9268e-09
9290.0 2.9023e-09
9310.0 2.8778e-09
9330.0 2.8534e-09
9350.0 2.829e-09
9370.0 2.8048e-09
9390.0 2.7807e-09
9410.0 2.7567e-09
9430.0 2.7328e-09
9450.0 2.7091e-09
9470.0 2.6855e-09
9490.0 2.6621e-09
9510.0 2.6389e-09
9530.0 2.6159e-09
9550.0 2.593e-09
9570.0 2.5703e-09
9590.0 2.5479e-09
9610.0 2.5256e-09
9630.0 2.5036e-09
9650.0 2.4817e-09
9670.0 2.4601e-09
9690.0 2.4387e-09
9710.0 2.4176e-09
9730.0 2.3966e-09
9750.0 2.3759e-09
9770.0 2.3554e-09
9790.0 2.3352e-09
9810.0 2.3152e-09
9830.0 2.2954e-09
9850.0 2.2759e-09
9870.0 2.2566e-09
9890.0 2.2375e-09
9910.0 2.2186e-09
9930.0 2.2e-09
9950.0 2.1816e-09
9970.0 2.1635e-09
9990.0 2.1456e-09
10010.0 2.1279e-09
10030.0 2.1104e-09
10050.0 2.0932e-09
10070.0 2.0762e-09
10090.0 2.0594e-09
10110.0 2.0428e-09
10130.0 2.0264e-09
10150.0 2.0103e-09
10170.0 1.9943e-09
10190.0 1.9786e-09
10210.0 1.9631e-09
10230.0 1.9478e-09
10250.0 1.9326e-09
10270.0 1.9177e-09
10290.0 1.903e-09
10310.0 1.8884e-09
10330.0 1.8741e-09
10350.0 1.8599e-09
10370.0 1.8459e-09
10390.0 1.8319e-09
10410.0 1.8154e-09
10430.0 1.7982e-09
10450.0 1.7881e-09
10470.0 1.7764e-09
10490.0 1.7645e-09
10510.0 1.7524e-09
10530.0 1.7398e-09
10550.0 1.7274e-09
10570.0 1.7154e-09
10590.0 1.7032e-09
10610.0 1.691e-09
10630.0 1.6793e-09
10650.0 1.6676e-09
10670.0 1.6558e-09
10690.0 1.6443e-09
10710.0 1.6331e-09
10730.0 1.6218e-09
10750.0 1.6104e-09
10770.0 1.5996e-09
10790.0 1.5889e-09
10810.0 1.578e-09
10830.0 1.5673e-09
10850.0 1.5571e-09
10870.0 1.5464e-09
10890.0 1.5359e-09
10910.0 1.5258e-09
10930.0 1.5156e-09
10950.0 1.5051e-09
10970.0 1.4948e-09
10990.0 1.4846e-09
11010.0 1.4745e-09
11030.0 1.4637e-09
11050.0 1.4531e-09
11070.0 1.4423e-09
11090.0 1.4308e-09
11110.0 1.4196e-09
11130.0 1.4085e-09
11150.0 1.3969e-09
11170.0 1.3852e-09
11190.0 1.3739e-09
11210.0 1.3623e-09
11230.0 1.3504e-09
11250.0 1.3389e-09
11270.0 1.3277e-09
11290.0 1.3164e-09
11310.0 1.3053e-09
11330.0 1.2952e-09
11350.0 1.2852e-09
11370.0 1.2755e-09
11390.0 1.2665e-09
11410.0 1.2581e-09
11430.0 1.2497e-09
11450.0 1.2418e-09
11470.0 1.2343e-09
11490.0 1.227e-09
11510.0 1.2196e-09
11530.0 1.2126e-09
11550.0 1.2057e-09
11570.0 1.1984e-09
11590.0 1.1912e-09
11610.0 1.184e-09
11630.0 1.1765e-09
11650.0 1.1687e-09
11670.0 1.161e-09
11690.0 1.1531e-09
11710.0 1.1449e-09
11730.0 1.1366e-09
11750.0 1.1285e-09
11770.0 1.1201e-09
11790.0 1.1116e-09
11810.0 1.1033e-09
11830.0 1.0952e-09
11850.0 1.0867e-09
11870.0 1.0786e-09
11890.0 1.071e-09
11910.0 1.0634e-09
11930.0 1.056e-09
11950.0 1.0492e-09
11970.0 1.0426e-09
11990.0 1.0362e-09
12010.0 1.0303e-09
12030.0 1.0249e-09
12050.0 1.0198e-09
12070.0 1.015e-09
12090.0 1.0108e-09
12110.0 1.0069e-09
12130.0 1.0032e-09
12150.0 9.999e-10
12170.0 9.9691e-10
12190.0 9.9395e-10
12210.0 9.9114e-10
12230.0 9.8847e-10
12250.0 9.8574e-10
12270.0 9.8281e-10
12290.0 9.7977e-10
12310.0 9.7658e-10
12330.0 9.7293e-10
12350.0 9.6891e-10
12370.0 9.6462e-10
12390.0 9.5984e-10
12410.0 9.5433e-10
12430.0 9.4864e-10
12450.0 9.4258e-10
12470.0 9.3591e-10
12490.0 9.2883e-10
12510.0 9.2171e-10
12530.0 9.1408e-10
12550.0 9.0599e-10
12570.0 8.9793e-10
12590.0 8.898e-10
12610.0 8.8121e-10
12630.0 8.7256e-10
12650.0 8.6436e-10
12670.0 8.5596e-10
12690.0 8.475e-10
12710.0 8.3945e-10
12730.0 8.3167e-10
12750.0 8.237e-10
12770.0 8.1619e-10
12790.0 8.092e-10
12810.0 8.0239e-10
12830.0 7.9578e-10
12850.0 7.8986e-10
12870.0 7.8435e-10
12890.0 7.7906e-10
12910.0 7.7428e-10
12930.0 7.7009e-10
12950.0 7.662e-10
12970.0 7.6274e-10
12990.0 7.5992e-10
13010.0 7.5754e-10
13030.0 7.5556e-10
13050.0 7.5406e-10
13070.0 7.5299e-10
13090.0 7.5222e-10
13110.0 7.5173e-10
13130.0 7.5145e-10
13150.0 7.5127e-10
13170.0 7.511e-10
13190.0 7.5086e-10
13210.0 7.5045e-10
13230.0 7.4977e-10
13250.0 7.4875e-10
13270.0 7.474e-10
13290.0 7.4562e-10
13310.0 7.4331e-10
13330.0 7.4058e-10
13350.0 7.3747e-10
13370.0 7.3381e-10
13390.0 7.2961e-10
13410.0 7.2526e-10
13430.0 7.2046e-10
13450.0 7.1516e-10
13470.0 7.0965e-10
13490.0 7.0401e-10
13510.0 6.9774e-10
13530.0 6.9128e-10
13550.0 6.8487e-10
13570.0 6.7819e-10
13590.0 6.7116e-10
13610.0 6.6422e-10
13630.0 6.5736e-10
13650.0 6.5013e-10
13670.0 6.4289e-10
13690.0 6.3587e-10
13710.0 6.2875e-10
13730.0 6.213e-10
13750.0 6.1434e-10
13770.0 6.0751e-10
13790.0 6.0057e-10
13810.0 5.9381e-10
13830.0 5.875e-10
13850.0 5.8115e-10
13870.0 5.7487e-10
13890.0 5.6901e-10
13910.0 5.634e-10
13930.0 5.5777e-10
13950.0 5.524e-10
13970.0 5.475e-10
13990.0 5.4264e-10
14010.0 5.3791e-10
14030.0 5.3353e-10
14050.0 5.2937e-10
14070.0 5.2518e-10
14090.0 5.2129e-10
14110.0 5.177e-10
14130.0 5.142e-10
14150.0 5.108e-10
14170.0 5.0771e-10
14190.0 5.0478e-10
14210.0 5.0187e-10
14230.0 4.9913e-10
14250.0 4.9658e-10
14270.0 4.9401e-10
14290.0 4.9147e-10
14310.0 4.8913e-10
14330.0 4.8682e-10
14350.0 4.8449e-10
14370.0 4.8225e-10
14390.0 4.8011e-10
14410.0 4.7793e-10
14430.0 4.7576e-10
14450.0 4.737e-10
14470.0 4.7165e-10
14490.0 4.6952e-10
14510.0 4.6748e-10
14530.0 4.6551e-10
14550.0 4.6347e-10
14570.0 4.6141e-10
14590.0 4.5943e-10
14610.0 4.574e-10
14630.0 4.5527e-10
14650.0 4.5319e-10
14670.0 4.5112e-10
14690.0 4.4896e-10
14710.0 4.4674e-10
14730.0 4.4462e-10
14750.0 4.4242e-10
14770.0 4.4012e-10
14790.0 4.3785e-10
14810.0 4.3559e-10
14830.0 4.3315e-10
14850.0 4.3069e-10
14870.0 4.283e-10
14890.0 4.2585e-10
14910.0 4.2333e-10
14930.0 4.2095e-10
14950.0 4.187e-10
14970.0 4.1648e-10
14990.0 4.1446e-10
15010.0 4.127e-10
15030.0 4.111e-10
15050.0 4.0962e-10
15070.0 4.0838e-10
15090.0 4.0725e-10
15110.0 4.0616e-10
15130.0 4.0512e-10
15150.0 4.0414e-10
15170.0 4.0315e-10
15190.0 4.0214e-10
15210.0 4.0116e-10
15230.0 4.002e-10
15250.0 3.9919e-10
15270.0 3.9819e-10
15290.0 3.9724e-10
15310.0 3.9625e-10
15330.0 3.9525e-10
15350.0 3.9429e-10
15370.0 3.9333e-10
15390.0 3.9231e-10
15410.0 3.9132e-10
15430.0 3.9036e-10
15450.0 3.8937e-10
15470.0 3.8836e-10
15490.0 3.874e-10
15510.0 3.8644e-10
15530.0 3.8543e-10
15550.0 3.8445e-10
15570.0 3.835e-10
15590.0 3.825e-10
15610.0 3.8149e-10
15630.0 3.8052e-10
15650.0 3.7955e-10
15670.0 3.7855e-10
15690.0 3.7757e-10
15710.0 3.7662e-10
15730.0 3.7562e-10
15750.0 3.7462e-10
15770.0 3.7366e-10
15790.0 3.7269e-10
15810.0 3.7167e-10
15830.0 3.7069e-10
15850.0 3.6973e-10
15870.0 3.6874e-10
15890.0 3.6774e-10
15910.0 3.6679e-10
15930.0 3.6581e-10
15950.0 3.648e-10
15970.0 3.6382e-10
15990.0 3.6286e-10
16010.0 3.6186e-10
16030.0 3.6085e-10
16050.0 3.599e-10
16070.0 3.5893e-10
16090.0 3.5793e-10
16110.0 3.5695e-10
16130.0 3.56e-10
16150.0 3.5499e-10
16170.0 3.5399e-10
16190.0 3.5303e-10
16210.0 3.5205e-10
16230.0 3.5104e-10
16250.0 3.5007e-10
16270.0 3.4912e-10
16290.0 3.4811e-10
16310.0 3.4713e-10
16330.0 3.4617e-10
16350.0 3.4519e-10
16370.0 3.4416e-10
16390.0 3.432e-10
16410.0 3.4223e-10
16430.0 3.4123e-10
16450.0 3.4025e-10
16470.0 3.393e-10
16490.0 3.3831e-10
16510.0 3.373e-10
16530.0 3.3633e-10
16550.0 3.3536e-10
16570.0 3.3436e-10
16590.0 3.3336e-10
16610.0 3.3241e-10
16630.0 3.3142e-10
16650.0 3.3043e-10
16670.0 3.2946e-10
16690.0 3.285e-10
16710.0 3.2748e-10
16730.0 3.265e-10
16750.0 3.2554e-10
16770.0 3.2455e-10
16790.0 3.2354e-10
16810.0 3.2258e-10
16830.0 3.2161e-10
16850.0 3.2061e-10
16870.0 3.1963e-10
16890.0 3.1868e-10
16910.0 3.1768e-10
16930.0 3.1667e-10
16950.0 3.1571e-10
16970.0 3.1473e-10
16990.0 3.1373e-10
17010.0 3.1275e-10
17030.0 3.118e-10
17050.0 3.108e-10
17070.0 3.0981e-10
17090.0 3.0884e-10
17110.0 3.0787e-10
17130.0 3.0685e-10
17150.0 3.0587e-10
17170.0 3.0491e-10
17190.0 3.0392e-10
17210.0 3.0293e-10
17230.0 3.0198e-10
17250.0 3.01e-10
17270.0 2.9998e-10
17290.0 2.9901e-10
17310.0 2.9804e-10
17330.0 2.9705e-10
17350.0 2.9604e-10
17370.0 2.9509e-10
17390.0 2.9411e-10
17410.0 2.9311e-10
17430.0 2.9214e-10
17450.0 2.9119e-10
17470.0 2.9017e-10
17490.0 2.8917e-10
17510.0 2.8822e-10
17530.0 2.8723e-10
17550.0 2.8623e-10
17570.0 2.8526e-10
17590.0 2.843e-10
17610.0 2.833e-10
17630.0 2.8231e-10
17650.0 2.8135e-10
17670.0 2.8037e-10
17690.0 2.7934e-10
17710.0 2.7838e-10
17730.0 2.7742e-10
17750.0 2.7642e-10
17770.0 2.7543e-10
17790.0 2.7449e-10
17810.0 2.7349e-10
17830.0 2.7249e-10
17850.0 2.7152e-10
17870.0 2.7055e-10
17890.0 2.6954e-10
17910.0 2.6855e-10
17930.0 2.676e-10
17950.0 2.6661e-10
17970.0 2.6561e-10
17990.0 2.6465e-10
18010.0 2.6369e-10
18030.0 2.6267e-10
18050.0 2.6169e-10
18070.0 2.6072e-10
18090.0 2.5973e-10
18110.0 2.5873e-10
18130.0 2.5777e-10
18150.0 2.568e-10
18170.0 2.558e-10
18190.0 2.5482e-10
18210.0 2.5386e-10
18230.0 2.5286e-10
18250.0 2.5185e-10
18270.0 2.5089e-10
18290.0 2.4992e-10
18310.0 2.4892e-10
18330.0 2.4794e-10
18350.0 2.4699e-10
18370.0 2.4599e-10
18390.0 2.4499e-10
18410.0 2.4403e-10
18430.0 2.4305e-10
18450.0 2.4204e-10
18470.0 2.4106e-10
18490.0 2.401e-10
18510.0 2.3911e-10
18530.0 2.3812e-10
18550.0 2.3717e-10
18570.0 2.3618e-10
18590.0 2.3517e-10
18610.0 2.342e-10
18630.0 2.3323e-10
18650.0 2.3223e-10
18670.0 2.3123e-10
18690.0 2.3028e-10
18710.0 2.293e-10
18730.0 2.283e-10
18750.0 2.2733e-10
18770.0 2.2637e-10
18790.0 2.2536e-10
18810.0 2.2436e-10
18830.0 2.2341e-10
18850.0 2.2242e-10
18870.0 2.2142e-10
18890.0 2.2045e-10
18910.0 2.1949e-10
18930.0 2.1849e-10
18950.0 2.175e-10
18970.0 2.1654e-10
18990.0 2.1556e-10
19010.0 2.1453e-10
19030.0 2.1358e-10
19050.0 2.1261e-10
19070.0 2.1161e-10
19090.0 2.1063e-10
19110.0 2.0968e-10
19130.0 2.0868e-10
19150.0 2.0768e-10
19170.0 2.0671e-10
19190.0 2.0574e-10
19210.0 2.0473e-10
19230.0 2.0374e-10
19250.0 2.0279e-10
19270.0 2.018e-10
19290.0 2.0081e-10
19310.0 1.9985e-10
19330.0 1.9888e-10
19350.0 1.9786e-10
19370.0 1.9688e-10
19390.0 1.9592e-10
19410.0 1.9492e-10
19430.0 1.9392e-10
19450.0 1.9297e-10
19470.0 1.9199e-10
19490.0 1.9099e-10
19510.0 1.9001e-10
19530.0 1.8906e-10
19550.0 1.8805e-10
19570.0 1.8704e-10
19590.0 1.8609e-10
19610.0 1.8511e-10
19630.0 1.8411e-10
19650.0 1.8314e-10
19670.0 1.8218e-10
19690.0 1.8118e-10
19710.0 1.8019e-10
19730.0 1.7922e-10
19750.0 1.7824e-10
19770.0 1.7723e-10
19790.0 1.7626e-10
19810.0 1.753e-10
19830.0 1.743e-10
19850.0 1.7332e-10
19870.0 1.7237e-10
19890.0 1.7141e-10
19910.0 1.7043e-10
19930.0 1.6953e-10
19950.0 1.6868e-10
19970.0 1.6786e-10
19990.0 1.6714e-10
20010.0 1.6654e-10
20030.0 1.6602e-10
20050.0 1.6559e-10
20070.0 1.6525e-10
20090.0 1.6498e-10
20110.0 1.6473e-10
20130.0 1.6453e-10
20150.0 1.6435e-10
20170.0 1.6417e-10
20190.0 1.6398e-10
20210.0 1.638e-10
20230.0 1.6361e-10
20250.0 1.634e-10
20270.0 1.6319e-10
20290.0 1.6297e-10
20310.0 1.6273e-10
20330.0 1.6247e-10
20350.0 1.6221e-10
20370.0 1.6193e-10
20390.0 1.6164e-10
20410.0 1.6134e-10
20430.0 1.6104e-10
20450.0 1.6071e-10
20470.0 1.6038e-10
20490.0 1.6005e-10
20510.0 1.5973e-10
20530.0 1.5939e-10
20550.0 1.5906e-10
20570.0 1.5875e-10
20590.0 1.5844e-10
20610.0 1.5813e-10
20630.0 1.5784e-10
20650.0 1.5755e-10
20670.0 1.5725e-10
20690.0 1.5697e-10
20710.0 1.5669e-10
20730.0 1.5639e-10
20750.0 1.5608e-10
20770.0 1.5578e-10
20790.0 1.5545e-10
20810.0 1.5509e-10
20830.0 1.5472e-10
20850.0 1.5432e-10
20870.0 1.5388e-10
20890.0 1.5341e-10
20910.0 1.5294e-10
20930.0 1.5243e-10
20950.0 1.5188e-10
20970.0 1.5133e-10
20990.0 1.5077e-10
21010.0 1.5017e-10
21030.0 1.4957e-10
21050.0 1.4898e-10
21070.0 1.4839e-10
21090.0 1.4777e-10
21110.0 1.4719e-10
21130.0 1.4661e-10
21150.0 1.4603e-10
21170.0 1.4545e-10
21190.0 1.4491e-10
21210.0 1.4434e-10
21230.0 1.4376e-10
21250.0 1.4321e-10
21270.0 1.4265e-10
21290.0 1.4207e-10
21310.0 1.4148e-10
21330.0 1.4091e-10
21350.0 1.4031e-10
21370.0 1.3968e-10
21390.0 1.3906e-10
21410.0 1.3843e-10
21430.0 1.3774e-10
21450.0 1.3705e-10
21470.0 1.3637e-10
21490.0 1.3566e-10
21510.0 1.3492e-10
21530.0 1.3421e-10
21550.0 1.3347e-10
21570.0 1.327e-10
21590.0 1.3194e-10
21610.0 1.3119e-10
21630.0 1.3042e-10
21650.0 1.2962e-10
21670.0 1.2888e-10
21690.0 1.2812e-10
21710.0 1.2734e-10
21730.0 1.2658e-10
21750.0 1.2585e-10
21770.0 1.2507e-10
21790.0 1.243e-10
21810.0 1.2356e-10
21830.0 1.2282e-10
21850.0 1.2204e-10
21870.0 1.2129e-10
21890.0 1.2057e-10
21910.0 1.1981e-10
21930.0 1.1906e-10
21950.0 1.1834e-10
21970.0 1.1762e-10
21990.0 1.1687e-10
22010.0 1.1616e-10
22030.0 1.1548e-10
22050.0 1.148e-10
22070.0 1.1413e-10
22090.0 1.1352e-10
22110.0 1.1291e-10
22130.0 1.1231e-10
22150.0 1.1176e-10
22170.0 1.1125e-10
22190.0 1.1073e-10
22210.0 1.1025e-10
22230.0 1.0981e-10
22250.0 1.0938e-10
22270.0 1.0897e-10
22290.0 1.0859e-10
22310.0 1.0822e-10
22330.0 1.0785e-10
22350.0 1.0749e-10
22370.0 1.0715e-10
22390.0 1.0681e-10
22410.0 1.0645e-10
22430.0 1.0612e-10
22450.0 1.0578e-10
22470.0 1.0543e-10
22490.0 1.0507e-10
22510.0 1.0473e-10
22530.0 1.0437e-10
22550.0 1.04e-10
22570.0 1.0364e-10
22590.0 1.0328e-10
22610.0 1.0291e-10
