#lamb flux
1010.0 1.9024e-07
1030.0 2.0898e-07
1050.0 2.3054e-07
1070.0 2.5481e-07
1090.0 2.8238e-07
1110.0 3.1066e-07
1130.0 3.3912e-07
1150.0 3.6893e-07
1170.0 3.9968e-07
1190.0 4.2884e-07
1210.0 4.5839e-07
1230.0 4.8893e-07
1250.0 5.1884e-07
1270.0 5.479e-07
1290.0 5.786e-07
1310.0 6.0927e-07
1330.0 6.3869e-07
1350.0 6.6844e-07
1370.0 6.9915e-07
1390.0 7.2909e-07
1410.0 7.5814e-07
1430.0 7.885e-07
1450.0 8.1886e-07
1470.0 8.482e-07
1490.0 8.7785e-07
1510.0 9.0917e-07
1530.0 9.3883e-07
1550.0 9.6809e-07
1570.0 9.9835e-07
1590.0 1.0286e-06
1610.0 1.0575e-06
1630.0 1.0874e-06
1650.0 1.1179e-06
1670.0 1.1475e-06
1690.0 1.1766e-06
1710.0 1.2069e-06
1730.0 1.2373e-06
1750.0 1.2658e-06
1770.0 1.2951e-06
1790.0 1.325e-06
1810.0 1.3539e-06
1830.0 1.3822e-06
1850.0 1.4121e-06
1870.0 1.4412e-06
1890.0 1.4692e-06
1910.0 1.4976e-06
1930.0 1.5265e-06
1950.0 1.554e-06
1970.0 1.5809e-06
1990.0 1.6086e-06
2010.0 1.6356e-06
2030.0 1.6613e-06
2050.0 1.6876e-06
2070.0 1.7143e-06
2090.0 1.7388e-06
2110.0 1.7629e-06
2130.0 1.7873e-06
2150.0 1.8107e-06
2170.0 1.8324e-06
2190.0 1.8544e-06
2210.0 1.876e-06
2230.0 1.8958e-06
2250.0 1.9148e-06
2270.0 1.9342e-06
2290.0 1.9519e-06
2310.0 1.9676e-06
2330.0 1.9833e-06
2350.0 1.9983e-06
2370.0 2.0114e-06
2390.0 2.024e-06
2410.0 2.0375e-06
2430.0 2.0501e-06
2450.0 2.0628e-06
2470.0 2.0782e-06
2490.0 2.0983e-06
2510.0 2.1235e-06
2530.0 2.1636e-06
2550.0 2.2332e-06
2570.0 2.3456e-06
2590.0 2.5164e-06
2610.0 2.7892e-06
2630.0 3.1689e-06
2650.0 3.6293e-06
2670.0 4.1709e-06
2690.0 4.7679e-06
2710.0 5.3324e-06
2730.0 5.8256e-06
2750.0 6.2569e-06
2770.0 6.5849e-06
2790.0 6.811e-06
2810.0 6.9722e-06
2830.0 7.0949e-06
2850.0 7.1762e-06
2870.0 7.2418e-06
2890.0 7.307e-06
2910.0 7.3688e-06
2930.0 7.4215e-06
2950.0 7.4789e-06
2970.0 7.5385e-06
2990.0 7.5907e-06
3010.0 7.5568e-05
3030.0 7.6092e-05
3050.0 7.6578e-05
3070.0 7.6914e-05
3090.0 7.718e-05
3110.0 7.7264e-05
3130.0 7.7026e-05
3150.0 7.6424e-05
3170.0 7.5385e-05
3190.0 7.3934e-05
3210.0 7.2259e-05
3230.0 7.0536e-05
3250.0 6.8872e-05
3270.0 6.8005e-05
3290.0 6.7534e-05
3310.0 6.8428e-05
3330.0 6.992e-05
3350.0 7.2029e-05
3370.0 7.4819e-05
3390.0 7.8166e-05
3410.0 8.1656e-05
3430.0 8.5414e-05
3450.0 8.9515e-05
3470.0 9.3728e-05
3490.0 9.7956e-05
3510.0 0.00010244
3530.0 0.00010703
3550.0 0.00011185
3570.0 0.00011706
3590.0 0.00012252
3610.0 0.00012866
3630.0 0.00013413
3650.0 0.00013961
3670.0 0.000144
3690.0 0.00014719
3710.0 0.00014905
3730.0 0.00014894
3750.0 0.00014892
3770.0 0.00014974
3790.0 0.00015413
3810.0 0.00016333
3830.0 0.00017566
3850.0 0.0001933
3870.0 0.00021688
3890.0 0.00024347
3910.0 0.00027055
3930.0 0.00029263
3950.0 0.00030638
3970.0 0.00027311
3990.0 0.00021223
4010.0 0.00020472
4030.0 0.00024845
4050.0 0.00028865
4070.0 0.00025482
4090.0 0.00017661
4110.0 0.00018379
4130.0 0.00023211
4150.0 0.00025568
4170.0 0.00022705
4190.0 0.00020335
4210.0 0.00024495
4230.0 0.00026584
4250.0 0.00025998
4270.0 0.00026461
4290.0 0.00024819
4310.0 0.00026741
4330.0 0.00030584
4350.0 0.00035892
4370.0 0.00037205
4390.0 0.00035552
4410.0 0.00030593
4430.0 0.00024994
4450.0 0.00019516
4470.0 0.00019921
4490.0 0.00022244
4510.0 0.0002889
4530.0 0.00030605
4550.0 0.00030949
4570.0 0.00035699
4590.0 0.00045858
4610.0 0.00063103
4630.0 0.0007592
4650.0 0.00075686
4670.0 0.00077635
4690.0 0.00085103
4710.0 0.00083878
4730.0 0.00067116
4750.0 0.00048339
4770.0 0.00040328
4790.0 0.00037129
4810.0 0.00034355
4830.0 0.00036261
4850.0 0.00042145
4870.0 0.00052297
4890.0 0.00055325
4910.0 0.00047711
4930.0 0.00047818
4950.0 0.00059076
4970.0 0.00076699
4990.0 0.00089642
5010.0 0.00089628
5030.0 0.00073832
5050.0 0.00051699
5070.0 0.00038041
5090.0 0.00033152
5110.0 0.00033793
5130.0 0.0003699
5150.0 0.00035687
5170.0 0.00035717
5190.0 0.00035236
5210.0 0.00035335
5230.0 0.00037729
5250.0 0.00039147
5270.0 0.00043885
5290.0 0.00052588
5310.0 0.00057779
5330.0 0.00060275
5350.0 0.00063133
5370.0 0.00068434
5390.0 0.00070356
5410.0 0.00063893
5430.0 0.00057181
5450.0 0.00057519
5470.0 0.00069164
5490.0 0.00089676
5510.0 0.0010819
5530.0 0.0011479
5550.0 0.0011086
5570.0 0.0010336
5590.0 0.0009557
5610.0 0.00091554
5630.0 0.00092781
5650.0 0.00095164
5670.0 0.0009249
5690.0 0.00087949
5710.0 0.00085141
5730.0 0.00074628
5750.0 0.00057672
5770.0 0.00052397
5790.0 0.00059179
5810.0 0.00067164
5830.0 0.00075253
5850.0 0.00078599
5870.0 0.00076931
5890.0 0.00071363
5910.0 0.00067263
5930.0 0.00068387
5950.0 0.00072743
5970.0 0.00074026
5990.0 0.00066109
6010.0 0.00053651
6030.0 0.00043102
6050.0 0.00039166
6070.0 0.00042128
6090.0 0.00047515
6110.0 0.00047997
6130.0 0.00044324
6150.0 0.00043658
6170.0 0.00048738
6190.0 0.00058047
6210.0 0.00069949
6230.0 0.00078104
6250.0 0.00075134
6270.0 0.00066015
6290.0 0.00054558
6310.0 0.00043044
6330.0 0.00036048
6350.0 0.00035309
6370.0 0.0003891
6390.0 0.00043255
6410.0 0.0005025
6430.0 0.00060859
6450.0 0.00074874
6470.0 0.00090065
6490.0 0.001037
6510.0 0.0010924
6530.0 0.0010453
6550.0 0.0010038
6570.0 0.0010061
6590.0 0.00099005
6610.0 0.00092805
6630.0 0.00087063
6650.0 0.00082048
6670.0 0.00081942
6690.0 0.00079913
6710.0 0.0007207
6730.0 0.00062757
6750.0 0.00056658
6770.0 0.00059085
6790.0 0.00063122
6810.0 0.00067571
6830.0 0.00068864
6850.0 0.00065467
6870.0 0.00062912
6890.0 0.00061466
6910.0 0.00058194
6930.0 0.0005566
6950.0 0.00056371
6970.0 0.00058131
6990.0 0.00062364
7010.0 0.00066897
7030.0 0.00065078
7050.0 0.00059068
7070.0 0.0005204
7090.0 0.00044006
7110.0 0.00039847
7130.0 0.00042269
7150.0 0.00045565
7170.0 0.00045809
7190.0 0.00044495
7210.0 0.00044316
7230.0 0.00050067
7250.0 0.00057932
7270.0 0.00063402
7290.0 0.00064434
7310.0 0.00060379
7330.0 0.00054824
7350.0 0.00050531
7370.0 0.00048704
7390.0 0.00048943
7410.0 0.0005201
7430.0 0.00059053
7450.0 0.000661
7470.0 0.00074399
7490.0 0.00082971
7510.0 0.0007698
7530.0 0.00067409
7550.0 0.00057381
7570.0 0.00048063
7590.0 0.00039288
7610.0 0.00037789
7630.0 0.00040428
7650.0 0.00045278
7670.0 0.00051778
7690.0 0.000571
7710.0 0.00064036
7730.0 0.00067758
7750.0 0.00070284
7770.0 0.00072728
7790.0 0.00072726
7810.0 0.00072452
7830.0 0.00069835
7850.0 0.00067722
7870.0 0.00064941
7890.0 0.00059375
7910.0 0.00053727
7930.0 0.0004813
7950.0 0.00042304
7970.0 0.00040473
7990.0 0.00042144
8010.0 0.00047247
8030.0 0.00047663
8050.0 0.0004906
8070.0 0.00048445
8090.0 0.0004841
8110.0 0.00047048
8130.0 0.00044161
8150.0 0.00041234
8170.0 0.00040878
8190.0 0.000415
8210.0 0.00041961
8230.0 0.00040109
8250.0 0.00038026
8270.0 0.000335
8290.0 0.00027198
8310.0 0.00020906
8330.0 0.00014619
8350.0 0.00010795
8370.0 0.00010306
8390.0 0.00011838
8410.0 0.0001437
8430.0 0.00017855
8450.0 0.00019714
8470.0 0.00021011
8490.0 0.00022682
8510.0 0.00024174
8530.0 0.00026771
8550.0 0.00031561
8570.0 0.00036457
8590.0 0.00040634
8610.0 0.00047046
8630.0 0.00054515
8650.0 0.00057938
8670.0 0.00058561
8690.0 0.00057697
8710.0 0.00055402
8730.0 0.00053136
8750.0 0.00050256
8770.0 0.00049214
8790.0 0.0004745
8810.0 0.00043958
8830.0 0.00040994
8850.0 0.00035462
8870.0 0.00032115
8890.0 0.00029748
8910.0 0.00032221
8930.0 0.00030911
8950.0 0.00031553
8970.0 0.00032063
8990.0 0.00032062
9010.0 0.00032459
9030.0 0.00031544
9050.0 0.00031482
9070.0 0.00031511
9090.0 0.00031541
9110.0 0.00031578
9130.0 0.00031612
9150.0 0.00031647
9170.0 0.00031649
9190.0 0.00031605
9210.0 0.00031878
9230.0 0.0003187
9250.0 0.00031893
9270.0 0.00031927
9290.0 0.00031968
9310.0 0.00032015
9330.0 0.00032066
9350.0 0.00032122
9370.0 0.0003218
9390.0 0.00032241
9410.0 0.00032304
9430.0 0.0003237
9450.0 0.00032437
9470.0 0.00032507
9490.0 0.00032579
9510.0 0.00032653
9530.0 0.00032729
9550.0 0.00032808
9570.0 0.00032888
9590.0 0.00032971
9610.0 0.00033056
9630.0 0.00033143
9650.0 0.00033233
9670.0 0.00033323
9690.0 0.00033417
9710.0 0.00033512
9730.0 0.00033609
9750.0 0.00033708
9770.0 0.00033809
9790.0 0.00033912
9810.0 0.00034016
9830.0 0.00034122
9850.0 0.00034229
9870.0 0.00034338
9890.0 0.00034448
9910.0 0.0003456
9930.0 0.00034672
9950.0 0.00034769
9970.0 0.00034889
9990.0 0.00035009
10010.0 0.00035117
10030.0 0.00035235
10050.0 0.00035343
10070.0 0.00035392
10090.0 0.00035535
10110.0 0.00035675
10130.0 0.00035808
10150.0 0.00035937
10170.0 0.00036062
10190.0 0.0003618
10210.0 0.000363
10230.0 0.0003642
10250.0 0.00036535
10270.0 0.0003665
10290.0 0.00036767
10310.0 0.00036879
10330.0 0.00036988
10350.0 0.000371
10370.0 0.0003721
10390.0 0.00037316
10410.0 0.0003742
10430.0 0.00037526
10450.0 0.00037627
10470.0 0.00037725
10490.0 0.00037822
10510.0 0.00037918
10530.0 0.00038007
10550.0 0.00038095
10570.0 0.00038183
10590.0 0.00038266
10610.0 0.00038344
10630.0 0.00038423
10650.0 0.00038498
10670.0 0.00038565
10690.0 0.00038632
10710.0 0.00038697
10730.0 0.00038755
10750.0 0.00038808
10770.0 0.00038862
10790.0 0.00038911
10810.0 0.00038953
10830.0 0.00038991
10850.0 0.00039025
10870.0 0.0003904
10890.0 0.00039034
10910.0 0.00038998
10930.0 0.00038908
10950.0 0.00038726
10970.0 0.00038439
10990.0 0.00038037
11010.0 0.00037688
11030.0 0.00036901
11050.0 0.00036
11070.0 0.0003497
11090.0 0.0003378
11110.0 0.00032597
11130.0 0.00031414
11150.0 0.000302
11170.0 0.00029021
11190.0 0.00027951
11210.0 0.00026926
11230.0 0.00025961
11250.0 0.00025122
11270.0 0.0002439
11290.0 0.00023725
11310.0 0.00023154
11330.0 0.00022691
11350.0 0.00022279
11370.0 0.00021907
11390.0 0.00021577
11410.0 0.00021264
11430.0 0.00020929
11450.0 0.00020582
11470.0 0.00020218
11490.0 0.0001981
11510.0 0.00019349
11530.0 0.00018869
11550.0 0.00018361
11570.0 0.00017806
11590.0 0.00017238
11610.0 0.00016678
11630.0 0.000161
11650.0 0.00015519
11670.0 0.00014982
11690.0 0.00014471
11710.0 0.00013974
11730.0 0.00013518
11750.0 0.00013111
11770.0 0.00012723
11790.0 0.00012362
11810.0 0.0001204
11830.0 0.00011741
11850.0 0.00011446
11870.0 0.00011172
11890.0 0.00010913
11910.0 0.0001065
11930.0 0.00010383
11950.0 0.00010121
11970.0 9.8506e-05
11990.0 9.5637e-05
12010.0 9.2775e-05
12030.0 8.9932e-05
12050.0 8.7004e-05
12070.0 8.4056e-05
12090.0 8.1355e-05
12110.0 7.8757e-05
12130.0 7.63e-05
12150.0 7.4156e-05
12170.0 7.2365e-05
12190.0 7.0859e-05
12210.0 6.9799e-05
12230.0 6.9203e-05
12250.0 6.9052e-05
12270.0 6.9395e-05
12290.0 7.0187e-05
12310.0 7.1353e-05
12330.0 7.2977e-05
12350.0 7.495e-05
12370.0 7.711e-05
12390.0 7.9497e-05
12410.0 8.2162e-05
12430.0 8.4701e-05
12450.0 8.7163e-05
12470.0 8.9603e-05
12490.0 9.1849e-05
12510.0 9.3748e-05
12530.0 9.544e-05
12550.0 9.6856e-05
12570.0 9.7872e-05
12590.0 9.8539e-05
12610.0 9.8899e-05
12630.0 9.89e-05
12650.0 9.8568e-05
12670.0 9.7955e-05
12690.0 9.7062e-05
12710.0 9.5948e-05
12730.0 9.4649e-05
12750.0 9.3123e-05
12770.0 9.1473e-05
12790.0 8.9748e-05
12810.0 8.7903e-05
12830.0 8.594e-05
12850.0 8.3985e-05
12870.0 8.1985e-05
12890.0 7.9865e-05
12910.0 7.7711e-05
12930.0 7.5556e-05
12950.0 7.3267e-05
12970.0 7.0869e-05
12990.0 6.8511e-05
13010.0 6.6102e-05
13030.0 6.359e-05
13050.0 6.1105e-05
13070.0 5.8723e-05
13090.0 5.631e-05
13110.0 5.3972e-05
13130.0 5.1832e-05
13150.0 4.9847e-05
13170.0 4.7981e-05
13190.0 4.6402e-05
13210.0 4.51e-05
13230.0 4.4015e-05
13250.0 4.3192e-05
13270.0 4.2642e-05
13290.0 4.2321e-05
13310.0 4.2229e-05
13330.0 4.2338e-05
13350.0 4.2602e-05
13370.0 4.3015e-05
13390.0 4.3546e-05
13410.0 4.4096e-05
13430.0 4.4689e-05
13450.0 4.5305e-05
13470.0 4.588e-05
13490.0 4.6395e-05
13510.0 4.6896e-05
13530.0 4.7322e-05
13550.0 4.7662e-05
13570.0 4.7948e-05
13590.0 4.8188e-05
13610.0 4.8365e-05
13630.0 4.8494e-05
13650.0 4.8604e-05
13670.0 4.8684e-05
13690.0 4.8736e-05
13710.0 4.8773e-05
13730.0 4.88e-05
13750.0 4.8798e-05
13770.0 4.8772e-05
13790.0 4.8722e-05
13810.0 4.8635e-05
13830.0 4.8507e-05
13850.0 4.8332e-05
13870.0 4.8101e-05
13890.0 4.7818e-05
13910.0 4.7481e-05
13930.0 4.7078e-05
13950.0 4.6625e-05
13970.0 4.6151e-05
13990.0 4.5639e-05
14010.0 4.5102e-05
14030.0 4.4579e-05
14050.0 4.407e-05
14070.0 4.3562e-05
14090.0 4.3101e-05
14110.0 4.2691e-05
14130.0 4.2321e-05
14150.0 4.1998e-05
14170.0 4.1738e-05
14190.0 4.153e-05
14210.0 4.1371e-05
14230.0 4.1268e-05
14250.0 4.1218e-05
14270.0 4.1226e-05
14290.0 4.1295e-05
14310.0 4.1417e-05
14330.0 4.1595e-05
14350.0 4.1839e-05
14370.0 4.2133e-05
14390.0 4.2461e-05
14410.0 4.2849e-05
14430.0 4.3279e-05
14450.0 4.3724e-05
14470.0 4.4199e-05
14490.0 4.4726e-05
14510.0 4.5261e-05
14530.0 4.5811e-05
14550.0 4.6423e-05
14570.0 4.7093e-05
14590.0 4.7799e-05
14610.0 4.8598e-05
14630.0 4.9532e-05
14650.0 5.0548e-05
14670.0 5.1663e-05
14690.0 5.2943e-05
14710.0 5.4376e-05
14730.0 5.5838e-05
14750.0 5.7432e-05
14770.0 5.9154e-05
14790.0 6.0886e-05
14810.0 6.2598e-05
14830.0 6.4412e-05
14850.0 6.6146e-05
14870.0 6.7731e-05
14890.0 6.9225e-05
14910.0 7.06e-05
14930.0 7.1744e-05
14950.0 7.2675e-05
14970.0 7.3436e-05
14990.0 7.3976e-05
15010.0 7.4313e-05
15030.0 7.4495e-05
15050.0 7.4542e-05
15070.0 7.4488e-05
15090.0 7.4372e-05
15110.0 7.421e-05
15130.0 7.4026e-05
15150.0 7.384e-05
15170.0 7.3641e-05
15190.0 7.3437e-05
15210.0 7.3241e-05
15230.0 7.3048e-05
15250.0 7.2846e-05
15270.0 7.2649e-05
15290.0 7.2463e-05
15310.0 7.2272e-05
15330.0 7.2079e-05
15350.0 7.1894e-05
15370.0 7.1712e-05
15390.0 7.1518e-05
15410.0 7.1332e-05
15430.0 7.1154e-05
15450.0 7.097e-05
15470.0 7.0782e-05
15490.0 7.0606e-05
15510.0 7.043e-05
15530.0 7.0247e-05
15550.0 7.0069e-05
15570.0 6.9897e-05
15590.0 6.9717e-05
15610.0 6.9533e-05
15630.0 6.9362e-05
15650.0 6.9189e-05
15670.0 6.901e-05
15690.0 6.8835e-05
15710.0 6.8668e-05
15730.0 6.8492e-05
15750.0 6.8314e-05
15770.0 6.8145e-05
15790.0 6.7974e-05
15810.0 6.7793e-05
15830.0 6.762e-05
15850.0 6.7453e-05
15870.0 6.7278e-05
15890.0 6.7102e-05
15910.0 6.6935e-05
15930.0 6.6763e-05
15950.0 6.6583e-05
15970.0 6.6411e-05
15990.0 6.6241e-05
16010.0 6.6064e-05
16030.0 6.5884e-05
16050.0 6.5716e-05
16070.0 6.5543e-05
16090.0 6.5363e-05
16110.0 6.5189e-05
16130.0 6.502e-05
16150.0 6.4835e-05
16170.0 6.4655e-05
16190.0 6.4482e-05
16210.0 6.4304e-05
16230.0 6.412e-05
16250.0 6.3943e-05
16270.0 6.3769e-05
16290.0 6.3583e-05
16310.0 6.34e-05
16330.0 6.3223e-05
16350.0 6.304e-05
16370.0 6.2846e-05
16390.0 6.2666e-05
16410.0 6.2485e-05
16430.0 6.2295e-05
16450.0 6.2107e-05
16470.0 6.1927e-05
16490.0 6.1736e-05
16510.0 6.1542e-05
16530.0 6.1354e-05
16550.0 6.1166e-05
16570.0 6.0968e-05
16590.0 6.0772e-05
16610.0 6.0585e-05
16630.0 6.0389e-05
16650.0 6.019e-05
16670.0 5.9997e-05
16690.0 5.9804e-05
16710.0 5.9597e-05
16730.0 5.9396e-05
16750.0 5.92e-05
16770.0 5.8997e-05
16790.0 5.8788e-05
16810.0 5.859e-05
16830.0 5.8389e-05
16850.0 5.8178e-05
16870.0 5.7972e-05
16890.0 5.777e-05
16910.0 5.7557e-05
16930.0 5.734e-05
16950.0 5.7134e-05
16970.0 5.6925e-05
16990.0 5.6707e-05
17010.0 5.6494e-05
17030.0 5.6286e-05
17050.0 5.6066e-05
17070.0 5.5846e-05
17090.0 5.5632e-05
17110.0 5.5415e-05
17130.0 5.5186e-05
17150.0 5.4966e-05
17170.0 5.475e-05
17190.0 5.4525e-05
17210.0 5.4298e-05
17230.0 5.408e-05
17250.0 5.3855e-05
17270.0 5.3621e-05
17290.0 5.3395e-05
17310.0 5.317e-05
17330.0 5.2937e-05
17350.0 5.2701e-05
17370.0 5.2477e-05
17390.0 5.2246e-05
17410.0 5.2008e-05
17430.0 5.1777e-05
17450.0 5.1548e-05
17470.0 5.1304e-05
17490.0 5.1065e-05
17510.0 5.0833e-05
17530.0 5.0595e-05
17550.0 5.035e-05
17570.0 5.0114e-05
17590.0 4.9879e-05
17610.0 4.9633e-05
17630.0 4.9389e-05
17650.0 4.9152e-05
17670.0 4.8908e-05
17690.0 4.8653e-05
17710.0 4.8414e-05
17730.0 4.8172e-05
17750.0 4.7922e-05
17770.0 4.7674e-05
17790.0 4.7435e-05
17810.0 4.7183e-05
17830.0 4.6929e-05
17850.0 4.6683e-05
17870.0 4.6437e-05
17890.0 4.618e-05
17910.0 4.5926e-05
17930.0 4.5683e-05
17950.0 4.5429e-05
17970.0 4.5173e-05
17990.0 4.4925e-05
18010.0 4.4676e-05
18030.0 4.4413e-05
18050.0 4.4159e-05
18070.0 4.3909e-05
18090.0 4.3652e-05
18110.0 4.3391e-05
18130.0 4.3141e-05
18150.0 4.2888e-05
18170.0 4.2627e-05
18190.0 4.2371e-05
18210.0 4.212e-05
18230.0 4.1857e-05
18250.0 4.1593e-05
18270.0 4.1341e-05
18290.0 4.1085e-05
18310.0 4.0822e-05
18330.0 4.0565e-05
18350.0 4.0313e-05
18370.0 4.005e-05
18390.0 3.9788e-05
18410.0 3.9533e-05
18430.0 3.9275e-05
18450.0 3.9007e-05
18470.0 3.8749e-05
18490.0 3.8495e-05
18510.0 3.8233e-05
18530.0 3.7971e-05
18550.0 3.7718e-05
18570.0 3.7458e-05
18590.0 3.7192e-05
18610.0 3.6934e-05
18630.0 3.6678e-05
18650.0 3.6414e-05
18670.0 3.615e-05
18690.0 3.5898e-05
18710.0 3.5639e-05
18730.0 3.5376e-05
18750.0 3.5119e-05
18770.0 3.4866e-05
18790.0 3.4598e-05
18810.0 3.4337e-05
18830.0 3.4084e-05
18850.0 3.3825e-05
18870.0 3.3561e-05
18890.0 3.3307e-05
18910.0 3.3054e-05
18930.0 3.2791e-05
18950.0 3.2532e-05
18970.0 3.228e-05
18990.0 3.2022e-05
19010.0 3.1755e-05
19030.0 3.1504e-05
19050.0 3.1251e-05
19070.0 3.0991e-05
19090.0 3.0735e-05
19110.0 3.0488e-05
19130.0 3.0229e-05
19150.0 2.9969e-05
19170.0 2.9718e-05
19190.0 2.9466e-05
19210.0 2.9206e-05
19230.0 2.8951e-05
19250.0 2.8705e-05
19270.0 2.8451e-05
19290.0 2.8195e-05
19310.0 2.7948e-05
19330.0 2.7699e-05
19350.0 2.7439e-05
19370.0 2.7189e-05
19390.0 2.6943e-05
19410.0 2.6691e-05
19430.0 2.6436e-05
19450.0 2.6193e-05
19470.0 2.5947e-05
19490.0 2.5694e-05
19510.0 2.5447e-05
19530.0 2.5205e-05
19550.0 2.4953e-05
19570.0 2.47e-05
19590.0 2.446e-05
19610.0 2.4216e-05
19630.0 2.3966e-05
19650.0 2.3724e-05
19670.0 2.3486e-05
19690.0 2.3237e-05
19710.0 2.2991e-05
19730.0 2.2753e-05
19750.0 2.2511e-05
19770.0 2.2261e-05
19790.0 2.2022e-05
19810.0 2.1786e-05
19830.0 2.1542e-05
19850.0 2.1299e-05
19870.0 2.1061e-05
19890.0 2.0811e-05
19910.0 2.0545e-05
19930.0 2.0272e-05
19950.0 1.9977e-05
19970.0 1.9639e-05
19990.0 1.926e-05
20010.0 1.8858e-05
20030.0 1.8404e-05
20050.0 1.7909e-05
20070.0 1.741e-05
20090.0 1.6911e-05
20110.0 1.6391e-05
20130.0 1.591e-05
20150.0 1.5474e-05
20170.0 1.5062e-05
20190.0 1.4685e-05
20210.0 1.4364e-05
20230.0 1.4083e-05
20250.0 1.3831e-05
20270.0 1.3625e-05
20290.0 1.346e-05
20310.0 1.3326e-05
20330.0 1.3223e-05
20350.0 1.3158e-05
20370.0 1.312e-05
20390.0 1.311e-05
20410.0 1.3128e-05
20430.0 1.3169e-05
20450.0 1.324e-05
20470.0 1.3337e-05
20490.0 1.3455e-05
20510.0 1.3598e-05
20530.0 1.3772e-05
20550.0 1.3964e-05
20570.0 1.4169e-05
20590.0 1.4401e-05
20610.0 1.4649e-05
20630.0 1.4901e-05
20650.0 1.5163e-05
20670.0 1.5445e-05
20690.0 1.5714e-05
20710.0 1.5975e-05
20730.0 1.6238e-05
20750.0 1.6495e-05
20770.0 1.6729e-05
20790.0 1.6959e-05
20810.0 1.7188e-05
20830.0 1.7402e-05
20850.0 1.7608e-05
20870.0 1.7824e-05
20890.0 1.8042e-05
20910.0 1.8254e-05
20930.0 1.8478e-05
20950.0 1.8716e-05
20970.0 1.8954e-05
20990.0 1.9194e-05
21010.0 1.9452e-05
21030.0 1.9705e-05
21050.0 1.9945e-05
21070.0 2.0179e-05
21090.0 2.0405e-05
21110.0 2.0599e-05
21130.0 2.0767e-05
21150.0 2.0913e-05
21170.0 2.1024e-05
21190.0 2.1099e-05
21210.0 2.1144e-05
21230.0 2.1152e-05
21250.0 2.1126e-05
21270.0 2.1066e-05
21290.0 2.0973e-05
21310.0 2.0848e-05
21330.0 2.0702e-05
21350.0 2.0525e-05
21370.0 2.0322e-05
21390.0 2.0105e-05
21410.0 1.9872e-05
21430.0 1.961e-05
21450.0 1.9345e-05
21470.0 1.908e-05
21490.0 1.8804e-05
21510.0 1.8523e-05
21530.0 1.8257e-05
21550.0 1.7997e-05
21570.0 1.7737e-05
21590.0 1.7498e-05
21610.0 1.7281e-05
21630.0 1.7079e-05
21650.0 1.6898e-05
21670.0 1.6754e-05
21690.0 1.6636e-05
21710.0 1.6545e-05
21730.0 1.6489e-05
21750.0 1.6464e-05
21770.0 1.6472e-05
21790.0 1.6515e-05
21810.0 1.6588e-05
21830.0 1.6691e-05
21850.0 1.683e-05
21870.0 1.6994e-05
21890.0 1.7177e-05
21910.0 1.7392e-05
21930.0 1.7629e-05
21950.0 1.7876e-05
21970.0 1.8142e-05
21990.0 1.8436e-05
22010.0 1.8726e-05
22030.0 1.902e-05
22050.0 1.9327e-05
22070.0 1.9636e-05
22090.0 1.9928e-05
22110.0 2.0222e-05
22130.0 2.0515e-05
22150.0 2.0785e-05
22170.0 2.1037e-05
22190.0 2.128e-05
22210.0 2.1497e-05
22230.0 2.1677e-05
22250.0 2.1833e-05
22270.0 2.1958e-05
22290.0 2.2043e-05
22310.0 2.2092e-05
22330.0 2.2102e-05
22350.0 2.2068e-05
22370.0 2.1994e-05
22390.0 2.1876e-05
22410.0 2.1708e-05
22430.0 2.1506e-05
22450.0 2.1266e-05
22470.0 2.0977e-05
22490.0 2.0654e-05
22510.0 2.031e-05
22530.0 1.992e-05
22550.0 1.9494e-05
22570.0 1.9062e-05
22590.0 1.8612e-05
22610.0 1.8129e-05
22630.0 1.7641e-05
22650.0 1.7165e-05
