#lamb flux
1010.0 1.227e-05
1030.0 1.3127e-05
1050.0 1.4246e-05
1070.0 1.601e-05
1090.0 1.8548e-05
1110.0 2.1185e-05
1130.0 2.3865e-05
1150.0 2.669e-05
1170.0 2.9575e-05
1190.0 3.2209e-05
1210.0 3.4729e-05
1230.0 3.7115e-05
1250.0 3.927e-05
1270.0 4.0988e-05
1290.0 4.2431e-05
1310.0 4.3412e-05
1330.0 4.3828e-05
1350.0 4.3826e-05
1370.0 4.3479e-05
1390.0 4.2714e-05
1410.0 4.1605e-05
1430.0 4.0355e-05
1450.0 3.895e-05
1470.0 3.7417e-05
1490.0 3.5893e-05
1510.0 3.4483e-05
1530.0 3.3099e-05
1550.0 3.1845e-05
1570.0 3.08e-05
1590.0 2.9956e-05
1610.0 2.9352e-05
1630.0 2.9241e-05
1650.0 2.9454e-05
1670.0 2.9974e-05
1690.0 3.0843e-05
1710.0 3.2132e-05
1730.0 3.3844e-05
1750.0 3.5948e-05
1770.0 3.8556e-05
1790.0 4.1695e-05
1810.0 4.5346e-05
1830.0 4.9545e-05
1850.0 5.4409e-05
1870.0 5.986e-05
1890.0 6.5887e-05
1910.0 7.2559e-05
1930.0 7.9879e-05
1950.0 8.7701e-05
1970.0 9.6026e-05
1990.0 0.00010489
2010.0 0.00011412
2030.0 0.00012358
2050.0 0.0001333
2070.0 0.00014318
2090.0 0.00015291
2110.0 0.00016248
2130.0 0.00017188
2150.0 0.00018088
2170.0 0.0001893
2190.0 0.0001973
2210.0 0.00020472
2230.0 0.00021138
2250.0 0.00021736
2270.0 0.00022281
2290.0 0.0002275
2310.0 0.00023144
2330.0 0.00023489
2350.0 0.00023787
2370.0 0.00024029
2390.0 0.00024244
2410.0 0.00024461
2430.0 0.00024671
2450.0 0.00024895
2470.0 0.00025177
2490.0 0.00025537
2510.0 0.00025953
2530.0 0.00026502
2550.0 0.00027274
2570.0 0.00028319
2590.0 0.00029732
2610.0 0.00031828
2630.0 0.00034649
2650.0 0.00038072
2670.0 0.00042199
2690.0 0.00046978
2710.0 0.00051897
2730.0 0.00056754
2750.0 0.00061764
2770.0 0.00066635
2790.0 0.00071292
2810.0 0.0007606
2830.0 0.0008123
2850.0 0.00086387
2870.0 0.00091772
2890.0 0.00097613
2910.0 0.0010372
2930.0 0.0010984
2950.0 0.0011639
2970.0 0.0012331
2990.0 0.0013028
3010.0 0.0013744
3030.0 0.0014506
3050.0 0.0015288
3070.0 0.001605
3090.0 0.0016827
3110.0 0.0017583
3130.0 0.0018266
3150.0 0.0018859
3170.0 0.0019343
3190.0 0.0019697
3210.0 0.0019971
3230.0 0.0020199
3250.0 0.0020382
3270.0 0.0020575
3290.0 0.0020841
3310.0 0.0021232
3330.0 0.0021736
3350.0 0.0022319
3370.0 0.0022959
3390.0 0.0023513
3410.0 0.0024111
3430.0 0.0025603
3450.0 0.0026684
3470.0 0.002741
3490.0 0.0028035
3510.0 0.002965
3530.0 0.003514
3550.0 0.0040698
3570.0 0.0044537
3590.0 0.0049081
3610.0 0.0049146
3630.0 0.0045834
3650.0 0.0048825
3670.0 0.005817
3690.0 0.006525
3710.0 0.0067752
3730.0 0.0068733
3750.0 0.0073101
3770.0 0.0073465
3790.0 0.0070167
3810.0 0.0066077
3830.0 0.00622
3850.0 0.0062418
3870.0 0.0065583
3890.0 0.0068284
3910.0 0.0070168
3930.0 0.0070519
3950.0 0.0075271
3970.0 0.0080762
3990.0 0.0078164
4010.0 0.0069796
4030.0 0.0062479
4050.0 0.006105
4070.0 0.0063756
4090.0 0.0063718
4110.0 0.0061546
4130.0 0.0060998
4150.0 0.0063326
4170.0 0.0070097
4190.0 0.0074792
4210.0 0.0071389
4230.0 0.0066148
4250.0 0.0063132
4270.0 0.0061255
4290.0 0.0061957
4310.0 0.0063717
4330.0 0.0060598
4350.0 0.0053457
4370.0 0.0047449
4390.0 0.0043293
4410.0 0.0040526
4430.0 0.0041117
4450.0 0.0045022
4470.0 0.0049143
4490.0 0.005303
4510.0 0.0059378
4530.0 0.0071245
4550.0 0.0084093
4570.0 0.0091846
4590.0 0.0098159
4610.0 0.010447
4630.0 0.010656
4650.0 0.0098979
4670.0 0.0084551
4690.0 0.0073359
4710.0 0.006967
4730.0 0.0066934
4750.0 0.0059284
4770.0 0.0053283
4790.0 0.0055112
4810.0 0.0059871
4830.0 0.0059007
4850.0 0.0053293
4870.0 0.0053562
4890.0 0.0055345
4910.0 0.0056959
4930.0 0.0056447
4950.0 0.0055204
4970.0 0.005277
4990.0 0.0048668
5010.0 0.004524
5030.0 0.0043662
5050.0 0.0042944
5070.0 0.0042505
5090.0 0.0042135
5110.0 0.004206
5130.0 0.0042833
5150.0 0.0045145
5170.0 0.0049533
5190.0 0.0055077
5210.0 0.0060191
5230.0 0.0063262
5250.0 0.0064909
5270.0 0.0067688
5290.0 0.0070165
5310.0 0.0070373
5330.0 0.0067835
5350.0 0.0065147
5370.0 0.0065209
5390.0 0.0067799
5410.0 0.0070014
5430.0 0.0070169
5450.0 0.0069381
5470.0 0.0067506
5490.0 0.0065411
5510.0 0.0064496
5530.0 0.0064859
5550.0 0.0065756
5570.0 0.0066257
5590.0 0.0064291
5610.0 0.0060675
5630.0 0.0057356
5650.0 0.0054731
5670.0 0.0053035
5690.0 0.0050782
5710.0 0.0049194
5730.0 0.0049738
5750.0 0.0049488
5770.0 0.0048515
5790.0 0.0048953
5810.0 0.0050285
5830.0 0.0051388
5850.0 0.0051715
5870.0 0.0050509
5890.0 0.004838
5910.0 0.0046212
5930.0 0.0043283
5950.0 0.0041081
5970.0 0.0041222
5990.0 0.004236
6010.0 0.0042548
6030.0 0.0041026
6050.0 0.0040647
6070.0 0.0042184
6090.0 0.0043887
6110.0 0.0044145
6130.0 0.0042287
6150.0 0.0039632
6170.0 0.0038045
6190.0 0.0036771
6210.0 0.0035522
6230.0 0.0034567
6250.0 0.0034388
6270.0 0.0035316
6290.0 0.0036842
6310.0 0.0038666
6330.0 0.0040584
6350.0 0.0041949
6370.0 0.0042374
6390.0 0.0042295
6410.0 0.0042726
6430.0 0.0043295
6450.0 0.0043343
6470.0 0.0043673
6490.0 0.0044149
6510.0 0.0044203
6530.0 0.0043645
6550.0 0.0042394
6570.0 0.0040921
6590.0 0.003982
6610.0 0.0038974
6630.0 0.0038211
6650.0 0.0036909
6670.0 0.0035433
6690.0 0.003433
6710.0 0.003366
6730.0 0.00334
6750.0 0.0033038
6770.0 0.0032473
6790.0 0.0031933
6810.0 0.0031492
6830.0 0.0031409
6850.0 0.0031294
6870.0 0.0030969
6890.0 0.0030854
6910.0 0.0030308
6930.0 0.0029674
6950.0 0.0029602
6970.0 0.0029267
6990.0 0.0028502
7010.0 0.0028055
7030.0 0.0027619
7050.0 0.0027057
7070.0 0.0026406
7090.0 0.0025857
7110.0 0.0026143
7130.0 0.0026983
7150.0 0.0027835
7170.0 0.0028375
7190.0 0.0028242
7210.0 0.0027844
7230.0 0.0027484
7250.0 0.0027128
7270.0 0.0026761
7290.0 0.0026378
7310.0 0.0026147
7330.0 0.0026502
7350.0 0.0026776
7370.0 0.0026859
7390.0 0.0026586
7410.0 0.0026038
7430.0 0.0025809
7450.0 0.002561
7470.0 0.0024547
7490.0 0.0023645
7510.0 0.002261
7530.0 0.0021824
7550.0 0.0021557
7570.0 0.0021846
7590.0 0.0021674
7610.0 0.0021438
7630.0 0.0021293
7650.0 0.0021266
7670.0 0.0021669
7690.0 0.0022534
7710.0 0.002334
7730.0 0.0024137
7750.0 0.0024747
7770.0 0.0025109
7790.0 0.0025039
7810.0 0.0024551
7830.0 0.0024766
7850.0 0.0024687
7870.0 0.0023998
7890.0 0.0023186
7910.0 0.0022467
7930.0 0.002179
7950.0 0.0021355
7970.0 0.002133
7990.0 0.0021575
8010.0 0.0021495
8030.0 0.0021252
8050.0 0.0020869
8070.0 0.0020471
8090.0 0.0020048
8110.0 0.0020097
8130.0 0.0020267
8150.0 0.0020264
8170.0 0.0020108
8190.0 0.001976
8210.0 0.0018865
8230.0 0.0017614
8250.0 0.0016835
8270.0 0.0016367
8290.0 0.001612
8310.0 0.001621
8330.0 0.0016541
8350.0 0.0016216
8370.0 0.0015833
8390.0 0.0016069
8410.0 0.0016688
8430.0 0.0017657
8450.0 0.0018569
8470.0 0.001887
8490.0 0.0019101
8510.0 0.0019078
8530.0 0.0019068
8550.0 0.001924
8570.0 0.001929
8590.0 0.001931
8610.0 0.0019844
8630.0 0.0020034
8650.0 0.0019604
8670.0 0.0019578
8690.0 0.001968
8710.0 0.0019519
8730.0 0.0019336
8750.0 0.0018764
8770.0 0.0018511
8790.0 0.0018344
8810.0 0.0018146
8830.0 0.0017231
8850.0 0.0015923
8870.0 0.0014943
8890.0 0.0014384
8910.0 0.0013515
8930.0 0.0012586
8950.0 0.0012181
8970.0 0.0012112
8990.0 0.0012149
9010.0 0.0012068
9030.0 0.0011983
9050.0 0.0011904
9070.0 0.0011829
9090.0 0.0011755
9110.0 0.0011681
9130.0 0.0011607
9150.0 0.0011533
9170.0 0.001146
9190.0 0.0011386
9210.0 0.0011312
9230.0 0.001124
9250.0 0.0011167
9270.0 0.0011095
9290.0 0.0011023
9310.0 0.0010951
9330.0 0.0010879
9350.0 0.0010808
9370.0 0.0010737
9390.0 0.0010666
9410.0 0.0010595
9430.0 0.0010525
9450.0 0.0010453
9470.0 0.0010383
9490.0 0.0010316
9510.0 0.0010247
9530.0 0.0010179
9550.0 0.0010111
9570.0 0.0010043
9590.0 0.00099757
9610.0 0.00099086
9630.0 0.00098418
9650.0 0.00097753
9670.0 0.00097095
9690.0 0.00096437
9710.0 0.00095783
9730.0 0.00095135
9750.0 0.00094488
9770.0 0.00093845
9790.0 0.00093205
9810.0 0.00092571
9830.0 0.00091924
9850.0 0.00091196
9870.0 0.00090592
9890.0 0.00090007
9910.0 0.00089412
9930.0 0.00088792
9950.0 0.00088201
9970.0 0.000876
9990.0 0.00086987
10010.0 0.00086302
10030.0 0.00085673
10050.0 0.00085123
10070.0 0.00084567
10090.0 0.00084008
10110.0 0.0008341
10130.0 0.0008272
10150.0 0.00082165
10170.0 0.0008163
10190.0 0.00081065
10210.0 0.00080514
10230.0 0.00079966
10250.0 0.00079394
10270.0 0.00078826
10290.0 0.00078277
10310.0 0.00077712
10330.0 0.00077132
10350.0 0.00076579
10370.0 0.0007603
10390.0 0.00075464
10410.0 0.00074904
10430.0 0.00074368
10450.0 0.00073816
10470.0 0.00073255
10490.0 0.00072714
10510.0 0.00072177
10530.0 0.00071611
10550.0 0.00071061
10570.0 0.00070531
10590.0 0.00069986
10610.0 0.00069433
10630.0 0.00068902
10650.0 0.00068371
10670.0 0.00067815
10690.0 0.00067274
10710.0 0.00066746
10730.0 0.00066203
10750.0 0.00065644
10770.0 0.0006512
10790.0 0.00064589
10810.0 0.00064042
10830.0 0.00063505
10850.0 0.00062986
10870.0 0.00062437
10890.0 0.00061892
10910.0 0.00061372
10930.0 0.00060852
10950.0 0.00060324
10970.0 0.0005982
10990.0 0.00059348
11010.0 0.00060235
11030.0 0.00059817
11050.0 0.0005942
11070.0 0.0005902
11090.0 0.00058596
11110.0 0.00058186
11130.0 0.00057775
11150.0 0.00057345
11170.0 0.00056908
11190.0 0.0005649
11210.0 0.00056062
11230.0 0.00055629
11250.0 0.00055217
11270.0 0.00054821
11290.0 0.00054423
11310.0 0.00054039
11330.0 0.00053689
11350.0 0.00053346
11370.0 0.00053009
11390.0 0.00052694
11410.0 0.00052392
11430.0 0.00052082
11450.0 0.00051781
11470.0 0.00051489
11490.0 0.00051188
11510.0 0.00050871
11530.0 0.00050557
11550.0 0.00050233
11570.0 0.00049882
11590.0 0.00049518
11610.0 0.00049149
11630.0 0.00048751
11650.0 0.00048326
11670.0 0.00047905
11690.0 0.00047473
11710.0 0.00047017
11730.0 0.0004656
11750.0 0.00046118
11770.0 0.00045661
11790.0 0.00045201
11810.0 0.00044762
11830.0 0.00044332
11850.0 0.00043891
11870.0 0.00043473
11890.0 0.0004308
11910.0 0.00042688
11930.0 0.00042305
11950.0 0.0004195
11970.0 0.00041606
11990.0 0.00041264
12010.0 0.00040946
12030.0 0.0004065
12050.0 0.00040363
12070.0 0.0004009
12090.0 0.0003985
12110.0 0.00039626
12130.0 0.00039418
12150.0 0.00039236
12170.0 0.0003908
12190.0 0.00038942
12210.0 0.00038831
12230.0 0.00038748
12250.0 0.00038688
12270.0 0.00038654
12290.0 0.00038643
12310.0 0.00038653
12330.0 0.00038685
12350.0 0.00038733
12370.0 0.00038793
12390.0 0.00038863
12410.0 0.00038944
12430.0 0.00039021
12450.0 0.00039093
12470.0 0.00039161
12490.0 0.00039215
12510.0 0.00039249
12530.0 0.00039265
12550.0 0.00039254
12570.0 0.00039215
12590.0 0.00039144
12610.0 0.00039038
12630.0 0.00038895
12650.0 0.00038723
12670.0 0.00038515
12690.0 0.00038269
12710.0 0.00038
12730.0 0.00037709
12750.0 0.00037379
12770.0 0.00037036
12790.0 0.00036687
12810.0 0.00036321
12830.0 0.00035937
12850.0 0.00035567
12870.0 0.00035196
12890.0 0.00034814
12910.0 0.0003444
12930.0 0.00034081
12950.0 0.00033713
12970.0 0.00033344
12990.0 0.00032997
13010.0 0.00032654
13030.0 0.00032306
13050.0 0.0003197
13070.0 0.00031652
13090.0 0.0003133
13110.0 0.00031015
13130.0 0.00030719
13150.0 0.00030434
13170.0 0.00030149
13190.0 0.00029887
13210.0 0.00029646
13230.0 0.00029411
13250.0 0.00029188
13270.0 0.00028987
13290.0 0.00028794
13310.0 0.00028604
13330.0 0.00028428
13350.0 0.00028261
13370.0 0.00028093
13390.0 0.00027925
13410.0 0.00027766
13430.0 0.00027604
13450.0 0.00027436
13470.0 0.00027268
13490.0 0.00027102
13510.0 0.00026922
13530.0 0.0002674
13550.0 0.00026561
13570.0 0.00026377
13590.0 0.00026184
13610.0 0.00025995
13630.0 0.00025809
13650.0 0.00025613
13670.0 0.00025418
13690.0 0.00025228
13710.0 0.00025034
13730.0 0.0002483
13750.0 0.00024637
13770.0 0.00024444
13790.0 0.00024243
13810.0 0.00024042
13830.0 0.00023848
13850.0 0.00023644
13870.0 0.00023434
13890.0 0.00023228
13910.0 0.00023021
13930.0 0.00022801
13950.0 0.00022579
13970.0 0.00022364
13990.0 0.00022139
14010.0 0.00021906
14030.0 0.00021678
14050.0 0.0002145
14070.0 0.00021206
14090.0 0.00020968
14110.0 0.00020737
14130.0 0.00020501
14150.0 0.00020264
14170.0 0.00020042
14190.0 0.00019826
14210.0 0.0001961
14230.0 0.00019405
14250.0 0.00019216
14270.0 0.00019027
14290.0 0.00018846
14310.0 0.00018683
14330.0 0.00018527
14350.0 0.00018374
14370.0 0.00018232
14390.0 0.00018102
14410.0 0.00017971
14430.0 0.00017846
14450.0 0.00017729
14470.0 0.00017617
14490.0 0.00017503
14510.0 0.00017398
14530.0 0.000173
14550.0 0.00017201
14570.0 0.00017106
14590.0 0.00017018
14610.0 0.00016932
14630.0 0.00016846
14650.0 0.00016767
14670.0 0.00016692
14690.0 0.00016619
14710.0 0.00016549
14730.0 0.00016489
14750.0 0.00016433
14770.0 0.00016382
14790.0 0.0001634
14810.0 0.00016308
14830.0 0.00016284
14850.0 0.00016271
14870.0 0.00016272
14890.0 0.00016283
14910.0 0.00016305
14930.0 0.00016336
14950.0 0.00016371
14970.0 0.00016409
14990.0 0.00016444
15010.0 0.00016473
15030.0 0.00016494
15050.0 0.00016508
15070.0 0.00016514
15090.0 0.00016515
15110.0 0.00016512
15130.0 0.00016506
15150.0 0.00016499
15170.0 0.00016491
15190.0 0.00016483
15210.0 0.00016476
15230.0 0.00016469
15250.0 0.00016461
15270.0 0.00016454
15290.0 0.00016449
15310.0 0.00016442
15330.0 0.00016436
15350.0 0.00016431
15370.0 0.00016426
15390.0 0.0001642
15410.0 0.00016415
15430.0 0.00016411
15450.0 0.00016407
15470.0 0.00016403
15490.0 0.00016399
15510.0 0.00016396
15530.0 0.00016393
15550.0 0.0001639
15570.0 0.00016388
15590.0 0.00016386
15610.0 0.00016383
15630.0 0.00016382
15650.0 0.00016381
15670.0 0.00016379
15690.0 0.00016378
15710.0 0.00016378
15730.0 0.00016377
15750.0 0.00016377
15770.0 0.00016377
15790.0 0.00016378
15810.0 0.00016378
15830.0 0.00016378
15850.0 0.0001638
15870.0 0.00016381
15890.0 0.00016382
15910.0 0.00016385
15930.0 0.00016387
15950.0 0.00016388
15970.0 0.00016391
15990.0 0.00016394
16010.0 0.00016396
16030.0 0.00016399
16050.0 0.00016402
16070.0 0.00016406
16090.0 0.00016409
16110.0 0.00016413
16130.0 0.00016418
16150.0 0.00016421
16170.0 0.00016425
16190.0 0.0001643
16210.0 0.00016434
16230.0 0.00016438
16250.0 0.00016443
16270.0 0.00016449
16290.0 0.00016454
16310.0 0.00016459
16330.0 0.00016465
16350.0 0.0001647
16370.0 0.00016475
16390.0 0.00016481
16410.0 0.00016487
16430.0 0.00016492
16450.0 0.00016498
16470.0 0.00016505
16490.0 0.0001651
16510.0 0.00016516
16530.0 0.00016522
16550.0 0.00016529
16570.0 0.00016534
16590.0 0.0001654
16610.0 0.00016547
16630.0 0.00016553
16650.0 0.00016559
16670.0 0.00016566
16690.0 0.00016572
16710.0 0.00016577
16730.0 0.00016583
16750.0 0.0001659
16770.0 0.00016596
16790.0 0.00016601
16810.0 0.00016607
16830.0 0.00016613
16850.0 0.00016618
16870.0 0.00016624
16890.0 0.0001663
16910.0 0.00016635
16930.0 0.00016639
16950.0 0.00016645
16970.0 0.0001665
16990.0 0.00016654
17010.0 0.00016659
17030.0 0.00016664
17050.0 0.00016668
17070.0 0.00016671
17090.0 0.00016676
17110.0 0.00016679
17130.0 0.00016682
17150.0 0.00016685
17170.0 0.00016688
17190.0 0.00016691
17210.0 0.00016693
17230.0 0.00016696
17250.0 0.00016697
17270.0 0.00016698
17290.0 0.000167
17310.0 0.00016701
17330.0 0.00016701
17350.0 0.00016701
17370.0 0.00016701
17390.0 0.00016701
17410.0 0.000167
17430.0 0.00016699
17450.0 0.00016698
17470.0 0.00016695
17490.0 0.00016693
17510.0 0.0001669
17530.0 0.00016687
17550.0 0.00016683
17570.0 0.0001668
17590.0 0.00016676
17610.0 0.0001667
17630.0 0.00016665
17650.0 0.0001666
17670.0 0.00016654
17690.0 0.00016646
17710.0 0.00016639
17730.0 0.00016632
17750.0 0.00016623
17770.0 0.00016615
17790.0 0.00016606
17810.0 0.00016596
17830.0 0.00016586
17850.0 0.00016575
17870.0 0.00016565
17890.0 0.00016552
17910.0 0.00016539
17930.0 0.00016527
17950.0 0.00016514
17970.0 0.00016499
17990.0 0.00016485
18010.0 0.00016471
18030.0 0.00016454
18050.0 0.00016438
18070.0 0.00016421
18090.0 0.00016404
18110.0 0.00016385
18130.0 0.00016367
18150.0 0.00016348
18170.0 0.00016328
18190.0 0.00016307
18210.0 0.00016287
18230.0 0.00016265
18250.0 0.00016242
18270.0 0.00016219
18290.0 0.00016196
18310.0 0.00016171
18330.0 0.00016146
18350.0 0.00016122
18370.0 0.00016095
18390.0 0.00016068
18410.0 0.00016041
18430.0 0.00016013
18450.0 0.00015984
18470.0 0.00015955
18490.0 0.00015926
18510.0 0.00015895
18530.0 0.00015863
18550.0 0.00015832
18570.0 0.000158
18590.0 0.00015766
18610.0 0.00015733
18630.0 0.00015699
18650.0 0.00015663
18670.0 0.00015627
18690.0 0.00015592
18710.0 0.00015555
18730.0 0.00015517
18750.0 0.0001548
18770.0 0.00015442
18790.0 0.00015402
18810.0 0.00015361
18830.0 0.00015322
18850.0 0.00015281
18870.0 0.00015238
18890.0 0.00015197
18910.0 0.00015154
18930.0 0.0001511
18950.0 0.00015066
18970.0 0.00015022
18990.0 0.00014977
19010.0 0.0001493
19030.0 0.00014885
19050.0 0.00014838
19070.0 0.00014791
19090.0 0.00014743
19110.0 0.00014695
19130.0 0.00014646
19150.0 0.00014596
19170.0 0.00014547
19190.0 0.00014496
19210.0 0.00014445
19230.0 0.00014393
19250.0 0.00014342
19270.0 0.0001429
19290.0 0.00014236
19310.0 0.00014184
19330.0 0.0001413
19350.0 0.00014075
19370.0 0.0001402
19390.0 0.00013966
19410.0 0.0001391
19430.0 0.00013854
19450.0 0.00013798
19470.0 0.00013742
19490.0 0.00013684
19510.0 0.00013627
19530.0 0.00013569
19550.0 0.00013511
19570.0 0.00013451
19590.0 0.00013393
19610.0 0.00013334
19630.0 0.00013274
19650.0 0.00013214
19670.0 0.00013155
19690.0 0.00013094
19710.0 0.00013033
19730.0 0.00012972
19750.0 0.00012911
19770.0 0.00012849
19790.0 0.00012787
19810.0 0.00012725
19830.0 0.00012663
19850.0 0.00012599
19870.0 0.00012536
19890.0 0.0001247
19910.0 0.00012401
19930.0 0.00012328
19950.0 0.00012248
19970.0 0.00012158
19990.0 0.00012054
20010.0 0.00011941
20030.0 0.00011811
20050.0 0.00011665
20070.0 0.00011512
20090.0 0.0001135
20110.0 0.00011175
20130.0 0.00010999
20150.0 0.00010827
20170.0 0.00010652
20190.0 0.00010476
20210.0 0.00010309
20230.0 0.00010145
20250.0 9.9806e-05
20270.0 9.8244e-05
20290.0 9.6769e-05
20310.0 9.5323e-05
20330.0 9.3911e-05
20350.0 9.2635e-05
20370.0 9.1413e-05
20390.0 9.0234e-05
20410.0 8.914e-05
20430.0 8.8134e-05
20450.0 8.7158e-05
20470.0 8.625e-05
20490.0 8.5422e-05
20510.0 8.4646e-05
20530.0 8.3913e-05
20550.0 8.3241e-05
20570.0 8.2627e-05
20590.0 8.2044e-05
20610.0 8.1502e-05
20630.0 8.1001e-05
20650.0 8.0528e-05
20670.0 8.0077e-05
20690.0 7.9653e-05
20710.0 7.9245e-05
20730.0 7.8845e-05
20750.0 7.845e-05
20770.0 7.8057e-05
20790.0 7.7657e-05
20810.0 7.7243e-05
20830.0 7.6815e-05
20850.0 7.6368e-05
20870.0 7.5891e-05
20890.0 7.5383e-05
20910.0 7.4853e-05
20930.0 7.4288e-05
20950.0 7.3682e-05
20970.0 7.3051e-05
20990.0 7.2395e-05
21010.0 7.169e-05
21030.0 7.096e-05
21050.0 7.0218e-05
21070.0 6.9445e-05
21090.0 6.8637e-05
21110.0 6.7837e-05
21130.0 6.7031e-05
21150.0 6.62e-05
21170.0 6.5371e-05
21190.0 6.4562e-05
21210.0 6.3737e-05
21230.0 6.2908e-05
21250.0 6.2113e-05
21270.0 6.1332e-05
21290.0 6.055e-05
21310.0 5.979e-05
21330.0 5.907e-05
21350.0 5.8353e-05
21370.0 5.7651e-05
21390.0 5.6983e-05
21410.0 5.6337e-05
21430.0 5.5688e-05
21450.0 5.507e-05
21470.0 5.448e-05
21490.0 5.3896e-05
21510.0 5.3321e-05
21530.0 5.2773e-05
21550.0 5.2233e-05
21570.0 5.169e-05
21590.0 5.1164e-05
21610.0 5.0652e-05
21630.0 5.0138e-05
21650.0 4.9622e-05
21670.0 4.9129e-05
21690.0 4.8637e-05
21710.0 4.814e-05
21730.0 4.7653e-05
21750.0 4.7177e-05
21770.0 4.6688e-05
21790.0 4.6203e-05
21810.0 4.573e-05
21830.0 4.5255e-05
21850.0 4.4771e-05
21870.0 4.4296e-05
21890.0 4.3829e-05
21910.0 4.3351e-05
21930.0 4.2872e-05
21950.0 4.2403e-05
21970.0 4.1929e-05
21990.0 4.144e-05
22010.0 4.0967e-05
22030.0 4.0499e-05
22050.0 4.0022e-05
22070.0 3.9548e-05
22090.0 3.9092e-05
22110.0 3.8633e-05
22130.0 3.8172e-05
22150.0 3.7728e-05
22170.0 3.7296e-05
22190.0 3.6861e-05
22210.0 3.6437e-05
22230.0 3.6038e-05
22250.0 3.5644e-05
22270.0 3.5256e-05
22290.0 3.4889e-05
22310.0 3.4536e-05
22330.0 3.4182e-05
22350.0 3.3844e-05
22370.0 3.3521e-05
22390.0 3.3204e-05
22410.0 3.2888e-05
22430.0 3.2589e-05
22450.0 3.2297e-05
22470.0 3.2004e-05
22490.0 3.1717e-05
22510.0 3.1439e-05
22530.0 3.1157e-05
22550.0 3.0874e-05
22570.0 3.0601e-05
22590.0 3.033e-05
22610.0 3.0055e-05
22630.0 2.9785e-05
22650.0 2.9525e-05
22670.0 2.9262e-05
22690.0 2.9002e-05
22710.0 2.8754e-05
22730.0 2.8511e-05
22750.0 2.8267e-05
22770.0 2.8037e-05
22790.0 2.7821e-05
22810.0 2.761e-05
22830.0 2.741e-05
22850.0 2.7229e-05
22870.0 2.7059e-05
22890.0 2.6901e-05
22910.0 2.6763e-05
22930.0 2.6644e-05
22950.0 2.6542e-05
22970.0 2.646e-05
22990.0 2.64e-05
