#lamb flux
1010.0 2.8667e-07
1030.0 2.9966e-07
1050.0 3.1473e-07
1070.0 3.3173e-07
1090.0 3.5107e-07
1110.0 3.7099e-07
1130.0 3.9115e-07
1150.0 4.1238e-07
1170.0 4.344e-07
1190.0 4.5546e-07
1210.0 4.7695e-07
1230.0 4.9931e-07
1250.0 5.2142e-07
1270.0 5.4312e-07
1290.0 5.662e-07
1310.0 5.8948e-07
1330.0 6.121e-07
1350.0 6.352e-07
1370.0 6.5926e-07
1390.0 6.8303e-07
1410.0 7.0643e-07
1430.0 7.3107e-07
1450.0 7.5599e-07
1470.0 7.8045e-07
1490.0 8.0541e-07
1510.0 8.3187e-07
1530.0 8.5737e-07
1550.0 8.8279e-07
1570.0 9.0916e-07
1590.0 9.3572e-07
1610.0 9.6139e-07
1630.0 9.8782e-07
1650.0 1.0149e-06
1670.0 1.0412e-06
1690.0 1.0671e-06
1710.0 1.0938e-06
1730.0 1.1204e-06
1750.0 1.1453e-06
1770.0 1.1705e-06
1790.0 1.1958e-06
1810.0 1.2199e-06
1830.0 1.243e-06
1850.0 1.267e-06
1870.0 1.2896e-06
1890.0 1.3108e-06
1910.0 1.3317e-06
1930.0 1.3524e-06
1950.0 1.3713e-06
1970.0 1.3891e-06
1990.0 1.4069e-06
2010.0 1.4236e-06
2030.0 1.4388e-06
2050.0 1.454e-06
2070.0 1.4691e-06
2090.0 1.4824e-06
2110.0 1.4953e-06
2130.0 1.5084e-06
2150.0 1.521e-06
2170.0 1.5326e-06
2190.0 1.545e-06
2210.0 1.5579e-06
2230.0 1.5703e-06
2250.0 1.5832e-06
2270.0 1.5977e-06
2290.0 1.6125e-06
2310.0 1.6275e-06
2330.0 1.6445e-06
2350.0 1.6631e-06
2370.0 1.6825e-06
2390.0 1.7038e-06
2410.0 1.7281e-06
2430.0 1.7538e-06
2450.0 1.7813e-06
2470.0 1.8117e-06
2490.0 1.8449e-06
2510.0 1.8807e-06
2530.0 1.9233e-06
2550.0 1.9802e-06
2570.0 2.0607e-06
2590.0 2.1771e-06
2610.0 2.3583e-06
2630.0 2.6183e-06
2650.0 2.9525e-06
2670.0 3.3707e-06
2690.0 3.8685e-06
2710.0 4.3936e-06
2730.0 4.918e-06
2750.0 5.4509e-06
2770.0 5.9551e-06
2790.0 6.4194e-06
2810.0 6.8694e-06
2830.0 7.3269e-06
2850.0 7.7714e-06
2870.0 8.2274e-06
2890.0 8.7141e-06
2910.0 9.2243e-06
2930.0 9.745e-06
2950.0 1.0302e-05
2970.0 1.0892e-05
2990.0 1.1494e-05
3010.0 2.283e-05
3030.0 2.4056e-05
3050.0 2.5285e-05
3070.0 2.6423e-05
3090.0 2.7416e-05
3110.0 2.8033e-05
3130.0 2.7995e-05
3150.0 2.6986e-05
3170.0 2.4375e-05
3190.0 2.0078e-05
3210.0 1.414e-05
3230.0 7.4187e-06
3250.0 1.4556e-05
3270.0 6.0329e-06
3290.0 2.2652e-05
3310.0 4.1796e-06
3330.0 4.1254e-06
3350.0 6.4702e-06
3370.0 9.1769e-06
3390.0 1.2068e-05
3410.0 1.4949e-05
3430.0 1.7968e-05
3450.0 2.0982e-05
3470.0 2.3739e-05
3490.0 2.5547e-05
3510.0 3.2142e-05
3530.0 4.4355e-05
3550.0 4.3656e-05
3570.0 3.5536e-05
3590.0 5.1615e-05
3610.0 3.1038e-05
3630.0 5.3678e-05
3650.0 6.2283e-05
3670.0 8.1331e-05
3690.0 7.637e-05
3710.0 5.1076e-05
3730.0 6.9507e-05
3750.0 7.2095e-05
3770.0 7.4984e-05
3790.0 6.8156e-05
3810.0 6.1658e-05
3830.0 9.1755e-05
3850.0 0.00010329
3870.0 0.00012917
3890.0 0.0001212
3910.0 0.00010715
3930.0 0.00011335
3950.0 0.00012687
3970.0 0.00016213
3990.0 0.00012213
4010.0 7.3452e-05
4030.0 0.00010853
4050.0 0.00012572
4070.0 0.00014375
4090.0 0.00012012
4110.0 7.7573e-05
4130.0 0.00010919
4150.0 0.00010172
4170.0 0.000106
4190.0 0.00010403
4210.0 0.00013434
4230.0 9.1202e-05
4250.0 0.00010857
4270.0 0.00010834
4290.0 0.00010843
4310.0 0.00013542
4330.0 0.00013952
4350.0 0.00010571
4370.0 8.9083e-05
4390.0 0.00011244
4410.0 0.00011679
4430.0 8.8577e-05
4450.0 8.8559e-05
4470.0 0.00010517
4490.0 7.6031e-05
4510.0 9.5896e-05
4530.0 0.00010257
4550.0 0.00013632
4570.0 0.00020111
4590.0 0.00019078
4610.0 0.00012087
4630.0 0.00020441
4650.0 0.00029924
4670.0 0.00027561
4690.0 0.00015837
4710.0 0.00017501
4730.0 0.000232
4750.0 0.00020631
4770.0 0.00015468
4790.0 0.00010277
4810.0 0.00015275
4830.0 0.0001777
4850.0 0.00015386
4870.0 4.4011e-05
4890.0 0.00016605
4910.0 0.00023652
4930.0 0.000254
4950.0 0.00024745
4970.0 0.00014534
4990.0 0.00017008
5010.0 0.00020594
5030.0 0.00023158
5050.0 0.00023097
5070.0 0.00016489
5090.0 0.00013366
5110.0 0.00012501
5130.0 0.00011134
5150.0 0.00012649
5170.0 0.00010916
5190.0 0.00013721
5210.0 0.00013724
5230.0 0.00015096
5250.0 0.00019117
5270.0 0.00015665
5290.0 0.00015298
5310.0 0.00023235
5330.0 0.00027121
5350.0 0.00022366
5370.0 0.00019227
5390.0 0.00022376
5410.0 0.00028621
5430.0 0.00031649
5450.0 0.00033725
5470.0 0.00033423
5490.0 0.00032382
5510.0 0.00038212
5530.0 0.00039702
5550.0 0.00042848
5570.0 0.00045864
5590.0 0.00045542
5610.0 0.00042907
5630.0 0.00041354
5650.0 0.0004235
5670.0 0.00041871
5690.0 0.00035444
5710.0 0.00034427
5730.0 0.00035312
5750.0 0.00038863
5770.0 0.00033473
5790.0 0.00030545
5810.0 0.00030895
5830.0 0.00032676
5850.0 0.00029785
5870.0 0.00030198
5890.0 0.00036563
5910.0 0.0003473
5930.0 0.00028038
5950.0 0.00024181
5970.0 0.00026334
5990.0 0.00024385
6010.0 0.00023121
6030.0 0.00023808
6050.0 0.00022181
6070.0 0.00016321
6090.0 0.0001458
6110.0 0.00019375
6130.0 0.00022571
6150.0 0.00023671
6170.0 0.00022746
6190.0 0.00021009
6210.0 0.00020578
6230.0 0.00024452
6250.0 0.00022602
6270.0 0.00020699
6290.0 0.00019151
6310.0 0.00018154
6330.0 0.00017266
6350.0 0.0001501
6370.0 0.00014859
6390.0 0.00017672
6410.0 0.00022094
6430.0 0.00025392
6450.0 0.00023637
6470.0 0.00022927
6490.0 0.00029055
6510.0 0.0003373
6530.0 0.00031802
6550.0 0.00030366
6570.0 0.00030851
6590.0 0.00029919
6610.0 0.00032674
6630.0 0.00030556
6650.0 0.0002665
6670.0 0.00023954
6690.0 0.00023486
6710.0 0.00029412
6730.0 0.00026815
6750.0 0.00022489
6770.0 0.00019901
6790.0 0.00020945
6810.0 0.00023607
6830.0 0.00023105
6850.0 0.00020812
6870.0 0.00021709
6890.0 0.00021448
6910.0 0.00020207
6930.0 0.00023356
6950.0 0.00021443
6970.0 0.00019797
6990.0 0.00019639
7010.0 0.00018865
7030.0 0.00017875
7050.0 0.00017414
7070.0 0.00019285
7090.0 0.00018362
7110.0 0.00015738
7130.0 0.00012594
7150.0 0.00011489
7170.0 0.00015582
7190.0 0.0001702
7210.0 0.00016244
7230.0 0.00016801
7250.0 0.00015471
7270.0 0.00014627
7290.0 0.00016377
7310.0 0.00018574
7330.0 0.0001831
7350.0 0.00017101
7370.0 0.00016145
7390.0 0.0001677
7410.0 0.00019633
7430.0 0.00021534
7450.0 0.00022761
7470.0 0.00022197
7490.0 0.0002312
7510.0 0.00022337
7530.0 0.00022155
7550.0 0.0002202
7570.0 0.00019406
7590.0 0.00019234
7610.0 0.00018603
7630.0 0.00017015
7650.0 0.00018519
7670.0 0.00020202
7690.0 0.00021916
7710.0 0.00024629
7730.0 0.00026182
7750.0 0.00027327
7770.0 0.00027451
7790.0 0.00030131
7810.0 0.00031
7830.0 0.00028259
7850.0 0.00028464
7870.0 0.00027118
7890.0 0.00028488
7910.0 0.00027004
7930.0 0.00027251
7950.0 0.0002375
7970.0 0.00024328
7990.0 0.00023258
8010.0 0.00023635
8030.0 0.00023514
8050.0 0.00024762
8070.0 0.00023787
8090.0 0.0002386
8110.0 0.00023336
8130.0 0.00023326
8150.0 0.00022234
8170.0 0.00021646
8190.0 0.00021406
8210.0 0.00021574
8230.0 0.00019023
8250.0 0.00017377
8270.0 0.00015288
8290.0 0.00012814
8310.0 0.00011123
8330.0 8.9076e-05
8350.0 7.4264e-05
8370.0 7.521e-05
8390.0 7.5207e-05
8410.0 7.8963e-05
8430.0 9.8027e-05
8450.0 0.00010528
8470.0 0.00011174
8490.0 0.00012909
8510.0 0.0001405
8530.0 0.00016144
8550.0 0.00019086
8570.0 0.00021142
8590.0 0.00022517
8610.0 0.00024648
8630.0 0.00027353
8650.0 0.00027845
8670.0 0.00028208
8690.0 0.00029343
8710.0 0.00028931
8730.0 0.0002846
8750.0 0.00026707
8770.0 0.00026732
8790.0 0.0002638
8810.0 0.00024305
8830.0 0.00024357
8850.0 0.00022768
8870.0 0.00021856
8890.0 0.00019836
8910.0 0.00021477
8930.0 0.00019551
8950.0 0.00019304
8970.0 0.00019441
8990.0 0.00018793
9010.0 0.00019201
9030.0 0.00018364
9050.0 0.00018265
9070.0 0.00018251
9090.0 0.00018232
9110.0 0.00018222
9130.0 0.00018197
9150.0 0.00018165
9170.0 0.00018087
9190.0 0.00017936
9210.0 0.00018168
9230.0 0.00018073
9250.0 0.00018007
9270.0 0.00017946
9290.0 0.00017887
9310.0 0.00017831
9330.0 0.00017774
9350.0 0.00017716
9370.0 0.00017658
9390.0 0.00017597
9410.0 0.00017535
9430.0 0.00017471
9450.0 0.00017405
9470.0 0.00017338
9490.0 0.0001727
9510.0 0.00017201
9530.0 0.0001713
9550.0 0.00017059
9570.0 0.00016986
9590.0 0.00016913
9610.0 0.00016838
9630.0 0.00016764
9650.0 0.00016688
9670.0 0.00016613
9690.0 0.00016537
9710.0 0.0001646
9730.0 0.00016384
9750.0 0.00016307
9770.0 0.00016231
9790.0 0.00016155
9810.0 0.00016079
9830.0 0.00016003
9850.0 0.00015928
9870.0 0.00015853
9890.0 0.00015779
9910.0 0.00015705
9930.0 0.00015631
9950.0 0.0001552
9970.0 0.00015459
9990.0 0.00015398
10010.0 0.00015336
10030.0 0.00015272
10050.0 0.00015202
10070.0 0.00015114
10090.0 0.00015057
10110.0 0.00014998
10130.0 0.00014939
10150.0 0.0001488
10170.0 0.0001482
10190.0 0.00014758
10210.0 0.000147
10230.0 0.00014643
10250.0 0.00014585
10270.0 0.00014529
10290.0 0.00014476
10310.0 0.00014423
10330.0 0.00014369
10350.0 0.00014319
10370.0 0.0001427
10390.0 0.00014221
10410.0 0.00014174
10430.0 0.0001413
10450.0 0.00014086
10470.0 0.00014042
10490.0 0.00014002
10510.0 0.00013962
10530.0 0.00013922
10550.0 0.00013884
10570.0 0.00013849
10590.0 0.00013814
10610.0 0.00013779
10630.0 0.00013748
10650.0 0.00013717
10670.0 0.00013687
10690.0 0.00013658
10710.0 0.00013631
10730.0 0.00013605
10750.0 0.00013579
10770.0 0.00013556
10790.0 0.00013534
10810.0 0.00013511
10830.0 0.00013491
10850.0 0.00013471
10870.0 0.00013449
10890.0 0.00013423
10910.0 0.00013391
10930.0 0.00013348
10950.0 0.00013282
10970.0 0.00013192
10990.0 0.00013074
11010.0 0.00013001
11030.0 0.00012808
11050.0 0.00012583
11070.0 0.00012322
11090.0 0.0001202
11110.0 0.00011718
11130.0 0.00011415
11150.0 0.00011102
11170.0 0.00010794
11190.0 0.0001051
11210.0 0.0001023
11230.0 9.9578e-05
11250.0 9.71e-05
11270.0 9.4822e-05
11290.0 9.2621e-05
11310.0 9.0595e-05
11330.0 8.8848e-05
11350.0 8.72e-05
11370.0 8.5652e-05
11390.0 8.4271e-05
11410.0 8.3e-05
11430.0 8.1716e-05
11450.0 8.0501e-05
11470.0 7.9345e-05
11490.0 7.8153e-05
11510.0 7.6891e-05
11530.0 7.5649e-05
11550.0 7.437e-05
11570.0 7.297e-05
11590.0 7.152e-05
11610.0 7.0065e-05
11630.0 6.8488e-05
11650.0 6.6811e-05
11670.0 6.518e-05
11690.0 6.3525e-05
11710.0 6.1794e-05
11730.0 6.0091e-05
11750.0 5.8485e-05
11770.0 5.6847e-05
11790.0 5.5237e-05
11810.0 5.375e-05
11830.0 5.2335e-05
11850.0 5.0914e-05
11870.0 4.9624e-05
11890.0 4.8458e-05
11910.0 4.7322e-05
11930.0 4.6243e-05
11950.0 4.5276e-05
11970.0 4.4352e-05
11990.0 4.3431e-05
12010.0 4.2584e-05
12030.0 4.1796e-05
12050.0 4.1012e-05
12070.0 4.0241e-05
12090.0 3.9561e-05
12110.0 3.8903e-05
12130.0 3.8262e-05
12150.0 3.7689e-05
12170.0 3.7193e-05
12190.0 3.6726e-05
12210.0 3.6351e-05
12230.0 3.609e-05
12250.0 3.593e-05
12270.0 3.5884e-05
12290.0 3.5979e-05
12310.0 3.6208e-05
12330.0 3.658e-05
12350.0 3.7098e-05
12370.0 3.7734e-05
12390.0 3.8495e-05
12410.0 3.9401e-05
12430.0 4.0356e-05
12450.0 4.1362e-05
12470.0 4.2433e-05
12490.0 4.3518e-05
12510.0 4.4555e-05
12530.0 4.5588e-05
12550.0 4.6592e-05
12570.0 4.7508e-05
12590.0 4.8346e-05
12610.0 4.9128e-05
12630.0 4.982e-05
12650.0 5.0405e-05
12670.0 5.0919e-05
12690.0 5.1355e-05
12710.0 5.1707e-05
12730.0 5.1988e-05
12750.0 5.2199e-05
12770.0 5.2341e-05
12790.0 5.2426e-05
12810.0 5.2448e-05
12830.0 5.2402e-05
12850.0 5.2312e-05
12870.0 5.217e-05
12890.0 5.1955e-05
12910.0 5.1689e-05
12930.0 5.1384e-05
12950.0 5.1e-05
12970.0 5.0542e-05
12990.0 5.006e-05
13010.0 4.9523e-05
13030.0 4.8908e-05
13050.0 4.8258e-05
13070.0 4.76e-05
13090.0 4.6874e-05
13110.0 4.6116e-05
13130.0 4.5379e-05
13150.0 4.4643e-05
13170.0 4.3879e-05
13190.0 4.3182e-05
13210.0 4.2559e-05
13230.0 4.1975e-05
13250.0 4.1465e-05
13270.0 4.1066e-05
13290.0 4.0751e-05
13310.0 4.0517e-05
13330.0 4.0389e-05
13350.0 4.0347e-05
13370.0 4.0371e-05
13390.0 4.045e-05
13410.0 4.0563e-05
13430.0 4.0685e-05
13450.0 4.0796e-05
13470.0 4.0873e-05
13490.0 4.0903e-05
13510.0 4.0862e-05
13530.0 4.0743e-05
13550.0 4.0554e-05
13570.0 4.0287e-05
13590.0 3.9935e-05
13610.0 3.9535e-05
13630.0 3.9102e-05
13650.0 3.8614e-05
13670.0 3.8109e-05
13690.0 3.7618e-05
13710.0 3.7124e-05
13730.0 3.6621e-05
13750.0 3.6172e-05
13770.0 3.5751e-05
13790.0 3.5342e-05
13810.0 3.4961e-05
13830.0 3.4618e-05
13850.0 3.428e-05
13870.0 3.3949e-05
13890.0 3.3637e-05
13910.0 3.3333e-05
13930.0 3.3017e-05
13950.0 3.2704e-05
13970.0 3.2406e-05
13990.0 3.2102e-05
14010.0 3.1798e-05
14030.0 3.1511e-05
14050.0 3.1238e-05
14070.0 3.0968e-05
14090.0 3.0725e-05
14110.0 3.0512e-05
14130.0 3.032e-05
14150.0 3.0155e-05
14170.0 3.0024e-05
14190.0 2.9921e-05
14210.0 2.9847e-05
14230.0 2.9804e-05
14250.0 2.9788e-05
14270.0 2.9803e-05
14290.0 2.9849e-05
14310.0 2.9916e-05
14330.0 3.0008e-05
14350.0 3.0127e-05
14370.0 3.0261e-05
14390.0 3.0401e-05
14410.0 3.0559e-05
14430.0 3.0723e-05
14450.0 3.0877e-05
14470.0 3.1026e-05
14490.0 3.1176e-05
14510.0 3.1305e-05
14530.0 3.1415e-05
14550.0 3.1521e-05
14570.0 3.1618e-05
14590.0 3.1702e-05
14610.0 3.1791e-05
14630.0 3.1896e-05
14650.0 3.2009e-05
14670.0 3.2142e-05
14690.0 3.2313e-05
14710.0 3.2529e-05
14730.0 3.2768e-05
14750.0 3.3059e-05
14770.0 3.3413e-05
14790.0 3.3804e-05
14810.0 3.4228e-05
14830.0 3.4734e-05
14850.0 3.527e-05
14870.0 3.5806e-05
14890.0 3.6367e-05
14910.0 3.6941e-05
14930.0 3.746e-05
14950.0 3.7914e-05
14970.0 3.8316e-05
14990.0 3.8611e-05
15010.0 3.8786e-05
15030.0 3.8864e-05
15050.0 3.8848e-05
15070.0 3.8745e-05
15090.0 3.8588e-05
15110.0 3.8393e-05
15130.0 3.8174e-05
15150.0 3.7945e-05
15170.0 3.7708e-05
15190.0 3.7466e-05
15210.0 3.7226e-05
15230.0 3.6985e-05
15250.0 3.6742e-05
15270.0 3.6499e-05
15290.0 3.626e-05
15310.0 3.6019e-05
15330.0 3.5778e-05
15350.0 3.5539e-05
15370.0 3.5301e-05
15390.0 3.506e-05
15410.0 3.4821e-05
15430.0 3.4585e-05
15450.0 3.4348e-05
15470.0 3.411e-05
15490.0 3.3876e-05
15510.0 3.3642e-05
15530.0 3.3408e-05
15550.0 3.3175e-05
15570.0 3.2945e-05
15590.0 3.2713e-05
15610.0 3.2482e-05
15630.0 3.2254e-05
15650.0 3.2027e-05
15670.0 3.1799e-05
15690.0 3.1574e-05
15710.0 3.1352e-05
15730.0 3.1128e-05
15750.0 3.0906e-05
15770.0 3.0687e-05
15790.0 3.0468e-05
15810.0 3.0248e-05
15830.0 3.0032e-05
15850.0 2.9818e-05
15870.0 2.9604e-05
15890.0 2.9391e-05
15910.0 2.9182e-05
15930.0 2.8973e-05
15950.0 2.8763e-05
15970.0 2.8557e-05
15990.0 2.8353e-05
16010.0 2.8149e-05
16030.0 2.7946e-05
16050.0 2.7747e-05
16070.0 2.7549e-05
16090.0 2.735e-05
16110.0 2.7155e-05
16130.0 2.6963e-05
16150.0 2.6768e-05
16170.0 2.6576e-05
16190.0 2.6388e-05
16210.0 2.62e-05
16230.0 2.6012e-05
16250.0 2.5828e-05
16270.0 2.5647e-05
16290.0 2.5464e-05
16310.0 2.5284e-05
16330.0 2.5107e-05
16350.0 2.493e-05
16370.0 2.4752e-05
16390.0 2.458e-05
16410.0 2.4409e-05
16430.0 2.4237e-05
16450.0 2.4068e-05
16470.0 2.3903e-05
16490.0 2.3737e-05
16510.0 2.3571e-05
16530.0 2.3409e-05
16550.0 2.3249e-05
16570.0 2.3088e-05
16590.0 2.293e-05
16610.0 2.2775e-05
16630.0 2.262e-05
16650.0 2.2466e-05
16670.0 2.2315e-05
16690.0 2.2166e-05
16710.0 2.2015e-05
16730.0 2.1868e-05
16750.0 2.1723e-05
16770.0 2.1578e-05
16790.0 2.1434e-05
16810.0 2.1294e-05
16830.0 2.1155e-05
16850.0 2.1015e-05
16870.0 2.0878e-05
16890.0 2.0744e-05
16910.0 2.0609e-05
16930.0 2.0475e-05
16950.0 2.0344e-05
16970.0 2.0214e-05
16990.0 2.0085e-05
17010.0 1.9957e-05
17030.0 1.9833e-05
17050.0 1.9707e-05
17070.0 1.9583e-05
17090.0 1.9462e-05
17110.0 1.9342e-05
17130.0 1.922e-05
17150.0 1.9102e-05
17170.0 1.8986e-05
17190.0 1.887e-05
17210.0 1.8755e-05
17230.0 1.8643e-05
17250.0 1.8531e-05
17270.0 1.8419e-05
17290.0 1.8309e-05
17310.0 1.8201e-05
17330.0 1.8093e-05
17350.0 1.7986e-05
17370.0 1.7882e-05
17390.0 1.7779e-05
17410.0 1.7675e-05
17430.0 1.7574e-05
17450.0 1.7474e-05
17470.0 1.7373e-05
17490.0 1.7274e-05
17510.0 1.7177e-05
17530.0 1.7081e-05
17550.0 1.6984e-05
17570.0 1.6891e-05
17590.0 1.6798e-05
17610.0 1.6705e-05
17630.0 1.6613e-05
17650.0 1.6524e-05
17670.0 1.6434e-05
17690.0 1.6344e-05
17710.0 1.6257e-05
17730.0 1.6171e-05
17750.0 1.6085e-05
17770.0 1.6e-05
17790.0 1.5917e-05
17810.0 1.5834e-05
17830.0 1.575e-05
17850.0 1.567e-05
17870.0 1.559e-05
17890.0 1.5509e-05
17910.0 1.543e-05
17930.0 1.5353e-05
17950.0 1.5276e-05
17970.0 1.5199e-05
17990.0 1.5124e-05
18010.0 1.505e-05
18030.0 1.4975e-05
18050.0 1.4901e-05
18070.0 1.483e-05
18090.0 1.4758e-05
18110.0 1.4686e-05
18130.0 1.4616e-05
18150.0 1.4547e-05
18170.0 1.4478e-05
18190.0 1.441e-05
18210.0 1.4343e-05
18230.0 1.4276e-05
18250.0 1.4208e-05
18270.0 1.4144e-05
18290.0 1.408e-05
18310.0 1.4015e-05
18330.0 1.3951e-05
18350.0 1.389e-05
18370.0 1.3827e-05
18390.0 1.3764e-05
18410.0 1.3704e-05
18430.0 1.3644e-05
18450.0 1.3583e-05
18470.0 1.3524e-05
18490.0 1.3466e-05
18510.0 1.3407e-05
18530.0 1.3349e-05
18550.0 1.3294e-05
18570.0 1.3237e-05
18590.0 1.318e-05
18610.0 1.3125e-05
18630.0 1.3071e-05
18650.0 1.3016e-05
18670.0 1.2961e-05
18690.0 1.2909e-05
18710.0 1.2856e-05
18730.0 1.2803e-05
18750.0 1.2752e-05
18770.0 1.2701e-05
18790.0 1.2649e-05
18810.0 1.2598e-05
18830.0 1.2549e-05
18850.0 1.2499e-05
18870.0 1.2449e-05
18890.0 1.2401e-05
18910.0 1.2354e-05
18930.0 1.2305e-05
18950.0 1.2257e-05
18970.0 1.2211e-05
18990.0 1.2164e-05
19010.0 1.2116e-05
19030.0 1.2071e-05
19050.0 1.2027e-05
19070.0 1.1981e-05
19090.0 1.1936e-05
19110.0 1.1893e-05
19130.0 1.1848e-05
19150.0 1.1804e-05
19170.0 1.1761e-05
19190.0 1.1719e-05
19210.0 1.1675e-05
19230.0 1.1632e-05
19250.0 1.1592e-05
19270.0 1.155e-05
19290.0 1.1508e-05
19310.0 1.1468e-05
19330.0 1.1428e-05
19350.0 1.1386e-05
19370.0 1.1346e-05
19390.0 1.1307e-05
19410.0 1.1267e-05
19430.0 1.1227e-05
19450.0 1.1189e-05
19470.0 1.1151e-05
19490.0 1.1112e-05
19510.0 1.1074e-05
19530.0 1.1037e-05
19550.0 1.0999e-05
19570.0 1.096e-05
19590.0 1.0924e-05
19610.0 1.0887e-05
19630.0 1.085e-05
19650.0 1.0814e-05
19670.0 1.0779e-05
19690.0 1.0742e-05
19710.0 1.0706e-05
19730.0 1.0671e-05
19750.0 1.0636e-05
19770.0 1.06e-05
19790.0 1.0565e-05
19810.0 1.0531e-05
19830.0 1.0496e-05
19850.0 1.0461e-05
19870.0 1.0426e-05
19890.0 1.0388e-05
19910.0 1.0346e-05
19930.0 1.0299e-05
19950.0 1.0244e-05
19970.0 1.0173e-05
19990.0 1.0086e-05
20010.0 9.9847e-06
20030.0 9.8612e-06
20050.0 9.7164e-06
20070.0 9.5605e-06
20090.0 9.3945e-06
20110.0 9.2086e-06
20130.0 9.0238e-06
20150.0 8.8439e-06
20170.0 8.66e-06
20190.0 8.4765e-06
20210.0 8.306e-06
20230.0 8.142e-06
20250.0 7.9796e-06
20270.0 7.8312e-06
20290.0 7.6981e-06
20310.0 7.5737e-06
20330.0 7.4603e-06
20350.0 7.3701e-06
20370.0 7.2941e-06
20390.0 7.2328e-06
20410.0 7.1906e-06
20430.0 7.1666e-06
20450.0 7.159e-06
20470.0 7.17e-06
20490.0 7.1977e-06
20510.0 7.2415e-06
20530.0 7.3027e-06
20550.0 7.377e-06
20570.0 7.4608e-06
20590.0 7.5582e-06
20610.0 7.665e-06
20630.0 7.7745e-06
20650.0 7.8893e-06
20670.0 8.0118e-06
20690.0 8.1287e-06
20710.0 8.2411e-06
20730.0 8.3521e-06
20750.0 8.4568e-06
20770.0 8.5489e-06
20790.0 8.6337e-06
20810.0 8.7101e-06
20830.0 8.7736e-06
20850.0 8.8255e-06
20870.0 8.8685e-06
20890.0 8.9003e-06
20910.0 8.9212e-06
20930.0 8.9337e-06
20950.0 8.9377e-06
20970.0 8.9343e-06
20990.0 8.9245e-06
21010.0 8.9076e-06
21030.0 8.8851e-06
21050.0 8.8584e-06
21070.0 8.8265e-06
21090.0 8.7887e-06
21110.0 8.7492e-06
21130.0 8.7071e-06
21150.0 8.6605e-06
21170.0 8.6125e-06
21190.0 8.5653e-06
21210.0 8.5158e-06
21230.0 8.4658e-06
21250.0 8.4197e-06
21270.0 8.3762e-06
21290.0 8.3345e-06
21310.0 8.2976e-06
21330.0 8.2675e-06
21350.0 8.2417e-06
21370.0 8.222e-06
21390.0 8.2097e-06
21410.0 8.2041e-06
21430.0 8.2054e-06
21450.0 8.2142e-06
21470.0 8.2295e-06
21490.0 8.2517e-06
21510.0 8.2808e-06
21530.0 8.3145e-06
21550.0 8.3537e-06
21570.0 8.3993e-06
21590.0 8.4487e-06
21610.0 8.5009e-06
21630.0 8.5583e-06
21650.0 8.6208e-06
21670.0 8.6826e-06
21690.0 8.748e-06
21710.0 8.8181e-06
21730.0 8.8895e-06
21750.0 8.9611e-06
21770.0 9.0394e-06
21790.0 9.1199e-06
21810.0 9.2002e-06
21830.0 9.2836e-06
21850.0 9.3724e-06
21870.0 9.4612e-06
21890.0 9.5494e-06
21910.0 9.6428e-06
21930.0 9.7377e-06
21950.0 9.8302e-06
21970.0 9.9244e-06
21990.0 1.0022e-05
22010.0 1.0115e-05
22030.0 1.0204e-05
22050.0 1.0292e-05
22070.0 1.0377e-05
22090.0 1.0452e-05
22110.0 1.0523e-05
22130.0 1.0588e-05
22150.0 1.0641e-05
22170.0 1.0685e-05
22190.0 1.0719e-05
22210.0 1.074e-05
22230.0 1.0749e-05
22250.0 1.0744e-05
22270.0 1.0725e-05
22290.0 1.0692e-05
22310.0 1.0647e-05
22330.0 1.0584e-05
22350.0 1.0508e-05
22370.0 1.0422e-05
22390.0 1.0321e-05
22410.0 1.0204e-05
22430.0 1.0083e-05
22450.0 9.9531e-06
22470.0 9.8099e-06
22490.0 9.6614e-06
22510.0 9.513e-06
22530.0 9.3542e-06
22550.0 9.1897e-06
22570.0 9.0314e-06
22590.0 8.8733e-06
22610.0 8.7112e-06
22630.0 8.5542e-06
