#lamb flux
1010.0 3.5623e-09
1030.0 3.94e-09
1050.0 4.3743e-09
1070.0 4.8633e-09
1090.0 5.4186e-09
1110.0 5.9883e-09
1130.0 6.5616e-09
1150.0 7.1621e-09
1170.0 7.7816e-09
1190.0 8.369e-09
1210.0 8.9643e-09
1230.0 9.5795e-09
1250.0 1.0182e-08
1270.0 1.0768e-08
1290.0 1.1386e-08
1310.0 1.2004e-08
1330.0 1.2597e-08
1350.0 1.3196e-08
1370.0 1.3815e-08
1390.0 1.4419e-08
1410.0 1.5004e-08
1430.0 1.5616e-08
1450.0 1.6228e-08
1470.0 1.682e-08
1490.0 1.7418e-08
1510.0 1.8049e-08
1530.0 1.8648e-08
1550.0 1.9239e-08
1570.0 1.985e-08
1590.0 2.0462e-08
1610.0 2.1047e-08
1630.0 2.165e-08
1650.0 2.2269e-08
1670.0 2.2868e-08
1690.0 2.346e-08
1710.0 2.4076e-08
1730.0 2.4695e-08
1750.0 2.5278e-08
1770.0 2.5878e-08
1790.0 2.6492e-08
1810.0 2.7086e-08
1830.0 2.7671e-08
1850.0 2.8293e-08
1870.0 2.89e-08
1890.0 2.9487e-08
1910.0 3.0087e-08
1930.0 3.0703e-08
1950.0 3.1292e-08
1970.0 3.1876e-08
1990.0 3.2483e-08
2010.0 3.3081e-08
2030.0 3.3659e-08
2050.0 3.4256e-08
2070.0 3.487e-08
2090.0 3.545e-08
2110.0 3.6029e-08
2130.0 3.6628e-08
2150.0 3.7216e-08
2170.0 3.778e-08
2190.0 3.8366e-08
2210.0 3.8956e-08
2230.0 3.9524e-08
2250.0 4.009e-08
2270.0 4.0683e-08
2290.0 4.1257e-08
2310.0 4.181e-08
2330.0 4.2385e-08
2350.0 4.2975e-08
2370.0 4.3563e-08
2390.0 4.4199e-08
2410.0 4.4953e-08
2430.0 4.5821e-08
2450.0 4.6858e-08
2470.0 4.8187e-08
2490.0 4.9861e-08
2510.0 5.1764e-08
2530.0 5.4056e-08
2550.0 5.6924e-08
2570.0 6.0492e-08
2590.0 6.5133e-08
2610.0 7.2081e-08
2630.0 8.2002e-08
2650.0 9.4974e-08
2670.0 1.1174e-07
2690.0 1.3235e-07
2710.0 1.5435e-07
2730.0 1.7609e-07
2750.0 1.975e-07
2770.0 2.1613e-07
2790.0 2.3092e-07
2810.0 2.4266e-07
2830.0 2.5182e-07
2850.0 2.5808e-07
2870.0 2.6268e-07
2890.0 2.6632e-07
2910.0 2.6922e-07
2930.0 2.7159e-07
2950.0 2.7386e-07
2970.0 2.7607e-07
2990.0 2.7815e-07
3010.0 7.8619e-06
3030.0 7.9207e-06
3050.0 7.9775e-06
3070.0 8.0262e-06
3090.0 8.068e-06
3110.0 8.094e-06
3130.0 8.0929e-06
3150.0 8.057e-06
3170.0 7.9707e-06
3190.0 7.8352e-06
3210.0 7.6633e-06
3230.0 7.4666e-06
3250.0 7.2724e-06
3270.0 7.1306e-06
3290.0 7.0518e-06
3310.0 7.0645e-06
3330.0 7.1668e-06
3350.0 7.3448e-06
3370.0 7.599e-06
3390.0 7.9194e-06
3410.0 8.2681e-06
3430.0 8.6595e-06
3450.0 9.1101e-06
3470.0 9.6023e-06
3490.0 1.0124e-05
3510.0 1.0713e-05
3530.0 1.1344e-05
3550.0 1.1984e-05
3570.0 1.265e-05
3590.0 1.3375e-05
3610.0 1.4122e-05
3630.0 1.4867e-05
3650.0 1.564e-05
3670.0 1.6345e-05
3690.0 1.6873e-05
3710.0 1.7175e-05
3730.0 1.7185e-05
3750.0 1.6946e-05
3770.0 1.6852e-05
3790.0 1.6752e-05
3810.0 1.634e-05
3830.0 1.6846e-05
3850.0 1.8836e-05
3870.0 1.9928e-05
3890.0 1.9837e-05
3910.0 1.9921e-05
3930.0 2.0446e-05
3950.0 2.0769e-05
3970.0 1.8922e-05
3990.0 1.6282e-05
4010.0 4.8798e-05
4030.0 5.9126e-05
4050.0 6.7784e-05
4070.0 5.8814e-05
4090.0 5.3268e-05
4110.0 4.7004e-05
4130.0 4.3262e-05
4150.0 4.6018e-05
4170.0 4.533e-05
4190.0 4.8318e-05
4210.0 4.7876e-05
4230.0 5.064e-05
4250.0 5.9909e-05
4270.0 6.0613e-05
4290.0 5.5854e-05
4310.0 5.8036e-05
4330.0 6.1733e-05
4350.0 6.9218e-05
4370.0 7.8772e-05
4390.0 7.3919e-05
4410.0 5.4613e-05
4430.0 4.6233e-05
4450.0 4.2483e-05
4470.0 3.2607e-05
4490.0 3.5187e-05
4510.0 5.3151e-05
4530.0 6.13e-05
4550.0 6.1831e-05
4570.0 6.9576e-05
4590.0 7.9253e-05
4610.0 0.00010689
4630.0 0.00013883
4650.0 0.00015056
4670.0 0.00013944
4690.0 0.00013305
4710.0 0.00014064
4730.0 0.00013272
4750.0 9.9228e-05
4770.0 7.2787e-05
4790.0 6.7969e-05
4810.0 6.4785e-05
4830.0 5.9311e-05
4850.0 6.5083e-05
4870.0 8.5981e-05
4890.0 0.0001014
4910.0 8.8962e-05
4930.0 7.8719e-05
4950.0 8.6485e-05
4970.0 0.00011091
4990.0 0.00015031
5010.0 0.00017291
5030.0 0.00015247
5050.0 0.00010316
5070.0 6.7983e-05
5090.0 5.4818e-05
5110.0 5.6375e-05
5130.0 6.5066e-05
5150.0 7.0494e-05
5170.0 6.9436e-05
5190.0 6.4884e-05
5210.0 6.7818e-05
5230.0 7.1291e-05
5250.0 7.6831e-05
5270.0 8.2894e-05
5290.0 9.1863e-05
5310.0 0.00010692
5330.0 0.00011832
5350.0 0.00011757
5370.0 0.00012349
5390.0 0.00014171
5410.0 0.00014158
5430.0 0.0001252
5450.0 0.00011503
5470.0 0.00012214
5490.0 0.00014922
5510.0 0.00018658
5530.0 0.00021399
5550.0 0.00020682
5570.0 0.00018802
5590.0 0.00016348
5610.0 0.00015076
5630.0 0.00014619
5650.0 0.00013923
5670.0 0.00013193
5690.0 0.00011795
5710.0 0.000115
5730.0 0.00010593
5750.0 7.4685e-05
5770.0 5.8266e-05
5790.0 6.6027e-05
5810.0 7.4555e-05
5830.0 9.1489e-05
5850.0 0.00010891
5870.0 0.00012083
5890.0 0.00012288
5910.0 0.00012055
5930.0 0.00011475
5950.0 0.00011692
5970.0 0.00013328
5990.0 0.00012532
6010.0 0.00010505
6030.0 8.8753e-05
6050.0 7.7292e-05
6070.0 7.687e-05
6090.0 8.3353e-05
6110.0 9.3202e-05
6130.0 9.463e-05
6150.0 8.142e-05
6170.0 7.1624e-05
6190.0 8.0603e-05
6210.0 0.00010656
6230.0 0.00013983
6250.0 0.00015146
6270.0 0.00013235
6290.0 0.00011136
6310.0 8.6933e-05
6330.0 6.6607e-05
6350.0 5.9412e-05
6370.0 6.2478e-05
6390.0 7.2228e-05
6410.0 8.906e-05
6430.0 0.000104
6450.0 0.000119
6470.0 0.00013626
6490.0 0.00016459
6510.0 0.00018403
6530.0 0.00018055
6550.0 0.00016327
6570.0 0.0001386
6590.0 0.00012498
6610.0 0.00010776
6630.0 9.7628e-05
6650.0 9.2287e-05
6670.0 8.9655e-05
6690.0 8.1007e-05
6710.0 7.3638e-05
6730.0 5.3039e-05
6750.0 5.2583e-05
6770.0 5.7155e-05
6790.0 6.5695e-05
6810.0 6.0112e-05
6830.0 6.1899e-05
6850.0 5.7895e-05
6870.0 5.2887e-05
6890.0 5.0779e-05
6910.0 5.4112e-05
6930.0 5.0684e-05
6950.0 5.2145e-05
6970.0 5.4847e-05
6990.0 6.2256e-05
7010.0 6.2787e-05
7030.0 6.3784e-05
7050.0 6.0828e-05
7070.0 5.7958e-05
7090.0 5.8128e-05
7110.0 5.9809e-05
7130.0 6.4364e-05
7150.0 6.836e-05
7170.0 7.5431e-05
7190.0 8.292e-05
7210.0 8.1479e-05
7230.0 8.3762e-05
7250.0 9.0016e-05
7270.0 9.8095e-05
7290.0 0.00011643
7310.0 0.00012634
7330.0 0.00012211
7350.0 0.00011044
7370.0 9.6097e-05
7390.0 9.3226e-05
7410.0 9.9071e-05
7430.0 0.00011011
7450.0 0.00011992
7470.0 0.00011882
7490.0 0.00010834
7510.0 0.00012273
7530.0 0.00012138
7550.0 0.0001091
7570.0 8.5231e-05
7590.0 5.8593e-05
7610.0 5.029e-05
7630.0 5.714e-05
7650.0 6.7561e-05
7670.0 8.4086e-05
7690.0 9.2531e-05
7710.0 9.6429e-05
7730.0 0.00010134
7750.0 0.00011376
7770.0 0.00011555
7790.0 0.00010614
7810.0 9.6847e-05
7830.0 9.9872e-05
7850.0 9.7085e-05
7870.0 8.9012e-05
7890.0 7.4788e-05
7910.0 6.0792e-05
7930.0 5.8048e-05
7950.0 5.2884e-05
7970.0 4.8954e-05
7990.0 4.8675e-05
8010.0 3.6445e-06
8030.0 3.5923e-06
8050.0 3.5483e-06
8070.0 3.6031e-06
8090.0 3.8834e-06
8110.0 3.8148e-06
8130.0 3.127e-06
8150.0 3.0501e-06
8170.0 2.6112e-06
8190.0 2.4633e-06
8210.0 3.2273e-06
8230.0 3.5982e-06
8250.0 3.2144e-06
8270.0 2.794e-06
8290.0 2.7437e-06
8310.0 2.1167e-06
8330.0 1.4253e-06
8350.0 1.0128e-06
8370.0 6.2987e-07
8390.0 1.1657e-06
8410.0 1.3576e-06
8430.0 1.6733e-06
8450.0 1.9643e-06
8470.0 2.4533e-06
8490.0 2.4291e-06
8510.0 2.3819e-06
8530.0 2.4713e-06
8550.0 3.366e-06
8570.0 4.0013e-06
8590.0 4.289e-06
8610.0 5.4311e-06
8630.0 6.5347e-06
8650.0 6.7948e-06
8670.0 7.2402e-06
8690.0 7.3166e-06
8710.0 6.62e-06
8730.0 6.1697e-06
8750.0 5.436e-06
8770.0 5.1531e-06
8790.0 5.0705e-06
8810.0 4.8681e-06
8830.0 3.8729e-06
8850.0 2.8202e-06
8870.0 2.157e-06
8890.0 2.1298e-06
8910.0 2.4558e-06
8930.0 2.8041e-06
8950.0 2.8621e-06
8970.0 2.872e-06
8990.0 2.5487e-06
9010.0 2.6239e-05
9030.0 2.376e-05
9050.0 2.3877e-05
9070.0 2.4067e-05
9090.0 2.4234e-05
9110.0 2.444e-05
9130.0 2.4599e-05
9150.0 2.4723e-05
9170.0 2.4854e-05
9190.0 2.4995e-05
9210.0 2.5143e-05
9230.0 2.5299e-05
9250.0 2.5457e-05
9270.0 2.5622e-05
9290.0 2.5791e-05
9310.0 2.5962e-05
9330.0 2.6136e-05
9350.0 2.6316e-05
9370.0 2.6499e-05
9390.0 2.6683e-05
9410.0 2.6872e-05
9430.0 2.7068e-05
9450.0 2.7262e-05
9470.0 2.7461e-05
9490.0 2.7665e-05
9510.0 2.7872e-05
9530.0 2.8079e-05
9550.0 2.8294e-05
9570.0 2.8513e-05
9590.0 2.8732e-05
9610.0 2.8955e-05
9630.0 2.9184e-05
9650.0 2.9415e-05
9670.0 2.9646e-05
9690.0 2.9884e-05
9710.0 3.0125e-05
9730.0 3.0366e-05
9750.0 3.0612e-05
9770.0 3.0864e-05
9790.0 3.1116e-05
9810.0 3.137e-05
9830.0 3.1628e-05
9850.0 3.1891e-05
9870.0 3.2152e-05
9890.0 3.2417e-05
9910.0 3.2687e-05
9930.0 3.2958e-05
9950.0 3.3229e-05
9970.0 3.3506e-05
9990.0 3.3786e-05
10010.0 2.9318e-05
10030.0 2.956e-05
10050.0 2.9807e-05
10070.0 3.0062e-05
10090.0 3.0302e-05
10110.0 3.0549e-05
10130.0 3.0796e-05
10150.0 3.1043e-05
10170.0 3.1292e-05
10190.0 3.1546e-05
10210.0 3.1797e-05
10230.0 3.2047e-05
10250.0 3.2302e-05
10270.0 3.2555e-05
10290.0 3.2806e-05
10310.0 3.306e-05
10330.0 3.3317e-05
10350.0 3.3569e-05
10370.0 3.382e-05
10390.0 3.4075e-05
10410.0 3.4328e-05
10430.0 3.4576e-05
10450.0 3.4827e-05
10470.0 3.5078e-05
10490.0 3.5325e-05
10510.0 3.557e-05
10530.0 3.5819e-05
10550.0 3.6065e-05
10570.0 3.6305e-05
10590.0 3.6546e-05
10610.0 3.6787e-05
10630.0 3.7022e-05
10650.0 3.7256e-05
10670.0 3.7492e-05
10690.0 3.7723e-05
10710.0 3.7949e-05
10730.0 3.8175e-05
10750.0 3.8402e-05
10770.0 3.862e-05
10790.0 3.8836e-05
10810.0 3.9052e-05
10830.0 3.9261e-05
10850.0 3.9459e-05
10870.0 3.9651e-05
10890.0 3.9821e-05
10910.0 3.9951e-05
10930.0 4.0025e-05
10950.0 4.0008e-05
10970.0 3.9873e-05
10990.0 3.9608e-05
11010.0 3.9111e-05
11030.0 3.8489e-05
11050.0 3.773e-05
11070.0 3.6824e-05
11090.0 3.5734e-05
11110.0 3.4607e-05
11130.0 3.3432e-05
11150.0 3.2166e-05
11170.0 3.0861e-05
11190.0 2.9596e-05
11210.0 2.8289e-05
11230.0 2.6949e-05
11250.0 2.5668e-05
11270.0 2.4438e-05
11290.0 2.3206e-05
11310.0 2.2039e-05
11330.0 2.1012e-05
11350.0 2.0041e-05
11370.0 1.9143e-05
11390.0 1.8367e-05
11410.0 1.7688e-05
11430.0 1.7057e-05
11450.0 1.6513e-05
11470.0 1.6043e-05
11490.0 1.5606e-05
11510.0 1.5184e-05
11530.0 1.4793e-05
11550.0 1.4405e-05
11570.0 1.399e-05
11590.0 1.3561e-05
11610.0 1.3124e-05
11630.0 1.2648e-05
11650.0 1.2139e-05
11670.0 1.1637e-05
11690.0 1.1128e-05
11710.0 1.0603e-05
11730.0 1.0095e-05
11750.0 9.6239e-06
11770.0 9.1622e-06
11790.0 8.7296e-06
11810.0 8.3487e-06
11830.0 8.008e-06
11850.0 7.6943e-06
11870.0 7.4318e-06
11890.0 7.2136e-06
11910.0 7.0219e-06
11930.0 6.8571e-06
11950.0 6.7199e-06
11970.0 6.5973e-06
11990.0 6.4814e-06
12010.0 6.3742e-06
12030.0 6.2709e-06
12050.0 6.1641e-06
12070.0 6.053e-06
12090.0 5.9459e-06
12110.0 5.8372e-06
12130.0 5.7282e-06
12150.0 5.6278e-06
12170.0 5.5401e-06
12190.0 5.4643e-06
12210.0 5.4114e-06
12230.0 5.3858e-06
12250.0 5.3899e-06
12270.0 5.4306e-06
12290.0 5.5074e-06
12310.0 5.6176e-06
12330.0 5.7718e-06
12350.0 5.9642e-06
12370.0 6.1833e-06
12390.0 6.4359e-06
12410.0 6.7319e-06
12430.0 7.0328e-06
12450.0 7.3443e-06
12470.0 7.6755e-06
12490.0 8.0082e-06
12510.0 8.3204e-06
12530.0 8.6309e-06
12550.0 8.9304e-06
12570.0 9.1949e-06
12590.0 9.427e-06
12610.0 9.6339e-06
12630.0 9.7988e-06
12650.0 9.9126e-06
12670.0 9.9874e-06
12690.0 1.0017e-05
12710.0 1.0001e-05
12730.0 9.9428e-06
12750.0 9.8394e-06
12770.0 9.6975e-06
12790.0 9.5254e-06
12810.0 9.3199e-06
12830.0 9.0821e-06
12850.0 8.8334e-06
12870.0 8.5704e-06
12890.0 8.2859e-06
12910.0 7.9967e-06
12930.0 7.7116e-06
12950.0 7.4142e-06
12970.0 7.1114e-06
12990.0 6.8249e-06
13010.0 6.542e-06
13030.0 6.256e-06
13050.0 5.9812e-06
13070.0 5.7239e-06
13090.0 5.4656e-06
13110.0 5.2157e-06
13130.0 4.9853e-06
13150.0 4.7672e-06
13170.0 4.5536e-06
13190.0 4.3635e-06
13210.0 4.1962e-06
13230.0 4.0433e-06
13250.0 3.9116e-06
13270.0 3.8077e-06
13290.0 3.7269e-06
13310.0 3.6712e-06
13330.0 3.6459e-06
13350.0 3.6488e-06
13370.0 3.6816e-06
13390.0 3.7459e-06
13410.0 3.8327e-06
13430.0 3.9457e-06
13450.0 4.0852e-06
13470.0 4.2401e-06
13490.0 4.4041e-06
13510.0 4.5891e-06
13530.0 4.7766e-06
13550.0 4.9562e-06
13570.0 5.1332e-06
13590.0 5.3057e-06
13610.0 5.4591e-06
13630.0 5.5931e-06
13650.0 5.7154e-06
13670.0 5.8169e-06
13690.0 5.8955e-06
13710.0 5.9562e-06
13730.0 5.9996e-06
13750.0 6.0212e-06
13770.0 6.0262e-06
13790.0 6.0152e-06
13810.0 5.9887e-06
13830.0 5.9495e-06
13850.0 5.8963e-06
13870.0 5.8292e-06
13890.0 5.7526e-06
13910.0 5.6662e-06
13930.0 5.5661e-06
13950.0 5.457e-06
13970.0 5.3453e-06
13990.0 5.2237e-06
14010.0 5.0944e-06
14030.0 4.9654e-06
14050.0 4.8354e-06
14070.0 4.6982e-06
14090.0 4.5667e-06
14110.0 4.4432e-06
14130.0 4.3234e-06
14150.0 4.2107e-06
14170.0 4.1145e-06
14190.0 4.0312e-06
14210.0 3.9607e-06
14230.0 3.9084e-06
14250.0 3.8746e-06
14270.0 3.8583e-06
14290.0 3.8617e-06
14310.0 3.8833e-06
14330.0 3.9219e-06
14350.0 3.9788e-06
14370.0 4.0496e-06
14390.0 4.1301e-06
14410.0 4.2249e-06
14430.0 4.329e-06
14450.0 4.4353e-06
14470.0 4.5456e-06
14490.0 4.6629e-06
14510.0 4.7751e-06
14530.0 4.8816e-06
14550.0 4.9881e-06
14570.0 5.0903e-06
14590.0 5.1833e-06
14610.0 5.2733e-06
14630.0 5.3624e-06
14650.0 5.4454e-06
14670.0 5.5255e-06
14690.0 5.609e-06
14710.0 5.6968e-06
14730.0 5.7846e-06
14750.0 5.8819e-06
14770.0 5.9923e-06
14790.0 6.1119e-06
14810.0 6.2415e-06
14830.0 6.3951e-06
14850.0 6.5621e-06
14870.0 6.7362e-06
14890.0 6.9242e-06
14910.0 7.1237e-06
14930.0 7.3156e-06
14950.0 7.4949e-06
14970.0 7.6647e-06
14990.0 7.807e-06
15010.0 7.9159e-06
15030.0 7.9965e-06
15050.0 8.0498e-06
15070.0 8.0759e-06
15090.0 8.085e-06
15110.0 8.0824e-06
15130.0 8.0722e-06
15150.0 8.0585e-06
15170.0 8.0424e-06
15190.0 8.0251e-06
15210.0 8.008e-06
15230.0 7.991e-06
15250.0 7.9733e-06
15270.0 7.9559e-06
15290.0 7.9394e-06
15310.0 7.9224e-06
15330.0 7.9053e-06
15350.0 7.8888e-06
15370.0 7.8725e-06
15390.0 7.8553e-06
15410.0 7.8387e-06
15430.0 7.8226e-06
15450.0 7.8061e-06
15470.0 7.7894e-06
15490.0 7.7735e-06
15510.0 7.7577e-06
15530.0 7.7413e-06
15550.0 7.7253e-06
15570.0 7.7098e-06
15590.0 7.6936e-06
15610.0 7.6773e-06
15630.0 7.6619e-06
15650.0 7.6463e-06
15670.0 7.6303e-06
15690.0 7.6147e-06
15710.0 7.5997e-06
15730.0 7.5839e-06
15750.0 7.5682e-06
15770.0 7.5531e-06
15790.0 7.5378e-06
15810.0 7.5218e-06
15830.0 7.5065e-06
15850.0 7.4917e-06
15870.0 7.4763e-06
15890.0 7.4608e-06
15910.0 7.4461e-06
15930.0 7.431e-06
15950.0 7.4153e-06
15970.0 7.4003e-06
15990.0 7.3855e-06
16010.0 7.3701e-06
16030.0 7.3546e-06
16050.0 7.3401e-06
16070.0 7.3251e-06
16090.0 7.3098e-06
16110.0 7.2949e-06
16130.0 7.2803e-06
16150.0 7.2647e-06
16170.0 7.2495e-06
16190.0 7.2348e-06
16210.0 7.2198e-06
16230.0 7.2044e-06
16250.0 7.1896e-06
16270.0 7.175e-06
16290.0 7.1596e-06
16310.0 7.1445e-06
16330.0 7.1298e-06
16350.0 7.1148e-06
16370.0 7.0989e-06
16390.0 7.0842e-06
16410.0 7.0694e-06
16430.0 7.054e-06
16450.0 7.0388e-06
16470.0 7.0242e-06
16490.0 7.0089e-06
16510.0 6.9933e-06
16530.0 6.9783e-06
16550.0 6.9633e-06
16570.0 6.9476e-06
16590.0 6.9321e-06
16610.0 6.9174e-06
16630.0 6.902e-06
16650.0 6.8864e-06
16670.0 6.8713e-06
16690.0 6.8562e-06
16710.0 6.8401e-06
16730.0 6.8246e-06
16750.0 6.8095e-06
16770.0 6.7938e-06
16790.0 6.7778e-06
16810.0 6.7626e-06
16830.0 6.7473e-06
16850.0 6.7313e-06
16870.0 6.7156e-06
16890.0 6.7003e-06
16910.0 6.6842e-06
16930.0 6.6679e-06
16950.0 6.6524e-06
16970.0 6.6367e-06
16990.0 6.6204e-06
17010.0 6.6045e-06
17030.0 6.589e-06
17050.0 6.5727e-06
17070.0 6.5563e-06
17090.0 6.5405e-06
17110.0 6.5245e-06
17130.0 6.5076e-06
17150.0 6.4914e-06
17170.0 6.4756e-06
17190.0 6.4591e-06
17210.0 6.4425e-06
17230.0 6.4266e-06
17250.0 6.4102e-06
17270.0 6.3931e-06
17290.0 6.3767e-06
17310.0 6.3604e-06
17330.0 6.3435e-06
17350.0 6.3264e-06
17370.0 6.3103e-06
17390.0 6.2936e-06
17410.0 6.2764e-06
17430.0 6.2598e-06
17450.0 6.2434e-06
17470.0 6.2258e-06
17490.0 6.2086e-06
17510.0 6.1921e-06
17530.0 6.175e-06
17550.0 6.1575e-06
17570.0 6.1406e-06
17590.0 6.1239e-06
17610.0 6.1063e-06
17630.0 6.0889e-06
17650.0 6.0721e-06
17670.0 6.0547e-06
17690.0 6.0365e-06
17710.0 6.0195e-06
17730.0 6.0024e-06
17750.0 5.9846e-06
17770.0 5.967e-06
17790.0 5.9501e-06
17810.0 5.9322e-06
17830.0 5.9142e-06
17850.0 5.8968e-06
17870.0 5.8793e-06
17890.0 5.8611e-06
17910.0 5.8431e-06
17930.0 5.8259e-06
17950.0 5.808e-06
17970.0 5.7898e-06
17990.0 5.7723e-06
18010.0 5.7546e-06
18030.0 5.736e-06
18050.0 5.718e-06
18070.0 5.7003e-06
18090.0 5.6821e-06
18110.0 5.6636e-06
18130.0 5.646e-06
18150.0 5.628e-06
18170.0 5.6095e-06
18190.0 5.5913e-06
18210.0 5.5736e-06
18230.0 5.555e-06
18250.0 5.5362e-06
18270.0 5.5183e-06
18290.0 5.5001e-06
18310.0 5.4814e-06
18330.0 5.4631e-06
18350.0 5.4453e-06
18370.0 5.4265e-06
18390.0 5.4078e-06
18410.0 5.3897e-06
18430.0 5.3713e-06
18450.0 5.3522e-06
18470.0 5.3338e-06
18490.0 5.3157e-06
18510.0 5.2969e-06
18530.0 5.2782e-06
18550.0 5.2601e-06
18570.0 5.2415e-06
18590.0 5.2223e-06
18610.0 5.2039e-06
18630.0 5.1855e-06
18650.0 5.1665e-06
18670.0 5.1475e-06
18690.0 5.1294e-06
18710.0 5.1108e-06
18730.0 5.0917e-06
18750.0 5.0732e-06
18770.0 5.0549e-06
18790.0 5.0355e-06
18810.0 5.0166e-06
18830.0 4.9982e-06
18850.0 4.9795e-06
18870.0 4.9603e-06
18890.0 4.9418e-06
18910.0 4.9234e-06
18930.0 4.9042e-06
18950.0 4.8853e-06
18970.0 4.8669e-06
18990.0 4.8481e-06
19010.0 4.8285e-06
19030.0 4.8101e-06
19050.0 4.7915e-06
19070.0 4.7724e-06
19090.0 4.7536e-06
19110.0 4.7353e-06
19130.0 4.7162e-06
19150.0 4.697e-06
19170.0 4.6784e-06
19190.0 4.6598e-06
19210.0 4.6405e-06
19230.0 4.6215e-06
19250.0 4.6033e-06
19270.0 4.5843e-06
19290.0 4.5653e-06
19310.0 4.5468e-06
19330.0 4.5282e-06
19350.0 4.5087e-06
19370.0 4.49e-06
19390.0 4.4715e-06
19410.0 4.4525e-06
19430.0 4.4334e-06
19450.0 4.4151e-06
19470.0 4.3964e-06
19490.0 4.3773e-06
19510.0 4.3586e-06
19530.0 4.3403e-06
19550.0 4.3211e-06
19570.0 4.3019e-06
19590.0 4.2836e-06
19610.0 4.265e-06
19630.0 4.2459e-06
19650.0 4.2273e-06
19670.0 4.2091e-06
19690.0 4.19e-06
19710.0 4.1711e-06
19730.0 4.1527e-06
19750.0 4.1341e-06
19770.0 4.1148e-06
19790.0 4.0963e-06
19810.0 4.078e-06
19830.0 4.0591e-06
19850.0 4.04e-06
19870.0 4.0213e-06
19890.0 4.0012e-06
19910.0 3.9792e-06
19930.0 3.9555e-06
19950.0 3.9285e-06
19970.0 3.8953e-06
19990.0 3.8553e-06
20010.0 3.43e-06
20030.0 3.3804e-06
20050.0 3.3223e-06
20070.0 3.2593e-06
20090.0 3.1916e-06
20110.0 3.115e-06
20130.0 3.0374e-06
20150.0 2.9606e-06
20170.0 2.8809e-06
20190.0 2.8001e-06
20210.0 2.7238e-06
20230.0 2.6493e-06
20250.0 2.5747e-06
20270.0 2.5055e-06
20290.0 2.4422e-06
20310.0 2.3822e-06
20330.0 2.326e-06
20350.0 2.2794e-06
20370.0 2.238e-06
20390.0 2.2018e-06
20410.0 2.1725e-06
20430.0 2.1499e-06
20450.0 2.132e-06
20470.0 2.12e-06
20490.0 2.1135e-06
20510.0 2.1117e-06
20530.0 2.1143e-06
20550.0 2.1208e-06
20570.0 2.1303e-06
20590.0 2.1432e-06
20610.0 2.1588e-06
20630.0 2.1759e-06
20650.0 2.1951e-06
20670.0 2.217e-06
20690.0 2.2394e-06
20710.0 2.2625e-06
20730.0 2.2874e-06
20750.0 2.3135e-06
20770.0 2.3391e-06
20790.0 2.3659e-06
20810.0 2.3944e-06
20830.0 2.4227e-06
20850.0 2.4511e-06
20870.0 2.4815e-06
20890.0 2.5126e-06
20910.0 2.5425e-06
20930.0 2.5736e-06
20950.0 2.6057e-06
20970.0 2.6371e-06
20990.0 2.6681e-06
21010.0 2.7006e-06
21030.0 2.7324e-06
21050.0 2.7628e-06
21070.0 2.7931e-06
21090.0 2.8235e-06
21110.0 2.8513e-06
21130.0 2.8773e-06
21150.0 2.9026e-06
21170.0 2.9254e-06
21190.0 2.9451e-06
21210.0 2.9628e-06
21230.0 2.9775e-06
21250.0 2.988e-06
21270.0 2.9947e-06
21290.0 2.9971e-06
21310.0 2.9947e-06
21330.0 2.9877e-06
21350.0 2.9753e-06
21370.0 2.9571e-06
21390.0 2.9339e-06
21410.0 2.9056e-06
21430.0 2.8696e-06
21450.0 2.8293e-06
21470.0 2.7854e-06
21490.0 2.7358e-06
21510.0 2.6813e-06
21530.0 2.626e-06
21550.0 2.568e-06
21570.0 2.5062e-06
21590.0 2.4454e-06
21610.0 2.3867e-06
21630.0 2.3278e-06
21650.0 2.2704e-06
21670.0 2.2206e-06
21690.0 2.1746e-06
21710.0 2.1333e-06
21730.0 2.0994e-06
21750.0 2.0732e-06
21770.0 2.0533e-06
21790.0 2.0419e-06
21810.0 2.0387e-06
21830.0 2.0432e-06
21850.0 2.056e-06
21870.0 2.0759e-06
21890.0 2.1016e-06
21910.0 2.1346e-06
21930.0 2.1733e-06
21950.0 2.2153e-06
21970.0 2.2617e-06
21990.0 2.3139e-06
22010.0 2.366e-06
22030.0 2.4189e-06
22050.0 2.4745e-06
22070.0 2.5304e-06
22090.0 2.5833e-06
22110.0 2.6366e-06
22130.0 2.6899e-06
22150.0 2.7396e-06
22170.0 2.7865e-06
22190.0 2.833e-06
22210.0 2.8762e-06
22230.0 2.9143e-06
22250.0 2.9501e-06
22270.0 2.9831e-06
22290.0 3.0113e-06
22310.0 3.0355e-06
22330.0 3.0568e-06
22350.0 3.0733e-06
22370.0 3.0849e-06
22390.0 3.0922e-06
22410.0 3.0945e-06
22430.0 3.0916e-06
22450.0 3.0836e-06
22470.0 3.0698e-06
22490.0 3.0505e-06
22510.0 3.0264e-06
22530.0 2.9956e-06
22550.0 2.9581e-06
22570.0 2.9165e-06
22590.0 2.8696e-06
22610.0 2.8156e-06
