#lamb flux
1010.0 6.1824e-07
1030.0 6.8063e-07
1050.0 7.5238e-07
1070.0 8.3315e-07
1090.0 9.2489e-07
1110.0 1.019e-06
1130.0 1.1137e-06
1150.0 1.2129e-06
1170.0 1.3152e-06
1190.0 1.4123e-06
1210.0 1.5106e-06
1230.0 1.6122e-06
1250.0 1.7118e-06
1270.0 1.8085e-06
1290.0 1.9107e-06
1310.0 2.0127e-06
1330.0 2.1106e-06
1350.0 2.2096e-06
1370.0 2.3118e-06
1390.0 2.4115e-06
1410.0 2.5082e-06
1430.0 2.6092e-06
1450.0 2.7102e-06
1470.0 2.8079e-06
1490.0 2.9065e-06
1510.0 3.0107e-06
1530.0 3.1094e-06
1550.0 3.2068e-06
1570.0 3.3075e-06
1590.0 3.4082e-06
1610.0 3.5044e-06
1630.0 3.6035e-06
1650.0 3.7051e-06
1670.0 3.8033e-06
1690.0 3.9002e-06
1710.0 4.0007e-06
1730.0 4.1016e-06
1750.0 4.1963e-06
1770.0 4.2936e-06
1790.0 4.3926e-06
1810.0 4.4882e-06
1830.0 4.5817e-06
1850.0 4.6808e-06
1870.0 4.7767e-06
1890.0 4.8689e-06
1910.0 4.9624e-06
1930.0 5.0577e-06
1950.0 5.1476e-06
1970.0 5.2356e-06
1990.0 5.3263e-06
2010.0 5.4143e-06
2030.0 5.4977e-06
2050.0 5.5827e-06
2070.0 5.6687e-06
2090.0 5.7475e-06
2110.0 5.8243e-06
2130.0 5.9021e-06
2150.0 5.9761e-06
2170.0 6.0438e-06
2190.0 6.1127e-06
2210.0 6.1796e-06
2230.0 6.2402e-06
2250.0 6.2976e-06
2270.0 6.356e-06
2290.0 6.4085e-06
2310.0 6.4543e-06
2330.0 6.5e-06
2350.0 6.5444e-06
2370.0 6.5844e-06
2390.0 6.6272e-06
2410.0 6.6819e-06
2430.0 6.7468e-06
2450.0 6.8289e-06
2470.0 6.9442e-06
2490.0 7.0993e-06
2510.0 7.2797e-06
2530.0 7.5091e-06
2550.0 7.8166e-06
2570.0 8.2217e-06
2590.0 8.772e-06
2610.0 9.6249e-06
2630.0 1.0843e-05
2650.0 1.2403e-05
2670.0 1.4368e-05
2690.0 1.6709e-05
2710.0 1.9103e-05
2730.0 2.1357e-05
2750.0 2.347e-05
2770.0 2.5178e-05
2790.0 2.6398e-05
2810.0 2.724e-05
2830.0 2.7777e-05
2850.0 2.7997e-05
2870.0 2.804e-05
2890.0 2.7984e-05
2910.0 2.7858e-05
2930.0 2.7687e-05
2950.0 2.751e-05
2970.0 2.7334e-05
2990.0 2.7153e-05
3010.0 0.00085023
3030.0 0.00084515
3050.0 0.00084016
3070.0 0.00083472
3090.0 0.00082891
3110.0 0.00082186
3130.0 0.00081259
3150.0 0.00080037
3170.0 0.00078371
3190.0 0.00076291
3210.0 0.0007393
3230.0 0.00071383
3250.0 0.00068809
3270.0 0.00066882
3290.0 0.00065424
3310.0 0.00065081
3330.0 0.0006549
3350.0 0.00066628
3370.0 0.0006849
3390.0 0.00070982
3410.0 0.00073779
3430.0 0.00076986
3450.0 0.00080731
3470.0 0.00084873
3490.0 0.0008933
3510.0 0.00094415
3530.0 0.00099982
3550.0 0.0010597
3570.0 0.001126
3590.0 0.0012006
3610.0 0.001284
3630.0 0.0013677
3650.0 0.0014566
3670.0 0.001537
3690.0 0.0015971
3710.0 0.0016273
3730.0 0.0016095
3750.0 0.0015437
3770.0 0.0015684
3790.0 0.0015176
3810.0 0.0011557
3830.0 0.0010864
3850.0 0.0015709
3870.0 0.0014525
3890.0 0.0011056
3910.0 0.0011552
3930.0 0.0015204
3950.0 0.0018018
3970.0 0.0020919
3990.0 0.0015194
4010.0 0.0025553
4030.0 0.0023654
4050.0 0.0023555
4070.0 0.0027458
4090.0 0.0026251
4110.0 0.0024352
4130.0 0.0030587
4150.0 0.0040586
4170.0 0.0032249
4190.0 0.0028278
4210.0 0.0031853
4230.0 0.0039822
4250.0 0.0047119
4270.0 0.0051246
4290.0 0.0046059
4310.0 0.0042427
4330.0 0.0042277
4350.0 0.0054401
4370.0 0.0066068
4390.0 0.0052584
4410.0 0.0029928
4430.0 0.0021287
4450.0 0.0019594
4470.0 0.001312
4490.0 0.0022313
4510.0 0.0045183
4530.0 0.0054879
4550.0 0.0052722
4570.0 0.0047846
4590.0 0.0051804
4610.0 0.010074
4630.0 0.014026
4650.0 0.013175
4670.0 0.011611
4690.0 0.012096
4710.0 0.012709
4730.0 0.010246
4750.0 0.0065431
4770.0 0.0045736
4790.0 0.0051236
4810.0 0.0053537
4830.0 0.0053059
4850.0 0.0057957
4870.0 0.0076755
4890.0 0.0089037
4910.0 0.0068623
4930.0 0.0066218
4950.0 0.0076383
4970.0 0.010268
4990.0 0.013824
5010.0 0.015847
5030.0 0.012531
5050.0 0.0075401
5070.0 0.005387
5090.0 0.0041672
5110.0 0.0039138
5130.0 0.0046405
5150.0 0.0044558
5170.0 0.0041947
5190.0 0.0037621
5210.0 0.004118
5230.0 0.0051327
5250.0 0.0059977
5270.0 0.0055676
5290.0 0.0060581
5310.0 0.0081149
5330.0 0.008577
5350.0 0.0084463
5370.0 0.0095697
5390.0 0.011901
5410.0 0.010111
5430.0 0.0076366
5450.0 0.0077154
5470.0 0.0090811
5490.0 0.011492
5510.0 0.014091
5530.0 0.016305
5550.0 0.014669
5570.0 0.013101
5590.0 0.010758
5610.0 0.010963
5630.0 0.012325
5650.0 0.01148
5670.0 0.010602
5690.0 0.0085736
5710.0 0.0087982
5730.0 0.0085794
5750.0 0.0045627
5770.0 0.0033212
5790.0 0.0041398
5810.0 0.0044503
5830.0 0.0068822
5850.0 0.0089187
5870.0 0.0094614
5890.0 0.0089242
5910.0 0.0086345
5930.0 0.0083856
5950.0 0.0086962
5970.0 0.01077
5990.0 0.0088167
6010.0 0.0067462
6030.0 0.0054697
6050.0 0.0048741
6070.0 0.0058676
6090.0 0.0066738
6110.0 0.0067837
6130.0 0.0061566
6150.0 0.0048562
6170.0 0.0039436
6190.0 0.0049273
6210.0 0.0077124
6230.0 0.011187
6250.0 0.011889
6270.0 0.0090715
6290.0 0.0077457
6310.0 0.0059162
6330.0 0.0043233
6350.0 0.0042546
6370.0 0.004475
6390.0 0.005408
6410.0 0.0069376
6430.0 0.0083608
6450.0 0.010324
6470.0 0.010978
6490.0 0.013233
6510.0 0.014861
6530.0 0.014996
6550.0 0.013822
6570.0 0.011354
6590.0 0.010979
6610.0 0.0091131
6630.0 0.0094588
6650.0 0.0091138
6670.0 0.008078
6690.0 0.0064064
6710.0 0.0062174
6730.0 0.0029887
6750.0 0.0037936
6770.0 0.0057463
6790.0 0.0076119
6810.0 0.0055407
6830.0 0.0056631
6850.0 0.0047894
6870.0 0.0045381
6890.0 0.0038753
6910.0 0.0045712
6930.0 0.0042883
6950.0 0.0051273
6970.0 0.0052523
6990.0 0.005816
7010.0 0.0057232
7030.0 0.0063859
7050.0 0.0055189
7070.0 0.0046604
7090.0 0.0049117
7110.0 0.0050952
7130.0 0.0058107
7150.0 0.0066184
7170.0 0.0073803
7190.0 0.0077415
7210.0 0.0068367
7230.0 0.0069063
7250.0 0.0074958
7270.0 0.0081858
7290.0 0.0099329
7310.0 0.010269
7330.0 0.0094084
7350.0 0.0083903
7370.0 0.0062185
7390.0 0.0065162
7410.0 0.0080714
7430.0 0.0091707
7450.0 0.0098613
7470.0 0.009162
7490.0 0.0077385
7510.0 0.012371
7530.0 0.011079
7550.0 0.010269
7570.0 0.0069112
7590.0 0.0030422
7610.0 0.0021515
7630.0 0.0032477
7650.0 0.0043558
7670.0 0.0069226
7690.0 0.0077816
7710.0 0.0070066
7730.0 0.0068744
7750.0 0.0089683
7770.0 0.0091756
7790.0 0.0084488
7810.0 0.0069153
7830.0 0.0074213
7850.0 0.0080774
7870.0 0.0079098
7890.0 0.0062227
7910.0 0.0041621
7930.0 0.0042435
7950.0 0.0038157
7970.0 0.0032258
7990.0 0.0029152
8010.0 0.0023947
8030.0 0.0022517
8050.0 0.0023969
8070.0 0.0025941
8090.0 0.0030266
8110.0 0.0028331
8130.0 0.0018622
8150.0 0.001858
8170.0 0.0012229
8190.0 0.00091126
8210.0 0.0016837
8230.0 0.0019678
8250.0 0.0010406
8270.0 0.00086516
8290.0 0.0012134
8310.0 0.00099241
8330.0 0.00061245
8350.0 0.00048623
8370.0 0.00019711
8390.0 0.00053294
8410.0 0.00063571
8430.0 0.00079152
8450.0 0.00088724
8470.0 0.0013533
8490.0 0.0011381
8510.0 0.00093121
8530.0 0.00058365
8550.0 0.0015113
8570.0 0.0022721
8590.0 0.0017439
8610.0 0.0024941
8630.0 0.0027387
8650.0 0.0017456
8670.0 0.0023108
8690.0 0.0032805
8710.0 0.0028733
8730.0 0.0030352
8750.0 0.0024623
8770.0 0.0022282
8790.0 0.0024266
8810.0 0.0025672
8830.0 0.0015549
8850.0 0.00083389
8870.0 0.00063057
8890.0 0.0011751
8910.0 0.001728
8930.0 0.0022042
8950.0 0.0024913
8970.0 0.0024245
8990.0 0.0019199
9010.0 0.0014193
9030.0 0.0011465
9050.0 0.0011903
9070.0 0.0012327
9090.0 0.0012665
9110.0 0.0013061
9130.0 0.001335
9150.0 0.0013559
9170.0 0.0013783
9190.0 0.0014022
9210.0 0.0014272
9230.0 0.0014537
9250.0 0.0014806
9270.0 0.0015085
9290.0 0.0015371
9310.0 0.0015658
9330.0 0.001595
9350.0 0.0016251
9370.0 0.0016555
9390.0 0.0016862
9410.0 0.0017176
9430.0 0.0017499
9450.0 0.001782
9470.0 0.0018148
9490.0 0.0018484
9510.0 0.0018823
9530.0 0.0019164
9550.0 0.0019516
9570.0 0.0019874
9590.0 0.0020232
9610.0 0.0020596
9630.0 0.0020969
9650.0 0.0021345
9670.0 0.0021722
9690.0 0.0022108
9710.0 0.00225
9730.0 0.0022893
9750.0 0.0023291
9770.0 0.0023701
9790.0 0.002411
9810.0 0.0024521
9830.0 0.002494
9850.0 0.0025364
9870.0 0.0025787
9890.0 0.0026216
9910.0 0.0026653
9930.0 0.002709
9950.0 0.0027529
9970.0 0.0027976
9990.0 0.0028427
10010.0 0.002593
10030.0 0.0026331
10050.0 0.0026736
10070.0 0.0027137
10090.0 0.0027543
10110.0 0.0027957
10130.0 0.002837
10150.0 0.002878
10170.0 0.0029193
10190.0 0.0029611
10210.0 0.0030024
10230.0 0.0030436
10250.0 0.0030851
10270.0 0.0031266
10290.0 0.0031677
10310.0 0.003209
10330.0 0.0032505
10350.0 0.0032914
10370.0 0.003332
10390.0 0.0033729
10410.0 0.0034135
10430.0 0.0034533
10450.0 0.0034933
10470.0 0.0035331
10490.0 0.0035723
10510.0 0.003611
10530.0 0.00365
10550.0 0.0036882
10570.0 0.0037257
10590.0 0.003763
10610.0 0.0037999
10630.0 0.003836
10650.0 0.0038715
10670.0 0.003907
10690.0 0.0039416
10710.0 0.0039753
10730.0 0.0040087
10750.0 0.0040418
10770.0 0.0040735
10790.0 0.0041046
10810.0 0.0041353
10830.0 0.0041648
10850.0 0.0041929
10870.0 0.0042198
10890.0 0.0042439
10910.0 0.0042633
10930.0 0.0042763
10950.0 0.0042792
10970.0 0.004269
10990.0 0.0042443
11010.0 0.0043335
11030.0 0.0042683
11050.0 0.004187
11070.0 0.0040883
11090.0 0.0039686
11110.0 0.0038442
11130.0 0.0037142
11150.0 0.0035744
11170.0 0.0034307
11190.0 0.003292
11210.0 0.0031496
11230.0 0.0030047
11250.0 0.0028673
11270.0 0.0027362
11290.0 0.002606
11310.0 0.0024833
11330.0 0.0023755
11350.0 0.0022739
11370.0 0.0021799
11390.0 0.002098
11410.0 0.0020254
11430.0 0.0019571
11450.0 0.0018968
11470.0 0.0018431
11490.0 0.0017919
11510.0 0.0017413
11530.0 0.0016933
11550.0 0.0016451
11570.0 0.0015937
11590.0 0.0015408
11610.0 0.0014873
11630.0 0.0014298
11650.0 0.0013691
11670.0 0.0013098
11690.0 0.0012503
11710.0 0.0011894
11730.0 0.0011308
11750.0 0.0010765
11770.0 0.0010233
11790.0 0.00097344
11810.0 0.00092912
11830.0 0.00088906
11850.0 0.00085176
11870.0 0.00081979
11890.0 0.00079241
11910.0 0.00076766
11930.0 0.00074559
11950.0 0.00072637
11970.0 0.00070857
11990.0 0.0006913
12010.0 0.00067492
12030.0 0.00065895
12050.0 0.0006425
12070.0 0.0006255
12090.0 0.00060902
12110.0 0.00059227
12130.0 0.00057533
12150.0 0.0005592
12170.0 0.00054434
12190.0 0.00053026
12210.0 0.00051828
12230.0 0.00050892
12250.0 0.00050218
12270.0 0.00049854
12290.0 0.00049823
12310.0 0.000501
12330.0 0.00050741
12350.0 0.00051715
12370.0 0.0005293
12390.0 0.00054424
12410.0 0.00056262
12430.0 0.00058155
12450.0 0.00060134
12470.0 0.00062261
12490.0 0.00064394
12510.0 0.00066367
12530.0 0.00068318
12550.0 0.00070177
12570.0 0.00071767
12590.0 0.00073113
12610.0 0.0007427
12630.0 0.00075121
12650.0 0.00075603
12670.0 0.00075813
12690.0 0.00075713
12710.0 0.00075292
12730.0 0.00074591
12750.0 0.00073592
12770.0 0.00072339
12790.0 0.00070891
12810.0 0.00069231
12830.0 0.00067368
12850.0 0.00065442
12870.0 0.00063433
12890.0 0.00061293
12910.0 0.00059133
12930.0 0.00057007
12950.0 0.00054808
12970.0 0.00052579
12990.0 0.00050459
13010.0 0.00048363
13030.0 0.00046243
13050.0 0.00044193
13070.0 0.00042256
13090.0 0.00040304
13110.0 0.00038401
13130.0 0.00036625
13150.0 0.00034926
13170.0 0.0003325
13190.0 0.00031732
13210.0 0.0003037
13230.0 0.00029103
13250.0 0.00027979
13270.0 0.0002705
13290.0 0.00026277
13310.0 0.00025671
13330.0 0.00025273
13350.0 0.00025068
13370.0 0.0002506
13390.0 0.00025261
13410.0 0.00025623
13430.0 0.0002616
13450.0 0.00026875
13470.0 0.00027705
13490.0 0.0002861
13510.0 0.00029664
13530.0 0.00030756
13550.0 0.00031818
13570.0 0.00032885
13590.0 0.00033946
13610.0 0.00034904
13630.0 0.00035752
13650.0 0.00036543
13670.0 0.00037209
13690.0 0.00037731
13710.0 0.00038142
13730.0 0.00038445
13750.0 0.00038599
13770.0 0.0003864
13790.0 0.00038576
13810.0 0.00038406
13830.0 0.00038148
13850.0 0.000378
13870.0 0.00037365
13890.0 0.00036868
13910.0 0.00036314
13930.0 0.00035681
13950.0 0.00034998
13970.0 0.00034306
13990.0 0.00033563
14010.0 0.00032783
14030.0 0.00032012
14050.0 0.00031243
14070.0 0.0003044
14090.0 0.00029676
14110.0 0.00028961
14130.0 0.00028271
14150.0 0.00027623
14170.0 0.00027068
14190.0 0.00026585
14210.0 0.00026172
14230.0 0.00025858
14250.0 0.00025646
14270.0 0.00025528
14290.0 0.0002552
14310.0 0.00025614
14330.0 0.00025805
14350.0 0.00026101
14370.0 0.00026481
14390.0 0.00026925
14410.0 0.00027459
14430.0 0.00028059
14450.0 0.00028687
14470.0 0.00029354
14490.0 0.00030083
14510.0 0.00030802
14530.0 0.00031508
14550.0 0.00032238
14570.0 0.00032967
14590.0 0.0003366
14610.0 0.00034358
14630.0 0.00035079
14650.0 0.00035779
14670.0 0.00036479
14690.0 0.00037224
14710.0 0.00038016
14730.0 0.0003881
14750.0 0.00039677
14770.0 0.00040641
14790.0 0.0004166
14810.0 0.00042738
14830.0 0.00043977
14850.0 0.00045287
14870.0 0.00046624
14890.0 0.00048036
14910.0 0.00049507
14930.0 0.00050904
14950.0 0.000522
14970.0 0.00053419
14990.0 0.00054445
15010.0 0.00055242
15030.0 0.00055849
15050.0 0.00056273
15070.0 0.00056519
15090.0 0.00056654
15110.0 0.00056712
15130.0 0.00056722
15150.0 0.00056711
15170.0 0.00056684
15190.0 0.0005665
15210.0 0.00056619
15230.0 0.00056589
15250.0 0.00056554
15270.0 0.00056522
15290.0 0.00056498
15310.0 0.00056471
15330.0 0.00056442
15350.0 0.00056419
15370.0 0.00056398
15390.0 0.0005637
15410.0 0.00056346
15430.0 0.00056327
15450.0 0.00056305
15470.0 0.00056281
15490.0 0.00056264
15510.0 0.00056247
15530.0 0.00056225
15550.0 0.00056206
15570.0 0.00056191
15590.0 0.00056171
15610.0 0.00056148
15630.0 0.00056133
15650.0 0.00056117
15670.0 0.00056096
15690.0 0.00056078
15710.0 0.00056064
15730.0 0.00056043
15750.0 0.00056022
15770.0 0.00056006
15790.0 0.00055988
15810.0 0.00055963
15830.0 0.00055943
15850.0 0.00055925
15870.0 0.00055903
15890.0 0.00055879
15910.0 0.0005586
15930.0 0.00055837
15950.0 0.00055809
15970.0 0.00055784
15990.0 0.00055761
16010.0 0.00055732
16030.0 0.000557
16050.0 0.00055676
16070.0 0.00055647
16090.0 0.00055613
16110.0 0.00055582
16130.0 0.00055553
16150.0 0.00055513
16170.0 0.00055475
16190.0 0.00055442
16210.0 0.00055403
16230.0 0.0005536
16250.0 0.0005532
16270.0 0.00055281
16290.0 0.00055234
16310.0 0.00055187
16330.0 0.00055143
16350.0 0.00055095
16370.0 0.00055037
16390.0 0.00054988
16410.0 0.00054937
16430.0 0.00054879
16450.0 0.00054821
16470.0 0.00054767
16490.0 0.00054705
16510.0 0.00054639
16530.0 0.00054576
16550.0 0.00054513
16570.0 0.0005444
16590.0 0.00054368
16610.0 0.00054302
16630.0 0.00054228
16650.0 0.00054149
16670.0 0.00054075
16690.0 0.00053999
16710.0 0.00053911
16730.0 0.00053828
16750.0 0.00053746
16770.0 0.00053657
16790.0 0.00053564
16810.0 0.00053476
16830.0 0.00053385
16850.0 0.00053287
16870.0 0.0005319
16890.0 0.00053095
16910.0 0.0005299
16930.0 0.00052882
16950.0 0.0005278
16970.0 0.00052675
16990.0 0.00052562
17010.0 0.00052451
17030.0 0.00052342
17050.0 0.00052224
17070.0 0.00052104
17090.0 0.00051988
17110.0 0.00051868
17130.0 0.00051738
17150.0 0.00051613
17170.0 0.0005149
17190.0 0.00051359
17210.0 0.00051226
17230.0 0.00051097
17250.0 0.00050962
17270.0 0.0005082
17290.0 0.00050682
17310.0 0.00050544
17330.0 0.00050399
17350.0 0.0005025
17370.0 0.00050109
17390.0 0.00049962
17410.0 0.00049808
17430.0 0.00049658
17450.0 0.00049509
17470.0 0.00049348
17490.0 0.00049189
17510.0 0.00049034
17530.0 0.00048873
17550.0 0.00048707
17570.0 0.00048546
17590.0 0.00048384
17610.0 0.00048213
17630.0 0.00048044
17650.0 0.00047878
17670.0 0.00047706
17690.0 0.00047525
17710.0 0.00047354
17730.0 0.0004718
17750.0 0.00047
17770.0 0.0004682
17790.0 0.00046646
17810.0 0.00046462
17830.0 0.00046275
17850.0 0.00046093
17870.0 0.00045909
17890.0 0.00045718
17910.0 0.00045528
17930.0 0.00045344
17950.0 0.00045153
17970.0 0.00044958
17990.0 0.00044769
18010.0 0.00044578
18030.0 0.00044377
18050.0 0.00044181
18070.0 0.00043987
18090.0 0.00043788
18110.0 0.00043585
18130.0 0.0004339
18150.0 0.00043191
18170.0 0.00042986
18190.0 0.00042784
18210.0 0.00042585
18230.0 0.00042378
18250.0 0.00042169
18270.0 0.00041967
18290.0 0.00041762
18310.0 0.00041552
18330.0 0.00041346
18350.0 0.00041143
18370.0 0.00040931
18390.0 0.00040719
18410.0 0.00040513
18430.0 0.00040303
18450.0 0.00040087
18470.0 0.00039877
18490.0 0.00039669
18510.0 0.00039455
18530.0 0.00039241
18550.0 0.00039034
18570.0 0.0003882
18590.0 0.00038602
18610.0 0.0003839
18630.0 0.00038179
18650.0 0.00037962
18670.0 0.00037744
18690.0 0.00037535
18710.0 0.00037321
18730.0 0.00037103
18750.0 0.0003689
18770.0 0.00036679
18790.0 0.00036458
18810.0 0.00036242
18830.0 0.0003603
18850.0 0.00035815
18870.0 0.00035596
18890.0 0.00035384
18910.0 0.00035173
18930.0 0.00034954
18950.0 0.00034739
18970.0 0.00034528
18990.0 0.00034313
19010.0 0.00034092
19030.0 0.00033882
19050.0 0.0003367
19070.0 0.00033454
19090.0 0.0003324
19110.0 0.00033032
19130.0 0.00032817
19150.0 0.00032601
19170.0 0.00032391
19190.0 0.0003218
19210.0 0.00031964
19230.0 0.00031752
19250.0 0.00031546
19270.0 0.00031334
19290.0 0.00031122
19310.0 0.00030915
19330.0 0.00030708
19350.0 0.00030493
19370.0 0.00030285
19390.0 0.0003008
19410.0 0.00029871
19430.0 0.00029661
19450.0 0.00029458
19470.0 0.00029254
19490.0 0.00029045
19510.0 0.00028841
19530.0 0.0002864
19550.0 0.00028433
19570.0 0.00028226
19590.0 0.00028027
19610.0 0.00027825
19630.0 0.00027621
19650.0 0.00027421
19670.0 0.00027225
19690.0 0.00027022
19710.0 0.00026821
19730.0 0.00026625
19750.0 0.00026428
19770.0 0.00026225
19790.0 0.0002603
19810.0 0.00025838
19830.0 0.0002564
19850.0 0.00025442
19870.0 0.00025249
19890.0 0.00025046
19910.0 0.00024832
19930.0 0.0002461
19950.0 0.00024369
19970.0 0.0002409
19990.0 0.00023772
20010.0 0.00022682
20030.0 0.00022291
20050.0 0.00021849
20070.0 0.00021381
20090.0 0.00020889
20110.0 0.00020345
20130.0 0.00019803
20150.0 0.00019271
20170.0 0.00018728
20190.0 0.00018183
20210.0 0.00017671
20230.0 0.00017175
20250.0 0.0001668
20270.0 0.00016222
20290.0 0.00015802
20310.0 0.00015402
20330.0 0.00015026
20350.0 0.00014708
20370.0 0.00014422
20390.0 0.00014167
20410.0 0.00013954
20430.0 0.00013782
20450.0 0.00013639
20470.0 0.00013532
20490.0 0.00013462
20510.0 0.00013421
20530.0 0.00013411
20550.0 0.00013428
20570.0 0.00013466
20590.0 0.00013529
20610.0 0.00013613
20630.0 0.0001371
20650.0 0.00013823
20670.0 0.00013958
20690.0 0.00014096
20710.0 0.0001424
20730.0 0.00014398
20750.0 0.00014562
20770.0 0.00014722
20790.0 0.0001489
20810.0 0.00015066
20830.0 0.00015238
20850.0 0.00015407
20870.0 0.00015587
20890.0 0.00015768
20910.0 0.00015939
20930.0 0.00016114
20950.0 0.00016294
20970.0 0.00016467
20990.0 0.00016636
21010.0 0.00016813
21030.0 0.00016985
21050.0 0.00017148
21070.0 0.0001731
21090.0 0.00017474
21110.0 0.00017622
21130.0 0.00017761
21150.0 0.00017898
21170.0 0.00018023
21190.0 0.00018131
21210.0 0.00018231
21230.0 0.00018319
21250.0 0.00018384
21270.0 0.00018431
21290.0 0.00018459
21310.0 0.00018462
21330.0 0.0001844
21350.0 0.00018392
21370.0 0.00018314
21390.0 0.00018208
21410.0 0.00018072
21430.0 0.00017896
21450.0 0.00017692
21470.0 0.00017464
21490.0 0.00017202
21510.0 0.00016909
21530.0 0.00016605
21550.0 0.00016281
21570.0 0.0001593
21590.0 0.00015578
21610.0 0.00015231
21630.0 0.00014877
21650.0 0.00014523
21670.0 0.00014207
21690.0 0.00013906
21710.0 0.00013624
21730.0 0.0001338
21750.0 0.00013175
21770.0 0.00012998
21790.0 0.00012865
21810.0 0.00012778
21830.0 0.00012731
21850.0 0.00012726
21870.0 0.00012763
21890.0 0.00012834
21910.0 0.00012944
21930.0 0.00013089
21950.0 0.00013257
21970.0 0.00013453
21990.0 0.00013684
22010.0 0.00013923
22030.0 0.00014173
22050.0 0.00014443
22070.0 0.00014722
22090.0 0.00014992
22110.0 0.00015271
22130.0 0.00015556
22150.0 0.00015827
22170.0 0.00016088
22190.0 0.00016353
22210.0 0.00016603
22230.0 0.00016826
22250.0 0.0001704
22270.0 0.0001724
22290.0 0.00017412
22310.0 0.00017562
22330.0 0.00017696
22350.0 0.00017802
22370.0 0.00017877
22390.0 0.00017927
22410.0 0.00017949
22430.0 0.00017937
22450.0 0.00017896
22470.0 0.00017822
22490.0 0.00017715
22510.0 0.0001758
22530.0 0.00017407
22550.0 0.00017196
22570.0 0.00016962
22590.0 0.00016697
22610.0 0.00016392
22630.0 0.00016062
22650.0 0.00015719
22670.0 0.0001534
22690.0 0.00014934
22710.0 0.00014523
22730.0 0.00014098
22750.0 0.00013637
22770.0 0.00013183
22790.0 0.00012739
22810.0 0.00012281
22830.0 0.00011823
22850.0 0.00011393
22870.0 0.0001097
22890.0 0.00010548
22910.0 0.00010158
22930.0 9.8002e-05
22950.0 9.4587e-05
22970.0 9.1422e-05
22990.0 8.8789e-05
23010.0 8.6447e-05
23030.0 8.4428e-05
23050.0 8.2849e-05
23070.0 8.1688e-05
23090.0 8.0874e-05
