#lamb flux
1010.0 1.182e-06
1030.0 1.3262e-06
1050.0 1.492e-06
1070.0 1.6787e-06
1090.0 1.8908e-06
1110.0 2.1083e-06
1130.0 2.3272e-06
1150.0 2.5565e-06
1170.0 2.793e-06
1190.0 3.0173e-06
1210.0 3.2446e-06
1230.0 3.4795e-06
1250.0 3.7096e-06
1270.0 3.9331e-06
1290.0 4.1693e-06
1310.0 4.4053e-06
1330.0 4.6316e-06
1350.0 4.8604e-06
1370.0 5.0966e-06
1390.0 5.327e-06
1410.0 5.5504e-06
1430.0 5.784e-06
1450.0 6.0176e-06
1470.0 6.2433e-06
1490.0 6.4713e-06
1510.0 6.7122e-06
1530.0 6.9404e-06
1550.0 7.1653e-06
1570.0 7.398e-06
1590.0 7.6308e-06
1610.0 7.8531e-06
1630.0 8.0821e-06
1650.0 8.3169e-06
1670.0 8.5438e-06
1690.0 8.7676e-06
1710.0 8.9996e-06
1730.0 9.2326e-06
1750.0 9.4511e-06
1770.0 9.6756e-06
1790.0 9.9041e-06
1810.0 1.0124e-05
1830.0 1.034e-05
1850.0 1.0568e-05
1870.0 1.0789e-05
1890.0 1.1001e-05
1910.0 1.1215e-05
1930.0 1.1434e-05
1950.0 1.164e-05
1970.0 1.1842e-05
1990.0 1.2049e-05
2010.0 1.2249e-05
2030.0 1.2439e-05
2050.0 1.2632e-05
2070.0 1.2827e-05
2090.0 1.3005e-05
2110.0 1.3178e-05
2130.0 1.3352e-05
2150.0 1.3517e-05
2170.0 1.3667e-05
2190.0 1.3819e-05
2210.0 1.3966e-05
2230.0 1.4097e-05
2250.0 1.422e-05
2270.0 1.4345e-05
2290.0 1.4455e-05
2310.0 1.4548e-05
2330.0 1.464e-05
2350.0 1.4725e-05
2370.0 1.4795e-05
2390.0 1.4864e-05
2410.0 1.4943e-05
2430.0 1.5024e-05
2450.0 1.5114e-05
2470.0 1.5238e-05
2490.0 1.5403e-05
2510.0 1.5594e-05
2530.0 1.5859e-05
2550.0 1.6266e-05
2570.0 1.6874e-05
2590.0 1.778e-05
2610.0 1.9269e-05
2630.0 2.1432e-05
2650.0 2.4183e-05
2670.0 2.7589e-05
2690.0 3.1541e-05
2710.0 3.5454e-05
2730.0 3.9008e-05
2750.0 4.2219e-05
2770.0 4.4696e-05
2790.0 4.6357e-05
2810.0 4.742e-05
2830.0 4.8028e-05
2850.0 4.8177e-05
2870.0 4.8085e-05
2890.0 4.7872e-05
2910.0 4.757e-05
2930.0 4.7205e-05
2950.0 4.6843e-05
2970.0 4.6489e-05
2990.0 4.6125e-05
3010.0 0.0011952
3030.0 0.0011861
3050.0 0.0011773
3070.0 0.0011677
3090.0 0.0011577
3110.0 0.0011461
3130.0 0.0011317
3150.0 0.0011135
3170.0 0.00109
3190.0 0.0010617
3210.0 0.0010307
3230.0 0.00099862
3250.0 0.00096894
3270.0 0.00094769
3290.0 0.00093564
3310.0 0.00093668
3330.0 0.00094957
3350.0 0.00097252
3370.0 0.0010059
3390.0 0.0010483
3410.0 0.001095
3430.0 0.0011479
3450.0 0.0012092
3470.0 0.0012764
3490.0 0.0013478
3510.0 0.0014284
3530.0 0.0015154
3550.0 0.0016055
3570.0 0.0017025
3590.0 0.0018117
3610.0 0.0019296
3630.0 0.0020518
3650.0 0.0021809
3670.0 0.0023008
3690.0 0.002393
3710.0 0.0024454
3730.0 0.0024379
3750.0 0.0023686
3770.0 0.0022694
3790.0 0.002105
3810.0 0.0018071
3830.0 0.0016211
3850.0 0.0015967
3870.0 0.0012123
3890.0 0.0014143
3910.0 0.0020925
3930.0 0.002616
3950.0 0.0026852
3970.0 0.0029525
3990.0 0.0030082
4010.0 0.0041668
4030.0 0.0040106
4050.0 0.0035516
4070.0 0.0035118
4090.0 0.0033569
4110.0 0.0038128
4130.0 0.004281
4150.0 0.0047291
4170.0 0.0043402
4190.0 0.0041808
4210.0 0.0043168
4230.0 0.0050518
4250.0 0.0056632
4270.0 0.0059158
4290.0 0.0057442
4310.0 0.0056138
4330.0 0.0059913
4350.0 0.0072345
4370.0 0.0084147
4390.0 0.0074525
4410.0 0.0054304
4430.0 0.0043704
4450.0 0.0038145
4470.0 0.0034551
4490.0 0.0041926
4510.0 0.0056453
4530.0 0.0064904
4550.0 0.0070446
4570.0 0.0076026
4590.0 0.0088848
4610.0 0.013118
4630.0 0.016866
4650.0 0.016677
4670.0 0.015439
4690.0 0.016416
4710.0 0.017458
4730.0 0.014479
4750.0 0.0098255
4770.0 0.0076589
4790.0 0.0078078
4810.0 0.0075166
4830.0 0.0071938
4850.0 0.0080879
4870.0 0.010609
4890.0 0.012356
4910.0 0.010048
4930.0 0.0090682
4950.0 0.010222
4970.0 0.0138
4990.0 0.018288
5010.0 0.020138
5030.0 0.016349
5050.0 0.010126
5070.0 0.0070254
5090.0 0.0059804
5110.0 0.006057
5130.0 0.0067103
5150.0 0.0068372
5170.0 0.0067146
5190.0 0.0064153
5210.0 0.0063997
5230.0 0.0070031
5250.0 0.0077268
5270.0 0.0082098
5290.0 0.0093257
5310.0 0.011013
5330.0 0.011371
5350.0 0.011304
5370.0 0.012474
5390.0 0.014308
5410.0 0.013259
5430.0 0.010848
5450.0 0.010221
5470.0 0.011612
5490.0 0.014879
5510.0 0.018891
5530.0 0.021395
5550.0 0.020122
5570.0 0.018051
5590.0 0.015586
5610.0 0.014882
5630.0 0.014981
5650.0 0.014824
5670.0 0.014184
5690.0 0.012492
5710.0 0.012175
5730.0 0.011419
5750.0 0.0072467
5770.0 0.005979
5790.0 0.0069517
5810.0 0.0081927
5830.0 0.010256
5850.0 0.011991
5870.0 0.012493
5890.0 0.011976
5910.0 0.011487
5930.0 0.011383
5950.0 0.011873
5970.0 0.01347
5990.0 0.012127
6010.0 0.0098546
6030.0 0.0081155
6050.0 0.0070699
6070.0 0.0074902
6090.0 0.0085175
6110.0 0.0091675
6130.0 0.008651
6150.0 0.0075193
6170.0 0.0075217
6190.0 0.0091864
6210.0 0.012103
6230.0 0.01516
6250.0 0.015524
6270.0 0.013143
6290.0 0.010981
6310.0 0.0085977
6330.0 0.0066288
6350.0 0.0060862
6370.0 0.0064853
6390.0 0.0077755
6410.0 0.0093262
6430.0 0.010974
6450.0 0.013056
6470.0 0.015144
6490.0 0.0186
6510.0 0.02079
6530.0 0.019804
6550.0 0.018143
6570.0 0.016622
6590.0 0.01605
6610.0 0.013889
6630.0 0.013091
6650.0 0.012163
6670.0 0.012011
6690.0 0.011131
6710.0 0.010139
6730.0 0.0079182
6750.0 0.0076226
6770.0 0.008348
6790.0 0.0099339
6810.0 0.0090463
6830.0 0.0092967
6850.0 0.0087491
6870.0 0.0083477
6890.0 0.0078798
6910.0 0.0080318
6930.0 0.0075013
6950.0 0.0080505
6970.0 0.0081306
6990.0 0.009075
7010.0 0.0094995
7030.0 0.009238
7050.0 0.008463
7070.0 0.0079768
7090.0 0.0076741
7110.0 0.0074138
7130.0 0.0078491
7150.0 0.0085427
7170.0 0.0092532
7190.0 0.0094564
7210.0 0.0089191
7230.0 0.0091251
7250.0 0.010259
7270.0 0.011785
7290.0 0.013315
7310.0 0.013281
7330.0 0.0119
7350.0 0.010616
7370.0 0.0093038
7390.0 0.009503
7410.0 0.010549
7430.0 0.011654
7450.0 0.012586
7470.0 0.01307
7490.0 0.013582
7510.0 0.015933
7530.0 0.014644
7550.0 0.012581
7570.0 0.0094406
7590.0 0.006221
7610.0 0.0053309
7630.0 0.0060711
7650.0 0.0072136
7670.0 0.0090044
7690.0 0.010211
7710.0 0.010447
7730.0 0.010598
7750.0 0.011664
7770.0 0.011684
7790.0 0.011098
7810.0 0.010565
7830.0 0.010568
7850.0 0.010059
7870.0 0.009316
7890.0 0.008063
7910.0 0.0064785
7930.0 0.0058472
7950.0 0.0052757
7970.0 0.0049753
7990.0 0.0049751
8010.0 0.0051573
8030.0 0.0051071
8050.0 0.0052043
8070.0 0.0052061
8090.0 0.0054789
8110.0 0.0051528
8130.0 0.0042579
8150.0 0.0040262
8170.0 0.0035096
8190.0 0.0033479
8210.0 0.0038741
8230.0 0.0042192
8250.0 0.0035997
8270.0 0.0031852
8290.0 0.0028259
8310.0 0.0020028
8330.0 0.0012857
8350.0 0.00095657
8370.0 0.00087911
8390.0 0.0011598
8410.0 0.0014574
8430.0 0.0017922
8450.0 0.0019887
8470.0 0.0023554
8490.0 0.0022345
8510.0 0.0021619
8530.0 0.0020947
8550.0 0.0028475
8570.0 0.0036715
8590.0 0.0038643
8610.0 0.0048227
8630.0 0.0055322
8650.0 0.0053708
8670.0 0.0056732
8690.0 0.0060294
8710.0 0.0055714
8730.0 0.0054534
8750.0 0.0049024
8770.0 0.0046564
8790.0 0.0047141
8810.0 0.0045942
8830.0 0.0036195
8850.0 0.0028103
8870.0 0.0023074
8890.0 0.0024811
8910.0 0.0028684
8930.0 0.003194
8950.0 0.0036173
8970.0 0.0036384
8990.0 0.003403
9010.0 0.0030377
9030.0 0.0029241
9050.0 0.0029672
9070.0 0.0030036
9090.0 0.0030313
9110.0 0.0030594
9130.0 0.0030819
9150.0 0.0031008
9170.0 0.0031209
9190.0 0.0031423
9210.0 0.0031649
9230.0 0.0031887
9250.0 0.0032136
9270.0 0.0032394
9290.0 0.0032661
9310.0 0.0032937
9330.0 0.0033222
9350.0 0.0033515
9370.0 0.0033817
9390.0 0.0034127
9410.0 0.0034446
9430.0 0.0034772
9450.0 0.0035108
9470.0 0.0035451
9490.0 0.0035802
9510.0 0.0036161
9530.0 0.0036529
9550.0 0.0036904
9570.0 0.0037286
9590.0 0.0037676
9610.0 0.0038074
9630.0 0.0038478
9650.0 0.003889
9670.0 0.0039309
9690.0 0.0039735
9710.0 0.0040167
9730.0 0.0040605
9750.0 0.004105
9770.0 0.00415
9790.0 0.0041957
9810.0 0.0042419
9830.0 0.0042886
9850.0 0.0043358
9870.0 0.0043836
9890.0 0.0044318
9910.0 0.0044804
9930.0 0.0045294
9950.0 0.0045788
9970.0 0.0046284
9990.0 0.0046784
10010.0 0.0044477
10030.0 0.004494
10050.0 0.0045405
10070.0 0.0045868
10090.0 0.0046338
10110.0 0.0046807
10130.0 0.0047277
10150.0 0.0047748
10170.0 0.0048218
10190.0 0.0048685
10210.0 0.0049153
10230.0 0.0049621
10250.0 0.0050085
10270.0 0.0050547
10290.0 0.0051008
10310.0 0.0051465
10330.0 0.0051918
10350.0 0.0052368
10370.0 0.0052815
10390.0 0.0053256
10410.0 0.0053692
10430.0 0.0054125
10450.0 0.0054551
10470.0 0.005497
10490.0 0.0055385
10510.0 0.0055792
10530.0 0.005619
10550.0 0.0056582
10570.0 0.0056968
10590.0 0.0057344
10610.0 0.0057711
10630.0 0.0058072
10650.0 0.0058422
10670.0 0.0058761
10690.0 0.0059092
10710.0 0.0059414
10730.0 0.0059724
10750.0 0.0060021
10770.0 0.0060312
10790.0 0.006059
10810.0 0.0060854
10830.0 0.0061105
10850.0 0.0061342
10870.0 0.0061551
10890.0 0.0061723
10910.0 0.0061842
10930.0 0.0061877
10950.0 0.0061775
10970.0 0.0061509
10990.0 0.0061065
11010.0 0.0060108
11030.0 0.0059172
11050.0 0.0058047
11070.0 0.0056703
11090.0 0.005508
11110.0 0.0053401
11130.0 0.0051646
11150.0 0.0049753
11170.0 0.0047807
11190.0 0.0045931
11210.0 0.004401
11230.0 0.0042063
11250.0 0.0040231
11270.0 0.0038498
11290.0 0.0036791
11310.0 0.0035202
11330.0 0.0033825
11350.0 0.003254
11370.0 0.0031364
11390.0 0.0030351
11410.0 0.0029462
11430.0 0.0028623
11450.0 0.002788
11470.0 0.0027212
11490.0 0.0026561
11510.0 0.0025899
11530.0 0.0025256
11550.0 0.0024594
11570.0 0.0023872
11590.0 0.0023117
11610.0 0.0022349
11630.0 0.0021519
11650.0 0.0020641
11670.0 0.0019787
11690.0 0.0018934
11710.0 0.0018068
11730.0 0.001724
11750.0 0.0016482
11770.0 0.0015747
11790.0 0.0015065
11810.0 0.0014467
11830.0 0.0013931
11850.0 0.0013437
11870.0 0.0013017
11890.0 0.0012659
11910.0 0.0012333
11930.0 0.0012039
11950.0 0.0011777
11970.0 0.0011527
11990.0 0.0011275
12010.0 0.0011028
12030.0 0.0010779
12050.0 0.0010515
12070.0 0.0010237
12090.0 0.00099663
12110.0 0.00096893
12130.0 0.00094084
12150.0 0.00091424
12170.0 0.00088991
12190.0 0.00086697
12210.0 0.00084768
12230.0 0.00083289
12250.0 0.00082246
12270.0 0.0008171
12290.0 0.00081718
12310.0 0.00082218
12330.0 0.00083286
12350.0 0.00084867
12370.0 0.00086813
12390.0 0.00089172
12410.0 0.00092031
12430.0 0.00094949
12450.0 0.00097968
12470.0 0.0010117
12490.0 0.0010434
12510.0 0.0010723
12530.0 0.0011004
12550.0 0.0011267
12570.0 0.0011486
12590.0 0.0011667
12610.0 0.0011816
12630.0 0.0011919
12650.0 0.0011969
12670.0 0.001198
12690.0 0.0011948
12710.0 0.0011874
12730.0 0.0011763
12750.0 0.0011613
12770.0 0.0011433
12790.0 0.001123
12810.0 0.0011
12830.0 0.0010746
12850.0 0.0010484
12870.0 0.0010211
12890.0 0.000992
12910.0 0.0009624
12930.0 0.000933
12950.0 0.00090222
12970.0 0.00087055
12990.0 0.00083998
13010.0 0.0008093
13030.0 0.00077782
13050.0 0.00074699
13070.0 0.00071754
13090.0 0.00068763
13110.0 0.00065831
13130.0 0.0006309
13150.0 0.00060473
13170.0 0.00057905
13190.0 0.00055606
13210.0 0.00053575
13230.0 0.00051726
13250.0 0.00050136
13270.0 0.00048874
13290.0 0.00047887
13310.0 0.0004719
13330.0 0.00046826
13350.0 0.00046761
13370.0 0.00046999
13390.0 0.00047543
13410.0 0.00048288
13430.0 0.00049262
13450.0 0.00050461
13470.0 0.0005177
13490.0 0.00053134
13510.0 0.00054658
13530.0 0.00056176
13550.0 0.00057601
13570.0 0.00058987
13590.0 0.0006032
13610.0 0.00061478
13630.0 0.00062462
13650.0 0.0006334
13670.0 0.00064035
13690.0 0.00064531
13710.0 0.0006487
13730.0 0.00065054
13750.0 0.00065053
13770.0 0.00064907
13790.0 0.00064623
13810.0 0.00064209
13830.0 0.00063696
13850.0 0.0006307
13870.0 0.00062338
13890.0 0.00061542
13910.0 0.00060681
13930.0 0.00059726
13950.0 0.00058716
13970.0 0.0005771
13990.0 0.00056645
14010.0 0.00055541
14030.0 0.00054463
14050.0 0.00053398
14070.0 0.000523
14090.0 0.00051267
14110.0 0.00050312
14130.0 0.00049405
14150.0 0.00048569
14170.0 0.00047867
14190.0 0.00047274
14210.0 0.00046787
14230.0 0.00046442
14250.0 0.00046237
14270.0 0.00046166
14290.0 0.00046246
14310.0 0.00046454
14330.0 0.00046788
14350.0 0.00047259
14370.0 0.00047831
14390.0 0.00048472
14410.0 0.00049225
14430.0 0.00050053
14450.0 0.00050905
14470.0 0.00051803
14490.0 0.00052782
14510.0 0.00053752
14530.0 0.00054716
14550.0 0.00055736
14570.0 0.00056788
14590.0 0.00057829
14610.0 0.00058929
14630.0 0.00060128
14650.0 0.00061357
14670.0 0.00062643
14690.0 0.00064066
14710.0 0.00065621
14730.0 0.00067194
14750.0 0.00068914
14770.0 0.00070797
14790.0 0.00072741
14810.0 0.00074731
14830.0 0.00076933
14850.0 0.00079162
14870.0 0.00081335
14890.0 0.00083531
14910.0 0.00085721
14930.0 0.00087712
14950.0 0.00089488
14970.0 0.00091096
14990.0 0.00092394
15010.0 0.00093356
15030.0 0.00094046
15050.0 0.00094482
15070.0 0.00094686
15090.0 0.00094746
15110.0 0.00094706
15130.0 0.00094605
15150.0 0.00094481
15170.0 0.00094334
15190.0 0.00094177
15210.0 0.00094027
15230.0 0.00093878
15250.0 0.00093721
15270.0 0.00093567
15290.0 0.00093427
15310.0 0.0009328
15330.0 0.00093131
15350.0 0.00092991
15370.0 0.00092853
15390.0 0.00092703
15410.0 0.00092561
15430.0 0.00092426
15450.0 0.00092285
15470.0 0.00092139
15490.0 0.00092006
15510.0 0.00091873
15530.0 0.00091731
15550.0 0.00091594
15570.0 0.00091463
15590.0 0.00091323
15610.0 0.00091178
15630.0 0.00091047
15650.0 0.00090912
15670.0 0.0009077
15690.0 0.00090633
15710.0 0.00090503
15730.0 0.00090361
15750.0 0.00090218
15770.0 0.00090084
15790.0 0.00089946
15810.0 0.00089796
15830.0 0.00089655
15850.0 0.00089519
15870.0 0.00089373
15890.0 0.00089226
15910.0 0.00089087
15930.0 0.00088942
15950.0 0.00088787
15970.0 0.00088639
15990.0 0.00088493
16010.0 0.00088338
16030.0 0.00088178
16050.0 0.00088032
16070.0 0.00087878
16090.0 0.00087715
16110.0 0.00087559
16130.0 0.00087405
16150.0 0.00087234
16170.0 0.00087066
16190.0 0.00086906
16210.0 0.00086739
16230.0 0.00086563
16250.0 0.00086394
16270.0 0.00086227
16290.0 0.00086047
16310.0 0.00085868
16330.0 0.00085694
16350.0 0.00085513
16370.0 0.00085318
16390.0 0.00085137
16410.0 0.00084953
16430.0 0.00084759
16450.0 0.00084565
16470.0 0.0008438
16490.0 0.0008418
16510.0 0.00083976
16530.0 0.00083778
16550.0 0.00083578
16570.0 0.00083365
16590.0 0.00083153
16610.0 0.00082951
16630.0 0.00082738
16650.0 0.00082518
16670.0 0.00082306
16690.0 0.00082091
16710.0 0.00081859
16730.0 0.00081634
16750.0 0.00081412
16770.0 0.00081181
16790.0 0.00080943
16810.0 0.00080715
16830.0 0.00080483
16850.0 0.00080239
16870.0 0.00079998
16890.0 0.00079762
16910.0 0.00079511
16930.0 0.00079256
16950.0 0.00079011
16970.0 0.00078761
16990.0 0.000785
17010.0 0.00078244
17030.0 0.00077993
17050.0 0.00077727
17070.0 0.00077459
17090.0 0.00077198
17110.0 0.00076932
17130.0 0.00076651
17150.0 0.0007638
17170.0 0.00076112
17190.0 0.00075832
17210.0 0.00075551
17230.0 0.00075277
17250.0 0.00074995
17270.0 0.00074702
17290.0 0.00074416
17310.0 0.00074132
17330.0 0.00073837
17350.0 0.00073538
17370.0 0.00073252
17390.0 0.00072957
17410.0 0.00072654
17430.0 0.00072357
17450.0 0.00072062
17470.0 0.00071749
17490.0 0.00071441
17510.0 0.0007114
17530.0 0.00070832
17550.0 0.00070516
17570.0 0.00070208
17590.0 0.00069901
17610.0 0.00069581
17630.0 0.00069264
17650.0 0.00068953
17670.0 0.00068634
17690.0 0.00068302
17710.0 0.00067987
17730.0 0.00067669
17750.0 0.0006734
17770.0 0.00067015
17790.0 0.00066697
17810.0 0.00066367
17830.0 0.00066033
17850.0 0.00065707
17870.0 0.0006538
17890.0 0.00065042
17910.0 0.00064707
17930.0 0.00064383
17950.0 0.00064047
17970.0 0.00063709
17990.0 0.00063379
18010.0 0.00063047
18030.0 0.000627
18050.0 0.00062363
18070.0 0.0006203
18090.0 0.00061689
18110.0 0.00061344
18130.0 0.00061011
18150.0 0.00060674
18170.0 0.00060328
18190.0 0.00059987
18210.0 0.00059652
18230.0 0.00059306
18250.0 0.00058957
18270.0 0.0005862
18290.0 0.0005828
18310.0 0.00057932
18330.0 0.00057591
18350.0 0.00057255
18370.0 0.00056907
18390.0 0.00056561
18410.0 0.00056223
18430.0 0.00055881
18450.0 0.00055529
18470.0 0.00055188
18490.0 0.00054851
18510.0 0.00054505
18530.0 0.0005416
18550.0 0.00053825
18570.0 0.00053483
18590.0 0.00053134
18610.0 0.00052794
18630.0 0.00052457
18650.0 0.00052112
18670.0 0.00051767
18690.0 0.00051434
18710.0 0.00051095
18730.0 0.00050752
18750.0 0.00050416
18770.0 0.00050084
18790.0 0.00049737
18810.0 0.00049397
18830.0 0.00049066
18850.0 0.0004873
18870.0 0.00048389
18890.0 0.00048059
18910.0 0.0004773
18930.0 0.00047391
18950.0 0.00047057
18970.0 0.00046731
18990.0 0.00046399
19010.0 0.00046058
19030.0 0.00045734
19050.0 0.00045409
19070.0 0.00045077
19090.0 0.0004475
19110.0 0.00044432
19130.0 0.00044102
19150.0 0.00043773
19170.0 0.00043453
19190.0 0.00043133
19210.0 0.00042805
19230.0 0.00042482
19250.0 0.0004217
19270.0 0.00041849
19290.0 0.00041528
19310.0 0.00041217
19330.0 0.00040904
19350.0 0.0004058
19370.0 0.00040267
19390.0 0.00039959
19410.0 0.00039645
19430.0 0.0003933
19450.0 0.00039027
19470.0 0.00038721
19490.0 0.00038409
19510.0 0.00038104
19530.0 0.00037804
19550.0 0.00037495
19570.0 0.00037187
19590.0 0.00036891
19610.0 0.00036592
19630.0 0.00036288
19650.0 0.00035992
19670.0 0.00035701
19690.0 0.000354
19710.0 0.00035103
19730.0 0.00034814
19750.0 0.00034522
19770.0 0.00034223
19790.0 0.00033936
19810.0 0.00033652
19830.0 0.00033361
19850.0 0.0003307
19870.0 0.00032787
19890.0 0.00032491
19910.0 0.00032178
19930.0 0.00031858
19950.0 0.00031514
19970.0 0.0003112
19990.0 0.00030677
20010.0 0.00030628
20030.0 0.00030074
20050.0 0.00029454
20070.0 0.00028806
20090.0 0.0002813
20110.0 0.00027391
20130.0 0.00026662
20150.0 0.00025953
20170.0 0.00025234
20190.0 0.00024519
20210.0 0.00023852
20230.0 0.00023209
20250.0 0.00022573
20270.0 0.00021986
20290.0 0.00021451
20310.0 0.00020945
20330.0 0.00020473
20350.0 0.00020078
20370.0 0.00019726
20390.0 0.00019418
20410.0 0.00019166
20430.0 0.0001897
20450.0 0.00018814
20470.0 0.0001871
20490.0 0.00018653
20510.0 0.00018637
20530.0 0.00018663
20550.0 0.00018725
20570.0 0.00018814
20590.0 0.00018936
20610.0 0.00019085
20630.0 0.00019248
20650.0 0.00019431
20670.0 0.00019641
20690.0 0.00019853
20710.0 0.0002007
20730.0 0.00020303
20750.0 0.00020544
20770.0 0.00020775
20790.0 0.00021016
20810.0 0.00021268
20830.0 0.00021513
20850.0 0.00021756
20870.0 0.00022014
20890.0 0.00022274
20910.0 0.00022521
20930.0 0.00022777
20950.0 0.00023042
20970.0 0.00023298
20990.0 0.00023551
21010.0 0.00023819
21030.0 0.00024081
21050.0 0.00024331
21070.0 0.00024584
21090.0 0.0002484
21110.0 0.00025075
21130.0 0.00025298
21150.0 0.0002552
21170.0 0.00025726
21190.0 0.00025909
21210.0 0.00026084
21230.0 0.00026242
21250.0 0.00026371
21270.0 0.00026475
21290.0 0.00026558
21310.0 0.00026609
21330.0 0.00026625
21350.0 0.0002661
21370.0 0.00026556
21390.0 0.00026464
21410.0 0.00026333
21430.0 0.00026151
21450.0 0.00025928
21470.0 0.00025669
21490.0 0.00025361
21510.0 0.00025007
21530.0 0.0002463
21550.0 0.0002422
21570.0 0.00023766
21590.0 0.000233
21610.0 0.00022832
21630.0 0.00022344
21650.0 0.00021845
21670.0 0.00021388
21690.0 0.00020942
21710.0 0.00020511
21730.0 0.00020123
21750.0 0.00019785
21770.0 0.00019474
21790.0 0.00019219
21810.0 0.00019025
21830.0 0.00018883
21850.0 0.00018796
21870.0 0.00018769
21890.0 0.00018795
21910.0 0.00018876
21930.0 0.00019009
21950.0 0.00019184
21970.0 0.00019403
21990.0 0.00019678
22010.0 0.00019975
22030.0 0.00020297
22050.0 0.00020658
22070.0 0.00021042
22090.0 0.00021423
22110.0 0.00021827
22130.0 0.00022249
22150.0 0.0002266
22170.0 0.00023062
22190.0 0.00023476
22210.0 0.00023876
22230.0 0.00024237
22250.0 0.00024588
22270.0 0.00024919
22290.0 0.00025209
22310.0 0.00025463
22330.0 0.00025693
22350.0 0.00025876
22370.0 0.0002601
22390.0 0.00026102
22410.0 0.00026147
22430.0 0.00026139
22450.0 0.00026083
22470.0 0.00025973
22490.0 0.00025812
22510.0 0.00025608
22530.0 0.00025344
22550.0 0.00025023
22570.0 0.00024666
22590.0 0.00024264
22610.0 0.00023803
22630.0 0.00023303
22650.0 0.00022786
22670.0 0.00022214
22690.0 0.00021603
22710.0 0.00020984
22730.0 0.00020344
22750.0 0.00019648
22770.0 0.00018964
22790.0 0.00018294
22810.0 0.00017603
22830.0 0.00016911
22850.0 0.00016262
22870.0 0.00015623
22890.0 0.00014988
22910.0 0.00014403
22930.0 0.00013869
22950.0 0.00013363
22970.0 0.00012898
22990.0 0.00012519
23010.0 0.00012189
23030.0 0.00011915
23050.0 0.00011713
23070.0 0.00011579
23090.0 0.00011507
23110.0 0.00011508
23130.0 0.00011572
23150.0 0.000117
23170.0 0.00011895
23190.0 0.0001214
23210.0 0.00012425
