#lamb flux
1010.0 7.9036e-06
1030.0 8.6213e-06
1050.0 9.4473e-06
1070.0 1.0377e-05
1090.0 1.1434e-05
1110.0 1.2517e-05
1130.0 1.3609e-05
1150.0 1.4752e-05
1170.0 1.5932e-05
1190.0 1.7052e-05
1210.0 1.8187e-05
1230.0 1.9361e-05
1250.0 2.0512e-05
1270.0 2.163e-05
1290.0 2.2812e-05
1310.0 2.3995e-05
1330.0 2.513e-05
1350.0 2.6278e-05
1370.0 2.7465e-05
1390.0 2.8623e-05
1410.0 2.9747e-05
1430.0 3.0924e-05
1450.0 3.2101e-05
1470.0 3.3241e-05
1490.0 3.4393e-05
1510.0 3.561e-05
1530.0 3.6765e-05
1550.0 3.7905e-05
1570.0 3.9084e-05
1590.0 4.0265e-05
1610.0 4.1394e-05
1630.0 4.2557e-05
1650.0 4.3749e-05
1670.0 4.4903e-05
1690.0 4.604e-05
1710.0 4.722e-05
1730.0 4.8403e-05
1750.0 4.9514e-05
1770.0 5.0655e-05
1790.0 5.1815e-05
1810.0 5.2933e-05
1830.0 5.4026e-05
1850.0 5.5182e-05
1870.0 5.6301e-05
1890.0 5.7373e-05
1910.0 5.846e-05
1930.0 5.9566e-05
1950.0 6.0608e-05
1970.0 6.1627e-05
1990.0 6.2675e-05
2010.0 6.3691e-05
2030.0 6.4653e-05
2050.0 6.5634e-05
2070.0 6.6626e-05
2090.0 6.7536e-05
2110.0 6.8424e-05
2130.0 6.9326e-05
2150.0 7.0185e-05
2170.0 7.0976e-05
2190.0 7.1783e-05
2210.0 7.2573e-05
2230.0 7.3294e-05
2250.0 7.3984e-05
2270.0 7.4694e-05
2290.0 7.5341e-05
2310.0 7.5916e-05
2330.0 7.6493e-05
2350.0 7.7047e-05
2370.0 7.7529e-05
2390.0 7.7992e-05
2410.0 7.8479e-05
2430.0 7.8919e-05
2450.0 7.9333e-05
2470.0 7.9806e-05
2490.0 8.039e-05
2510.0 8.111e-05
2530.0 8.2304e-05
2550.0 8.4504e-05
2570.0 8.8236e-05
2590.0 9.4113e-05
2610.0 0.00010376
2630.0 0.00011749
2650.0 0.00013443
2670.0 0.00015468
2690.0 0.00017737
2710.0 0.00019922
2730.0 0.00021872
2750.0 0.0002362
2770.0 0.00025
2790.0 0.00026005
2810.0 0.00026775
2830.0 0.00027413
2850.0 0.00027894
2870.0 0.00028321
2890.0 0.00028757
2910.0 0.00029188
2930.0 0.00029586
2950.0 0.00030013
2970.0 0.00030459
2990.0 0.0003088
3010.0 0.0024581
3030.0 0.0024924
3050.0 0.0025255
3070.0 0.0025523
3090.0 0.0025743
3110.0 0.0025845
3130.0 0.0025743
3150.0 0.0025373
3170.0 0.0024616
3190.0 0.0023472
3210.0 0.0022006
3230.0 0.0020405
3250.0 0.0021168
3270.0 0.0019708
3290.0 0.0022383
3310.0 0.0019614
3330.0 0.0019925
3350.0 0.0020788
3370.0 0.0021894
3390.0 0.002318
3410.0 0.0024498
3430.0 0.0025901
3450.0 0.0027383
3470.0 0.0028839
3490.0 0.0030145
3510.0 0.0032294
3530.0 0.0035303
3550.0 0.0036105
3570.0 0.0035726
3590.0 0.0039426
3610.0 0.0037544
3630.0 0.004281
3650.0 0.004587
3670.0 0.0050023
3690.0 0.0049412
3710.0 0.0044837
3730.0 0.0047096
3750.0 0.0047219
3770.0 0.0050335
3790.0 0.0053603
3810.0 0.0060721
3830.0 0.0079954
3850.0 0.0098638
3870.0 0.011565
3890.0 0.012244
3910.0 0.012149
3930.0 0.012391
3950.0 0.012892
3970.0 0.011535
3990.0 0.0072565
4010.0 0.0055455
4030.0 0.0084073
4050.0 0.011139
4070.0 0.010166
4090.0 0.0060009
4110.0 0.0052877
4130.0 0.0082143
4150.0 0.0093448
4170.0 0.0077351
4190.0 0.0064686
4210.0 0.008992
4230.0 0.0089018
4250.0 0.0084335
4270.0 0.0084349
4290.0 0.0075933
4310.0 0.0088819
4330.0 0.010363
4350.0 0.011368
4370.0 0.010893
4390.0 0.010974
4410.0 0.0099858
4430.0 0.0076564
4450.0 0.0058513
4470.0 0.0066922
4490.0 0.0068255
4510.0 0.0096692
4530.0 0.0099892
4550.0 0.0098816
4570.0 0.011824
4590.0 0.01452
4610.0 0.018842
4630.0 0.023904
4650.0 0.025002
4670.0 0.025676
4690.0 0.026413
4710.0 0.025942
4730.0 0.021669
4750.0 0.015607
4770.0 0.012899
4790.0 0.010779
4810.0 0.010772
4830.0 0.012116
4850.0 0.012955
4870.0 0.013655
4890.0 0.016327
4910.0 0.015472
4930.0 0.016521
4950.0 0.020127
4970.0 0.023058
4990.0 0.026274
5010.0 0.026594
5030.0 0.023405
5050.0 0.017752
5070.0 0.012911
5090.0 0.011034
5110.0 0.011294
5130.0 0.012105
5150.0 0.011351
5170.0 0.011151
5190.0 0.011374
5210.0 0.011669
5230.0 0.012743
5250.0 0.01332
5270.0 0.013591
5290.0 0.01609
5310.0 0.019062
5330.0 0.020452
5350.0 0.02008
5370.0 0.020893
5390.0 0.022097
5410.0 0.021035
5430.0 0.019718
5450.0 0.020351
5470.0 0.023366
5490.0 0.029022
5510.0 0.034771
5530.0 0.036363
5550.0 0.03569
5570.0 0.034364
5590.0 0.032531
5610.0 0.030954
5630.0 0.031352
5650.0 0.032469
5670.0 0.031351
5690.0 0.028988
5710.0 0.028424
5730.0 0.025615
5750.0 0.021522
5770.0 0.019413
5790.0 0.021319
5810.0 0.023235
5830.0 0.025771
5850.0 0.025936
5870.0 0.025248
5890.0 0.024798
5910.0 0.022938
5930.0 0.022073
5950.0 0.02279
5970.0 0.02347
5990.0 0.020646
6010.0 0.017063
6030.0 0.014236
6050.0 0.012867
6070.0 0.012987
6090.0 0.014307
6110.0 0.015154
6130.0 0.014637
6150.0 0.014629
6170.0 0.015802
6190.0 0.017807
6210.0 0.020978
6230.0 0.024033
6250.0 0.022569
6270.0 0.019693
6290.0 0.016696
6310.0 0.013482
6330.0 0.01162
6350.0 0.011371
6370.0 0.012339
6390.0 0.013643
6410.0 0.016143
6430.0 0.019938
6450.0 0.024009
6470.0 0.027405
6490.0 0.030904
6510.0 0.03315
6530.0 0.032072
6550.0 0.030763
6570.0 0.030983
6590.0 0.030946
6610.0 0.03002
6630.0 0.028291
6650.0 0.025937
6670.0 0.025405
6690.0 0.024815
6710.0 0.023898
6730.0 0.020826
6750.0 0.018231
6770.0 0.018415
6790.0 0.01965
6810.0 0.021667
6830.0 0.022044
6850.0 0.020484
6870.0 0.020128
6890.0 0.019789
6910.0 0.018667
6930.0 0.018408
6950.0 0.018318
6970.0 0.01842
6990.0 0.019212
7010.0 0.020603
7030.0 0.020273
7050.0 0.01846
7070.0 0.017086
7090.0 0.014828
7110.0 0.013011
7130.0 0.013314
7150.0 0.014339
7170.0 0.015038
7190.0 0.014874
7210.0 0.014588
7230.0 0.016209
7250.0 0.018019
7270.0 0.019051
7290.0 0.019278
7310.0 0.018751
7330.0 0.017437
7350.0 0.016156
7370.0 0.015171
7390.0 0.014886
7410.0 0.016094
7430.0 0.018641
7450.0 0.020668
7470.0 0.023018
7490.0 0.026622
7510.0 0.025948
7530.0 0.021593
7550.0 0.018373
7570.0 0.015307
7590.0 0.012988
7610.0 0.012623
7630.0 0.01292
7650.0 0.014113
7670.0 0.016147
7690.0 0.017764
7710.0 0.020166
7730.0 0.020975
7750.0 0.021707
7770.0 0.023232
7790.0 0.023803
7810.0 0.023397
7830.0 0.02182
7850.0 0.021509
7870.0 0.02093
7890.0 0.01957
7910.0 0.017997
7930.0 0.016701
7950.0 0.014122
7970.0 0.013496
7990.0 0.013773
8010.0 0.016123
8030.0 0.016194
8050.0 0.01697
8070.0 0.016618
8090.0 0.01665
8110.0 0.016311
8130.0 0.015546
8150.0 0.014434
8170.0 0.014314
8190.0 0.014485
8210.0 0.014645
8230.0 0.013463
8250.0 0.012564
8270.0 0.011073
8290.0 0.0092094
8310.0 0.0075156
8330.0 0.0055242
8350.0 0.0042305
8370.0 0.0039549
8390.0 0.004192
8410.0 0.004804
8430.0 0.0060931
8450.0 0.0067293
8470.0 0.0072495
8490.0 0.0081272
8510.0 0.0087717
8530.0 0.0097762
8550.0 0.011568
8570.0 0.013057
8590.0 0.014119
8610.0 0.016144
8630.0 0.018655
8650.0 0.019522
8670.0 0.019893
8690.0 0.02002
8710.0 0.01944
8730.0 0.018656
8750.0 0.017369
8770.0 0.017157
8790.0 0.016672
8810.0 0.015405
8830.0 0.014781
8850.0 0.013011
8870.0 0.012062
8890.0 0.011031
8910.0 0.012231
8930.0 0.011425
8950.0 0.011613
8970.0 0.011871
8990.0 0.011732
9010.0 0.011913
9030.0 0.011424
9050.0 0.011388
9070.0 0.0114
9090.0 0.011412
9110.0 0.01143
9130.0 0.011441
9150.0 0.011449
9170.0 0.011438
9190.0 0.011398
9210.0 0.011538
9230.0 0.011518
9250.0 0.011514
9270.0 0.011515
9290.0 0.011519
9310.0 0.011525
9330.0 0.011533
9350.0 0.011541
9370.0 0.01155
9390.0 0.011559
9410.0 0.011568
9430.0 0.011578
9450.0 0.011587
9470.0 0.011597
9490.0 0.011607
9510.0 0.011618
9530.0 0.011628
9550.0 0.011639
9570.0 0.01165
9590.0 0.011662
9610.0 0.011674
9630.0 0.011686
9650.0 0.011699
9670.0 0.011712
9690.0 0.011726
9710.0 0.01174
9730.0 0.011755
9750.0 0.011769
9770.0 0.011786
9790.0 0.011802
9810.0 0.011818
9830.0 0.011835
9850.0 0.011853
9870.0 0.011871
9890.0 0.011889
9910.0 0.011909
9930.0 0.011928
9950.0 0.011938
9970.0 0.011962
9990.0 0.011986
10010.0 0.012007
10030.0 0.01203
10050.0 0.012048
10070.0 0.012042
10090.0 0.012075
10110.0 0.012107
10130.0 0.012136
10150.0 0.012164
10170.0 0.012191
10190.0 0.012215
10210.0 0.012241
10230.0 0.012266
10250.0 0.01229
10270.0 0.012315
10290.0 0.01234
10310.0 0.012365
10330.0 0.012389
10350.0 0.012414
10370.0 0.012438
10390.0 0.012463
10410.0 0.012487
10430.0 0.012511
10450.0 0.012535
10470.0 0.012559
10490.0 0.012582
10510.0 0.012606
10530.0 0.012628
10550.0 0.01265
10570.0 0.012672
10590.0 0.012694
10610.0 0.012714
10630.0 0.012735
10650.0 0.012756
10670.0 0.012775
10690.0 0.012794
10710.0 0.012812
10730.0 0.01283
10750.0 0.012846
10770.0 0.012863
10790.0 0.012879
10810.0 0.012893
10830.0 0.012907
10850.0 0.012919
10870.0 0.012926
10890.0 0.012927
10910.0 0.012918
10930.0 0.012891
10950.0 0.012835
10970.0 0.012744
10990.0 0.012615
11010.0 0.012831
11030.0 0.012569
11050.0 0.012268
11070.0 0.011923
11090.0 0.011524
11110.0 0.01113
11130.0 0.010736
11150.0 0.010334
11170.0 0.0099455
11190.0 0.0095951
11210.0 0.0092608
11230.0 0.0089479
11250.0 0.0086768
11270.0 0.0084406
11290.0 0.0082261
11310.0 0.0080415
11330.0 0.0078908
11350.0 0.0077548
11370.0 0.0076303
11390.0 0.0075178
11410.0 0.0074096
11430.0 0.007293
11450.0 0.0071718
11470.0 0.0070449
11490.0 0.0069041
11510.0 0.0067465
11530.0 0.006584
11550.0 0.0064136
11570.0 0.0062288
11590.0 0.0060408
11610.0 0.0058567
11630.0 0.0056667
11650.0 0.0054758
11670.0 0.0052989
11690.0 0.0051292
11710.0 0.0049627
11730.0 0.0048076
11750.0 0.0046671
11770.0 0.0045304
11790.0 0.0044007
11810.0 0.0042823
11830.0 0.0041701
11850.0 0.0040575
11870.0 0.0039519
11890.0 0.0038517
11910.0 0.00375
11930.0 0.0036475
11950.0 0.0035486
11970.0 0.0034484
11990.0 0.0033435
12010.0 0.0032408
12030.0 0.0031404
12050.0 0.0030382
12070.0 0.0029365
12090.0 0.0028441
12110.0 0.0027556
12130.0 0.0026719
12150.0 0.0025988
12170.0 0.0025374
12190.0 0.0024848
12210.0 0.0024467
12230.0 0.002424
12250.0 0.0024157
12270.0 0.0024236
12290.0 0.0024467
12310.0 0.0024828
12330.0 0.0025344
12350.0 0.0025982
12370.0 0.0026692
12390.0 0.0027485
12410.0 0.0028379
12430.0 0.0029241
12450.0 0.0030085
12470.0 0.003093
12490.0 0.0031717
12510.0 0.0032395
12530.0 0.0033012
12550.0 0.0033545
12570.0 0.0033951
12590.0 0.0034248
12610.0 0.0034452
12630.0 0.0034545
12650.0 0.0034532
12670.0 0.0034433
12690.0 0.0034249
12710.0 0.0033994
12730.0 0.0033679
12750.0 0.0033295
12770.0 0.0032867
12790.0 0.0032409
12810.0 0.0031909
12830.0 0.0031366
12850.0 0.0030813
12870.0 0.0030237
12890.0 0.0029612
12910.0 0.0028964
12930.0 0.0028303
12950.0 0.0027586
12970.0 0.0026818
12990.0 0.0026051
13010.0 0.0025255
13030.0 0.0024412
13050.0 0.0023567
13070.0 0.0022748
13090.0 0.0021907
13110.0 0.0021083
13130.0 0.0020321
13150.0 0.0019606
13170.0 0.0018923
13190.0 0.0018337
13210.0 0.0017846
13230.0 0.0017426
13250.0 0.0017093
13270.0 0.0016856
13290.0 0.0016695
13310.0 0.0016609
13330.0 0.0016591
13350.0 0.0016625
13370.0 0.0016703
13390.0 0.0016813
13410.0 0.0016928
13430.0 0.0017048
13450.0 0.0017164
13470.0 0.001726
13490.0 0.0017332
13510.0 0.0017383
13530.0 0.0017406
13550.0 0.0017402
13570.0 0.0017378
13590.0 0.0017338
13610.0 0.0017286
13630.0 0.0017229
13650.0 0.0017171
13670.0 0.0017116
13690.0 0.0017067
13710.0 0.0017025
13730.0 0.0016991
13750.0 0.0016962
13770.0 0.0016938
13790.0 0.0016913
13810.0 0.0016886
13830.0 0.0016851
13850.0 0.0016805
13870.0 0.0016743
13890.0 0.0016665
13910.0 0.0016571
13930.0 0.0016454
13950.0 0.001632
13970.0 0.0016179
13990.0 0.0016024
14010.0 0.0015861
14030.0 0.0015703
14050.0 0.001555
14070.0 0.0015399
14090.0 0.0015264
14110.0 0.0015146
14130.0 0.0015042
14150.0 0.0014953
14170.0 0.0014883
14190.0 0.0014829
14210.0 0.0014788
14230.0 0.0014763
14250.0 0.0014752
14270.0 0.0014757
14290.0 0.0014779
14310.0 0.0014817
14330.0 0.0014872
14350.0 0.0014948
14370.0 0.001504
14390.0 0.0015144
14410.0 0.001527
14430.0 0.0015411
14450.0 0.0015558
14470.0 0.0015715
14490.0 0.0015892
14510.0 0.0016071
14530.0 0.0016255
14550.0 0.0016459
14570.0 0.0016682
14590.0 0.0016914
14610.0 0.0017175
14630.0 0.0017478
14650.0 0.0017807
14670.0 0.0018166
14690.0 0.0018578
14710.0 0.001904
14730.0 0.0019511
14750.0 0.0020027
14770.0 0.0020587
14790.0 0.0021154
14810.0 0.0021718
14830.0 0.0022321
14850.0 0.0022903
14870.0 0.0023441
14890.0 0.0023954
14910.0 0.0024433
14930.0 0.0024839
14950.0 0.0025173
14970.0 0.0025451
14990.0 0.0025652
15010.0 0.0025779
15030.0 0.0025849
15050.0 0.0025869
15070.0 0.0025849
15090.0 0.0025805
15110.0 0.0025743
15130.0 0.0025672
15150.0 0.00256
15170.0 0.0025522
15190.0 0.0025442
15210.0 0.0025365
15230.0 0.0025289
15250.0 0.002521
15270.0 0.0025132
15290.0 0.0025059
15310.0 0.0024983
15330.0 0.0024906
15350.0 0.0024833
15370.0 0.002476
15390.0 0.0024683
15410.0 0.002461
15430.0 0.0024538
15450.0 0.0024465
15470.0 0.002439
15490.0 0.002432
15510.0 0.0024249
15530.0 0.0024176
15550.0 0.0024105
15570.0 0.0024036
15590.0 0.0023964
15610.0 0.0023892
15630.0 0.0023823
15650.0 0.0023754
15670.0 0.0023683
15690.0 0.0023613
15710.0 0.0023547
15730.0 0.0023477
15750.0 0.0023407
15770.0 0.0023339
15790.0 0.0023272
15810.0 0.00232
15830.0 0.0023132
15850.0 0.0023066
15870.0 0.0022998
15890.0 0.0022929
15910.0 0.0022863
15930.0 0.0022796
15950.0 0.0022726
15970.0 0.0022659
15990.0 0.0022593
16010.0 0.0022524
16030.0 0.0022455
16050.0 0.002239
16070.0 0.0022323
16090.0 0.0022255
16110.0 0.0022188
16130.0 0.0022123
16150.0 0.0022053
16170.0 0.0021984
16190.0 0.0021919
16210.0 0.0021851
16230.0 0.0021782
16250.0 0.0021715
16270.0 0.002165
16290.0 0.002158
16310.0 0.0021512
16330.0 0.0021446
16350.0 0.0021378
16370.0 0.0021306
16390.0 0.002124
16410.0 0.0021173
16430.0 0.0021103
16450.0 0.0021034
16470.0 0.0020968
16490.0 0.0020898
16510.0 0.0020827
16530.0 0.0020759
16550.0 0.0020691
16570.0 0.0020619
16590.0 0.0020548
16610.0 0.0020481
16630.0 0.002041
16650.0 0.0020339
16670.0 0.002027
16690.0 0.0020201
16710.0 0.0020127
16730.0 0.0020056
16750.0 0.0019986
16770.0 0.0019914
16790.0 0.001984
16810.0 0.001977
16830.0 0.0019699
16850.0 0.0019625
16870.0 0.0019553
16890.0 0.0019482
16910.0 0.0019407
16930.0 0.0019332
16950.0 0.001926
16970.0 0.0019187
16990.0 0.0019111
17010.0 0.0019037
17030.0 0.0018965
17050.0 0.0018889
17070.0 0.0018813
17090.0 0.0018739
17110.0 0.0018665
17130.0 0.0018586
17150.0 0.0018511
17170.0 0.0018436
17190.0 0.0018359
17210.0 0.0018282
17230.0 0.0018207
17250.0 0.001813
17270.0 0.0018051
17290.0 0.0017974
17310.0 0.0017897
17330.0 0.0017818
17350.0 0.0017738
17370.0 0.0017662
17390.0 0.0017584
17410.0 0.0017504
17430.0 0.0017425
17450.0 0.0017348
17470.0 0.0017266
17490.0 0.0017185
17510.0 0.0017107
17530.0 0.0017027
17550.0 0.0016945
17570.0 0.0016865
17590.0 0.0016787
17610.0 0.0016704
17630.0 0.0016623
17650.0 0.0016543
17670.0 0.0016462
17690.0 0.0016377
17710.0 0.0016296
17730.0 0.0016216
17750.0 0.0016132
17770.0 0.001605
17790.0 0.001597
17810.0 0.0015886
17830.0 0.0015802
17850.0 0.001572
17870.0 0.0015638
17890.0 0.0015553
17910.0 0.0015469
17930.0 0.0015388
17950.0 0.0015304
17970.0 0.0015219
17990.0 0.0015137
18010.0 0.0015055
18030.0 0.0014968
18050.0 0.0014884
18070.0 0.0014801
18090.0 0.0014716
18110.0 0.001463
18130.0 0.0014548
18150.0 0.0014465
18170.0 0.0014379
18190.0 0.0014294
18210.0 0.0014212
18230.0 0.0014125
18250.0 0.0014039
18270.0 0.0013956
18290.0 0.0013871
18310.0 0.0013785
18330.0 0.0013701
18350.0 0.0013618
18370.0 0.0013532
18390.0 0.0013446
18410.0 0.0013362
18430.0 0.0013278
18450.0 0.001319
18470.0 0.0013106
18490.0 0.0013023
18510.0 0.0012937
18530.0 0.0012851
18550.0 0.0012769
18570.0 0.0012684
18590.0 0.0012597
18610.0 0.0012512
18630.0 0.0012429
18650.0 0.0012343
18670.0 0.0012257
18690.0 0.0012175
18710.0 0.001209
18730.0 0.0012004
18750.0 0.0011921
18770.0 0.0011838
18790.0 0.0011751
18810.0 0.0011666
18830.0 0.0011584
18850.0 0.00115
18870.0 0.0011414
18890.0 0.0011332
18910.0 0.001125
18930.0 0.0011164
18950.0 0.001108
18970.0 0.0010999
18990.0 0.0010915
19010.0 0.0010829
19030.0 0.0010747
19050.0 0.0010666
19070.0 0.0010581
19090.0 0.0010498
19110.0 0.0010418
19130.0 0.0010335
19150.0 0.0010251
19170.0 0.001017
19190.0 0.0010088
19210.0 0.0010004
19230.0 0.0009922
19250.0 0.00098427
19270.0 0.00097607
19290.0 0.00096783
19310.0 0.00095986
19330.0 0.00095185
19350.0 0.00094348
19370.0 0.00093542
19390.0 0.00092751
19410.0 0.00091939
19430.0 0.00091122
19450.0 0.0009034
19470.0 0.00089548
19490.0 0.00088735
19510.0 0.00087943
19530.0 0.00087166
19550.0 0.00086358
19570.0 0.00085548
19590.0 0.00084778
19610.0 0.00083995
19630.0 0.00083195
19650.0 0.00082418
19670.0 0.00081656
19690.0 0.00080861
19710.0 0.00080074
19730.0 0.00079312
19750.0 0.0007854
19770.0 0.00077741
19790.0 0.00076978
19810.0 0.00076224
19830.0 0.00075445
19850.0 0.00074666
19870.0 0.00073906
19890.0 0.00073101
19910.0 0.00072237
19930.0 0.00071342
19950.0 0.00070359
19970.0 0.00069213
19990.0 0.00067909
20010.0 0.00066505
20030.0 0.00064903
20050.0 0.00063142
20070.0 0.00061355
20090.0 0.00059561
20110.0 0.00057687
20130.0 0.00055949
20150.0 0.00054372
20170.0 0.00052884
20190.0 0.00051522
20210.0 0.00050361
20230.0 0.00049341
20250.0 0.00048429
20270.0 0.0004768
20290.0 0.00047079
20310.0 0.00046587
20330.0 0.00046209
20350.0 0.00045966
20370.0 0.00045822
20390.0 0.0004578
20410.0 0.00045839
20430.0 0.00045987
20450.0 0.00046245
20470.0 0.00046605
20490.0 0.00047047
20510.0 0.00047586
20530.0 0.00048245
20550.0 0.0004898
20570.0 0.00049766
20590.0 0.0005066
20610.0 0.00051621
20630.0 0.00052593
20650.0 0.00053608
20670.0 0.00054693
20690.0 0.00055727
20710.0 0.00056725
20730.0 0.00057725
20750.0 0.00058686
20770.0 0.00059553
20790.0 0.00060389
20810.0 0.000612
20830.0 0.00061943
20850.0 0.00062642
20870.0 0.00063354
20890.0 0.00064057
20910.0 0.00064727
20930.0 0.00065425
20950.0 0.00066161
20970.0 0.00066891
20990.0 0.00067623
21010.0 0.00068402
21030.0 0.00069163
21050.0 0.00069875
21070.0 0.00070563
21090.0 0.00071214
21110.0 0.00071757
21130.0 0.00072211
21150.0 0.00072584
21170.0 0.00072844
21190.0 0.00072988
21210.0 0.00073029
21230.0 0.00072956
21250.0 0.00072778
21270.0 0.00072504
21290.0 0.00072129
21310.0 0.00071668
21330.0 0.00071155
21350.0 0.00070561
21370.0 0.000699
21390.0 0.00069213
21410.0 0.00068495
21430.0 0.00067708
21450.0 0.00066928
21470.0 0.00066164
21490.0 0.00065382
21510.0 0.00064603
21530.0 0.00063878
21550.0 0.00063179
21570.0 0.00062496
21590.0 0.00061881
21610.0 0.00061337
21630.0 0.00060844
21650.0 0.00060419
21670.0 0.000601
21690.0 0.0005986
21710.0 0.00059708
21730.0 0.00059654
21750.0 0.00059693
21770.0 0.00059835
21790.0 0.0006008
21810.0 0.0006041
21830.0 0.00060834
21850.0 0.00061368
21870.0 0.00061972
21890.0 0.00062631
21910.0 0.0006339
21930.0 0.00064215
21950.0 0.00065063
21970.0 0.00065969
21990.0 0.00066961
22010.0 0.00067932
22030.0 0.00068905
22050.0 0.00069916
22070.0 0.00070924
22090.0 0.00071867
22110.0 0.00072808
22130.0 0.00073731
22150.0 0.00074573
22170.0 0.00075341
22190.0 0.00076068
22210.0 0.00076698
22230.0 0.00077199
22250.0 0.00077607
22270.0 0.00077902
22290.0 0.0007806
22310.0 0.00078089
22330.0 0.00077978
22350.0 0.0007772
22370.0 0.00077328
22390.0 0.00076785
22410.0 0.00076074
22430.0 0.00075258
22450.0 0.00074321
22470.0 0.00073224
22490.0 0.00072022
22510.0 0.00070764
22530.0 0.0006936
22550.0 0.00067847
22570.0 0.00066332
22590.0 0.00064767
22610.0 0.00063108
22630.0 0.00061445
22650.0 0.0005984
22670.0 0.00058174
22690.0 0.00056503
22710.0 0.00054913
22730.0 0.0005336
22750.0 0.00051767
22770.0 0.00050291
22790.0 0.0004892
22810.0 0.00047582
22830.0 0.00046315
22850.0 0.00045192
22870.0 0.00044152
22890.0 0.00043183
22910.0 0.00042357
22930.0 0.00041665
22950.0 0.00041079
22970.0 0.00040622
22990.0 0.00040329
23010.0 0.00040164
23030.0 0.00040138
23050.0 0.00040253
23070.0 0.00040494
23090.0 0.00040887
23110.0 0.00041407
23130.0 0.00042022
23150.0 0.00042747
23170.0 0.00043589
23190.0 0.0004448
23210.0 0.000454
23230.0 0.00046396
23250.0 0.00047408
23270.0 0.00048383
23290.0 0.00049356
23310.0 0.00050332
23330.0 0.00051202
23350.0 0.00051993
23370.0 0.00052724
23390.0 0.00053353
23410.0 0.00053852
23430.0 0.00054258
23450.0 0.00054551
23470.0 0.00054716
23490.0 0.00054766
23510.0 0.00054699
23530.0 0.00054514
23550.0 0.00054236
23570.0 0.00053855
23590.0 0.00053374
23610.0 0.00052831
23630.0 0.00052227
23650.0 0.00051532
23670.0 0.00050808
23690.0 0.00050078
23710.0 0.00049318
23730.0 0.00048545
23750.0 0.00047839
23770.0 0.0004718
23790.0 0.00046569
23810.0 0.00046063
23830.0 0.00045684
