#lamb flux
1010.0 0.00018019
1030.0 0.00018019
1050.0 0.00018019
1070.0 0.00018019
1090.0 0.00018019
1110.0 0.00018019
1130.0 0.00018019
1150.0 0.00018019
1170.0 0.00018019
1190.0 0.00018019
1210.0 0.00018019
1230.0 0.00018019
1250.0 0.00018019
1270.0 0.00018019
1290.0 0.00018019
1310.0 0.00018019
1330.0 0.00018019
1350.0 0.00018019
1370.0 0.00018019
1390.0 0.00018019
1410.0 0.00018019
1430.0 0.00018019
1450.0 0.00019982
1470.0 0.0002271
1490.0 0.00025781
1510.0 0.00029254
1530.0 0.00033029
1550.0 0.00037158
1570.0 0.00041727
1590.0 0.0004673
1610.0 0.00052104
1630.0 0.00057916
1650.0 0.00064298
1670.0 0.00071176
1690.0 0.00078606
1710.0 0.00086723
1730.0 0.00095493
1750.0 0.0010475
1770.0 0.0011471
1790.0 0.0012535
1810.0 0.0013649
1830.0 0.0014811
1850.0 0.0016043
1870.0 0.0017309
1890.0 0.0018594
1910.0 0.001991
1930.0 0.0021247
1950.0 0.0022564
1970.0 0.0023861
1990.0 0.0025148
2010.0 0.0026387
2030.0 0.0027555
2050.0 0.0028672
2070.0 0.0029727
2090.0 0.0030666
2110.0 0.003151
2130.0 0.003227
2150.0 0.0032916
2170.0 0.0033433
2190.0 0.0033862
2210.0 0.003419
2230.0 0.0034394
2250.0 0.0034498
2270.0 0.0034533
2290.0 0.0034467
2310.0 0.0034303
2330.0 0.0034086
2350.0 0.0033812
2370.0 0.0033469
2390.0 0.0033089
2410.0 0.0032702
2430.0 0.0032282
2450.0 0.0031846
2470.0 0.003143
2490.0 0.0031047
2510.0 0.0030689
2530.0 0.0030447
2550.0 0.0030438
2570.0 0.0030766
2590.0 0.0031564
2610.0 0.0033194
2630.0 0.0035732
2650.0 0.0039031
2670.0 0.0043201
2690.0 0.0048199
2710.0 0.0053443
2730.0 0.0058713
2750.0 0.0064296
2770.0 0.0069832
2790.0 0.0075177
2810.0 0.0080696
2830.0 0.0086708
2850.0 0.009264
2870.0 0.0098813
2890.0 0.010553
2910.0 0.011259
2930.0 0.011972
2950.0 0.012745
2970.0 0.013572
2990.0 0.014418
3010.0 0.015298
3030.0 0.016244
3050.0 0.017226
3070.0 0.018188
3090.0 0.019165
3110.0 0.020105
3130.0 0.02093
3150.0 0.021604
3170.0 0.022085
3190.0 0.022304
3210.0 0.02222
3230.0 0.021928
3250.0 0.021817
3270.0 0.022115
3290.0 0.022698
3310.0 0.023423
3330.0 0.024319
3350.0 0.025327
3370.0 0.026464
3390.0 0.02779
3410.0 0.02905
3430.0 0.031015
3450.0 0.032581
3470.0 0.034224
3490.0 0.035616
3510.0 0.037305
3530.0 0.042895
3550.0 0.050708
3570.0 0.055478
3590.0 0.057563
3610.0 0.057776
3630.0 0.056005
3650.0 0.060524
3670.0 0.071986
3690.0 0.081058
3710.0 0.085876
3730.0 0.089892
3750.0 0.094305
3770.0 0.093531
3790.0 0.088601
3810.0 0.082961
3830.0 0.077286
3850.0 0.076746
3870.0 0.083077
3890.0 0.089654
3910.0 0.094193
3930.0 0.097066
3950.0 0.1056
3970.0 0.11355
3990.0 0.10851
4010.0 0.095464
4030.0 0.083621
4050.0 0.080073
4070.0 0.082095
4090.0 0.082118
4110.0 0.080306
4130.0 0.078975
4150.0 0.079795
4170.0 0.086947
4190.0 0.095481
4210.0 0.09441
4230.0 0.089307
4250.0 0.087054
4270.0 0.086998
4290.0 0.090721
4310.0 0.094703
4330.0 0.090161
4350.0 0.078221
4370.0 0.068481
4390.0 0.061544
4410.0 0.055645
4430.0 0.055316
4450.0 0.060041
4470.0 0.064204
4490.0 0.069737
4510.0 0.079789
4530.0 0.10094
4550.0 0.12826
4570.0 0.14461
4590.0 0.15416
4610.0 0.16931
4630.0 0.18019
4650.0 0.16855
4670.0 0.13819
4690.0 0.11308
4710.0 0.1028
4730.0 0.099785
4750.0 0.091993
4770.0 0.085313
4790.0 0.089636
4810.0 0.098013
4830.0 0.098977
4850.0 0.092491
4870.0 0.089746
4890.0 0.095733
4910.0 0.10184
4930.0 0.1026
4950.0 0.099065
4970.0 0.092858
4990.0 0.083945
5010.0 0.076
5030.0 0.071378
5050.0 0.069249
5070.0 0.06754
5090.0 0.065546
5110.0 0.064973
5130.0 0.065369
5150.0 0.06843
5170.0 0.076049
5190.0 0.085744
5210.0 0.096689
5230.0 0.10375
5250.0 0.10729
5270.0 0.11301
5290.0 0.11981
5310.0 0.12228
5330.0 0.11753
5350.0 0.1108
5370.0 0.11035
5390.0 0.11799
5410.0 0.12768
5430.0 0.13355
5450.0 0.13461
5470.0 0.1314
5490.0 0.12608
5510.0 0.12245
5530.0 0.12156
5550.0 0.12214
5570.0 0.12221
5590.0 0.11905
5610.0 0.11335
5630.0 0.10563
5650.0 0.097517
5670.0 0.092452
5690.0 0.089761
5710.0 0.088228
5730.0 0.088443
5750.0 0.087449
5770.0 0.085504
5790.0 0.085612
5810.0 0.086131
5830.0 0.086963
5850.0 0.087458
5870.0 0.085604
5890.0 0.081833
5910.0 0.076846
5930.0 0.069252
5950.0 0.062986
5970.0 0.061428
5990.0 0.063422
6010.0 0.064799
6030.0 0.06264
6050.0 0.060558
6070.0 0.062843
6090.0 0.067719
6110.0 0.070572
6130.0 0.068823
6150.0 0.064843
6170.0 0.061984
6190.0 0.059332
6210.0 0.055785
6230.0 0.052081
6250.0 0.050323
6270.0 0.051436
6290.0 0.053414
6310.0 0.056568
6330.0 0.061161
6350.0 0.066055
6370.0 0.068789
6390.0 0.069464
6410.0 0.070142
6430.0 0.070827
6450.0 0.071594
6470.0 0.073005
6490.0 0.074542
6510.0 0.075612
6530.0 0.075593
6550.0 0.074403
6570.0 0.071883
6590.0 0.068545
6610.0 0.066159
6630.0 0.064788
6650.0 0.062765
6670.0 0.05993
6690.0 0.057511
6710.0 0.056253
6730.0 0.055674
6750.0 0.054827
6770.0 0.053788
6790.0 0.052913
6810.0 0.051816
6830.0 0.0512
6850.0 0.052092
6870.0 0.052657
6890.0 0.052123
6910.0 0.050981
6930.0 0.049912
6950.0 0.048988
6970.0 0.047328
6990.0 0.045525
7010.0 0.044735
7030.0 0.044293
7050.0 0.042988
7070.0 0.041058
7090.0 0.040234
7110.0 0.041255
7130.0 0.043778
7150.0 0.046482
7170.0 0.048231
7190.0 0.047889
7210.0 0.046017
7230.0 0.044814
7250.0 0.044719
7270.0 0.044607
7290.0 0.044241
7310.0 0.044569
7330.0 0.045899
7350.0 0.047645
7370.0 0.048716
7390.0 0.048578
7410.0 0.047527
7430.0 0.046147
7450.0 0.044539
7470.0 0.042416
7490.0 0.040951
7510.0 0.039715
7530.0 0.039022
7550.0 0.039323
7570.0 0.039831
7590.0 0.040178
7610.0 0.040072
7630.0 0.039921
7650.0 0.040276
7670.0 0.041352
7690.0 0.042699
7710.0 0.044263
7730.0 0.045486
7750.0 0.046921
7770.0 0.047988
7790.0 0.048601
7810.0 0.048691
7830.0 0.048715
7850.0 0.047898
7870.0 0.04588
7890.0 0.043782
7910.0 0.042466
7930.0 0.041521
7950.0 0.040609
7970.0 0.040173
7990.0 0.040447
8010.0 0.038944
8030.0 0.038572
8050.0 0.038078
8070.0 0.037454
8090.0 0.03682
8110.0 0.036832
8130.0 0.037063
8150.0 0.036951
8170.0 0.0367
8190.0 0.035781
8210.0 0.033757
8230.0 0.031546
8250.0 0.030285
8270.0 0.029317
8290.0 0.028319
8310.0 0.027859
8330.0 0.02781
8350.0 0.027132
8370.0 0.026791
8390.0 0.027689
8410.0 0.029319
8430.0 0.03142
8450.0 0.033629
8470.0 0.034917
8490.0 0.03606
8510.0 0.036871
8530.0 0.03768
8550.0 0.038491
8570.0 0.039039
8590.0 0.039538
8610.0 0.04061
8630.0 0.041069
8650.0 0.040293
8670.0 0.040352
8690.0 0.041036
8710.0 0.041676
8730.0 0.041606
8750.0 0.040635
8770.0 0.040277
8790.0 0.040117
8810.0 0.039494
8830.0 0.036944
8850.0 0.033739
8870.0 0.03145
8890.0 0.030305
8910.0 0.02872
8930.0 0.026731
8950.0 0.025455
8970.0 0.02525
8990.0 0.025512
9010.0 0.025498
9030.0 0.025308
9050.0 0.025134
9070.0 0.024987
9090.0 0.024846
9110.0 0.024706
9130.0 0.024566
9150.0 0.024427
9170.0 0.024289
9190.0 0.024152
9210.0 0.024015
9230.0 0.023879
9250.0 0.023745
9270.0 0.023611
9290.0 0.023477
9310.0 0.023345
9330.0 0.023213
9350.0 0.023083
9370.0 0.022952
9390.0 0.022824
9410.0 0.022695
9430.0 0.022565
9450.0 0.022426
9470.0 0.022292
9490.0 0.022177
9510.0 0.022057
9530.0 0.021938
9550.0 0.021816
9570.0 0.021695
9590.0 0.021574
9610.0 0.021454
9630.0 0.021333
9650.0 0.021214
9670.0 0.021096
9690.0 0.020978
9710.0 0.02086
9730.0 0.020744
9750.0 0.020627
9770.0 0.02051
9790.0 0.020395
9810.0 0.020281
9830.0 0.020165
9850.0 0.020041
9870.0 0.019931
9890.0 0.019822
9910.0 0.019711
9930.0 0.019599
9950.0 0.019489
9970.0 0.019378
9990.0 0.019264
10010.0 0.01914
10030.0 0.019024
10050.0 0.01892
10070.0 0.018815
10090.0 0.01871
10110.0 0.018595
10130.0 0.018445
10150.0 0.018342
10170.0 0.018248
10190.0 0.018144
10210.0 0.018041
10230.0 0.017938
10250.0 0.017827
10270.0 0.017716
10290.0 0.01761
10310.0 0.017498
10330.0 0.017382
10350.0 0.017272
10370.0 0.017162
10390.0 0.017046
10410.0 0.016932
10430.0 0.016823
10450.0 0.016709
10470.0 0.016592
10490.0 0.016479
10510.0 0.016367
10530.0 0.016246
10550.0 0.016128
10570.0 0.016015
10590.0 0.015897
10610.0 0.015776
10630.0 0.01566
10650.0 0.015543
10670.0 0.015419
10690.0 0.015298
10710.0 0.015179
10730.0 0.015055
10750.0 0.014927
10770.0 0.014806
10790.0 0.014684
10810.0 0.014555
10830.0 0.014429
10850.0 0.014307
10870.0 0.014176
10890.0 0.014044
10910.0 0.013918
10930.0 0.013791
10950.0 0.01366
10970.0 0.013533
10990.0 0.013412
11010.0 0.01302
11030.0 0.012895
11050.0 0.012777
11070.0 0.012661
11090.0 0.012542
11110.0 0.012433
11130.0 0.012329
11150.0 0.012225
11170.0 0.012126
11190.0 0.012038
11210.0 0.011952
11230.0 0.011871
11250.0 0.0118
11270.0 0.011735
11290.0 0.011675
11310.0 0.01162
11330.0 0.011574
11350.0 0.011531
11370.0 0.011491
11390.0 0.011455
11410.0 0.01142
11430.0 0.011385
11450.0 0.01135
11470.0 0.011314
11490.0 0.011276
11510.0 0.011232
11530.0 0.011187
11550.0 0.011138
11570.0 0.011081
11590.0 0.01102
11610.0 0.010954
11630.0 0.010879
11650.0 0.010796
11670.0 0.010709
11690.0 0.010615
11710.0 0.01051
11730.0 0.010399
11750.0 0.010286
11770.0 0.010161
11790.0 0.010029
11810.0 0.0098939
11830.0 0.0097544
11850.0 0.009603
11870.0 0.0094521
11890.0 0.0093035
11910.0 0.0091492
11930.0 0.008993
11950.0 0.0088438
11970.0 0.0086956
11990.0 0.0085447
12010.0 0.0084019
12030.0 0.0082668
12050.0 0.0081332
12070.0 0.0080029
12090.0 0.0078861
12110.0 0.0077737
12130.0 0.007665
12150.0 0.0075655
12170.0 0.0074755
12190.0 0.0073882
12210.0 0.00731
12230.0 0.0072425
12250.0 0.0071827
12270.0 0.0071303
12290.0 0.007088
12310.0 0.0070546
12330.0 0.0070283
12350.0 0.0070098
12370.0 0.0069981
12390.0 0.0069921
12410.0 0.0069918
12430.0 0.0069949
12450.0 0.0070008
12470.0 0.0070093
12490.0 0.0070191
12510.0 0.0070283
12530.0 0.0070376
12550.0 0.0070462
12570.0 0.0070521
12590.0 0.0070551
12610.0 0.007055
12630.0 0.0070503
12650.0 0.0070403
12670.0 0.0070248
12690.0 0.0070029
12710.0 0.0069749
12730.0 0.0069407
12750.0 0.0068984
12770.0 0.00685
12790.0 0.0067968
12810.0 0.0067374
12830.0 0.0066718
12850.0 0.006605
12870.0 0.0065358
12890.0 0.0064626
12910.0 0.0063892
12930.0 0.0063178
12950.0 0.0062445
12970.0 0.0061712
12990.0 0.0061024
13010.0 0.0060354
13030.0 0.0059685
13050.0 0.0059048
13070.0 0.0058452
13090.0 0.0057857
13110.0 0.0057281
13130.0 0.0056743
13150.0 0.0056226
13170.0 0.0055711
13190.0 0.0055233
13210.0 0.005479
13230.0 0.0054358
13250.0 0.0053947
13270.0 0.005357
13290.0 0.0053208
13310.0 0.0052853
13330.0 0.0052521
13350.0 0.0052203
13370.0 0.0051884
13390.0 0.0051562
13410.0 0.0051251
13430.0 0.005093
13450.0 0.0050591
13470.0 0.0050244
13490.0 0.0049889
13510.0 0.0049498
13530.0 0.004909
13550.0 0.0048677
13570.0 0.0048241
13590.0 0.0047776
13610.0 0.0047309
13630.0 0.0046842
13650.0 0.0046347
13670.0 0.0045848
13690.0 0.004536
13710.0 0.0044864
13730.0 0.0044346
13750.0 0.0043857
13770.0 0.0043374
13790.0 0.004288
13810.0 0.0042393
13830.0 0.0041932
13850.0 0.0041463
13870.0 0.0040993
13890.0 0.0040548
13910.0 0.0040117
13930.0 0.0039683
13950.0 0.0039265
13970.0 0.0038882
13990.0 0.0038504
14010.0 0.0038136
14030.0 0.0037795
14050.0 0.0037472
14070.0 0.0037146
14090.0 0.0036843
14110.0 0.003656
14130.0 0.0036282
14150.0 0.0036008
14170.0 0.0035755
14190.0 0.003551
14210.0 0.0035265
14230.0 0.0035031
14250.0 0.0034811
14270.0 0.0034589
14290.0 0.003437
14310.0 0.0034169
14330.0 0.0033973
14350.0 0.0033777
14370.0 0.0033591
14390.0 0.0033417
14410.0 0.0033242
14430.0 0.0033072
14450.0 0.0032913
14470.0 0.0032759
14490.0 0.0032602
14510.0 0.0032454
14530.0 0.0032315
14550.0 0.0032171
14570.0 0.0032027
14590.0 0.0031887
14610.0 0.0031741
14630.0 0.0031585
14650.0 0.0031431
14670.0 0.0031277
14690.0 0.0031117
14710.0 0.0030958
14730.0 0.0030819
14750.0 0.0030693
14770.0 0.0030587
14790.0 0.0030518
14810.0 0.003049
14830.0 0.0030509
14850.0 0.0030588
14870.0 0.0030723
14890.0 0.0030917
14910.0 0.0031171
14930.0 0.0031456
14950.0 0.0031758
14970.0 0.0032072
14990.0 0.0032364
15010.0 0.0032613
15030.0 0.0032821
15050.0 0.0032987
15070.0 0.0033102
15090.0 0.0033188
15110.0 0.0033251
15130.0 0.0033301
15150.0 0.0033344
15170.0 0.0033383
15190.0 0.0033421
15210.0 0.0033459
15230.0 0.0033499
15250.0 0.0033539
15270.0 0.003358
15290.0 0.0033623
15310.0 0.0033667
15330.0 0.0033711
15350.0 0.0033757
15370.0 0.0033805
15390.0 0.0033852
15410.0 0.0033901
15430.0 0.0033951
15450.0 0.0034002
15470.0 0.0034053
15490.0 0.0034107
15510.0 0.0034161
15530.0 0.0034215
15550.0 0.0034271
15570.0 0.0034328
15590.0 0.0034386
15610.0 0.0034444
15630.0 0.0034503
15650.0 0.0034564
15670.0 0.0034624
15690.0 0.0034686
15710.0 0.0034749
15730.0 0.0034812
15750.0 0.0034876
15770.0 0.0034942
15790.0 0.0035007
15810.0 0.0035073
15830.0 0.003514
15850.0 0.0035208
15870.0 0.0035276
15890.0 0.0035345
15910.0 0.0035415
15930.0 0.0035486
15950.0 0.0035556
15970.0 0.0035627
15990.0 0.00357
16010.0 0.0035772
16030.0 0.0035844
16050.0 0.0035918
16070.0 0.0035992
16090.0 0.0036066
16110.0 0.0036141
16130.0 0.0036216
16150.0 0.0036291
16170.0 0.0036366
16190.0 0.0036443
16210.0 0.0036519
16230.0 0.0036595
16250.0 0.0036672
16270.0 0.003675
16290.0 0.0036827
16310.0 0.0036904
16330.0 0.0036982
16350.0 0.003706
16370.0 0.0037137
16390.0 0.0037215
16410.0 0.0037294
16430.0 0.0037371
16450.0 0.0037449
16470.0 0.0037528
16490.0 0.0037606
16510.0 0.0037683
16530.0 0.0037762
16550.0 0.003784
16570.0 0.0037917
16590.0 0.0037994
16610.0 0.0038072
16630.0 0.0038149
16650.0 0.0038225
16670.0 0.0038302
16690.0 0.0038378
16710.0 0.0038453
16730.0 0.0038529
16750.0 0.0038604
16770.0 0.0038679
16790.0 0.0038753
16810.0 0.0038827
16830.0 0.0038901
16850.0 0.0038973
16870.0 0.0039045
16890.0 0.0039118
16910.0 0.0039188
16930.0 0.0039258
16950.0 0.0039328
16970.0 0.0039398
16990.0 0.0039466
17010.0 0.0039533
17030.0 0.0039601
17050.0 0.0039667
17070.0 0.0039731
17090.0 0.0039796
17110.0 0.003986
17130.0 0.0039922
17150.0 0.0039984
17170.0 0.0040045
17190.0 0.0040105
17210.0 0.0040163
17230.0 0.0040221
17250.0 0.0040278
17270.0 0.0040333
17290.0 0.0040387
17310.0 0.0040441
17330.0 0.0040493
17350.0 0.0040543
17370.0 0.0040594
17390.0 0.0040642
17410.0 0.0040689
17430.0 0.0040735
17450.0 0.004078
17470.0 0.0040822
17490.0 0.0040864
17510.0 0.0040905
17530.0 0.0040943
17550.0 0.004098
17570.0 0.0041017
17590.0 0.0041052
17610.0 0.0041084
17630.0 0.0041115
17650.0 0.0041146
17670.0 0.0041174
17690.0 0.0041199
17710.0 0.0041225
17730.0 0.0041248
17750.0 0.0041269
17770.0 0.0041289
17790.0 0.0041308
17810.0 0.0041324
17830.0 0.0041338
17850.0 0.0041352
17870.0 0.0041363
17890.0 0.0041371
17910.0 0.0041378
17930.0 0.0041385
17950.0 0.0041388
17970.0 0.004139
17990.0 0.004139
18010.0 0.0041388
18030.0 0.0041383
18050.0 0.0041377
18070.0 0.004137
18090.0 0.0041359
18110.0 0.0041347
18130.0 0.0041333
18150.0 0.0041318
18170.0 0.0041299
18190.0 0.0041279
18210.0 0.0041258
18230.0 0.0041233
18250.0 0.0041206
18270.0 0.0041178
18290.0 0.0041148
18310.0 0.0041115
18330.0 0.004108
18350.0 0.0041044
18370.0 0.0041005
18390.0 0.0040964
18410.0 0.0040921
18430.0 0.0040876
18450.0 0.0040827
18470.0 0.0040778
18490.0 0.0040727
18510.0 0.0040673
18530.0 0.0040617
18550.0 0.0040559
18570.0 0.0040499
18590.0 0.0040436
18610.0 0.0040372
18630.0 0.0040306
18650.0 0.0040236
18670.0 0.0040165
18690.0 0.0040093
18710.0 0.0040018
18730.0 0.003994
18750.0 0.0039861
18770.0 0.003978
18790.0 0.0039696
18810.0 0.003961
18830.0 0.0039523
18850.0 0.0039433
18870.0 0.0039341
18890.0 0.0039248
18910.0 0.0039153
18930.0 0.0039054
18950.0 0.0038954
18970.0 0.0038853
18990.0 0.0038749
19010.0 0.0038642
19030.0 0.0038535
19050.0 0.0038426
19070.0 0.0038314
19090.0 0.0038201
19110.0 0.0038087
19130.0 0.0037969
19150.0 0.0037849
19170.0 0.0037729
19190.0 0.0037607
19210.0 0.0037482
19230.0 0.0037355
19250.0 0.0037228
19270.0 0.0037099
19290.0 0.0036967
19310.0 0.0036834
19330.0 0.00367
19350.0 0.0036563
19370.0 0.0036425
19390.0 0.0036286
19410.0 0.0036145
19430.0 0.0036002
19450.0 0.0035858
19470.0 0.0035713
19490.0 0.0035565
19510.0 0.0035417
19530.0 0.0035268
19550.0 0.0035116
19570.0 0.0034963
19590.0 0.0034809
19610.0 0.0034654
19630.0 0.0034497
19650.0 0.003434
19670.0 0.0034181
19690.0 0.003402
19710.0 0.0033859
19730.0 0.0033697
19750.0 0.0033533
19770.0 0.0033368
19790.0 0.0033202
19810.0 0.0033035
19830.0 0.0032867
19850.0 0.0032696
19870.0 0.0032523
19890.0 0.0032343
19910.0 0.0032153
19930.0 0.0031949
19950.0 0.0031723
19970.0 0.0031463
19990.0 0.0031164
20010.0 0.003083
20030.0 0.0030448
20050.0 0.0030019
20070.0 0.0029566
20090.0 0.002909
20110.0 0.0028576
20130.0 0.0028064
20150.0 0.0027561
20170.0 0.002705
20190.0 0.0026539
20210.0 0.0026052
20230.0 0.0025573
20250.0 0.0025092
20270.0 0.0024631
20290.0 0.0024193
20310.0 0.0023762
20330.0 0.0023338
20350.0 0.0022951
20370.0 0.0022577
20390.0 0.0022216
20410.0 0.0021878
20430.0 0.0021565
20450.0 0.0021261
20470.0 0.0020978
20490.0 0.0020719
20510.0 0.0020477
20530.0 0.0020249
20550.0 0.002004
20570.0 0.0019849
20590.0 0.001967
20610.0 0.0019504
20630.0 0.0019351
20650.0 0.0019208
20670.0 0.0019074
20690.0 0.0018947
20710.0 0.0018825
20730.0 0.0018708
20750.0 0.0018593
20770.0 0.0018478
20790.0 0.0018363
20810.0 0.0018245
20830.0 0.0018124
20850.0 0.0017998
20870.0 0.0017866
20890.0 0.0017727
20910.0 0.0017582
20930.0 0.0017428
20950.0 0.0017265
20970.0 0.0017096
20990.0 0.0016919
21010.0 0.0016732
21030.0 0.0016538
21050.0 0.0016339
21070.0 0.0016133
21090.0 0.0015918
21110.0 0.0015703
21130.0 0.0015485
21150.0 0.0015261
21170.0 0.0015036
21190.0 0.0014813
21210.0 0.0014586
21230.0 0.0014357
21250.0 0.0014135
21270.0 0.0013914
21290.0 0.0013692
21310.0 0.0013474
21330.0 0.0013265
21350.0 0.0013056
21370.0 0.0012851
21390.0 0.0012653
21410.0 0.0012461
21430.0 0.001227
21450.0 0.0012087
21470.0 0.0011912
21490.0 0.0011742
21510.0 0.0011576
21530.0 0.0011418
21550.0 0.0011266
21570.0 0.0011118
21590.0 0.0010976
21610.0 0.001084
21630.0 0.0010708
21650.0 0.0010579
21670.0 0.0010456
21690.0 0.0010336
21710.0 0.0010218
21730.0 0.0010104
21750.0 0.00099924
21770.0 0.00098812
21790.0 0.00097714
21810.0 0.00096634
21830.0 0.00095557
21850.0 0.00094474
21870.0 0.00093398
21890.0 0.00092327
21910.0 0.00091243
21930.0 0.00090151
21950.0 0.00089064
21970.0 0.00087965
21990.0 0.00086843
22010.0 0.00085728
22030.0 0.0008461
22050.0 0.00083472
22070.0 0.00082326
22090.0 0.00081191
22110.0 0.00080041
22130.0 0.00078873
22150.0 0.00077713
22170.0 0.00076556
22190.0 0.00075374
22210.0 0.0007419
22230.0 0.00073029
22250.0 0.00071854
22270.0 0.00070669
22290.0 0.000695
22310.0 0.00068338
22330.0 0.00067152
22350.0 0.00065977
22370.0 0.00064822
22390.0 0.00063659
22410.0 0.00062483
22430.0 0.0006134
22450.0 0.00060206
22470.0 0.00059059
22490.0 0.00057927
22510.0 0.00056823
22530.0 0.00055708
22550.0 0.00054594
22570.0 0.00053519
22590.0 0.00052459
22610.0 0.00051399
22630.0 0.00050366
22650.0 0.00049376
22670.0 0.0004839
22690.0 0.00047425
22710.0 0.00046504
22730.0 0.00045611
22750.0 0.00044726
22770.0 0.0004389
22790.0 0.00043095
22810.0 0.00042322
22830.0 0.0004158
22850.0 0.00040882
22870.0 0.00040214
22890.0 0.0003957
22910.0 0.00038965
22930.0 0.00038394
22950.0 0.00037849
22970.0 0.00037332
22990.0 0.00036849
23010.0 0.00036389
23030.0 0.00035951
23050.0 0.00035534
23070.0 0.00035134
23090.0 0.00034748
23110.0 0.00034372
23130.0 0.00034001
23150.0 0.00033632
23170.0 0.0003326
23190.0 0.00032883
23210.0 0.00032497
23230.0 0.00032099
23250.0 0.00031687
23270.0 0.0003126
23290.0 0.00030816
23310.0 0.00030347
23330.0 0.00029865
23350.0 0.00029366
23370.0 0.00028844
23390.0 0.00028306
23410.0 0.00027763
23430.0 0.00027203
23450.0 0.00026625
23470.0 0.00026048
23490.0 0.00025474
23510.0 0.0002489
23530.0 0.00024315
23550.0 0.00023763
23570.0 0.00023219
23590.0 0.0002269
23610.0 0.00022192
23630.0 0.00021721
23650.0 0.00021275
23670.0 0.00020869
23690.0 0.00020505
23710.0 0.00020183
23730.0 0.00019911
23750.0 0.00019688
23770.0 0.00019515
23790.0 0.000194
23810.0 0.00019336
23830.0 0.00019314
23850.0 0.00019352
23870.0 0.00019444
23890.0 0.00019557
23910.0 0.00019703
23930.0 0.00019892
23950.0 0.00020092
23970.0 0.00020281
23990.0 0.00020493
24010.0 0.00020701
24030.0 0.00020878
24050.0 0.00021033
24070.0 0.00021186
24090.0 0.00021285
24110.0 0.00021338
24130.0 0.00021367
24150.0 0.00021359
24170.0 0.00021302
