#lamb flux
1010.0 2.1538e-07
1030.0 2.3734e-07
1050.0 2.626e-07
1070.0 2.9104e-07
1090.0 3.2334e-07
1110.0 3.5647e-07
1130.0 3.8981e-07
1150.0 4.2474e-07
1170.0 4.6077e-07
1190.0 4.9494e-07
1210.0 5.2956e-07
1230.0 5.6535e-07
1250.0 6.004e-07
1270.0 6.3445e-07
1290.0 6.7042e-07
1310.0 7.0637e-07
1330.0 7.4085e-07
1350.0 7.7571e-07
1370.0 8.117e-07
1390.0 8.4679e-07
1410.0 8.8084e-07
1430.0 9.1643e-07
1450.0 9.5202e-07
1470.0 9.8641e-07
1490.0 1.0212e-06
1510.0 1.0579e-06
1530.0 1.0927e-06
1550.0 1.127e-06
1570.0 1.1624e-06
1590.0 1.1979e-06
1610.0 1.2318e-06
1630.0 1.2668e-06
1650.0 1.3026e-06
1670.0 1.3373e-06
1690.0 1.3715e-06
1710.0 1.4069e-06
1730.0 1.4426e-06
1750.0 1.476e-06
1770.0 1.5104e-06
1790.0 1.5455e-06
1810.0 1.5793e-06
1830.0 1.6125e-06
1850.0 1.6476e-06
1870.0 1.6817e-06
1890.0 1.7145e-06
1910.0 1.7478e-06
1930.0 1.7818e-06
1950.0 1.814e-06
1970.0 1.8455e-06
1990.0 1.8781e-06
2010.0 1.9098e-06
2030.0 1.94e-06
2050.0 1.9708e-06
2070.0 2.0021e-06
2090.0 2.0309e-06
2110.0 2.0592e-06
2130.0 2.0879e-06
2150.0 2.1154e-06
2170.0 2.1409e-06
2190.0 2.1669e-06
2210.0 2.1923e-06
2230.0 2.2157e-06
2250.0 2.2381e-06
2270.0 2.261e-06
2290.0 2.282e-06
2310.0 2.3007e-06
2330.0 2.3194e-06
2350.0 2.3374e-06
2370.0 2.3533e-06
2390.0 2.3689e-06
2410.0 2.3862e-06
2430.0 2.4034e-06
2450.0 2.422e-06
2470.0 2.4458e-06
2490.0 2.4778e-06
2510.0 2.5185e-06
2530.0 2.5801e-06
2550.0 2.6805e-06
2570.0 2.8345e-06
2590.0 3.0594e-06
2610.0 3.4074e-06
2630.0 3.8801e-06
2650.0 4.4424e-06
2670.0 5.0931e-06
2690.0 5.7984e-06
2710.0 6.4538e-06
2730.0 7.0158e-06
2750.0 7.4964e-06
2770.0 7.8509e-06
2790.0 8.0847e-06
2810.0 8.2415e-06
2830.0 8.3515e-06
2850.0 8.4154e-06
2870.0 8.4619e-06
2890.0 8.5072e-06
2910.0 8.5494e-06
2930.0 8.5835e-06
2950.0 8.6229e-06
2970.0 8.6652e-06
2990.0 8.7013e-06
3010.0 0.00010207
3030.0 0.00010253
3050.0 0.00010294
3070.0 0.0001032
3090.0 0.00010337
3110.0 0.00010334
3130.0 0.00010292
3150.0 0.00010206
3170.0 0.00010064
3190.0 9.8689e-05
3210.0 9.6444e-05
3230.0 9.4148e-05
3250.0 9.2319e-05
3270.0 9.1189e-05
3290.0 9.1246e-05
3310.0 9.2274e-05
3330.0 9.4612e-05
3350.0 9.7889e-05
3370.0 0.00010216
3390.0 0.00010727
3410.0 0.00011263
3430.0 0.00011846
3450.0 0.0001249
3470.0 0.00013163
3490.0 0.00013847
3510.0 0.00014591
3530.0 0.00015366
3550.0 0.00016122
3570.0 0.00016894
3590.0 0.00017743
3610.0 0.00018573
3630.0 0.00019428
3650.0 0.00020277
3670.0 0.00021052
3690.0 0.00021647
3710.0 0.00022046
3730.0 0.00022259
3750.0 0.00022328
3770.0 0.00020802
3790.0 0.00019306
3810.0 0.00016961
3830.0 0.00012679
3850.0 9.2337e-05
3870.0 9.0361e-05
3890.0 0.00011347
3910.0 0.0001763
3930.0 0.00023448
3950.0 0.00026449
3970.0 0.00027772
3990.0 0.00029651
4010.0 0.00032837
4030.0 0.00032806
4050.0 0.00030876
4070.0 0.00028653
4090.0 0.00027426
4110.0 0.00029436
4130.0 0.00030256
4150.0 0.00030284
4170.0 0.00031125
4190.0 0.00031129
4210.0 0.00031803
4230.0 0.00034396
4250.0 0.00037606
4270.0 0.00039199
4290.0 0.00038828
4310.0 0.00039558
4330.0 0.00042277
4350.0 0.00048979
4370.0 0.00055074
4390.0 0.0005175
4410.0 0.00042606
4430.0 0.00036461
4450.0 0.00030853
4470.0 0.00028561
4490.0 0.00032258
4510.0 0.00038316
4530.0 0.00042393
4550.0 0.00046807
4570.0 0.00054723
4590.0 0.00067067
4610.0 0.00088068
4630.0 0.0010625
4650.0 0.0010762
4670.0 0.0010673
4690.0 0.0011328
4710.0 0.0011438
4730.0 0.00095112
4750.0 0.0007175
4770.0 0.00058142
4790.0 0.0005627
4810.0 0.00053476
4830.0 0.00053324
4850.0 0.00062907
4870.0 0.00078244
4890.0 0.00083909
4910.0 0.00072723
4930.0 0.00068517
4950.0 0.0007949
4970.0 0.0010465
4990.0 0.0012813
5010.0 0.0013106
5030.0 0.001051
5050.0 0.00071827
5070.0 0.00052846
5090.0 0.00045616
5110.0 0.00045007
5130.0 0.00048793
5150.0 0.00050533
5170.0 0.00049865
5190.0 0.00049483
5210.0 0.00048352
5230.0 0.00050777
5250.0 0.0005545
5270.0 0.00063422
5290.0 0.0007332
5310.0 0.00079742
5330.0 0.00082329
5350.0 0.00087267
5370.0 0.00095521
5390.0 0.00098835
5410.0 0.00090923
5430.0 0.00080271
5450.0 0.00078963
5470.0 0.00094013
5490.0 0.0011895
5510.0 0.0014443
5530.0 0.0015602
5550.0 0.0015101
5570.0 0.0013974
5590.0 0.0012634
5610.0 0.0012092
5630.0 0.0012125
5650.0 0.0012171
5670.0 0.0011923
5690.0 0.0011253
5710.0 0.001074
5730.0 0.00095237
5750.0 0.00073137
5770.0 0.00064114
5790.0 0.0006935
5810.0 0.00080861
5830.0 0.00091732
5850.0 0.00098099
5870.0 0.00098298
5890.0 0.00091529
5910.0 0.00088603
5930.0 0.00089522
5950.0 0.0009383
5970.0 0.00096836
5990.0 0.0008833
6010.0 0.00072906
6030.0 0.00060351
6050.0 0.0005531
6070.0 0.00057543
6090.0 0.0006357
6110.0 0.00064861
6130.0 0.00060431
6150.0 0.0005884
6170.0 0.00064554
6190.0 0.00077245
6210.0 0.00092774
6230.0 0.001034
6250.0 0.0010254
6270.0 0.00090709
6290.0 0.0007481
6310.0 0.00059954
6330.0 0.00049593
6350.0 0.00046965
6370.0 0.0005154
6390.0 0.0005923
6410.0 0.00068802
6430.0 0.00079509
6450.0 0.00093425
6470.0 0.0011551
6490.0 0.0014086
6510.0 0.0014912
6530.0 0.0014054
6550.0 0.0013409
6570.0 0.0013252
6590.0 0.0012714
6610.0 0.0011717
6630.0 0.0010905
6650.0 0.0010465
6670.0 0.0010446
6690.0 0.0010148
6710.0 0.00091298
6730.0 0.00079178
6750.0 0.00072621
6770.0 0.00076428
6790.0 0.00082116
6810.0 0.00084641
6830.0 0.00085759
6850.0 0.00082658
6870.0 0.00078824
6890.0 0.00076351
6910.0 0.00072745
6930.0 0.00070299
6950.0 0.00070936
6970.0 0.00073533
6990.0 0.00080805
7010.0 0.00084371
7030.0 0.00080548
7050.0 0.00073804
7070.0 0.00064279
7090.0 0.00054631
7110.0 0.00051187
7130.0 0.00053431
7150.0 0.00055732
7170.0 0.00057215
7190.0 0.00056123
7210.0 0.00055843
7230.0 0.00062531
7250.0 0.00072666
7270.0 0.00081644
7290.0 0.00086242
7310.0 0.00080676
7330.0 0.00072096
7350.0 0.00065742
7370.0 0.00064173
7390.0 0.00067161
7410.0 0.00072192
7430.0 0.000794
7450.0 0.0008781
7470.0 0.00095465
7490.0 0.0009719
7510.0 0.00084519
7530.0 0.00083825
7550.0 0.00075961
7570.0 0.00064886
7590.0 0.00052231
7610.0 0.00048823
7630.0 0.00053223
7650.0 0.00062037
7670.0 0.00071138
7690.0 0.00078613
7710.0 0.00086348
7730.0 0.00093285
7750.0 0.00098274
7770.0 0.00096845
7790.0 0.00096315
7810.0 0.00098104
7830.0 0.00097212
7850.0 0.00093405
7870.0 0.00087785
7890.0 0.00080839
7910.0 0.0007161
7930.0 0.00063573
7950.0 0.00058547
7970.0 0.00057217
7990.0 0.00059237
8010.0 0.00060568
8030.0 0.00061395
8050.0 0.00062048
8070.0 0.00061397
8090.0 0.00061227
8110.0 0.00059052
8130.0 0.00055196
8150.0 0.00052145
8170.0 0.00051603
8190.0 0.00052512
8210.0 0.0005303
8230.0 0.00052597
8250.0 0.00050839
8270.0 0.00044906
8290.0 0.0003552
8310.0 0.00025863
8330.0 0.00017406
8350.0 0.00012441
8370.0 0.00012637
8390.0 0.00015331
8410.0 0.00019374
8430.0 0.00023663
8450.0 0.0002601
8470.0 0.00027318
8490.0 0.00028647
8510.0 0.00030175
8530.0 0.00033506
8550.0 0.00039034
8570.0 0.00045917
8590.0 0.00053063
8610.0 0.00061944
8630.0 0.0007199
8650.0 0.00078124
8670.0 0.00078164
8690.0 0.00075467
8710.0 0.00071678
8730.0 0.00068727
8750.0 0.00065979
8770.0 0.00064239
8790.0 0.00061728
8810.0 0.00057338
8830.0 0.00052458
8850.0 0.00045047
8870.0 0.00039887
8890.0 0.00037025
8910.0 0.00038904
8930.0 0.00038194
8950.0 0.00039271
8970.0 0.00039755
8990.0 0.00040335
9010.0 0.00041037
9030.0 0.00040482
9050.0 0.00040445
9070.0 0.00040474
9090.0 0.00040506
9110.0 0.00040526
9130.0 0.00040564
9150.0 0.0004062
9170.0 0.00040656
9190.0 0.00040663
9210.0 0.00040886
9230.0 0.0004092
9250.0 0.00040981
9270.0 0.0004105
9290.0 0.00041128
9310.0 0.00041215
9330.0 0.00041309
9350.0 0.00041407
9370.0 0.00041512
9390.0 0.00041622
9410.0 0.00041736
9430.0 0.00041854
9450.0 0.00041979
9470.0 0.00042108
9490.0 0.0004224
9510.0 0.00042377
9530.0 0.0004252
9550.0 0.00042665
9570.0 0.00042813
9590.0 0.00042968
9610.0 0.00043126
9630.0 0.00043286
9650.0 0.00043451
9670.0 0.00043621
9690.0 0.00043792
9710.0 0.00043967
9730.0 0.00044146
9750.0 0.00044327
9770.0 0.0004451
9790.0 0.00044697
9810.0 0.00044887
9830.0 0.00045078
9850.0 0.00045271
9870.0 0.00045468
9890.0 0.00045666
9910.0 0.00045864
9930.0 0.00046065
9950.0 0.00046256
9970.0 0.00046462
9990.0 0.00046667
10010.0 0.00046821
10030.0 0.00047027
10050.0 0.00047222
10070.0 0.00047365
10090.0 0.00047593
10110.0 0.00047814
10130.0 0.0004803
10150.0 0.00048243
10170.0 0.0004845
10190.0 0.00048649
10210.0 0.0004885
10230.0 0.0004905
10250.0 0.00049243
10270.0 0.00049435
10290.0 0.00049628
10310.0 0.00049815
10330.0 0.00049995
10350.0 0.00050177
10370.0 0.00050357
10390.0 0.00050529
10410.0 0.00050697
10430.0 0.00050868
10450.0 0.00051029
10470.0 0.00051184
10490.0 0.00051339
10510.0 0.00051489
10530.0 0.00051627
10550.0 0.00051764
10570.0 0.00051899
10590.0 0.00052026
10610.0 0.00052144
10630.0 0.00052262
10650.0 0.00052373
10670.0 0.00052472
10690.0 0.00052568
10710.0 0.00052661
10730.0 0.00052743
10750.0 0.00052814
10770.0 0.00052887
10790.0 0.00052952
10810.0 0.00053004
10830.0 0.00053049
10850.0 0.00053088
10870.0 0.00053099
10890.0 0.0005308
10910.0 0.00053021
10930.0 0.00052888
10950.0 0.00052631
10970.0 0.00052232
10990.0 0.00051681
11010.0 0.00049959
11030.0 0.00048938
11050.0 0.00047765
11070.0 0.00046417
11090.0 0.00044851
11110.0 0.0004328
11130.0 0.00041695
11150.0 0.00040051
11170.0 0.00038434
11190.0 0.0003695
11210.0 0.00035507
11230.0 0.0003413
11250.0 0.00032915
11270.0 0.00031839
11290.0 0.00030849
11310.0 0.00029991
11330.0 0.00029293
11350.0 0.00028673
11370.0 0.00028122
11390.0 0.00027645
11410.0 0.00027209
11430.0 0.00026761
11450.0 0.0002631
11470.0 0.00025845
11490.0 0.0002533
11510.0 0.00024747
11530.0 0.00024136
11550.0 0.00023482
11570.0 0.00022759
11590.0 0.0002201
11610.0 0.00021264
11630.0 0.00020486
11650.0 0.00019697
11670.0 0.00018965
11690.0 0.00018267
11710.0 0.0001759
11730.0 0.00016973
11750.0 0.00016431
11770.0 0.00015922
11790.0 0.00015462
11810.0 0.00015064
11830.0 0.00014706
11850.0 0.00014367
11870.0 0.00014062
11890.0 0.0001378
11910.0 0.00013497
11930.0 0.00013211
11950.0 0.00012928
11970.0 0.00012632
11990.0 0.00012312
12010.0 0.00011986
12030.0 0.00011655
12050.0 0.00011307
12070.0 0.00010951
12090.0 0.00010621
12110.0 0.000103
12130.0 9.9942e-05
12150.0 9.7259e-05
12170.0 9.5014e-05
12190.0 9.3132e-05
12210.0 9.1818e-05
12230.0 9.1102e-05
12250.0 9.0959e-05
12270.0 9.1451e-05
12290.0 9.2517e-05
12310.0 9.406e-05
12330.0 9.6187e-05
12350.0 9.8754e-05
12370.0 0.00010156
12390.0 0.00010465
12410.0 0.00010809
12430.0 0.00011138
12450.0 0.00011457
12470.0 0.00011773
12490.0 0.00012064
12510.0 0.0001231
12530.0 0.00012529
12550.0 0.00012711
12570.0 0.00012839
12590.0 0.0001292
12610.0 0.00012957
12630.0 0.00012945
12650.0 0.00012888
12670.0 0.0001279
12690.0 0.00012653
12710.0 0.00012485
12730.0 0.00012292
12750.0 0.00012067
12770.0 0.00011827
12790.0 0.00011578
12810.0 0.00011314
12830.0 0.00011036
12850.0 0.00010763
12870.0 0.00010487
12890.0 0.00010199
12910.0 9.9116e-05
12930.0 9.6285e-05
12950.0 9.3326e-05
12970.0 9.0277e-05
12990.0 8.7326e-05
13010.0 8.4353e-05
13030.0 8.1291e-05
13050.0 7.8295e-05
13070.0 7.545e-05
13090.0 7.2588e-05
13110.0 6.9833e-05
13130.0 6.7325e-05
13150.0 6.5012e-05
13170.0 6.2848e-05
13190.0 6.1032e-05
13210.0 5.9551e-05
13230.0 5.8342e-05
13250.0 5.7461e-05
13270.0 5.6922e-05
13290.0 5.6684e-05
13310.0 5.6761e-05
13330.0 5.7113e-05
13350.0 5.769e-05
13370.0 5.8506e-05
13390.0 5.9523e-05
13410.0 6.059e-05
13430.0 6.1762e-05
13450.0 6.3019e-05
13470.0 6.4246e-05
13490.0 6.5406e-05
13510.0 6.6595e-05
13530.0 6.7681e-05
13550.0 6.8618e-05
13570.0 6.9464e-05
13590.0 7.0221e-05
13610.0 7.0827e-05
13630.0 7.1301e-05
13650.0 7.1695e-05
13670.0 7.1975e-05
13690.0 7.2142e-05
13710.0 7.2225e-05
13730.0 7.223e-05
13750.0 7.2138e-05
13770.0 7.1972e-05
13790.0 7.173e-05
13810.0 7.1412e-05
13830.0 7.1027e-05
13850.0 7.0563e-05
13870.0 7.0016e-05
13890.0 6.9407e-05
13910.0 6.8735e-05
13930.0 6.7974e-05
13950.0 6.7157e-05
13970.0 6.6328e-05
13990.0 6.5448e-05
14010.0 6.4536e-05
14030.0 6.3648e-05
14050.0 6.2782e-05
14070.0 6.1907e-05
14090.0 6.1102e-05
14110.0 6.0376e-05
14130.0 5.971e-05
14150.0 5.9121e-05
14170.0 5.8646e-05
14190.0 5.8266e-05
14210.0 5.7983e-05
14230.0 5.7812e-05
14250.0 5.7746e-05
14270.0 5.7791e-05
14290.0 5.7953e-05
14310.0 5.8203e-05
14330.0 5.8545e-05
14350.0 5.8988e-05
14370.0 5.9496e-05
14390.0 6.0041e-05
14410.0 6.0659e-05
14430.0 6.1316e-05
14450.0 6.1971e-05
14470.0 6.2645e-05
14490.0 6.337e-05
14510.0 6.4082e-05
14530.0 6.4796e-05
14550.0 6.5575e-05
14570.0 6.6417e-05
14590.0 6.7298e-05
14610.0 6.8294e-05
14630.0 6.9462e-05
14650.0 7.0738e-05
14670.0 7.2146e-05
14690.0 7.3775e-05
14710.0 7.5608e-05
14730.0 7.7487e-05
14750.0 7.9544e-05
14770.0 8.1776e-05
14790.0 8.4026e-05
14810.0 8.6256e-05
14830.0 8.8621e-05
14850.0 9.0882e-05
14870.0 9.2947e-05
14890.0 9.489e-05
14910.0 9.6672e-05
14930.0 9.8149e-05
14950.0 9.9339e-05
14970.0 0.0001003
14990.0 0.00010097
15010.0 0.00010137
15030.0 0.00010156
15050.0 0.00010157
15070.0 0.00010145
15090.0 0.00010125
15110.0 0.00010099
15130.0 0.0001007
15150.0 0.0001004
15170.0 0.00010009
15190.0 9.977e-05
15210.0 9.9462e-05
15230.0 9.9158e-05
15250.0 9.8843e-05
15270.0 9.8533e-05
15290.0 9.824e-05
15310.0 9.7938e-05
15330.0 9.7634e-05
15350.0 9.7342e-05
15370.0 9.7053e-05
15390.0 9.6749e-05
15410.0 9.6455e-05
15430.0 9.6171e-05
15450.0 9.588e-05
15470.0 9.5584e-05
15490.0 9.5304e-05
15510.0 9.5024e-05
15530.0 9.4734e-05
15550.0 9.4451e-05
15570.0 9.4178e-05
15590.0 9.3893e-05
15610.0 9.3604e-05
15630.0 9.3331e-05
15650.0 9.3056e-05
15670.0 9.2773e-05
15690.0 9.2497e-05
15710.0 9.223e-05
15730.0 9.1951e-05
15750.0 9.1671e-05
15770.0 9.1403e-05
15790.0 9.1132e-05
15810.0 9.0847e-05
15830.0 9.0575e-05
15850.0 9.031e-05
15870.0 9.0035e-05
15890.0 8.9759e-05
15910.0 8.9496e-05
15930.0 8.9225e-05
15950.0 8.8944e-05
15970.0 8.8674e-05
15990.0 8.8408e-05
16010.0 8.8132e-05
16030.0 8.7852e-05
16050.0 8.759e-05
16070.0 8.7319e-05
16090.0 8.7041e-05
16110.0 8.6772e-05
16130.0 8.6508e-05
16150.0 8.6224e-05
16170.0 8.5946e-05
16190.0 8.5679e-05
16210.0 8.5405e-05
16230.0 8.5123e-05
16250.0 8.4852e-05
16270.0 8.4584e-05
16290.0 8.4302e-05
16310.0 8.4023e-05
16330.0 8.3753e-05
16350.0 8.3476e-05
16370.0 8.3184e-05
16390.0 8.291e-05
16410.0 8.2636e-05
16430.0 8.2351e-05
16450.0 8.2068e-05
16470.0 8.1797e-05
16490.0 8.1511e-05
16510.0 8.1221e-05
16530.0 8.0941e-05
16550.0 8.0661e-05
16570.0 8.0367e-05
16590.0 8.0077e-05
16610.0 7.98e-05
16630.0 7.9511e-05
16650.0 7.9217e-05
16670.0 7.8933e-05
16690.0 7.8649e-05
16710.0 7.8346e-05
16730.0 7.8053e-05
16750.0 7.7767e-05
16770.0 7.7471e-05
16790.0 7.7168e-05
16810.0 7.688e-05
16830.0 7.6588e-05
16850.0 7.6284e-05
16870.0 7.5986e-05
16890.0 7.5695e-05
16910.0 7.539e-05
16930.0 7.508e-05
16950.0 7.4785e-05
16970.0 7.4485e-05
16990.0 7.4174e-05
17010.0 7.3871e-05
17030.0 7.3575e-05
17050.0 7.3264e-05
17070.0 7.2952e-05
17090.0 7.265e-05
17110.0 7.2343e-05
17130.0 7.2021e-05
17150.0 7.1712e-05
17170.0 7.1408e-05
17190.0 7.1093e-05
17210.0 7.0776e-05
17230.0 7.0471e-05
17250.0 7.0157e-05
17270.0 6.9831e-05
17290.0 6.9517e-05
17310.0 6.9205e-05
17330.0 6.8882e-05
17350.0 6.8556e-05
17370.0 6.8247e-05
17390.0 6.7928e-05
17410.0 6.7601e-05
17430.0 6.7282e-05
17450.0 6.6968e-05
17470.0 6.6634e-05
17490.0 6.6306e-05
17510.0 6.5989e-05
17530.0 6.5663e-05
17550.0 6.533e-05
17570.0 6.5008e-05
17590.0 6.4688e-05
17610.0 6.4354e-05
17630.0 6.4024e-05
17650.0 6.3702e-05
17670.0 6.3372e-05
17690.0 6.3029e-05
17710.0 6.2705e-05
17730.0 6.2379e-05
17750.0 6.2042e-05
17770.0 6.1709e-05
17790.0 6.1387e-05
17810.0 6.105e-05
17830.0 6.071e-05
17850.0 6.0381e-05
17870.0 6.0051e-05
17890.0 5.9708e-05
17910.0 5.9369e-05
17930.0 5.9044e-05
17950.0 5.8707e-05
17970.0 5.8367e-05
17990.0 5.8037e-05
18010.0 5.7705e-05
18030.0 5.7357e-05
18050.0 5.702e-05
18070.0 5.6689e-05
18090.0 5.6349e-05
18110.0 5.6004e-05
18130.0 5.5674e-05
18150.0 5.534e-05
18170.0 5.4996e-05
18190.0 5.4658e-05
18210.0 5.4328e-05
18230.0 5.3983e-05
18250.0 5.3636e-05
18270.0 5.3305e-05
18290.0 5.2969e-05
18310.0 5.2624e-05
18330.0 5.2287e-05
18350.0 5.1957e-05
18370.0 5.1613e-05
18390.0 5.127e-05
18410.0 5.0937e-05
18430.0 5.06e-05
18450.0 5.0251e-05
18470.0 4.9915e-05
18490.0 4.9584e-05
18510.0 4.9242e-05
18530.0 4.8901e-05
18550.0 4.8572e-05
18570.0 4.8234e-05
18590.0 4.7887e-05
18610.0 4.7552e-05
18630.0 4.722e-05
18650.0 4.6878e-05
18670.0 4.6536e-05
18690.0 4.6209e-05
18710.0 4.5873e-05
18730.0 4.5532e-05
18750.0 4.52e-05
18770.0 4.4872e-05
18790.0 4.4525e-05
18810.0 4.4188e-05
18830.0 4.386e-05
18850.0 4.3526e-05
18870.0 4.3185e-05
18890.0 4.2857e-05
18910.0 4.253e-05
18930.0 4.2191e-05
18950.0 4.1858e-05
18970.0 4.1533e-05
18990.0 4.12e-05
19010.0 4.0856e-05
19030.0 4.0533e-05
19050.0 4.0207e-05
19070.0 3.9872e-05
19090.0 3.9542e-05
19110.0 3.9224e-05
19130.0 3.889e-05
19150.0 3.8556e-05
19170.0 3.8233e-05
19190.0 3.791e-05
19210.0 3.7575e-05
19230.0 3.7247e-05
19250.0 3.6931e-05
19270.0 3.6604e-05
19290.0 3.6276e-05
19310.0 3.5958e-05
19330.0 3.5639e-05
19350.0 3.5304e-05
19370.0 3.4983e-05
19390.0 3.4667e-05
19410.0 3.4343e-05
19430.0 3.4016e-05
19450.0 3.3704e-05
19470.0 3.3388e-05
19490.0 3.3063e-05
19510.0 3.2746e-05
19530.0 3.2435e-05
19550.0 3.2112e-05
19570.0 3.1788e-05
19590.0 3.1479e-05
19610.0 3.1165e-05
19630.0 3.0845e-05
19650.0 3.0533e-05
19670.0 3.0228e-05
19690.0 2.9908e-05
19710.0 2.9593e-05
19730.0 2.9287e-05
19750.0 2.8976e-05
19770.0 2.8655e-05
19790.0 2.8348e-05
19810.0 2.8045e-05
19830.0 2.7732e-05
19850.0 2.742e-05
19870.0 2.7116e-05
19890.0 2.6798e-05
19910.0 2.6463e-05
19930.0 2.6124e-05
19950.0 2.5764e-05
19970.0 2.536e-05
19990.0 2.4917e-05
20010.0 2.4453e-05
20030.0 2.3936e-05
20050.0 2.3375e-05
20070.0 2.281e-05
20090.0 2.2242e-05
20110.0 2.1646e-05
20130.0 2.1085e-05
20150.0 2.0568e-05
20170.0 2.0071e-05
20190.0 1.9605e-05
20210.0 1.9198e-05
20230.0 1.883e-05
20250.0 1.8492e-05
20270.0 1.8206e-05
20290.0 1.7967e-05
20310.0 1.7765e-05
20330.0 1.7601e-05
20350.0 1.7488e-05
20370.0 1.741e-05
20390.0 1.737e-05
20410.0 1.7368e-05
20430.0 1.74e-05
20450.0 1.747e-05
20470.0 1.7574e-05
20490.0 1.7707e-05
20510.0 1.7869e-05
20530.0 1.8068e-05
20550.0 1.8288e-05
20570.0 1.8522e-05
20590.0 1.8786e-05
20610.0 1.9069e-05
20630.0 1.9353e-05
20650.0 1.9649e-05
20670.0 1.9966e-05
20690.0 2.0271e-05
20710.0 2.0568e-05
20730.0 2.0872e-05
20750.0 2.117e-05
20770.0 2.1448e-05
20790.0 2.1724e-05
20810.0 2.2004e-05
20830.0 2.227e-05
20850.0 2.253e-05
20870.0 2.2804e-05
20890.0 2.3082e-05
20910.0 2.3351e-05
20930.0 2.3634e-05
20950.0 2.3932e-05
20970.0 2.4229e-05
20990.0 2.4526e-05
21010.0 2.4843e-05
21030.0 2.5154e-05
21050.0 2.5449e-05
21070.0 2.574e-05
21090.0 2.6025e-05
21110.0 2.6273e-05
21130.0 2.6494e-05
21150.0 2.6692e-05
21170.0 2.6853e-05
21190.0 2.6973e-05
21210.0 2.7058e-05
21230.0 2.7103e-05
21250.0 2.7103e-05
21270.0 2.7063e-05
21290.0 2.698e-05
21310.0 2.6856e-05
21330.0 2.6701e-05
21350.0 2.6505e-05
21370.0 2.627e-05
21390.0 2.6012e-05
21410.0 2.5729e-05
21430.0 2.5403e-05
21450.0 2.5066e-05
21470.0 2.4724e-05
21490.0 2.4361e-05
21510.0 2.3987e-05
21530.0 2.3628e-05
21550.0 2.3271e-05
21570.0 2.2911e-05
21590.0 2.2574e-05
21610.0 2.2266e-05
21630.0 2.1974e-05
21650.0 2.1706e-05
21670.0 2.1489e-05
21690.0 2.1305e-05
21710.0 2.1157e-05
21730.0 2.1055e-05
21750.0 2.0998e-05
21770.0 2.0983e-05
21790.0 2.1015e-05
21810.0 2.1089e-05
21830.0 2.1206e-05
21850.0 2.1371e-05
21870.0 2.1571e-05
21890.0 2.1799e-05
21910.0 2.2071e-05
21930.0 2.2374e-05
21950.0 2.2694e-05
21970.0 2.3041e-05
21990.0 2.3428e-05
22010.0 2.3813e-05
22030.0 2.4205e-05
22050.0 2.4619e-05
22070.0 2.5038e-05
22090.0 2.5438e-05
22110.0 2.5845e-05
22130.0 2.6253e-05
22150.0 2.6635e-05
22170.0 2.6994e-05
22190.0 2.7347e-05
22210.0 2.7669e-05
22230.0 2.7944e-05
22250.0 2.819e-05
22270.0 2.8398e-05
22290.0 2.8556e-05
22310.0 2.8667e-05
22330.0 2.873e-05
22350.0 2.8737e-05
22370.0 2.8689e-05
22390.0 2.8585e-05
22410.0 2.8417e-05
22430.0 2.8201e-05
22450.0 2.7933e-05
22470.0 2.7601e-05
22490.0 2.7221e-05
22510.0 2.6809e-05
22530.0 2.6336e-05
22550.0 2.5811e-05
22570.0 2.5273e-05
22590.0 2.4706e-05
22610.0 2.4094e-05
22630.0 2.3469e-05
22650.0 2.2857e-05
22670.0 2.2212e-05
