#lamb flux
1010.0 1.4197e-05
1030.0 1.5373e-05
1050.0 1.7033e-05
1070.0 1.8902e-05
1090.0 2.094e-05
1110.0 2.3048e-05
1130.0 2.5182e-05
1150.0 2.7423e-05
1170.0 2.9733e-05
1190.0 3.1907e-05
1210.0 3.4083e-05
1230.0 3.6293e-05
1250.0 3.8425e-05
1270.0 4.0432e-05
1290.0 4.2491e-05
1310.0 4.4477e-05
1330.0 4.6301e-05
1350.0 4.8088e-05
1370.0 4.989e-05
1390.0 5.16e-05
1410.0 5.3226e-05
1430.0 5.4942e-05
1450.0 5.6671e-05
1470.0 5.8365e-05
1490.0 6.0131e-05
1510.0 6.2077e-05
1530.0 6.3992e-05
1550.0 6.5975e-05
1570.0 6.8129e-05
1590.0 7.0397e-05
1610.0 7.2701e-05
1630.0 7.5221e-05
1650.0 7.7923e-05
1670.0 8.0684e-05
1690.0 8.3541e-05
1710.0 8.6593e-05
1730.0 8.9762e-05
1750.0 9.2886e-05
1770.0 9.6138e-05
1790.0 9.9477e-05
1810.0 0.00010276
1830.0 0.00010598
1850.0 0.00010929
1870.0 0.00011245
1890.0 0.0001154
1910.0 0.00011825
1930.0 0.00012095
1950.0 0.00012332
1970.0 0.00012541
1990.0 0.00012732
2010.0 0.00012891
2030.0 0.00013013
2050.0 0.00013114
2070.0 0.00013193
2090.0 0.00013234
2110.0 0.00013251
2130.0 0.00013254
2150.0 0.00013237
2170.0 0.00013197
2190.0 0.00013156
2210.0 0.0001311
2230.0 0.00013054
2250.0 0.00012999
2270.0 0.00012956
2290.0 0.00012914
2310.0 0.00012875
2330.0 0.00012853
2350.0 0.00012845
2370.0 0.00012846
2390.0 0.00012867
2410.0 0.00012915
2430.0 0.0001298
2450.0 0.00013067
2470.0 0.00013189
2490.0 0.00013349
2510.0 0.0001354
2530.0 0.00013801
2550.0 0.00014186
2570.0 0.0001475
2590.0 0.00015567
2610.0 0.00016845
2630.0 0.00018646
2650.0 0.00020905
2670.0 0.0002367
2690.0 0.00026863
2710.0 0.00030067
2730.0 0.0003304
2750.0 0.00035746
2770.0 0.00037864
2790.0 0.00039315
2810.0 0.00040214
2830.0 0.00040622
2850.0 0.00040673
2870.0 0.00040536
2890.0 0.00040283
2910.0 0.00040011
2930.0 0.00039804
2950.0 0.00039628
2970.0 0.00039507
2990.0 0.0003949
3010.0 0.00052956
3030.0 0.00053119
3050.0 0.00053381
3070.0 0.00053774
3090.0 0.00054191
3110.0 0.000546
3130.0 0.00054992
3150.0 0.00055515
3170.0 0.00055741
3190.0 0.00064401
3210.0 0.001022
3230.0 0.0016299
3250.0 0.0019319
3270.0 0.0017358
3290.0 0.0013951
3310.0 0.0012121
3330.0 0.0011477
3350.0 0.0011575
3370.0 0.0011887
3390.0 0.0012249
3410.0 0.0012581
3430.0 0.0012607
3450.0 0.0012808
3470.0 0.0013087
3490.0 0.0013983
3510.0 0.0015671
3530.0 0.0017656
3550.0 0.0021208
3570.0 0.0025532
3590.0 0.0027817
3610.0 0.0028295
3630.0 0.0028374
3650.0 0.0028718
3670.0 0.0031221
3690.0 0.0037124
3710.0 0.004355
3730.0 0.0048025
3750.0 0.0051506
3770.0 0.0051689
3790.0 0.0049034
3810.0 0.004527
3830.0 0.0040179
3850.0 0.0036078
3870.0 0.0034453
3890.0 0.0038288
3910.0 0.0045713
3930.0 0.0053279
3950.0 0.0059324
3970.0 0.0062473
3990.0 0.0063109
4010.0 0.006223
4030.0 0.0055701
4050.0 0.0046376
4070.0 0.0041424
4090.0 0.0041944
4110.0 0.0045031
4130.0 0.0046517
4150.0 0.0046801
4170.0 0.0046676
4190.0 0.0047316
4210.0 0.0047682
4230.0 0.0049312
4250.0 0.0050781
4270.0 0.0052074
4290.0 0.0052668
4310.0 0.0053706
4330.0 0.0055001
4350.0 0.0055748
4370.0 0.0053882
4390.0 0.0049434
4410.0 0.0043503
4430.0 0.0037941
4450.0 0.0034668
4470.0 0.0034921
4490.0 0.0037685
4510.0 0.0042326
4530.0 0.0049386
4550.0 0.0060294
4570.0 0.0073118
4590.0 0.0087977
4610.0 0.010272
4630.0 0.011175
4650.0 0.011447
4670.0 0.011283
4690.0 0.01051
4710.0 0.0091866
4730.0 0.0076839
4750.0 0.006436
4770.0 0.0056438
4790.0 0.0054835
4810.0 0.0056574
4830.0 0.0059594
4850.0 0.0063826
4870.0 0.006887
4890.0 0.0071837
4910.0 0.0074647
4930.0 0.0080228
4950.0 0.0086251
4970.0 0.0087871
4990.0 0.0083519
5010.0 0.0074611
5030.0 0.0063834
5050.0 0.0055318
5070.0 0.0050091
5090.0 0.0047569
5110.0 0.0047354
5130.0 0.004761
5150.0 0.0047512
5170.0 0.004805
5190.0 0.0050461
5210.0 0.0055379
5230.0 0.0061661
5250.0 0.0069659
5270.0 0.007802
5290.0 0.0084301
5310.0 0.008893
5330.0 0.0093206
5350.0 0.0095356
5370.0 0.0093951
5390.0 0.0091422
5410.0 0.0090969
5430.0 0.0095003
5450.0 0.010367
5470.0 0.011308
5490.0 0.011862
5510.0 0.011948
5530.0 0.011751
5550.0 0.011397
5570.0 0.010947
5590.0 0.010521
5610.0 0.010161
5630.0 0.0098681
5650.0 0.0094546
5670.0 0.0087755
5690.0 0.0080335
5710.0 0.0074348
5730.0 0.0069451
5750.0 0.0067213
5770.0 0.0067751
5790.0 0.0068669
5810.0 0.006844
5830.0 0.0067859
5850.0 0.006656
5870.0 0.0064237
5890.0 0.0062882
5910.0 0.006224
5930.0 0.0059556
5950.0 0.0054554
5970.0 0.0048351
5990.0 0.0042266
6010.0 0.0038105
6030.0 0.0036654
6050.0 0.0037725
6070.0 0.0039433
6090.0 0.0039265
6110.0 0.0038233
6130.0 0.0038629
6150.0 0.0040409
6170.0 0.0042114
6190.0 0.0042999
6210.0 0.0042932
6230.0 0.0041206
6250.0 0.0037708
6270.0 0.0033463
6290.0 0.0030056
6310.0 0.0029213
6330.0 0.0030725
6350.0 0.0032902
6370.0 0.00351
6390.0 0.0038593
6410.0 0.00435
6430.0 0.0047404
6450.0 0.0049439
6470.0 0.0050817
6490.0 0.0051984
6510.0 0.0052514
6530.0 0.0052769
6550.0 0.0053454
6570.0 0.0053805
6590.0 0.0053565
6610.0 0.0052416
6630.0 0.0050146
6650.0 0.0046963
6670.0 0.0043828
6690.0 0.004176
6710.0 0.0040223
6730.0 0.0038519
6750.0 0.0037576
6770.0 0.0038186
6790.0 0.0039061
6810.0 0.0039087
6830.0 0.0038412
6850.0 0.0037445
6870.0 0.0036477
6890.0 0.0035653
6910.0 0.0035695
6930.0 0.0036018
6950.0 0.0036047
6970.0 0.0036019
6990.0 0.0035606
7010.0 0.003454
7030.0 0.0032569
7050.0 0.0029849
7070.0 0.0027747
7090.0 0.0027512
7110.0 0.0028186
7130.0 0.002784
7150.0 0.0026778
7170.0 0.0026922
7190.0 0.0028722
7210.0 0.0030826
7230.0 0.0032482
7250.0 0.0033365
7270.0 0.0032758
7290.0 0.0031423
7310.0 0.0030581
7330.0 0.0030969
7350.0 0.0031949
7370.0 0.0032647
7390.0 0.00338
7410.0 0.003588
7430.0 0.0037937
7450.0 0.0039315
7470.0 0.0039551
7490.0 0.0037687
7510.0 0.003538
7530.0 0.0034544
7550.0 0.0033368
7570.0 0.0032126
7590.0 0.003167
7610.0 0.0031802
7630.0 0.0032705
7650.0 0.0034787
7670.0 0.00375
7690.0 0.0040049
7710.0 0.0041885
7730.0 0.0043469
7750.0 0.0044869
7770.0 0.0045876
7790.0 0.0046871
7810.0 0.0047153
7830.0 0.0045881
7850.0 0.0044367
7870.0 0.0043389
7890.0 0.0043043
7910.0 0.004313
7930.0 0.0042356
7950.0 0.0041281
7970.0 0.0040014
7990.0 0.0039067
8010.0 0.0037031
8030.0 0.0037122
8050.0 0.0037108
8070.0 0.0036726
8090.0 0.003645
8110.0 0.0036151
8130.0 0.0036286
8150.0 0.0036137
8170.0 0.003568
8190.0 0.0034739
8210.0 0.0033416
8230.0 0.0032219
8250.0 0.0031815
8270.0 0.0030276
8290.0 0.0026879
8310.0 0.0023144
8330.0 0.0020621
8350.0 0.0019908
8370.0 0.0021551
8390.0 0.0024181
8410.0 0.002587
8430.0 0.0027133
8450.0 0.0029157
8470.0 0.0031425
8490.0 0.0034291
8510.0 0.0037484
8530.0 0.0040742
8550.0 0.0043328
8570.0 0.004526
8590.0 0.0046742
8610.0 0.004775
8630.0 0.0047792
8650.0 0.0047043
8670.0 0.0047211
8690.0 0.004952
8710.0 0.005261
8730.0 0.0054004
8750.0 0.0053587
8770.0 0.0054074
8790.0 0.0054179
8810.0 0.0052188
8830.0 0.0048457
8850.0 0.0043781
8870.0 0.0040284
8890.0 0.0039198
8910.0 0.0038339
8930.0 0.0035881
8950.0 0.0033346
8970.0 0.0032388
8990.0 0.0032637
9010.0 0.0032297
9030.0 0.0031795
9050.0 0.0031509
9070.0 0.0031346
9090.0 0.00312
9110.0 0.0031058
9130.0 0.0030917
9150.0 0.0030779
9170.0 0.0030638
9190.0 0.0030515
9210.0 0.0030422
9230.0 0.0030269
9250.0 0.0030126
9270.0 0.0029991
9290.0 0.002986
9310.0 0.0029732
9330.0 0.0029606
9350.0 0.0029485
9370.0 0.0029364
9390.0 0.0029244
9410.0 0.0029126
9430.0 0.0029004
9450.0 0.0028847
9470.0 0.0028703
9490.0 0.0028629
9510.0 0.0028536
9530.0 0.002844
9550.0 0.0028338
9570.0 0.0028234
9590.0 0.0028132
9610.0 0.0028029
9630.0 0.0027924
9650.0 0.0027821
9670.0 0.0027722
9690.0 0.0027621
9710.0 0.002752
9730.0 0.0027422
9750.0 0.0027324
9770.0 0.0027224
9790.0 0.0027127
9810.0 0.0027031
9830.0 0.0026934
9850.0 0.0026835
9870.0 0.0026741
9890.0 0.0026646
9910.0 0.0026549
9930.0 0.0026453
9950.0 0.002629
9970.0 0.0026213
9990.0 0.0026131
10010.0 0.002605
10030.0 0.0025961
10050.0 0.0025868
10070.0 0.0025775
10090.0 0.0025683
10110.0 0.0025576
10130.0 0.0025437
10150.0 0.0025345
10170.0 0.0025258
10190.0 0.0025159
10210.0 0.0025063
10230.0 0.0024967
10250.0 0.002486
10270.0 0.0024752
10290.0 0.002465
10310.0 0.0024539
10330.0 0.0024419
10350.0 0.0024308
10370.0 0.0024196
10390.0 0.0024075
10410.0 0.0023953
10430.0 0.002384
10450.0 0.0023716
10470.0 0.0023587
10490.0 0.0023462
10510.0 0.0023337
10530.0 0.0023197
10550.0 0.0023061
10570.0 0.002293
10590.0 0.002279
10610.0 0.0022644
10630.0 0.0022505
10650.0 0.0022362
10670.0 0.0022207
10690.0 0.0022054
10710.0 0.0021904
10730.0 0.0021744
10750.0 0.0021575
10770.0 0.0021418
10790.0 0.0021255
10810.0 0.0021081
10830.0 0.0020909
10850.0 0.0020742
10870.0 0.0020558
10890.0 0.0020371
10910.0 0.0020191
10930.0 0.0020005
10950.0 0.0019807
10970.0 0.0019613
10990.0 0.0019424
11010.0 0.0020336
11030.0 0.0020126
11050.0 0.0019926
11070.0 0.0019725
11090.0 0.0019512
11110.0 0.0019314
11130.0 0.0019122
11150.0 0.0018925
11170.0 0.001873
11190.0 0.0018549
11210.0 0.0018365
11230.0 0.001818
11250.0 0.0018006
11270.0 0.0017839
11290.0 0.0017669
11310.0 0.0017505
11330.0 0.0017355
11350.0 0.0017204
11370.0 0.0017052
11390.0 0.0016907
11410.0 0.0016763
11430.0 0.0016607
11450.0 0.0016449
11470.0 0.0016289
11490.0 0.0016117
11510.0 0.0015929
11530.0 0.0015737
11550.0 0.0015536
11570.0 0.0015315
11590.0 0.0015084
11610.0 0.0014852
11630.0 0.0014602
11650.0 0.0014338
11670.0 0.001408
11690.0 0.0013817
11710.0 0.0013541
11730.0 0.0013266
11750.0 0.0012999
11770.0 0.0012721
11790.0 0.0012438
11810.0 0.0012163
11830.0 0.0011888
11850.0 0.00116
11870.0 0.001132
11890.0 0.001105
11910.0 0.0010774
11930.0 0.00105
11950.0 0.001024
11970.0 0.00099842
11990.0 0.00097265
12010.0 0.00094842
12030.0 0.00092565
12050.0 0.00090339
12070.0 0.000882
12090.0 0.00086304
12110.0 0.00084517
12130.0 0.00082837
12150.0 0.00081345
12170.0 0.00080041
12190.0 0.00078847
12210.0 0.00077845
12230.0 0.00077043
12250.0 0.0007641
12270.0 0.00075951
12290.0 0.00075672
12310.0 0.00075546
12330.0 0.00075582
12350.0 0.00075759
12370.0 0.00076034
12390.0 0.00076415
12410.0 0.00076922
12430.0 0.00077443
12450.0 0.00077991
12470.0 0.00078591
12490.0 0.00079194
12510.0 0.00079741
12530.0 0.00080291
12550.0 0.00080821
12570.0 0.00081265
12590.0 0.00081634
12610.0 0.00081952
12630.0 0.00082167
12650.0 0.00082244
12670.0 0.00082219
12690.0 0.0008207
12710.0 0.00081778
12730.0 0.00081354
12750.0 0.00080786
12770.0 0.0008008
12790.0 0.00079259
12810.0 0.00078314
12830.0 0.00077247
12850.0 0.00076127
12870.0 0.00074948
12890.0 0.00073693
12910.0 0.00072421
12930.0 0.00071168
12950.0 0.00069886
12970.0 0.00068602
12990.0 0.00067389
13010.0 0.00066208
13030.0 0.00065037
13050.0 0.00063921
13070.0 0.00062874
13090.0 0.00061837
13110.0 0.00060834
13130.0 0.00059893
13150.0 0.00058988
13170.0 0.00058089
13190.0 0.00057247
13210.0 0.00056457
13230.0 0.00055683
13250.0 0.00054939
13270.0 0.00054246
13290.0 0.00053576
13310.0 0.00052919
13330.0 0.000523
13350.0 0.00051711
13370.0 0.00051133
13390.0 0.00050567
13410.0 0.00050038
13430.0 0.00049518
13450.0 0.00049
13470.0 0.00048501
13490.0 0.00048018
13510.0 0.00047524
13530.0 0.00047039
13550.0 0.0004657
13570.0 0.00046099
13590.0 0.00045622
13610.0 0.00045156
13630.0 0.00044701
13650.0 0.00044234
13670.0 0.00043771
13690.0 0.00043323
13710.0 0.00042874
13730.0 0.00042413
13750.0 0.00041977
13770.0 0.00041549
13790.0 0.00041118
13810.0 0.00040697
13830.0 0.00040298
13850.0 0.00039898
13870.0 0.00039503
13890.0 0.0003913
13910.0 0.00038771
13930.0 0.00038412
13950.0 0.00038068
13970.0 0.00037748
13990.0 0.00037431
14010.0 0.0003712
14030.0 0.00036824
14050.0 0.00036536
14070.0 0.00036239
14090.0 0.00035952
14110.0 0.00035674
14130.0 0.00035393
14150.0 0.00035107
14170.0 0.00034837
14190.0 0.00034572
14210.0 0.00034304
14230.0 0.0003405
14250.0 0.00033815
14270.0 0.00033583
14290.0 0.00033365
14310.0 0.00033174
14330.0 0.00032999
14350.0 0.00032838
14370.0 0.00032697
14390.0 0.00032577
14410.0 0.00032466
14430.0 0.00032368
14450.0 0.00032284
14470.0 0.00032207
14490.0 0.00032132
14510.0 0.00032065
14530.0 0.00032003
14550.0 0.00031939
14570.0 0.00031878
14590.0 0.00031822
14610.0 0.0003177
14630.0 0.00031724
14650.0 0.00031693
14670.0 0.00031681
14690.0 0.00031694
14710.0 0.00031741
14730.0 0.00031829
14750.0 0.00031968
14770.0 0.0003217
14790.0 0.00032438
14810.0 0.00032774
14830.0 0.00033215
14850.0 0.00033743
14870.0 0.00034339
14890.0 0.00035024
14910.0 0.00035792
14930.0 0.00036576
14950.0 0.00037351
14970.0 0.00038125
14990.0 0.00038824
15010.0 0.00039413
15030.0 0.00039908
15050.0 0.0004031
15070.0 0.00040605
15090.0 0.00040837
15110.0 0.00041027
15130.0 0.00041187
15150.0 0.00041334
15170.0 0.00041475
15190.0 0.00041615
15210.0 0.00041757
15230.0 0.00041901
15250.0 0.00042047
15270.0 0.00042197
15290.0 0.00042349
15310.0 0.00042505
15330.0 0.00042663
15350.0 0.00042824
15370.0 0.00042988
15390.0 0.00043155
15410.0 0.00043324
15430.0 0.00043496
15450.0 0.00043671
15470.0 0.00043849
15490.0 0.00044029
15510.0 0.00044211
15530.0 0.00044396
15550.0 0.00044584
15570.0 0.00044774
15590.0 0.00044966
15610.0 0.00045161
15630.0 0.00045357
15650.0 0.00045557
15670.0 0.00045758
15690.0 0.00045961
15710.0 0.00046167
15730.0 0.00046374
15750.0 0.00046583
15770.0 0.00046794
15790.0 0.00047007
15810.0 0.00047222
15830.0 0.00047438
15850.0 0.00047657
15870.0 0.00047876
15890.0 0.00048097
15910.0 0.0004832
15930.0 0.00048544
15950.0 0.00048769
15970.0 0.00048996
15990.0 0.00049224
16010.0 0.00049452
16030.0 0.00049682
16050.0 0.00049913
16070.0 0.00050145
16090.0 0.00050377
16110.0 0.00050611
16130.0 0.00050845
16150.0 0.00051079
16170.0 0.00051314
16190.0 0.00051549
16210.0 0.00051785
16230.0 0.00052021
16250.0 0.00052257
16270.0 0.00052494
16290.0 0.0005273
16310.0 0.00052966
16330.0 0.00053202
16350.0 0.00053438
16370.0 0.00053673
16390.0 0.00053908
16410.0 0.00054142
16430.0 0.00054376
16450.0 0.00054609
16470.0 0.00054842
16490.0 0.00055073
16510.0 0.00055303
16530.0 0.00055533
16550.0 0.00055761
16570.0 0.00055988
16590.0 0.00056213
16610.0 0.00056438
16630.0 0.00056661
16650.0 0.00056882
16670.0 0.00057101
16690.0 0.00057319
16710.0 0.00057534
16730.0 0.00057748
16750.0 0.0005796
16770.0 0.00058169
16790.0 0.00058376
16810.0 0.00058581
16830.0 0.00058784
16850.0 0.00058984
16870.0 0.00059181
16890.0 0.00059376
16910.0 0.00059568
16930.0 0.00059756
16950.0 0.00059943
16970.0 0.00060126
16990.0 0.00060306
17010.0 0.00060482
17030.0 0.00060656
17050.0 0.00060826
17070.0 0.00060993
17090.0 0.00061156
17110.0 0.00061315
17130.0 0.00061471
17150.0 0.00061623
17170.0 0.00061772
17190.0 0.00061916
17210.0 0.00062057
17230.0 0.00062194
17250.0 0.00062326
17270.0 0.00062454
17290.0 0.00062578
17310.0 0.00062698
17330.0 0.00062814
17350.0 0.00062925
17370.0 0.00063032
17390.0 0.00063134
17410.0 0.00063232
17430.0 0.00063325
17450.0 0.00063414
17470.0 0.00063497
17490.0 0.00063576
17510.0 0.00063651
17530.0 0.00063721
17550.0 0.00063785
17570.0 0.00063845
17590.0 0.000639
17610.0 0.0006395
17630.0 0.00063996
17650.0 0.00064036
17670.0 0.00064071
17690.0 0.00064101
17710.0 0.00064127
17730.0 0.00064147
17750.0 0.00064162
17770.0 0.00064172
17790.0 0.00064177
17810.0 0.00064177
17830.0 0.00064171
17850.0 0.00064161
17870.0 0.00064146
17890.0 0.00064125
17910.0 0.000641
17930.0 0.00064069
17950.0 0.00064034
17970.0 0.00063993
17990.0 0.00063947
18010.0 0.00063897
18030.0 0.00063841
18050.0 0.0006378
18070.0 0.00063714
18090.0 0.00063644
18110.0 0.00063568
18130.0 0.00063488
18150.0 0.00063402
18170.0 0.00063312
18190.0 0.00063217
18210.0 0.00063118
18230.0 0.00063013
18250.0 0.00062904
18270.0 0.00062791
18290.0 0.00062673
18310.0 0.0006255
18330.0 0.00062422
18350.0 0.00062291
18370.0 0.00062155
18390.0 0.00062014
18410.0 0.00061869
18430.0 0.0006172
18450.0 0.00061567
18470.0 0.0006141
18490.0 0.00061248
18510.0 0.00061083
18530.0 0.00060913
18550.0 0.0006074
18570.0 0.00060563
18590.0 0.00060382
18610.0 0.00060197
18630.0 0.00060009
18650.0 0.00059817
18670.0 0.00059622
18690.0 0.00059423
18710.0 0.00059221
18730.0 0.00059015
18750.0 0.00058806
18770.0 0.00058595
18790.0 0.00058379
18810.0 0.00058161
18830.0 0.0005794
18850.0 0.00057716
18870.0 0.00057489
18890.0 0.0005726
18910.0 0.00057028
18930.0 0.00056793
18950.0 0.00056555
18970.0 0.00056315
18990.0 0.00056073
19010.0 0.00055828
19030.0 0.00055582
19050.0 0.00055333
19070.0 0.00055081
19090.0 0.00054828
19110.0 0.00054573
19130.0 0.00054316
19150.0 0.00054057
19170.0 0.00053797
19190.0 0.00053534
19210.0 0.0005327
19230.0 0.00053005
19250.0 0.00052738
19270.0 0.0005247
19290.0 0.000522
19310.0 0.00051929
19330.0 0.00051657
19350.0 0.00051384
19370.0 0.00051109
19390.0 0.00050834
19410.0 0.00050558
19430.0 0.0005028
19450.0 0.00050003
19470.0 0.00049724
19490.0 0.00049444
19510.0 0.00049164
19530.0 0.00048884
19550.0 0.00048603
19570.0 0.00048321
19590.0 0.00048039
19610.0 0.00047757
19630.0 0.00047474
19650.0 0.00047192
19670.0 0.00046909
19690.0 0.00046626
19710.0 0.00046343
19730.0 0.0004606
19750.0 0.00045777
19770.0 0.00045494
19790.0 0.00045211
19810.0 0.00044928
19830.0 0.00044645
19850.0 0.0004436
19870.0 0.00044071
19890.0 0.00043774
19910.0 0.00043462
19930.0 0.00043125
19950.0 0.00042754
19970.0 0.00042326
19990.0 0.00041832
20010.0 0.0004128
20030.0 0.00040649
20050.0 0.00039943
20070.0 0.00039197
20090.0 0.00038418
20110.0 0.00037582
20130.0 0.00036754
20150.0 0.00035946
20170.0 0.00035134
20190.0 0.00034328
20210.0 0.00033566
20230.0 0.00032826
20250.0 0.00032092
20270.0 0.00031397
20290.0 0.00030744
20310.0 0.0003011
20330.0 0.00029497
20350.0 0.00028945
20370.0 0.00028421
20390.0 0.00027922
20410.0 0.00027464
20430.0 0.00027046
20450.0 0.00026648
20470.0 0.00026283
20490.0 0.00025954
20510.0 0.00025651
20530.0 0.0002537
20550.0 0.00025114
20570.0 0.00024882
20590.0 0.00024665
20610.0 0.00024463
20630.0 0.00024276
20650.0 0.00024098
20670.0 0.00023928
20690.0 0.00023763
20710.0 0.00023601
20730.0 0.00023439
20750.0 0.00023276
20770.0 0.00023109
20790.0 0.00022937
20810.0 0.00022758
20830.0 0.00022572
20850.0 0.00022379
20870.0 0.00022175
20890.0 0.00021961
20910.0 0.00021741
20930.0 0.00021512
20950.0 0.00021273
20970.0 0.0002103
20990.0 0.00020783
21010.0 0.00020525
21030.0 0.00020265
21050.0 0.00020006
21070.0 0.00019744
21090.0 0.00019476
21110.0 0.00019216
21130.0 0.00018958
21150.0 0.00018699
21170.0 0.00018443
21190.0 0.00018197
21210.0 0.0001795
21230.0 0.00017705
21250.0 0.00017471
21270.0 0.00017244
21290.0 0.00017018
21310.0 0.000168
21330.0 0.00016593
21350.0 0.0001639
21370.0 0.00016193
21390.0 0.00016006
21410.0 0.00015826
21430.0 0.00015651
21450.0 0.00015485
21470.0 0.00015329
21490.0 0.00015179
21510.0 0.00015036
21530.0 0.00014901
21550.0 0.00014772
21570.0 0.00014649
21590.0 0.00014532
21610.0 0.00014421
21630.0 0.00014313
21650.0 0.0001421
21670.0 0.0001411
21690.0 0.00014013
21710.0 0.00013918
21730.0 0.00013825
21750.0 0.00013734
21770.0 0.00013644
21790.0 0.00013555
21810.0 0.00013467
21830.0 0.0001338
21850.0 0.00013293
21870.0 0.00013208
21890.0 0.00013123
21910.0 0.00013038
21930.0 0.00012955
21950.0 0.00012871
21970.0 0.00012788
21990.0 0.00012705
22010.0 0.00012622
22030.0 0.00012538
22050.0 0.00012454
22070.0 0.00012368
22090.0 0.00012282
22110.0 0.00012195
22130.0 0.00012105
22150.0 0.00012013
22170.0 0.00011921
22190.0 0.00011825
22210.0 0.00011727
22230.0 0.00011628
22250.0 0.00011526
22270.0 0.00011422
22290.0 0.00011316
22310.0 0.00011209
22330.0 0.00011097
22350.0 0.00010984
22370.0 0.00010869
22390.0 0.00010751
22410.0 0.00010627
22430.0 0.00010504
22450.0 0.00010378
22470.0 0.00010247
22490.0 0.00010113
22510.0 9.9794e-05
22530.0 9.8397e-05
22550.0 9.6957e-05
22570.0 9.5537e-05
22590.0 9.4103e-05
22610.0 9.2626e-05
22630.0 9.1158e-05
22650.0 8.9736e-05
22670.0 8.8287e-05
22690.0 8.6845e-05
22710.0 8.5461e-05
22730.0 8.4108e-05
22750.0 8.2739e-05
22770.0 8.145e-05
22790.0 8.0231e-05
22810.0 7.9036e-05
22830.0 7.7885e-05
22850.0 7.6821e-05
22870.0 7.5801e-05
22890.0 7.4809e-05
22910.0 7.3889e-05
22930.0 7.303e-05
22950.0 7.22e-05
22970.0 7.1404e-05
22990.0 7.0679e-05
23010.0 6.9981e-05
23030.0 6.9303e-05
23050.0 6.8663e-05
23070.0 6.8056e-05
23090.0 6.745e-05
23110.0 6.6867e-05
