#lamb flux
1010.0 1.4604e-08
1030.0 1.6452e-08
1050.0 1.8577e-08
1070.0 2.0969e-08
1090.0 2.3685e-08
1110.0 2.6472e-08
1130.0 2.9277e-08
1150.0 3.2215e-08
1170.0 3.5245e-08
1190.0 3.8119e-08
1210.0 4.1031e-08
1230.0 4.4041e-08
1250.0 4.6989e-08
1270.0 4.9853e-08
1290.0 5.2879e-08
1310.0 5.5902e-08
1330.0 5.8802e-08
1350.0 6.1734e-08
1370.0 6.4761e-08
1390.0 6.7712e-08
1410.0 7.0575e-08
1430.0 7.3568e-08
1450.0 7.6561e-08
1470.0 7.9452e-08
1490.0 8.2374e-08
1510.0 8.5461e-08
1530.0 8.8384e-08
1550.0 9.1267e-08
1570.0 9.4249e-08
1590.0 9.7231e-08
1610.0 1.0008e-07
1630.0 1.0301e-07
1650.0 1.0602e-07
1670.0 1.0893e-07
1690.0 1.118e-07
1710.0 1.1477e-07
1730.0 1.1776e-07
1750.0 1.2056e-07
1770.0 1.2343e-07
1790.0 1.2636e-07
1810.0 1.2919e-07
1830.0 1.3195e-07
1850.0 1.3487e-07
1870.0 1.377e-07
1890.0 1.4042e-07
1910.0 1.4317e-07
1930.0 1.4597e-07
1950.0 1.4862e-07
1970.0 1.512e-07
1990.0 1.5386e-07
2010.0 1.5643e-07
2030.0 1.5886e-07
2050.0 1.6134e-07
2070.0 1.6384e-07
2090.0 1.6612e-07
2110.0 1.6834e-07
2130.0 1.7058e-07
2150.0 1.727e-07
2170.0 1.7463e-07
2190.0 1.7658e-07
2210.0 1.7847e-07
2230.0 1.8016e-07
2250.0 1.8174e-07
2270.0 1.8335e-07
2290.0 1.8477e-07
2310.0 1.8597e-07
2330.0 1.8715e-07
2350.0 1.8825e-07
2370.0 1.8914e-07
2390.0 1.8998e-07
2410.0 1.9092e-07
2430.0 1.918e-07
2450.0 1.9273e-07
2470.0 1.9396e-07
2490.0 1.9559e-07
2510.0 1.9748e-07
2530.0 2.0027e-07
2550.0 2.0486e-07
2570.0 2.1206e-07
2590.0 2.2312e-07
2610.0 2.4149e-07
2630.0 2.6815e-07
2650.0 3.0181e-07
2670.0 3.4304e-07
2690.0 3.9029e-07
2710.0 4.3641e-07
2730.0 4.777e-07
2750.0 5.1445e-07
2770.0 5.4232e-07
2790.0 5.6065e-07
2810.0 5.7216e-07
2830.0 5.7866e-07
2850.0 5.8015e-07
2870.0 5.7911e-07
2890.0 5.7689e-07
2910.0 5.738e-07
2930.0 5.6999e-07
2950.0 5.6629e-07
2970.0 5.6272e-07
2990.0 5.59e-07
3010.0 1.3063e-05
3030.0 1.2976e-05
3050.0 1.289e-05
3070.0 1.2795e-05
3090.0 1.2695e-05
3110.0 1.2578e-05
3130.0 1.2429e-05
3150.0 1.224e-05
3170.0 1.1995e-05
3190.0 1.17e-05
3210.0 1.1378e-05
3230.0 1.1051e-05
3250.0 1.0762e-05
3270.0 1.0563e-05
3290.0 1.0479e-05
3310.0 1.0527e-05
3330.0 1.0714e-05
3350.0 1.1011e-05
3370.0 1.1424e-05
3390.0 1.1941e-05
3410.0 1.2502e-05
3430.0 1.3134e-05
3450.0 1.3861e-05
3470.0 1.4654e-05
3490.0 1.5491e-05
3510.0 1.643e-05
3530.0 1.7434e-05
3550.0 1.8457e-05
3570.0 1.954e-05
3590.0 2.0751e-05
3610.0 2.2031e-05
3630.0 2.3367e-05
3650.0 2.4771e-05
3670.0 2.6084e-05
3690.0 2.7105e-05
3710.0 2.7716e-05
3730.0 2.7739e-05
3750.0 2.7161e-05
3770.0 2.5436e-05
3790.0 2.3235e-05
3810.0 2.0932e-05
3830.0 1.8543e-05
3850.0 1.5504e-05
3870.0 1.1087e-05
3890.0 1.6054e-05
3910.0 2.5475e-05
3930.0 3.1126e-05
3950.0 3.085e-05
3970.0 3.2619e-05
3990.0 3.6462e-05
4010.0 4.8517e-05
4030.0 4.8021e-05
4050.0 4.2308e-05
4070.0 3.9172e-05
4090.0 3.7247e-05
4110.0 4.4089e-05
4130.0 4.7401e-05
4150.0 4.8753e-05
4170.0 4.7409e-05
4190.0 4.7268e-05
4210.0 4.7444e-05
4230.0 5.3788e-05
4250.0 5.9356e-05
4270.0 6.094e-05
4290.0 6.0713e-05
4310.0 6.0945e-05
4330.0 6.6396e-05
4350.0 7.8099e-05
4370.0 8.9511e-05
4390.0 8.2532e-05
4410.0 6.4507e-05
4430.0 5.3341e-05
4450.0 4.6062e-05
4470.0 4.3665e-05
4490.0 4.969e-05
4510.0 5.9806e-05
4530.0 6.7241e-05
4550.0 7.5941e-05
4570.0 8.6599e-05
4590.0 0.00010338
4610.0 0.00014024
4630.0 0.00017469
4650.0 0.00017672
4670.0 0.00016725
4690.0 0.00017818
4710.0 0.00018928
4730.0 0.00015913
4750.0 0.00011103
4770.0 8.8942e-05
4790.0 8.7875e-05
4810.0 8.2709e-05
4830.0 7.834e-05
4850.0 8.897e-05
4870.0 0.00011589
4890.0 0.0001344
4910.0 0.00011186
4930.0 9.9377e-05
4950.0 0.00011136
4970.0 0.00014993
4990.0 0.00019681
5010.0 0.00021298
5030.0 0.00017493
5050.0 0.00011058
5070.0 7.6075e-05
5090.0 6.6509e-05
5110.0 6.8767e-05
5130.0 7.4842e-05
5150.0 7.7737e-05
5170.0 7.7184e-05
5190.0 7.4861e-05
5210.0 7.322e-05
5230.0 7.6965e-05
5250.0 8.3286e-05
5270.0 9.2767e-05
5290.0 0.00010648
5310.0 0.00012072
5330.0 0.00012415
5350.0 0.00012421
5370.0 0.00013575
5390.0 0.00015069
5410.0 0.00014409
5430.0 0.00012171
5450.0 0.00011263
5470.0 0.00012657
5490.0 0.00016243
5510.0 0.00020767
5530.0 0.00023306
5550.0 0.00022313
5570.0 0.00020114
5590.0 0.00017693
5610.0 0.00016548
5630.0 0.00016052
5650.0 0.0001621
5670.0 0.00015701
5690.0 0.00014259
5710.0 0.00013665
5730.0 0.00012595
5750.0 8.5679e-05
5770.0 7.2942e-05
5790.0 8.3176e-05
5810.0 9.9816e-05
5830.0 0.00011794
5850.0 0.00013303
5870.0 0.00013785
5890.0 0.00013298
5910.0 0.00012739
5930.0 0.00012708
5950.0 0.00013285
5970.0 0.00014563
5990.0 0.00013542
6010.0 0.00011237
6030.0 9.3045e-05
6050.0 8.072e-05
6070.0 8.2089e-05
6090.0 9.2972e-05
6110.0 0.00010165
6130.0 9.7272e-05
6150.0 8.7387e-05
6170.0 9.1901e-05
6190.0 0.00011134
6210.0 0.00014009
6230.0 0.00016729
6250.0 0.00016932
6270.0 0.00014832
6290.0 0.00012322
6310.0 9.7289e-05
6330.0 7.6318e-05
6350.0 6.8984e-05
6370.0 7.404e-05
6390.0 8.8179e-05
6410.0 0.00010346
6430.0 0.00012068
6450.0 0.00014161
6470.0 0.00016939
6490.0 0.00020867
6510.0 0.00023222
6530.0 0.00021775
6550.0 0.00019944
6570.0 0.00018906
6590.0 0.00018205
6610.0 0.00016017
6630.0 0.00014664
6650.0 0.00013516
6670.0 0.00013769
6690.0 0.00013283
6710.0 0.00011908
6730.0 0.00010242
6750.0 9.4073e-05
6770.0 9.5275e-05
6790.0 0.00010861
6810.0 0.00010634
6830.0 0.00010931
6850.0 0.00010553
6870.0 0.00010084
6890.0 9.7262e-05
6910.0 9.5773e-05
6930.0 8.9612e-05
6950.0 9.3152e-05
6970.0 9.416e-05
6990.0 0.00010523
7010.0 0.00011157
7030.0 0.00010452
7050.0 9.7282e-05
7070.0 9.3798e-05
7090.0 8.7795e-05
7110.0 8.3259e-05
7130.0 8.6225e-05
7150.0 9.2012e-05
7170.0 9.8558e-05
7190.0 9.9928e-05
7210.0 9.6942e-05
7230.0 9.9987e-05
7250.0 0.00011365
7270.0 0.00013218
7290.0 0.00014591
7310.0 0.00014394
7330.0 0.00012842
7350.0 0.00011477
7370.0 0.0001064
7390.0 0.00010776
7410.0 0.00011531
7430.0 0.00012642
7450.0 0.00013674
7470.0 0.00014697
7490.0 0.00015959
7510.0 0.00016858
7530.0 0.00015728
7550.0 0.00013242
7570.0 0.00010409
7590.0 7.6657e-05
7610.0 6.8069e-05
7630.0 7.3653e-05
7650.0 8.5299e-05
7670.0 9.8958e-05
7690.0 0.00011222
7710.0 0.00011984
7730.0 0.00012312
7750.0 0.00012865
7770.0 0.0001282
7790.0 0.00012341
7810.0 0.00012304
7830.0 0.00012071
7850.0 0.00011023
7870.0 0.00010017
7890.0 8.9904e-05
7910.0 7.6715e-05
7930.0 6.6986e-05
7950.0 6.0716e-05
7970.0 5.9067e-05
7990.0 6.0635e-05
8010.0 6.3915e-05
8030.0 6.4042e-05
8050.0 6.4502e-05
8070.0 6.3446e-05
8090.0 6.4989e-05
8110.0 6.1297e-05
8130.0 5.3643e-05
8150.0 5.0394e-05
8170.0 4.6442e-05
8190.0 4.5963e-05
8210.0 4.9271e-05
8230.0 5.2706e-05
8250.0 4.884e-05
8270.0 4.3534e-05
8290.0 3.5765e-05
8310.0 2.4648e-05
8330.0 1.5996e-05
8350.0 1.1651e-05
8370.0 1.2382e-05
8390.0 1.4663e-05
8410.0 1.8624e-05
8430.0 2.2757e-05
8450.0 2.5124e-05
8470.0 2.7873e-05
8490.0 2.7399e-05
8510.0 2.7538e-05
8530.0 2.8758e-05
8550.0 3.4812e-05
8570.0 4.2881e-05
8590.0 4.8993e-05
8610.0 5.9215e-05
8630.0 6.8635e-05
8650.0 7.2212e-05
8670.0 7.3405e-05
8690.0 7.2961e-05
8710.0 6.8219e-05
8730.0 6.5476e-05
8750.0 6.0588e-05
8770.0 5.8173e-05
8790.0 5.771e-05
8810.0 5.5012e-05
8830.0 4.6271e-05
8850.0 3.8128e-05
8870.0 3.1794e-05
8890.0 3.1074e-05
8910.0 3.356e-05
8930.0 3.5615e-05
8950.0 3.9967e-05
8970.0 4.0593e-05
8990.0 3.996e-05
9010.0 3.8425e-05
9030.0 3.8022e-05
9050.0 3.8395e-05
9070.0 3.8691e-05
9090.0 3.8913e-05
9110.0 3.9113e-05
9130.0 3.9289e-05
9150.0 3.9456e-05
9170.0 3.9633e-05
9190.0 3.982e-05
9210.0 4.0022e-05
9230.0 4.023e-05
9250.0 4.0451e-05
9270.0 4.0682e-05
9290.0 4.0922e-05
9310.0 4.1174e-05
9330.0 4.1436e-05
9350.0 4.1706e-05
9370.0 4.1986e-05
9390.0 4.2278e-05
9410.0 4.2577e-05
9430.0 4.2884e-05
9450.0 4.3204e-05
9470.0 4.3532e-05
9490.0 4.3867e-05
9510.0 4.4213e-05
9530.0 4.4569e-05
9550.0 4.493e-05
9570.0 4.5299e-05
9590.0 4.5679e-05
9610.0 4.6067e-05
9630.0 4.646e-05
9650.0 4.6861e-05
9670.0 4.7273e-05
9690.0 4.7689e-05
9710.0 4.8112e-05
9730.0 4.8544e-05
9750.0 4.8982e-05
9770.0 4.9422e-05
9790.0 4.9871e-05
9810.0 5.0328e-05
9830.0 5.0787e-05
9850.0 5.1251e-05
9870.0 5.1723e-05
9890.0 5.2198e-05
9910.0 5.2674e-05
9930.0 5.3157e-05
9950.0 5.3644e-05
9970.0 5.4131e-05
9990.0 5.462e-05
10010.0 5.26e-05
10030.0 5.3062e-05
10050.0 5.3523e-05
10070.0 5.3984e-05
10090.0 5.4454e-05
10110.0 5.4919e-05
10130.0 5.5384e-05
10150.0 5.5852e-05
10170.0 5.6317e-05
10190.0 5.6776e-05
10210.0 5.7239e-05
10230.0 5.77e-05
10250.0 5.8155e-05
10270.0 5.8608e-05
10290.0 5.9062e-05
10310.0 5.9508e-05
10330.0 5.9946e-05
10350.0 6.0385e-05
10370.0 6.0819e-05
10390.0 6.1244e-05
10410.0 6.1664e-05
10430.0 6.2083e-05
10450.0 6.2491e-05
10470.0 6.2889e-05
10490.0 6.3285e-05
10510.0 6.3673e-05
10530.0 6.4046e-05
10550.0 6.4413e-05
10570.0 6.4776e-05
10590.0 6.5126e-05
10610.0 6.5464e-05
10630.0 6.5797e-05
10650.0 6.612e-05
10670.0 6.6425e-05
10690.0 6.6723e-05
10710.0 6.7013e-05
10730.0 6.7287e-05
10750.0 6.7546e-05
10770.0 6.78e-05
10790.0 6.8041e-05
10810.0 6.8263e-05
10830.0 6.8473e-05
10850.0 6.8669e-05
10870.0 6.8831e-05
10890.0 6.8952e-05
10910.0 6.902e-05
10930.0 6.8996e-05
10950.0 6.8821e-05
10970.0 6.8472e-05
10990.0 6.7932e-05
11010.0 6.5975e-05
11030.0 6.4914e-05
11050.0 6.3655e-05
11070.0 6.2164e-05
11090.0 6.0372e-05
11110.0 5.8524e-05
11130.0 5.6597e-05
11150.0 5.4522e-05
11170.0 5.2395e-05
11190.0 5.0352e-05
11210.0 4.8267e-05
11230.0 4.6164e-05
11250.0 4.4196e-05
11270.0 4.2346e-05
11290.0 4.0535e-05
11310.0 3.886e-05
11330.0 3.742e-05
11350.0 3.6084e-05
11370.0 3.4868e-05
11390.0 3.3824e-05
11410.0 3.2909e-05
11430.0 3.2045e-05
11450.0 3.1274e-05
11470.0 3.0573e-05
11490.0 2.988e-05
11510.0 2.9166e-05
11530.0 2.8461e-05
11550.0 2.7729e-05
11570.0 2.6925e-05
11590.0 2.6081e-05
11610.0 2.522e-05
11630.0 2.4292e-05
11650.0 2.3312e-05
11670.0 2.2364e-05
11690.0 2.142e-05
11710.0 2.0466e-05
11730.0 1.956e-05
11750.0 1.8736e-05
11770.0 1.7941e-05
11790.0 1.7207e-05
11810.0 1.6566e-05
11830.0 1.5996e-05
11850.0 1.547e-05
11870.0 1.5024e-05
11890.0 1.4643e-05
11910.0 1.4294e-05
11930.0 1.3975e-05
11950.0 1.3687e-05
11970.0 1.3409e-05
11990.0 1.3122e-05
12010.0 1.2837e-05
12030.0 1.2548e-05
12050.0 1.2239e-05
12070.0 1.1913e-05
12090.0 1.1596e-05
12110.0 1.1272e-05
12130.0 1.0946e-05
12150.0 1.0639e-05
12170.0 1.0361e-05
12190.0 1.0101e-05
12210.0 9.8858e-06
12230.0 9.7248e-06
12250.0 9.6157e-06
12270.0 9.5667e-06
12290.0 9.5808e-06
12310.0 9.6517e-06
12330.0 9.788e-06
12350.0 9.9822e-06
12370.0 1.0217e-05
12390.0 1.0497e-05
12410.0 1.0833e-05
12430.0 1.1173e-05
12450.0 1.1522e-05
12470.0 1.1889e-05
12490.0 1.2249e-05
12510.0 1.2575e-05
12530.0 1.2889e-05
12550.0 1.3179e-05
12570.0 1.3419e-05
12590.0 1.3612e-05
12610.0 1.3767e-05
12630.0 1.387e-05
12650.0 1.3913e-05
12670.0 1.3912e-05
12690.0 1.3862e-05
12710.0 1.3767e-05
12730.0 1.3632e-05
12750.0 1.3456e-05
12770.0 1.3247e-05
12790.0 1.3015e-05
12810.0 1.2756e-05
12830.0 1.247e-05
12850.0 1.2178e-05
12870.0 1.1874e-05
12890.0 1.155e-05
12910.0 1.122e-05
12930.0 1.0892e-05
12950.0 1.0548e-05
12970.0 1.0192e-05
12990.0 9.8477e-06
13010.0 9.5006e-06
13030.0 9.1431e-06
13050.0 8.7921e-06
13070.0 8.4562e-06
13090.0 8.1148e-06
13110.0 7.7802e-06
13130.0 7.468e-06
13150.0 7.1708e-06
13170.0 6.8806e-06
13190.0 6.6226e-06
13210.0 6.3969e-06
13230.0 6.1937e-06
13250.0 6.022e-06
13270.0 5.8891e-06
13290.0 5.7889e-06
13310.0 5.7235e-06
13330.0 5.6964e-06
13350.0 5.7032e-06
13370.0 5.7447e-06
13390.0 5.8204e-06
13410.0 5.9168e-06
13430.0 6.0378e-06
13450.0 6.1821e-06
13470.0 6.3364e-06
13490.0 6.4941e-06
13510.0 6.6675e-06
13530.0 6.8374e-06
13550.0 6.9945e-06
13570.0 7.1451e-06
13590.0 7.2877e-06
13610.0 7.4096e-06
13630.0 7.5112e-06
13650.0 7.6e-06
13670.0 7.6681e-06
13690.0 7.7142e-06
13710.0 7.743e-06
13730.0 7.7546e-06
13750.0 7.7466e-06
13770.0 7.7232e-06
13790.0 7.685e-06
13810.0 7.6331e-06
13830.0 7.571e-06
13850.0 7.4969e-06
13870.0 7.4115e-06
13890.0 7.3196e-06
13910.0 7.221e-06
13930.0 7.112e-06
13950.0 6.9975e-06
13970.0 6.8837e-06
13990.0 6.7636e-06
14010.0 6.6396e-06
14030.0 6.5186e-06
14050.0 6.3996e-06
14070.0 6.2773e-06
14090.0 6.1628e-06
14110.0 6.0574e-06
14130.0 5.9579e-06
14150.0 5.8669e-06
14170.0 5.7913e-06
14190.0 5.7282e-06
14210.0 5.6775e-06
14230.0 5.6429e-06
14250.0 5.624e-06
14270.0 5.6205e-06
14290.0 5.6338e-06
14310.0 5.6611e-06
14330.0 5.7022e-06
14350.0 5.7583e-06
14370.0 5.825e-06
14390.0 5.8987e-06
14410.0 5.9842e-06
14430.0 6.0773e-06
14450.0 6.1724e-06
14470.0 6.2719e-06
14490.0 6.38e-06
14510.0 6.4869e-06
14530.0 6.5933e-06
14550.0 6.7066e-06
14570.0 6.8247e-06
14590.0 6.9427e-06
14610.0 7.0693e-06
14630.0 7.2095e-06
14650.0 7.3554e-06
14670.0 7.5099e-06
14690.0 7.6827e-06
14710.0 7.8729e-06
14730.0 8.066e-06
14750.0 8.2771e-06
14770.0 8.5076e-06
14790.0 8.7443e-06
14810.0 8.9846e-06
14830.0 9.2479e-06
14850.0 9.5111e-06
14870.0 9.7641e-06
14890.0 1.0016e-05
14910.0 1.0264e-05
14930.0 1.0486e-05
14950.0 1.068e-05
14970.0 1.0854e-05
14990.0 1.0991e-05
15010.0 1.1091e-05
15030.0 1.116e-05
15050.0 1.1201e-05
15070.0 1.1218e-05
15090.0 1.1219e-05
15110.0 1.1209e-05
15130.0 1.1193e-05
15150.0 1.1174e-05
15170.0 1.1153e-05
15190.0 1.1131e-05
15210.0 1.1109e-05
15230.0 1.1088e-05
15250.0 1.1066e-05
15270.0 1.1044e-05
15290.0 1.1024e-05
15310.0 1.1003e-05
15330.0 1.0982e-05
15350.0 1.0961e-05
15370.0 1.0941e-05
15390.0 1.092e-05
15410.0 1.0899e-05
15430.0 1.088e-05
15450.0 1.0859e-05
15470.0 1.0838e-05
15490.0 1.0819e-05
15510.0 1.0799e-05
15530.0 1.0778e-05
15550.0 1.0758e-05
15570.0 1.0739e-05
15590.0 1.0719e-05
15610.0 1.0698e-05
15630.0 1.0678e-05
15650.0 1.0659e-05
15670.0 1.0638e-05
15690.0 1.0618e-05
15710.0 1.0599e-05
15730.0 1.0578e-05
15750.0 1.0557e-05
15770.0 1.0538e-05
15790.0 1.0518e-05
15810.0 1.0496e-05
15830.0 1.0475e-05
15850.0 1.0456e-05
15870.0 1.0435e-05
15890.0 1.0413e-05
15910.0 1.0393e-05
15930.0 1.0372e-05
15950.0 1.035e-05
15970.0 1.0329e-05
15990.0 1.0308e-05
16010.0 1.0286e-05
16030.0 1.0263e-05
16050.0 1.0242e-05
16070.0 1.022e-05
16090.0 1.0198e-05
16110.0 1.0175e-05
16130.0 1.0154e-05
16150.0 1.013e-05
16170.0 1.0106e-05
16190.0 1.0084e-05
16210.0 1.0061e-05
16230.0 1.0036e-05
16250.0 1.0013e-05
16270.0 9.9897e-06
16290.0 9.9649e-06
16310.0 9.9403e-06
16330.0 9.9165e-06
16350.0 9.8917e-06
16370.0 9.8653e-06
16390.0 9.8406e-06
16410.0 9.8157e-06
16430.0 9.7895e-06
16450.0 9.7634e-06
16470.0 9.7383e-06
16490.0 9.7116e-06
16510.0 9.6843e-06
16530.0 9.6578e-06
16550.0 9.6312e-06
16570.0 9.603e-06
16590.0 9.575e-06
16610.0 9.5482e-06
16630.0 9.5201e-06
16650.0 9.4913e-06
16670.0 9.4634e-06
16690.0 9.4353e-06
16710.0 9.4051e-06
16730.0 9.3758e-06
16750.0 9.347e-06
16770.0 9.3171e-06
16790.0 9.2864e-06
16810.0 9.2569e-06
16830.0 9.227e-06
16850.0 9.1957e-06
16870.0 9.1649e-06
16890.0 9.1346e-06
16910.0 9.1027e-06
16930.0 9.0702e-06
16950.0 9.0391e-06
16970.0 9.0073e-06
16990.0 8.9744e-06
17010.0 8.942e-06
17030.0 8.9103e-06
17050.0 8.8768e-06
17070.0 8.8432e-06
17090.0 8.8105e-06
17110.0 8.7771e-06
17130.0 8.7422e-06
17150.0 8.7083e-06
17170.0 8.6749e-06
17190.0 8.6402e-06
17210.0 8.6053e-06
17230.0 8.5713e-06
17250.0 8.5364e-06
17270.0 8.5003e-06
17290.0 8.4651e-06
17310.0 8.4301e-06
17330.0 8.3939e-06
17350.0 8.3573e-06
17370.0 8.3222e-06
17390.0 8.2861e-06
17410.0 8.249e-06
17430.0 8.2128e-06
17450.0 8.1769e-06
17470.0 8.1388e-06
17490.0 8.1014e-06
17510.0 8.0649e-06
17530.0 8.0276e-06
17550.0 7.9893e-06
17570.0 7.9521e-06
17590.0 7.9151e-06
17610.0 7.8765e-06
17630.0 7.8383e-06
17650.0 7.8009e-06
17670.0 7.7626e-06
17690.0 7.7228e-06
17710.0 7.685e-06
17730.0 7.6469e-06
17750.0 7.6077e-06
17770.0 7.5687e-06
17790.0 7.5309e-06
17810.0 7.4915e-06
17830.0 7.4517e-06
17850.0 7.413e-06
17870.0 7.3741e-06
17890.0 7.334e-06
17910.0 7.2943e-06
17930.0 7.2558e-06
17950.0 7.2161e-06
17970.0 7.1761e-06
17990.0 7.1371e-06
18010.0 7.0979e-06
18030.0 7.057e-06
18050.0 7.0172e-06
18070.0 6.978e-06
18090.0 6.9379e-06
18110.0 6.8974e-06
18130.0 6.8582e-06
18150.0 6.8186e-06
18170.0 6.7781e-06
18190.0 6.7382e-06
18210.0 6.699e-06
18230.0 6.6584e-06
18250.0 6.6176e-06
18270.0 6.5783e-06
18290.0 6.5385e-06
18310.0 6.4979e-06
18330.0 6.4581e-06
18350.0 6.419e-06
18370.0 6.3785e-06
18390.0 6.3382e-06
18410.0 6.2989e-06
18430.0 6.2591e-06
18450.0 6.2182e-06
18470.0 6.1786e-06
18490.0 6.1396e-06
18510.0 6.0995e-06
18530.0 6.0595e-06
18550.0 6.0207e-06
18570.0 5.981e-06
18590.0 5.9406e-06
18610.0 5.9014e-06
18630.0 5.8624e-06
18650.0 5.8225e-06
18670.0 5.7826e-06
18690.0 5.7443e-06
18710.0 5.7052e-06
18730.0 5.6655e-06
18750.0 5.6268e-06
18770.0 5.5886e-06
18790.0 5.5486e-06
18810.0 5.5095e-06
18830.0 5.4714e-06
18850.0 5.4328e-06
18870.0 5.3936e-06
18890.0 5.3556e-06
18910.0 5.3178e-06
18930.0 5.2789e-06
18950.0 5.2406e-06
18970.0 5.2031e-06
18990.0 5.165e-06
19010.0 5.1259e-06
19030.0 5.0888e-06
19050.0 5.0516e-06
19070.0 5.0135e-06
19090.0 4.976e-06
19110.0 4.9396e-06
19130.0 4.9018e-06
19150.0 4.8641e-06
19170.0 4.8275e-06
19190.0 4.7909e-06
19210.0 4.7534e-06
19230.0 4.7165e-06
19250.0 4.6808e-06
19270.0 4.6442e-06
19290.0 4.6075e-06
19310.0 4.5719e-06
19330.0 4.5362e-06
19350.0 4.4992e-06
19370.0 4.4634e-06
19390.0 4.4283e-06
19410.0 4.3924e-06
19430.0 4.3565e-06
19450.0 4.3219e-06
19470.0 4.287e-06
19490.0 4.2513e-06
19510.0 4.2166e-06
19530.0 4.1824e-06
19550.0 4.1472e-06
19570.0 4.112e-06
19590.0 4.0783e-06
19610.0 4.0442e-06
19630.0 4.0095e-06
19650.0 3.9758e-06
19670.0 3.9426e-06
19690.0 3.9084e-06
19710.0 3.8745e-06
19730.0 3.8415e-06
19750.0 3.8083e-06
19770.0 3.7742e-06
19790.0 3.7414e-06
19810.0 3.7091e-06
19830.0 3.6759e-06
19850.0 3.6428e-06
19870.0 3.6105e-06
19890.0 3.5769e-06
19910.0 3.5413e-06
19930.0 3.505e-06
19950.0 3.466e-06
19970.0 3.4216e-06
19990.0 3.3719e-06
20010.0 3.3852e-06
20030.0 3.3231e-06
20050.0 3.254e-06
20070.0 3.1821e-06
20090.0 3.1073e-06
20110.0 3.0259e-06
20130.0 2.9459e-06
20150.0 2.8686e-06
20170.0 2.7905e-06
20190.0 2.7131e-06
20210.0 2.6412e-06
20230.0 2.5723e-06
20250.0 2.5043e-06
20270.0 2.4418e-06
20290.0 2.3852e-06
20310.0 2.332e-06
20330.0 2.2827e-06
20350.0 2.2418e-06
20370.0 2.2057e-06
20390.0 2.1745e-06
20410.0 2.1496e-06
20430.0 2.1307e-06
20450.0 2.1165e-06
20470.0 2.108e-06
20490.0 2.1046e-06
20510.0 2.1057e-06
20530.0 2.1115e-06
20550.0 2.1211e-06
20570.0 2.1335e-06
20590.0 2.1496e-06
20610.0 2.1686e-06
20630.0 2.1889e-06
20650.0 2.2112e-06
20670.0 2.2365e-06
20690.0 2.2617e-06
20710.0 2.2872e-06
20730.0 2.3144e-06
20750.0 2.3423e-06
20770.0 2.3691e-06
20790.0 2.3967e-06
20810.0 2.4256e-06
20830.0 2.4537e-06
20850.0 2.4815e-06
20870.0 2.5112e-06
20890.0 2.5411e-06
20910.0 2.5697e-06
20930.0 2.5993e-06
20950.0 2.6301e-06
20970.0 2.6602e-06
20990.0 2.6899e-06
21010.0 2.7214e-06
21030.0 2.7524e-06
21050.0 2.7821e-06
21070.0 2.812e-06
21090.0 2.8424e-06
21110.0 2.8702e-06
21130.0 2.8966e-06
21150.0 2.9227e-06
21170.0 2.9469e-06
21190.0 2.9683e-06
21210.0 2.9885e-06
21230.0 3.0068e-06
21250.0 3.0216e-06
21270.0 3.0335e-06
21290.0 3.0428e-06
21310.0 3.0485e-06
21330.0 3.0503e-06
21350.0 3.0485e-06
21370.0 3.0424e-06
21390.0 3.032e-06
21410.0 3.0173e-06
21430.0 2.997e-06
21450.0 2.9722e-06
21470.0 2.9434e-06
21490.0 2.9093e-06
21510.0 2.8702e-06
21530.0 2.8286e-06
21550.0 2.7833e-06
21570.0 2.7332e-06
21590.0 2.6818e-06
21610.0 2.6301e-06
21630.0 2.5762e-06
21650.0 2.521e-06
21670.0 2.4704e-06
21690.0 2.4211e-06
21710.0 2.3733e-06
21730.0 2.3302e-06
21750.0 2.2926e-06
21770.0 2.2581e-06
21790.0 2.2296e-06
21810.0 2.2079e-06
21830.0 2.1921e-06
21850.0 2.1823e-06
21870.0 2.1793e-06
21890.0 2.1823e-06
21910.0 2.1914e-06
21930.0 2.2066e-06
21950.0 2.2264e-06
21970.0 2.2514e-06
21990.0 2.2827e-06
22010.0 2.3168e-06
22030.0 2.3538e-06
22050.0 2.3953e-06
22070.0 2.4395e-06
22090.0 2.4837e-06
22110.0 2.5304e-06
22130.0 2.5793e-06
22150.0 2.6271e-06
22170.0 2.6739e-06
22190.0 2.7221e-06
22210.0 2.7685e-06
22230.0 2.8107e-06
22250.0 2.8514e-06
22270.0 2.8898e-06
22290.0 2.9232e-06
22310.0 2.9524e-06
22330.0 2.9786e-06
22350.0 2.9991e-06
22370.0 3.0139e-06
22390.0 3.0235e-06
22410.0 3.0274e-06
22430.0 3.0252e-06
22450.0 3.0172e-06
22470.0 3.0028e-06
22490.0 2.9824e-06
22510.0 2.957e-06
22530.0 2.9247e-06
22550.0 2.8856e-06
22570.0 2.8426e-06
22590.0 2.7945e-06
22610.0 2.7396e-06
