#lamb flux
1010.0 5.1466e-05
1030.0 5.5405e-05
1050.0 6.2065e-05
1070.0 6.9556e-05
1090.0 7.751e-05
1110.0 8.5754e-05
1130.0 9.4107e-05
1150.0 0.00010288
1170.0 0.00011191
1190.0 0.00012034
1210.0 0.00012872
1230.0 0.00013713
1250.0 0.00014516
1270.0 0.00015257
1290.0 0.00016003
1310.0 0.00016704
1330.0 0.00017329
1350.0 0.00017926
1370.0 0.0001852
1390.0 0.00019073
1410.0 0.00019594
1430.0 0.00020153
1450.0 0.00020728
1470.0 0.00021304
1490.0 0.00021929
1510.0 0.00022646
1530.0 0.00023381
1550.0 0.00024176
1570.0 0.00025071
1590.0 0.00026049
1610.0 0.00027083
1630.0 0.0002825
1650.0 0.00029531
1670.0 0.00030878
1690.0 0.00032304
1710.0 0.00033845
1730.0 0.00035469
1750.0 0.00037105
1770.0 0.00038816
1790.0 0.00040581
1810.0 0.0004233
1830.0 0.00044055
1850.0 0.00045807
1870.0 0.00047478
1890.0 0.00049033
1910.0 0.00050501
1930.0 0.00051862
1950.0 0.00053023
1970.0 0.00054002
1990.0 0.00054833
2010.0 0.00055452
2030.0 0.00055838
2050.0 0.00056057
2070.0 0.00056108
2090.0 0.00055924
2110.0 0.00055575
2130.0 0.00055109
2150.0 0.00054504
2170.0 0.00053766
2190.0 0.00052989
2210.0 0.0005217
2230.0 0.00051299
2250.0 0.0005043
2270.0 0.00049617
2290.0 0.00048825
2310.0 0.00048068
2330.0 0.00047409
2350.0 0.00046845
2370.0 0.00046358
2390.0 0.00045993
2410.0 0.00045788
2430.0 0.00045711
2450.0 0.00045781
2470.0 0.00046056
2490.0 0.00046557
2510.0 0.00047247
2530.0 0.0004827
2550.0 0.00049824
2570.0 0.00052082
2590.0 0.00055304
2610.0 0.00060248
2630.0 0.0006713
2650.0 0.00075711
2670.0 0.000862
2690.0 0.00098357
2710.0 0.001107
2730.0 0.0012243
2750.0 0.0013355
2770.0 0.0014299
2790.0 0.0015055
2810.0 0.0015677
2830.0 0.0016209
2850.0 0.0016667
2870.0 0.0017114
2890.0 0.0017587
2910.0 0.0018099
2930.0 0.0018653
2950.0 0.0019267
2970.0 0.0019943
2990.0 0.002067
3010.0 0.0026421
3030.0 0.0027466
3050.0 0.0028572
3070.0 0.0029696
3090.0 0.0030837
3110.0 0.003193
3130.0 0.0032893
3150.0 0.0033715
3170.0 0.0034219
3190.0 0.0036483
3210.0 0.0045557
3230.0 0.0059978
3250.0 0.0066682
3270.0 0.0061413
3290.0 0.0052524
3310.0 0.0047836
3330.0 0.0045974
3350.0 0.0045909
3370.0 0.0046378
3390.0 0.0047113
3410.0 0.0047622
3430.0 0.0046333
3450.0 0.0046019
3470.0 0.0046072
3490.0 0.0050911
3510.0 0.0064153
3530.0 0.0077305
3550.0 0.0089659
3570.0 0.010336
3590.0 0.011098
3610.0 0.01113
3630.0 0.011016
3650.0 0.011368
3670.0 0.012684
3690.0 0.014841
3710.0 0.017002
3730.0 0.018647
3750.0 0.020021
3770.0 0.019912
3790.0 0.018663
3810.0 0.017237
3830.0 0.015609
3850.0 0.01463
3870.0 0.01472
3890.0 0.01626
3910.0 0.018441
3930.0 0.020746
3950.0 0.023246
3970.0 0.024816
3990.0 0.024468
4010.0 0.023084
4030.0 0.020461
4050.0 0.017944
4070.0 0.016646
4090.0 0.016471
4110.0 0.017159
4130.0 0.017425
4150.0 0.017516
4170.0 0.017859
4190.0 0.018626
4210.0 0.018649
4230.0 0.018806
4250.0 0.019098
4270.0 0.01967
4290.0 0.020366
4310.0 0.021082
4330.0 0.02097
4350.0 0.020084
4370.0 0.018763
4390.0 0.016996
4410.0 0.014968
4430.0 0.013638
4450.0 0.013221
4470.0 0.013551
4490.0 0.014521
4510.0 0.016468
4530.0 0.020086
4550.0 0.025585
4570.0 0.030375
4590.0 0.034723
4610.0 0.040004
4630.0 0.04372
4650.0 0.043405
4670.0 0.04007
4690.0 0.035511
4710.0 0.031065
4730.0 0.027099
4750.0 0.023629
4770.0 0.021265
4790.0 0.021354
4810.0 0.022618
4830.0 0.023516
4850.0 0.023939
4870.0 0.025161
4890.0 0.026604
4910.0 0.027957
4930.0 0.029471
4950.0 0.030566
4970.0 0.030146
4990.0 0.028028
5010.0 0.025039
5030.0 0.021996
5050.0 0.019769
5070.0 0.018356
5090.0 0.017504
5110.0 0.017334
5130.0 0.017364
5150.0 0.017481
5170.0 0.018266
5190.0 0.019819
5210.0 0.022041
5230.0 0.02419
5250.0 0.026393
5270.0 0.028723
5290.0 0.030715
5310.0 0.031935
5330.0 0.032378
5350.0 0.031994
5370.0 0.031338
5390.0 0.031235
5410.0 0.032025
5430.0 0.03355
5450.0 0.035545
5470.0 0.037225
5490.0 0.037703
5510.0 0.037177
5530.0 0.036212
5550.0 0.035016
5570.0 0.033547
5590.0 0.032088
5610.0 0.03066
5630.0 0.02907
5650.0 0.027018
5670.0 0.024708
5690.0 0.022776
5710.0 0.021338
5730.0 0.019972
5750.0 0.019096
5770.0 0.018806
5790.0 0.018656
5810.0 0.018238
5830.0 0.017788
5850.0 0.01726
5870.0 0.016407
5890.0 0.015643
5910.0 0.014913
5930.0 0.013662
5950.0 0.012094
5970.0 0.010621
5990.0 0.0094351
6010.0 0.0087276
6030.0 0.0084203
6050.0 0.0084525
6070.0 0.0088114
6090.0 0.0090571
6110.0 0.0090814
6130.0 0.0090848
6150.0 0.0091773
6170.0 0.0093037
6190.0 0.0093401
6210.0 0.0091743
6230.0 0.0086735
6250.0 0.0079917
6270.0 0.0073545
6290.0 0.0068688
6310.0 0.0068594
6330.0 0.0073443
6350.0 0.0079858
6370.0 0.0085199
6390.0 0.0091353
6410.0 0.0099388
6430.0 0.010561
6450.0 0.010922
6470.0 0.011218
6490.0 0.011491
6510.0 0.011647
6530.0 0.011715
6550.0 0.011834
6570.0 0.011788
6590.0 0.011536
6610.0 0.011188
6630.0 0.010752
6650.0 0.010171
6670.0 0.0095531
6690.0 0.0091148
6710.0 0.0088176
6730.0 0.0084939
6750.0 0.0082893
6770.0 0.0083545
6790.0 0.0084528
6810.0 0.0083786
6830.0 0.0082198
6850.0 0.0081453
6870.0 0.0080706
6890.0 0.0079086
6910.0 0.0078815
6930.0 0.0078922
6950.0 0.0078133
6970.0 0.0077006
6990.0 0.0075452
7010.0 0.0073369
7030.0 0.0070105
7050.0 0.0065155
7070.0 0.0060709
7090.0 0.0060105
7110.0 0.0062012
7130.0 0.006287
7150.0 0.0062643
7170.0 0.0063835
7190.0 0.0066642
7210.0 0.0068738
7230.0 0.0070396
7250.0 0.0072011
7270.0 0.0071037
7290.0 0.0068916
7310.0 0.006809
7330.0 0.0069618
7350.0 0.007229
7370.0 0.0074069
7390.0 0.0076037
7410.0 0.0079004
7430.0 0.0081142
7450.0 0.0081912
7470.0 0.0081414
7490.0 0.0077803
7510.0 0.007439
7530.0 0.007444
7550.0 0.0073942
7570.0 0.007333
7590.0 0.0074093
7610.0 0.0075345
7630.0 0.0077671
7650.0 0.008277
7670.0 0.0089328
7690.0 0.0095709
7710.0 0.010069
7730.0 0.010528
7750.0 0.010972
7770.0 0.011376
7790.0 0.011768
7810.0 0.011979
7830.0 0.0118
7850.0 0.011507
7870.0 0.011276
7890.0 0.011138
7910.0 0.011187
7930.0 0.011104
7950.0 0.010946
7970.0 0.010728
7990.0 0.010619
8010.0 0.01009
8030.0 0.01016
8050.0 0.010206
8070.0 0.010167
8090.0 0.010147
8110.0 0.010163
8130.0 0.010268
8150.0 0.010293
8170.0 0.010245
8190.0 0.010028
8210.0 0.0096305
8230.0 0.0092694
8250.0 0.0091571
8270.0 0.0088137
8290.0 0.0080259
8310.0 0.007181
8330.0 0.0066261
8350.0 0.0064487
8370.0 0.0068451
8390.0 0.0075659
8410.0 0.0081332
8430.0 0.0086395
8450.0 0.0093474
8470.0 0.010064
8490.0 0.010907
8510.0 0.011804
8530.0 0.012708
8550.0 0.013443
8570.0 0.014011
8590.0 0.014466
8610.0 0.014849
8630.0 0.014956
8650.0 0.014771
8670.0 0.014879
8690.0 0.015579
8710.0 0.016491
8730.0 0.016894
8750.0 0.016773
8770.0 0.016924
8790.0 0.017003
8810.0 0.016522
8830.0 0.015387
8850.0 0.013953
8870.0 0.0129
8890.0 0.012571
8910.0 0.012248
8930.0 0.011475
8950.0 0.010735
8970.0 0.010496
8990.0 0.010634
9010.0 0.010594
9030.0 0.010454
9050.0 0.010364
9070.0 0.010309
9090.0 0.010258
9110.0 0.010209
9130.0 0.01016
9150.0 0.010112
9170.0 0.010063
9190.0 0.010019
9210.0 0.0099806
9230.0 0.0099299
9250.0 0.0098817
9270.0 0.009835
9290.0 0.0097896
9310.0 0.0097448
9330.0 0.0097007
9350.0 0.0096577
9370.0 0.0096151
9390.0 0.0095727
9410.0 0.0095309
9430.0 0.0094877
9450.0 0.0094345
9470.0 0.0093853
9490.0 0.0093563
9510.0 0.009322
9530.0 0.009287
9550.0 0.0092499
9570.0 0.0092124
9590.0 0.0091753
9610.0 0.0091382
9630.0 0.0091006
9650.0 0.0090635
9670.0 0.0090277
9690.0 0.0089911
9710.0 0.0089548
9730.0 0.0089194
9750.0 0.0088841
9770.0 0.0088477
9790.0 0.0088126
9810.0 0.008778
9830.0 0.0087428
9850.0 0.0087068
9870.0 0.008673
9890.0 0.0086388
9910.0 0.0086039
9930.0 0.0085694
9950.0 0.0085208
9970.0 0.0084902
9990.0 0.0084583
10010.0 0.0084263
10030.0 0.0083931
10050.0 0.0083594
10070.0 0.0083259
10090.0 0.0082925
10110.0 0.0082545
10130.0 0.0082037
10150.0 0.0081712
10170.0 0.0081411
10190.0 0.0081067
10210.0 0.0080733
10230.0 0.0080395
10250.0 0.0080022
10270.0 0.0079645
10290.0 0.0079287
10310.0 0.0078901
10330.0 0.0078489
10350.0 0.0078105
10370.0 0.0077719
10390.0 0.0077302
10410.0 0.0076886
10430.0 0.0076495
10450.0 0.0076074
10470.0 0.0075635
10490.0 0.0075213
10510.0 0.0074789
10530.0 0.0074318
10550.0 0.0073859
10570.0 0.007342
10590.0 0.0072952
10610.0 0.0072465
10630.0 0.0072001
10650.0 0.0071526
10670.0 0.007101
10690.0 0.0070505
10710.0 0.007001
10730.0 0.0069484
10750.0 0.0068929
10770.0 0.0068412
10790.0 0.0067879
10810.0 0.0067312
10830.0 0.0066752
10850.0 0.0066208
10870.0 0.0065611
10890.0 0.0065008
10910.0 0.0064425
10930.0 0.0063828
10950.0 0.0063196
10970.0 0.0062576
10990.0 0.0061979
11010.0 0.0062935
11030.0 0.0062268
11050.0 0.0061638
11070.0 0.0061011
11090.0 0.0060354
11110.0 0.0059752
11130.0 0.0059174
11150.0 0.0058588
11170.0 0.0058018
11190.0 0.0057494
11210.0 0.0056973
11230.0 0.0056455
11250.0 0.0055977
11270.0 0.0055528
11290.0 0.0055079
11310.0 0.0054651
11330.0 0.0054268
11350.0 0.0053888
11370.0 0.005351
11390.0 0.0053151
11410.0 0.0052798
11430.0 0.0052417
11450.0 0.0052031
11470.0 0.0051638
11490.0 0.0051212
11510.0 0.0050743
11530.0 0.0050262
11550.0 0.0049752
11570.0 0.0049187
11590.0 0.0048593
11610.0 0.0047987
11630.0 0.0047329
11650.0 0.0046625
11670.0 0.0045926
11690.0 0.0045205
11710.0 0.0044438
11730.0 0.004366
11750.0 0.0042892
11770.0 0.0042079
11790.0 0.0041239
11810.0 0.0040409
11830.0 0.0039567
11850.0 0.0038671
11870.0 0.003779
11890.0 0.0036933
11910.0 0.003605
11930.0 0.0035164
11950.0 0.0034321
11970.0 0.0033488
11990.0 0.0032646
12010.0 0.0031852
12030.0 0.0031106
12050.0 0.0030374
12070.0 0.0029669
12090.0 0.0029044
12110.0 0.0028452
12130.0 0.0027892
12150.0 0.0027392
12170.0 0.0026951
12190.0 0.0026541
12210.0 0.002619
12230.0 0.0025903
12250.0 0.0025668
12270.0 0.0025485
12290.0 0.002536
12310.0 0.0025285
12330.0 0.0025257
12350.0 0.0025275
12370.0 0.0025326
12390.0 0.0025409
12410.0 0.002553
12430.0 0.002566
12450.0 0.0025799
12470.0 0.0025955
12490.0 0.0026115
12510.0 0.0026261
12530.0 0.0026409
12550.0 0.0026554
12570.0 0.0026677
12590.0 0.0026781
12610.0 0.0026872
12630.0 0.0026936
12650.0 0.0026961
12670.0 0.0026959
12690.0 0.002692
12710.0 0.002684
12730.0 0.0026722
12750.0 0.002656
12770.0 0.0026356
12790.0 0.0026116
12810.0 0.0025839
12830.0 0.0025523
12850.0 0.002519
12870.0 0.0024839
12890.0 0.0024464
12910.0 0.0024083
12930.0 0.0023708
12950.0 0.0023324
12970.0 0.002294
12990.0 0.0022578
13010.0 0.0022227
13030.0 0.002188
13050.0 0.0021551
13070.0 0.0021243
13090.0 0.002094
13110.0 0.0020648
13130.0 0.0020375
13150.0 0.0020114
13170.0 0.0019855
13190.0 0.0019615
13210.0 0.001939
13230.0 0.001917
13250.0 0.001896
13270.0 0.0018765
13290.0 0.0018577
13310.0 0.0018392
13330.0 0.0018217
13350.0 0.001805
13370.0 0.0017885
13390.0 0.001772
13410.0 0.0017564
13430.0 0.0017407
13450.0 0.0017246
13470.0 0.0017088
13490.0 0.0016931
13510.0 0.0016765
13530.0 0.0016599
13550.0 0.0016435
13570.0 0.0016267
13590.0 0.0016094
13610.0 0.0015923
13630.0 0.0015755
13650.0 0.0015581
13670.0 0.0015408
13690.0 0.001524
13710.0 0.0015071
13730.0 0.0014898
13750.0 0.0014734
13770.0 0.0014573
13790.0 0.001441
13810.0 0.0014251
13830.0 0.00141
13850.0 0.0013949
13870.0 0.0013799
13890.0 0.0013657
13910.0 0.0013521
13930.0 0.0013386
13950.0 0.0013257
13970.0 0.001314
13990.0 0.0013025
14010.0 0.0012914
14030.0 0.0012811
14050.0 0.0012714
14070.0 0.0012617
14090.0 0.0012526
14110.0 0.001244
14130.0 0.0012356
14150.0 0.0012273
14170.0 0.0012196
14190.0 0.0012121
14210.0 0.0012046
14230.0 0.0011975
14250.0 0.001191
14270.0 0.0011844
14290.0 0.0011781
14310.0 0.0011725
14330.0 0.0011671
14350.0 0.0011619
14370.0 0.0011571
14390.0 0.0011528
14410.0 0.0011485
14430.0 0.0011444
14450.0 0.0011407
14470.0 0.0011371
14490.0 0.0011334
14510.0 0.0011299
14530.0 0.0011266
14550.0 0.0011231
14570.0 0.0011196
14590.0 0.0011163
14610.0 0.001113
14630.0 0.0011095
14650.0 0.0011064
14670.0 0.0011037
14690.0 0.0011014
14710.0 0.0011
14730.0 0.0010998
14750.0 0.001101
14770.0 0.001104
14790.0 0.0011092
14810.0 0.0011168
14830.0 0.0011276
14850.0 0.0011414
14870.0 0.0011579
14890.0 0.0011774
14910.0 0.0011998
14930.0 0.0012232
14950.0 0.0012465
14970.0 0.0012701
14990.0 0.0012914
15010.0 0.0013094
15030.0 0.0013245
15050.0 0.0013367
15070.0 0.0013456
15090.0 0.0013524
15110.0 0.0013578
15130.0 0.0013624
15150.0 0.0013665
15170.0 0.0013704
15190.0 0.0013742
15210.0 0.0013781
15230.0 0.0013821
15250.0 0.0013861
15270.0 0.0013902
15290.0 0.0013944
15310.0 0.0013987
15330.0 0.001403
15350.0 0.0014074
15370.0 0.001412
15390.0 0.0014165
15410.0 0.0014212
15430.0 0.0014259
15450.0 0.0014308
15470.0 0.0014356
15490.0 0.0014406
15510.0 0.0014456
15530.0 0.0014507
15550.0 0.0014559
15570.0 0.0014612
15590.0 0.0014665
15610.0 0.0014718
15630.0 0.0014773
15650.0 0.0014828
15670.0 0.0014883
15690.0 0.001494
15710.0 0.0014996
15730.0 0.0015054
15750.0 0.0015112
15770.0 0.001517
15790.0 0.0015229
15810.0 0.0015288
15830.0 0.0015348
15850.0 0.0015409
15870.0 0.001547
15890.0 0.0015531
15910.0 0.0015593
15930.0 0.0015655
15950.0 0.0015718
15970.0 0.0015781
15990.0 0.0015844
16010.0 0.0015907
16030.0 0.0015971
16050.0 0.0016035
16070.0 0.00161
16090.0 0.0016165
16110.0 0.001623
16130.0 0.0016295
16150.0 0.001636
16170.0 0.0016426
16190.0 0.0016491
16210.0 0.0016557
16230.0 0.0016623
16250.0 0.0016689
16270.0 0.0016755
16290.0 0.0016821
16310.0 0.0016887
16330.0 0.0016953
16350.0 0.0017019
16370.0 0.0017085
16390.0 0.001715
16410.0 0.0017216
16430.0 0.0017282
16450.0 0.0017347
16470.0 0.0017412
16490.0 0.0017477
16510.0 0.0017542
16530.0 0.0017607
16550.0 0.0017671
16570.0 0.0017735
16590.0 0.0017798
16610.0 0.0017861
16630.0 0.0017924
16650.0 0.0017987
16670.0 0.0018049
16690.0 0.001811
16710.0 0.0018171
16730.0 0.0018231
16750.0 0.0018291
16770.0 0.0018351
16790.0 0.001841
16810.0 0.0018468
16830.0 0.0018525
16850.0 0.0018582
16870.0 0.0018638
16890.0 0.0018694
16910.0 0.0018749
16930.0 0.0018803
16950.0 0.0018856
16970.0 0.0018908
16990.0 0.001896
17010.0 0.001901
17030.0 0.001906
17050.0 0.0019109
17070.0 0.0019157
17090.0 0.0019204
17110.0 0.001925
17130.0 0.0019295
17150.0 0.0019339
17170.0 0.0019383
17190.0 0.0019425
17210.0 0.0019465
17230.0 0.0019505
17250.0 0.0019544
17270.0 0.0019582
17290.0 0.0019618
17310.0 0.0019653
17330.0 0.0019688
17350.0 0.001972
17370.0 0.0019752
17390.0 0.0019783
17410.0 0.0019812
17430.0 0.001984
17450.0 0.0019867
17470.0 0.0019892
17490.0 0.0019916
17510.0 0.0019939
17530.0 0.0019961
17550.0 0.0019981
17570.0 0.0019999
17590.0 0.0020017
17610.0 0.0020033
17630.0 0.0020048
17650.0 0.0020061
17670.0 0.0020073
17690.0 0.0020083
17710.0 0.0020093
17730.0 0.00201
17750.0 0.0020107
17770.0 0.0020111
17790.0 0.0020115
17810.0 0.0020117
17830.0 0.0020118
17850.0 0.0020117
17870.0 0.0020114
17890.0 0.0020111
17910.0 0.0020105
17930.0 0.0020099
17950.0 0.0020091
17970.0 0.0020081
17990.0 0.002007
18010.0 0.0020058
18030.0 0.0020044
18050.0 0.0020029
18070.0 0.0020012
18090.0 0.0019994
18110.0 0.0019974
18130.0 0.0019954
18150.0 0.0019931
18170.0 0.0019908
18190.0 0.0019882
18210.0 0.0019856
18230.0 0.0019828
18250.0 0.0019799
18270.0 0.0019768
18290.0 0.0019736
18310.0 0.0019703
18330.0 0.0019668
18350.0 0.0019632
18370.0 0.0019595
18390.0 0.0019557
18410.0 0.0019517
18430.0 0.0019476
18450.0 0.0019433
18470.0 0.001939
18490.0 0.0019345
18510.0 0.0019299
18530.0 0.0019252
18550.0 0.0019203
18570.0 0.0019154
18590.0 0.0019103
18610.0 0.0019051
18630.0 0.0018998
18650.0 0.0018944
18670.0 0.0018889
18690.0 0.0018832
18710.0 0.0018775
18730.0 0.0018717
18750.0 0.0018657
18770.0 0.0018597
18790.0 0.0018536
18810.0 0.0018473
18830.0 0.001841
18850.0 0.0018346
18870.0 0.0018281
18890.0 0.0018215
18910.0 0.0018148
18930.0 0.001808
18950.0 0.0018011
18970.0 0.0017942
18990.0 0.0017872
19010.0 0.0017801
19030.0 0.0017729
19050.0 0.0017657
19070.0 0.0017584
19090.0 0.001751
19110.0 0.0017435
19130.0 0.001736
19150.0 0.0017284
19170.0 0.0017208
19190.0 0.001713
19210.0 0.0017053
19230.0 0.0016975
19250.0 0.0016896
19270.0 0.0016817
19290.0 0.0016737
19310.0 0.0016656
19330.0 0.0016576
19350.0 0.0016494
19370.0 0.0016413
19390.0 0.0016331
19410.0 0.0016248
19430.0 0.0016166
19450.0 0.0016082
19470.0 0.0015999
19490.0 0.0015915
19510.0 0.0015831
19530.0 0.0015747
19550.0 0.0015662
19570.0 0.0015577
19590.0 0.0015492
19610.0 0.0015406
19630.0 0.0015321
19650.0 0.0015235
19670.0 0.0015149
19690.0 0.0015063
19710.0 0.0014977
19730.0 0.0014891
19750.0 0.0014804
19770.0 0.0014718
19790.0 0.0014631
19810.0 0.0014544
19830.0 0.0014457
19850.0 0.001437
19870.0 0.0014281
19890.0 0.0014189
19910.0 0.0014093
19930.0 0.0013988
19950.0 0.0013873
19970.0 0.001374
19990.0 0.0013586
20010.0 0.0013415
20030.0 0.0013218
20050.0 0.0012997
20070.0 0.0012765
20090.0 0.0012521
20110.0 0.001226
20130.0 0.0012001
20150.0 0.0011748
20170.0 0.0011493
20190.0 0.001124
20210.0 0.0011
20230.0 0.0010766
20250.0 0.0010534
20270.0 0.0010313
20290.0 0.0010105
20310.0 0.00099018
20330.0 0.00097049
20350.0 0.00095268
20370.0 0.00093572
20390.0 0.00091951
20410.0 0.00090455
20430.0 0.00089087
20450.0 0.0008778
20470.0 0.00086577
20490.0 0.00085491
20510.0 0.00084487
20530.0 0.00083554
20550.0 0.00082709
20570.0 0.0008194
20590.0 0.00081222
20610.0 0.00080559
20630.0 0.00079944
20650.0 0.00079364
20670.0 0.00078812
20690.0 0.00078281
20710.0 0.00077761
20730.0 0.00077246
20750.0 0.00076728
20770.0 0.00076201
20790.0 0.00075659
20810.0 0.00075097
20830.0 0.00074511
20850.0 0.00073901
20870.0 0.00073257
20890.0 0.00072581
20910.0 0.00071884
20930.0 0.00071154
20950.0 0.0007039
20970.0 0.00069608
20990.0 0.0006881
21010.0 0.00067975
21030.0 0.00067128
21050.0 0.00066281
21070.0 0.00065417
21090.0 0.00064533
21110.0 0.00063668
21130.0 0.00062807
21150.0 0.00061936
21170.0 0.00061076
21190.0 0.0006024
21210.0 0.000594
21230.0 0.00058564
21250.0 0.00057761
21270.0 0.00056975
21290.0 0.00056194
21310.0 0.00055435
21330.0 0.00054713
21350.0 0.00053999
21370.0 0.00053304
21390.0 0.00052642
21410.0 0.00052006
21430.0 0.00051379
21450.0 0.00050788
21470.0 0.00050229
21490.0 0.00049689
21510.0 0.00049174
21530.0 0.00048689
21550.0 0.00048227
21570.0 0.00047782
21590.0 0.00047362
21610.0 0.00046962
21630.0 0.00046577
21650.0 0.00046206
21670.0 0.0004585
21690.0 0.00045505
21710.0 0.00045167
21730.0 0.00044837
21750.0 0.00044513
21770.0 0.00044192
21790.0 0.00043874
21810.0 0.0004356
21830.0 0.00043248
21850.0 0.00042936
21870.0 0.00042627
21890.0 0.00042319
21910.0 0.00042011
21930.0 0.00041705
21950.0 0.00041399
21970.0 0.00041093
21990.0 0.00040785
22010.0 0.00040476
22030.0 0.00040167
22050.0 0.00039853
22070.0 0.00039535
22090.0 0.00039215
22110.0 0.00038889
22130.0 0.00038554
22150.0 0.00038215
22170.0 0.00037871
22190.0 0.00037514
22210.0 0.0003715
22230.0 0.00036785
22250.0 0.00036408
22270.0 0.00036021
22290.0 0.00035632
22310.0 0.00035237
22330.0 0.00034826
22350.0 0.00034411
22370.0 0.00033995
22390.0 0.00033568
22410.0 0.00033126
22430.0 0.0003269
22450.0 0.00032248
22470.0 0.00031792
22490.0 0.00031333
22510.0 0.00030879
22530.0 0.00030409
22550.0 0.00029932
22570.0 0.00029466
22590.0 0.00029
22610.0 0.00028526
22630.0 0.00028059
22650.0 0.0002761
22670.0 0.00027158
22690.0 0.00026711
22710.0 0.00026285
22730.0 0.00025871
22750.0 0.00025456
22770.0 0.00025066
22790.0 0.00024699
22810.0 0.0002434
22830.0 0.00023996
22850.0 0.00023678
22870.0 0.00023373
22890.0 0.00023078
22910.0 0.00022803
22930.0 0.00022546
22950.0 0.00022297
22970.0 0.00022058
22990.0 0.00021838
23010.0 0.00021625
23030.0 0.00021419
23050.0 0.00021222
23070.0 0.00021035
23090.0 0.00020848
23110.0 0.00020668
23130.0 0.00020495
23150.0 0.00020324
23170.0 0.00020155
23190.0 0.00019992
23210.0 0.00019833
23230.0 0.00019674
23250.0 0.00019517
23270.0 0.00019365
23290.0 0.00019213
23310.0 0.0001906
23330.0 0.00018912
23350.0 0.00018767
23370.0 0.0001862
23390.0 0.00018476
23410.0 0.00018337
23430.0 0.00018199
23450.0 0.00018063
23470.0 0.00017934
23490.0 0.0001781
23510.0 0.00017688
23530.0 0.00017574
23550.0 0.00017469
23570.0 0.0001737
23590.0 0.0001728
23610.0 0.000172
23630.0 0.00017131
23650.0 0.00017073
23670.0 0.00017028
23690.0 0.00016996
23710.0 0.00016979
23730.0 0.0001698
23750.0 0.00016995
23770.0 0.00017028
