#lamb flux
1010.0 0.00038788
1030.0 0.00050945
1050.0 0.00065425
1070.0 0.00082174
1090.0 0.0010148
1110.0 0.0012155
1130.0 0.0014165
1150.0 0.0016211
1170.0 0.0018219
1190.0 0.0019975
1210.0 0.0021562
1230.0 0.0022973
1250.0 0.0024073
1270.0 0.002483
1290.0 0.0025379
1310.0 0.0025617
1330.0 0.0025499
1350.0 0.0025146
1370.0 0.0024649
1390.0 0.0023906
1410.0 0.0022965
1430.0 0.0021947
1450.0 0.0020841
1470.0 0.0019659
1490.0 0.0018476
1510.0 0.0017327
1530.0 0.0016157
1550.0 0.0015042
1570.0 0.0014015
1590.0 0.0013075
1610.0 0.0012224
1630.0 0.0011471
1650.0 0.0010807
1670.0 0.0010208
1690.0 0.00096808
1710.0 0.00092335
1730.0 0.00088459
1750.0 0.00084558
1770.0 0.00081185
1790.0 0.00078261
1810.0 0.00075643
1830.0 0.00073304
1850.0 0.00070914
1870.0 0.0006881
1890.0 0.0006689
1910.0 0.00065224
1930.0 0.00063811
1950.0 0.00062562
1970.0 0.00061549
1990.0 0.0006086
2010.0 0.00060468
2030.0 0.0006041
2050.0 0.00060829
2070.0 0.00061798
2090.0 0.00063319
2110.0 0.00065557
2130.0 0.00068663
2150.0 0.00072705
2170.0 0.00077773
2190.0 0.00084094
2210.0 0.00091762
2230.0 0.0010082
2250.0 0.0011143
2270.0 0.0012376
2290.0 0.0013777
2310.0 0.0015346
2330.0 0.00171
2350.0 0.0019033
2370.0 0.0021127
2390.0 0.0023382
2410.0 0.0025793
2430.0 0.0028309
2450.0 0.0030896
2470.0 0.0033525
2490.0 0.0036143
2510.0 0.0038703
2530.0 0.0041223
2550.0 0.0043775
2570.0 0.0046514
2590.0 0.0049677
2610.0 0.0053784
2630.0 0.005933
2650.0 0.0066579
2670.0 0.0076121
2690.0 0.0088513
2710.0 0.010316
2730.0 0.011962
2750.0 0.013837
2770.0 0.015795
2790.0 0.01769
2810.0 0.019516
2830.0 0.02125
2850.0 0.0227
2870.0 0.023947
2890.0 0.025059
2910.0 0.026031
2930.0 0.026872
2950.0 0.027674
2970.0 0.028446
2990.0 0.029162
3010.0 0.029846
3030.0 0.030533
3050.0 0.031197
3070.0 0.031793
3090.0 0.032369
3110.0 0.0329
3130.0 0.033338
3150.0 0.033689
3170.0 0.033966
3190.0 0.034145
3210.0 0.034263
3230.0 0.034375
3250.0 0.034522
3270.0 0.034724
3290.0 0.035024
3310.0 0.035457
3330.0 0.035971
3350.0 0.036522
3370.0 0.037116
3390.0 0.03772
3410.0 0.038262
3430.0 0.038748
3450.0 0.039127
3470.0 0.040625
3490.0 0.040231
3510.0 0.036373
3530.0 0.039213
3550.0 0.045341
3570.0 0.049968
3590.0 0.056255
3610.0 0.059974
3630.0 0.062744
3650.0 0.056732
3670.0 0.049639
3690.0 0.047698
3710.0 0.052244
3730.0 0.060531
3750.0 0.062126
3770.0 0.062628
3790.0 0.064489
3810.0 0.060298
3830.0 0.05378
3850.0 0.048578
3870.0 0.045376
3890.0 0.050461
3910.0 0.054821
3930.0 0.05618
3950.0 0.056919
3970.0 0.059358
3990.0 0.062818
4010.0 0.063443
4030.0 0.060274
4050.0 0.054636
4070.0 0.053962
4090.0 0.056797
4110.0 0.06018
4130.0 0.058502
4150.0 0.056896
4170.0 0.056257
4190.0 0.058966
4210.0 0.058525
4230.0 0.054168
4250.0 0.048445
4270.0 0.0435
4290.0 0.039564
4310.0 0.036863
4330.0 0.036191
4350.0 0.039645
4370.0 0.040721
4390.0 0.041975
4410.0 0.044154
4430.0 0.045257
4450.0 0.044222
4470.0 0.043062
4490.0 0.044175
4510.0 0.045157
4530.0 0.046187
4550.0 0.047013
4570.0 0.047181
4590.0 0.048667
4610.0 0.049449
4630.0 0.05106
4650.0 0.052633
4670.0 0.051599
4690.0 0.048295
4710.0 0.043943
4730.0 0.042023
4750.0 0.041612
4770.0 0.040112
4790.0 0.038273
4810.0 0.036987
4830.0 0.037736
4850.0 0.037937
4870.0 0.037525
4890.0 0.036325
4910.0 0.033471
4930.0 0.033916
4950.0 0.031604
4970.0 0.028727
4990.0 0.028037
5010.0 0.026164
5030.0 0.024563
5050.0 0.024573
5070.0 0.026643
5090.0 0.027665
5110.0 0.030683
5130.0 0.031612
5150.0 0.032599
5170.0 0.033626
5190.0 0.033055
5210.0 0.033164
5230.0 0.03381
5250.0 0.033919
5270.0 0.034749
5290.0 0.034479
5310.0 0.033825
5330.0 0.032079
5350.0 0.03037
5370.0 0.028476
5390.0 0.028852
5410.0 0.029424
5430.0 0.029376
5450.0 0.029603
5470.0 0.029327
5490.0 0.028876
5510.0 0.028587
5530.0 0.027943
5550.0 0.02804
5570.0 0.028367
5590.0 0.028742
5610.0 0.028467
5630.0 0.027824
5650.0 0.027495
5670.0 0.026917
5690.0 0.026122
5710.0 0.025291
5730.0 0.024931
5750.0 0.024858
5770.0 0.024382
5790.0 0.023895
5810.0 0.023736
5830.0 0.024178
5850.0 0.024563
5870.0 0.024567
5890.0 0.024235
5910.0 0.024198
5930.0 0.024297
5950.0 0.024202
5970.0 0.023916
5990.0 0.023548
6010.0 0.023993
6030.0 0.024111
6050.0 0.023573
6070.0 0.023617
6090.0 0.023533
6110.0 0.023586
6130.0 0.023573
6150.0 0.022869
6170.0 0.021181
6190.0 0.019575
6210.0 0.018865
6230.0 0.018566
6250.0 0.018676
6270.0 0.01938
6290.0 0.019952
6310.0 0.020628
6330.0 0.021223
6350.0 0.021536
6370.0 0.021555
6390.0 0.021023
6410.0 0.020579
6430.0 0.019965
6450.0 0.019467
6470.0 0.019182
6490.0 0.019211
6510.0 0.019199
6530.0 0.019162
6550.0 0.018763
6570.0 0.01843
6590.0 0.018307
6610.0 0.017888
6630.0 0.017639
6650.0 0.017335
6670.0 0.016796
6690.0 0.016261
6710.0 0.015835
6730.0 0.01567
6750.0 0.015422
6770.0 0.015261
6790.0 0.015272
6810.0 0.015018
6830.0 0.014844
6850.0 0.014687
6870.0 0.01434
6890.0 0.01426
6910.0 0.014141
6930.0 0.013869
6950.0 0.013869
6970.0 0.013693
6990.0 0.013692
7010.0 0.013464
7030.0 0.013343
7050.0 0.013263
7070.0 0.013008
7090.0 0.012636
7110.0 0.012304
7130.0 0.012312
7150.0 0.012474
7170.0 0.012566
7190.0 0.012779
7210.0 0.012912
7230.0 0.013058
7250.0 0.013191
7270.0 0.012934
7290.0 0.012843
7310.0 0.012587
7330.0 0.012088
7350.0 0.011847
7370.0 0.011684
7390.0 0.011526
7410.0 0.011609
7430.0 0.011533
7450.0 0.011339
7470.0 0.011132
7490.0 0.010755
7510.0 0.010097
7530.0 0.010363
7550.0 0.010454
7570.0 0.010275
7590.0 0.0095426
7610.0 0.0097464
7630.0 0.0096808
7650.0 0.0097349
7670.0 0.0097299
7690.0 0.0099443
7710.0 0.0098374
7730.0 0.010233
7750.0 0.010464
7770.0 0.010937
7790.0 0.011351
7810.0 0.011622
7830.0 0.012069
7850.0 0.012015
7870.0 0.012211
7890.0 0.012033
7910.0 0.011642
7930.0 0.011482
7950.0 0.011362
7970.0 0.011263
7990.0 0.011281
8010.0 0.010274
8030.0 0.010212
8050.0 0.010007
8070.0 0.0099113
8090.0 0.0096118
8110.0 0.0096848
8130.0 0.0098218
8150.0 0.010004
8170.0 0.0099111
8190.0 0.010076
8210.0 0.0099448
8230.0 0.0094528
8250.0 0.009303
8270.0 0.0091402
8290.0 0.0089827
8310.0 0.0086355
8330.0 0.0087326
8350.0 0.0087
8370.0 0.0087181
8390.0 0.0088695
8410.0 0.0088108
8430.0 0.0089164
8450.0 0.0090178
8470.0 0.0090951
8490.0 0.0092098
8510.0 0.0090402
8530.0 0.0087124
8550.0 0.008782
8570.0 0.0087842
8590.0 0.0085115
8610.0 0.0086909
8630.0 0.0085672
8650.0 0.0084007
8670.0 0.0083437
8690.0 0.0083246
8710.0 0.0079794
8730.0 0.0081066
8750.0 0.0078355
8770.0 0.0078043
8790.0 0.0075819
8810.0 0.0074859
8830.0 0.0074925
8850.0 0.0071713
8870.0 0.0068133
8890.0 0.0067257
8910.0 0.0063451
8930.0 0.0058611
8950.0 0.0058597
8970.0 0.0056512
8990.0 0.0056077
9010.0 0.0055541
9030.0 0.0055152
9050.0 0.0054761
9070.0 0.0054367
9090.0 0.0053971
9110.0 0.0053569
9130.0 0.0053168
9150.0 0.005277
9170.0 0.005237
9190.0 0.0051969
9210.0 0.0051566
9230.0 0.0051162
9250.0 0.0050758
9270.0 0.0050354
9290.0 0.0049949
9310.0 0.0049546
9330.0 0.0049143
9350.0 0.004874
9370.0 0.0048338
9390.0 0.0047937
9410.0 0.0047536
9430.0 0.0047137
9450.0 0.004674
9470.0 0.0046373
9490.0 0.0045993
9510.0 0.0045583
9530.0 0.0045179
9550.0 0.0044784
9570.0 0.0044393
9590.0 0.0044005
9610.0 0.0043622
9630.0 0.0043242
9650.0 0.0042865
9670.0 0.0042489
9690.0 0.0042117
9710.0 0.0041749
9730.0 0.0041382
9750.0 0.0041018
9770.0 0.004066
9790.0 0.0040303
9810.0 0.0039948
9830.0 0.0039592
9850.0 0.003919
9870.0 0.0038834
9890.0 0.0038523
9910.0 0.0038208
9930.0 0.0037823
9950.0 0.0037494
9970.0 0.0037196
9990.0 0.0036889
10010.0 0.0036582
10030.0 0.0036273
10050.0 0.0035964
10070.0 0.0035661
10090.0 0.0035362
10110.0 0.0035059
10130.0 0.0034759
10150.0 0.0034469
10170.0 0.0034181
10190.0 0.0033892
10210.0 0.0033612
10230.0 0.0033338
10250.0 0.0033061
10270.0 0.003279
10290.0 0.0032527
10310.0 0.0032264
10330.0 0.0032
10350.0 0.0031746
10370.0 0.0031496
10390.0 0.0031244
10410.0 0.0030995
10430.0 0.0030754
10450.0 0.0030519
10470.0 0.0030284
10490.0 0.0030056
10510.0 0.0029832
10530.0 0.0029603
10550.0 0.0029381
10570.0 0.0029168
10590.0 0.0028953
10610.0 0.002874
10630.0 0.0028535
10650.0 0.0028333
10670.0 0.0028128
10690.0 0.002793
10710.0 0.0027738
10730.0 0.0027545
10750.0 0.0027351
10770.0 0.0027168
10790.0 0.0026987
10810.0 0.0026804
10830.0 0.0026627
10850.0 0.0026457
10870.0 0.0026282
10890.0 0.0026111
10910.0 0.002595
10930.0 0.0025791
10950.0 0.0025634
10970.0 0.0025486
10990.0 0.0025349
11010.0 0.002705
11030.0 0.0026947
11050.0 0.0026846
11070.0 0.0026741
11090.0 0.0026623
11110.0 0.0026502
11130.0 0.0026376
11150.0 0.0026236
11170.0 0.0026089
11190.0 0.0025942
11210.0 0.0025788
11230.0 0.0025626
11250.0 0.0025469
11270.0 0.0025317
11290.0 0.0025161
11310.0 0.0025009
11330.0 0.0024873
11350.0 0.002474
11370.0 0.0024611
11390.0 0.0024495
11410.0 0.0024386
11430.0 0.0024276
11450.0 0.0024173
11470.0 0.0024076
11490.0 0.0023977
11510.0 0.0023873
11530.0 0.0023772
11550.0 0.002367
11570.0 0.0023558
11590.0 0.0023443
11610.0 0.0023329
11630.0 0.0023205
11650.0 0.0023074
11670.0 0.0022948
11690.0 0.0022821
11710.0 0.0022688
11730.0 0.0022558
11750.0 0.0022437
11770.0 0.0022311
11790.0 0.0022185
11810.0 0.0022068
11830.0 0.0021954
11850.0 0.0021834
11870.0 0.0021723
11890.0 0.0021621
11910.0 0.0021518
11930.0 0.0021419
11950.0 0.0021332
11970.0 0.0021251
11990.0 0.0021174
12010.0 0.0021111
12030.0 0.0021062
12050.0 0.0021021
12070.0 0.0020993
12090.0 0.0020983
12110.0 0.0020985
12130.0 0.0020999
12150.0 0.0021027
12170.0 0.0021066
12190.0 0.0021115
12210.0 0.0021173
12230.0 0.0021238
12250.0 0.0021307
12270.0 0.002138
12290.0 0.0021454
12310.0 0.0021527
12330.0 0.0021599
12350.0 0.0021668
12370.0 0.0021732
12390.0 0.002179
12410.0 0.002184
12430.0 0.0021881
12450.0 0.0021912
12470.0 0.0021931
12490.0 0.0021936
12510.0 0.0021929
12530.0 0.0021907
12550.0 0.0021865
12570.0 0.002181
12590.0 0.0021741
12610.0 0.0021649
12630.0 0.0021541
12650.0 0.0021427
12670.0 0.0021294
12690.0 0.0021146
12710.0 0.0020993
12730.0 0.0020834
12750.0 0.0020656
12770.0 0.0020478
12790.0 0.0020303
12810.0 0.0020123
12830.0 0.0019937
12850.0 0.0019763
12870.0 0.0019595
12890.0 0.0019424
12910.0 0.0019263
12930.0 0.0019115
12950.0 0.0018968
12970.0 0.0018826
12990.0 0.00187
13010.0 0.0018581
13030.0 0.0018465
13050.0 0.0018358
13070.0 0.001826
13090.0 0.0018163
13110.0 0.001807
13130.0 0.0017983
13150.0 0.00179
13170.0 0.0017814
13190.0 0.0017734
13210.0 0.0017658
13230.0 0.0017581
13250.0 0.0017504
13270.0 0.0017432
13290.0 0.0017358
13310.0 0.0017281
13330.0 0.0017205
13350.0 0.0017128
13370.0 0.0017046
13390.0 0.0016959
13410.0 0.0016873
13430.0 0.0016781
13450.0 0.0016681
13470.0 0.001658
13490.0 0.0016476
13510.0 0.0016361
13530.0 0.0016244
13550.0 0.0016126
13570.0 0.0016004
13590.0 0.0015875
13610.0 0.0015746
13630.0 0.0015618
13650.0 0.0015483
13670.0 0.0015346
13690.0 0.0015211
13710.0 0.0015073
13730.0 0.0014927
13750.0 0.0014787
13770.0 0.0014647
13790.0 0.0014502
13810.0 0.0014357
13830.0 0.0014217
13850.0 0.0014074
13870.0 0.0013928
13890.0 0.0013788
13910.0 0.001365
13930.0 0.0013509
13950.0 0.001337
13970.0 0.001324
13990.0 0.0013108
14010.0 0.0012976
14030.0 0.0012851
14050.0 0.0012728
14070.0 0.0012601
14090.0 0.0012479
14110.0 0.0012361
14130.0 0.0012242
14150.0 0.0012122
14170.0 0.0012008
14190.0 0.0011895
14210.0 0.0011779
14230.0 0.0011666
14250.0 0.0011557
14270.0 0.0011446
14290.0 0.0011335
14310.0 0.0011231
14330.0 0.0011128
14350.0 0.0011026
14370.0 0.0010928
14390.0 0.0010835
14410.0 0.0010742
14430.0 0.0010653
14450.0 0.0010568
14470.0 0.0010486
14490.0 0.0010403
14510.0 0.0010325
14530.0 0.0010249
14550.0 0.0010173
14570.0 0.0010098
14590.0 0.0010026
14610.0 0.00099535
14630.0 0.00098798
14650.0 0.0009808
14670.0 0.00097374
14690.0 0.00096657
14710.0 0.00095939
14730.0 0.00095254
14750.0 0.00094566
14770.0 0.00093875
14790.0 0.00093204
14810.0 0.0009255
14830.0 0.0009188
14850.0 0.00091225
14870.0 0.00090592
14890.0 0.0008996
14910.0 0.00089326
14930.0 0.00088715
14950.0 0.00088125
14970.0 0.00087536
14990.0 0.00086972
15010.0 0.0008644
15030.0 0.00085925
15050.0 0.0008542
15070.0 0.00084947
15090.0 0.00084488
15110.0 0.00084032
15130.0 0.00083584
15150.0 0.00083149
15170.0 0.00082709
15190.0 0.00082269
15210.0 0.00081838
15230.0 0.0008141
15250.0 0.00080976
15270.0 0.00080546
15290.0 0.00080128
15310.0 0.00079706
15330.0 0.00079283
15350.0 0.00078869
15370.0 0.00078459
15390.0 0.0007804
15410.0 0.0007763
15430.0 0.00077227
15450.0 0.00076822
15470.0 0.00076415
15490.0 0.0007602
15510.0 0.00075628
15530.0 0.00075231
15550.0 0.00074841
15570.0 0.00074458
15590.0 0.00074071
15610.0 0.00073683
15630.0 0.00073308
15650.0 0.00072935
15670.0 0.00072558
15690.0 0.00072188
15710.0 0.00071827
15730.0 0.00071461
15750.0 0.00071097
15770.0 0.00070743
15790.0 0.0007039
15810.0 0.00070032
15830.0 0.00069684
15850.0 0.00069343
15870.0 0.00068999
15890.0 0.00068658
15910.0 0.00068327
15930.0 0.00067995
15950.0 0.0006766
15970.0 0.00067334
15990.0 0.00067014
16010.0 0.00066691
16030.0 0.00066369
16050.0 0.00066061
16070.0 0.00065751
16090.0 0.00065439
16110.0 0.00065136
16130.0 0.00064839
16150.0 0.00064535
16170.0 0.00064236
16190.0 0.00063948
16210.0 0.00063658
16230.0 0.00063368
16250.0 0.00063086
16270.0 0.0006281
16290.0 0.00062529
16310.0 0.00062253
16330.0 0.00061985
16350.0 0.00061716
16370.0 0.00061443
16390.0 0.00061183
16410.0 0.00060926
16430.0 0.00060666
16450.0 0.0006041
16470.0 0.00060164
16490.0 0.00059914
16510.0 0.00059664
16530.0 0.00059422
16550.0 0.00059184
16570.0 0.00058941
16590.0 0.00058704
16610.0 0.00058476
16630.0 0.00058245
16650.0 0.00058015
16670.0 0.00057793
16690.0 0.00057573
16710.0 0.00057347
16730.0 0.00057129
16750.0 0.00056917
16770.0 0.00056703
16790.0 0.00056489
16810.0 0.00056284
16830.0 0.00056081
16850.0 0.00055874
16870.0 0.00055673
16890.0 0.00055478
16910.0 0.00055278
16930.0 0.00055079
16950.0 0.0005489
16970.0 0.000547
16990.0 0.00054509
17010.0 0.00054323
17030.0 0.00054143
17050.0 0.00053958
17070.0 0.00053775
17090.0 0.00053599
17110.0 0.00053423
17130.0 0.00053242
17150.0 0.0005307
17170.0 0.00052902
17190.0 0.00052731
17210.0 0.00052561
17230.0 0.00052399
17250.0 0.00052234
17270.0 0.00052066
17290.0 0.00051905
17310.0 0.00051748
17330.0 0.00051586
17350.0 0.00051426
17370.0 0.00051275
17390.0 0.00051121
17410.0 0.00050965
17430.0 0.00050814
17450.0 0.00050668
17470.0 0.00050513
17490.0 0.00050363
17510.0 0.00050219
17530.0 0.00050074
17550.0 0.00049925
17570.0 0.00049784
17590.0 0.00049645
17610.0 0.000495
17630.0 0.00049358
17650.0 0.00049222
17670.0 0.00049083
17690.0 0.00048938
17710.0 0.00048804
17730.0 0.0004867
17750.0 0.00048532
17770.0 0.00048396
17790.0 0.00048267
17810.0 0.00048132
17830.0 0.00047995
17850.0 0.00047865
17870.0 0.00047735
17890.0 0.000476
17910.0 0.00047467
17930.0 0.00047342
17950.0 0.00047211
17970.0 0.00047079
17990.0 0.00046953
18010.0 0.00046827
18030.0 0.00046692
18050.0 0.00046564
18070.0 0.0004644
18090.0 0.0004631
18110.0 0.00046179
18130.0 0.00046056
18150.0 0.00045931
18170.0 0.000458
18190.0 0.00045673
18210.0 0.0004555
18230.0 0.0004542
18250.0 0.00045288
18270.0 0.00045165
18290.0 0.00045039
18310.0 0.00044908
18330.0 0.00044782
18350.0 0.00044659
18370.0 0.00044528
18390.0 0.00044398
18410.0 0.00044273
18430.0 0.00044145
18450.0 0.0004401
18470.0 0.00043882
18490.0 0.00043756
18510.0 0.00043625
18530.0 0.00043493
18550.0 0.00043367
18570.0 0.00043235
18590.0 0.00043099
18610.0 0.00042968
18630.0 0.00042838
18650.0 0.00042702
18670.0 0.00042565
18690.0 0.00042437
18710.0 0.00042302
18730.0 0.00042163
18750.0 0.00042029
18770.0 0.00041897
18790.0 0.00041753
18810.0 0.00041613
18830.0 0.00041478
18850.0 0.00041339
18870.0 0.00041195
18890.0 0.00041057
18910.0 0.00040918
18930.0 0.00040772
18950.0 0.00040628
18970.0 0.00040487
18990.0 0.00040342
19010.0 0.00040189
19030.0 0.00040046
19050.0 0.00039901
19070.0 0.00039749
19090.0 0.000396
19110.0 0.00039455
19130.0 0.00039301
19150.0 0.00039145
19170.0 0.00038994
19190.0 0.00038842
19210.0 0.00038682
19230.0 0.00038525
19250.0 0.00038374
19270.0 0.00038214
19290.0 0.00038053
19310.0 0.00037897
19330.0 0.00037738
19350.0 0.00037569
19370.0 0.00037407
19390.0 0.00037246
19410.0 0.0003708
19430.0 0.0003691
19450.0 0.00036748
19470.0 0.00036581
19490.0 0.00036408
19510.0 0.00036239
19530.0 0.00036072
19550.0 0.00035896
19570.0 0.00035719
19590.0 0.00035549
19610.0 0.00035374
19630.0 0.00035195
19650.0 0.00035019
19670.0 0.00034845
19690.0 0.00034662
19710.0 0.0003448
19730.0 0.00034302
19750.0 0.0003412
19770.0 0.00033931
19790.0 0.00033749
19810.0 0.00033568
19830.0 0.00033379
19850.0 0.00033191
19870.0 0.00033008
19890.0 0.0003282
19910.0 0.00032627
19930.0 0.00032441
19950.0 0.00032257
19970.0 0.0003207
19990.0 0.00031887
20010.0 0.00031714
20030.0 0.0003154
20050.0 0.00031366
20070.0 0.00031199
20090.0 0.00031035
20110.0 0.00030863
20130.0 0.00030695
20150.0 0.00030532
20170.0 0.00030364
20190.0 0.00030193
20210.0 0.00030028
20230.0 0.00029862
20250.0 0.00029692
20270.0 0.00029525
20290.0 0.00029364
20310.0 0.000292
20330.0 0.00029036
20350.0 0.00028882
20370.0 0.0002873
20390.0 0.00028579
20410.0 0.00028434
20430.0 0.00028297
20450.0 0.00028159
20470.0 0.00028027
20490.0 0.00027903
20510.0 0.00027785
20530.0 0.0002767
20550.0 0.00027564
20570.0 0.00027465
20590.0 0.00027372
20610.0 0.00027287
20630.0 0.00027209
20650.0 0.00027139
20670.0 0.00027075
20690.0 0.00027019
20710.0 0.00026969
20730.0 0.00026924
20750.0 0.00026883
20770.0 0.00026844
20790.0 0.00026807
20810.0 0.00026771
20830.0 0.00026733
20850.0 0.0002669
20870.0 0.00026644
20890.0 0.0002659
20910.0 0.00026528
20930.0 0.00026457
20950.0 0.00026375
20970.0 0.00026282
20990.0 0.00026178
21010.0 0.0002606
21030.0 0.0002593
21050.0 0.0002579
21070.0 0.00025638
21090.0 0.00025472
21110.0 0.000253
21130.0 0.00025121
21150.0 0.00024931
21170.0 0.00024735
21190.0 0.00024539
21210.0 0.00024335
21230.0 0.00024126
21250.0 0.00023921
21270.0 0.00023716
21290.0 0.00023506
21310.0 0.00023298
21330.0 0.00023096
21350.0 0.0002289
21370.0 0.00022683
21390.0 0.00022481
21410.0 0.00022278
21430.0 0.00022069
21450.0 0.00021862
21470.0 0.00021657
21490.0 0.00021448
21510.0 0.00021234
21530.0 0.00021023
21550.0 0.0002081
21570.0 0.0002059
21590.0 0.0002037
21610.0 0.00020153
21630.0 0.0001993
21650.0 0.00019703
21670.0 0.00019485
21690.0 0.00019265
21710.0 0.00019043
21730.0 0.00018825
21750.0 0.00018613
21770.0 0.00018396
21790.0 0.00018183
21810.0 0.00017977
21830.0 0.00017774
21850.0 0.00017569
21870.0 0.00017371
21890.0 0.0001718
21910.0 0.00016987
21930.0 0.00016797
21950.0 0.00016613
21970.0 0.00016429
21990.0 0.00016242
22010.0 0.00016061
22030.0 0.00015883
22050.0 0.00015702
22070.0 0.00015521
22090.0 0.00015344
22110.0 0.00015165
22130.0 0.00014982
22150.0 0.00014802
22170.0 0.00014623
22190.0 0.00014438
22210.0 0.00014254
22230.0 0.00014074
22250.0 0.00013892
22270.0 0.00013707
22290.0 0.00013526
22310.0 0.00013348
22330.0 0.00013165
22350.0 0.00012984
22370.0 0.0001281
22390.0 0.00012634
22410.0 0.00012458
22430.0 0.00012289
22450.0 0.00012125
22470.0 0.00011959
22490.0 0.00011799
22510.0 0.00011645
22530.0 0.00011492
22550.0 0.00011341
22570.0 0.00011199
22590.0 0.00011061
22610.0 0.00010924
22630.0 0.00010793
22650.0 0.00010669
22670.0 0.00010546
22690.0 0.00010426
22710.0 0.00010312
22730.0 0.00010201
22750.0 0.0001009
22770.0 9.9851e-05
22790.0 9.8849e-05
22810.0 9.7861e-05
22830.0 9.69e-05
22850.0 9.5995e-05
22870.0 9.5118e-05
22890.0 9.4259e-05
22910.0 9.3451e-05
22930.0 9.2691e-05
22950.0 9.196e-05
22970.0 9.1267e-05
22990.0 9.064e-05
23010.0 9.0054e-05
23030.0 8.951e-05
23050.0 8.9022e-05
23070.0 8.8588e-05
23090.0 8.82e-05
23110.0 8.787e-05
23130.0 8.7593e-05
23150.0 8.7369e-05
23170.0 8.7201e-05
23190.0 8.7081e-05
23210.0 8.7003e-05
23230.0 8.6978e-05
23250.0 8.6993e-05
23270.0 8.7032e-05
23290.0 8.7105e-05
23310.0 8.7214e-05
23330.0 8.7321e-05
23350.0 8.7429e-05
23370.0 8.7546e-05
23390.0 8.7653e-05
23410.0 8.7734e-05
23430.0 8.7798e-05
23450.0 8.8055e-05
23470.0 8.8332e-05
23490.0 8.8597e-05
23510.0 8.8857e-05
23530.0 8.9113e-05
23550.0 8.9367e-05
23570.0 8.9633e-05
23590.0 8.9918e-05
