#lamb flux
1010.0 1.7468e-11
1030.0 2.1969e-11
1050.0 2.7145e-11
1070.0 3.2969e-11
1090.0 3.9583e-11
1110.0 4.6365e-11
1130.0 5.3187e-11
1150.0 6.0331e-11
1170.0 6.7697e-11
1190.0 7.4678e-11
1210.0 8.1752e-11
1230.0 8.906e-11
1250.0 9.6218e-11
1270.0 1.0317e-10
1290.0 1.1052e-10
1310.0 1.1786e-10
1330.0 1.249e-10
1350.0 1.3203e-10
1370.0 1.394e-10
1390.0 1.4658e-10
1410.0 1.5356e-10
1430.0 1.6087e-10
1450.0 1.6818e-10
1470.0 1.7525e-10
1490.0 1.824e-10
1510.0 1.8996e-10
1530.0 1.9714e-10
1550.0 2.0421e-10
1570.0 2.1154e-10
1590.0 2.1888e-10
1610.0 2.2589e-10
1630.0 2.3313e-10
1650.0 2.4055e-10
1670.0 2.4774e-10
1690.0 2.5484e-10
1710.0 2.6222e-10
1730.0 2.6965e-10
1750.0 2.7664e-10
1770.0 2.8384e-10
1790.0 2.912e-10
1810.0 2.9834e-10
1830.0 3.0537e-10
1850.0 3.1283e-10
1870.0 3.2011e-10
1890.0 3.2716e-10
1910.0 3.3438e-10
1930.0 3.4179e-10
1950.0 3.489e-10
1970.0 3.5595e-10
1990.0 3.6329e-10
2010.0 3.7054e-10
2030.0 3.7756e-10
2050.0 3.8483e-10
2070.0 3.9232e-10
2090.0 3.9942e-10
2110.0 4.0655e-10
2130.0 4.1392e-10
2150.0 4.212e-10
2170.0 4.2821e-10
2190.0 4.3553e-10
2210.0 4.4294e-10
2230.0 4.501e-10
2250.0 4.5729e-10
2270.0 4.6484e-10
2290.0 4.7223e-10
2310.0 4.7939e-10
2330.0 4.8681e-10
2350.0 4.9434e-10
2370.0 5.0163e-10
2390.0 5.0902e-10
2410.0 5.1678e-10
2430.0 5.2446e-10
2450.0 5.3227e-10
2470.0 5.4094e-10
2490.0 5.5103e-10
2510.0 5.6267e-10
2530.0 5.7776e-10
2550.0 5.9864e-10
2570.0 6.2673e-10
2590.0 6.6388e-10
2610.0 7.17e-10
2630.0 7.8743e-10
2650.0 8.7356e-10
2670.0 9.7991e-10
2690.0 1.1087e-09
2710.0 1.2498e-09
2730.0 1.3983e-09
2750.0 1.5589e-09
2770.0 1.7184e-09
2790.0 1.8667e-09
2810.0 2.006e-09
2830.0 2.1364e-09
2850.0 2.2461e-09
2870.0 2.3431e-09
2890.0 2.4335e-09
2910.0 2.5179e-09
2930.0 2.598e-09
2950.0 2.6804e-09
2970.0 2.7659e-09
2990.0 2.8533e-09
3010.0 2.9444e-09
3030.0 3.0416e-09
3050.0 3.1434e-09
3070.0 3.247e-09
3090.0 3.3568e-09
3110.0 3.4736e-09
3130.0 3.5989e-09
3150.0 3.7414e-09
3170.0 3.9231e-09
3190.0 4.1598e-09
3210.0 4.4695e-09
3230.0 4.8817e-09
3250.0 5.4053e-09
3270.0 5.9033e-09
3290.0 6.6938e-09
3310.0 8.3136e-09
3330.0 8.8518e-09
3350.0 9.1164e-09
3370.0 9.3707e-09
3390.0 9.6293e-09
3410.0 9.8909e-09
3430.0 1.0154e-08
3450.0 1.0418e-08
3470.0 1.0677e-08
3490.0 1.0926e-08
3510.0 1.1153e-08
3530.0 1.1053e-08
3550.0 1.0748e-08
3570.0 1.0906e-08
3590.0 1.1593e-08
3610.0 1.2635e-08
3630.0 1.3049e-08
3650.0 1.2534e-08
3670.0 1.1512e-08
3690.0 1.0918e-08
3710.0 1.1056e-08
3730.0 1.142e-08
3750.0 1.1615e-08
3770.0 1.2006e-08
3790.0 1.2443e-08
3810.0 1.2267e-08
3830.0 1.1432e-08
3850.0 1.0685e-08
3870.0 1.0331e-08
3890.0 1.0213e-08
3910.0 9.9837e-09
3930.0 9.8682e-09
3950.0 1.0146e-08
3970.0 1.0472e-08
3990.0 1.0566e-08
4010.0 1.0178e-08
4030.0 9.6244e-09
4050.0 9.2684e-09
4070.0 8.9671e-09
4090.0 8.7232e-09
4110.0 8.4043e-09
4130.0 7.9018e-09
4150.0 7.3963e-09
4170.0 7.0964e-09
4190.0 6.6172e-09
4210.0 5.9905e-09
4230.0 5.3561e-09
4250.0 4.7539e-09
4270.0 4.3043e-09
4290.0 3.9717e-09
4310.0 3.7957e-09
4330.0 3.7894e-09
4350.0 3.8079e-09
4370.0 3.8444e-09
4390.0 3.9863e-09
4410.0 4.0845e-09
4430.0 3.9429e-09
4450.0 3.58e-09
4470.0 3.2629e-09
4490.0 3.0904e-09
4510.0 2.9796e-09
4530.0 2.9242e-09
4550.0 2.8767e-09
4570.0 2.8646e-09
4590.0 2.904e-09
4610.0 2.9932e-09
4630.0 3.0464e-09
4650.0 3.0727e-09
4670.0 2.998e-09
4690.0 2.8197e-09
4710.0 2.642e-09
4730.0 2.5269e-09
4750.0 2.4563e-09
4770.0 2.4651e-09
4790.0 2.4554e-09
4810.0 2.4028e-09
4830.0 2.4076e-09
4850.0 2.4826e-09
4870.0 2.5074e-09
4890.0 2.4623e-09
4910.0 2.4052e-09
4930.0 2.2683e-09
4950.0 2.0706e-09
4970.0 1.9353e-09
4990.0 1.8243e-09
5010.0 1.8005e-09
5030.0 1.8612e-09
5050.0 1.9089e-09
5070.0 1.9802e-09
5090.0 2.1e-09
5110.0 2.132e-09
5130.0 2.1505e-09
5150.0 2.1902e-09
5170.0 2.2086e-09
5190.0 2.2665e-09
5210.0 2.2783e-09
5230.0 2.2548e-09
5250.0 2.2731e-09
5270.0 2.3048e-09
5290.0 2.311e-09
5310.0 2.2937e-09
5330.0 2.2502e-09
5350.0 2.2195e-09
5370.0 2.1959e-09
5390.0 2.1668e-09
5410.0 2.1427e-09
5430.0 2.142e-09
5450.0 2.1734e-09
5470.0 2.2138e-09
5490.0 2.2765e-09
5510.0 2.3454e-09
5530.0 2.3744e-09
5550.0 2.4097e-09
5570.0 2.4149e-09
5590.0 2.3648e-09
5610.0 2.3477e-09
5630.0 2.3654e-09
5650.0 2.3367e-09
5670.0 2.285e-09
5690.0 2.2165e-09
5710.0 2.2107e-09
5730.0 2.234e-09
5750.0 2.1388e-09
5770.0 2.0291e-09
5790.0 1.8654e-09
5810.0 1.6317e-09
5830.0 1.759e-09
5850.0 1.9474e-09
5870.0 1.9896e-09
5890.0 2.0003e-09
5910.0 2.0166e-09
5930.0 2.0123e-09
5950.0 1.979e-09
5970.0 1.9554e-09
5990.0 1.9272e-09
6010.0 1.8685e-09
6030.0 1.8044e-09
6050.0 1.7763e-09
6070.0 1.7683e-09
6090.0 1.7414e-09
6110.0 1.6834e-09
6130.0 1.6261e-09
6150.0 1.5609e-09
6170.0 1.4956e-09
6190.0 1.4286e-09
6210.0 1.3782e-09
6230.0 1.3582e-09
6250.0 1.3294e-09
6270.0 1.3016e-09
6290.0 1.2915e-09
6310.0 1.2831e-09
6330.0 1.2549e-09
6350.0 1.2141e-09
6370.0 1.1909e-09
6390.0 1.1674e-09
6410.0 1.1349e-09
6430.0 1.1041e-09
6450.0 1.0798e-09
6470.0 1.0567e-09
6490.0 1.0406e-09
6510.0 1.0226e-09
6530.0 9.9662e-10
6550.0 9.7457e-10
6570.0 9.5954e-10
6590.0 9.5795e-10
6610.0 9.5192e-10
6630.0 9.2008e-10
6650.0 8.9408e-10
6670.0 8.8481e-10
6690.0 8.709e-10
6710.0 8.4999e-10
6730.0 8.4249e-10
6750.0 8.4903e-10
6770.0 8.9952e-10
6790.0 1.0054e-09
6810.0 9.5468e-10
6830.0 8.3852e-10
6850.0 8.0541e-10
6870.0 7.9308e-10
6890.0 7.9318e-10
6910.0 7.9487e-10
6930.0 7.9669e-10
6950.0 7.9422e-10
6970.0 7.7407e-10
6990.0 7.6708e-10
7010.0 7.785e-10
7030.0 7.8214e-10
7050.0 7.7079e-10
7070.0 7.6303e-10
7090.0 7.68e-10
7110.0 7.8588e-10
7130.0 7.8846e-10
7150.0 7.9136e-10
7170.0 7.9558e-10
7190.0 8.0661e-10
7210.0 8.1532e-10
7230.0 8.2407e-10
7250.0 8.3505e-10
7270.0 8.4289e-10
7290.0 8.5616e-10
7310.0 8.7196e-10
7330.0 8.6522e-10
7350.0 8.4707e-10
7370.0 8.3553e-10
7390.0 8.3348e-10
7410.0 8.3697e-10
7430.0 8.4739e-10
7450.0 8.5266e-10
7470.0 8.6472e-10
7490.0 8.5976e-10
7510.0 8.5042e-10
7530.0 8.6039e-10
7550.0 8.8711e-10
7570.0 8.8487e-10
7590.0 8.3917e-10
7610.0 8.3216e-10
7630.0 8.7933e-10
7650.0 8.9694e-10
7670.0 9.0302e-10
7690.0 9.432e-10
7710.0 9.737e-10
7730.0 9.8305e-10
7750.0 1.0343e-09
7770.0 1.0078e-09
7790.0 9.8389e-10
7810.0 1.0424e-09
7830.0 1.0823e-09
7850.0 1.1095e-09
7870.0 1.1313e-09
7890.0 1.14e-09
7910.0 1.1316e-09
7930.0 1.1394e-09
7950.0 1.1908e-09
7970.0 1.1906e-09
7990.0 1.1089e-09
8010.0 1.0643e-09
8030.0 1.0856e-09
8050.0 1.1088e-09
8070.0 1.0031e-09
8090.0 6.5637e-10
8110.0 6.8536e-10
8130.0 9.7857e-10
8150.0 1.0539e-09
8170.0 1.0958e-09
8190.0 1.1196e-09
8210.0 1.1054e-09
8230.0 1.1984e-09
8250.0 1.2245e-09
8270.0 1.158e-09
8290.0 1.1123e-09
8310.0 1.096e-09
8330.0 1.1558e-09
8350.0 1.2105e-09
8370.0 1.1877e-09
8390.0 1.1326e-09
8410.0 1.1315e-09
8430.0 1.0602e-09
8450.0 1.0834e-09
8470.0 1.1839e-09
8490.0 1.1875e-09
8510.0 1.1011e-09
8530.0 1.032e-09
8550.0 9.8924e-10
8570.0 9.3231e-10
8590.0 9.5896e-10
8610.0 1.0175e-09
8630.0 1.0448e-09
8650.0 1.0629e-09
8670.0 1.0337e-09
8690.0 1.0097e-09
8710.0 9.3908e-10
8730.0 9.0537e-10
8750.0 9.4233e-10
8770.0 9.5708e-10
8790.0 9.5414e-10
8810.0 9.4955e-10
8830.0 9.6978e-10
8850.0 1.0183e-09
8870.0 9.5091e-10
8890.0 8.9688e-10
8910.0 8.8365e-10
8930.0 8.3063e-10
8950.0 8.002e-10
8970.0 7.9984e-10
8990.0 7.6565e-10
9010.0 7.1878e-10
9030.0 7.0246e-10
9050.0 6.9661e-10
9070.0 6.914e-10
9090.0 6.8615e-10
9110.0 6.8088e-10
9130.0 6.7557e-10
9150.0 6.7025e-10
9170.0 6.649e-10
9190.0 6.5955e-10
9210.0 6.5419e-10
9230.0 6.4882e-10
9250.0 6.4346e-10
9270.0 6.381e-10
9290.0 6.3275e-10
9310.0 6.2741e-10
9330.0 6.2209e-10
9350.0 6.1679e-10
9370.0 6.1151e-10
9390.0 6.0625e-10
9410.0 6.0102e-10
9430.0 5.9582e-10
9450.0 5.9065e-10
9470.0 5.8552e-10
9490.0 5.8042e-10
9510.0 5.7536e-10
9530.0 5.7034e-10
9550.0 5.6536e-10
9570.0 5.6042e-10
9590.0 5.5553e-10
9610.0 5.5068e-10
9630.0 5.4587e-10
9650.0 5.4112e-10
9670.0 5.3641e-10
9690.0 5.3175e-10
9710.0 5.2714e-10
9730.0 5.2258e-10
9750.0 5.1806e-10
9770.0 5.136e-10
9790.0 5.0919e-10
9810.0 5.0483e-10
9830.0 5.0052e-10
9850.0 4.9626e-10
9870.0 4.9206e-10
9890.0 4.879e-10
9910.0 4.8379e-10
9930.0 4.7974e-10
9950.0 4.7573e-10
9970.0 4.7178e-10
9990.0 4.6788e-10
10010.0 4.6402e-10
10030.0 4.6022e-10
10050.0 4.5646e-10
10070.0 4.5275e-10
10090.0 4.4909e-10
10110.0 4.4548e-10
10130.0 4.4192e-10
10150.0 4.3839e-10
10170.0 4.3492e-10
10190.0 4.3149e-10
10210.0 4.2811e-10
10230.0 4.2477e-10
10250.0 4.2148e-10
10270.0 4.1822e-10
10290.0 4.1501e-10
10310.0 4.1184e-10
10330.0 4.0872e-10
10350.0 4.0563e-10
10370.0 4.0258e-10
10390.0 3.9952e-10
10410.0 3.9593e-10
10430.0 3.9219e-10
10450.0 3.8997e-10
10470.0 3.8742e-10
10490.0 3.8483e-10
10510.0 3.822e-10
10530.0 3.7946e-10
10550.0 3.7675e-10
10570.0 3.7412e-10
10590.0 3.7147e-10
10610.0 3.6882e-10
10630.0 3.6626e-10
10650.0 3.6372e-10
10670.0 3.6114e-10
10690.0 3.5864e-10
10710.0 3.5619e-10
10730.0 3.5373e-10
10750.0 3.5125e-10
10770.0 3.489e-10
10790.0 3.4655e-10
10810.0 3.4418e-10
10830.0 3.4186e-10
10850.0 3.3962e-10
10870.0 3.3731e-10
10890.0 3.3502e-10
10910.0 3.328e-10
10930.0 3.3058e-10
10950.0 3.283e-10
10970.0 3.2604e-10
10990.0 3.2383e-10
11010.0 3.2121e-10
11030.0 3.1887e-10
11050.0 3.1655e-10
11070.0 3.1419e-10
11090.0 3.1169e-10
11110.0 3.0926e-10
11130.0 3.0683e-10
11150.0 3.0432e-10
11170.0 3.0177e-10
11190.0 2.993e-10
11210.0 2.9677e-10
11230.0 2.9418e-10
11250.0 2.9168e-10
11270.0 2.8924e-10
11290.0 2.8677e-10
11310.0 2.8437e-10
11330.0 2.8215e-10
11350.0 2.7998e-10
11370.0 2.7787e-10
11390.0 2.7592e-10
11410.0 2.7408e-10
11430.0 2.7225e-10
11450.0 2.7052e-10
11470.0 2.6891e-10
11490.0 2.6731e-10
11510.0 2.657e-10
11530.0 2.6418e-10
11550.0 2.6266e-10
11570.0 2.6109e-10
11590.0 2.5951e-10
11610.0 2.5795e-10
11630.0 2.5632e-10
11650.0 2.546e-10
11670.0 2.5292e-10
11690.0 2.5122e-10
11710.0 2.4942e-10
11730.0 2.4762e-10
11750.0 2.4586e-10
11770.0 2.4403e-10
11790.0 2.4218e-10
11810.0 2.4038e-10
11830.0 2.386e-10
11850.0 2.3676e-10
11870.0 2.35e-10
11890.0 2.3334e-10
11910.0 2.3168e-10
11930.0 2.3006e-10
11950.0 2.2858e-10
11970.0 2.2715e-10
11990.0 2.2575e-10
12010.0 2.2447e-10
12030.0 2.233e-10
12050.0 2.2218e-10
12070.0 2.2113e-10
12090.0 2.2022e-10
12110.0 2.1937e-10
12130.0 2.1857e-10
12150.0 2.1785e-10
12170.0 2.172e-10
12190.0 2.1655e-10
12210.0 2.1594e-10
12230.0 2.1536e-10
12250.0 2.1477e-10
12270.0 2.1413e-10
12290.0 2.1347e-10
12310.0 2.1277e-10
12330.0 2.1198e-10
12350.0 2.111e-10
12370.0 2.1016e-10
12390.0 2.0912e-10
12410.0 2.0792e-10
12430.0 2.0668e-10
12450.0 2.0536e-10
12470.0 2.0391e-10
12490.0 2.0237e-10
12510.0 2.0082e-10
12530.0 1.9915e-10
12550.0 1.9739e-10
12570.0 1.9564e-10
12590.0 1.9386e-10
12610.0 1.9199e-10
12630.0 1.9011e-10
12650.0 1.8832e-10
12670.0 1.8649e-10
12690.0 1.8465e-10
12710.0 1.829e-10
12730.0 1.812e-10
12750.0 1.7947e-10
12770.0 1.7783e-10
12790.0 1.7631e-10
12810.0 1.7482e-10
12830.0 1.7339e-10
12850.0 1.7209e-10
12870.0 1.7089e-10
12890.0 1.6974e-10
12910.0 1.687e-10
12930.0 1.6779e-10
12950.0 1.6694e-10
12970.0 1.6619e-10
12990.0 1.6557e-10
13010.0 1.6506e-10
13030.0 1.6463e-10
13050.0 1.643e-10
13070.0 1.6407e-10
13090.0 1.639e-10
13110.0 1.6379e-10
13130.0 1.6373e-10
13150.0 1.6369e-10
13170.0 1.6366e-10
13190.0 1.636e-10
13210.0 1.6351e-10
13230.0 1.6337e-10
13250.0 1.6314e-10
13270.0 1.6285e-10
13290.0 1.6246e-10
13310.0 1.6196e-10
13330.0 1.6136e-10
13350.0 1.6069e-10
13370.0 1.5989e-10
13390.0 1.5897e-10
13410.0 1.5802e-10
13430.0 1.5698e-10
13450.0 1.5582e-10
13470.0 1.5462e-10
13490.0 1.5339e-10
13510.0 1.5203e-10
13530.0 1.5062e-10
13550.0 1.4922e-10
13570.0 1.4777e-10
13590.0 1.4623e-10
13610.0 1.4472e-10
13630.0 1.4323e-10
13650.0 1.4165e-10
13670.0 1.4007e-10
13690.0 1.3855e-10
13710.0 1.3699e-10
13730.0 1.3537e-10
13750.0 1.3385e-10
13770.0 1.3236e-10
13790.0 1.3085e-10
13810.0 1.2938e-10
13830.0 1.28e-10
13850.0 1.2662e-10
13870.0 1.2525e-10
13890.0 1.2397e-10
13910.0 1.2275e-10
13930.0 1.2153e-10
13950.0 1.2036e-10
13970.0 1.1929e-10
13990.0 1.1823e-10
14010.0 1.172e-10
14030.0 1.1625e-10
14050.0 1.1534e-10
14070.0 1.1443e-10
14090.0 1.1358e-10
14110.0 1.128e-10
14130.0 1.1203e-10
14150.0 1.1129e-10
14170.0 1.1062e-10
14190.0 1.0998e-10
14210.0 1.0935e-10
14230.0 1.0875e-10
14250.0 1.0819e-10
14270.0 1.0763e-10
14290.0 1.0708e-10
14310.0 1.0657e-10
14330.0 1.0607e-10
14350.0 1.0556e-10
14370.0 1.0507e-10
14390.0 1.0461e-10
14410.0 1.0413e-10
14430.0 1.0366e-10
14450.0 1.0321e-10
14470.0 1.0276e-10
14490.0 1.023e-10
14510.0 1.0185e-10
14530.0 1.0142e-10
14550.0 1.0098e-10
14570.0 1.0053e-10
14590.0 1.001e-10
14610.0 9.9656e-11
14630.0 9.9192e-11
14650.0 9.8738e-11
14670.0 9.8288e-11
14690.0 9.7817e-11
14710.0 9.7333e-11
14730.0 9.687e-11
14750.0 9.6391e-11
14770.0 9.5891e-11
14790.0 9.5396e-11
14810.0 9.4904e-11
14830.0 9.437e-11
14850.0 9.3836e-11
14870.0 9.3314e-11
14890.0 9.278e-11
14910.0 9.2232e-11
14930.0 9.1712e-11
14950.0 9.1222e-11
14970.0 9.0739e-11
14990.0 9.0299e-11
15010.0 8.9915e-11
15030.0 8.9566e-11
15050.0 8.9244e-11
15070.0 8.8973e-11
15090.0 8.8727e-11
15110.0 8.8488e-11
15130.0 8.8262e-11
15150.0 8.805e-11
15170.0 8.7832e-11
15190.0 8.7612e-11
15210.0 8.74e-11
15230.0 8.7189e-11
15250.0 8.6969e-11
15270.0 8.6751e-11
15290.0 8.6544e-11
15310.0 8.6329e-11
15330.0 8.6111e-11
15350.0 8.5901e-11
15370.0 8.5691e-11
15390.0 8.547e-11
15410.0 8.5254e-11
15430.0 8.5045e-11
15450.0 8.4829e-11
15470.0 8.461e-11
15490.0 8.44e-11
15510.0 8.419e-11
15530.0 8.3971e-11
15550.0 8.3757e-11
15570.0 8.3549e-11
15590.0 8.3331e-11
15610.0 8.3111e-11
15630.0 8.2901e-11
15650.0 8.2689e-11
15670.0 8.2471e-11
15690.0 8.2257e-11
15710.0 8.205e-11
15730.0 8.1833e-11
15750.0 8.1615e-11
15770.0 8.1405e-11
15790.0 8.1193e-11
15810.0 8.0971e-11
15830.0 8.0757e-11
15850.0 8.0549e-11
15870.0 8.0333e-11
15890.0 8.0116e-11
15910.0 7.9908e-11
15930.0 7.9695e-11
15950.0 7.9475e-11
15970.0 7.9262e-11
15990.0 7.9052e-11
16010.0 7.8834e-11
16030.0 7.8615e-11
16050.0 7.8408e-11
16070.0 7.8195e-11
16090.0 7.7977e-11
16110.0 7.7765e-11
16130.0 7.7557e-11
16150.0 7.7336e-11
16170.0 7.7119e-11
16190.0 7.691e-11
16210.0 7.6696e-11
16230.0 7.6477e-11
16250.0 7.6266e-11
16270.0 7.6057e-11
16290.0 7.5839e-11
16310.0 7.5624e-11
16330.0 7.5415e-11
16350.0 7.5201e-11
16370.0 7.4977e-11
16390.0 7.4768e-11
16410.0 7.4557e-11
16430.0 7.434e-11
16450.0 7.4125e-11
16470.0 7.3918e-11
16490.0 7.3702e-11
16510.0 7.3483e-11
16530.0 7.3272e-11
16550.0 7.3061e-11
16570.0 7.2842e-11
16590.0 7.2625e-11
16610.0 7.2418e-11
16630.0 7.2203e-11
16650.0 7.1986e-11
16670.0 7.1776e-11
16690.0 7.1566e-11
16710.0 7.1344e-11
16730.0 7.113e-11
16750.0 7.0921e-11
16770.0 7.0705e-11
16790.0 7.0486e-11
16810.0 7.0277e-11
16830.0 7.0067e-11
16850.0 6.9848e-11
16870.0 6.9635e-11
16890.0 6.9427e-11
16910.0 6.9209e-11
16930.0 6.8989e-11
16950.0 6.878e-11
16970.0 6.8568e-11
16990.0 6.8349e-11
17010.0 6.8136e-11
17030.0 6.7929e-11
17050.0 6.7712e-11
17070.0 6.7494e-11
17090.0 6.7285e-11
17110.0 6.7072e-11
17130.0 6.685e-11
17150.0 6.6638e-11
17170.0 6.6429e-11
17190.0 6.6213e-11
17210.0 6.5997e-11
17230.0 6.5789e-11
17250.0 6.5576e-11
17270.0 6.5355e-11
17290.0 6.5143e-11
17310.0 6.4933e-11
17330.0 6.4715e-11
17350.0 6.4497e-11
17370.0 6.429e-11
17390.0 6.4077e-11
17410.0 6.3859e-11
17430.0 6.3647e-11
17450.0 6.3439e-11
17470.0 6.3218e-11
17490.0 6.3001e-11
17510.0 6.2792e-11
17530.0 6.2578e-11
17550.0 6.2359e-11
17570.0 6.2149e-11
17590.0 6.194e-11
17610.0 6.1722e-11
17630.0 6.1507e-11
17650.0 6.1298e-11
17670.0 6.1083e-11
17690.0 6.086e-11
17710.0 6.0651e-11
17730.0 6.0441e-11
17750.0 6.0223e-11
17770.0 6.0008e-11
17790.0 5.9802e-11
17810.0 5.9585e-11
17830.0 5.9367e-11
17850.0 5.9156e-11
17870.0 5.8945e-11
17890.0 5.8725e-11
17910.0 5.8509e-11
17930.0 5.8302e-11
17950.0 5.8087e-11
17970.0 5.787e-11
17990.0 5.766e-11
18010.0 5.745e-11
18030.0 5.7228e-11
18050.0 5.7014e-11
18070.0 5.6805e-11
18090.0 5.6589e-11
18110.0 5.637e-11
18130.0 5.6162e-11
18150.0 5.5951e-11
18170.0 5.5732e-11
18190.0 5.5519e-11
18210.0 5.5311e-11
18230.0 5.5092e-11
18250.0 5.4873e-11
18270.0 5.4664e-11
18290.0 5.4452e-11
18310.0 5.4233e-11
18330.0 5.4021e-11
18350.0 5.3813e-11
18370.0 5.3595e-11
18390.0 5.3378e-11
18410.0 5.3169e-11
18430.0 5.2956e-11
18450.0 5.2734e-11
18470.0 5.2522e-11
18490.0 5.2313e-11
18510.0 5.2097e-11
18530.0 5.1881e-11
18550.0 5.1673e-11
18570.0 5.1459e-11
18590.0 5.1239e-11
18610.0 5.1027e-11
18630.0 5.0817e-11
18650.0 5.0599e-11
18670.0 5.0381e-11
18690.0 5.0174e-11
18710.0 4.996e-11
18730.0 4.9743e-11
18750.0 4.9531e-11
18770.0 4.9323e-11
18790.0 4.9101e-11
18810.0 4.8885e-11
18830.0 4.8676e-11
18850.0 4.8462e-11
18870.0 4.8243e-11
18890.0 4.8033e-11
18910.0 4.7824e-11
18930.0 4.7605e-11
18950.0 4.739e-11
18970.0 4.7181e-11
18990.0 4.6966e-11
19010.0 4.6743e-11
19030.0 4.6535e-11
19050.0 4.6324e-11
19070.0 4.6106e-11
19090.0 4.5892e-11
19110.0 4.5686e-11
19130.0 4.5468e-11
19150.0 4.525e-11
19170.0 4.5039e-11
19190.0 4.4828e-11
19210.0 4.4608e-11
19230.0 4.4392e-11
19250.0 4.4185e-11
19270.0 4.397e-11
19290.0 4.3753e-11
19310.0 4.3544e-11
19330.0 4.3333e-11
19350.0 4.311e-11
19370.0 4.2897e-11
19390.0 4.2687e-11
19410.0 4.2471e-11
19430.0 4.2253e-11
19450.0 4.2045e-11
19470.0 4.1833e-11
19490.0 4.1615e-11
19510.0 4.1402e-11
19530.0 4.1193e-11
19550.0 4.0974e-11
19570.0 4.0755e-11
19590.0 4.0546e-11
19610.0 4.0334e-11
19630.0 4.0115e-11
19650.0 3.9904e-11
19670.0 3.9696e-11
19690.0 3.9477e-11
19710.0 3.9261e-11
19730.0 3.9051e-11
19750.0 3.8838e-11
19770.0 3.8616e-11
19790.0 3.8404e-11
19810.0 3.8196e-11
19830.0 3.7979e-11
19850.0 3.7764e-11
19870.0 3.7559e-11
19890.0 3.7348e-11
19910.0 3.7136e-11
19930.0 3.6939e-11
19950.0 3.6754e-11
19970.0 3.6576e-11
19990.0 3.6419e-11
20010.0 3.6288e-11
20030.0 3.6175e-11
20050.0 3.608e-11
20070.0 3.6007e-11
20090.0 3.5947e-11
20110.0 3.5894e-11
20130.0 3.585e-11
20150.0 3.581e-11
20170.0 3.5771e-11
20190.0 3.573e-11
20210.0 3.569e-11
20230.0 3.5649e-11
20250.0 3.5604e-11
20270.0 3.5557e-11
20290.0 3.5509e-11
20310.0 3.5457e-11
20330.0 3.54e-11
20350.0 3.5344e-11
20370.0 3.5284e-11
20390.0 3.522e-11
20410.0 3.5154e-11
20430.0 3.5089e-11
20450.0 3.5018e-11
20470.0 3.4945e-11
20490.0 3.4875e-11
20510.0 3.4803e-11
20530.0 3.4729e-11
20550.0 3.4658e-11
20570.0 3.4591e-11
20590.0 3.4522e-11
20610.0 3.4455e-11
20630.0 3.4391e-11
20650.0 3.4328e-11
20670.0 3.4263e-11
20690.0 3.4202e-11
20710.0 3.414e-11
20730.0 3.4076e-11
20750.0 3.4009e-11
20770.0 3.3943e-11
20790.0 3.3871e-11
20810.0 3.3793e-11
20830.0 3.3711e-11
20850.0 3.3626e-11
20870.0 3.353e-11
20890.0 3.3427e-11
20910.0 3.3324e-11
20930.0 3.3212e-11
20950.0 3.3093e-11
20970.0 3.2973e-11
20990.0 3.2852e-11
21010.0 3.2721e-11
21030.0 3.259e-11
21050.0 3.2463e-11
21070.0 3.2332e-11
21090.0 3.2198e-11
21110.0 3.2071e-11
21130.0 3.1946e-11
21150.0 3.1819e-11
21170.0 3.1693e-11
21190.0 3.1574e-11
21210.0 3.145e-11
21230.0 3.1325e-11
21250.0 3.1204e-11
21270.0 3.1083e-11
21290.0 3.0956e-11
21310.0 3.0828e-11
21330.0 3.0704e-11
21350.0 3.0573e-11
21370.0 3.0436e-11
21390.0 3.03e-11
21410.0 3.0162e-11
21430.0 3.0012e-11
21450.0 2.9863e-11
21470.0 2.9715e-11
21490.0 2.956e-11
21510.0 2.9399e-11
21530.0 2.9243e-11
21550.0 2.9083e-11
21570.0 2.8915e-11
21590.0 2.8749e-11
21610.0 2.8586e-11
21630.0 2.8417e-11
21650.0 2.8243e-11
21670.0 2.8081e-11
21690.0 2.7916e-11
21710.0 2.7746e-11
21730.0 2.7581e-11
21750.0 2.7421e-11
21770.0 2.7252e-11
21790.0 2.7084e-11
21810.0 2.6923e-11
21830.0 2.676e-11
21850.0 2.6592e-11
21870.0 2.6429e-11
21890.0 2.627e-11
21910.0 2.6106e-11
21930.0 2.5942e-11
21950.0 2.5785e-11
21970.0 2.5627e-11
21990.0 2.5463e-11
22010.0 2.531e-11
22030.0 2.5162e-11
22050.0 2.5012e-11
22070.0 2.4867e-11
22090.0 2.4733e-11
22110.0 2.4601e-11
22130.0 2.4471e-11
22150.0 2.4351e-11
22170.0 2.4239e-11
22190.0 2.4127e-11
22210.0 2.4021e-11
22230.0 2.3926e-11
22250.0 2.3833e-11
22270.0 2.3743e-11
22290.0 2.3659e-11
22310.0 2.3579e-11
22330.0 2.3498e-11
22350.0 2.3421e-11
22370.0 2.3347e-11
22390.0 2.3272e-11
22410.0 2.3194e-11
22430.0 2.3121e-11
22450.0 2.3048e-11
22470.0 2.2971e-11
22490.0 2.2894e-11
22510.0 2.2819e-11
22530.0 2.274e-11
22550.0 2.2659e-11
22570.0 2.2581e-11
22590.0 2.2503e-11
22610.0 2.2423e-11
22630.0 2.2344e-11
