#lamb flux
1010.0 1.1654e-07
1030.0 1.2906e-07
1050.0 1.4347e-07
1070.0 1.5969e-07
1090.0 1.7812e-07
1110.0 1.9701e-07
1130.0 2.1603e-07
1150.0 2.3595e-07
1170.0 2.565e-07
1190.0 2.7599e-07
1210.0 2.9574e-07
1230.0 3.1615e-07
1250.0 3.3614e-07
1270.0 3.5556e-07
1290.0 3.7608e-07
1310.0 3.9658e-07
1330.0 4.1624e-07
1350.0 4.3612e-07
1370.0 4.5664e-07
1390.0 4.7665e-07
1410.0 4.9607e-07
1430.0 5.1636e-07
1450.0 5.3665e-07
1470.0 5.5626e-07
1490.0 5.7607e-07
1510.0 5.97e-07
1530.0 6.1682e-07
1550.0 6.3636e-07
1570.0 6.5658e-07
1590.0 6.768e-07
1610.0 6.9611e-07
1630.0 7.1601e-07
1650.0 7.3642e-07
1670.0 7.5613e-07
1690.0 7.7557e-07
1710.0 7.9574e-07
1730.0 8.1599e-07
1750.0 8.3498e-07
1770.0 8.545e-07
1790.0 8.7436e-07
1810.0 8.9351e-07
1830.0 9.1226e-07
1850.0 9.321e-07
1870.0 9.5132e-07
1890.0 9.6977e-07
1910.0 9.8847e-07
1930.0 1.0075e-06
1950.0 1.0255e-06
1970.0 1.043e-06
1990.0 1.0611e-06
2010.0 1.0787e-06
2030.0 1.0952e-06
2050.0 1.1121e-06
2070.0 1.1292e-06
2090.0 1.1448e-06
2110.0 1.1599e-06
2130.0 1.1753e-06
2150.0 1.1898e-06
2170.0 1.2031e-06
2190.0 1.2165e-06
2210.0 1.2295e-06
2230.0 1.2412e-06
2250.0 1.2522e-06
2270.0 1.2634e-06
2290.0 1.2734e-06
2310.0 1.2819e-06
2330.0 1.2904e-06
2350.0 1.2985e-06
2370.0 1.3055e-06
2390.0 1.3128e-06
2410.0 1.322e-06
2430.0 1.3326e-06
2450.0 1.3456e-06
2470.0 1.364e-06
2490.0 1.3888e-06
2510.0 1.4175e-06
2530.0 1.4548e-06
2550.0 1.5064e-06
2570.0 1.5764e-06
2590.0 1.6741e-06
2610.0 1.8283e-06
2630.0 2.05e-06
2650.0 2.3337e-06
2670.0 2.6896e-06
2690.0 3.1104e-06
2710.0 3.5367e-06
2730.0 3.9339e-06
2750.0 4.302e-06
2770.0 4.5952e-06
2790.0 4.8002e-06
2810.0 4.9379e-06
2830.0 5.0219e-06
2850.0 5.0507e-06
2870.0 5.0494e-06
2890.0 5.0315e-06
2910.0 5.0017e-06
2930.0 4.9643e-06
2950.0 4.9262e-06
2970.0 4.8885e-06
2990.0 4.8501e-06
3010.0 0.00014565
3030.0 0.0001446
3050.0 0.00014357
3070.0 0.00014246
3090.0 0.0001413
3110.0 0.00013994
3130.0 0.00013821
3150.0 0.000136
3170.0 0.00013307
3190.0 0.00012947
3210.0 0.00012544
3230.0 0.00012115
3250.0 0.0001169
3270.0 0.00011373
3290.0 0.00011144
3310.0 0.00011097
3330.0 0.00011182
3350.0 0.0001139
3370.0 0.00011721
3390.0 0.0001216
3410.0 0.00012651
3430.0 0.00013214
3450.0 0.0001387
3470.0 0.00014596
3490.0 0.00015374
3510.0 0.00016262
3530.0 0.00017231
3550.0 0.00018266
3570.0 0.00019409
3590.0 0.00020698
3610.0 0.00022134
3630.0 0.00023589
3650.0 0.00025135
3670.0 0.00026544
3690.0 0.00027605
3710.0 0.00028154
3730.0 0.00027885
3750.0 0.00026786
3770.0 0.00026826
3790.0 0.00025642
3810.0 0.00019918
3830.0 0.00018371
3850.0 0.0002451
3870.0 0.00021451
3890.0 0.0001756
3910.0 0.00020536
3930.0 0.00027033
3950.0 0.00030852
3970.0 0.00035815
3990.0 0.00028704
4010.0 0.00044435
4030.0 0.00040818
4050.0 0.00038413
4070.0 0.00043705
4090.0 0.00041965
4110.0 0.00041712
4130.0 0.00051422
4150.0 0.00065422
4170.0 0.00053632
4190.0 0.00047931
4210.0 0.00052895
4230.0 0.00065445
4250.0 0.00076223
4270.0 0.00082244
4290.0 0.00075473
4310.0 0.00070289
4330.0 0.00071331
4350.0 0.00090659
4370.0 0.0010897
4390.0 0.00088853
4410.0 0.00054202
4430.0 0.00040037
4450.0 0.00036119
4470.0 0.00027308
4490.0 0.00041313
4510.0 0.00074106
4530.0 0.00088862
4550.0 0.00088265
4570.0 0.00083822
4590.0 0.00092878
4610.0 0.0016785
4630.0 0.0022921
4650.0 0.0021729
4670.0 0.0019361
4690.0 0.0020367
4710.0 0.0021503
4730.0 0.001738
4750.0 0.0011213
4770.0 0.00081104
4790.0 0.00088844
4810.0 0.0009073
4830.0 0.00089186
4850.0 0.00098208
4870.0 0.0012986
4890.0 0.0015099
4910.0 0.0011759
4930.0 0.0011134
4950.0 0.001277
4970.0 0.001723
4990.0 0.0023114
5010.0 0.0026222
5030.0 0.0020811
5050.0 0.0012542
5070.0 0.00089054
5090.0 0.00070831
5110.0 0.0006792
5130.0 0.00078874
5150.0 0.00076761
5170.0 0.00073141
5190.0 0.00066918
5210.0 0.0007106
5230.0 0.00085708
5250.0 0.00098809
5270.0 0.00094831
5290.0 0.0010459
5310.0 0.0013564
5330.0 0.0014206
5350.0 0.0014012
5370.0 0.0015802
5390.0 0.0019292
5410.0 0.0016701
5430.0 0.0012815
5450.0 0.0012717
5470.0 0.0014872
5490.0 0.0018924
5510.0 0.0023455
5530.0 0.0027001
5550.0 0.0024527
5570.0 0.00219
5590.0 0.0018201
5610.0 0.0018264
5630.0 0.0020005
5650.0 0.0018939
5670.0 0.0017653
5690.0 0.0014575
5710.0 0.0014762
5730.0 0.0014282
5750.0 0.00078922
5770.0 0.00059731
5790.0 0.0007307
5810.0 0.00081035
5830.0 0.0011802
5850.0 0.0014895
5870.0 0.0015699
5890.0 0.0014838
5910.0 0.001431
5930.0 0.0013989
5950.0 0.0014539
5970.0 0.001764
5990.0 0.001477
6010.0 0.0011461
6030.0 0.00093197
6050.0 0.00082485
6070.0 0.00096323
6090.0 0.0010984
6110.0 0.0011324
6130.0 0.001035
6150.0 0.00083711
6170.0 0.00072771
6190.0 0.00090646
6210.0 0.0013478
6230.0 0.0018777
6250.0 0.0019728
6270.0 0.0015448
6290.0 0.0013106
6310.0 0.0010076
6330.0 0.00074698
6350.0 0.00072092
6370.0 0.00076041
6390.0 0.00091931
6410.0 0.0011581
6430.0 0.0013879
6450.0 0.0017002
6470.0 0.0018482
6490.0 0.0022421
6510.0 0.0025168
6530.0 0.0024974
6550.0 0.0022981
6570.0 0.0019475
6590.0 0.0018875
6610.0 0.0015829
6630.0 0.0016017
6650.0 0.0015264
6670.0 0.0013943
6690.0 0.0011591
6710.0 0.0011035
6730.0 0.00063068
6750.0 0.00072047
6770.0 0.00098682
6790.0 0.0012746
6810.0 0.00098576
6830.0 0.0010096
6850.0 0.00088309
6870.0 0.00083961
6890.0 0.00074123
6910.0 0.00083282
6930.0 0.00077927
6950.0 0.00090394
6970.0 0.00091974
6990.0 0.0010207
7010.0 0.0010253
7030.0 0.0010978
7050.0 0.00096394
7070.0 0.00084281
7090.0 0.00086414
7110.0 0.00087631
7130.0 0.00097867
7150.0 0.0011037
7170.0 0.0012214
7190.0 0.00127
7210.0 0.0011374
7230.0 0.0011513
7250.0 0.001263
7270.0 0.0014016
7290.0 0.0016666
7310.0 0.0017025
7330.0 0.0015461
7350.0 0.0013777
7370.0 0.0010659
7390.0 0.0011115
7410.0 0.0013405
7430.0 0.0015112
7450.0 0.0016264
7470.0 0.0015583
7490.0 0.0014103
7510.0 0.0020734
7530.0 0.0018629
7550.0 0.0016885
7570.0 0.0011641
7590.0 0.00057604
7610.0 0.00043651
7630.0 0.00059603
7650.0 0.00076919
7670.0 0.0011455
7690.0 0.0012926
7710.0 0.0012019
7730.0 0.0011875
7750.0 0.0014801
7770.0 0.0015048
7790.0 0.0013964
7810.0 0.0011907
7830.0 0.001252
7850.0 0.0013158
7870.0 0.0012716
7890.0 0.0010235
7910.0 0.00071672
7930.0 0.00070563
7950.0 0.00063405
7970.0 0.00055204
7990.0 0.00051336
8010.0 0.00047701
8030.0 0.00045689
8050.0 0.00047933
8070.0 0.00050426
8090.0 0.00056849
8110.0 0.00053246
8130.0 0.00037827
8150.0 0.00036905
8170.0 0.00027052
8190.0 0.00022461
8210.0 0.00034092
8230.0 0.00038866
8250.0 0.00024947
8270.0 0.00021344
8290.0 0.00024726
8310.0 0.00019181
8330.0 0.00011982
8350.0 9.3342e-05
8370.0 5.2685e-05
8390.0 0.00010511
8410.0 0.00012781
8430.0 0.00015878
8450.0 0.00017754
8470.0 0.00024913
8490.0 0.00021731
8510.0 0.00018844
8530.0 0.00014098
8550.0 0.0002836
8570.0 0.00040749
8590.0 0.00034581
8610.0 0.00047215
8630.0 0.00052575
8650.0 0.00039256
8670.0 0.00047468
8690.0 0.00061079
8710.0 0.00054481
8730.0 0.0005619
8750.0 0.0004707
8770.0 0.00043308
8790.0 0.00046087
8810.0 0.00047503
8830.0 0.00031394
8850.0 0.00019621
8870.0 0.00015366
8890.0 0.00022958
8910.0 0.00031332
8930.0 0.00038483
8950.0 0.00043666
8970.0 0.0004291
8990.0 0.00035721
9010.0 0.00027091
9030.0 0.00023464
9050.0 0.00024164
9070.0 0.00024816
9090.0 0.00025328
9110.0 0.00025911
9130.0 0.00026342
9150.0 0.00026664
9170.0 0.00027007
9190.0 0.00027373
9210.0 0.00027757
9230.0 0.00028164
9250.0 0.0002858
9270.0 0.0002901
9290.0 0.00029452
9310.0 0.000299
9330.0 0.00030356
9350.0 0.00030826
9370.0 0.00031304
9390.0 0.00031787
9410.0 0.00032283
9430.0 0.00032791
9450.0 0.00033302
9470.0 0.00033822
9490.0 0.00034356
9510.0 0.00034897
9530.0 0.00035443
9550.0 0.00036004
9570.0 0.00036575
9590.0 0.0003715
9610.0 0.00037735
9630.0 0.00038333
9650.0 0.00038937
9670.0 0.00039545
9690.0 0.00040166
9710.0 0.00040797
9730.0 0.00041431
9750.0 0.00042075
9770.0 0.00042733
9790.0 0.00043393
9810.0 0.00044059
9830.0 0.00044735
9850.0 0.0004542
9870.0 0.00046105
9890.0 0.000468
9910.0 0.00047504
9930.0 0.00048211
9950.0 0.00048922
9970.0 0.00049643
9990.0 0.0005037
10010.0 0.00046576
10030.0 0.0004723
10050.0 0.0004789
10070.0 0.00048543
10090.0 0.00049206
10110.0 0.00049878
10130.0 0.00050549
10150.0 0.00051217
10170.0 0.00051889
10190.0 0.00052564
10210.0 0.00053234
10230.0 0.00053903
10250.0 0.00054576
10270.0 0.00055246
10290.0 0.00055911
10310.0 0.00056577
10330.0 0.00057244
10350.0 0.00057904
10370.0 0.00058559
10390.0 0.00059214
10410.0 0.00059864
10430.0 0.00060504
10450.0 0.00061143
10470.0 0.00061778
10490.0 0.00062403
10510.0 0.0006302
10530.0 0.00063637
10550.0 0.00064243
10570.0 0.00064836
10590.0 0.00065425
10610.0 0.00066006
10630.0 0.00066573
10650.0 0.00067131
10670.0 0.00067683
10690.0 0.00068222
10710.0 0.00068747
10730.0 0.00069264
10750.0 0.00069772
10770.0 0.00070262
10790.0 0.00070739
10810.0 0.00071206
10830.0 0.00071655
10850.0 0.0007208
10870.0 0.00072482
10890.0 0.00072836
10910.0 0.00073116
10930.0 0.00073289
10950.0 0.00073292
10970.0 0.0007308
10990.0 0.00072632
11010.0 0.00073708
11030.0 0.00072598
11050.0 0.00071225
11070.0 0.00069563
11090.0 0.00067548
11110.0 0.00065456
11130.0 0.00063268
11150.0 0.00060911
11170.0 0.00058486
11190.0 0.00056145
11210.0 0.00053742
11230.0 0.00051297
11250.0 0.00048982
11270.0 0.00046779
11290.0 0.00044592
11310.0 0.00042539
11330.0 0.0004074
11350.0 0.00039049
11370.0 0.00037488
11390.0 0.00036132
11410.0 0.00034934
11430.0 0.00033805
11450.0 0.00032809
11470.0 0.00031921
11490.0 0.00031068
11510.0 0.00030222
11530.0 0.00029413
11550.0 0.00028596
11570.0 0.0002772
11590.0 0.00026813
11610.0 0.00025894
11630.0 0.00024905
11650.0 0.0002386
11670.0 0.00022839
11690.0 0.00021815
11710.0 0.00020769
11730.0 0.00019763
11750.0 0.00018834
11770.0 0.00017927
11790.0 0.00017077
11810.0 0.00016325
11830.0 0.00015647
11850.0 0.00015017
11870.0 0.00014478
11890.0 0.00014017
11910.0 0.000136
11930.0 0.00013228
11950.0 0.00012901
11970.0 0.00012597
11990.0 0.00012299
12010.0 0.00012013
12030.0 0.00011732
12050.0 0.0001144
12070.0 0.00011136
12090.0 0.00010841
12110.0 0.00010539
12130.0 0.00010234
12150.0 9.9426e-05
12170.0 9.6741e-05
12190.0 9.4192e-05
12210.0 9.2016e-05
12230.0 9.0312e-05
12250.0 8.907e-05
12270.0 8.8376e-05
12290.0 8.8271e-05
12310.0 8.8711e-05
12330.0 8.9786e-05
12350.0 9.144e-05
12370.0 9.3517e-05
12390.0 9.6074e-05
12410.0 9.9221e-05
12430.0 0.00010246
12450.0 0.00010585
12470.0 0.00010947
12490.0 0.0001131
12510.0 0.00011645
12530.0 0.00011974
12550.0 0.00012287
12570.0 0.00012552
12590.0 0.00012775
12610.0 0.00012965
12630.0 0.00013103
12650.0 0.00013178
12670.0 0.00013207
12690.0 0.00013184
12710.0 0.00013109
12730.0 0.00012987
12750.0 0.00012817
12770.0 0.00012605
12790.0 0.00012362
12810.0 0.00012085
12830.0 0.00011774
12850.0 0.00011454
12870.0 0.0001112
12890.0 0.00010764
12910.0 0.00010403
12930.0 0.00010048
12950.0 9.6785e-05
12970.0 9.3025e-05
12990.0 8.9433e-05
13010.0 8.5864e-05
13030.0 8.2238e-05
13050.0 7.8717e-05
13070.0 7.5375e-05
13090.0 7.1998e-05
13110.0 6.8698e-05
13130.0 6.5612e-05
13150.0 6.2658e-05
13170.0 5.9745e-05
13190.0 5.7113e-05
13210.0 5.4758e-05
13230.0 5.2576e-05
13250.0 5.0654e-05
13270.0 4.9077e-05
13290.0 4.778e-05
13310.0 4.678e-05
13330.0 4.6145e-05
13350.0 4.5846e-05
13370.0 4.5885e-05
13390.0 4.628e-05
13410.0 4.694e-05
13430.0 4.7888e-05
13450.0 4.9129e-05
13470.0 5.0547e-05
13490.0 5.2076e-05
13510.0 5.384e-05
13530.0 5.5651e-05
13550.0 5.7398e-05
13570.0 5.914e-05
13590.0 6.0859e-05
13610.0 6.2398e-05
13630.0 6.3747e-05
13650.0 6.4992e-05
13670.0 6.6028e-05
13690.0 6.6822e-05
13710.0 6.743e-05
13730.0 6.7857e-05
13750.0 6.804e-05
13770.0 6.8039e-05
13790.0 6.7864e-05
13810.0 6.7517e-05
13830.0 6.7031e-05
13850.0 6.6399e-05
13870.0 6.5627e-05
13890.0 6.476e-05
13910.0 6.3803e-05
13930.0 6.2721e-05
13950.0 6.1562e-05
13970.0 6.0395e-05
13990.0 5.9148e-05
14010.0 5.7845e-05
14030.0 5.6562e-05
14050.0 5.5287e-05
14070.0 5.3961e-05
14090.0 5.2704e-05
14110.0 5.1531e-05
14130.0 5.0405e-05
14150.0 4.9352e-05
14170.0 4.8454e-05
14190.0 4.7679e-05
14210.0 4.7021e-05
14230.0 4.6529e-05
14250.0 4.6204e-05
14270.0 4.6036e-05
14290.0 4.6048e-05
14310.0 4.6223e-05
14330.0 4.6557e-05
14350.0 4.7062e-05
14370.0 4.7702e-05
14390.0 4.8441e-05
14410.0 4.9326e-05
14430.0 5.0317e-05
14450.0 5.135e-05
14470.0 5.2449e-05
14490.0 5.365e-05
14510.0 5.4839e-05
14530.0 5.6012e-05
14550.0 5.7236e-05
14570.0 5.8472e-05
14590.0 5.9663e-05
14610.0 6.0882e-05
14630.0 6.2164e-05
14650.0 6.3432e-05
14670.0 6.472e-05
14690.0 6.6109e-05
14710.0 6.76e-05
14730.0 6.9098e-05
14750.0 7.0736e-05
14770.0 7.2544e-05
14790.0 7.444e-05
14810.0 7.6421e-05
14830.0 7.8667e-05
14850.0 8.1008e-05
14870.0 8.3362e-05
14890.0 8.5814e-05
14910.0 8.8334e-05
14930.0 9.0698e-05
14950.0 9.2867e-05
14970.0 9.4887e-05
14990.0 9.6569e-05
15010.0 9.7861e-05
15030.0 9.8832e-05
15050.0 9.9497e-05
15070.0 9.9868e-05
15090.0 0.00010006
15110.0 0.00010012
15130.0 0.0001001
15150.0 0.00010006
15170.0 9.998e-05
15190.0 9.9892e-05
15210.0 9.9811e-05
15230.0 9.9731e-05
15250.0 9.9643e-05
15270.0 9.9559e-05
15290.0 9.949e-05
15310.0 9.9414e-05
15330.0 9.9336e-05
15350.0 9.9268e-05
15370.0 9.9202e-05
15390.0 9.9124e-05
15410.0 9.9055e-05
15430.0 9.8993e-05
15450.0 9.8926e-05
15470.0 9.8855e-05
15490.0 9.8796e-05
15510.0 9.8737e-05
15530.0 9.8669e-05
15550.0 9.8607e-05
15570.0 9.8552e-05
15590.0 9.8487e-05
15610.0 9.8418e-05
15630.0 9.8362e-05
15650.0 9.8303e-05
15670.0 9.8237e-05
15690.0 9.8175e-05
15710.0 9.8121e-05
15730.0 9.8056e-05
15750.0 9.7989e-05
15770.0 9.793e-05
15790.0 9.7868e-05
15810.0 9.7793e-05
15830.0 9.7728e-05
15850.0 9.7668e-05
15870.0 9.7597e-05
15890.0 9.7525e-05
15910.0 9.7461e-05
15930.0 9.7391e-05
15950.0 9.731e-05
15970.0 9.7236e-05
15990.0 9.7165e-05
16010.0 9.7083e-05
16030.0 9.6997e-05
16050.0 9.6924e-05
16070.0 9.6842e-05
16090.0 9.6752e-05
16110.0 9.6667e-05
16130.0 9.6585e-05
16150.0 9.6484e-05
16170.0 9.6387e-05
16190.0 9.6297e-05
16210.0 9.6199e-05
16230.0 9.6091e-05
16250.0 9.5991e-05
16270.0 9.5893e-05
16290.0 9.5779e-05
16310.0 9.5666e-05
16330.0 9.5559e-05
16350.0 9.5443e-05
16370.0 9.5311e-05
16390.0 9.5195e-05
16410.0 9.5075e-05
16430.0 9.4943e-05
16450.0 9.4811e-05
16470.0 9.4686e-05
16490.0 9.4547e-05
16510.0 9.4401e-05
16530.0 9.4262e-05
16550.0 9.4121e-05
16570.0 9.3964e-05
16590.0 9.3808e-05
16610.0 9.3662e-05
16630.0 9.3503e-05
16650.0 9.3337e-05
16670.0 9.3177e-05
16690.0 9.3015e-05
16710.0 9.2833e-05
16730.0 9.2657e-05
16750.0 9.2485e-05
16770.0 9.2302e-05
16790.0 9.211e-05
16810.0 9.1929e-05
16830.0 9.1742e-05
16850.0 9.1542e-05
16870.0 9.1344e-05
16890.0 9.115e-05
16910.0 9.094e-05
16930.0 9.0724e-05
16950.0 9.0519e-05
16970.0 9.0307e-05
16990.0 9.0083e-05
17010.0 8.9862e-05
17030.0 8.9646e-05
17050.0 8.9414e-05
17070.0 8.9178e-05
17090.0 8.8949e-05
17110.0 8.8713e-05
17130.0 8.8461e-05
17150.0 8.8218e-05
17170.0 8.7978e-05
17190.0 8.7724e-05
17210.0 8.7467e-05
17230.0 8.7218e-05
17250.0 8.6959e-05
17270.0 8.6687e-05
17290.0 8.6422e-05
17310.0 8.6158e-05
17330.0 8.5881e-05
17350.0 8.5599e-05
17370.0 8.533e-05
17390.0 8.505e-05
17410.0 8.4761e-05
17430.0 8.4477e-05
17450.0 8.4195e-05
17470.0 8.3892e-05
17490.0 8.3593e-05
17510.0 8.3301e-05
17530.0 8.3001e-05
17550.0 8.2691e-05
17570.0 8.2389e-05
17590.0 8.2087e-05
17610.0 8.177e-05
17630.0 8.1455e-05
17650.0 8.1146e-05
17670.0 8.0827e-05
17690.0 8.0494e-05
17710.0 8.0177e-05
17730.0 7.9857e-05
17750.0 7.9524e-05
17770.0 7.9194e-05
17790.0 7.8872e-05
17810.0 7.8534e-05
17830.0 7.8192e-05
17850.0 7.7858e-05
17870.0 7.7522e-05
17890.0 7.7173e-05
17910.0 7.6826e-05
17930.0 7.6491e-05
17950.0 7.6142e-05
17970.0 7.5789e-05
17990.0 7.5444e-05
18010.0 7.5097e-05
18030.0 7.4733e-05
18050.0 7.4378e-05
18070.0 7.4027e-05
18090.0 7.3667e-05
18110.0 7.3301e-05
18130.0 7.2948e-05
18150.0 7.2589e-05
18170.0 7.222e-05
18190.0 7.1857e-05
18210.0 7.1499e-05
18230.0 7.1127e-05
18250.0 7.0751e-05
18270.0 7.039e-05
18290.0 7.0022e-05
18310.0 6.9646e-05
18330.0 6.9277e-05
18350.0 6.8913e-05
18370.0 6.8535e-05
18390.0 6.8158e-05
18410.0 6.779e-05
18430.0 6.7416e-05
18450.0 6.7031e-05
18470.0 6.6657e-05
18490.0 6.6288e-05
18510.0 6.5908e-05
18530.0 6.5528e-05
18550.0 6.5159e-05
18570.0 6.4781e-05
18590.0 6.4394e-05
18610.0 6.4018e-05
18630.0 6.3645e-05
18650.0 6.3261e-05
18670.0 6.2877e-05
18690.0 6.2507e-05
18710.0 6.2129e-05
18730.0 6.1745e-05
18750.0 6.137e-05
18770.0 6.0998e-05
18790.0 6.0609e-05
18810.0 6.0228e-05
18830.0 5.9856e-05
18850.0 5.9478e-05
18870.0 5.9094e-05
18890.0 5.8722e-05
18910.0 5.835e-05
18930.0 5.7968e-05
18950.0 5.759e-05
18970.0 5.722e-05
18990.0 5.6844e-05
19010.0 5.6457e-05
19030.0 5.6089e-05
19050.0 5.572e-05
19070.0 5.5342e-05
19090.0 5.4969e-05
19110.0 5.4606e-05
19130.0 5.423e-05
19150.0 5.3853e-05
19170.0 5.3488e-05
19190.0 5.3121e-05
19210.0 5.2745e-05
19230.0 5.2376e-05
19250.0 5.2017e-05
19270.0 5.1649e-05
19290.0 5.128e-05
19310.0 5.0922e-05
19330.0 5.0562e-05
19350.0 5.0189e-05
19370.0 4.9828e-05
19390.0 4.9473e-05
19410.0 4.911e-05
19430.0 4.8746e-05
19450.0 4.8396e-05
19470.0 4.8042e-05
19490.0 4.7681e-05
19510.0 4.7327e-05
19530.0 4.698e-05
19550.0 4.6622e-05
19570.0 4.6264e-05
19590.0 4.5921e-05
19610.0 4.5573e-05
19630.0 4.522e-05
19650.0 4.4876e-05
19670.0 4.4538e-05
19690.0 4.4188e-05
19710.0 4.3842e-05
19730.0 4.3505e-05
19750.0 4.3165e-05
19770.0 4.2816e-05
19790.0 4.2481e-05
19810.0 4.2149e-05
19830.0 4.1809e-05
19850.0 4.147e-05
19870.0 4.1138e-05
19890.0 4.0792e-05
19910.0 4.0425e-05
19930.0 4.0047e-05
19950.0 3.9638e-05
19970.0 3.9167e-05
19990.0 3.8634e-05
20010.0 3.7528e-05
20030.0 3.6868e-05
20050.0 3.6124e-05
20070.0 3.5341e-05
20090.0 3.4518e-05
20110.0 3.3613e-05
20130.0 3.2712e-05
20150.0 3.1833e-05
20170.0 3.0935e-05
20190.0 3.0037e-05
20210.0 2.9195e-05
20230.0 2.8379e-05
20250.0 2.7568e-05
20270.0 2.6816e-05
20290.0 2.6128e-05
20310.0 2.5474e-05
20330.0 2.4859e-05
20350.0 2.434e-05
20370.0 2.3873e-05
20390.0 2.3457e-05
20410.0 2.3111e-05
20430.0 2.2833e-05
20450.0 2.2602e-05
20470.0 2.2433e-05
20490.0 2.2323e-05
20510.0 2.2263e-05
20530.0 2.2253e-05
20550.0 2.2289e-05
20570.0 2.236e-05
20590.0 2.2472e-05
20610.0 2.2618e-05
20630.0 2.2785e-05
20650.0 2.2978e-05
20670.0 2.3207e-05
20690.0 2.3441e-05
20710.0 2.3685e-05
20730.0 2.395e-05
20750.0 2.4226e-05
20770.0 2.4494e-05
20790.0 2.4773e-05
20810.0 2.5067e-05
20830.0 2.5353e-05
20850.0 2.5636e-05
20870.0 2.5936e-05
20890.0 2.6237e-05
20910.0 2.6522e-05
20930.0 2.6814e-05
20950.0 2.7115e-05
20970.0 2.7404e-05
20990.0 2.7687e-05
21010.0 2.7985e-05
21030.0 2.8274e-05
21050.0 2.8549e-05
21070.0 2.8824e-05
21090.0 2.9102e-05
21110.0 2.9355e-05
21130.0 2.9594e-05
21150.0 2.983e-05
21170.0 3.0047e-05
21190.0 3.0238e-05
21210.0 3.0418e-05
21230.0 3.0578e-05
21250.0 3.0702e-05
21270.0 3.0798e-05
21290.0 3.0865e-05
21310.0 3.0893e-05
21330.0 3.0879e-05
21350.0 3.0825e-05
21370.0 3.0722e-05
21390.0 3.0574e-05
21410.0 3.0377e-05
21430.0 3.0116e-05
21450.0 2.9807e-05
21470.0 2.9456e-05
21490.0 2.9048e-05
21510.0 2.8587e-05
21530.0 2.8103e-05
21550.0 2.7583e-05
21570.0 2.7015e-05
21590.0 2.644e-05
21610.0 2.5869e-05
21630.0 2.5281e-05
21650.0 2.4688e-05
21670.0 2.4152e-05
21690.0 2.3637e-05
21710.0 2.3148e-05
21730.0 2.2716e-05
21750.0 2.2348e-05
21770.0 2.2021e-05
21790.0 2.1763e-05
21810.0 2.158e-05
21830.0 2.1462e-05
21850.0 2.1412e-05
21870.0 2.1431e-05
21890.0 2.151e-05
21910.0 2.1654e-05
21930.0 2.1857e-05
21950.0 2.2102e-05
21970.0 2.2396e-05
21990.0 2.2751e-05
22010.0 2.3124e-05
22030.0 2.3519e-05
22050.0 2.3953e-05
22070.0 2.4406e-05
22090.0 2.4849e-05
22110.0 2.5311e-05
22130.0 2.5788e-05
22150.0 2.6246e-05
22170.0 2.669e-05
22190.0 2.7144e-05
22210.0 2.7576e-05
22230.0 2.7965e-05
22250.0 2.8339e-05
22270.0 2.8691e-05
22290.0 2.8997e-05
22310.0 2.9264e-05
22330.0 2.9506e-05
22350.0 2.9697e-05
22370.0 2.9837e-05
22390.0 2.9933e-05
22410.0 2.9979e-05
22430.0 2.9968e-05
22450.0 2.9906e-05
22470.0 2.9787e-05
22490.0 2.9612e-05
22510.0 2.9388e-05
22530.0 2.9101e-05
22550.0 2.8749e-05
22570.0 2.8356e-05
22590.0 2.7912e-05
22610.0 2.74e-05
22630.0 2.6845e-05
22650.0 2.6269e-05
22670.0 2.563e-05
22690.0 2.4947e-05
22710.0 2.4253e-05
22730.0 2.3535e-05
22750.0 2.2754e-05
