#lamb flux
1010.0 2.7466e-08
1030.0 3.0956e-08
1050.0 3.4969e-08
1070.0 3.9488e-08
1090.0 4.462e-08
1110.0 4.9883e-08
1130.0 5.5181e-08
1150.0 6.073e-08
1170.0 6.6455e-08
1190.0 7.1883e-08
1210.0 7.7384e-08
1230.0 8.3069e-08
1250.0 8.8639e-08
1270.0 9.4048e-08
1290.0 9.9763e-08
1310.0 1.0547e-07
1330.0 1.1095e-07
1350.0 1.1649e-07
1370.0 1.2221e-07
1390.0 1.2778e-07
1410.0 1.3319e-07
1430.0 1.3885e-07
1450.0 1.445e-07
1470.0 1.4996e-07
1490.0 1.5548e-07
1510.0 1.6131e-07
1530.0 1.6683e-07
1550.0 1.7228e-07
1570.0 1.7791e-07
1590.0 1.8355e-07
1610.0 1.8893e-07
1630.0 1.9447e-07
1650.0 2.0016e-07
1670.0 2.0565e-07
1690.0 2.1107e-07
1710.0 2.1669e-07
1730.0 2.2233e-07
1750.0 2.2762e-07
1770.0 2.3306e-07
1790.0 2.386e-07
1810.0 2.4393e-07
1830.0 2.4915e-07
1850.0 2.5468e-07
1870.0 2.6003e-07
1890.0 2.6517e-07
1910.0 2.7038e-07
1930.0 2.7568e-07
1950.0 2.8068e-07
1970.0 2.8557e-07
1990.0 2.906e-07
2010.0 2.9548e-07
2030.0 3.0009e-07
2050.0 3.0478e-07
2070.0 3.0952e-07
2090.0 3.1385e-07
2110.0 3.1807e-07
2130.0 3.2232e-07
2150.0 3.2635e-07
2170.0 3.3003e-07
2190.0 3.3375e-07
2210.0 3.3735e-07
2230.0 3.4058e-07
2250.0 3.4361e-07
2270.0 3.4669e-07
2290.0 3.4942e-07
2310.0 3.5175e-07
2330.0 3.5402e-07
2350.0 3.5614e-07
2370.0 3.5785e-07
2390.0 3.5946e-07
2410.0 3.6119e-07
2430.0 3.6275e-07
2450.0 3.6428e-07
2470.0 3.6625e-07
2490.0 3.6885e-07
2510.0 3.7192e-07
2530.0 3.7671e-07
2550.0 3.8506e-07
2570.0 3.9866e-07
2590.0 4.1982e-07
2610.0 4.5498e-07
2630.0 5.0563e-07
2650.0 5.6888e-07
2670.0 6.4537e-07
2690.0 7.318e-07
2710.0 8.1495e-07
2730.0 8.8831e-07
2750.0 9.5264e-07
2770.0 1.0007e-06
2790.0 1.0317e-06
2810.0 1.0511e-06
2830.0 1.0621e-06
2850.0 1.0649e-06
2870.0 1.0638e-06
2890.0 1.061e-06
2910.0 1.057e-06
2930.0 1.0518e-06
2950.0 1.0469e-06
2970.0 1.0423e-06
2990.0 1.0373e-06
3010.0 2.1465e-05
3030.0 2.1354e-05
3050.0 2.1243e-05
3070.0 2.1115e-05
3090.0 2.0978e-05
3110.0 2.0813e-05
3130.0 2.0591e-05
3150.0 2.0302e-05
3170.0 1.9923e-05
3190.0 1.9463e-05
3210.0 1.8962e-05
3230.0 1.8459e-05
3250.0 1.804e-05
3270.0 1.7764e-05
3290.0 1.77e-05
3310.0 1.7838e-05
3330.0 1.8219e-05
3350.0 1.8785e-05
3370.0 1.9547e-05
3390.0 2.0483e-05
3410.0 2.149e-05
3430.0 2.2616e-05
3450.0 2.3905e-05
3470.0 2.5299e-05
3490.0 2.6761e-05
3510.0 2.8393e-05
3530.0 3.0123e-05
3550.0 3.1855e-05
3570.0 3.3659e-05
3590.0 3.5667e-05
3610.0 3.7735e-05
3630.0 3.991e-05
3650.0 4.2172e-05
3670.0 4.4299e-05
3690.0 4.596e-05
3710.0 4.6994e-05
3730.0 4.7196e-05
3750.0 4.6561e-05
3770.0 4.2835e-05
3790.0 3.8648e-05
3810.0 3.5833e-05
3830.0 3.1295e-05
3850.0 2.3287e-05
3870.0 1.6556e-05
3890.0 2.7679e-05
3910.0 4.5015e-05
3930.0 5.4441e-05
3950.0 5.3494e-05
3970.0 5.4678e-05
3990.0 6.4224e-05
4010.0 8.2497e-05
4030.0 8.3492e-05
4050.0 7.3997e-05
4070.0 6.5587e-05
4090.0 6.2005e-05
4110.0 7.4738e-05
4130.0 7.812e-05
4150.0 7.6234e-05
4170.0 7.7309e-05
4190.0 7.8814e-05
4210.0 7.7797e-05
4230.0 8.5931e-05
4250.0 9.3927e-05
4270.0 9.5279e-05
4290.0 9.6466e-05
4310.0 9.894e-05
4330.0 0.00010909
4350.0 0.00012581
4370.0 0.00014284
4390.0 0.00013559
4410.0 0.00011104
4430.0 9.3176e-05
4450.0 7.9812e-05
4470.0 7.7474e-05
4490.0 8.5119e-05
4510.0 9.5482e-05
4530.0 0.0001055
4550.0 0.0001222
4570.0 0.00014459
4590.0 0.0001753
4610.0 0.00022511
4630.0 0.00027348
4650.0 0.00028121
4670.0 0.00027153
4690.0 0.00028938
4710.0 0.00030558
4730.0 0.00025919
4750.0 0.00018519
4770.0 0.00015088
4790.0 0.00014581
4810.0 0.00013558
4830.0 0.00012794
4850.0 0.00014652
4870.0 0.00018911
4890.0 0.00021736
4910.0 0.00018442
4930.0 0.0001632
4950.0 0.00018271
4970.0 0.00024488
4990.0 0.00031768
5010.0 0.00033797
5030.0 0.00027957
5050.0 0.00018048
5070.0 0.000124
5090.0 0.00011004
5110.0 0.000115
5130.0 0.00012381
5150.0 0.00013007
5170.0 0.00012992
5190.0 0.00012716
5210.0 0.00012312
5230.0 0.00012612
5250.0 0.00013472
5270.0 0.00015496
5290.0 0.00017871
5310.0 0.00019682
5330.0 0.00020184
5350.0 0.0002033
5370.0 0.00022085
5390.0 0.00023855
5410.0 0.00023193
5430.0 0.00020037
5450.0 0.0001842
5470.0 0.00020626
5490.0 0.00026446
5510.0 0.00033773
5530.0 0.00037533
5550.0 0.00036381
5570.0 0.00032961
5590.0 0.00029385
5610.0 0.00027139
5630.0 0.00025757
5650.0 0.0002633
5670.0 0.00025695
5690.0 0.00023837
5710.0 0.00022565
5730.0 0.00020467
5750.0 0.00014692
5770.0 0.0001275
5790.0 0.00014335
5810.0 0.00017319
5830.0 0.0001971
5850.0 0.00021614
5870.0 0.00022244
5890.0 0.00021482
5910.0 0.00020557
5930.0 0.00020605
5950.0 0.00021575
5970.0 0.00022985
5990.0 0.00021765
6010.0 0.00018308
6030.0 0.00015207
6050.0 0.00013197
6070.0 0.00013117
6090.0 0.00014785
6110.0 0.00016242
6130.0 0.00015654
6150.0 0.00014434
6170.0 0.00015694
6190.0 0.00018918
6210.0 0.00023078
6230.0 0.0002659
6250.0 0.00026659
6270.0 0.00023868
6290.0 0.00019769
6310.0 0.00015708
6330.0 0.00012488
6350.0 0.00011243
6370.0 0.00012164
6390.0 0.00014383
6410.0 0.00016613
6430.0 0.0001926
6450.0 0.00022415
6470.0 0.00027409
6490.0 0.00033747
6510.0 0.00037328
6530.0 0.00034714
6550.0 0.0003187
6570.0 0.00030953
6590.0 0.00029751
6610.0 0.00026566
6630.0 0.0002392
6650.0 0.00022011
6670.0 0.00022813
6690.0 0.00022528
6710.0 0.00020013
6730.0 0.00018186
6750.0 0.00016296
6770.0 0.00015821
6790.0 0.00017429
6810.0 0.00017937
6830.0 0.00018417
6850.0 0.00018037
6870.0 0.00017261
6890.0 0.00016849
6910.0 0.00016217
6930.0 0.00015233
6950.0 0.00015494
6970.0 0.00015724
6990.0 0.00017559
7010.0 0.00018712
7030.0 0.00017143
7050.0 0.00016076
7070.0 0.00015604
7090.0 0.00014284
7110.0 0.00013385
7130.0 0.00013675
7150.0 0.00014353
7170.0 0.00015228
7190.0 0.00015336
7210.0 0.00015215
7230.0 0.00015846
7250.0 0.0001816
7270.0 0.00021248
7290.0 0.00023039
7310.0 0.00022508
7330.0 0.0002003
7350.0 0.00017947
7370.0 0.00017307
7390.0 0.00017458
7410.0 0.00018244
7430.0 0.0001994
7450.0 0.00021591
7470.0 0.00023727
7490.0 0.0002628
7510.0 0.00025547
7530.0 0.00024192
7550.0 0.00020207
7570.0 0.00016532
7590.0 0.00013121
7610.0 0.00011909
7630.0 0.00012553
7650.0 0.00014371
7670.0 0.00015926
7690.0 0.00018033
7710.0 0.00019837
7730.0 0.00020597
7750.0 0.00020856
7770.0 0.00020751
7790.0 0.00020238
7810.0 0.00020793
7830.0 0.00020174
7850.0 0.0001802
7870.0 0.00016233
7890.0 0.00014956
7910.0 0.00013275
7930.0 0.0001139
7950.0 0.00010384
7970.0 0.00010284
7990.0 0.00010719
8010.0 0.00011369
8030.0 0.00011487
8050.0 0.00011483
8070.0 0.00011192
8090.0 0.00011257
8110.0 0.00010658
8130.0 9.7096e-05
8150.0 9.114e-05
8170.0 8.7119e-05
8190.0 8.811e-05
8210.0 9.0313e-05
8230.0 9.5226e-05
8250.0 9.2653e-05
8270.0 8.2859e-05
8290.0 6.5034e-05
8310.0 4.424e-05
8330.0 2.8967e-05
8350.0 2.076e-05
8370.0 2.3985e-05
8390.0 2.6925e-05
8410.0 3.4434e-05
8430.0 4.1862e-05
8450.0 4.6023e-05
8470.0 4.8869e-05
8490.0 4.9333e-05
8510.0 5.0845e-05
8530.0 5.5585e-05
8550.0 6.3032e-05
8570.0 7.5299e-05
8590.0 9.0571e-05
8610.0 0.00010727
8630.0 0.00012514
8650.0 0.00013803
8670.0 0.00013732
8690.0 0.00013104
8710.0 0.00012343
8730.0 0.00011715
8750.0 0.00011072
8770.0 0.00010708
8790.0 0.00010472
8810.0 9.8385e-05
8830.0 8.6515e-05
8850.0 7.3771e-05
8870.0 6.2322e-05
8890.0 5.7675e-05
8910.0 5.9547e-05
8930.0 6.0906e-05
8950.0 6.737e-05
8970.0 6.8851e-05
8990.0 7.0291e-05
9010.0 7.1088e-05
9030.0 7.1351e-05
9050.0 7.1798e-05
9070.0 7.2136e-05
9090.0 7.2385e-05
9110.0 7.2566e-05
9130.0 7.2761e-05
9150.0 7.2981e-05
9170.0 7.3209e-05
9190.0 7.3446e-05
9210.0 7.373e-05
9230.0 7.3996e-05
9250.0 7.4288e-05
9270.0 7.4593e-05
9290.0 7.4913e-05
9310.0 7.5257e-05
9330.0 7.5617e-05
9350.0 7.5987e-05
9370.0 7.6377e-05
9390.0 7.6786e-05
9410.0 7.7207e-05
9430.0 7.7638e-05
9450.0 7.8094e-05
9470.0 7.8564e-05
9490.0 7.9043e-05
9510.0 7.9539e-05
9530.0 8.0055e-05
9550.0 8.0576e-05
9570.0 8.1109e-05
9590.0 8.1662e-05
9610.0 8.2227e-05
9630.0 8.2798e-05
9650.0 8.3385e-05
9670.0 8.399e-05
9690.0 8.4598e-05
9710.0 8.5217e-05
9730.0 8.5852e-05
9750.0 8.6496e-05
9770.0 8.7139e-05
9790.0 8.78e-05
9810.0 8.8472e-05
9830.0 8.9147e-05
9850.0 8.9828e-05
9870.0 9.0524e-05
9890.0 9.1223e-05
9910.0 9.1922e-05
9930.0 9.2632e-05
9950.0 9.3348e-05
9970.0 9.4062e-05
9990.0 9.4778e-05
10010.0 9.2329e-05
10030.0 9.3018e-05
10050.0 9.3702e-05
10070.0 9.4381e-05
10090.0 9.5084e-05
10110.0 9.5773e-05
10130.0 9.6462e-05
10150.0 9.7157e-05
10170.0 9.7844e-05
10190.0 9.8519e-05
10210.0 9.9202e-05
10230.0 9.9883e-05
10250.0 0.00010055
10270.0 0.00010121
10290.0 0.00010188
10310.0 0.00010253
10330.0 0.00010316
10350.0 0.0001038
10370.0 0.00010443
10390.0 0.00010504
10410.0 0.00010564
10430.0 0.00010624
10450.0 0.00010683
10470.0 0.00010739
10490.0 0.00010795
10510.0 0.0001085
10530.0 0.00010902
10550.0 0.00010953
10570.0 0.00011004
10590.0 0.00011053
10610.0 0.00011099
10630.0 0.00011144
10650.0 0.00011188
10670.0 0.00011229
10690.0 0.00011269
10710.0 0.00011307
10730.0 0.00011343
10750.0 0.00011376
10770.0 0.00011408
10790.0 0.00011439
10810.0 0.00011466
10830.0 0.00011491
10850.0 0.00011514
10870.0 0.00011531
10890.0 0.00011542
10910.0 0.00011544
10930.0 0.00011531
10950.0 0.00011492
10970.0 0.00011426
10990.0 0.00011328
11010.0 0.0001093
11030.0 0.00010747
11050.0 0.00010532
11070.0 0.00010279
11090.0 9.9768e-05
11110.0 9.6665e-05
11130.0 9.3443e-05
11150.0 8.9989e-05
11170.0 8.6465e-05
11190.0 8.31e-05
11210.0 7.9687e-05
11230.0 7.6268e-05
11250.0 7.3093e-05
11270.0 7.0134e-05
11290.0 6.7259e-05
11310.0 6.4626e-05
11330.0 6.2379e-05
11350.0 6.0309e-05
11370.0 5.8436e-05
11390.0 5.6834e-05
11410.0 5.5428e-05
11430.0 5.4091e-05
11450.0 5.2885e-05
11470.0 5.1771e-05
11490.0 5.0649e-05
11510.0 4.947e-05
11530.0 4.8291e-05
11550.0 4.7054e-05
11570.0 4.5689e-05
11590.0 4.4252e-05
11610.0 4.2791e-05
11630.0 4.1218e-05
11650.0 3.9569e-05
11670.0 3.7981e-05
11690.0 3.6411e-05
11710.0 3.4835e-05
11730.0 3.3349e-05
11750.0 3.2005e-05
11770.0 3.0718e-05
11790.0 2.9535e-05
11810.0 2.8509e-05
11830.0 2.7598e-05
11850.0 2.6759e-05
11870.0 2.6045e-05
11890.0 2.5431e-05
11910.0 2.4862e-05
11930.0 2.4334e-05
11950.0 2.3849e-05
11970.0 2.3371e-05
11990.0 2.2871e-05
12010.0 2.2367e-05
12030.0 2.1853e-05
12050.0 2.1304e-05
12070.0 2.0724e-05
12090.0 2.0163e-05
12110.0 1.9594e-05
12130.0 1.9025e-05
12150.0 1.8495e-05
12170.0 1.802e-05
12190.0 1.7582e-05
12210.0 1.7228e-05
12230.0 1.697e-05
12250.0 1.6806e-05
12270.0 1.6749e-05
12290.0 1.6801e-05
12310.0 1.6951e-05
12330.0 1.7213e-05
12350.0 1.7572e-05
12370.0 1.7997e-05
12390.0 1.8498e-05
12410.0 1.9088e-05
12430.0 1.968e-05
12450.0 2.0282e-05
12470.0 2.0908e-05
12490.0 2.1517e-05
12510.0 2.2062e-05
12530.0 2.2581e-05
12550.0 2.3053e-05
12570.0 2.3436e-05
12590.0 2.3737e-05
12610.0 2.397e-05
12630.0 2.411e-05
12650.0 2.4152e-05
12670.0 2.4118e-05
12690.0 2.4003e-05
12710.0 2.3814e-05
12730.0 2.3563e-05
12750.0 2.3242e-05
12770.0 2.2872e-05
12790.0 2.2468e-05
12810.0 2.202e-05
12830.0 2.1532e-05
12850.0 2.1036e-05
12870.0 2.0524e-05
12890.0 1.9978e-05
12910.0 1.9424e-05
12930.0 1.8872e-05
12950.0 1.8292e-05
12970.0 1.7692e-05
12990.0 1.7109e-05
13010.0 1.6521e-05
13030.0 1.5914e-05
13050.0 1.5317e-05
13070.0 1.4746e-05
13090.0 1.4165e-05
13110.0 1.3598e-05
13130.0 1.3069e-05
13150.0 1.2569e-05
13170.0 1.2083e-05
13190.0 1.1655e-05
13210.0 1.1284e-05
13230.0 1.0955e-05
13250.0 1.0683e-05
13270.0 1.0478e-05
13290.0 1.0331e-05
13310.0 1.0245e-05
13330.0 1.0225e-05
13350.0 1.0261e-05
13370.0 1.0355e-05
13390.0 1.0506e-05
13410.0 1.0688e-05
13430.0 1.0909e-05
13450.0 1.1165e-05
13470.0 1.1434e-05
13490.0 1.1704e-05
13510.0 1.1996e-05
13530.0 1.2278e-05
13550.0 1.2536e-05
13570.0 1.2779e-05
13590.0 1.3006e-05
13610.0 1.3196e-05
13630.0 1.3353e-05
13650.0 1.3486e-05
13670.0 1.3586e-05
13690.0 1.3649e-05
13710.0 1.3685e-05
13730.0 1.3692e-05
13750.0 1.3669e-05
13770.0 1.3622e-05
13790.0 1.3551e-05
13810.0 1.3458e-05
13830.0 1.335e-05
13850.0 1.3222e-05
13870.0 1.3077e-05
13890.0 1.2921e-05
13910.0 1.2754e-05
13930.0 1.2571e-05
13950.0 1.2379e-05
13970.0 1.2188e-05
13990.0 1.1986e-05
14010.0 1.1779e-05
14030.0 1.1577e-05
14050.0 1.1379e-05
14070.0 1.1176e-05
14090.0 1.0986e-05
14110.0 1.0813e-05
14130.0 1.065e-05
14150.0 1.0503e-05
14170.0 1.0381e-05
14190.0 1.0281e-05
14210.0 1.0203e-05
14230.0 1.0151e-05
14250.0 1.0126e-05
14270.0 1.0127e-05
14290.0 1.0156e-05
14310.0 1.0208e-05
14330.0 1.0283e-05
14350.0 1.0382e-05
14370.0 1.0497e-05
14390.0 1.0624e-05
14410.0 1.0769e-05
14430.0 1.0925e-05
14450.0 1.1083e-05
14470.0 1.1248e-05
14490.0 1.1427e-05
14510.0 1.1603e-05
14530.0 1.1778e-05
14550.0 1.1966e-05
14570.0 1.2163e-05
14590.0 1.2362e-05
14610.0 1.2578e-05
14630.0 1.2821e-05
14650.0 1.3077e-05
14670.0 1.3351e-05
14690.0 1.3661e-05
14710.0 1.4003e-05
14730.0 1.4352e-05
14750.0 1.4733e-05
14770.0 1.5149e-05
14790.0 1.5573e-05
14810.0 1.6002e-05
14830.0 1.6467e-05
14850.0 1.6927e-05
14870.0 1.7365e-05
14890.0 1.7795e-05
14910.0 1.8211e-05
14930.0 1.8578e-05
14950.0 1.8896e-05
14970.0 1.9174e-05
14990.0 1.9391e-05
15010.0 1.9544e-05
15030.0 1.9647e-05
15050.0 1.9704e-05
15070.0 1.9722e-05
15090.0 1.9715e-05
15110.0 1.9691e-05
15130.0 1.9657e-05
15150.0 1.9619e-05
15170.0 1.9578e-05
15190.0 1.9534e-05
15210.0 1.9492e-05
15230.0 1.9451e-05
15250.0 1.9407e-05
15270.0 1.9364e-05
15290.0 1.9325e-05
15310.0 1.9283e-05
15330.0 1.9241e-05
15350.0 1.9201e-05
15370.0 1.9162e-05
15390.0 1.9119e-05
15410.0 1.9078e-05
15430.0 1.9039e-05
15450.0 1.8999e-05
15470.0 1.8957e-05
15490.0 1.8918e-05
15510.0 1.888e-05
15530.0 1.8839e-05
15550.0 1.8799e-05
15570.0 1.8761e-05
15590.0 1.872e-05
15610.0 1.8679e-05
15630.0 1.864e-05
15650.0 1.8601e-05
15670.0 1.856e-05
15690.0 1.852e-05
15710.0 1.8482e-05
15730.0 1.8441e-05
15750.0 1.84e-05
15770.0 1.8361e-05
15790.0 1.8321e-05
15810.0 1.8278e-05
15830.0 1.8238e-05
15850.0 1.8198e-05
15870.0 1.8157e-05
15890.0 1.8115e-05
15910.0 1.8075e-05
15930.0 1.8034e-05
15950.0 1.799e-05
15970.0 1.7949e-05
15990.0 1.7908e-05
16010.0 1.7864e-05
16030.0 1.782e-05
16050.0 1.7779e-05
16070.0 1.7736e-05
16090.0 1.7692e-05
16110.0 1.7649e-05
16130.0 1.7606e-05
16150.0 1.756e-05
16170.0 1.7515e-05
16190.0 1.7471e-05
16210.0 1.7426e-05
16230.0 1.738e-05
16250.0 1.7334e-05
16270.0 1.729e-05
16290.0 1.7242e-05
16310.0 1.7195e-05
16330.0 1.7149e-05
16350.0 1.7102e-05
16370.0 1.7052e-05
16390.0 1.7005e-05
16410.0 1.6957e-05
16430.0 1.6907e-05
16450.0 1.6858e-05
16470.0 1.681e-05
16490.0 1.676e-05
16510.0 1.6708e-05
16530.0 1.6658e-05
16550.0 1.6608e-05
16570.0 1.6555e-05
16590.0 1.6503e-05
16610.0 1.6452e-05
16630.0 1.64e-05
16650.0 1.6346e-05
16670.0 1.6294e-05
16690.0 1.6241e-05
16710.0 1.6185e-05
16730.0 1.6131e-05
16750.0 1.6077e-05
16770.0 1.6022e-05
16790.0 1.5965e-05
16810.0 1.591e-05
16830.0 1.5855e-05
16850.0 1.5797e-05
16870.0 1.574e-05
16890.0 1.5685e-05
16910.0 1.5626e-05
16930.0 1.5566e-05
16950.0 1.5509e-05
16970.0 1.5451e-05
16990.0 1.5391e-05
17010.0 1.5332e-05
17030.0 1.5274e-05
17050.0 1.5213e-05
17070.0 1.5152e-05
17090.0 1.5092e-05
17110.0 1.5032e-05
17130.0 1.4968e-05
17150.0 1.4907e-05
17170.0 1.4846e-05
17190.0 1.4783e-05
17210.0 1.472e-05
17230.0 1.4659e-05
17250.0 1.4596e-05
17270.0 1.4531e-05
17290.0 1.4468e-05
17310.0 1.4405e-05
17330.0 1.434e-05
17350.0 1.4274e-05
17370.0 1.4211e-05
17390.0 1.4146e-05
17410.0 1.408e-05
17430.0 1.4015e-05
17450.0 1.3951e-05
17470.0 1.3883e-05
17490.0 1.3816e-05
17510.0 1.3751e-05
17530.0 1.3685e-05
17550.0 1.3617e-05
17570.0 1.355e-05
17590.0 1.3485e-05
17610.0 1.3416e-05
17630.0 1.3348e-05
17650.0 1.3282e-05
17670.0 1.3214e-05
17690.0 1.3144e-05
17710.0 1.3077e-05
17730.0 1.3009e-05
17750.0 1.294e-05
17770.0 1.2871e-05
17790.0 1.2804e-05
17810.0 1.2735e-05
17830.0 1.2665e-05
17850.0 1.2597e-05
17870.0 1.2528e-05
17890.0 1.2457e-05
17910.0 1.2388e-05
17930.0 1.232e-05
17950.0 1.225e-05
17970.0 1.218e-05
17990.0 1.2112e-05
18010.0 1.2043e-05
18030.0 1.1971e-05
18050.0 1.1901e-05
18070.0 1.1833e-05
18090.0 1.1763e-05
18110.0 1.1692e-05
18130.0 1.1623e-05
18150.0 1.1554e-05
18170.0 1.1483e-05
18190.0 1.1413e-05
18210.0 1.1345e-05
18230.0 1.1274e-05
18250.0 1.1203e-05
18270.0 1.1134e-05
18290.0 1.1065e-05
18310.0 1.0994e-05
18330.0 1.0925e-05
18350.0 1.0857e-05
18370.0 1.0787e-05
18390.0 1.0716e-05
18410.0 1.0648e-05
18430.0 1.0579e-05
18450.0 1.0508e-05
18470.0 1.0439e-05
18490.0 1.0371e-05
18510.0 1.0302e-05
18530.0 1.0232e-05
18550.0 1.0165e-05
18570.0 1.0096e-05
18590.0 1.0026e-05
18610.0 9.9578e-06
18630.0 9.8903e-06
18650.0 9.8211e-06
18670.0 9.752e-06
18690.0 9.6856e-06
18710.0 9.6179e-06
18730.0 9.5492e-06
18750.0 9.4822e-06
18770.0 9.416e-06
18790.0 9.3468e-06
18810.0 9.2792e-06
18830.0 9.2133e-06
18850.0 9.1464e-06
18870.0 9.0786e-06
18890.0 9.013e-06
18910.0 8.9477e-06
18930.0 8.8804e-06
18950.0 8.8142e-06
18970.0 8.7495e-06
18990.0 8.6836e-06
19010.0 8.616e-06
19030.0 8.5519e-06
19050.0 8.4876e-06
19070.0 8.4218e-06
19090.0 8.357e-06
19110.0 8.2942e-06
19130.0 8.229e-06
19150.0 8.1639e-06
19170.0 8.1007e-06
19190.0 8.0375e-06
19210.0 7.9727e-06
19230.0 7.909e-06
19250.0 7.8474e-06
19270.0 7.7842e-06
19290.0 7.7208e-06
19310.0 7.6594e-06
19330.0 7.5978e-06
19350.0 7.5339e-06
19370.0 7.4721e-06
19390.0 7.4115e-06
19410.0 7.3496e-06
19430.0 7.2875e-06
19450.0 7.2278e-06
19470.0 7.1676e-06
19490.0 7.1061e-06
19510.0 7.046e-06
19530.0 6.9871e-06
19550.0 6.9262e-06
19570.0 6.8654e-06
19590.0 6.8072e-06
19610.0 6.7484e-06
19630.0 6.6885e-06
19650.0 6.6302e-06
19670.0 6.573e-06
19690.0 6.5138e-06
19710.0 6.4552e-06
19730.0 6.3984e-06
19750.0 6.3409e-06
19770.0 6.2819e-06
19790.0 6.2253e-06
19810.0 6.1694e-06
19830.0 6.112e-06
19850.0 6.0549e-06
19870.0 5.9991e-06
19890.0 5.9409e-06
19910.0 5.8796e-06
19930.0 5.8171e-06
19950.0 5.7501e-06
19970.0 5.6742e-06
19990.0 5.5896e-06
20010.0 5.6081e-06
20030.0 5.5035e-06
20050.0 5.3876e-06
20070.0 5.2676e-06
20090.0 5.1435e-06
20110.0 5.0091e-06
20130.0 4.8777e-06
20150.0 4.7515e-06
20170.0 4.6248e-06
20190.0 4.5e-06
20210.0 4.3847e-06
20230.0 4.2748e-06
20250.0 4.1672e-06
20270.0 4.069e-06
20290.0 3.9807e-06
20310.0 3.8982e-06
20330.0 3.8226e-06
20350.0 3.7607e-06
20370.0 3.7069e-06
20390.0 3.6613e-06
20410.0 3.6261e-06
20430.0 3.6006e-06
20450.0 3.5831e-06
20470.0 3.5749e-06
20490.0 3.5749e-06
20510.0 3.5824e-06
20530.0 3.5977e-06
20550.0 3.6191e-06
20570.0 3.6448e-06
20590.0 3.6766e-06
20610.0 3.7128e-06
20630.0 3.7509e-06
20650.0 3.7922e-06
20670.0 3.8382e-06
20690.0 3.8836e-06
20710.0 3.9292e-06
20730.0 3.9773e-06
20750.0 4.0262e-06
20770.0 4.0728e-06
20790.0 4.1209e-06
20810.0 4.1707e-06
20830.0 4.2192e-06
20850.0 4.2672e-06
20870.0 4.3182e-06
20890.0 4.37e-06
20910.0 4.4196e-06
20930.0 4.4712e-06
20950.0 4.5251e-06
20970.0 4.5778e-06
20990.0 4.6302e-06
21010.0 4.6859e-06
21030.0 4.7407e-06
21050.0 4.7933e-06
21070.0 4.8462e-06
21090.0 4.8997e-06
21110.0 4.9485e-06
21130.0 4.9947e-06
21150.0 5.0399e-06
21170.0 5.0813e-06
21190.0 5.1175e-06
21210.0 5.1513e-06
21230.0 5.1811e-06
21250.0 5.2046e-06
21270.0 5.2229e-06
21290.0 5.2362e-06
21310.0 5.2432e-06
21330.0 5.2435e-06
21350.0 5.2375e-06
21370.0 5.2243e-06
21390.0 5.204e-06
21410.0 5.1768e-06
21430.0 5.14e-06
21450.0 5.0962e-06
21470.0 5.0463e-06
21490.0 4.9878e-06
21510.0 4.9214e-06
21530.0 4.8515e-06
21550.0 4.7759e-06
21570.0 4.6927e-06
21590.0 4.608e-06
21610.0 4.5232e-06
21630.0 4.4352e-06
21650.0 4.3455e-06
21670.0 4.2638e-06
21690.0 4.1844e-06
21710.0 4.1079e-06
21730.0 4.0394e-06
21750.0 3.98e-06
21770.0 3.9259e-06
21790.0 3.8819e-06
21810.0 3.8491e-06
21830.0 3.8261e-06
21850.0 3.8134e-06
21870.0 3.8117e-06
21890.0 3.8197e-06
21910.0 3.8383e-06
21930.0 3.8667e-06
21950.0 3.9028e-06
21970.0 3.9477e-06
21990.0 4.0031e-06
22010.0 4.063e-06
22030.0 4.1278e-06
22050.0 4.2002e-06
22070.0 4.2771e-06
22090.0 4.3537e-06
22110.0 4.4346e-06
22130.0 4.5191e-06
22150.0 4.6015e-06
22170.0 4.682e-06
22190.0 4.7647e-06
22210.0 4.8441e-06
22230.0 4.9159e-06
22250.0 4.9849e-06
22270.0 5.0495e-06
22290.0 5.1054e-06
22310.0 5.1535e-06
22330.0 5.1958e-06
22350.0 5.2282e-06
22370.0 5.2503e-06
22390.0 5.2632e-06
22410.0 5.2656e-06
22430.0 5.2573e-06
22450.0 5.2389e-06
22470.0 5.2092e-06
22490.0 5.169e-06
22510.0 5.1204e-06
22530.0 5.0596e-06
22550.0 4.9873e-06
22570.0 4.9087e-06
22590.0 4.8216e-06
22610.0 4.7228e-06
