#lamb flux
1010.0 5.5898e-07
1030.0 6.1599e-07
1050.0 6.8155e-07
1070.0 7.5536e-07
1090.0 8.3919e-07
1110.0 9.2517e-07
1130.0 1.0117e-06
1150.0 1.1024e-06
1170.0 1.1959e-06
1190.0 1.2846e-06
1210.0 1.3744e-06
1230.0 1.4673e-06
1250.0 1.5583e-06
1270.0 1.6466e-06
1290.0 1.74e-06
1310.0 1.8333e-06
1330.0 1.9228e-06
1350.0 2.0133e-06
1370.0 2.1067e-06
1390.0 2.1978e-06
1410.0 2.2861e-06
1430.0 2.3785e-06
1450.0 2.4709e-06
1470.0 2.5601e-06
1490.0 2.6503e-06
1510.0 2.7456e-06
1530.0 2.8359e-06
1550.0 2.9249e-06
1570.0 3.017e-06
1590.0 3.1091e-06
1610.0 3.1971e-06
1630.0 3.2878e-06
1650.0 3.3808e-06
1670.0 3.4708e-06
1690.0 3.5595e-06
1710.0 3.6516e-06
1730.0 3.7441e-06
1750.0 3.8309e-06
1770.0 3.9202e-06
1790.0 4.0111e-06
1810.0 4.099e-06
1830.0 4.185e-06
1850.0 4.2762e-06
1870.0 4.3647e-06
1890.0 4.4498e-06
1910.0 4.5363e-06
1930.0 4.6245e-06
1950.0 4.708e-06
1970.0 4.7898e-06
1990.0 4.8744e-06
2010.0 4.9567e-06
2030.0 5.0349e-06
2050.0 5.1149e-06
2070.0 5.1961e-06
2090.0 5.271e-06
2110.0 5.3444e-06
2130.0 5.419e-06
2150.0 5.4904e-06
2170.0 5.5564e-06
2190.0 5.6239e-06
2210.0 5.69e-06
2230.0 5.7506e-06
2250.0 5.8087e-06
2270.0 5.8683e-06
2290.0 5.9227e-06
2310.0 5.9712e-06
2330.0 6.0197e-06
2350.0 6.0665e-06
2370.0 6.1077e-06
2390.0 6.1483e-06
2410.0 6.1931e-06
2430.0 6.2378e-06
2450.0 6.2859e-06
2470.0 6.3477e-06
2490.0 6.431e-06
2510.0 6.5366e-06
2530.0 6.6964e-06
2550.0 6.957e-06
2570.0 7.3567e-06
2590.0 7.9403e-06
2610.0 8.8435e-06
2630.0 1.007e-05
2650.0 1.153e-05
2670.0 1.3219e-05
2690.0 1.5049e-05
2710.0 1.675e-05
2730.0 1.8209e-05
2750.0 1.9456e-05
2770.0 2.0376e-05
2790.0 2.0983e-05
2810.0 2.139e-05
2830.0 2.1675e-05
2850.0 2.1841e-05
2870.0 2.1962e-05
2890.0 2.208e-05
2910.0 2.2189e-05
2930.0 2.2278e-05
2950.0 2.238e-05
2970.0 2.249e-05
2990.0 2.2583e-05
3010.0 0.00026492
3030.0 0.00026609
3050.0 0.00026718
3070.0 0.00026784
3090.0 0.0002683
3110.0 0.00026821
3130.0 0.00026712
3150.0 0.00026488
3170.0 0.00026119
3190.0 0.00025614
3210.0 0.00025031
3230.0 0.00024435
3250.0 0.0002396
3270.0 0.00023667
3290.0 0.00023682
3310.0 0.00023949
3330.0 0.00024555
3350.0 0.00025406
3370.0 0.00026515
3390.0 0.00027841
3410.0 0.00029232
3430.0 0.00030744
3450.0 0.00032416
3470.0 0.00034163
3490.0 0.00035937
3510.0 0.0003787
3530.0 0.00039881
3550.0 0.00041844
3570.0 0.00043848
3590.0 0.00046049
3610.0 0.00048204
3630.0 0.00050424
3650.0 0.00052626
3670.0 0.00054638
3690.0 0.00056181
3710.0 0.00057218
3730.0 0.00057771
3750.0 0.00057949
3770.0 0.00053988
3790.0 0.00050106
3810.0 0.0004402
3830.0 0.00032907
3850.0 0.00023965
3870.0 0.00023452
3890.0 0.0002945
3910.0 0.00045757
3930.0 0.00060857
3950.0 0.00068645
3970.0 0.00072078
3990.0 0.00076956
4010.0 0.00085224
4030.0 0.00085143
4050.0 0.00080134
4070.0 0.00074366
4090.0 0.00071181
4110.0 0.00076399
4130.0 0.00078525
4150.0 0.00078598
4170.0 0.00080782
4190.0 0.00080793
4210.0 0.00082542
4230.0 0.00089271
4250.0 0.00097603
4270.0 0.0010174
4290.0 0.0010077
4310.0 0.0010267
4330.0 0.0010973
4350.0 0.0012712
4370.0 0.0014294
4390.0 0.0013431
4410.0 0.0011058
4430.0 0.00094631
4450.0 0.00080074
4470.0 0.00074128
4490.0 0.00083723
4510.0 0.00099446
4530.0 0.0011003
4550.0 0.0012148
4570.0 0.0014203
4590.0 0.0017407
4610.0 0.0022857
4630.0 0.0027577
4650.0 0.0027931
4670.0 0.00277
4690.0 0.0029401
4710.0 0.0029686
4730.0 0.0024685
4750.0 0.0018622
4770.0 0.001509
4790.0 0.0014604
4810.0 0.0013879
4830.0 0.001384
4850.0 0.0016327
4870.0 0.0020307
4890.0 0.0021778
4910.0 0.0018874
4930.0 0.0017783
4950.0 0.0020631
4970.0 0.0027162
4990.0 0.0033254
5010.0 0.0034015
5030.0 0.0027279
5050.0 0.0018642
5070.0 0.0013716
5090.0 0.0011839
5110.0 0.0011681
5130.0 0.0012664
5150.0 0.0013115
5170.0 0.0012942
5190.0 0.0012843
5210.0 0.0012553
5230.0 0.0013192
5250.0 0.0014416
5270.0 0.0016499
5290.0 0.0019087
5310.0 0.0020773
5330.0 0.0021461
5350.0 0.0022764
5370.0 0.0024934
5390.0 0.0025817
5410.0 0.0023767
5430.0 0.0020997
5450.0 0.0020669
5470.0 0.0024625
5490.0 0.003118
5510.0 0.0037885
5530.0 0.0040951
5550.0 0.0039665
5570.0 0.0036731
5590.0 0.0033232
5610.0 0.0031829
5630.0 0.0031939
5650.0 0.0032083
5670.0 0.003145
5690.0 0.0029705
5710.0 0.0028371
5730.0 0.0025176
5750.0 0.0019348
5770.0 0.0016973
5790.0 0.0018372
5810.0 0.0021437
5830.0 0.0024337
5850.0 0.0026045
5870.0 0.0026117
5890.0 0.0024337
5910.0 0.0023576
5930.0 0.0023838
5950.0 0.0025004
5970.0 0.0025824
5990.0 0.0023573
6010.0 0.0019464
6030.0 0.0016112
6050.0 0.0014766
6070.0 0.0015363
6090.0 0.0016972
6110.0 0.0017316
6130.0 0.0016134
6150.0 0.0015709
6170.0 0.0017234
6190.0 0.0020622
6210.0 0.0024768
6230.0 0.0027605
6250.0 0.0027375
6270.0 0.0024217
6290.0 0.0019973
6310.0 0.0016006
6330.0 0.001324
6350.0 0.0012539
6370.0 0.001376
6390.0 0.0015813
6410.0 0.0018369
6430.0 0.0021227
6450.0 0.0024942
6470.0 0.0030839
6490.0 0.0037607
6510.0 0.0039811
6530.0 0.003752
6550.0 0.0035799
6570.0 0.0035381
6590.0 0.0033943
6610.0 0.003128
6630.0 0.0029115
6650.0 0.0027939
6670.0 0.0027889
6690.0 0.0027093
6710.0 0.0024374
6730.0 0.0021139
6750.0 0.0019388
6770.0 0.0020405
6790.0 0.0021923
6810.0 0.0022597
6830.0 0.0022896
6850.0 0.0022068
6870.0 0.0021044
6890.0 0.0020384
6910.0 0.0019421
6930.0 0.0018768
6950.0 0.0018938
6970.0 0.0019632
6990.0 0.0021573
7010.0 0.0022525
7030.0 0.0021504
7050.0 0.0019704
7070.0 0.0017161
7090.0 0.0014585
7110.0 0.0013666
7130.0 0.0014265
7150.0 0.0014879
7170.0 0.0015275
7190.0 0.0014984
7210.0 0.0014909
7230.0 0.0016694
7250.0 0.00194
7270.0 0.0021797
7290.0 0.0023025
7310.0 0.0021539
7330.0 0.0019248
7350.0 0.0017551
7370.0 0.0017133
7390.0 0.001793
7410.0 0.0019273
7430.0 0.0021198
7450.0 0.0023443
7470.0 0.0025487
7490.0 0.0025947
7510.0 0.002256
7530.0 0.0022366
7550.0 0.002026
7570.0 0.0017299
7590.0 0.0013919
7610.0 0.0013006
7630.0 0.0014173
7650.0 0.0016513
7670.0 0.0018928
7690.0 0.0020909
7710.0 0.0022957
7730.0 0.0024792
7750.0 0.0026108
7770.0 0.0025718
7790.0 0.0025567
7810.0 0.0026032
7830.0 0.0025785
7850.0 0.0024766
7870.0 0.0023267
7890.0 0.0021417
7910.0 0.0018965
7930.0 0.001683
7950.0 0.0015494
7970.0 0.0015136
7990.0 0.0015664
8010.0 0.001601
8030.0 0.0016222
8050.0 0.0016388
8070.0 0.001621
8090.0 0.0016159
8110.0 0.0015579
8130.0 0.0014556
8150.0 0.0013747
8170.0 0.0013599
8190.0 0.0013833
8210.0 0.0013964
8230.0 0.0013845
8250.0 0.0013377
8270.0 0.0011812
8290.0 0.00093394
8310.0 0.00067977
8330.0 0.00045732
8350.0 0.00032674
8370.0 0.00033176
8390.0 0.00040233
8410.0 0.00050826
8430.0 0.00062053
8450.0 0.00068184
8470.0 0.00071586
8490.0 0.00075041
8510.0 0.00079016
8530.0 0.00087705
8550.0 0.0010214
8570.0 0.001201
8590.0 0.0013874
8610.0 0.0016191
8630.0 0.0018809
8650.0 0.0020405
8670.0 0.0020408
8690.0 0.0019696
8710.0 0.0018701
8730.0 0.0017924
8750.0 0.0017201
8770.0 0.0016742
8790.0 0.0016081
8810.0 0.0014932
8830.0 0.0013656
8850.0 0.0011723
8870.0 0.0010376
8890.0 0.00096285
8910.0 0.0010113
8930.0 0.00099253
8950.0 0.0010201
8970.0 0.0010323
8990.0 0.001047
9010.0 0.0010651
9030.0 0.0010507
9050.0 0.0010497
9070.0 0.0010505
9090.0 0.0010513
9110.0 0.0010518
9130.0 0.0010528
9150.0 0.0010543
9170.0 0.0010552
9190.0 0.0010554
9210.0 0.0010612
9230.0 0.001062
9250.0 0.0010636
9270.0 0.0010654
9290.0 0.0010674
9310.0 0.0010697
9330.0 0.0010721
9350.0 0.0010747
9370.0 0.0010774
9390.0 0.0010803
9410.0 0.0010832
9430.0 0.0010863
9450.0 0.0010895
9470.0 0.0010929
9490.0 0.0010963
9510.0 0.0010998
9530.0 0.0011035
9550.0 0.0011073
9570.0 0.0011112
9590.0 0.0011152
9610.0 0.0011193
9630.0 0.0011234
9650.0 0.0011277
9670.0 0.0011321
9690.0 0.0011366
9710.0 0.0011411
9730.0 0.0011458
9750.0 0.0011505
9770.0 0.0011552
9790.0 0.0011601
9810.0 0.001165
9830.0 0.00117
9850.0 0.001175
9870.0 0.0011801
9890.0 0.0011852
9910.0 0.0011904
9930.0 0.0011956
9950.0 0.0012005
9970.0 0.0012059
9990.0 0.0012112
10010.0 0.0012152
10030.0 0.0012205
10050.0 0.0012256
10070.0 0.0012293
10090.0 0.0012352
10110.0 0.001241
10130.0 0.0012466
10150.0 0.0012521
10170.0 0.0012575
10190.0 0.0012626
10210.0 0.0012678
10230.0 0.001273
10250.0 0.0012781
10270.0 0.001283
10290.0 0.0012881
10310.0 0.0012929
10330.0 0.0012976
10350.0 0.0013023
10370.0 0.001307
10390.0 0.0013114
10410.0 0.0013158
10430.0 0.0013202
10450.0 0.0013244
10470.0 0.0013284
10490.0 0.0013324
10510.0 0.0013364
10530.0 0.0013399
10550.0 0.0013435
10570.0 0.001347
10590.0 0.0013503
10610.0 0.0013533
10630.0 0.0013564
10650.0 0.0013593
10670.0 0.0013618
10690.0 0.0013643
10710.0 0.0013667
10730.0 0.0013689
10750.0 0.0013707
10770.0 0.0013726
10790.0 0.0013743
10810.0 0.0013756
10830.0 0.0013768
10850.0 0.0013778
10870.0 0.0013781
10890.0 0.0013776
10910.0 0.0013761
10930.0 0.0013726
10950.0 0.001366
10970.0 0.0013556
10990.0 0.0013413
11010.0 0.0012966
11030.0 0.0012701
11050.0 0.0012397
11070.0 0.0012047
11090.0 0.001164
11110.0 0.0011233
11130.0 0.0010821
11150.0 0.0010395
11170.0 0.00099752
11190.0 0.00095898
11210.0 0.00092154
11230.0 0.0008858
11250.0 0.00085426
11270.0 0.00082634
11290.0 0.00080065
11310.0 0.00077838
11330.0 0.00076026
11350.0 0.00074416
11370.0 0.00072986
11390.0 0.00071751
11410.0 0.00070619
11430.0 0.00069454
11450.0 0.00068284
11470.0 0.00067078
11490.0 0.00065741
11510.0 0.00064228
11530.0 0.00062641
11550.0 0.00060945
11570.0 0.00059069
11590.0 0.00057123
11610.0 0.00055189
11630.0 0.00053168
11650.0 0.00051121
11670.0 0.00049222
11690.0 0.0004741
11710.0 0.00045654
11730.0 0.00044052
11750.0 0.00042644
11770.0 0.00041325
11790.0 0.00040131
11810.0 0.00039097
11830.0 0.00038169
11850.0 0.00037287
11870.0 0.00036495
11890.0 0.00035764
11910.0 0.00035031
11930.0 0.00034288
11950.0 0.00033553
11970.0 0.00032786
11990.0 0.00031955
12010.0 0.00031107
12030.0 0.00030248
12050.0 0.00029347
12070.0 0.00028423
12090.0 0.00027566
12110.0 0.00026733
12130.0 0.00025939
12150.0 0.00025242
12170.0 0.0002466
12190.0 0.00024171
12210.0 0.0002383
12230.0 0.00023645
12250.0 0.00023608
12270.0 0.00023735
12290.0 0.00024012
12310.0 0.00024412
12330.0 0.00024964
12350.0 0.00025631
12370.0 0.00026358
12390.0 0.0002716
12410.0 0.00028055
12430.0 0.00028907
12450.0 0.00029735
12470.0 0.00030555
12490.0 0.00031311
12510.0 0.0003195
12530.0 0.00032518
12550.0 0.00032989
12570.0 0.00033322
12590.0 0.00033532
12610.0 0.0003363
12630.0 0.00033598
12650.0 0.00033448
12670.0 0.00033195
12690.0 0.00032838
12710.0 0.00032404
12730.0 0.00031903
12750.0 0.00031319
12770.0 0.00030695
12790.0 0.00030049
12810.0 0.00029364
12830.0 0.00028642
12850.0 0.00027934
12870.0 0.00027219
12890.0 0.00026471
12910.0 0.00025724
12930.0 0.0002499
12950.0 0.00024222
12970.0 0.0002343
12990.0 0.00022665
13010.0 0.00021893
13030.0 0.00021098
13050.0 0.00020321
13070.0 0.00019582
13090.0 0.00018839
13110.0 0.00018124
13130.0 0.00017473
13150.0 0.00016873
13170.0 0.00016312
13190.0 0.0001584
13210.0 0.00015456
13230.0 0.00015142
13250.0 0.00014913
13270.0 0.00014774
13290.0 0.00014712
13310.0 0.00014732
13330.0 0.00014823
13350.0 0.00014973
13370.0 0.00015185
13390.0 0.00015448
13410.0 0.00015725
13430.0 0.0001603
13450.0 0.00016356
13470.0 0.00016674
13490.0 0.00016976
13510.0 0.00017284
13530.0 0.00017566
13550.0 0.00017809
13570.0 0.00018029
13590.0 0.00018225
13610.0 0.00018382
13630.0 0.00018505
13650.0 0.00018608
13670.0 0.0001868
13690.0 0.00018724
13710.0 0.00018745
13730.0 0.00018746
13750.0 0.00018723
13770.0 0.00018679
13790.0 0.00018617
13810.0 0.00018534
13830.0 0.00018434
13850.0 0.00018314
13870.0 0.00018172
13890.0 0.00018014
13910.0 0.00017839
13930.0 0.00017642
13950.0 0.0001743
13970.0 0.00017215
13990.0 0.00016986
14010.0 0.0001675
14030.0 0.00016519
14050.0 0.00016294
14070.0 0.00016067
14090.0 0.00015858
14110.0 0.0001567
14130.0 0.00015497
14150.0 0.00015344
14170.0 0.00015221
14190.0 0.00015122
14210.0 0.00015049
14230.0 0.00015004
14250.0 0.00014987
14270.0 0.00014999
14290.0 0.00015041
14310.0 0.00015106
14330.0 0.00015195
14350.0 0.0001531
14370.0 0.00015442
14390.0 0.00015583
14410.0 0.00015743
14430.0 0.00015914
14450.0 0.00016084
14470.0 0.00016259
14490.0 0.00016447
14510.0 0.00016632
14530.0 0.00016817
14550.0 0.00017019
14570.0 0.00017238
14590.0 0.00017466
14610.0 0.00017725
14630.0 0.00018028
14650.0 0.00018359
14670.0 0.00018725
14690.0 0.00019147
14710.0 0.00019623
14730.0 0.00020111
14750.0 0.00020645
14770.0 0.00021224
14790.0 0.00021808
14810.0 0.00022387
14830.0 0.00023001
14850.0 0.00023588
14870.0 0.00024123
14890.0 0.00024628
14910.0 0.0002509
14930.0 0.00025473
14950.0 0.00025782
14970.0 0.00026032
14990.0 0.00026206
15010.0 0.00026309
15030.0 0.00026359
15050.0 0.00026362
15070.0 0.00026331
15090.0 0.00026279
15110.0 0.0002621
15130.0 0.00026135
15150.0 0.00026058
15170.0 0.00025977
15190.0 0.00025894
15210.0 0.00025814
15230.0 0.00025735
15250.0 0.00025654
15270.0 0.00025573
15290.0 0.00025497
15310.0 0.00025419
15330.0 0.0002534
15350.0 0.00025264
15370.0 0.00025189
15390.0 0.0002511
15410.0 0.00025034
15430.0 0.0002496
15450.0 0.00024885
15470.0 0.00024808
15490.0 0.00024735
15510.0 0.00024662
15530.0 0.00024587
15550.0 0.00024514
15570.0 0.00024443
15590.0 0.00024369
15610.0 0.00024294
15630.0 0.00024223
15650.0 0.00024152
15670.0 0.00024078
15690.0 0.00024006
15710.0 0.00023937
15730.0 0.00023865
15750.0 0.00023792
15770.0 0.00023723
15790.0 0.00023652
15810.0 0.00023578
15830.0 0.00023508
15850.0 0.00023439
15870.0 0.00023368
15890.0 0.00023296
15910.0 0.00023228
15930.0 0.00023157
15950.0 0.00023085
15970.0 0.00023014
15990.0 0.00022945
16010.0 0.00022874
16030.0 0.00022801
16050.0 0.00022733
16070.0 0.00022663
16090.0 0.00022591
16110.0 0.00022521
16130.0 0.00022452
16150.0 0.00022378
16170.0 0.00022306
16190.0 0.00022237
16210.0 0.00022166
16230.0 0.00022093
16250.0 0.00022022
16270.0 0.00021953
16290.0 0.0002188
16310.0 0.00021807
16330.0 0.00021737
16350.0 0.00021665
16370.0 0.00021589
16390.0 0.00021518
16410.0 0.00021447
16430.0 0.00021373
16450.0 0.000213
16470.0 0.00021229
16490.0 0.00021155
16510.0 0.0002108
16530.0 0.00021007
16550.0 0.00020935
16570.0 0.00020858
16590.0 0.00020783
16610.0 0.00020711
16630.0 0.00020636
16650.0 0.0002056
16670.0 0.00020486
16690.0 0.00020412
16710.0 0.00020334
16730.0 0.00020258
16750.0 0.00020184
16770.0 0.00020107
16790.0 0.00020028
16810.0 0.00019953
16830.0 0.00019878
16850.0 0.00019799
16870.0 0.00019721
16890.0 0.00019646
16910.0 0.00019567
16930.0 0.00019486
16950.0 0.0001941
16970.0 0.00019332
16990.0 0.00019251
17010.0 0.00019172
17030.0 0.00019096
17050.0 0.00019015
17070.0 0.00018934
17090.0 0.00018855
17110.0 0.00018776
17130.0 0.00018692
17150.0 0.00018612
17170.0 0.00018533
17190.0 0.00018451
17210.0 0.00018369
17230.0 0.0001829
17250.0 0.00018208
17270.0 0.00018124
17290.0 0.00018042
17310.0 0.00017961
17330.0 0.00017878
17350.0 0.00017793
17370.0 0.00017713
17390.0 0.0001763
17410.0 0.00017545
17430.0 0.00017462
17450.0 0.00017381
17470.0 0.00017294
17490.0 0.00017209
17510.0 0.00017127
17530.0 0.00017042
17550.0 0.00016956
17570.0 0.00016872
17590.0 0.00016789
17610.0 0.00016702
17630.0 0.00016617
17650.0 0.00016533
17670.0 0.00016448
17690.0 0.00016358
17710.0 0.00016274
17730.0 0.0001619
17750.0 0.00016102
17770.0 0.00016016
17790.0 0.00015932
17810.0 0.00015845
17830.0 0.00015757
17850.0 0.00015671
17870.0 0.00015585
17890.0 0.00015496
17910.0 0.00015409
17930.0 0.00015324
17950.0 0.00015237
17970.0 0.00015148
17990.0 0.00015063
18010.0 0.00014977
18030.0 0.00014886
18050.0 0.00014799
18070.0 0.00014713
18090.0 0.00014625
18110.0 0.00014535
18130.0 0.0001445
18150.0 0.00014363
18170.0 0.00014273
18190.0 0.00014186
18210.0 0.000141
18230.0 0.00014011
18250.0 0.00013921
18270.0 0.00013835
18290.0 0.00013747
18310.0 0.00013658
18330.0 0.0001357
18350.0 0.00013485
18370.0 0.00013395
18390.0 0.00013307
18410.0 0.0001322
18430.0 0.00013133
18450.0 0.00013042
18470.0 0.00012955
18490.0 0.00012869
18510.0 0.0001278
18530.0 0.00012692
18550.0 0.00012606
18570.0 0.00012519
18590.0 0.00012429
18610.0 0.00012342
18630.0 0.00012256
18650.0 0.00012167
18670.0 0.00012078
18690.0 0.00011993
18710.0 0.00011906
18730.0 0.00011817
18750.0 0.00011731
18770.0 0.00011646
18790.0 0.00011556
18810.0 0.00011468
18830.0 0.00011383
18850.0 0.00011297
18870.0 0.00011208
18890.0 0.00011123
18910.0 0.00011038
18930.0 0.0001095
18950.0 0.00010864
18970.0 0.00010779
18990.0 0.00010693
19010.0 0.00010604
19030.0 0.0001052
19050.0 0.00010435
19070.0 0.00010348
19090.0 0.00010263
19110.0 0.0001018
19130.0 0.00010094
19150.0 0.00010007
19170.0 9.923e-05
19190.0 9.839e-05
19210.0 9.7522e-05
19230.0 9.667e-05
19250.0 9.585e-05
19270.0 9.5002e-05
19290.0 9.4149e-05
19310.0 9.3325e-05
19330.0 9.2496e-05
19350.0 9.1629e-05
19370.0 9.0794e-05
19390.0 8.9975e-05
19410.0 8.9133e-05
19430.0 8.8286e-05
19450.0 8.7476e-05
19470.0 8.6654e-05
19490.0 8.5811e-05
19510.0 8.4988e-05
19530.0 8.4182e-05
19550.0 8.3342e-05
19570.0 8.2501e-05
19590.0 8.17e-05
19610.0 8.0886e-05
19630.0 8.0054e-05
19650.0 7.9246e-05
19670.0 7.8453e-05
19690.0 7.7624e-05
19710.0 7.6804e-05
19730.0 7.601e-05
19750.0 7.5205e-05
19770.0 7.4372e-05
19790.0 7.3575e-05
19810.0 7.2789e-05
19830.0 7.1975e-05
19850.0 7.1165e-05
19870.0 7.0377e-05
19890.0 6.9551e-05
19910.0 6.8681e-05
19930.0 6.7801e-05
19950.0 6.6868e-05
19970.0 6.5819e-05
19990.0 6.4668e-05
20010.0 6.3466e-05
20030.0 6.2123e-05
20050.0 6.0668e-05
20070.0 5.9201e-05
20090.0 5.7727e-05
20110.0 5.6179e-05
20130.0 5.4724e-05
20150.0 5.3382e-05
20170.0 5.2092e-05
20190.0 5.0883e-05
20210.0 4.9825e-05
20230.0 4.8872e-05
20250.0 4.7995e-05
20270.0 4.7251e-05
20290.0 4.6633e-05
20310.0 4.6107e-05
20330.0 4.5682e-05
20350.0 4.5387e-05
20370.0 4.5186e-05
20390.0 4.5082e-05
20410.0 4.5078e-05
20430.0 4.516e-05
20450.0 4.534e-05
20470.0 4.5612e-05
20490.0 4.5955e-05
20510.0 4.6377e-05
20530.0 4.6893e-05
20550.0 4.7465e-05
20570.0 4.8073e-05
20590.0 4.8758e-05
20610.0 4.949e-05
20630.0 5.0228e-05
20650.0 5.0996e-05
20670.0 5.1821e-05
20690.0 5.2611e-05
20710.0 5.3383e-05
20730.0 5.417e-05
20750.0 5.4945e-05
20770.0 5.5665e-05
20790.0 5.6383e-05
20810.0 5.7108e-05
20830.0 5.78e-05
20850.0 5.8475e-05
20870.0 5.9186e-05
20890.0 5.9907e-05
20910.0 6.0605e-05
20930.0 6.1339e-05
20950.0 6.2114e-05
20970.0 6.2883e-05
20990.0 6.3655e-05
21010.0 6.4476e-05
21030.0 6.5284e-05
21050.0 6.6051e-05
21070.0 6.6806e-05
21090.0 6.7544e-05
21110.0 6.8189e-05
21130.0 6.8762e-05
21150.0 6.9277e-05
21170.0 6.9695e-05
21190.0 7.0005e-05
21210.0 7.0227e-05
21230.0 7.0342e-05
21250.0 7.0342e-05
21270.0 7.0239e-05
21290.0 7.0024e-05
21310.0 6.9703e-05
21330.0 6.93e-05
21350.0 6.879e-05
21370.0 6.8182e-05
21390.0 6.7512e-05
21410.0 6.6776e-05
21430.0 6.593e-05
21450.0 6.5056e-05
21470.0 6.4168e-05
21490.0 6.3227e-05
21510.0 6.2257e-05
21530.0 6.1325e-05
21550.0 6.0398e-05
21570.0 5.9462e-05
21590.0 5.8589e-05
21610.0 5.7788e-05
21630.0 5.703e-05
21650.0 5.6335e-05
21670.0 5.5773e-05
21690.0 5.5295e-05
21710.0 5.4911e-05
21730.0 5.4647e-05
21750.0 5.4498e-05
21770.0 5.4459e-05
21790.0 5.4542e-05
21810.0 5.4735e-05
21830.0 5.5039e-05
21850.0 5.5466e-05
21870.0 5.5985e-05
21890.0 5.6577e-05
21910.0 5.7282e-05
21930.0 5.807e-05
21950.0 5.8899e-05
21970.0 5.9801e-05
21990.0 6.0804e-05
22010.0 6.1803e-05
22030.0 6.2821e-05
22050.0 6.3896e-05
22070.0 6.4984e-05
22090.0 6.6022e-05
22110.0 6.7077e-05
22130.0 6.8136e-05
22150.0 6.9128e-05
22170.0 7.0061e-05
22190.0 7.0977e-05
22210.0 7.1812e-05
22230.0 7.2525e-05
22250.0 7.3163e-05
22270.0 7.3705e-05
22290.0 7.4114e-05
22310.0 7.4401e-05
22330.0 7.4566e-05
22350.0 7.4583e-05
22370.0 7.446e-05
22390.0 7.419e-05
22410.0 7.3754e-05
22430.0 7.3192e-05
22450.0 7.2497e-05
22470.0 7.1636e-05
22490.0 7.065e-05
22510.0 6.9581e-05
22530.0 6.8352e-05
22550.0 6.6989e-05
22570.0 6.5594e-05
22590.0 6.4123e-05
22610.0 6.2533e-05
22630.0 6.0911e-05
22650.0 5.9322e-05
22670.0 5.7648e-05
22690.0 5.5946e-05
22710.0 5.4306e-05
22730.0 5.2687e-05
22750.0 5.1006e-05
22770.0 4.9434e-05
22790.0 4.7961e-05
22810.0 4.6511e-05
22830.0 4.5128e-05
22850.0 4.3894e-05
22870.0 4.2742e-05
22890.0 4.1661e-05
22910.0 4.0732e-05
22930.0 3.9948e-05
22950.0 3.9276e-05
22970.0 3.8741e-05
