#lamb flux
1010.0 2.0952e-08
1030.0 2.3173e-08
1050.0 2.5727e-08
1070.0 2.8603e-08
1090.0 3.1869e-08
1110.0 3.5219e-08
1130.0 3.8591e-08
1150.0 4.2123e-08
1170.0 4.5767e-08
1190.0 4.9221e-08
1210.0 5.2723e-08
1230.0 5.6341e-08
1250.0 5.9886e-08
1270.0 6.3329e-08
1290.0 6.6967e-08
1310.0 7.0602e-08
1330.0 7.4088e-08
1350.0 7.7613e-08
1370.0 8.1253e-08
1390.0 8.4802e-08
1410.0 8.8245e-08
1430.0 9.1845e-08
1450.0 9.5445e-08
1470.0 9.8924e-08
1490.0 1.0244e-07
1510.0 1.0616e-07
1530.0 1.0968e-07
1550.0 1.1315e-07
1570.0 1.1675e-07
1590.0 1.2034e-07
1610.0 1.2378e-07
1630.0 1.2733e-07
1650.0 1.3097e-07
1670.0 1.345e-07
1690.0 1.3798e-07
1710.0 1.416e-07
1730.0 1.4524e-07
1750.0 1.4867e-07
1770.0 1.522e-07
1790.0 1.5581e-07
1810.0 1.593e-07
1830.0 1.6274e-07
1850.0 1.664e-07
1870.0 1.6997e-07
1890.0 1.7342e-07
1910.0 1.7695e-07
1930.0 1.8058e-07
1950.0 1.8404e-07
1970.0 1.8747e-07
1990.0 1.9104e-07
2010.0 1.9456e-07
2030.0 1.9796e-07
2050.0 2.0147e-07
2070.0 2.0508e-07
2090.0 2.0849e-07
2110.0 2.119e-07
2130.0 2.1542e-07
2150.0 2.1888e-07
2170.0 2.222e-07
2190.0 2.2564e-07
2210.0 2.2912e-07
2230.0 2.3246e-07
2250.0 2.3579e-07
2270.0 2.3927e-07
2290.0 2.4265e-07
2310.0 2.459e-07
2330.0 2.4928e-07
2350.0 2.5275e-07
2370.0 2.5621e-07
2390.0 2.5995e-07
2410.0 2.6439e-07
2430.0 2.6949e-07
2450.0 2.7559e-07
2470.0 2.834e-07
2490.0 2.9325e-07
2510.0 3.0445e-07
2530.0 3.1792e-07
2550.0 3.3479e-07
2570.0 3.5578e-07
2590.0 3.8307e-07
2610.0 4.2394e-07
2630.0 4.8229e-07
2650.0 5.5858e-07
2670.0 6.5722e-07
2690.0 7.7843e-07
2710.0 9.0782e-07
2730.0 1.0357e-06
2750.0 1.1616e-06
2770.0 1.2711e-06
2790.0 1.3581e-06
2810.0 1.4272e-06
2830.0 1.4811e-06
2850.0 1.5179e-06
2870.0 1.5449e-06
2890.0 1.5663e-06
2910.0 1.5834e-06
2930.0 1.5973e-06
2950.0 1.6107e-06
2970.0 1.6237e-06
2990.0 1.6359e-06
3010.0 4.6239e-05
3030.0 4.6585e-05
3050.0 4.6919e-05
3070.0 4.7205e-05
3090.0 4.7451e-05
3110.0 4.7604e-05
3130.0 4.7598e-05
3150.0 4.7386e-05
3170.0 4.6879e-05
3190.0 4.6082e-05
3210.0 4.5071e-05
3230.0 4.3914e-05
3250.0 4.2772e-05
3270.0 4.1938e-05
3290.0 4.1474e-05
3310.0 4.1549e-05
3330.0 4.2151e-05
3350.0 4.3198e-05
3370.0 4.4693e-05
3390.0 4.6577e-05
3410.0 4.8628e-05
3430.0 5.093e-05
3450.0 5.358e-05
3470.0 5.6475e-05
3490.0 5.9542e-05
3510.0 6.3009e-05
3530.0 6.6722e-05
3550.0 7.048e-05
3570.0 7.4401e-05
3590.0 7.8666e-05
3610.0 8.306e-05
3630.0 8.744e-05
3650.0 9.1985e-05
3670.0 9.6134e-05
3690.0 9.9235e-05
3710.0 0.00010101
3730.0 0.00010107
3750.0 9.9665e-05
3770.0 9.9113e-05
3790.0 9.8523e-05
3810.0 9.6102e-05
3830.0 9.9077e-05
3850.0 0.00011078
3870.0 0.0001172
3890.0 0.00011667
3910.0 0.00011717
3930.0 0.00012025
3950.0 0.00012215
3970.0 0.00011129
3990.0 9.5759e-05
4010.0 0.000287
4030.0 0.00034774
4050.0 0.00039866
4070.0 0.00034591
4090.0 0.00031329
4110.0 0.00027645
4130.0 0.00025444
4150.0 0.00027065
4170.0 0.0002666
4190.0 0.00028418
4210.0 0.00028158
4230.0 0.00029784
4250.0 0.00035235
4270.0 0.00035649
4290.0 0.0003285
4310.0 0.00034134
4330.0 0.00036308
4350.0 0.0004071
4370.0 0.00046329
4390.0 0.00043475
4410.0 0.0003212
4430.0 0.00027191
4450.0 0.00024986
4470.0 0.00019178
4490.0 0.00020695
4510.0 0.00031261
4530.0 0.00036053
4550.0 0.00036365
4570.0 0.0004092
4590.0 0.00046612
4610.0 0.00062869
4630.0 0.00081654
4650.0 0.00088552
4670.0 0.00082008
4690.0 0.0007825
4710.0 0.00082716
4730.0 0.0007806
4750.0 0.0005836
4770.0 0.00042809
4790.0 0.00039975
4810.0 0.00038103
4830.0 0.00034883
4850.0 0.00038278
4870.0 0.00050569
4890.0 0.00059635
4910.0 0.00052322
4930.0 0.00046298
4950.0 0.00050865
4970.0 0.00065231
4990.0 0.00088404
5010.0 0.001017
5030.0 0.00089673
5050.0 0.0006067
5070.0 0.00039984
5090.0 0.00032241
5110.0 0.00033157
5130.0 0.00038268
5150.0 0.0004146
5170.0 0.00040838
5190.0 0.00038161
5210.0 0.00039886
5230.0 0.00041929
5250.0 0.00045187
5270.0 0.00048753
5290.0 0.00054028
5310.0 0.00062886
5330.0 0.0006959
5350.0 0.00069145
5370.0 0.00072629
5390.0 0.00083343
5410.0 0.00083266
5430.0 0.00073636
5450.0 0.00067653
5470.0 0.00071835
5490.0 0.00087761
5510.0 0.0010973
5530.0 0.0012585
5550.0 0.0012164
5570.0 0.0011058
5590.0 0.00096145
5610.0 0.00088666
5630.0 0.00085978
5650.0 0.00081884
5670.0 0.00077591
5690.0 0.00069365
5710.0 0.00067631
5730.0 0.00062298
5750.0 0.00043922
5770.0 0.00034266
5790.0 0.00038831
5810.0 0.00043846
5830.0 0.00053804
5850.0 0.00064048
5870.0 0.0007106
5890.0 0.00072263
5910.0 0.00070894
5930.0 0.00067482
5950.0 0.00068762
5970.0 0.0007838
5990.0 0.00073697
6010.0 0.00061779
6030.0 0.00052194
6050.0 0.00045455
6070.0 0.00045207
6090.0 0.00049019
6110.0 0.00054811
6130.0 0.00055651
6150.0 0.00047882
6170.0 0.00042122
6190.0 0.00047402
6210.0 0.00062664
6230.0 0.00082234
6250.0 0.00089071
6270.0 0.00077836
6290.0 0.00065487
6310.0 0.00051124
6330.0 0.00039171
6350.0 0.00034939
6370.0 0.00036742
6390.0 0.00042477
6410.0 0.00052376
6430.0 0.0006116
6450.0 0.00069983
6470.0 0.00080132
6490.0 0.00096794
6510.0 0.0010823
6530.0 0.0010618
6550.0 0.00096015
6570.0 0.00081507
6590.0 0.00073498
6610.0 0.00063374
6630.0 0.00057414
6650.0 0.00054273
6670.0 0.00052725
6690.0 0.0004764
6710.0 0.00043306
6730.0 0.00031192
6750.0 0.00030924
6770.0 0.00033612
6790.0 0.00038635
6810.0 0.00035351
6830.0 0.00036402
6850.0 0.00034047
6870.0 0.00031102
6890.0 0.00029863
6910.0 0.00031823
6930.0 0.00029807
6950.0 0.00030666
6970.0 0.00032255
6990.0 0.00036612
7010.0 0.00036924
7030.0 0.00037511
7050.0 0.00035772
7070.0 0.00034085
7090.0 0.00034185
7110.0 0.00035173
7130.0 0.00037852
7150.0 0.00040202
7170.0 0.0004436
7190.0 0.00048764
7210.0 0.00047917
7230.0 0.0004926
7250.0 0.00052937
7270.0 0.00057689
7290.0 0.00068471
7310.0 0.00074297
7330.0 0.00071814
7350.0 0.00064952
7370.0 0.00056514
7390.0 0.00054825
7410.0 0.00058263
7430.0 0.00064752
7450.0 0.00070526
7470.0 0.00069878
7490.0 0.00063715
7510.0 0.00072175
7530.0 0.00071385
7550.0 0.00064163
7570.0 0.00050123
7590.0 0.00034458
7610.0 0.00029575
7630.0 0.00033604
7650.0 0.00039732
7670.0 0.00049451
7690.0 0.00054417
7710.0 0.0005671
7730.0 0.00059595
7750.0 0.00066903
7770.0 0.00067956
7790.0 0.00062421
7810.0 0.00056956
7830.0 0.00058735
7850.0 0.00057096
7870.0 0.00052348
7890.0 0.00043983
7910.0 0.00035752
7930.0 0.00034138
7950.0 0.00031101
7970.0 0.0002879
7990.0 0.00028626
8010.0 2.1433e-05
8030.0 2.1127e-05
8050.0 2.0868e-05
8070.0 2.119e-05
8090.0 2.2838e-05
8110.0 2.2435e-05
8130.0 1.839e-05
8150.0 1.7938e-05
8170.0 1.5357e-05
8190.0 1.4487e-05
8210.0 1.898e-05
8230.0 2.1162e-05
8250.0 1.8904e-05
8270.0 1.6432e-05
8290.0 1.6136e-05
8310.0 1.2449e-05
8330.0 8.3822e-06
8350.0 5.9565e-06
8370.0 3.7044e-06
8390.0 6.8554e-06
8410.0 7.9843e-06
8430.0 9.8413e-06
8450.0 1.1552e-05
8470.0 1.4428e-05
8490.0 1.4286e-05
8510.0 1.4009e-05
8530.0 1.4534e-05
8550.0 1.9796e-05
8570.0 2.3533e-05
8590.0 2.5225e-05
8610.0 3.1942e-05
8630.0 3.8433e-05
8650.0 3.9962e-05
8670.0 4.2582e-05
8690.0 4.3031e-05
8710.0 3.8934e-05
8730.0 3.6286e-05
8750.0 3.1971e-05
8770.0 3.0307e-05
8790.0 2.9821e-05
8810.0 2.8631e-05
8830.0 2.2778e-05
8850.0 1.6586e-05
8870.0 1.2686e-05
8890.0 1.2526e-05
8910.0 1.4443e-05
8930.0 1.6492e-05
8950.0 1.6833e-05
8970.0 1.6891e-05
8990.0 1.499e-05
9010.0 0.00015432
9030.0 0.00013974
9050.0 0.00014043
9070.0 0.00014155
9090.0 0.00014253
9110.0 0.00014374
9130.0 0.00014468
9150.0 0.00014541
9170.0 0.00014618
9190.0 0.000147
9210.0 0.00014788
9230.0 0.00014879
9250.0 0.00014973
9270.0 0.00015069
9290.0 0.00015169
9310.0 0.00015269
9330.0 0.00015372
9350.0 0.00015478
9370.0 0.00015585
9390.0 0.00015693
9410.0 0.00015805
9430.0 0.0001592
9450.0 0.00016034
9470.0 0.00016151
9490.0 0.00016271
9510.0 0.00016392
9530.0 0.00016515
9550.0 0.00016641
9570.0 0.00016769
9590.0 0.00016898
9610.0 0.0001703
9630.0 0.00017164
9650.0 0.000173
9670.0 0.00017436
9690.0 0.00017576
9710.0 0.00017718
9730.0 0.0001786
9750.0 0.00018004
9770.0 0.00018153
9790.0 0.00018301
9810.0 0.0001845
9830.0 0.00018602
9850.0 0.00018756
9870.0 0.0001891
9890.0 0.00019066
9910.0 0.00019225
9930.0 0.00019384
9950.0 0.00019544
9970.0 0.00019706
9990.0 0.00019871
10010.0 0.00017243
10030.0 0.00017385
10050.0 0.00017531
10070.0 0.00017681
10090.0 0.00017822
10110.0 0.00017967
10130.0 0.00018112
10150.0 0.00018257
10170.0 0.00018404
10190.0 0.00018554
10210.0 0.00018701
10230.0 0.00018848
10250.0 0.00018998
10270.0 0.00019147
10290.0 0.00019295
10310.0 0.00019444
10330.0 0.00019595
10350.0 0.00019743
10370.0 0.00019891
10390.0 0.00020041
10410.0 0.0002019
10430.0 0.00020336
10450.0 0.00020483
10470.0 0.00020631
10490.0 0.00020776
10510.0 0.0002092
10530.0 0.00021067
10550.0 0.00021211
10570.0 0.00021352
10590.0 0.00021494
10610.0 0.00021636
10630.0 0.00021774
10650.0 0.00021912
10670.0 0.0002205
10690.0 0.00022186
10710.0 0.00022319
10730.0 0.00022452
10750.0 0.00022586
10770.0 0.00022714
10790.0 0.00022841
10810.0 0.00022968
10830.0 0.00023091
10850.0 0.00023208
10870.0 0.00023321
10890.0 0.0002342
10910.0 0.00023497
10930.0 0.0002354
10950.0 0.00023531
10970.0 0.00023451
10990.0 0.00023295
11010.0 0.00023003
11030.0 0.00022637
11050.0 0.00022191
11070.0 0.00021657
11090.0 0.00021017
11110.0 0.00020354
11130.0 0.00019663
11150.0 0.00018918
11170.0 0.00018151
11190.0 0.00017406
11210.0 0.00016638
11230.0 0.0001585
11250.0 0.00015097
11270.0 0.00014373
11290.0 0.00013649
11310.0 0.00012962
11330.0 0.00012358
11350.0 0.00011787
11370.0 0.00011259
11390.0 0.00010802
11410.0 0.00010403
11430.0 0.00010032
11450.0 9.7121e-05
11470.0 9.4356e-05
11490.0 9.1783e-05
11510.0 8.9305e-05
11530.0 8.7004e-05
11550.0 8.4719e-05
11570.0 8.2281e-05
11590.0 7.9756e-05
11610.0 7.7186e-05
11630.0 7.4389e-05
11650.0 7.1395e-05
11670.0 6.8443e-05
11690.0 6.545e-05
11710.0 6.2363e-05
11730.0 5.9371e-05
11750.0 5.6602e-05
11770.0 5.3887e-05
11790.0 5.1342e-05
11810.0 4.9102e-05
11830.0 4.7099e-05
11850.0 4.5253e-05
11870.0 4.371e-05
11890.0 4.2426e-05
11910.0 4.1299e-05
11930.0 4.033e-05
11950.0 3.9522e-05
11970.0 3.8801e-05
11990.0 3.812e-05
12010.0 3.7489e-05
12030.0 3.6882e-05
12050.0 3.6253e-05
12070.0 3.56e-05
12090.0 3.497e-05
12110.0 3.4331e-05
12130.0 3.369e-05
12150.0 3.3099e-05
12170.0 3.2584e-05
12190.0 3.2138e-05
12210.0 3.1826e-05
12230.0 3.1676e-05
12250.0 3.17e-05
12270.0 3.1939e-05
12290.0 3.2391e-05
12310.0 3.3039e-05
12330.0 3.3946e-05
12350.0 3.5078e-05
12370.0 3.6367e-05
12390.0 3.7852e-05
12410.0 3.9593e-05
12430.0 4.1363e-05
12450.0 4.3195e-05
12470.0 4.5143e-05
12490.0 4.71e-05
12510.0 4.8935e-05
12530.0 5.0762e-05
12550.0 5.2523e-05
12570.0 5.4079e-05
12590.0 5.5444e-05
12610.0 5.6661e-05
12630.0 5.7631e-05
12650.0 5.83e-05
12670.0 5.874e-05
12690.0 5.8916e-05
12710.0 5.8819e-05
12730.0 5.8478e-05
12750.0 5.787e-05
12770.0 5.7035e-05
12790.0 5.6023e-05
12810.0 5.4814e-05
12830.0 5.3415e-05
12850.0 5.1953e-05
12870.0 5.0406e-05
12890.0 4.8733e-05
12910.0 4.7032e-05
12930.0 4.5355e-05
12950.0 4.3606e-05
12970.0 4.1825e-05
12990.0 4.014e-05
13010.0 3.8476e-05
13030.0 3.6794e-05
13050.0 3.5178e-05
13070.0 3.3665e-05
13090.0 3.2145e-05
13110.0 3.0676e-05
13130.0 2.9321e-05
13150.0 2.8038e-05
13170.0 2.6781e-05
13190.0 2.5663e-05
13210.0 2.468e-05
13230.0 2.378e-05
13250.0 2.3006e-05
13270.0 2.2395e-05
13290.0 2.1919e-05
13310.0 2.1592e-05
13330.0 2.1443e-05
13350.0 2.146e-05
13370.0 2.1653e-05
13390.0 2.2031e-05
13410.0 2.2542e-05
13430.0 2.3206e-05
13450.0 2.4027e-05
13470.0 2.4938e-05
13490.0 2.5902e-05
13510.0 2.699e-05
13530.0 2.8093e-05
13550.0 2.9149e-05
13570.0 3.019e-05
13590.0 3.1205e-05
13610.0 3.2107e-05
13630.0 3.2895e-05
13650.0 3.3615e-05
13670.0 3.4212e-05
13690.0 3.4674e-05
13710.0 3.5031e-05
13730.0 3.5286e-05
13750.0 3.5413e-05
13770.0 3.5442e-05
13790.0 3.5378e-05
13810.0 3.5222e-05
13830.0 3.4991e-05
13850.0 3.4678e-05
13870.0 3.4284e-05
13890.0 3.3833e-05
13910.0 3.3325e-05
13930.0 3.2737e-05
13950.0 3.2095e-05
13970.0 3.1438e-05
13990.0 3.0723e-05
14010.0 2.9962e-05
14030.0 2.9204e-05
14050.0 2.8439e-05
14070.0 2.7632e-05
14090.0 2.6859e-05
14110.0 2.6132e-05
14130.0 2.5428e-05
14150.0 2.4765e-05
14170.0 2.4199e-05
14190.0 2.3709e-05
14210.0 2.3294e-05
14230.0 2.2987e-05
14250.0 2.2788e-05
14270.0 2.2692e-05
14290.0 2.2712e-05
14310.0 2.2839e-05
14330.0 2.3066e-05
14350.0 2.3401e-05
14370.0 2.3818e-05
14390.0 2.4291e-05
14410.0 2.4849e-05
14430.0 2.5461e-05
14450.0 2.6086e-05
14470.0 2.6735e-05
14490.0 2.7424e-05
14510.0 2.8084e-05
14530.0 2.8711e-05
14550.0 2.9337e-05
14570.0 2.9938e-05
14590.0 3.0485e-05
14610.0 3.1015e-05
14630.0 3.1538e-05
14650.0 3.2026e-05
14670.0 3.2498e-05
14690.0 3.2989e-05
14710.0 3.3505e-05
14730.0 3.4022e-05
14750.0 3.4594e-05
14770.0 3.5243e-05
14790.0 3.5947e-05
14810.0 3.6709e-05
14830.0 3.7612e-05
14850.0 3.8594e-05
14870.0 3.9619e-05
14890.0 4.0724e-05
14910.0 4.1897e-05
14930.0 4.3026e-05
14950.0 4.4081e-05
14970.0 4.5079e-05
14990.0 4.5916e-05
15010.0 4.6556e-05
15030.0 4.7031e-05
15050.0 4.7344e-05
15070.0 4.7497e-05
15090.0 4.7551e-05
15110.0 4.7536e-05
15130.0 4.7476e-05
15150.0 4.7395e-05
15170.0 4.7301e-05
15190.0 4.7199e-05
15210.0 4.7098e-05
15230.0 4.6998e-05
15250.0 4.6894e-05
15270.0 4.6792e-05
15290.0 4.6695e-05
15310.0 4.6595e-05
15330.0 4.6494e-05
15350.0 4.6397e-05
15370.0 4.6301e-05
15390.0 4.62e-05
15410.0 4.6102e-05
15430.0 4.6008e-05
15450.0 4.5911e-05
15470.0 4.5813e-05
15490.0 4.5719e-05
15510.0 4.5626e-05
15530.0 4.553e-05
15550.0 4.5435e-05
15570.0 4.5344e-05
15590.0 4.5249e-05
15610.0 4.5153e-05
15630.0 4.5063e-05
15650.0 4.4971e-05
15670.0 4.4877e-05
15690.0 4.4785e-05
15710.0 4.4697e-05
15730.0 4.4604e-05
15750.0 4.4512e-05
15770.0 4.4423e-05
15790.0 4.4333e-05
15810.0 4.4239e-05
15830.0 4.4149e-05
15850.0 4.4062e-05
15870.0 4.3971e-05
15890.0 4.388e-05
15910.0 4.3794e-05
15930.0 4.3705e-05
15950.0 4.3613e-05
15970.0 4.3524e-05
15990.0 4.3437e-05
16010.0 4.3347e-05
16030.0 4.3255e-05
16050.0 4.317e-05
16070.0 4.3082e-05
16090.0 4.2992e-05
16110.0 4.2904e-05
16130.0 4.2819e-05
16150.0 4.2727e-05
16170.0 4.2637e-05
16190.0 4.2551e-05
16210.0 4.2463e-05
16230.0 4.2372e-05
16250.0 4.2285e-05
16270.0 4.2199e-05
16290.0 4.2109e-05
16310.0 4.202e-05
16330.0 4.1933e-05
16350.0 4.1845e-05
16370.0 4.1752e-05
16390.0 4.1665e-05
16410.0 4.1578e-05
16430.0 4.1487e-05
16450.0 4.1398e-05
16470.0 4.1312e-05
16490.0 4.1222e-05
16510.0 4.113e-05
16530.0 4.1042e-05
16550.0 4.0954e-05
16570.0 4.0862e-05
16590.0 4.0771e-05
16610.0 4.0684e-05
16630.0 4.0593e-05
16650.0 4.0502e-05
16670.0 4.0413e-05
16690.0 4.0324e-05
16710.0 4.023e-05
16730.0 4.0138e-05
16750.0 4.0049e-05
16770.0 3.9957e-05
16790.0 3.9863e-05
16810.0 3.9774e-05
16830.0 3.9683e-05
16850.0 3.9589e-05
16870.0 3.9497e-05
16890.0 3.9407e-05
16910.0 3.9313e-05
16930.0 3.9216e-05
16950.0 3.9126e-05
16970.0 3.9033e-05
16990.0 3.8937e-05
17010.0 3.8844e-05
17030.0 3.8753e-05
17050.0 3.8657e-05
17070.0 3.856e-05
17090.0 3.8467e-05
17110.0 3.8373e-05
17130.0 3.8274e-05
17150.0 3.8179e-05
17170.0 3.8086e-05
17190.0 3.7988e-05
17210.0 3.7891e-05
17230.0 3.7797e-05
17250.0 3.7701e-05
17270.0 3.76e-05
17290.0 3.7504e-05
17310.0 3.7408e-05
17330.0 3.7309e-05
17350.0 3.7208e-05
17370.0 3.7113e-05
17390.0 3.7015e-05
17410.0 3.6914e-05
17430.0 3.6816e-05
17450.0 3.672e-05
17470.0 3.6617e-05
17490.0 3.6516e-05
17510.0 3.6418e-05
17530.0 3.6318e-05
17550.0 3.6215e-05
17570.0 3.6116e-05
17590.0 3.6017e-05
17610.0 3.5914e-05
17630.0 3.5812e-05
17650.0 3.5712e-05
17670.0 3.561e-05
17690.0 3.5503e-05
17710.0 3.5403e-05
17730.0 3.5302e-05
17750.0 3.5198e-05
17770.0 3.5094e-05
17790.0 3.4995e-05
17810.0 3.489e-05
17830.0 3.4784e-05
17850.0 3.4681e-05
17870.0 3.4579e-05
17890.0 3.4471e-05
17910.0 3.4366e-05
17930.0 3.4264e-05
17950.0 3.4159e-05
17970.0 3.4052e-05
17990.0 3.3949e-05
18010.0 3.3845e-05
18030.0 3.3736e-05
18050.0 3.363e-05
18070.0 3.3526e-05
18090.0 3.3419e-05
18110.0 3.331e-05
18130.0 3.3206e-05
18150.0 3.3101e-05
18170.0 3.2992e-05
18190.0 3.2885e-05
18210.0 3.278e-05
18230.0 3.2671e-05
18250.0 3.2561e-05
18270.0 3.2455e-05
18290.0 3.2348e-05
18310.0 3.2238e-05
18330.0 3.2131e-05
18350.0 3.2026e-05
18370.0 3.1916e-05
18390.0 3.1806e-05
18410.0 3.1699e-05
18430.0 3.1591e-05
18450.0 3.1478e-05
18470.0 3.137e-05
18490.0 3.1264e-05
18510.0 3.1153e-05
18530.0 3.1043e-05
18550.0 3.0937e-05
18570.0 3.0827e-05
18590.0 3.0715e-05
18610.0 3.0606e-05
18630.0 3.0498e-05
18650.0 3.0386e-05
18670.0 3.0275e-05
18690.0 3.0168e-05
18710.0 3.0058e-05
18730.0 2.9946e-05
18750.0 2.9838e-05
18770.0 2.973e-05
18790.0 2.9616e-05
18810.0 2.9505e-05
18830.0 2.9397e-05
18850.0 2.9286e-05
18870.0 2.9173e-05
18890.0 2.9065e-05
18910.0 2.8957e-05
18930.0 2.8844e-05
18950.0 2.8733e-05
18970.0 2.8624e-05
18990.0 2.8513e-05
19010.0 2.8398e-05
19030.0 2.829e-05
19050.0 2.8181e-05
19070.0 2.8068e-05
19090.0 2.7958e-05
19110.0 2.785e-05
19130.0 2.7738e-05
19150.0 2.7625e-05
19170.0 2.7516e-05
19190.0 2.7406e-05
19210.0 2.7293e-05
19230.0 2.7181e-05
19250.0 2.7074e-05
19270.0 2.6962e-05
19290.0 2.685e-05
19310.0 2.6742e-05
19330.0 2.6632e-05
19350.0 2.6518e-05
19370.0 2.6407e-05
19390.0 2.6299e-05
19410.0 2.6187e-05
19430.0 2.6074e-05
19450.0 2.5967e-05
19470.0 2.5857e-05
19490.0 2.5745e-05
19510.0 2.5635e-05
19530.0 2.5527e-05
19550.0 2.5414e-05
19570.0 2.5301e-05
19590.0 2.5193e-05
19610.0 2.5084e-05
19630.0 2.4972e-05
19650.0 2.4862e-05
19670.0 2.4755e-05
19690.0 2.4643e-05
19710.0 2.4532e-05
19730.0 2.4424e-05
19750.0 2.4314e-05
19770.0 2.4201e-05
19790.0 2.4092e-05
19810.0 2.3985e-05
19830.0 2.3873e-05
19850.0 2.3761e-05
19870.0 2.3651e-05
19890.0 2.3533e-05
19910.0 2.3403e-05
19930.0 2.3264e-05
19950.0 2.3105e-05
19970.0 2.291e-05
19990.0 2.2674e-05
20010.0 2.0173e-05
20030.0 1.9881e-05
20050.0 1.954e-05
20070.0 1.9169e-05
20090.0 1.8771e-05
20110.0 1.832e-05
20130.0 1.7864e-05
20150.0 1.7412e-05
20170.0 1.6944e-05
20190.0 1.6469e-05
20210.0 1.602e-05
20230.0 1.5582e-05
20250.0 1.5143e-05
20270.0 1.4736e-05
20290.0 1.4364e-05
20310.0 1.401e-05
20330.0 1.368e-05
20350.0 1.3406e-05
20370.0 1.3163e-05
20390.0 1.2949e-05
20410.0 1.2777e-05
20430.0 1.2644e-05
20450.0 1.2539e-05
20470.0 1.2469e-05
20490.0 1.2431e-05
20510.0 1.242e-05
20530.0 1.2435e-05
20550.0 1.2473e-05
20570.0 1.2529e-05
20590.0 1.2605e-05
20610.0 1.2697e-05
20630.0 1.2797e-05
20650.0 1.291e-05
20670.0 1.3039e-05
20690.0 1.3171e-05
20710.0 1.3307e-05
20730.0 1.3453e-05
20750.0 1.3606e-05
20770.0 1.3757e-05
20790.0 1.3915e-05
20810.0 1.4082e-05
20830.0 1.4249e-05
20850.0 1.4416e-05
20870.0 1.4595e-05
20890.0 1.4777e-05
20910.0 1.4953e-05
20930.0 1.5136e-05
20950.0 1.5325e-05
20970.0 1.551e-05
20990.0 1.5692e-05
21010.0 1.5883e-05
21030.0 1.6071e-05
21050.0 1.6249e-05
21070.0 1.6428e-05
21090.0 1.6606e-05
21110.0 1.677e-05
21130.0 1.6923e-05
21150.0 1.7071e-05
21170.0 1.7206e-05
21190.0 1.7321e-05
21210.0 1.7425e-05
21230.0 1.7512e-05
21250.0 1.7574e-05
21270.0 1.7613e-05
21290.0 1.7627e-05
21310.0 1.7613e-05
21330.0 1.7572e-05
21350.0 1.7499e-05
21370.0 1.7392e-05
21390.0 1.7256e-05
21410.0 1.7089e-05
21430.0 1.6878e-05
21450.0 1.6641e-05
21470.0 1.6382e-05
21490.0 1.609e-05
21510.0 1.577e-05
21530.0 1.5445e-05
21550.0 1.5104e-05
21570.0 1.474e-05
21590.0 1.4382e-05
21610.0 1.4037e-05
21630.0 1.3691e-05
21650.0 1.3353e-05
21670.0 1.306e-05
21690.0 1.279e-05
21710.0 1.2547e-05
21730.0 1.2347e-05
21750.0 1.2194e-05
21770.0 1.2076e-05
21790.0 1.2009e-05
21810.0 1.199e-05
21830.0 1.2017e-05
21850.0 1.2092e-05
21870.0 1.2209e-05
21890.0 1.2361e-05
21910.0 1.2555e-05
21930.0 1.2782e-05
21950.0 1.3029e-05
21970.0 1.3302e-05
21990.0 1.3609e-05
22010.0 1.3915e-05
22030.0 1.4226e-05
22050.0 1.4553e-05
22070.0 1.4882e-05
22090.0 1.5193e-05
22110.0 1.5507e-05
22130.0 1.582e-05
22150.0 1.6113e-05
22170.0 1.6389e-05
22190.0 1.6662e-05
22210.0 1.6916e-05
22230.0 1.714e-05
22250.0 1.7351e-05
22270.0 1.7545e-05
22290.0 1.7711e-05
22310.0 1.7853e-05
22330.0 1.7979e-05
22350.0 1.8075e-05
22370.0 1.8144e-05
22390.0 1.8187e-05
22410.0 1.82e-05
22430.0 1.8183e-05
22450.0 1.8136e-05
22470.0 1.8055e-05
22490.0 1.7941e-05
22510.0 1.78e-05
22530.0 1.7618e-05
22550.0 1.7398e-05
22570.0 1.7153e-05
22590.0 1.6877e-05
22610.0 1.656e-05
22630.0 1.6216e-05
