#lamb flux
1010.0 5.5253e-07
1030.0 5.983e-07
1050.0 6.629e-07
1070.0 7.3563e-07
1090.0 8.1495e-07
1110.0 8.9698e-07
1130.0 9.8004e-07
1150.0 1.0673e-06
1170.0 1.1572e-06
1190.0 1.2418e-06
1210.0 1.3265e-06
1230.0 1.4125e-06
1250.0 1.4954e-06
1270.0 1.5736e-06
1290.0 1.6537e-06
1310.0 1.731e-06
1330.0 1.802e-06
1350.0 1.8715e-06
1370.0 1.9417e-06
1390.0 2.0082e-06
1410.0 2.0715e-06
1430.0 2.1383e-06
1450.0 2.2056e-06
1470.0 2.2715e-06
1490.0 2.3402e-06
1510.0 2.4159e-06
1530.0 2.4905e-06
1550.0 2.5676e-06
1570.0 2.6515e-06
1590.0 2.7398e-06
1610.0 2.8294e-06
1630.0 2.9275e-06
1650.0 3.0327e-06
1670.0 3.1401e-06
1690.0 3.2513e-06
1710.0 3.3701e-06
1730.0 3.4934e-06
1750.0 3.615e-06
1770.0 3.7416e-06
1790.0 3.8715e-06
1810.0 3.9992e-06
1830.0 4.1247e-06
1850.0 4.2534e-06
1870.0 4.3763e-06
1890.0 4.4914e-06
1910.0 4.602e-06
1930.0 4.7072e-06
1950.0 4.7994e-06
1970.0 4.8809e-06
1990.0 4.9552e-06
2010.0 5.0171e-06
2030.0 5.0647e-06
2050.0 5.1039e-06
2070.0 5.1347e-06
2090.0 5.1505e-06
2110.0 5.1572e-06
2130.0 5.1585e-06
2150.0 5.1517e-06
2170.0 5.1363e-06
2190.0 5.1202e-06
2210.0 5.1023e-06
2230.0 5.0805e-06
2250.0 5.059e-06
2270.0 5.0423e-06
2290.0 5.0261e-06
2310.0 5.0107e-06
2330.0 5.0021e-06
2350.0 4.9993e-06
2370.0 4.9997e-06
2390.0 5.0075e-06
2410.0 5.0262e-06
2430.0 5.0517e-06
2450.0 5.0855e-06
2470.0 5.1329e-06
2490.0 5.1954e-06
2510.0 5.2698e-06
2530.0 5.3711e-06
2550.0 5.5211e-06
2570.0 5.7404e-06
2590.0 6.0585e-06
2610.0 6.5557e-06
2630.0 7.2568e-06
2650.0 8.136e-06
2670.0 9.212e-06
2690.0 1.0455e-05
2710.0 1.1702e-05
2730.0 1.2859e-05
2750.0 1.3912e-05
2770.0 1.4736e-05
2790.0 1.5301e-05
2810.0 1.5651e-05
2830.0 1.5809e-05
2850.0 1.583e-05
2870.0 1.5776e-05
2890.0 1.5678e-05
2910.0 1.5572e-05
2930.0 1.5491e-05
2950.0 1.5423e-05
2970.0 1.5376e-05
2990.0 1.5369e-05
3010.0 2.061e-05
3030.0 2.0673e-05
3050.0 2.0775e-05
3070.0 2.0928e-05
3090.0 2.109e-05
3110.0 2.1249e-05
3130.0 2.1402e-05
3150.0 2.1606e-05
3170.0 2.1694e-05
3190.0 2.5064e-05
3210.0 3.9775e-05
3230.0 6.3435e-05
3250.0 7.5188e-05
3270.0 6.7556e-05
3290.0 5.4295e-05
3310.0 4.7173e-05
3330.0 4.4667e-05
3350.0 4.5047e-05
3370.0 4.6261e-05
3390.0 4.7672e-05
3410.0 4.8963e-05
3430.0 4.9066e-05
3450.0 4.9847e-05
3470.0 5.0932e-05
3490.0 5.4421e-05
3510.0 6.0989e-05
3530.0 6.8714e-05
3550.0 8.2541e-05
3570.0 9.9369e-05
3590.0 0.00010826
3610.0 0.00011012
3630.0 0.00011043
3650.0 0.00011176
3670.0 0.00012151
3690.0 0.00014448
3710.0 0.00016949
3730.0 0.00018691
3750.0 0.00020046
3770.0 0.00020117
3790.0 0.00019084
3810.0 0.00017619
3830.0 0.00015637
3850.0 0.00014041
3870.0 0.00013409
3890.0 0.00014901
3910.0 0.00017791
3930.0 0.00020735
3950.0 0.00023088
3970.0 0.00024314
3990.0 0.00024561
4010.0 0.00024219
4030.0 0.00021678
4050.0 0.00018049
4070.0 0.00016122
4090.0 0.00016324
4110.0 0.00017526
4130.0 0.00018104
4150.0 0.00018214
4170.0 0.00018166
4190.0 0.00018415
4210.0 0.00018557
4230.0 0.00019192
4250.0 0.00019763
4270.0 0.00020266
4290.0 0.00020498
4310.0 0.00020902
4330.0 0.00021406
4350.0 0.00021696
4370.0 0.0002097
4390.0 0.00019239
4410.0 0.00016931
4430.0 0.00014766
4450.0 0.00013492
4470.0 0.00013591
4490.0 0.00014666
4510.0 0.00016473
4530.0 0.0001922
4550.0 0.00023466
4570.0 0.00028457
4590.0 0.0003424
4610.0 0.00039978
4630.0 0.00043493
4650.0 0.00044552
4670.0 0.00043913
4690.0 0.00040905
4710.0 0.00035753
4730.0 0.00029905
4750.0 0.00025048
4770.0 0.00021965
4790.0 0.00021341
4810.0 0.00022018
4830.0 0.00023193
4850.0 0.0002484
4870.0 0.00026803
4890.0 0.00027958
4910.0 0.00029052
4930.0 0.00031224
4950.0 0.00033568
4970.0 0.00034198
4990.0 0.00032505
5010.0 0.00029038
5030.0 0.00024844
5050.0 0.00021529
5070.0 0.00019495
5090.0 0.00018513
5110.0 0.0001843
5130.0 0.00018529
5150.0 0.00018491
5170.0 0.00018701
5190.0 0.00019639
5210.0 0.00021603
5230.0 0.00024166
5250.0 0.00027432
5270.0 0.00030875
5290.0 0.00033527
5310.0 0.00035549
5330.0 0.00037452
5350.0 0.00038519
5370.0 0.00038158
5390.0 0.00037337
5410.0 0.00037362
5430.0 0.00039245
5450.0 0.00043081
5470.0 0.00047273
5490.0 0.00049896
5510.0 0.00050576
5530.0 0.00050066
5550.0 0.00048879
5570.0 0.00047271
5590.0 0.00045746
5610.0 0.00044498
5630.0 0.00043532
5650.0 0.00042021
5670.0 0.00039304
5690.0 0.00036265
5710.0 0.00033835
5730.0 0.0003187
5750.0 0.00031107
5770.0 0.00031632
5790.0 0.00032351
5810.0 0.00032544
5830.0 0.00032576
5850.0 0.00032268
5870.0 0.00031459
5890.0 0.00031118
5910.0 0.00031133
5930.0 0.00030123
5950.0 0.00027911
5970.0 0.00025031
5990.0 0.0002215
6010.0 0.00020095
6030.0 0.0001933
6050.0 0.00019894
6070.0 0.00020795
6090.0 0.00020706
6110.0 0.00020162
6130.0 0.00020371
6150.0 0.0002131
6170.0 0.00022209
6190.0 0.00022675
6210.0 0.0002264
6230.0 0.0002173
6250.0 0.00019886
6270.0 0.00017647
6290.0 0.0001585
6310.0 0.00015406
6330.0 0.00016203
6350.0 0.00017351
6370.0 0.0001851
6390.0 0.00020352
6410.0 0.0002294
6430.0 0.00024999
6450.0 0.00026071
6470.0 0.00026798
6490.0 0.00027414
6510.0 0.00027693
6530.0 0.00027828
6550.0 0.00028189
6570.0 0.00028374
6590.0 0.00028248
6610.0 0.00027641
6630.0 0.00026445
6650.0 0.00024766
6670.0 0.00023113
6690.0 0.00022022
6710.0 0.00021212
6730.0 0.00020313
6750.0 0.00019816
6770.0 0.00020138
6790.0 0.00020599
6810.0 0.00020613
6830.0 0.00020256
6850.0 0.00019746
6870.0 0.00019236
6890.0 0.00018801
6910.0 0.00018823
6930.0 0.00018994
6950.0 0.00019009
6970.0 0.00018995
6990.0 0.00018777
7010.0 0.00018215
7030.0 0.00017175
7050.0 0.00015741
7070.0 0.00014633
7090.0 0.00014509
7110.0 0.00014864
7130.0 0.00014681
7150.0 0.00014121
7170.0 0.00014198
7190.0 0.00015146
7210.0 0.00016256
7230.0 0.00017129
7250.0 0.00017595
7270.0 0.00017275
7290.0 0.00016571
7310.0 0.00016127
7330.0 0.00016332
7350.0 0.00016848
7370.0 0.00017216
7390.0 0.00017824
7410.0 0.00018921
7430.0 0.00020006
7450.0 0.00020733
7470.0 0.00020857
7490.0 0.00019874
7510.0 0.00018595
7530.0 0.00018036
7550.0 0.00017309
7570.0 0.00016559
7590.0 0.00016222
7610.0 0.00016189
7630.0 0.00016548
7650.0 0.00017497
7670.0 0.00018751
7690.0 0.0001991
7710.0 0.00020705
7730.0 0.00021369
7750.0 0.00021936
7770.0 0.00022307
7790.0 0.00022671
7810.0 0.00022688
7830.0 0.00021962
7850.0 0.0002113
7870.0 0.00020561
7890.0 0.00020297
7910.0 0.00020239
7930.0 0.00019781
7950.0 0.00019188
7970.0 0.00018514
7990.0 0.00017993
8010.0 0.00016979
8030.0 0.00016945
8050.0 0.00016864
8070.0 0.00016619
8090.0 0.00016424
8110.0 0.00016221
8130.0 0.00016214
8150.0 0.00016082
8170.0 0.00015814
8190.0 0.00015336
8210.0 0.00014694
8230.0 0.00014113
8250.0 0.00013883
8270.0 0.00013162
8290.0 0.00011642
8310.0 9.9869e-05
8330.0 8.866e-05
8350.0 8.5288e-05
8370.0 9.2003e-05
8390.0 0.00010287
8410.0 0.00010967
8430.0 0.00011464
8450.0 0.00012278
8470.0 0.00013189
8490.0 0.00014344
8510.0 0.00015629
8530.0 0.00016934
8550.0 0.00017951
8570.0 0.00018693
8590.0 0.00019246
8610.0 0.00019601
8630.0 0.00019558
8650.0 0.00019195
8670.0 0.00019206
8690.0 0.00020087
8710.0 0.00021279
8730.0 0.0002178
8750.0 0.00021551
8770.0 0.00021686
8790.0 0.00021669
8810.0 0.00020815
8830.0 0.00019275
8850.0 0.00017368
8870.0 0.00015939
8890.0 0.00015469
8910.0 0.00015091
8930.0 0.00014087
8950.0 0.00013059
8970.0 0.00012652
8990.0 0.00012717
9010.0 0.0001257
9030.0 0.00012374
9050.0 0.00012263
9070.0 0.00012199
9090.0 0.00012143
9110.0 0.00012088
9130.0 0.00012033
9150.0 0.00011979
9170.0 0.00011924
9190.0 0.00011876
9210.0 0.0001184
9230.0 0.0001178
9250.0 0.00011725
9270.0 0.00011672
9290.0 0.00011621
9310.0 0.00011571
9330.0 0.00011522
9350.0 0.00011475
9370.0 0.00011428
9390.0 0.00011381
9410.0 0.00011336
9430.0 0.00011288
9450.0 0.00011227
9470.0 0.00011171
9490.0 0.00011142
9510.0 0.00011106
9530.0 0.00011069
9550.0 0.00011029
9570.0 0.00010988
9590.0 0.00010948
9610.0 0.00010908
9630.0 0.00010868
9650.0 0.00010828
9670.0 0.00010789
9690.0 0.0001075
9710.0 0.0001071
9730.0 0.00010672
9750.0 0.00010634
9770.0 0.00010595
9790.0 0.00010557
9810.0 0.0001052
9830.0 0.00010482
9850.0 0.00010444
9870.0 0.00010407
9890.0 0.0001037
9910.0 0.00010333
9930.0 0.00010295
9950.0 0.00010232
9970.0 0.00010202
9990.0 0.0001017
10010.0 0.00010138
10030.0 0.00010104
10050.0 0.00010067
10070.0 0.00010031
10090.0 9.9953e-05
10110.0 9.9537e-05
10130.0 9.8998e-05
10150.0 9.864e-05
10170.0 9.8302e-05
10190.0 9.7914e-05
10210.0 9.7543e-05
10230.0 9.7169e-05
10250.0 9.6752e-05
10270.0 9.6331e-05
10290.0 9.5934e-05
10310.0 9.5501e-05
10330.0 9.5036e-05
10350.0 9.4605e-05
10370.0 9.4169e-05
10390.0 9.3697e-05
10410.0 9.3224e-05
10430.0 9.2781e-05
10450.0 9.23e-05
10470.0 9.1796e-05
10490.0 9.1313e-05
10510.0 9.0826e-05
10530.0 9.0281e-05
10550.0 8.975e-05
10570.0 8.9242e-05
10590.0 8.8698e-05
10610.0 8.8129e-05
10630.0 8.7587e-05
10650.0 8.7032e-05
10670.0 8.6425e-05
10690.0 8.583e-05
10710.0 8.5247e-05
10730.0 8.4626e-05
10750.0 8.3966e-05
10770.0 8.3354e-05
10790.0 8.272e-05
10810.0 8.2044e-05
10830.0 8.1375e-05
10850.0 8.0725e-05
10870.0 8.0008e-05
10890.0 7.9282e-05
10910.0 7.858e-05
10930.0 7.7857e-05
10950.0 7.7088e-05
10970.0 7.633e-05
10990.0 7.5596e-05
11010.0 7.9144e-05
11030.0 7.8328e-05
11050.0 7.7551e-05
11070.0 7.6768e-05
11090.0 7.5937e-05
11110.0 7.5168e-05
11130.0 7.4422e-05
11150.0 7.3654e-05
11170.0 7.2896e-05
11190.0 7.219e-05
11210.0 7.1475e-05
11230.0 7.0754e-05
11250.0 7.0075e-05
11270.0 6.9427e-05
11290.0 6.8767e-05
11310.0 6.8126e-05
11330.0 6.7543e-05
11350.0 6.6957e-05
11370.0 6.6366e-05
11390.0 6.58e-05
11410.0 6.5239e-05
11430.0 6.4633e-05
11450.0 6.4019e-05
11470.0 6.3397e-05
11490.0 6.2726e-05
11510.0 6.1992e-05
11530.0 6.1246e-05
11550.0 6.0462e-05
11570.0 5.9602e-05
11590.0 5.8707e-05
11610.0 5.7802e-05
11630.0 5.683e-05
11650.0 5.5803e-05
11670.0 5.4797e-05
11690.0 5.3773e-05
11710.0 5.2701e-05
11730.0 5.1629e-05
11750.0 5.0589e-05
11770.0 4.9507e-05
11790.0 4.8406e-05
11810.0 4.7336e-05
11830.0 4.6266e-05
11850.0 4.5144e-05
11870.0 4.4055e-05
11890.0 4.3004e-05
11910.0 4.1933e-05
11930.0 4.0864e-05
11950.0 3.9853e-05
11970.0 3.8857e-05
11990.0 3.7854e-05
12010.0 3.6911e-05
12030.0 3.6025e-05
12050.0 3.5159e-05
12070.0 3.4326e-05
12090.0 3.3588e-05
12110.0 3.2893e-05
12130.0 3.2239e-05
12150.0 3.1659e-05
12170.0 3.1151e-05
12190.0 3.0686e-05
12210.0 3.0296e-05
12230.0 2.9984e-05
12250.0 2.9738e-05
12270.0 2.9559e-05
12290.0 2.945e-05
12310.0 2.9402e-05
12330.0 2.9415e-05
12350.0 2.9484e-05
12370.0 2.9592e-05
12390.0 2.974e-05
12410.0 2.9937e-05
12430.0 3.014e-05
12450.0 3.0353e-05
12470.0 3.0587e-05
12490.0 3.0821e-05
12510.0 3.1034e-05
12530.0 3.1248e-05
12550.0 3.1454e-05
12570.0 3.1627e-05
12590.0 3.1771e-05
12610.0 3.1895e-05
12630.0 3.1978e-05
12650.0 3.2008e-05
12670.0 3.1999e-05
12690.0 3.1941e-05
12710.0 3.1827e-05
12730.0 3.1662e-05
12750.0 3.1441e-05
12770.0 3.1166e-05
12790.0 3.0847e-05
12810.0 3.0479e-05
12830.0 3.0064e-05
12850.0 2.9628e-05
12870.0 2.9169e-05
12890.0 2.868e-05
12910.0 2.8185e-05
12930.0 2.7698e-05
12950.0 2.7199e-05
12970.0 2.6699e-05
12990.0 2.6227e-05
13010.0 2.5767e-05
13030.0 2.5312e-05
13050.0 2.4877e-05
13070.0 2.447e-05
13090.0 2.4066e-05
13110.0 2.3676e-05
13130.0 2.331e-05
13150.0 2.2957e-05
13170.0 2.2607e-05
13190.0 2.228e-05
13210.0 2.1972e-05
13230.0 2.1671e-05
13250.0 2.1382e-05
13270.0 2.1112e-05
13290.0 2.0851e-05
13310.0 2.0595e-05
13330.0 2.0354e-05
13350.0 2.0125e-05
13370.0 1.99e-05
13390.0 1.968e-05
13410.0 1.9474e-05
13430.0 1.9272e-05
13450.0 1.907e-05
13470.0 1.8876e-05
13490.0 1.8688e-05
13510.0 1.8496e-05
13530.0 1.8307e-05
13550.0 1.8124e-05
13570.0 1.7941e-05
13590.0 1.7755e-05
13610.0 1.7574e-05
13630.0 1.7397e-05
13650.0 1.7215e-05
13670.0 1.7035e-05
13690.0 1.6861e-05
13710.0 1.6686e-05
13730.0 1.6507e-05
13750.0 1.6337e-05
13770.0 1.617e-05
13790.0 1.6003e-05
13810.0 1.5839e-05
13830.0 1.5683e-05
13850.0 1.5528e-05
13870.0 1.5374e-05
13890.0 1.5229e-05
13910.0 1.5089e-05
13930.0 1.495e-05
13950.0 1.4815e-05
13970.0 1.4691e-05
13990.0 1.4568e-05
14010.0 1.4446e-05
14030.0 1.4331e-05
14050.0 1.4219e-05
14070.0 1.4104e-05
14090.0 1.3992e-05
14110.0 1.3884e-05
14130.0 1.3774e-05
14150.0 1.3663e-05
14170.0 1.3558e-05
14190.0 1.3455e-05
14210.0 1.3351e-05
14230.0 1.3252e-05
14250.0 1.316e-05
14270.0 1.307e-05
14290.0 1.2985e-05
14310.0 1.2911e-05
14330.0 1.2843e-05
14350.0 1.278e-05
14370.0 1.2725e-05
14390.0 1.2678e-05
14410.0 1.2635e-05
14430.0 1.2597e-05
14450.0 1.2564e-05
14470.0 1.2535e-05
14490.0 1.2505e-05
14510.0 1.2479e-05
14530.0 1.2455e-05
14550.0 1.243e-05
14570.0 1.2406e-05
14590.0 1.2385e-05
14610.0 1.2365e-05
14630.0 1.2347e-05
14650.0 1.2335e-05
14670.0 1.233e-05
14690.0 1.2335e-05
14710.0 1.2353e-05
14730.0 1.2388e-05
14750.0 1.2441e-05
14770.0 1.252e-05
14790.0 1.2625e-05
14810.0 1.2755e-05
14830.0 1.2927e-05
14850.0 1.3132e-05
14870.0 1.3364e-05
14890.0 1.3631e-05
14910.0 1.393e-05
14930.0 1.4235e-05
14950.0 1.4537e-05
14970.0 1.4838e-05
14990.0 1.511e-05
15010.0 1.5339e-05
15030.0 1.5532e-05
15050.0 1.5688e-05
15070.0 1.5803e-05
15090.0 1.5893e-05
15110.0 1.5967e-05
15130.0 1.603e-05
15150.0 1.6087e-05
15170.0 1.6142e-05
15190.0 1.6196e-05
15210.0 1.6251e-05
15230.0 1.6307e-05
15250.0 1.6364e-05
15270.0 1.6422e-05
15290.0 1.6482e-05
15310.0 1.6542e-05
15330.0 1.6604e-05
15350.0 1.6667e-05
15370.0 1.673e-05
15390.0 1.6795e-05
15410.0 1.6861e-05
15430.0 1.6928e-05
15450.0 1.6996e-05
15470.0 1.7065e-05
15490.0 1.7135e-05
15510.0 1.7207e-05
15530.0 1.7279e-05
15550.0 1.7351e-05
15570.0 1.7425e-05
15590.0 1.75e-05
15610.0 1.7576e-05
15630.0 1.7653e-05
15650.0 1.773e-05
15670.0 1.7808e-05
15690.0 1.7887e-05
15710.0 1.7967e-05
15730.0 1.8048e-05
15750.0 1.813e-05
15770.0 1.8212e-05
15790.0 1.8295e-05
15810.0 1.8378e-05
15830.0 1.8462e-05
15850.0 1.8547e-05
15870.0 1.8633e-05
15890.0 1.8719e-05
15910.0 1.8806e-05
15930.0 1.8893e-05
15950.0 1.898e-05
15970.0 1.9069e-05
15990.0 1.9157e-05
16010.0 1.9246e-05
16030.0 1.9336e-05
16050.0 1.9426e-05
16070.0 1.9516e-05
16090.0 1.9606e-05
16110.0 1.9697e-05
16130.0 1.9788e-05
16150.0 1.9879e-05
16170.0 1.9971e-05
16190.0 2.0062e-05
16210.0 2.0154e-05
16230.0 2.0246e-05
16250.0 2.0338e-05
16270.0 2.043e-05
16290.0 2.0522e-05
16310.0 2.0614e-05
16330.0 2.0706e-05
16350.0 2.0797e-05
16370.0 2.0889e-05
16390.0 2.098e-05
16410.0 2.1072e-05
16430.0 2.1162e-05
16450.0 2.1253e-05
16470.0 2.1344e-05
16490.0 2.1434e-05
16510.0 2.1523e-05
16530.0 2.1613e-05
16550.0 2.1701e-05
16570.0 2.179e-05
16590.0 2.1878e-05
16610.0 2.1965e-05
16630.0 2.2052e-05
16650.0 2.2138e-05
16670.0 2.2223e-05
16690.0 2.2308e-05
16710.0 2.2392e-05
16730.0 2.2475e-05
16750.0 2.2557e-05
16770.0 2.2639e-05
16790.0 2.2719e-05
16810.0 2.2799e-05
16830.0 2.2878e-05
16850.0 2.2956e-05
16870.0 2.3033e-05
16890.0 2.3108e-05
16910.0 2.3183e-05
16930.0 2.3256e-05
16950.0 2.3329e-05
16970.0 2.34e-05
16990.0 2.347e-05
17010.0 2.3539e-05
17030.0 2.3607e-05
17050.0 2.3673e-05
17070.0 2.3738e-05
17090.0 2.3801e-05
17110.0 2.3863e-05
17130.0 2.3924e-05
17150.0 2.3983e-05
17170.0 2.4041e-05
17190.0 2.4097e-05
17210.0 2.4152e-05
17230.0 2.4205e-05
17250.0 2.4256e-05
17270.0 2.4306e-05
17290.0 2.4355e-05
17310.0 2.4401e-05
17330.0 2.4446e-05
17350.0 2.449e-05
17370.0 2.4531e-05
17390.0 2.4571e-05
17410.0 2.4609e-05
17430.0 2.4645e-05
17450.0 2.468e-05
17470.0 2.4712e-05
17490.0 2.4743e-05
17510.0 2.4772e-05
17530.0 2.4799e-05
17550.0 2.4824e-05
17570.0 2.4848e-05
17590.0 2.4869e-05
17610.0 2.4889e-05
17630.0 2.4906e-05
17650.0 2.4922e-05
17670.0 2.4936e-05
17690.0 2.4947e-05
17710.0 2.4957e-05
17730.0 2.4965e-05
17750.0 2.4971e-05
17770.0 2.4975e-05
17790.0 2.4977e-05
17810.0 2.4977e-05
17830.0 2.4975e-05
17850.0 2.4971e-05
17870.0 2.4965e-05
17890.0 2.4957e-05
17910.0 2.4947e-05
17930.0 2.4935e-05
17950.0 2.4921e-05
17970.0 2.4905e-05
17990.0 2.4887e-05
18010.0 2.4868e-05
18030.0 2.4846e-05
18050.0 2.4822e-05
18070.0 2.4797e-05
18090.0 2.4769e-05
18110.0 2.474e-05
18130.0 2.4709e-05
18150.0 2.4675e-05
18170.0 2.464e-05
18190.0 2.4603e-05
18210.0 2.4565e-05
18230.0 2.4524e-05
18250.0 2.4482e-05
18270.0 2.4437e-05
18290.0 2.4391e-05
18310.0 2.4344e-05
18330.0 2.4294e-05
18350.0 2.4243e-05
18370.0 2.419e-05
18390.0 2.4135e-05
18410.0 2.4079e-05
18430.0 2.4021e-05
18450.0 2.3961e-05
18470.0 2.39e-05
18490.0 2.3837e-05
18510.0 2.3773e-05
18530.0 2.3707e-05
18550.0 2.3639e-05
18570.0 2.357e-05
18590.0 2.35e-05
18610.0 2.3428e-05
18630.0 2.3355e-05
18650.0 2.328e-05
18670.0 2.3204e-05
18690.0 2.3127e-05
18710.0 2.3048e-05
18730.0 2.2968e-05
18750.0 2.2887e-05
18770.0 2.2804e-05
18790.0 2.2721e-05
18810.0 2.2636e-05
18830.0 2.255e-05
18850.0 2.2462e-05
18870.0 2.2374e-05
18890.0 2.2285e-05
18910.0 2.2194e-05
18930.0 2.2103e-05
18950.0 2.2011e-05
18970.0 2.1917e-05
18990.0 2.1823e-05
19010.0 2.1728e-05
19030.0 2.1632e-05
19050.0 2.1535e-05
19070.0 2.1437e-05
19090.0 2.1338e-05
19110.0 2.1239e-05
19130.0 2.1139e-05
19150.0 2.1038e-05
19170.0 2.0937e-05
19190.0 2.0835e-05
19210.0 2.0732e-05
19230.0 2.0629e-05
19250.0 2.0525e-05
19270.0 2.0421e-05
19290.0 2.0316e-05
19310.0 2.021e-05
19330.0 2.0104e-05
19350.0 1.9998e-05
19370.0 1.9891e-05
19390.0 1.9784e-05
19410.0 1.9676e-05
19430.0 1.9568e-05
19450.0 1.946e-05
19470.0 1.9352e-05
19490.0 1.9243e-05
19510.0 1.9134e-05
19530.0 1.9025e-05
19550.0 1.8916e-05
19570.0 1.8806e-05
19590.0 1.8696e-05
19610.0 1.8586e-05
19630.0 1.8476e-05
19650.0 1.8366e-05
19670.0 1.8256e-05
19690.0 1.8146e-05
19710.0 1.8036e-05
19730.0 1.7926e-05
19750.0 1.7816e-05
19770.0 1.7706e-05
19790.0 1.7596e-05
19810.0 1.7486e-05
19830.0 1.7375e-05
19850.0 1.7264e-05
19870.0 1.7152e-05
19890.0 1.7036e-05
19910.0 1.6915e-05
19930.0 1.6784e-05
19950.0 1.6639e-05
19970.0 1.6473e-05
19990.0 1.628e-05
20010.0 1.6066e-05
20030.0 1.582e-05
20050.0 1.5545e-05
20070.0 1.5255e-05
20090.0 1.4952e-05
20110.0 1.4626e-05
20130.0 1.4304e-05
20150.0 1.399e-05
20170.0 1.3674e-05
20190.0 1.336e-05
20210.0 1.3064e-05
20230.0 1.2776e-05
20250.0 1.249e-05
20270.0 1.2219e-05
20290.0 1.1965e-05
20310.0 1.1718e-05
20330.0 1.148e-05
20350.0 1.1265e-05
20370.0 1.1061e-05
20390.0 1.0867e-05
20410.0 1.0689e-05
20430.0 1.0526e-05
20450.0 1.0371e-05
20470.0 1.0229e-05
20490.0 1.0101e-05
20510.0 9.983e-06
20530.0 9.8735e-06
20550.0 9.7742e-06
20570.0 9.6837e-06
20590.0 9.5992e-06
20610.0 9.5208e-06
20630.0 9.4478e-06
20650.0 9.3786e-06
20670.0 9.3124e-06
20690.0 9.2483e-06
20710.0 9.1852e-06
20730.0 9.1223e-06
20750.0 9.0587e-06
20770.0 8.9938e-06
20790.0 8.9269e-06
20810.0 8.8573e-06
20830.0 8.7849e-06
20850.0 8.7096e-06
20870.0 8.6302e-06
20890.0 8.5469e-06
20910.0 8.4615e-06
20930.0 8.3723e-06
20950.0 8.2793e-06
20970.0 8.1846e-06
20990.0 8.0884e-06
21010.0 7.9882e-06
21030.0 7.887e-06
21050.0 7.7862e-06
21070.0 7.684e-06
21090.0 7.58e-06
21110.0 7.4786e-06
21130.0 7.3783e-06
21150.0 7.2773e-06
21170.0 7.178e-06
21190.0 7.0819e-06
21210.0 6.9858e-06
21230.0 6.8907e-06
21250.0 6.7997e-06
21270.0 6.711e-06
21290.0 6.6232e-06
21310.0 6.5384e-06
21330.0 6.4579e-06
21350.0 6.3788e-06
21370.0 6.302e-06
21390.0 6.2292e-06
21410.0 6.1594e-06
21430.0 6.091e-06
21450.0 6.0267e-06
21470.0 5.9659e-06
21490.0 5.9074e-06
21510.0 5.8517e-06
21530.0 5.7992e-06
21550.0 5.7492e-06
21570.0 5.7013e-06
21590.0 5.6558e-06
21610.0 5.6124e-06
21630.0 5.5706e-06
21650.0 5.5303e-06
21670.0 5.4915e-06
21690.0 5.4538e-06
21710.0 5.4168e-06
21730.0 5.3807e-06
21750.0 5.3452e-06
21770.0 5.3101e-06
21790.0 5.2755e-06
21810.0 5.2412e-06
21830.0 5.2073e-06
21850.0 5.1736e-06
21870.0 5.1403e-06
21890.0 5.1072e-06
21910.0 5.0744e-06
21930.0 5.0418e-06
21950.0 5.0094e-06
21970.0 4.977e-06
21990.0 4.9447e-06
22010.0 4.9123e-06
22030.0 4.8798e-06
22050.0 4.8469e-06
22070.0 4.8137e-06
22090.0 4.7801e-06
22110.0 4.746e-06
22130.0 4.711e-06
22150.0 4.6755e-06
22170.0 4.6394e-06
22190.0 4.602e-06
22210.0 4.5639e-06
22230.0 4.5255e-06
22250.0 4.4859e-06
22270.0 4.4452e-06
22290.0 4.4042e-06
22310.0 4.3625e-06
22330.0 4.3189e-06
22350.0 4.2747e-06
22370.0 4.2301e-06
22390.0 4.184e-06
22410.0 4.136e-06
22430.0 4.088e-06
22450.0 4.039e-06
22470.0 3.9879e-06
22490.0 3.9359e-06
22510.0 3.8839e-06
22530.0 3.8295e-06
22550.0 3.7734e-06
22570.0 3.7182e-06
22590.0 3.6624e-06
22610.0 3.6049e-06
22630.0 3.5478e-06
