#lamb flux
1010.0 4.331e-07
1030.0 4.8593e-07
1050.0 5.467e-07
1070.0 6.1511e-07
1090.0 6.9281e-07
1110.0 7.725e-07
1130.0 8.5271e-07
1150.0 9.3673e-07
1170.0 1.0234e-06
1190.0 1.1056e-06
1210.0 1.1889e-06
1230.0 1.2749e-06
1250.0 1.3593e-06
1270.0 1.4412e-06
1290.0 1.5277e-06
1310.0 1.6142e-06
1330.0 1.6971e-06
1350.0 1.7809e-06
1370.0 1.8675e-06
1390.0 1.9519e-06
1410.0 2.0338e-06
1430.0 2.1194e-06
1450.0 2.2049e-06
1470.0 2.2876e-06
1490.0 2.3712e-06
1510.0 2.4595e-06
1530.0 2.5431e-06
1550.0 2.6255e-06
1570.0 2.7108e-06
1590.0 2.7961e-06
1610.0 2.8775e-06
1630.0 2.9614e-06
1650.0 3.0475e-06
1670.0 3.1306e-06
1690.0 3.2126e-06
1710.0 3.2976e-06
1730.0 3.383e-06
1750.0 3.463e-06
1770.0 3.5453e-06
1790.0 3.629e-06
1810.0 3.7097e-06
1830.0 3.7887e-06
1850.0 3.8723e-06
1870.0 3.9532e-06
1890.0 4.0308e-06
1910.0 4.1095e-06
1930.0 4.1896e-06
1950.0 4.2652e-06
1970.0 4.3389e-06
1990.0 4.4149e-06
2010.0 4.4884e-06
2030.0 4.5579e-06
2050.0 4.6286e-06
2070.0 4.7e-06
2090.0 4.7652e-06
2110.0 4.8285e-06
2130.0 4.8924e-06
2150.0 4.9528e-06
2170.0 5.0078e-06
2190.0 5.0635e-06
2210.0 5.1172e-06
2230.0 5.1653e-06
2250.0 5.2104e-06
2270.0 5.2561e-06
2290.0 5.2964e-06
2310.0 5.3307e-06
2330.0 5.3642e-06
2350.0 5.3954e-06
2370.0 5.4212e-06
2390.0 5.4463e-06
2410.0 5.4754e-06
2430.0 5.5049e-06
2450.0 5.5381e-06
2470.0 5.5833e-06
2490.0 5.6438e-06
2510.0 5.7138e-06
2530.0 5.811e-06
2550.0 5.9602e-06
2570.0 6.1831e-06
2590.0 6.515e-06
2610.0 7.0604e-06
2630.0 7.853e-06
2650.0 8.861e-06
2670.0 1.0109e-05
2690.0 1.1557e-05
2710.0 1.2991e-05
2730.0 1.4293e-05
2750.0 1.547e-05
2770.0 1.6377e-05
2790.0 1.6986e-05
2810.0 1.7376e-05
2830.0 1.7598e-05
2850.0 1.7653e-05
2870.0 1.7619e-05
2890.0 1.7541e-05
2910.0 1.7431e-05
2930.0 1.7297e-05
2950.0 1.7164e-05
2970.0 1.7034e-05
2990.0 1.6901e-05
3010.0 0.00043793
3030.0 0.00043462
3050.0 0.00043137
3070.0 0.00042785
3090.0 0.00042419
3110.0 0.00041996
3130.0 0.00041466
3150.0 0.000408
3170.0 0.0003994
3190.0 0.00038904
3210.0 0.00037767
3230.0 0.00036591
3250.0 0.00035504
3270.0 0.00034725
3290.0 0.00034283
3310.0 0.00034321
3330.0 0.00034794
3350.0 0.00035635
3370.0 0.00036856
3390.0 0.00038413
3410.0 0.00040122
3430.0 0.00042062
3450.0 0.00044308
3470.0 0.00046768
3490.0 0.00049385
3510.0 0.0005234
3530.0 0.00055525
3550.0 0.00058827
3570.0 0.00062383
3590.0 0.00066385
3610.0 0.00070705
3630.0 0.00075181
3650.0 0.00079911
3670.0 0.00084305
3690.0 0.00087684
3710.0 0.00089605
3730.0 0.0008933
3750.0 0.0008679
3770.0 0.00083156
3790.0 0.00077132
3810.0 0.00066216
3830.0 0.00059401
3850.0 0.00058504
3870.0 0.00044421
3890.0 0.00051823
3910.0 0.00076674
3930.0 0.00095856
3950.0 0.00098389
3970.0 0.0010818
3990.0 0.0011023
4010.0 0.0015268
4030.0 0.0014696
4050.0 0.0013014
4070.0 0.0012868
4090.0 0.00123
4110.0 0.0013971
4130.0 0.0015686
4150.0 0.0017328
4170.0 0.0015903
4190.0 0.0015319
4210.0 0.0015817
4230.0 0.0018511
4250.0 0.0020751
4270.0 0.0021676
4290.0 0.0021048
4310.0 0.002057
4330.0 0.0021953
4350.0 0.0026508
4370.0 0.0030833
4390.0 0.0027307
4410.0 0.0019898
4430.0 0.0016014
4450.0 0.0013977
4470.0 0.001266
4490.0 0.0015362
4510.0 0.0020685
4530.0 0.0023782
4550.0 0.0025812
4570.0 0.0027857
4590.0 0.0032555
4610.0 0.0048065
4630.0 0.00618
4650.0 0.0061107
4670.0 0.0056572
4690.0 0.006015
4710.0 0.0063969
4730.0 0.0053055
4750.0 0.0036002
4770.0 0.0028064
4790.0 0.0028609
4810.0 0.0027542
4830.0 0.0026359
4850.0 0.0029635
4870.0 0.0038874
4890.0 0.0045275
4910.0 0.0036816
4930.0 0.0033227
4950.0 0.0037456
4970.0 0.0050566
4990.0 0.0067009
5010.0 0.0073789
5030.0 0.0059904
5050.0 0.0037105
5070.0 0.0025742
5090.0 0.0021913
5110.0 0.0022194
5130.0 0.0024588
5150.0 0.0025052
5170.0 0.0024604
5190.0 0.0023507
5210.0 0.002345
5230.0 0.0025661
5250.0 0.0028313
5270.0 0.0030083
5290.0 0.0034171
5310.0 0.0040353
5330.0 0.0041668
5350.0 0.0041421
5370.0 0.0045707
5390.0 0.005243
5410.0 0.0048586
5430.0 0.003975
5450.0 0.0037452
5470.0 0.0042549
5490.0 0.0054522
5510.0 0.0069223
5530.0 0.00784
5550.0 0.0073736
5570.0 0.0066148
5590.0 0.0057116
5610.0 0.0054533
5630.0 0.0054897
5650.0 0.0054323
5670.0 0.0051975
5690.0 0.0045776
5710.0 0.0044616
5730.0 0.0041846
5750.0 0.0026556
5770.0 0.002191
5790.0 0.0025475
5810.0 0.0030023
5830.0 0.0037585
5850.0 0.0043941
5870.0 0.0045781
5890.0 0.0043888
5910.0 0.0042095
5930.0 0.0041716
5950.0 0.0043509
5970.0 0.0049363
5990.0 0.0044442
6010.0 0.0036114
6030.0 0.0029741
6050.0 0.0025909
6070.0 0.0027449
6090.0 0.0031214
6110.0 0.0033596
6130.0 0.0031703
6150.0 0.0027556
6170.0 0.0027565
6190.0 0.0033665
6210.0 0.0044354
6230.0 0.0055558
6250.0 0.0056891
6270.0 0.0048165
6290.0 0.0040243
6310.0 0.0031508
6330.0 0.0024292
6350.0 0.0022304
6370.0 0.0023767
6390.0 0.0028495
6410.0 0.0034178
6430.0 0.0040218
6450.0 0.0047846
6470.0 0.0055497
6490.0 0.0068163
6510.0 0.0076189
6530.0 0.0072575
6550.0 0.006649
6570.0 0.0060913
6590.0 0.005882
6610.0 0.00509
6630.0 0.0047974
6650.0 0.0044575
6670.0 0.0044015
6690.0 0.0040791
6710.0 0.0037158
6730.0 0.0029018
6750.0 0.0027934
6770.0 0.0030593
6790.0 0.0036405
6810.0 0.0033152
6830.0 0.003407
6850.0 0.0032063
6870.0 0.0030592
6890.0 0.0028877
6910.0 0.0029434
6930.0 0.002749
6950.0 0.0029503
6970.0 0.0029796
6990.0 0.0033257
7010.0 0.0034813
7030.0 0.0033855
7050.0 0.0031014
7070.0 0.0029232
7090.0 0.0028123
7110.0 0.0027169
7130.0 0.0028765
7150.0 0.0031306
7170.0 0.003391
7190.0 0.0034655
7210.0 0.0032686
7230.0 0.0033441
7250.0 0.0037596
7270.0 0.0043188
7290.0 0.0048796
7310.0 0.0048669
7330.0 0.0043612
7350.0 0.0038905
7370.0 0.0034096
7390.0 0.0034826
7410.0 0.0038661
7430.0 0.0042709
7450.0 0.0046124
7470.0 0.0047897
7490.0 0.0049774
7510.0 0.0058389
7530.0 0.0053666
7550.0 0.0046107
7570.0 0.0034597
7590.0 0.0022798
7610.0 0.0019536
7630.0 0.0022249
7650.0 0.0026435
7670.0 0.0032998
7690.0 0.003742
7710.0 0.0038286
7730.0 0.0038838
7750.0 0.0042744
7770.0 0.0042818
7790.0 0.0040671
7810.0 0.0038715
7830.0 0.0038728
7850.0 0.0036864
7870.0 0.0034139
7890.0 0.0029547
7910.0 0.0023741
7930.0 0.0021427
7950.0 0.0019333
7970.0 0.0018232
7990.0 0.0018232
8010.0 0.0018899
8030.0 0.0018715
8050.0 0.0019071
8070.0 0.0019078
8090.0 0.0020078
8110.0 0.0018882
8130.0 0.0015603
8150.0 0.0014754
8170.0 0.0012861
8190.0 0.0012268
8210.0 0.0014196
8230.0 0.0015461
8250.0 0.0013191
8270.0 0.0011672
8290.0 0.0010355
8310.0 0.0007339
8330.0 0.00047112
8350.0 0.00035053
8370.0 0.00032214
8390.0 0.00042499
8410.0 0.00053403
8430.0 0.00065674
8450.0 0.00072873
8470.0 0.00086311
8490.0 0.00081881
8510.0 0.00079219
8530.0 0.00076755
8550.0 0.0010434
8570.0 0.0013453
8590.0 0.001416
8610.0 0.0017672
8630.0 0.0020271
8650.0 0.001968
8670.0 0.0020788
8690.0 0.0022093
8710.0 0.0020415
8730.0 0.0019983
8750.0 0.0017964
8770.0 0.0017062
8790.0 0.0017274
8810.0 0.0016834
8830.0 0.0013263
8850.0 0.0010298
8870.0 0.00084546
8890.0 0.00090913
8910.0 0.001051
8930.0 0.0011703
8950.0 0.0013255
8970.0 0.0013332
8990.0 0.0012469
9010.0 0.0011131
9030.0 0.0010714
9050.0 0.0010872
9070.0 0.0011006
9090.0 0.0011107
9110.0 0.001121
9130.0 0.0011292
9150.0 0.0011362
9170.0 0.0011436
9190.0 0.0011514
9210.0 0.0011597
9230.0 0.0011684
9250.0 0.0011775
9270.0 0.001187
9290.0 0.0011967
9310.0 0.0012069
9330.0 0.0012173
9350.0 0.001228
9370.0 0.0012391
9390.0 0.0012505
9410.0 0.0012621
9430.0 0.0012741
9450.0 0.0012864
9470.0 0.001299
9490.0 0.0013118
9510.0 0.001325
9530.0 0.0013385
9550.0 0.0013522
9570.0 0.0013662
9590.0 0.0013805
9610.0 0.0013951
9630.0 0.0014099
9650.0 0.001425
9670.0 0.0014404
9690.0 0.0014559
9710.0 0.0014718
9730.0 0.0014878
9750.0 0.0015041
9770.0 0.0015206
9790.0 0.0015374
9810.0 0.0015543
9830.0 0.0015714
9850.0 0.0015887
9870.0 0.0016062
9890.0 0.0016239
9910.0 0.0016417
9930.0 0.0016596
9950.0 0.0016777
9970.0 0.0016959
9990.0 0.0017142
10010.0 0.0016297
10030.0 0.0016467
10050.0 0.0016637
10070.0 0.0016807
10090.0 0.0016979
10110.0 0.0017151
10130.0 0.0017323
10150.0 0.0017496
10170.0 0.0017668
10190.0 0.0017839
10210.0 0.0018011
10230.0 0.0018182
10250.0 0.0018352
10270.0 0.0018521
10290.0 0.001869
10310.0 0.0018858
10330.0 0.0019023
10350.0 0.0019189
10370.0 0.0019352
10390.0 0.0019514
10410.0 0.0019674
10430.0 0.0019832
10450.0 0.0019988
10470.0 0.0020142
10490.0 0.0020294
10510.0 0.0020443
10530.0 0.0020589
10550.0 0.0020733
10570.0 0.0020874
10590.0 0.0021012
10610.0 0.0021146
10630.0 0.0021278
10650.0 0.0021407
10670.0 0.0021531
10690.0 0.0021652
10710.0 0.002177
10730.0 0.0021884
10750.0 0.0021993
10770.0 0.0022099
10790.0 0.0022201
10810.0 0.0022298
10830.0 0.002239
10850.0 0.0022477
10870.0 0.0022553
10890.0 0.0022616
10910.0 0.002266
10930.0 0.0022673
10950.0 0.0022635
10970.0 0.0022538
10990.0 0.0022375
11010.0 0.0022024
11030.0 0.0021682
11050.0 0.0021269
11070.0 0.0020777
11090.0 0.0020182
11110.0 0.0019567
11130.0 0.0018924
11150.0 0.001823
11170.0 0.0017517
11190.0 0.001683
11210.0 0.0016126
11230.0 0.0015413
11250.0 0.0014741
11270.0 0.0014106
11290.0 0.0013481
11310.0 0.0012899
11330.0 0.0012394
11350.0 0.0011923
11370.0 0.0011492
11390.0 0.0011121
11410.0 0.0010795
11430.0 0.0010488
11450.0 0.0010216
11470.0 0.0009971
11490.0 0.00097322
11510.0 0.00094899
11530.0 0.0009254
11550.0 0.00090115
11570.0 0.00087471
11590.0 0.00084706
11610.0 0.00081889
11630.0 0.00078848
11650.0 0.00075632
11670.0 0.00072504
11690.0 0.00069377
11710.0 0.00066203
11730.0 0.00063169
11750.0 0.00060392
11770.0 0.00057701
11790.0 0.00055201
11810.0 0.00053008
11830.0 0.00051047
11850.0 0.00049236
11870.0 0.00047697
11890.0 0.00046384
11910.0 0.0004519
11930.0 0.00044112
11950.0 0.00043153
11970.0 0.00042238
11990.0 0.00041314
12010.0 0.00040407
12030.0 0.00039495
12050.0 0.00038529
12070.0 0.00037511
12090.0 0.00036518
12110.0 0.00035503
12130.0 0.00034474
12150.0 0.00033499
12170.0 0.00032608
12190.0 0.00031767
12210.0 0.0003106
12230.0 0.00030518
12250.0 0.00030136
12270.0 0.0002994
12290.0 0.00029943
12310.0 0.00030126
12330.0 0.00030517
12350.0 0.00031096
12370.0 0.0003181
12390.0 0.00032674
12410.0 0.00033722
12430.0 0.00034791
12450.0 0.00035897
12470.0 0.0003707
12490.0 0.00038231
12510.0 0.0003929
12530.0 0.00040321
12550.0 0.00041283
12570.0 0.00042088
12590.0 0.0004275
12610.0 0.00043296
12630.0 0.00043673
12650.0 0.00043858
12670.0 0.00043898
12690.0 0.0004378
12710.0 0.00043507
12730.0 0.00043101
12750.0 0.00042553
12770.0 0.00041892
12790.0 0.00041147
12810.0 0.00040306
12830.0 0.00039373
12850.0 0.00038414
12870.0 0.00037415
12890.0 0.00036348
12910.0 0.00035264
12930.0 0.00034187
12950.0 0.00033059
12970.0 0.00031898
12990.0 0.00030778
13010.0 0.00029654
13030.0 0.00028501
13050.0 0.00027371
13070.0 0.00026292
13090.0 0.00025196
13110.0 0.00024121
13130.0 0.00023117
13150.0 0.00022158
13170.0 0.00021217
13190.0 0.00020375
13210.0 0.00019631
13230.0 0.00018953
13250.0 0.0001837
13270.0 0.00017908
13290.0 0.00017546
13310.0 0.00017291
13330.0 0.00017158
13350.0 0.00017134
13370.0 0.00017221
13390.0 0.0001742
13410.0 0.00017693
13430.0 0.00018051
13450.0 0.0001849
13470.0 0.0001897
13490.0 0.00019469
13510.0 0.00020028
13530.0 0.00020584
13550.0 0.00021106
13570.0 0.00021614
13590.0 0.00022102
13610.0 0.00022526
13630.0 0.00022887
13650.0 0.00023209
13670.0 0.00023464
13690.0 0.00023645
13710.0 0.00023769
13730.0 0.00023837
13750.0 0.00023836
13770.0 0.00023783
13790.0 0.00023679
13810.0 0.00023527
13830.0 0.00023339
13850.0 0.0002311
13870.0 0.00022842
13890.0 0.0002255
13910.0 0.00022235
13930.0 0.00021884
13950.0 0.00021515
13970.0 0.00021146
13990.0 0.00020756
14010.0 0.00020351
14030.0 0.00019956
14050.0 0.00019566
14070.0 0.00019163
14090.0 0.00018785
14110.0 0.00018435
14130.0 0.00018103
14150.0 0.00017796
14170.0 0.00017539
14190.0 0.00017322
14210.0 0.00017144
14230.0 0.00017017
14250.0 0.00016942
14270.0 0.00016916
14290.0 0.00016945
14310.0 0.00017021
14330.0 0.00017144
14350.0 0.00017316
14370.0 0.00017526
14390.0 0.00017761
14410.0 0.00018037
14430.0 0.0001834
14450.0 0.00018652
14470.0 0.00018981
14490.0 0.0001934
14510.0 0.00019696
14530.0 0.00020049
14550.0 0.00020422
14570.0 0.00020808
14590.0 0.00021189
14610.0 0.00021593
14630.0 0.00022032
14650.0 0.00022482
14670.0 0.00022953
14690.0 0.00023475
14710.0 0.00024045
14730.0 0.00024621
14750.0 0.00025251
14770.0 0.00025941
14790.0 0.00026653
14810.0 0.00027383
14830.0 0.0002819
14850.0 0.00029006
14870.0 0.00029802
14890.0 0.00030607
14910.0 0.00031409
14930.0 0.00032139
14950.0 0.0003279
14970.0 0.00033379
14990.0 0.00033855
15010.0 0.00034207
15030.0 0.0003446
15050.0 0.0003462
15070.0 0.00034694
15090.0 0.00034717
15110.0 0.00034702
15130.0 0.00034665
15150.0 0.00034619
15170.0 0.00034566
15190.0 0.00034508
15210.0 0.00034453
15230.0 0.00034398
15250.0 0.00034341
15270.0 0.00034285
15290.0 0.00034233
15310.0 0.00034179
15330.0 0.00034125
15350.0 0.00034073
15370.0 0.00034023
15390.0 0.00033968
15410.0 0.00033916
15430.0 0.00033866
15450.0 0.00033815
15470.0 0.00033761
15490.0 0.00033713
15510.0 0.00033664
15530.0 0.00033612
15550.0 0.00033561
15570.0 0.00033514
15590.0 0.00033462
15610.0 0.00033409
15630.0 0.00033361
15650.0 0.00033312
15670.0 0.0003326
15690.0 0.00033209
15710.0 0.00033162
15730.0 0.0003311
15750.0 0.00033057
15770.0 0.00033008
15790.0 0.00032958
15810.0 0.00032903
15830.0 0.00032851
15850.0 0.00032801
15870.0 0.00032748
15890.0 0.00032694
15910.0 0.00032643
15930.0 0.0003259
15950.0 0.00032533
15970.0 0.00032479
15990.0 0.00032425
16010.0 0.00032368
16030.0 0.0003231
16050.0 0.00032256
16070.0 0.000322
16090.0 0.0003214
16110.0 0.00032083
16130.0 0.00032027
16150.0 0.00031964
16170.0 0.00031903
16190.0 0.00031844
16210.0 0.00031782
16230.0 0.00031718
16250.0 0.00031656
16270.0 0.00031595
16290.0 0.00031529
16310.0 0.00031463
16330.0 0.000314
16350.0 0.00031333
16370.0 0.00031262
16390.0 0.00031195
16410.0 0.00031128
16430.0 0.00031057
16450.0 0.00030986
16470.0 0.00030918
16490.0 0.00030845
16510.0 0.0003077
16530.0 0.00030697
16550.0 0.00030624
16570.0 0.00030546
16590.0 0.00030469
16610.0 0.00030395
16630.0 0.00030316
16650.0 0.00030236
16670.0 0.00030158
16690.0 0.00030079
16710.0 0.00029994
16730.0 0.00029912
16750.0 0.00029831
16770.0 0.00029746
16790.0 0.00029659
16810.0 0.00029575
16830.0 0.0002949
16850.0 0.00029401
16870.0 0.00029313
16890.0 0.00029226
16910.0 0.00029134
16930.0 0.00029041
16950.0 0.00028951
16970.0 0.00028859
16990.0 0.00028764
17010.0 0.0002867
17030.0 0.00028578
17050.0 0.0002848
17070.0 0.00028382
17090.0 0.00028287
17110.0 0.00028189
17130.0 0.00028086
17150.0 0.00027987
17170.0 0.00027889
17190.0 0.00027786
17210.0 0.00027683
17230.0 0.00027583
17250.0 0.00027479
17270.0 0.00027372
17290.0 0.00027267
17310.0 0.00027163
17330.0 0.00027055
17350.0 0.00026946
17370.0 0.00026841
17390.0 0.00026733
17410.0 0.00026622
17430.0 0.00026513
17450.0 0.00026405
17470.0 0.0002629
17490.0 0.00026177
17510.0 0.00026067
17530.0 0.00025954
17550.0 0.00025838
17570.0 0.00025725
17590.0 0.00025613
17610.0 0.00025496
17630.0 0.00025379
17650.0 0.00025265
17670.0 0.00025149
17690.0 0.00025027
17710.0 0.00024911
17730.0 0.00024795
17750.0 0.00024675
17770.0 0.00024555
17790.0 0.00024439
17810.0 0.00024318
17830.0 0.00024195
17850.0 0.00024076
17870.0 0.00023956
17890.0 0.00023832
17910.0 0.0002371
17930.0 0.00023591
17950.0 0.00023468
17970.0 0.00023344
17990.0 0.00023223
18010.0 0.00023101
18030.0 0.00022974
18050.0 0.00022851
18070.0 0.00022729
18090.0 0.00022604
18110.0 0.00022477
18130.0 0.00022355
18150.0 0.00022232
18170.0 0.00022105
18190.0 0.0002198
18210.0 0.00021858
18230.0 0.00021731
18250.0 0.00021603
18270.0 0.00021479
18290.0 0.00021355
18310.0 0.00021227
18330.0 0.00021102
18350.0 0.00020979
18370.0 0.00020852
18390.0 0.00020725
18410.0 0.00020601
18430.0 0.00020476
18450.0 0.00020347
18470.0 0.00020222
18490.0 0.00020098
18510.0 0.00019972
18530.0 0.00019845
18550.0 0.00019722
18570.0 0.00019597
18590.0 0.00019469
18610.0 0.00019345
18630.0 0.00019221
18650.0 0.00019095
18670.0 0.00018968
18690.0 0.00018846
18710.0 0.00018722
18730.0 0.00018596
18750.0 0.00018473
18770.0 0.00018351
18790.0 0.00018224
18810.0 0.000181
18830.0 0.00017979
18850.0 0.00017855
18870.0 0.00017731
18890.0 0.0001761
18910.0 0.00017489
18930.0 0.00017365
18950.0 0.00017243
18970.0 0.00017123
18990.0 0.00017001
19010.0 0.00016877
19030.0 0.00016758
19050.0 0.00016639
19070.0 0.00016517
19090.0 0.00016397
19110.0 0.0001628
19130.0 0.0001616
19150.0 0.00016039
19170.0 0.00015922
19190.0 0.00015805
19210.0 0.00015684
19230.0 0.00015566
19250.0 0.00015452
19270.0 0.00015334
19290.0 0.00015217
19310.0 0.00015102
19330.0 0.00014988
19350.0 0.00014869
19370.0 0.00014754
19390.0 0.00014642
19410.0 0.00014527
19430.0 0.00014411
19450.0 0.000143
19470.0 0.00014188
19490.0 0.00014074
19510.0 0.00013962
19530.0 0.00013852
19550.0 0.00013739
19570.0 0.00013626
19590.0 0.00013517
19610.0 0.00013408
19630.0 0.00013296
19650.0 0.00013188
19670.0 0.00013081
19690.0 0.00012971
19710.0 0.00012862
19730.0 0.00012756
19750.0 0.0001265
19770.0 0.0001254
19790.0 0.00012435
19810.0 0.00012331
19830.0 0.00012224
19850.0 0.00012118
19870.0 0.00012014
19890.0 0.00011905
19910.0 0.00011791
19930.0 0.00011673
19950.0 0.00011547
19970.0 0.00011403
19990.0 0.00011241
20010.0 0.00011223
20030.0 0.0001102
20050.0 0.00010792
20070.0 0.00010555
20090.0 0.00010307
20110.0 0.00010037
20130.0 9.7692e-05
20150.0 9.5096e-05
20170.0 9.2463e-05
20190.0 8.9843e-05
20210.0 8.7398e-05
20230.0 8.5042e-05
20250.0 8.2711e-05
20270.0 8.0559e-05
20290.0 7.8599e-05
20310.0 7.6744e-05
20330.0 7.5015e-05
20350.0 7.3568e-05
20370.0 7.2281e-05
20390.0 7.1149e-05
20410.0 7.0227e-05
20430.0 6.9507e-05
20450.0 6.8939e-05
20470.0 6.8556e-05
20490.0 6.8347e-05
20510.0 6.8289e-05
20530.0 6.8385e-05
20550.0 6.8611e-05
20570.0 6.8937e-05
20590.0 6.9385e-05
20610.0 6.993e-05
20630.0 7.0528e-05
20650.0 7.1198e-05
20670.0 7.1968e-05
20690.0 7.2745e-05
20710.0 7.354e-05
20730.0 7.4394e-05
20750.0 7.5275e-05
20770.0 7.6124e-05
20790.0 7.7006e-05
20810.0 7.7928e-05
20830.0 7.8828e-05
20850.0 7.9717e-05
20870.0 8.0663e-05
20890.0 8.1616e-05
20910.0 8.2522e-05
20930.0 8.3459e-05
20950.0 8.4429e-05
20970.0 8.5369e-05
20990.0 8.6294e-05
21010.0 8.7276e-05
21030.0 8.8237e-05
21050.0 8.9154e-05
21070.0 9.0078e-05
21090.0 9.1018e-05
21110.0 9.1879e-05
21130.0 9.2697e-05
21150.0 9.351e-05
21170.0 9.4266e-05
21190.0 9.4935e-05
21210.0 9.5575e-05
21230.0 9.6155e-05
21250.0 9.6626e-05
21270.0 9.701e-05
21290.0 9.7312e-05
21310.0 9.7499e-05
21330.0 9.7559e-05
21350.0 9.7503e-05
21370.0 9.7307e-05
21390.0 9.697e-05
21410.0 9.649e-05
21430.0 9.5822e-05
21450.0 9.5004e-05
21470.0 9.4054e-05
21490.0 9.2925e-05
21510.0 9.1628e-05
21530.0 9.0248e-05
21550.0 8.8745e-05
21570.0 8.7081e-05
21590.0 8.5376e-05
21610.0 8.366e-05
21630.0 8.1872e-05
21650.0 8.0043e-05
21670.0 7.8368e-05
21690.0 7.6734e-05
21710.0 7.5155e-05
21730.0 7.3735e-05
21750.0 7.2495e-05
21770.0 7.1357e-05
21790.0 7.0421e-05
21810.0 6.971e-05
21830.0 6.919e-05
21850.0 6.8873e-05
21870.0 6.8774e-05
21890.0 6.8868e-05
21910.0 6.9165e-05
21930.0 6.9654e-05
21950.0 7.0292e-05
21970.0 7.1097e-05
21990.0 7.2102e-05
22010.0 7.3191e-05
22030.0 7.4373e-05
22050.0 7.5694e-05
22070.0 7.7101e-05
22090.0 7.8499e-05
22110.0 7.9977e-05
22130.0 8.1523e-05
22150.0 8.3028e-05
22170.0 8.4502e-05
22190.0 8.602e-05
22210.0 8.7484e-05
22230.0 8.881e-05
22250.0 9.0094e-05
22270.0 9.1308e-05
22290.0 9.237e-05
22310.0 9.3301e-05
22330.0 9.4143e-05
22350.0 9.4813e-05
22370.0 9.5305e-05
22390.0 9.5644e-05
22410.0 9.5807e-05
22430.0 9.5777e-05
22450.0 9.5572e-05
22470.0 9.517e-05
22490.0 9.458e-05
22510.0 9.3831e-05
22530.0 9.2866e-05
22550.0 9.1689e-05
22570.0 9.0381e-05
22590.0 8.8909e-05
22610.0 8.7217e-05
22630.0 8.5386e-05
22650.0 8.3493e-05
22670.0 8.1397e-05
22690.0 7.9156e-05
22710.0 7.6889e-05
22730.0 7.4544e-05
22750.0 7.1994e-05
22770.0 6.9489e-05
22790.0 6.7032e-05
22810.0 6.4501e-05
22830.0 6.1966e-05
22850.0 5.9585e-05
22870.0 5.7247e-05
22890.0 5.4919e-05
22910.0 5.2776e-05
22930.0 5.0818e-05
22950.0 4.8963e-05
22970.0 4.7262e-05
22990.0 4.5872e-05
23010.0 4.4663e-05
