#lamb flux
1010.0 8.3882e-07
1030.0 8.5422e-07
1050.0 9.1821e-07
1070.0 9.8758e-07
1090.0 1.0622e-06
1110.0 1.1294e-06
1130.0 1.188e-06
1150.0 1.244e-06
1170.0 1.2965e-06
1190.0 1.3378e-06
1210.0 1.3772e-06
1230.0 1.4177e-06
1250.0 1.4555e-06
1270.0 1.4918e-06
1290.0 1.5354e-06
1310.0 1.5824e-06
1330.0 1.6309e-06
1350.0 1.6866e-06
1370.0 1.7525e-06
1390.0 1.8252e-06
1410.0 1.9058e-06
1430.0 2.0013e-06
1450.0 2.1099e-06
1470.0 2.23e-06
1490.0 2.367e-06
1510.0 2.5263e-06
1530.0 2.7003e-06
1550.0 2.8937e-06
1570.0 3.1129e-06
1590.0 3.3566e-06
1610.0 3.6214e-06
1630.0 3.9161e-06
1650.0 4.2423e-06
1670.0 4.5939e-06
1690.0 4.9731e-06
1710.0 5.3868e-06
1730.0 5.8304e-06
1750.0 6.2925e-06
1770.0 6.7837e-06
1790.0 7.3007e-06
1810.0 7.831e-06
1830.0 8.3719e-06
1850.0 8.933e-06
1870.0 9.4925e-06
1890.0 1.0042e-05
1910.0 1.0585e-05
1930.0 1.1117e-05
1950.0 1.1616e-05
1970.0 1.2082e-05
1990.0 1.2521e-05
2010.0 1.2916e-05
2030.0 1.3257e-05
2050.0 1.3556e-05
2070.0 1.3812e-05
2090.0 1.4002e-05
2110.0 1.4141e-05
2130.0 1.4236e-05
2150.0 1.4279e-05
2170.0 1.4267e-05
2190.0 1.4222e-05
2210.0 1.4141e-05
2230.0 1.4019e-05
2250.0 1.3868e-05
2270.0 1.3704e-05
2290.0 1.3515e-05
2310.0 1.3305e-05
2330.0 1.3092e-05
2350.0 1.2877e-05
2370.0 1.2654e-05
2390.0 1.2438e-05
2410.0 1.224e-05
2430.0 1.2052e-05
2450.0 1.188e-05
2470.0 1.1739e-05
2490.0 1.1636e-05
2510.0 1.1565e-05
2530.0 1.1561e-05
2550.0 1.1672e-05
2570.0 1.1934e-05
2590.0 1.2401e-05
2610.0 1.3227e-05
2630.0 1.4445e-05
2650.0 1.5998e-05
2670.0 1.7936e-05
2690.0 2.0235e-05
2710.0 2.264e-05
2730.0 2.5044e-05
2750.0 2.7551e-05
2770.0 3.0005e-05
2790.0 3.2361e-05
2810.0 3.4783e-05
2830.0 3.7421e-05
2850.0 4.0075e-05
2870.0 4.2883e-05
2890.0 4.5968e-05
2910.0 4.9247e-05
2930.0 5.2606e-05
2950.0 5.6253e-05
2970.0 6.0164e-05
2990.0 6.4182e-05
3010.0 6.8374e-05
3030.0 7.2872e-05
3050.0 7.7539e-05
3070.0 8.2131e-05
3090.0 8.6783e-05
3110.0 9.124e-05
3130.0 9.5134e-05
3150.0 9.8283e-05
3170.0 0.00010041
3190.0 0.00010139
3210.0 0.00010148
3230.0 0.00010091
3250.0 0.00010016
3270.0 9.9948e-05
3290.0 0.0001004
3310.0 0.00010156
3330.0 0.00010345
3350.0 0.0001058
3370.0 0.0001086
3390.0 0.00011225
3410.0 0.00011543
3430.0 0.00011854
3450.0 0.00012164
3470.0 0.00012534
3490.0 0.00013454
3510.0 0.00015676
3530.0 0.00018828
3550.0 0.00021743
3570.0 0.00023694
3590.0 0.00024669
3610.0 0.00024548
3630.0 0.00023895
3650.0 0.00025719
3670.0 0.00030297
3690.0 0.000342
3710.0 0.00036646
3730.0 0.00038849
3750.0 0.00041063
3770.0 0.00040522
3790.0 0.00037953
3810.0 0.00035382
3830.0 0.00033076
3850.0 0.00032795
3870.0 0.00035591
3890.0 0.00038651
3910.0 0.00040701
3930.0 0.00042507
3950.0 0.0004693
3970.0 0.00050772
3990.0 0.00048486
4010.0 0.00042447
4030.0 0.00037056
4050.0 0.00035462
4070.0 0.00035829
4090.0 0.00035411
4110.0 0.00034776
4130.0 0.00034259
4150.0 0.00034487
4170.0 0.00037164
4190.0 0.00040698
4210.0 0.00040458
4230.0 0.0003861
4250.0 0.00037926
4270.0 0.00038395
4290.0 0.00040517
4310.0 0.00042599
4330.0 0.0004062
4350.0 0.00035225
4370.0 0.0003081
4390.0 0.00027477
4410.0 0.0002464
4430.0 0.00024439
4450.0 0.00026393
4470.0 0.00028105
4490.0 0.00030298
4510.0 0.00034709
4530.0 0.00044319
4550.0 0.00057522
4570.0 0.00065608
4590.0 0.00070094
4610.0 0.00077835
4630.0 0.00083882
4650.0 0.00078859
4670.0 0.00064899
4690.0 0.00052787
4710.0 0.00047176
4730.0 0.00045365
4750.0 0.00042115
4770.0 0.00039289
4790.0 0.0004136
4810.0 0.00045302
4830.0 0.00045983
4850.0 0.00043142
4870.0 0.00042416
4890.0 0.00045578
4910.0 0.00048544
4930.0 0.00049144
4950.0 0.00047663
4970.0 0.00044539
4990.0 0.00040041
5010.0 0.00036099
5030.0 0.00033743
5050.0 0.0003256
5070.0 0.00031599
5090.0 0.00030492
5110.0 0.00030085
5130.0 0.00030137
5150.0 0.00031259
5170.0 0.00034616
5190.0 0.00039165
5210.0 0.00044462
5230.0 0.00048303
5250.0 0.00050575
5270.0 0.00053657
5290.0 0.00057473
5310.0 0.000593
5330.0 0.00057656
5350.0 0.00054725
5370.0 0.00054743
5390.0 0.00058779
5410.0 0.00064473
5430.0 0.00068626
5450.0 0.00070325
5470.0 0.00069827
5490.0 0.00067877
5510.0 0.00066372
5530.0 0.0006598
5550.0 0.00066261
5570.0 0.00066238
5590.0 0.00065081
5610.0 0.00062816
5630.0 0.00058982
5650.0 0.00054288
5670.0 0.00051233
5690.0 0.00050191
5710.0 0.00049961
5730.0 0.00049882
5750.0 0.00049367
5770.0 0.00048751
5790.0 0.00049066
5810.0 0.00049383
5830.0 0.00049931
5850.0 0.00050503
5870.0 0.00049752
5890.0 0.00048031
5910.0 0.00045531
5930.0 0.0004127
5950.0 0.0003736
5970.0 0.00036106
5990.0 0.00037152
6010.0 0.00037963
6030.0 0.00036724
6050.0 0.00035354
6070.0 0.00036682
6090.0 0.00039776
6110.0 0.00041645
6130.0 0.00040772
6150.0 0.00038579
6170.0 0.00037011
6190.0 0.00035678
6210.0 0.00033629
6230.0 0.00031083
6250.0 0.00029625
6270.0 0.00029939
6290.0 0.00030678
6310.0 0.00032316
6330.0 0.00035219
6350.0 0.00038546
6370.0 0.0004052
6390.0 0.00041221
6410.0 0.00041867
6430.0 0.00042426
6450.0 0.00043089
6470.0 0.00044037
6490.0 0.00045039
6510.0 0.00045857
6530.0 0.00046063
6550.0 0.00045718
6570.0 0.00044386
6590.0 0.00042114
6610.0 0.00040428
6630.0 0.000395
6650.0 0.00038239
6670.0 0.00036433
6690.0 0.00034844
6710.0 0.00034054
6730.0 0.00033541
6750.0 0.00032965
6770.0 0.00032475
6790.0 0.00032008
6810.0 0.00031241
6830.0 0.00030709
6850.0 0.00031371
6870.0 0.00031908
6890.0 0.00031523
6910.0 0.00030911
6930.0 0.00030384
6950.0 0.00029686
6970.0 0.00028551
6990.0 0.00027464
7010.0 0.00026928
7030.0 0.00026576
7050.0 0.0002562
7070.0 0.00024222
7090.0 0.00023754
7110.0 0.0002456
7130.0 0.00026165
7150.0 0.00027773
7170.0 0.00028861
7190.0 0.00028811
7210.0 0.00027637
7230.0 0.00026858
7250.0 0.00027015
7270.0 0.00026951
7290.0 0.00026724
7310.0 0.00027034
7330.0 0.00027954
7350.0 0.00029177
7370.0 0.00029937
7390.0 0.00030025
7410.0 0.00029617
7430.0 0.00028723
7450.0 0.00027574
7470.0 0.00026454
7490.0 0.00025541
7510.0 0.00024772
7530.0 0.00024392
7550.0 0.00024464
7570.0 0.00024611
7590.0 0.0002483
7610.0 0.0002474
7630.0 0.00024572
7650.0 0.00024945
7670.0 0.0002568
7690.0 0.00026463
7710.0 0.00027219
7730.0 0.00027866
7750.0 0.00028618
7770.0 0.00029274
7790.0 0.00029746
7810.0 0.00029866
7830.0 0.00029533
7850.0 0.00028657
7870.0 0.00027293
7890.0 0.00025905
7910.0 0.00025121
7930.0 0.00024626
7950.0 0.00024043
7970.0 0.0002359
7990.0 0.0002353
8010.0 0.0002229
8030.0 0.00022032
8050.0 0.00021722
8070.0 0.00021324
8090.0 0.0002093
8110.0 0.00020846
8130.0 0.00020879
8150.0 0.0002073
8170.0 0.00020504
8190.0 0.00019888
8210.0 0.00018688
8230.0 0.00017465
8250.0 0.00016783
8270.0 0.00016164
8290.0 0.00015368
8310.0 0.00014797
8330.0 0.00014502
8350.0 0.00014077
8370.0 0.00014004
8390.0 0.00014593
8410.0 0.00015469
8430.0 0.00016524
8450.0 0.00017692
8470.0 0.00018461
8490.0 0.00019185
8510.0 0.00019773
8530.0 0.00020342
8550.0 0.00020842
8570.0 0.0002118
8590.0 0.00021458
8610.0 0.00021946
8630.0 0.00022094
8650.0 0.00021624
8670.0 0.000216
8690.0 0.00022025
8710.0 0.0002251
8730.0 0.0002251
8750.0 0.00021979
8770.0 0.00021781
8790.0 0.00021657
8810.0 0.00021189
8830.0 0.00019695
8850.0 0.00017866
8870.0 0.00016551
8890.0 0.00015929
8910.0 0.00015124
8930.0 0.00014034
8950.0 0.0001325
8970.0 0.00013056
8990.0 0.00013171
9010.0 0.00013159
9030.0 0.00013051
9050.0 0.00012957
9070.0 0.00012883
9090.0 0.00012812
9110.0 0.00012742
9130.0 0.00012673
9150.0 0.00012604
9170.0 0.00012536
9190.0 0.00012468
9210.0 0.00012401
9230.0 0.00012334
9250.0 0.00012267
9270.0 0.00012201
9290.0 0.00012135
9310.0 0.0001207
9330.0 0.00012005
9350.0 0.00011941
9370.0 0.00011877
9390.0 0.00011814
9410.0 0.00011751
9430.0 0.00011687
9450.0 0.00011617
9470.0 0.00011549
9490.0 0.00011496
9510.0 0.00011438
9530.0 0.00011381
9550.0 0.00011322
9570.0 0.00011263
9590.0 0.00011205
9610.0 0.00011147
9630.0 0.00011088
9650.0 0.0001103
9670.0 0.00010973
9690.0 0.00010916
9710.0 0.00010859
9730.0 0.00010802
9750.0 0.00010746
9770.0 0.00010689
9790.0 0.00010634
9810.0 0.00010579
9830.0 0.00010522
9850.0 0.00010463
9870.0 0.0001041
9890.0 0.00010357
9910.0 0.00010302
9930.0 0.00010248
9950.0 0.00010193
9970.0 0.00010139
9990.0 0.00010084
10010.0 0.00010025
10030.0 9.9694e-05
10050.0 9.9182e-05
10070.0 9.8667e-05
10090.0 9.8151e-05
10110.0 9.758e-05
10130.0 9.6818e-05
10150.0 9.6319e-05
10170.0 9.5863e-05
10190.0 9.5354e-05
10210.0 9.4853e-05
10230.0 9.4345e-05
10250.0 9.3798e-05
10270.0 9.3249e-05
10290.0 9.2721e-05
10310.0 9.2164e-05
10330.0 9.1582e-05
10350.0 9.1032e-05
10370.0 9.0481e-05
10390.0 8.9902e-05
10410.0 8.9325e-05
10430.0 8.8778e-05
10450.0 8.82e-05
10470.0 8.7607e-05
10490.0 8.7034e-05
10510.0 8.6462e-05
10530.0 8.5843e-05
10550.0 8.524e-05
10570.0 8.4661e-05
10590.0 8.4054e-05
10610.0 8.343e-05
10630.0 8.2832e-05
10650.0 8.2226e-05
10670.0 8.1581e-05
10690.0 8.0949e-05
10710.0 8.0332e-05
10730.0 7.9685e-05
10750.0 7.901e-05
10770.0 7.8379e-05
10790.0 7.7733e-05
10810.0 7.7056e-05
10830.0 7.6388e-05
10850.0 7.5742e-05
10870.0 7.5043e-05
10890.0 7.4342e-05
10910.0 7.3669e-05
10930.0 7.2987e-05
10950.0 7.2277e-05
10970.0 7.159e-05
10990.0 7.0936e-05
11010.0 6.7609e-05
11030.0 6.6894e-05
11050.0 6.6227e-05
11070.0 6.5576e-05
11090.0 6.4914e-05
11110.0 6.4315e-05
11130.0 6.3753e-05
11150.0 6.3202e-05
11170.0 6.2685e-05
11190.0 6.2227e-05
11210.0 6.1793e-05
11230.0 6.1388e-05
11250.0 6.1035e-05
11270.0 6.0724e-05
11290.0 6.0437e-05
11310.0 6.0184e-05
11330.0 5.9974e-05
11350.0 5.9782e-05
11370.0 5.9605e-05
11390.0 5.9447e-05
11410.0 5.9298e-05
11430.0 5.9143e-05
11450.0 5.8986e-05
11470.0 5.8824e-05
11490.0 5.8644e-05
11510.0 5.8439e-05
11530.0 5.8219e-05
11550.0 5.7975e-05
11570.0 5.7691e-05
11590.0 5.7378e-05
11610.0 5.7042e-05
11630.0 5.6657e-05
11650.0 5.6221e-05
11670.0 5.5764e-05
11690.0 5.5266e-05
11710.0 5.4707e-05
11730.0 5.4108e-05
11750.0 5.3489e-05
11770.0 5.2803e-05
11790.0 5.2062e-05
11810.0 5.1304e-05
11830.0 5.0511e-05
11850.0 4.9642e-05
11870.0 4.8768e-05
11890.0 4.7903e-05
11910.0 4.6999e-05
11930.0 4.6079e-05
11950.0 4.5198e-05
11970.0 4.432e-05
11990.0 4.3426e-05
12010.0 4.258e-05
12030.0 4.1781e-05
12050.0 4.0992e-05
12070.0 4.0224e-05
12090.0 3.9538e-05
12110.0 3.8881e-05
12130.0 3.8247e-05
12150.0 3.767e-05
12170.0 3.7151e-05
12190.0 3.6649e-05
12210.0 3.6201e-05
12230.0 3.5818e-05
12250.0 3.548e-05
12270.0 3.5186e-05
12290.0 3.4952e-05
12310.0 3.4769e-05
12330.0 3.4628e-05
12350.0 3.4533e-05
12370.0 3.4477e-05
12390.0 3.4454e-05
12410.0 3.4465e-05
12430.0 3.4496e-05
12450.0 3.4544e-05
12470.0 3.461e-05
12490.0 3.4685e-05
12510.0 3.4759e-05
12530.0 3.4839e-05
12550.0 3.4919e-05
12570.0 3.4989e-05
12590.0 3.5047e-05
12610.0 3.5095e-05
12630.0 3.5123e-05
12650.0 3.5122e-05
12670.0 3.5096e-05
12690.0 3.5038e-05
12710.0 3.4944e-05
12730.0 3.4816e-05
12750.0 3.4643e-05
12770.0 3.4433e-05
12790.0 3.4191e-05
12810.0 3.3911e-05
12830.0 3.3593e-05
12850.0 3.3263e-05
12870.0 3.2915e-05
12890.0 3.2544e-05
12910.0 3.2169e-05
12930.0 3.1802e-05
12950.0 3.1426e-05
12970.0 3.1051e-05
12990.0 3.0701e-05
13010.0 3.0362e-05
13030.0 3.0028e-05
13050.0 2.9712e-05
13070.0 2.942e-05
13090.0 2.9131e-05
13110.0 2.8854e-05
13130.0 2.8598e-05
13150.0 2.8353e-05
13170.0 2.8111e-05
13190.0 2.7888e-05
13210.0 2.7681e-05
13230.0 2.748e-05
13250.0 2.7288e-05
13270.0 2.7113e-05
13290.0 2.6944e-05
13310.0 2.6778e-05
13330.0 2.6622e-05
13350.0 2.6472e-05
13370.0 2.6321e-05
13390.0 2.6167e-05
13410.0 2.6016e-05
13430.0 2.5859e-05
13450.0 2.5691e-05
13470.0 2.5517e-05
13490.0 2.5337e-05
13510.0 2.5136e-05
13530.0 2.4925e-05
13550.0 2.4708e-05
13570.0 2.4478e-05
13590.0 2.4231e-05
13610.0 2.3981e-05
13630.0 2.373e-05
13650.0 2.3464e-05
13670.0 2.3194e-05
13690.0 2.293e-05
13710.0 2.2661e-05
13730.0 2.238e-05
13750.0 2.2116e-05
13770.0 2.1855e-05
13790.0 2.1589e-05
13810.0 2.1327e-05
13830.0 2.1081e-05
13850.0 2.0831e-05
13870.0 2.0583e-05
13890.0 2.035e-05
13910.0 2.0127e-05
13930.0 1.9905e-05
13950.0 1.9694e-05
13970.0 1.9504e-05
13990.0 1.932e-05
14010.0 1.9144e-05
14030.0 1.8986e-05
14050.0 1.8839e-05
14070.0 1.8695e-05
14090.0 1.8565e-05
14110.0 1.8447e-05
14130.0 1.8333e-05
14150.0 1.8224e-05
14170.0 1.8124e-05
14190.0 1.8029e-05
14210.0 1.7934e-05
14230.0 1.7843e-05
14250.0 1.7756e-05
14270.0 1.7668e-05
14290.0 1.7579e-05
14310.0 1.7495e-05
14330.0 1.741e-05
14350.0 1.7323e-05
14370.0 1.7239e-05
14390.0 1.7157e-05
14410.0 1.7072e-05
14430.0 1.6988e-05
14450.0 1.6908e-05
14470.0 1.6829e-05
14490.0 1.6748e-05
14510.0 1.6671e-05
14530.0 1.6597e-05
14550.0 1.6521e-05
14570.0 1.6444e-05
14590.0 1.6369e-05
14610.0 1.629e-05
14630.0 1.6205e-05
14650.0 1.612e-05
14670.0 1.6035e-05
14690.0 1.5946e-05
14710.0 1.5858e-05
14730.0 1.5781e-05
14750.0 1.5711e-05
14770.0 1.5655e-05
14790.0 1.562e-05
14810.0 1.5611e-05
14830.0 1.5632e-05
14850.0 1.5689e-05
14870.0 1.5779e-05
14890.0 1.5906e-05
14910.0 1.6069e-05
14930.0 1.6251e-05
14950.0 1.6441e-05
14970.0 1.6639e-05
14990.0 1.6821e-05
15010.0 1.6976e-05
15030.0 1.7105e-05
15050.0 1.7207e-05
15070.0 1.7278e-05
15090.0 1.7329e-05
15110.0 1.7367e-05
15130.0 1.7396e-05
15150.0 1.7421e-05
15170.0 1.7443e-05
15190.0 1.7465e-05
15210.0 1.7487e-05
15230.0 1.7509e-05
15250.0 1.7532e-05
15270.0 1.7555e-05
15290.0 1.7579e-05
15310.0 1.7603e-05
15330.0 1.7628e-05
15350.0 1.7653e-05
15370.0 1.7679e-05
15390.0 1.7705e-05
15410.0 1.7732e-05
15430.0 1.776e-05
15450.0 1.7788e-05
15470.0 1.7816e-05
15490.0 1.7845e-05
15510.0 1.7874e-05
15530.0 1.7904e-05
15550.0 1.7934e-05
15570.0 1.7965e-05
15590.0 1.7997e-05
15610.0 1.8028e-05
15630.0 1.8061e-05
15650.0 1.8093e-05
15670.0 1.8126e-05
15690.0 1.816e-05
15710.0 1.8194e-05
15730.0 1.8228e-05
15750.0 1.8262e-05
15770.0 1.8297e-05
15790.0 1.8333e-05
15810.0 1.8368e-05
15830.0 1.8404e-05
15850.0 1.8441e-05
15870.0 1.8478e-05
15890.0 1.8515e-05
15910.0 1.8552e-05
15930.0 1.859e-05
15950.0 1.8628e-05
15970.0 1.8666e-05
15990.0 1.8705e-05
16010.0 1.8744e-05
16030.0 1.8783e-05
16050.0 1.8822e-05
16070.0 1.8862e-05
16090.0 1.8901e-05
16110.0 1.8941e-05
16130.0 1.8982e-05
16150.0 1.9022e-05
16170.0 1.9062e-05
16190.0 1.9103e-05
16210.0 1.9144e-05
16230.0 1.9185e-05
16250.0 1.9226e-05
16270.0 1.9267e-05
16290.0 1.9309e-05
16310.0 1.935e-05
16330.0 1.9391e-05
16350.0 1.9433e-05
16370.0 1.9474e-05
16390.0 1.9516e-05
16410.0 1.9558e-05
16430.0 1.9599e-05
16450.0 1.9641e-05
16470.0 1.9682e-05
16490.0 1.9724e-05
16510.0 1.9765e-05
16530.0 1.9807e-05
16550.0 1.9848e-05
16570.0 1.9889e-05
16590.0 1.993e-05
16610.0 1.9972e-05
16630.0 2.0012e-05
16650.0 2.0053e-05
16670.0 2.0094e-05
16690.0 2.0134e-05
16710.0 2.0174e-05
16730.0 2.0214e-05
16750.0 2.0254e-05
16770.0 2.0293e-05
16790.0 2.0333e-05
16810.0 2.0372e-05
16830.0 2.0411e-05
16850.0 2.0449e-05
16870.0 2.0487e-05
16890.0 2.0525e-05
16910.0 2.0562e-05
16930.0 2.0599e-05
16950.0 2.0636e-05
16970.0 2.0672e-05
16990.0 2.0708e-05
17010.0 2.0744e-05
17030.0 2.0779e-05
17050.0 2.0813e-05
17070.0 2.0847e-05
17090.0 2.0881e-05
17110.0 2.0914e-05
17130.0 2.0947e-05
17150.0 2.0979e-05
17170.0 2.1011e-05
17190.0 2.1042e-05
17210.0 2.1072e-05
17230.0 2.1102e-05
17250.0 2.1131e-05
17270.0 2.116e-05
17290.0 2.1188e-05
17310.0 2.1216e-05
17330.0 2.1242e-05
17350.0 2.1268e-05
17370.0 2.1294e-05
17390.0 2.1318e-05
17410.0 2.1342e-05
17430.0 2.1366e-05
17450.0 2.1388e-05
17470.0 2.141e-05
17490.0 2.1431e-05
17510.0 2.1451e-05
17530.0 2.1471e-05
17550.0 2.1489e-05
17570.0 2.1507e-05
17590.0 2.1524e-05
17610.0 2.154e-05
17630.0 2.1556e-05
17650.0 2.157e-05
17670.0 2.1584e-05
17690.0 2.1596e-05
17710.0 2.1608e-05
17730.0 2.1619e-05
17750.0 2.1629e-05
17770.0 2.1638e-05
17790.0 2.1646e-05
17810.0 2.1653e-05
17830.0 2.1659e-05
17850.0 2.1665e-05
17870.0 2.1669e-05
17890.0 2.1672e-05
17910.0 2.1674e-05
17930.0 2.1676e-05
17950.0 2.1676e-05
17970.0 2.1675e-05
17990.0 2.1674e-05
18010.0 2.1671e-05
18030.0 2.1667e-05
18050.0 2.1662e-05
18070.0 2.1656e-05
18090.0 2.1649e-05
18110.0 2.1641e-05
18130.0 2.1632e-05
18150.0 2.1621e-05
18170.0 2.161e-05
18190.0 2.1598e-05
18210.0 2.1584e-05
18230.0 2.157e-05
18250.0 2.1554e-05
18270.0 2.1537e-05
18290.0 2.1519e-05
18310.0 2.15e-05
18330.0 2.148e-05
18350.0 2.1459e-05
18370.0 2.1437e-05
18390.0 2.1413e-05
18410.0 2.1389e-05
18430.0 2.1363e-05
18450.0 2.1336e-05
18470.0 2.1308e-05
18490.0 2.1279e-05
18510.0 2.1249e-05
18530.0 2.1218e-05
18550.0 2.1186e-05
18570.0 2.1152e-05
18590.0 2.1118e-05
18610.0 2.1082e-05
18630.0 2.1046e-05
18650.0 2.1008e-05
18670.0 2.0969e-05
18690.0 2.0929e-05
18710.0 2.0888e-05
18730.0 2.0845e-05
18750.0 2.0802e-05
18770.0 2.0758e-05
18790.0 2.0712e-05
18810.0 2.0666e-05
18830.0 2.0619e-05
18850.0 2.057e-05
18870.0 2.052e-05
18890.0 2.047e-05
18910.0 2.0418e-05
18930.0 2.0366e-05
18950.0 2.0312e-05
18970.0 2.0257e-05
18990.0 2.0202e-05
19010.0 2.0145e-05
19030.0 2.0087e-05
19050.0 2.0029e-05
19070.0 1.9969e-05
19090.0 1.9909e-05
19110.0 1.9847e-05
19130.0 1.9785e-05
19150.0 1.9722e-05
19170.0 1.9658e-05
19190.0 1.9593e-05
19210.0 1.9526e-05
19230.0 1.946e-05
19250.0 1.9392e-05
19270.0 1.9323e-05
19290.0 1.9254e-05
19310.0 1.9184e-05
19330.0 1.9113e-05
19350.0 1.9041e-05
19370.0 1.8968e-05
19390.0 1.8895e-05
19410.0 1.8821e-05
19430.0 1.8746e-05
19450.0 1.8671e-05
19470.0 1.8594e-05
19490.0 1.8517e-05
19510.0 1.8439e-05
19530.0 1.8361e-05
19550.0 1.8282e-05
19570.0 1.8202e-05
19590.0 1.8122e-05
19610.0 1.8041e-05
19630.0 1.7959e-05
19650.0 1.7877e-05
19670.0 1.7794e-05
19690.0 1.7711e-05
19710.0 1.7627e-05
19730.0 1.7542e-05
19750.0 1.7458e-05
19770.0 1.7372e-05
19790.0 1.7286e-05
19810.0 1.7199e-05
19830.0 1.7112e-05
19850.0 1.7024e-05
19870.0 1.6934e-05
19890.0 1.6841e-05
19910.0 1.6742e-05
19930.0 1.6635e-05
19950.0 1.6517e-05
19970.0 1.638e-05
19990.0 1.6221e-05
20010.0 1.6044e-05
20030.0 1.584e-05
20050.0 1.5611e-05
20070.0 1.5369e-05
20090.0 1.5115e-05
20110.0 1.4842e-05
20130.0 1.4569e-05
20150.0 1.4302e-05
20170.0 1.4031e-05
20190.0 1.376e-05
20210.0 1.3502e-05
20230.0 1.3249e-05
20250.0 1.2994e-05
20270.0 1.2751e-05
20290.0 1.2519e-05
20310.0 1.2291e-05
20330.0 1.2067e-05
20350.0 1.1862e-05
20370.0 1.1664e-05
20390.0 1.1473e-05
20410.0 1.1294e-05
20430.0 1.1129e-05
20450.0 1.0969e-05
20470.0 1.0819e-05
20490.0 1.0683e-05
20510.0 1.0556e-05
20530.0 1.0437e-05
20550.0 1.0328e-05
20570.0 1.0229e-05
20590.0 1.0136e-05
20610.0 1.0051e-05
20630.0 9.9725e-06
20650.0 9.8994e-06
20670.0 9.831e-06
20690.0 9.7667e-06
20710.0 9.7052e-06
20730.0 9.6459e-06
20750.0 9.5878e-06
20770.0 9.5298e-06
20790.0 9.4714e-06
20810.0 9.4119e-06
20830.0 9.3504e-06
20850.0 9.2865e-06
20870.0 9.2194e-06
20890.0 9.1487e-06
20910.0 9.0745e-06
20930.0 8.9963e-06
20950.0 8.9135e-06
20970.0 8.8271e-06
20990.0 8.7373e-06
21010.0 8.6421e-06
21030.0 8.5435e-06
21050.0 8.4428e-06
21070.0 8.3384e-06
21090.0 8.2295e-06
21110.0 8.1207e-06
21130.0 8.0107e-06
21150.0 7.8974e-06
21170.0 7.7836e-06
21190.0 7.6713e-06
21210.0 7.5567e-06
21230.0 7.441e-06
21250.0 7.3284e-06
21270.0 7.2168e-06
21290.0 7.1044e-06
21310.0 6.994e-06
21330.0 6.8878e-06
21350.0 6.7816e-06
21370.0 6.6771e-06
21390.0 6.5767e-06
21410.0 6.4791e-06
21430.0 6.3818e-06
21450.0 6.2893e-06
21470.0 6.2012e-06
21490.0 6.1152e-06
21510.0 6.0322e-06
21530.0 5.954e-06
21550.0 5.8788e-06
21570.0 5.8059e-06
21590.0 5.7369e-06
21610.0 5.6713e-06
21630.0 5.608e-06
21650.0 5.5469e-06
21670.0 5.489e-06
21690.0 5.433e-06
21710.0 5.3783e-06
21730.0 5.3253e-06
21750.0 5.2737e-06
21770.0 5.2226e-06
21790.0 5.1722e-06
21810.0 5.1225e-06
21830.0 5.0729e-06
21850.0 5.0231e-06
21870.0 4.9735e-06
21890.0 4.9239e-06
21910.0 4.8738e-06
21930.0 4.8232e-06
21950.0 4.7726e-06
21970.0 4.7214e-06
21990.0 4.6691e-06
22010.0 4.6169e-06
22030.0 4.5642e-06
22050.0 4.5105e-06
22070.0 4.4562e-06
22090.0 4.402e-06
22110.0 4.3467e-06
22130.0 4.2903e-06
22150.0 4.2338e-06
22170.0 4.1769e-06
22190.0 4.1184e-06
22210.0 4.0593e-06
22230.0 4.0008e-06
22250.0 3.9412e-06
22270.0 3.8804e-06
22290.0 3.8201e-06
22310.0 3.7598e-06
22330.0 3.6977e-06
22350.0 3.6358e-06
22370.0 3.5747e-06
22390.0 3.5128e-06
22410.0 3.45e-06
22430.0 3.3888e-06
22450.0 3.328e-06
22470.0 3.2663e-06
22490.0 3.2055e-06
22510.0 3.1463e-06
22530.0 3.0864e-06
22550.0 3.0267e-06
22570.0 2.9693e-06
22590.0 2.9129e-06
22610.0 2.8566e-06
