#lamb flux
1010.0 0.00011205
1030.0 0.00014589
1050.0 0.00018637
1070.0 0.00023386
1090.0 0.00028998
1110.0 0.00035058
1130.0 0.00041476
1150.0 0.00048469
1170.0 0.00055946
1190.0 0.00063346
1210.0 0.00070959
1230.0 0.0007884
1250.0 0.00086535
1270.0 0.00093847
1290.0 0.0010118
1310.0 0.0010801
1330.0 0.0011394
1350.0 0.0011916
1370.0 0.0012371
1390.0 0.0012712
1410.0 0.0012935
1430.0 0.0013084
1450.0 0.0013132
1470.0 0.0013068
1490.0 0.0012926
1510.0 0.0012723
1530.0 0.0012418
1550.0 0.0012062
1570.0 0.0011692
1590.0 0.0011301
1610.0 0.0010888
1630.0 0.0010491
1650.0 0.0010116
1670.0 0.00097533
1690.0 0.00094172
1710.0 0.00091267
1730.0 0.0008874
1750.0 0.00086241
1770.0 0.00084224
1790.0 0.00082681
1810.0 0.0008152
1830.0 0.00080791
1850.0 0.00080655
1870.0 0.00080948
1890.0 0.00081669
1910.0 0.00082923
1930.0 0.00084726
1950.0 0.00086957
1970.0 0.00089686
1990.0 0.00093007
2010.0 0.00096829
2030.0 0.0010112
2050.0 0.00106
2070.0 0.0011148
2090.0 0.0011739
2110.0 0.0012382
2130.0 0.0013086
2150.0 0.0013838
2170.0 0.0014632
2190.0 0.0015485
2210.0 0.001639
2230.0 0.0017333
2250.0 0.001832
2270.0 0.0019365
2290.0 0.0020444
2310.0 0.0021552
2330.0 0.0022708
2350.0 0.0023902
2370.0 0.0025114
2390.0 0.0026355
2410.0 0.002763
2430.0 0.0028899
2450.0 0.0030155
2470.0 0.0031398
2490.0 0.0032612
2510.0 0.0033786
2530.0 0.003497
2550.0 0.0036249
2570.0 0.0037744
2590.0 0.003962
2610.0 0.0042253
2630.0 0.0045933
2650.0 0.0050781
2670.0 0.0057178
2690.0 0.0065461
2710.0 0.007517
2730.0 0.0085962
2750.0 0.0098118
2770.0 0.011057
2790.0 0.012233
2810.0 0.013332
2830.0 0.014332
2850.0 0.015125
2870.0 0.015769
2890.0 0.016304
2910.0 0.016739
2930.0 0.017089
2950.0 0.017402
2970.0 0.017685
2990.0 0.017931
3010.0 0.018151
3030.0 0.018359
3050.0 0.018544
3070.0 0.018691
3090.0 0.018818
3110.0 0.018914
3130.0 0.018959
3150.0 0.019204
3170.0 0.019352
3190.0 0.019468
3210.0 0.01953
3230.0 0.019472
3250.0 0.018911
3270.0 0.017822
3290.0 0.017099
3310.0 0.017353
3330.0 0.018413
3350.0 0.019685
3370.0 0.021016
3390.0 0.022366
3410.0 0.023634
3430.0 0.024821
3450.0 0.025829
3470.0 0.026491
3490.0 0.026961
3510.0 0.026945
3530.0 0.026161
3550.0 0.026105
3570.0 0.025814
3590.0 0.028396
3610.0 0.030399
3630.0 0.032548
3650.0 0.031545
3670.0 0.028163
3690.0 0.025694
3710.0 0.02593
3730.0 0.028102
3750.0 0.029557
3770.0 0.030447
3790.0 0.03123
3810.0 0.030182
3830.0 0.027542
3850.0 0.024962
3870.0 0.023509
3890.0 0.024566
3910.0 0.025683
3930.0 0.025972
3950.0 0.026828
3970.0 0.028138
3990.0 0.029093
4010.0 0.029662
4030.0 0.028939
4050.0 0.027802
4070.0 0.027521
4090.0 0.027837
4110.0 0.028361
4130.0 0.027707
4150.0 0.026914
4170.0 0.026631
4190.0 0.026955
4210.0 0.025997
4230.0 0.024061
4250.0 0.021645
4270.0 0.019383
4290.0 0.017733
4310.0 0.016949
4330.0 0.017157
4350.0 0.018737
4370.0 0.019863
4390.0 0.021238
4410.0 0.022587
4430.0 0.023173
4450.0 0.022301
4470.0 0.021178
4490.0 0.020897
4510.0 0.021045
4530.0 0.021267
4550.0 0.021219
4570.0 0.021203
4590.0 0.021813
4610.0 0.022364
4630.0 0.022833
4650.0 0.023198
4670.0 0.023103
4690.0 0.021961
4710.0 0.020456
4730.0 0.019659
4750.0 0.019282
4770.0 0.018626
4790.0 0.018264
4810.0 0.01791
4830.0 0.016459
4850.0 0.018136
4870.0 0.017308
4890.0 0.017414
4910.0 0.017441
4930.0 0.016369
4950.0 0.014387
4970.0 0.01377
4990.0 0.013007
5010.0 0.012305
5030.0 0.012031
5050.0 0.012986
5070.0 0.013373
5090.0 0.014332
5110.0 0.014811
5130.0 0.015011
5150.0 0.015324
5170.0 0.015109
5190.0 0.014986
5210.0 0.015195
5230.0 0.014991
5250.0 0.015002
5270.0 0.01497
5290.0 0.014728
5310.0 0.014018
5330.0 0.013394
5350.0 0.012676
5370.0 0.012467
5390.0 0.012656
5410.0 0.012401
5430.0 0.012728
5450.0 0.012569
5470.0 0.012575
5490.0 0.012644
5510.0 0.012293
5530.0 0.01226
5550.0 0.012095
5570.0 0.012238
5590.0 0.012358
5610.0 0.012376
5630.0 0.01225
5650.0 0.01215
5670.0 0.011769
5690.0 0.011698
5710.0 0.011302
5730.0 0.011331
5750.0 0.011081
5770.0 0.010697
5790.0 0.010668
5810.0 0.010598
5830.0 0.010764
5850.0 0.010886
5870.0 0.010867
5890.0 0.010835
5910.0 0.01099
5930.0 0.010971
5950.0 0.011052
5970.0 0.010916
5990.0 0.011018
6010.0 0.010928
6030.0 0.010819
6050.0 0.010771
6070.0 0.010554
6090.0 0.010525
6110.0 0.010557
6130.0 0.010419
6150.0 0.010166
6170.0 0.009792
6190.0 0.0092613
6210.0 0.0089058
6230.0 0.0088421
6250.0 0.0088767
6270.0 0.0089328
6290.0 0.0091944
6310.0 0.0095384
6330.0 0.0096378
6350.0 0.0096094
6370.0 0.0096091
6390.0 0.0094825
6410.0 0.0092896
6430.0 0.0090277
6450.0 0.008974
6470.0 0.0089264
6490.0 0.0088522
6510.0 0.0087109
6530.0 0.0085911
6550.0 0.0084908
6570.0 0.0083459
6590.0 0.0083267
6610.0 0.0082409
6630.0 0.008054
6650.0 0.0077936
6670.0 0.007634
6690.0 0.0075755
6710.0 0.0074436
6730.0 0.0072769
6750.0 0.0071633
6770.0 0.0070751
6790.0 0.0069968
6810.0 0.0069613
6830.0 0.0069003
6850.0 0.0066743
6870.0 0.0066067
6890.0 0.0065533
6910.0 0.0064112
6930.0 0.0063612
6950.0 0.0062762
6970.0 0.0062015
6990.0 0.0061326
7010.0 0.0061666
7030.0 0.0061193
7050.0 0.0060344
7070.0 0.0059002
7090.0 0.0058311
7110.0 0.0057569
7130.0 0.0057597
7150.0 0.0058025
7170.0 0.0057802
7190.0 0.0057881
7210.0 0.0058485
7230.0 0.0059716
7250.0 0.0058928
7270.0 0.0059222
7290.0 0.0057905
7310.0 0.005624
7330.0 0.0054189
7350.0 0.0052876
7370.0 0.0052751
7390.0 0.0052155
7410.0 0.0050833
7430.0 0.0049478
7450.0 0.0049378
7470.0 0.0049275
7490.0 0.0049779
7510.0 0.0049971
7530.0 0.0049109
7550.0 0.0047649
7570.0 0.0044186
7590.0 0.0044661
7610.0 0.0044036
7630.0 0.0044481
7650.0 0.0044467
7670.0 0.0044038
7690.0 0.0042693
7710.0 0.0044581
7730.0 0.0045754
7750.0 0.0047821
7770.0 0.0049536
7790.0 0.0050943
7810.0 0.0052294
7830.0 0.0053315
7850.0 0.0054567
7870.0 0.0054284
7890.0 0.0054003
7910.0 0.0052906
7930.0 0.0051445
7950.0 0.0050487
7970.0 0.0050092
7990.0 0.0049653
8010.0 0.0047936
8030.0 0.0047555
8050.0 0.0046561
8070.0 0.0045931
8090.0 0.0043416
8110.0 0.004368
8130.0 0.0045368
8150.0 0.0046668
8170.0 0.0046641
8190.0 0.0047806
8210.0 0.0047109
8230.0 0.0045488
8250.0 0.0045214
8270.0 0.0044356
8290.0 0.0043479
8310.0 0.0041415
8330.0 0.0041637
8350.0 0.004187
8370.0 0.0042111
8390.0 0.0042462
8410.0 0.0041907
8430.0 0.0041801
8450.0 0.0041975
8470.0 0.0042903
8490.0 0.0043468
8510.0 0.0042241
8530.0 0.0040577
8550.0 0.0040696
8570.0 0.0040249
8590.0 0.003911
8610.0 0.0039872
8630.0 0.0039441
8650.0 0.0038869
8670.0 0.0038578
8690.0 0.0038301
8710.0 0.0036549
8730.0 0.0037021
8750.0 0.0035925
8770.0 0.0035981
8790.0 0.0035097
8810.0 0.0034444
8830.0 0.003465
8850.0 0.0033961
8870.0 0.0032378
8890.0 0.0031679
8910.0 0.0030229
8930.0 0.0028255
8950.0 0.0027997
8970.0 0.002682
8990.0 0.0026506
9010.0 0.002596
9030.0 0.002573
9050.0 0.0025557
9070.0 0.0025386
9090.0 0.0025213
9110.0 0.0025037
9130.0 0.0024861
9150.0 0.0024687
9170.0 0.0024512
9190.0 0.0024336
9210.0 0.0024159
9230.0 0.0023981
9250.0 0.0023803
9270.0 0.0023625
9290.0 0.0023446
9310.0 0.0023268
9330.0 0.0023091
9350.0 0.0022914
9370.0 0.0022737
9390.0 0.002256
9410.0 0.0022384
9430.0 0.0022207
9450.0 0.0022032
9470.0 0.0021872
9490.0 0.0021704
9510.0 0.0021521
9530.0 0.0021341
9550.0 0.0021165
9570.0 0.0020991
9590.0 0.0020818
9610.0 0.0020648
9630.0 0.002048
9650.0 0.0020313
9670.0 0.0020145
9690.0 0.001998
9710.0 0.0019817
9730.0 0.0019653
9750.0 0.0019491
9770.0 0.0019332
9790.0 0.0019173
9810.0 0.0019015
9830.0 0.0018857
9850.0 0.0018685
9870.0 0.001852
9890.0 0.0018381
9910.0 0.0018239
9930.0 0.0018067
9950.0 0.0017919
9970.0 0.0017786
9990.0 0.001765
10010.0 0.0017514
10030.0 0.0017377
10050.0 0.0017238
10070.0 0.0017102
10090.0 0.0016968
10110.0 0.0016832
10130.0 0.0016699
10150.0 0.0016569
10170.0 0.001644
10190.0 0.0016311
10210.0 0.0016186
10230.0 0.0016064
10250.0 0.0015941
10270.0 0.001582
10290.0 0.0015703
10310.0 0.0015585
10330.0 0.0015468
10350.0 0.0015355
10370.0 0.0015244
10390.0 0.0015132
10410.0 0.0015019
10430.0 0.0014908
10450.0 0.0014807
10470.0 0.0014705
10490.0 0.0014605
10510.0 0.0014506
10530.0 0.0014406
10550.0 0.0014308
10570.0 0.0014214
10590.0 0.001412
10610.0 0.0014026
10630.0 0.0013936
10650.0 0.0013848
10670.0 0.0013758
10690.0 0.0013671
10710.0 0.0013588
10730.0 0.0013503
10750.0 0.0013419
10770.0 0.001334
10790.0 0.0013261
10810.0 0.0013182
10830.0 0.0013105
10850.0 0.0013032
10870.0 0.0012956
10890.0 0.0012882
10910.0 0.0012812
10930.0 0.0012743
10950.0 0.0012674
10970.0 0.0012608
10990.0 0.0012545
11010.0 0.0012194
11030.0 0.0012121
11050.0 0.001205
11070.0 0.0011979
11090.0 0.0011904
11110.0 0.0011832
11130.0 0.0011761
11150.0 0.0011687
11170.0 0.0011612
11190.0 0.0011539
11210.0 0.0011465
11230.0 0.001139
11250.0 0.0011317
11270.0 0.0011247
11290.0 0.0011176
11310.0 0.0011108
11330.0 0.0011047
11350.0 0.0010988
11370.0 0.0010932
11390.0 0.0010881
11410.0 0.0010835
11430.0 0.0010789
11450.0 0.0010747
11470.0 0.001071
11490.0 0.0010673
11510.0 0.0010635
11530.0 0.0010601
11550.0 0.0010567
11570.0 0.0010531
11590.0 0.0010496
11610.0 0.0010461
11630.0 0.0010424
11650.0 0.0010385
11670.0 0.0010348
11690.0 0.0010311
11710.0 0.001027
11730.0 0.0010231
11750.0 0.0010194
11770.0 0.0010154
11790.0 0.0010114
11810.0 0.0010077
11830.0 0.0010041
11850.0 0.0010002
11870.0 0.00099666
11890.0 0.00099357
11910.0 0.00099052
11930.0 0.00098771
11950.0 0.0009855
11970.0 0.00098364
11990.0 0.00098203
12010.0 0.00098109
12030.0 0.00098079
12050.0 0.00098095
12070.0 0.00098166
12090.0 0.00098318
12110.0 0.00098523
12130.0 0.0009878
12150.0 0.00099096
12170.0 0.0009946
12190.0 0.00099862
12210.0 0.001003
12230.0 0.0010076
12250.0 0.0010124
12270.0 0.0010172
12290.0 0.001022
12310.0 0.0010266
12330.0 0.001031
12350.0 0.0010351
12370.0 0.001039
12390.0 0.0010424
12410.0 0.0010452
12430.0 0.0010476
12450.0 0.0010496
12470.0 0.0010509
12490.0 0.0010516
12510.0 0.001052
12530.0 0.0010517
12550.0 0.0010507
12570.0 0.0010493
12590.0 0.0010475
12610.0 0.0010448
12630.0 0.0010417
12650.0 0.0010385
12670.0 0.0010347
12690.0 0.0010304
12710.0 0.001026
12730.0 0.0010215
12750.0 0.0010163
12770.0 0.0010112
12790.0 0.0010063
12810.0 0.0010011
12830.0 0.00099579
12850.0 0.00099104
12870.0 0.0009865
12890.0 0.00098185
12910.0 0.00097765
12930.0 0.00097407
12950.0 0.00097059
12970.0 0.00096744
12990.0 0.00096516
13010.0 0.00096338
13030.0 0.00096196
13050.0 0.0009612
13070.0 0.00096113
13090.0 0.00096138
13110.0 0.00096208
13130.0 0.00096329
13150.0 0.00096482
13170.0 0.00096651
13190.0 0.00096846
13210.0 0.00097059
13230.0 0.0009727
13250.0 0.00097478
13270.0 0.00097685
13290.0 0.00097876
13310.0 0.0009804
13330.0 0.00098183
13350.0 0.00098301
13370.0 0.00098376
13390.0 0.00098402
13410.0 0.000984
13430.0 0.00098344
13450.0 0.00098222
13470.0 0.00098056
13490.0 0.00097849
13510.0 0.00097555
13530.0 0.00097212
13550.0 0.00096844
13570.0 0.0009642
13590.0 0.00095933
13610.0 0.00095428
13630.0 0.00094908
13650.0 0.0009432
13670.0 0.00093705
13690.0 0.00093088
13710.0 0.00092429
13730.0 0.000917
13750.0 0.00090995
13770.0 0.00090272
13790.0 0.00089499
13810.0 0.00088712
13830.0 0.00087948
13850.0 0.00087143
13870.0 0.00086313
13890.0 0.00085512
13910.0 0.00084719
13930.0 0.00083898
13950.0 0.00083092
13970.0 0.00082342
13990.0 0.00081583
14010.0 0.00080828
14030.0 0.00080117
14050.0 0.00079429
14070.0 0.00078721
14090.0 0.0007805
14110.0 0.00077411
14130.0 0.0007677
14150.0 0.00076126
14170.0 0.00075518
14190.0 0.00074916
14210.0 0.00074298
14230.0 0.00073694
14250.0 0.00073107
14270.0 0.00072502
14290.0 0.00071893
14310.0 0.00071314
14330.0 0.00070738
14350.0 0.00070156
14370.0 0.00069594
14390.0 0.00069056
14410.0 0.00068514
14430.0 0.00067982
14450.0 0.00067475
14470.0 0.00066977
14490.0 0.00066473
14510.0 0.00065987
14530.0 0.00065512
14550.0 0.00065029
14570.0 0.00064544
14590.0 0.00064066
14610.0 0.00063577
14630.0 0.00063072
14650.0 0.00062567
14670.0 0.00062059
14690.0 0.00061533
14710.0 0.00060995
14730.0 0.00060465
14750.0 0.00059921
14770.0 0.00059361
14790.0 0.000588
14810.0 0.00058239
14830.0 0.0005765
14850.0 0.00057058
14870.0 0.00056471
14890.0 0.00055874
14910.0 0.00055267
14930.0 0.00054674
14950.0 0.00054096
14970.0 0.0005352
14990.0 0.00052968
15010.0 0.00052448
15030.0 0.00051946
15050.0 0.00051459
15070.0 0.00051001
15090.0 0.00050555
15110.0 0.00050113
15130.0 0.00049677
15150.0 0.00049247
15170.0 0.00048814
15190.0 0.00048378
15210.0 0.00047946
15230.0 0.00047514
15250.0 0.00047077
15270.0 0.0004664
15290.0 0.00046209
15310.0 0.00045774
15330.0 0.00045337
15350.0 0.00044904
15370.0 0.00044472
15390.0 0.00044035
15410.0 0.00043601
15430.0 0.00043171
15450.0 0.00042738
15470.0 0.00042304
15490.0 0.00041877
15510.0 0.0004145
15530.0 0.00041021
15550.0 0.00040595
15570.0 0.00040173
15590.0 0.00039749
15610.0 0.00039324
15630.0 0.00038907
15650.0 0.00038491
15670.0 0.00038073
15690.0 0.0003766
15710.0 0.00037251
15730.0 0.00036841
15750.0 0.00036433
15770.0 0.0003603
15790.0 0.00035629
15810.0 0.00035226
15830.0 0.00034829
15850.0 0.00034437
15870.0 0.00034045
15890.0 0.00033655
15910.0 0.00033271
15930.0 0.00032889
15950.0 0.00032506
15970.0 0.00032129
15990.0 0.00031757
16010.0 0.00031384
16030.0 0.00031014
16050.0 0.00030652
16070.0 0.00030291
16090.0 0.00029931
16110.0 0.00029576
16130.0 0.00029227
16150.0 0.00028876
16170.0 0.00028529
16190.0 0.00028189
16210.0 0.00027851
16230.0 0.00027514
16250.0 0.00027183
16270.0 0.00026857
16290.0 0.0002653
16310.0 0.00026209
16330.0 0.00025892
16350.0 0.00025578
16370.0 0.00025264
16390.0 0.00024958
16410.0 0.00024655
16430.0 0.00024353
16450.0 0.00024056
16470.0 0.00023764
16490.0 0.00023474
16510.0 0.00023185
16530.0 0.00022903
16550.0 0.00022624
16570.0 0.00022346
16590.0 0.00022072
16610.0 0.00021805
16630.0 0.00021539
16650.0 0.00021275
16670.0 0.00021017
16690.0 0.00020762
16710.0 0.00020507
16730.0 0.00020257
16750.0 0.00020013
16770.0 0.0001977
16790.0 0.00019529
16810.0 0.00019294
16830.0 0.00019062
16850.0 0.00018831
16870.0 0.00018604
16890.0 0.00018382
16910.0 0.00018161
16930.0 0.00017942
16950.0 0.00017729
16970.0 0.00017518
16990.0 0.00017309
17010.0 0.00017104
17030.0 0.00016904
17050.0 0.00016704
17070.0 0.00016507
17090.0 0.00016314
17110.0 0.00016124
17130.0 0.00015934
17150.0 0.0001575
17170.0 0.00015569
17190.0 0.00015389
17210.0 0.00015212
17230.0 0.00015039
17250.0 0.00014868
17270.0 0.00014698
17290.0 0.00014532
17310.0 0.0001437
17330.0 0.00014208
17350.0 0.00014048
17370.0 0.00013894
17390.0 0.00013741
17410.0 0.00013589
17430.0 0.00013441
17450.0 0.00013295
17470.0 0.0001315
17490.0 0.00013008
17510.0 0.00012869
17530.0 0.00012732
17550.0 0.00012596
17570.0 0.00012464
17590.0 0.00012335
17610.0 0.00012205
17630.0 0.00012079
17650.0 0.00011956
17670.0 0.00011833
17690.0 0.00011711
17710.0 0.00011594
17730.0 0.00011479
17750.0 0.00011364
17770.0 0.00011252
17790.0 0.00011143
17810.0 0.00011034
17830.0 0.00010926
17850.0 0.00010822
17870.0 0.00010719
17890.0 0.00010617
17910.0 0.00010517
17930.0 0.0001042
17950.0 0.00010324
17970.0 0.00010229
17990.0 0.00010137
18010.0 0.00010047
18030.0 9.9556e-05
18050.0 9.8677e-05
18070.0 9.7821e-05
18090.0 9.6969e-05
18110.0 9.6127e-05
18130.0 9.5318e-05
18150.0 9.4519e-05
18170.0 9.3722e-05
18190.0 9.2948e-05
18210.0 9.2197e-05
18230.0 9.1442e-05
18250.0 9.0699e-05
18270.0 8.9988e-05
18290.0 8.9285e-05
18310.0 8.8584e-05
18330.0 8.7906e-05
18350.0 8.7249e-05
18370.0 8.6587e-05
18390.0 8.594e-05
18410.0 8.5317e-05
18430.0 8.47e-05
18450.0 8.4081e-05
18470.0 8.3489e-05
18490.0 8.2914e-05
18510.0 8.2338e-05
18530.0 8.1774e-05
18550.0 8.1235e-05
18570.0 8.0696e-05
18590.0 8.0157e-05
18610.0 7.9643e-05
18630.0 7.9141e-05
18650.0 7.8638e-05
18670.0 7.8145e-05
18690.0 7.768e-05
18710.0 7.7214e-05
18730.0 7.6751e-05
18750.0 7.6307e-05
18770.0 7.5878e-05
18790.0 7.5436e-05
18810.0 7.5013e-05
18830.0 7.4611e-05
18850.0 7.4209e-05
18870.0 7.3809e-05
18890.0 7.343e-05
18910.0 7.3062e-05
18930.0 7.2687e-05
18950.0 7.2327e-05
18970.0 7.1984e-05
18990.0 7.164e-05
19010.0 7.1291e-05
19030.0 7.0973e-05
19050.0 7.0659e-05
19070.0 7.0342e-05
19090.0 7.0037e-05
19110.0 6.9753e-05
19130.0 6.9458e-05
19150.0 6.9169e-05
19170.0 6.89e-05
19190.0 6.8636e-05
19210.0 6.8366e-05
19230.0 6.811e-05
19250.0 6.7873e-05
19270.0 6.7631e-05
19290.0 6.7392e-05
19310.0 6.7172e-05
19330.0 6.6956e-05
19350.0 6.6728e-05
19370.0 6.652e-05
19390.0 6.6325e-05
19410.0 6.6125e-05
19430.0 6.5928e-05
19450.0 6.5753e-05
19470.0 6.5578e-05
19490.0 6.5398e-05
19510.0 6.5232e-05
19530.0 6.5079e-05
19550.0 6.4915e-05
19570.0 6.4756e-05
19590.0 6.4619e-05
19610.0 6.4481e-05
19630.0 6.4339e-05
19650.0 6.4213e-05
19670.0 6.4098e-05
19690.0 6.3971e-05
19710.0 6.3851e-05
19730.0 6.3749e-05
19750.0 6.3644e-05
19770.0 6.3531e-05
19790.0 6.3439e-05
19810.0 6.3356e-05
19830.0 6.3265e-05
19850.0 6.318e-05
19870.0 6.3116e-05
19890.0 6.3045e-05
19910.0 6.2975e-05
19930.0 6.2934e-05
19950.0 6.2912e-05
19970.0 6.2903e-05
19990.0 6.2926e-05
20010.0 6.2998e-05
20030.0 6.3099e-05
20050.0 6.3236e-05
20070.0 6.3416e-05
20090.0 6.3631e-05
20110.0 6.3869e-05
20130.0 6.4137e-05
20150.0 6.4431e-05
20170.0 6.4742e-05
20190.0 6.5069e-05
20210.0 6.5415e-05
20230.0 6.5774e-05
20250.0 6.6143e-05
20270.0 6.6524e-05
20290.0 6.6915e-05
20310.0 6.7313e-05
20330.0 6.7715e-05
20350.0 6.8127e-05
20370.0 6.8542e-05
20390.0 6.8959e-05
20410.0 6.9381e-05
20430.0 6.981e-05
20450.0 7.0239e-05
20470.0 7.0673e-05
20490.0 7.1116e-05
20510.0 7.1567e-05
20530.0 7.2023e-05
20550.0 7.2493e-05
20570.0 7.2978e-05
20590.0 7.3473e-05
20610.0 7.3984e-05
20630.0 7.4512e-05
20650.0 7.5055e-05
20670.0 7.5611e-05
20690.0 7.6184e-05
20710.0 7.6772e-05
20730.0 7.7371e-05
20750.0 7.7979e-05
20770.0 7.8598e-05
20790.0 7.9221e-05
20810.0 7.9845e-05
20830.0 8.0471e-05
20850.0 8.1098e-05
20870.0 8.1716e-05
20890.0 8.2328e-05
20910.0 8.2939e-05
20930.0 8.3541e-05
20950.0 8.4131e-05
20970.0 8.4719e-05
20990.0 8.5304e-05
21010.0 8.5872e-05
21030.0 8.6437e-05
21050.0 8.7008e-05
21070.0 8.7572e-05
21090.0 8.8124e-05
21110.0 8.8692e-05
21130.0 8.9264e-05
21150.0 8.9826e-05
21170.0 9.0394e-05
21190.0 9.0976e-05
21210.0 9.1548e-05
21230.0 9.2113e-05
21250.0 9.2693e-05
21270.0 9.3274e-05
21290.0 9.3839e-05
21310.0 9.4404e-05
21330.0 9.4983e-05
21350.0 9.5541e-05
21370.0 9.6086e-05
21390.0 9.6638e-05
21410.0 9.7185e-05
21430.0 9.7692e-05
21450.0 9.8207e-05
21470.0 9.873e-05
21490.0 9.9229e-05
21510.0 9.9709e-05
21530.0 0.00010021
21550.0 0.0001007
21570.0 0.00010115
21590.0 0.00010162
21610.0 0.00010209
21630.0 0.00010254
21650.0 0.00010296
21670.0 0.00010343
21690.0 0.00010388
21710.0 0.00010431
21730.0 0.00010475
21750.0 0.00010521
21770.0 0.00010562
21790.0 0.00010603
21810.0 0.00010647
21830.0 0.0001069
21850.0 0.0001073
21870.0 0.00010772
21890.0 0.00010817
21910.0 0.00010859
21930.0 0.00010901
21950.0 0.00010947
21970.0 0.00010993
21990.0 0.00011035
22010.0 0.00011083
22030.0 0.00011134
22050.0 0.00011184
22070.0 0.00011236
22090.0 0.00011294
22110.0 0.00011352
22130.0 0.0001141
22150.0 0.00011474
22170.0 0.00011541
22190.0 0.00011608
22210.0 0.00011677
22230.0 0.00011753
22250.0 0.00011829
22270.0 0.00011906
22290.0 0.00011987
22310.0 0.00012071
22330.0 0.00012153
22350.0 0.00012239
22370.0 0.00012327
22390.0 0.00012416
22410.0 0.00012503
22430.0 0.00012595
22450.0 0.00012689
22470.0 0.00012781
22490.0 0.00012875
22510.0 0.00012974
22530.0 0.00013071
22550.0 0.00013168
22570.0 0.0001327
22590.0 0.00013374
22610.0 0.00013478
22630.0 0.00013585
22650.0 0.00013696
22670.0 0.00013808
22690.0 0.0001392
22710.0 0.00014038
22730.0 0.00014158
22750.0 0.00014277
22770.0 0.00014401
22790.0 0.0001453
22810.0 0.0001466
22830.0 0.00014793
22850.0 0.00014933
22870.0 0.00015075
22890.0 0.00015221
22910.0 0.00015373
22930.0 0.00015531
22950.0 0.00015694
22970.0 0.00015863
22990.0 0.00016041
23010.0 0.00016226
23030.0 0.00016418
23050.0 0.00016619
23070.0 0.00016828
23090.0 0.00017046
23110.0 0.00017274
23130.0 0.00017511
23150.0 0.00017757
23170.0 0.00018014
23190.0 0.0001828
23210.0 0.00018554
23230.0 0.00018838
23250.0 0.00019132
23270.0 0.00019432
23290.0 0.0001974
23310.0 0.00020058
23330.0 0.00020379
23350.0 0.00020705
