#lamb flux
1010.0 4.302e-07
1030.0 4.7676e-07
1050.0 5.3033e-07
1070.0 5.9063e-07
1090.0 6.5913e-07
1110.0 7.294e-07
1130.0 8.0012e-07
1150.0 8.7422e-07
1170.0 9.5066e-07
1190.0 1.0232e-06
1210.0 1.0966e-06
1230.0 1.1726e-06
1250.0 1.247e-06
1270.0 1.3193e-06
1290.0 1.3957e-06
1310.0 1.4721e-06
1330.0 1.5453e-06
1350.0 1.6194e-06
1370.0 1.696e-06
1390.0 1.7706e-06
1410.0 1.843e-06
1430.0 1.9187e-06
1450.0 1.9944e-06
1470.0 2.0677e-06
1490.0 2.1417e-06
1510.0 2.2198e-06
1530.0 2.2939e-06
1550.0 2.367e-06
1570.0 2.4426e-06
1590.0 2.5182e-06
1610.0 2.5905e-06
1630.0 2.6649e-06
1650.0 2.7413e-06
1670.0 2.8151e-06
1690.0 2.8879e-06
1710.0 2.9634e-06
1730.0 3.0392e-06
1750.0 3.1104e-06
1770.0 3.1834e-06
1790.0 3.2578e-06
1810.0 3.3296e-06
1830.0 3.3998e-06
1850.0 3.4741e-06
1870.0 3.5461e-06
1890.0 3.6152e-06
1910.0 3.6853e-06
1930.0 3.7566e-06
1950.0 3.824e-06
1970.0 3.8899e-06
1990.0 3.9577e-06
2010.0 4.0236e-06
2030.0 4.086e-06
2050.0 4.1496e-06
2070.0 4.2139e-06
2090.0 4.2729e-06
2110.0 4.3305e-06
2130.0 4.3888e-06
2150.0 4.4443e-06
2170.0 4.4952e-06
2190.0 4.547e-06
2210.0 4.5975e-06
2230.0 4.6433e-06
2250.0 4.6868e-06
2270.0 4.7313e-06
2290.0 4.7713e-06
2310.0 4.8064e-06
2330.0 4.8412e-06
2350.0 4.8742e-06
2370.0 4.9022e-06
2390.0 4.9289e-06
2410.0 4.9575e-06
2430.0 4.9838e-06
2450.0 5.01e-06
2470.0 5.0424e-06
2490.0 5.085e-06
2510.0 5.1383e-06
2530.0 5.2235e-06
2550.0 5.3723e-06
2570.0 5.6132e-06
2590.0 5.9805e-06
2610.0 6.5706e-06
2630.0 7.3948e-06
2650.0 8.3956e-06
2670.0 9.5739e-06
2690.0 1.0871e-05
2710.0 1.2093e-05
2730.0 1.3152e-05
2750.0 1.407e-05
2770.0 1.4754e-05
2790.0 1.521e-05
2810.0 1.5519e-05
2830.0 1.5737e-05
2850.0 1.5861e-05
2870.0 1.5949e-05
2890.0 1.6033e-05
2910.0 1.611e-05
2930.0 1.6172e-05
2950.0 1.6244e-05
2970.0 1.6324e-05
2990.0 1.6395e-05
3010.0 0.00021472
3030.0 0.00021513
3050.0 0.0002155
3070.0 0.00021556
3090.0 0.00021547
3110.0 0.00021493
3130.0 0.00021356
3150.0 0.00021119
3170.0 0.0002075
3190.0 0.00020255
3210.0 0.00019682
3230.0 0.00019093
3250.0 0.00018883
3270.0 0.00018522
3290.0 0.0001888
3310.0 0.00018744
3330.0 0.00019216
3350.0 0.00019922
3370.0 0.00020838
3390.0 0.00021931
3410.0 0.00023082
3430.0 0.00024343
3450.0 0.00025748
3470.0 0.00027227
3490.0 0.00028728
3510.0 0.00030466
3530.0 0.00032376
3550.0 0.00033986
3570.0 0.00035479
3590.0 0.00037613
3610.0 0.00039037
3630.0 0.00041398
3650.0 0.00043504
3670.0 0.0004563
3690.0 0.00046828
3710.0 0.00047127
3730.0 0.00047795
3750.0 0.00047804
3770.0 0.00044301
3790.0 0.00040651
3810.0 0.00037966
3830.0 0.00034366
3850.0 0.00029889
3870.0 0.00029655
3890.0 0.00038402
3910.0 0.00051406
3930.0 0.00061517
3950.0 0.00065172
3970.0 0.00063827
3990.0 0.00065059
4010.0 0.00073549
4030.0 0.0007885
4050.0 0.00076376
4070.0 0.0006761
4090.0 0.00059707
4110.0 0.00066999
4130.0 0.00072542
4150.0 0.00071225
4170.0 0.00071218
4190.0 0.00070897
4210.0 0.00073561
4230.0 0.0007828
4250.0 0.00084507
4270.0 0.0008608
4290.0 0.00085292
4310.0 0.00089804
4330.0 0.00098634
4350.0 0.0011194
4370.0 0.0012492
4390.0 0.0012039
4410.0 0.001017
4430.0 0.00084664
4450.0 0.00070924
4470.0 0.00069509
4490.0 0.00076046
4510.0 0.00087821
4530.0 0.00095549
4550.0 0.0010736
4570.0 0.0012808
4590.0 0.0015752
4610.0 0.0020173
4630.0 0.0024277
4650.0 0.0024967
4670.0 0.0024897
4690.0 0.0026343
4710.0 0.0026839
4730.0 0.0022618
4750.0 0.0016724
4770.0 0.0013685
4790.0 0.0012883
4810.0 0.0012214
4830.0 0.0011996
4850.0 0.0013801
4870.0 0.0017028
4890.0 0.0018932
4910.0 0.0016588
4930.0 0.001551
4950.0 0.0017836
4970.0 0.0023163
4990.0 0.0028715
5010.0 0.0029523
5030.0 0.0024342
5050.0 0.0016636
5070.0 0.0011839
5090.0 0.0010336
5110.0 0.0010585
5130.0 0.0011393
5150.0 0.001176
5170.0 0.0011673
5190.0 0.0011525
5210.0 0.0011332
5230.0 0.0011767
5250.0 0.0012645
5270.0 0.0014526
5290.0 0.0016789
5310.0 0.0018448
5330.0 0.0019101
5350.0 0.0019633
5370.0 0.0021382
5390.0 0.0022532
5410.0 0.0021372
5430.0 0.0018948
5450.0 0.0018296
5470.0 0.0021162
5490.0 0.0026912
5510.0 0.0033291
5530.0 0.0036194
5550.0 0.0035423
5570.0 0.0032849
5590.0 0.0029933
5610.0 0.0028101
5630.0 0.0027538
5650.0 0.0028144
5670.0 0.0027545
5690.0 0.0025929
5710.0 0.0024658
5730.0 0.0021992
5750.0 0.0017064
5770.0 0.0015077
5790.0 0.0016672
5810.0 0.0019598
5830.0 0.0021997
5850.0 0.0023353
5870.0 0.0023567
5890.0 0.0022537
5910.0 0.0021586
5930.0 0.0021708
5950.0 0.0022821
5970.0 0.0023661
5990.0 0.0021923
6010.0 0.0018429
6030.0 0.00153
6050.0 0.0013614
6070.0 0.0013815
6090.0 0.0015361
6110.0 0.0016244
6130.0 0.0015459
6150.0 0.0014866
6170.0 0.001649
6190.0 0.0019668
6210.0 0.0023444
6230.0 0.0026191
6250.0 0.0025806
6270.0 0.0022986
6290.0 0.0019107
6310.0 0.001531
6330.0 0.0012507
6350.0 0.0011713
6370.0 0.0012876
6390.0 0.0014874
6410.0 0.0017123
6430.0 0.0019961
6450.0 0.0023435
6470.0 0.0028677
6490.0 0.0034604
6510.0 0.0037399
6530.0 0.0035235
6550.0 0.0033052
6570.0 0.0032681
6590.0 0.0031564
6610.0 0.0029122
6630.0 0.0026663
6650.0 0.0024988
6670.0 0.0025346
6690.0 0.0024904
6710.0 0.0022428
6730.0 0.0020302
6750.0 0.0018197
6770.0 0.0018169
6790.0 0.0019397
6810.0 0.0020476
6830.0 0.002086
6850.0 0.0020213
6870.0 0.001946
6890.0 0.0018985
6910.0 0.0017965
6930.0 0.001724
6950.0 0.0017284
6970.0 0.0017779
6990.0 0.0019521
7010.0 0.0020576
7030.0 0.0019166
7050.0 0.0017688
7070.0 0.0016349
7090.0 0.0014363
7110.0 0.0013307
7130.0 0.0013667
7150.0 0.0014182
7170.0 0.0014831
7190.0 0.0014743
7210.0 0.0014797
7230.0 0.0015988
7250.0 0.0018384
7270.0 0.002097
7290.0 0.0022191
7310.0 0.0021271
7330.0 0.0019036
7350.0 0.001726
7370.0 0.0016877
7390.0 0.0017171
7410.0 0.0018093
7430.0 0.0020067
7450.0 0.0021866
7470.0 0.0024042
7490.0 0.0025766
7510.0 0.0022988
7530.0 0.002191
7550.0 0.0019
7570.0 0.0016196
7590.0 0.0013408
7610.0 0.0012442
7630.0 0.0013158
7650.0 0.0015147
7670.0 0.0016841
7690.0 0.0018781
7710.0 0.0020878
7730.0 0.0021993
7750.0 0.0022468
7770.0 0.0022598
7790.0 0.0022555
7810.0 0.0023096
7830.0 0.0022367
7850.0 0.0020706
7870.0 0.0019174
7890.0 0.0017804
7910.0 0.001599
7930.0 0.0014005
7950.0 0.0012745
7970.0 0.0012496
7990.0 0.0012958
8010.0 0.0013814
8030.0 0.0014007
8050.0 0.0014045
8070.0 0.0013701
8090.0 0.0013586
8110.0 0.0013023
8130.0 0.0012292
8150.0 0.0011575
8170.0 0.0011437
8190.0 0.0011681
8210.0 0.0011644
8230.0 0.0011695
8250.0 0.0011534
8270.0 0.0010243
8290.0 0.00079199
8310.0 0.00056199
8330.0 0.00037932
8350.0 0.00027138
8370.0 0.00030196
8390.0 0.00033998
8410.0 0.00042785
8430.0 0.00052044
8450.0 0.00056915
8470.0 0.00058851
8490.0 0.00061825
8510.0 0.00065236
8530.0 0.00073373
8550.0 0.00082302
8570.0 0.0009559
8590.0 0.0011409
8610.0 0.0013239
8630.0 0.0015418
8650.0 0.0017134
8670.0 0.0016933
8690.0 0.0016015
8710.0 0.0015197
8730.0 0.0014424
8750.0 0.0013826
8770.0 0.001346
8790.0 0.0012954
8810.0 0.0011998
8830.0 0.0011044
8850.0 0.00096047
8870.0 0.00084114
8890.0 0.00075988
8910.0 0.00077985
8930.0 0.00076006
8950.0 0.00079616
8970.0 0.00081078
8990.0 0.00083527
9010.0 0.00086689
9030.0 0.00086426
9050.0 0.00086462
9070.0 0.00086559
9090.0 0.0008664
9110.0 0.00086664
9130.0 0.0008674
9150.0 0.00086869
9170.0 0.00086962
9190.0 0.00087003
9210.0 0.00087427
9230.0 0.00087521
9250.0 0.00087667
9270.0 0.0008783
9290.0 0.00088009
9310.0 0.00088212
9330.0 0.0008843
9350.0 0.00088655
9370.0 0.00088897
9390.0 0.00089155
9410.0 0.00089421
9430.0 0.00089695
9450.0 0.00089989
9470.0 0.00090292
9490.0 0.00090603
9510.0 0.00090926
9530.0 0.00091265
9550.0 0.00091607
9570.0 0.00091958
9590.0 0.00092325
9610.0 0.000927
9630.0 0.0009308
9650.0 0.00093472
9670.0 0.00093878
9690.0 0.00094286
9710.0 0.00094702
9730.0 0.0009513
9750.0 0.00095565
9770.0 0.00095998
9790.0 0.00096445
9810.0 0.00096901
9830.0 0.00097358
9850.0 0.0009782
9870.0 0.00098293
9890.0 0.00098768
9910.0 0.00099241
9930.0 0.00099723
9950.0 0.0010019
9970.0 0.0010068
9990.0 0.0010117
10010.0 0.001008
10030.0 0.0010128
10050.0 0.0010175
10070.0 0.0010216
10090.0 0.0010268
10110.0 0.0010318
10130.0 0.0010368
10150.0 0.0010418
10170.0 0.0010467
10190.0 0.0010513
10210.0 0.0010561
10230.0 0.0010609
10250.0 0.0010655
10270.0 0.00107
10290.0 0.0010746
10310.0 0.0010791
10330.0 0.0010834
10350.0 0.0010877
10370.0 0.001092
10390.0 0.0010961
10410.0 0.0011001
10430.0 0.0011042
10450.0 0.0011081
10470.0 0.0011118
10490.0 0.0011155
10510.0 0.0011191
10530.0 0.0011224
10550.0 0.0011256
10570.0 0.0011289
10590.0 0.0011319
10610.0 0.0011347
10630.0 0.0011376
10650.0 0.0011402
10670.0 0.0011426
10690.0 0.0011449
10710.0 0.0011472
10730.0 0.0011491
10750.0 0.0011509
10770.0 0.0011526
10790.0 0.0011542
10810.0 0.0011555
10830.0 0.0011566
10850.0 0.0011575
10870.0 0.0011579
10890.0 0.0011576
10910.0 0.0011565
10930.0 0.0011538
10950.0 0.0011486
10970.0 0.0011404
10990.0 0.001129
11010.0 0.0011079
11030.0 0.0010867
11050.0 0.0010622
11070.0 0.0010338
11090.0 0.0010006
11110.0 0.00096696
11130.0 0.0009327
11150.0 0.00089679
11170.0 0.00086104
11190.0 0.00082774
11210.0 0.00079489
11230.0 0.00076298
11250.0 0.00073428
11270.0 0.00070835
11290.0 0.00068397
11310.0 0.00066235
11330.0 0.00064438
11350.0 0.00062816
11370.0 0.00061363
11390.0 0.00060112
11410.0 0.00058987
11430.0 0.00057867
11450.0 0.0005679
11470.0 0.00055725
11490.0 0.00054584
11510.0 0.00053326
11530.0 0.00052027
11550.0 0.00050647
11570.0 0.00049123
11590.0 0.00047536
11610.0 0.00045946
11630.0 0.00044269
11650.0 0.0004255
11670.0 0.00040933
11690.0 0.00039369
11710.0 0.00037833
11730.0 0.00036412
11750.0 0.00035147
11770.0 0.00033949
11790.0 0.00032856
11810.0 0.00031906
11830.0 0.00031054
11850.0 0.00030252
11870.0 0.00029544
11890.0 0.00028906
11910.0 0.00028283
11930.0 0.00027671
11950.0 0.00027081
11970.0 0.00026475
11990.0 0.00025828
12010.0 0.00025173
12030.0 0.00024508
12050.0 0.00023809
12070.0 0.00023087
12090.0 0.00022409
12110.0 0.00021741
12130.0 0.00021093
12150.0 0.00020512
12170.0 0.00020013
12190.0 0.00019577
12210.0 0.0001925
12230.0 0.00019041
12250.0 0.00018946
12270.0 0.00018978
12290.0 0.00019131
12310.0 0.00019385
12330.0 0.00019762
12350.0 0.00020237
12370.0 0.00020769
12390.0 0.0002137
12410.0 0.00022054
12430.0 0.00022717
12450.0 0.00023371
12470.0 0.00024032
12490.0 0.00024652
12510.0 0.00025189
12530.0 0.00025679
12550.0 0.00026101
12570.0 0.00026419
12590.0 0.00026643
12610.0 0.00026784
12630.0 0.00026826
12650.0 0.0002677
12670.0 0.00026633
12690.0 0.00026415
12710.0 0.00026131
12730.0 0.00025791
12750.0 0.00025384
12770.0 0.00024939
12790.0 0.0002447
12810.0 0.00023966
12830.0 0.00023429
12850.0 0.00022893
12870.0 0.00022347
12890.0 0.00021771
12910.0 0.00021189
12930.0 0.00020611
12950.0 0.00020003
12970.0 0.00019373
12990.0 0.00018759
13010.0 0.00018137
13030.0 0.00017494
13050.0 0.0001686
13070.0 0.00016255
13090.0 0.00015642
13110.0 0.00015047
13130.0 0.00014499
13150.0 0.00013988
13170.0 0.00013502
13190.0 0.00013084
13210.0 0.00012735
13230.0 0.00012438
13250.0 0.00012208
13270.0 0.0001205
13290.0 0.00011956
13310.0 0.00011928
13330.0 0.00011962
13350.0 0.00012048
13370.0 0.00012187
13390.0 0.00012374
13410.0 0.00012578
13430.0 0.00012809
13450.0 0.00013062
13470.0 0.00013314
13490.0 0.00013556
13510.0 0.00013807
13530.0 0.00014038
13550.0 0.00014239
13570.0 0.00014421
13590.0 0.00014584
13610.0 0.00014714
13630.0 0.00014814
13650.0 0.00014896
13670.0 0.00014952
13690.0 0.00014982
13710.0 0.00014992
13730.0 0.00014982
13750.0 0.00014952
13770.0 0.00014905
13790.0 0.00014841
13810.0 0.00014761
13830.0 0.00014668
13850.0 0.00014558
13870.0 0.00014432
13890.0 0.00014295
13910.0 0.00014146
13930.0 0.0001398
13950.0 0.00013803
13970.0 0.00013625
13990.0 0.00013437
14010.0 0.00013243
14030.0 0.00013055
14050.0 0.00012871
14070.0 0.00012684
14090.0 0.00012513
14110.0 0.00012358
14130.0 0.00012215
14150.0 0.00012088
14170.0 0.00011986
14190.0 0.00011904
14210.0 0.00011843
14230.0 0.00011807
14250.0 0.00011794
14270.0 0.00011805
14290.0 0.00011842
14310.0 0.00011899
14330.0 0.00011976
14350.0 0.00012076
14370.0 0.0001219
14390.0 0.00012312
14410.0 0.00012452
14430.0 0.00012601
14450.0 0.0001275
14470.0 0.00012905
14490.0 0.00013071
14510.0 0.00013235
14530.0 0.000134
14550.0 0.00013578
14570.0 0.00013769
14590.0 0.00013966
14610.0 0.00014187
14630.0 0.00014441
14650.0 0.00014716
14670.0 0.00015016
14690.0 0.00015361
14710.0 0.00015747
14730.0 0.00016142
14750.0 0.00016574
14770.0 0.00017044
14790.0 0.0001752
14810.0 0.00017995
14830.0 0.00018503
14850.0 0.00018994
14870.0 0.00019449
14890.0 0.00019885
14910.0 0.00020294
14930.0 0.00020641
14950.0 0.0002093
14970.0 0.00021173
14990.0 0.00021351
15010.0 0.00021469
15030.0 0.00021538
15050.0 0.00021566
15070.0 0.0002156
15090.0 0.00021533
15110.0 0.00021492
15130.0 0.00021443
15150.0 0.00021392
15170.0 0.00021337
15190.0 0.0002128
15210.0 0.00021226
15230.0 0.00021171
15250.0 0.00021115
15270.0 0.0002106
15290.0 0.00021008
15310.0 0.00020954
15330.0 0.00020899
15350.0 0.00020847
15370.0 0.00020796
15390.0 0.00020741
15410.0 0.00020688
15430.0 0.00020637
15450.0 0.00020585
15470.0 0.00020531
15490.0 0.00020481
15510.0 0.0002043
15530.0 0.00020378
15550.0 0.00020326
15570.0 0.00020277
15590.0 0.00020225
15610.0 0.00020172
15630.0 0.00020122
15650.0 0.00020072
15670.0 0.0002002
15690.0 0.00019969
15710.0 0.0001992
15730.0 0.00019868
15750.0 0.00019817
15770.0 0.00019767
15790.0 0.00019716
15810.0 0.00019663
15830.0 0.00019612
15850.0 0.00019563
15870.0 0.00019511
15890.0 0.00019459
15910.0 0.00019409
15930.0 0.00019358
15950.0 0.00019305
15970.0 0.00019253
15990.0 0.00019202
16010.0 0.0001915
16030.0 0.00019096
16050.0 0.00019045
16070.0 0.00018993
16090.0 0.00018939
16110.0 0.00018887
16130.0 0.00018836
16150.0 0.0001878
16170.0 0.00018726
16190.0 0.00018674
16210.0 0.0001862
16230.0 0.00018564
16250.0 0.0001851
16270.0 0.00018457
16290.0 0.00018401
16310.0 0.00018346
16330.0 0.00018292
16350.0 0.00018236
16370.0 0.00018177
16390.0 0.00018122
16410.0 0.00018067
16430.0 0.00018009
16450.0 0.00017952
16470.0 0.00017897
16490.0 0.00017838
16510.0 0.00017779
16530.0 0.00017722
16550.0 0.00017664
16570.0 0.00017604
16590.0 0.00017544
16610.0 0.00017486
16630.0 0.00017426
16650.0 0.00017365
16670.0 0.00017306
16690.0 0.00017247
16710.0 0.00017184
16730.0 0.00017122
16750.0 0.00017062
16770.0 0.00017
16790.0 0.00016936
16810.0 0.00016875
16830.0 0.00016813
16850.0 0.00016749
16870.0 0.00016686
16890.0 0.00016624
16910.0 0.00016559
16930.0 0.00016493
16950.0 0.0001643
16970.0 0.00016365
16990.0 0.00016299
17010.0 0.00016234
17030.0 0.0001617
17050.0 0.00016103
17070.0 0.00016036
17090.0 0.00015971
17110.0 0.00015904
17130.0 0.00015835
17150.0 0.00015768
17170.0 0.00015702
17190.0 0.00015633
17210.0 0.00015564
17230.0 0.00015498
17250.0 0.00015429
17270.0 0.00015358
17290.0 0.0001529
17310.0 0.00015222
17330.0 0.00015151
17350.0 0.0001508
17370.0 0.00015012
17390.0 0.00014942
17410.0 0.0001487
17430.0 0.000148
17450.0 0.00014731
17470.0 0.00014657
17490.0 0.00014585
17510.0 0.00014515
17530.0 0.00014443
17550.0 0.0001437
17570.0 0.00014299
17590.0 0.00014228
17610.0 0.00014154
17630.0 0.00014081
17650.0 0.0001401
17670.0 0.00013937
17690.0 0.00013861
17710.0 0.00013789
17730.0 0.00013717
17750.0 0.00013643
17770.0 0.00013569
17790.0 0.00013497
17810.0 0.00013423
17830.0 0.00013347
17850.0 0.00013274
17870.0 0.00013201
17890.0 0.00013125
17910.0 0.0001305
17930.0 0.00012978
17950.0 0.00012903
17970.0 0.00012828
17990.0 0.00012754
18010.0 0.00012681
18030.0 0.00012604
18050.0 0.00012529
18070.0 0.00012455
18090.0 0.0001238
18110.0 0.00012304
18130.0 0.0001223
18150.0 0.00012156
18170.0 0.0001208
18190.0 0.00012005
18210.0 0.00011932
18230.0 0.00011856
18250.0 0.00011779
18270.0 0.00011706
18290.0 0.00011631
18310.0 0.00011555
18330.0 0.00011481
18350.0 0.00011408
18370.0 0.00011332
18390.0 0.00011256
18410.0 0.00011182
18430.0 0.00011108
18450.0 0.00011031
18470.0 0.00010957
18490.0 0.00010884
18510.0 0.00010809
18530.0 0.00010734
18550.0 0.00010661
18570.0 0.00010587
18590.0 0.00010511
18610.0 0.00010438
18630.0 0.00010365
18650.0 0.0001029
18670.0 0.00010215
18690.0 0.00010143
18710.0 0.0001007
18730.0 9.995e-05
18750.0 9.9224e-05
18770.0 9.8507e-05
18790.0 9.7753e-05
18810.0 9.7017e-05
18830.0 9.6302e-05
18850.0 9.5574e-05
18870.0 9.4834e-05
18890.0 9.412e-05
18910.0 9.3409e-05
18930.0 9.2673e-05
18950.0 9.195e-05
18970.0 9.1244e-05
18990.0 9.0524e-05
19010.0 8.9782e-05
19030.0 8.9082e-05
19050.0 8.8378e-05
19070.0 8.7656e-05
19090.0 8.6945e-05
19110.0 8.6257e-05
19130.0 8.554e-05
19150.0 8.4822e-05
19170.0 8.4128e-05
19190.0 8.3432e-05
19210.0 8.2716e-05
19230.0 8.2013e-05
19250.0 8.1336e-05
19270.0 8.0637e-05
19290.0 7.9935e-05
19310.0 7.9256e-05
19330.0 7.8575e-05
19350.0 7.7864e-05
19370.0 7.718e-05
19390.0 7.6508e-05
19410.0 7.582e-05
19430.0 7.5127e-05
19450.0 7.4465e-05
19470.0 7.3794e-05
19490.0 7.3107e-05
19510.0 7.2437e-05
19530.0 7.178e-05
19550.0 7.1098e-05
19570.0 7.0416e-05
19590.0 6.9766e-05
19610.0 6.9106e-05
19630.0 6.8433e-05
19650.0 6.7779e-05
19670.0 6.7138e-05
19690.0 6.647e-05
19710.0 6.581e-05
19730.0 6.5169e-05
19750.0 6.4521e-05
19770.0 6.3854e-05
19790.0 6.3214e-05
19810.0 6.2582e-05
19830.0 6.1931e-05
19850.0 6.1283e-05
19870.0 6.0651e-05
19890.0 5.999e-05
19910.0 5.9293e-05
19930.0 5.8585e-05
19950.0 5.7829e-05
19970.0 5.6974e-05
19990.0 5.6028e-05
20010.0 5.529e-05
20030.0 5.4161e-05
20050.0 5.2927e-05
20070.0 5.167e-05
20090.0 5.0394e-05
20110.0 4.9039e-05
20130.0 4.7747e-05
20150.0 4.6539e-05
20170.0 4.5357e-05
20190.0 4.4228e-05
20210.0 4.322e-05
20230.0 4.2289e-05
20250.0 4.1408e-05
20270.0 4.0636e-05
20290.0 3.9969e-05
20310.0 3.9375e-05
20330.0 3.8862e-05
20350.0 3.847e-05
20370.0 3.8161e-05
20390.0 3.7936e-05
20410.0 3.7804e-05
20430.0 3.7756e-05
20450.0 3.7793e-05
20470.0 3.7915e-05
20490.0 3.8108e-05
20510.0 3.8373e-05
20530.0 3.8719e-05
20550.0 3.9119e-05
20570.0 3.9555e-05
20590.0 4.0057e-05
20610.0 4.06e-05
20630.0 4.1153e-05
20650.0 4.1734e-05
20670.0 4.2362e-05
20690.0 4.2967e-05
20710.0 4.3561e-05
20730.0 4.417e-05
20750.0 4.4774e-05
20770.0 4.5336e-05
20790.0 4.59e-05
20810.0 4.6472e-05
20830.0 4.7019e-05
20850.0 4.7553e-05
20870.0 4.8116e-05
20890.0 4.8686e-05
20910.0 4.9234e-05
20930.0 4.9808e-05
20950.0 5.0412e-05
20970.0 5.1009e-05
20990.0 5.1606e-05
21010.0 5.2242e-05
21030.0 5.2867e-05
21050.0 5.3462e-05
21070.0 5.4052e-05
21090.0 5.4635e-05
21110.0 5.515e-05
21130.0 5.5618e-05
21150.0 5.6052e-05
21170.0 5.642e-05
21190.0 5.6713e-05
21210.0 5.6951e-05
21230.0 5.7119e-05
21250.0 5.7205e-05
21270.0 5.7218e-05
21290.0 5.7157e-05
21310.0 5.702e-05
21330.0 5.6816e-05
21350.0 5.6537e-05
21370.0 5.6182e-05
21390.0 5.5771e-05
21410.0 5.5301e-05
21430.0 5.4741e-05
21450.0 5.4142e-05
21470.0 5.3513e-05
21490.0 5.2824e-05
21510.0 5.2091e-05
21530.0 5.1362e-05
21550.0 5.0613e-05
21570.0 4.9829e-05
21590.0 4.9069e-05
21610.0 4.8342e-05
21630.0 4.7621e-05
21650.0 4.6923e-05
21670.0 4.6321e-05
21690.0 4.5767e-05
21710.0 4.5269e-05
21730.0 4.486e-05
21750.0 4.4543e-05
21770.0 4.4301e-05
21790.0 4.4158e-05
21810.0 4.4115e-05
21830.0 4.4165e-05
21850.0 4.4318e-05
21870.0 4.4561e-05
21890.0 4.488e-05
21910.0 4.5299e-05
21930.0 4.5799e-05
21950.0 4.6352e-05
21970.0 4.6978e-05
21990.0 4.7699e-05
22010.0 4.8437e-05
22030.0 4.9205e-05
22050.0 5.0033e-05
22070.0 5.0887e-05
22090.0 5.1716e-05
22110.0 5.2571e-05
22130.0 5.3443e-05
22150.0 5.4272e-05
22170.0 5.5064e-05
22190.0 5.5856e-05
22210.0 5.6593e-05
22230.0 5.7236e-05
22250.0 5.7829e-05
22270.0 5.8354e-05
22290.0 5.8775e-05
22310.0 5.9102e-05
22330.0 5.9341e-05
22350.0 5.9464e-05
22370.0 5.9474e-05
22390.0 5.937e-05
22410.0 5.9138e-05
22430.0 5.8799e-05
22450.0 5.8352e-05
22470.0 5.7773e-05
22490.0 5.709e-05
22510.0 5.6331e-05
22530.0 5.5443e-05
22550.0 5.4441e-05
22570.0 5.3398e-05
22590.0 5.2285e-05
22610.0 5.1065e-05
22630.0 4.9803e-05
22650.0 4.8551e-05
22670.0 4.7215e-05
22690.0 4.5837e-05
22710.0 4.4492e-05
22730.0 4.3144e-05
22750.0 4.1724e-05
22770.0 4.0374e-05
22790.0 3.909e-05
22810.0 3.7805e-05
22830.0 3.6557e-05
22850.0 3.542e-05
22870.0 3.4338e-05
22890.0 3.3298e-05
22910.0 3.2378e-05
