#lamb flux
1010.0 0.00015143
1030.0 0.00015143
1050.0 0.00015143
1070.0 0.00015143
1090.0 0.00015143
1110.0 0.00015143
1130.0 0.00015143
1150.0 0.00015143
1170.0 0.00015143
1190.0 0.00015143
1210.0 0.00015143
1230.0 0.00015143
1250.0 0.00015143
1270.0 0.00015143
1290.0 0.00015143
1310.0 0.00015143
1330.0 0.00015143
1350.0 0.00015143
1370.0 0.00015143
1390.0 0.00015143
1410.0 0.00015143
1430.0 0.00015143
1450.0 0.00015143
1470.0 0.00015143
1490.0 0.00015143
1510.0 0.00015143
1530.0 0.00015159
1550.0 0.00017984
1570.0 0.0002109
1590.0 0.00024484
1610.0 0.00028131
1630.0 0.0003204
1650.0 0.00036349
1670.0 0.00041035
1690.0 0.00046151
1710.0 0.00051807
1730.0 0.00058011
1750.0 0.00064696
1770.0 0.00072024
1790.0 0.00080023
1810.0 0.00088615
1830.0 0.00097823
1850.0 0.0010782
1870.0 0.0011841
1890.0 0.0012952
1910.0 0.0014124
1930.0 0.0015354
1950.0 0.0016611
1970.0 0.0017896
1990.0 0.0019214
2010.0 0.0020536
2030.0 0.0021839
2050.0 0.0023135
2070.0 0.002441
2090.0 0.0025615
2110.0 0.0026759
2130.0 0.0027844
2150.0 0.0028839
2170.0 0.0029723
2190.0 0.0030525
2210.0 0.0031228
2230.0 0.0031804
2250.0 0.0032271
2270.0 0.0032653
2290.0 0.0032916
2310.0 0.0033061
2330.0 0.0033127
2350.0 0.003311
2370.0 0.0032997
2390.0 0.003282
2410.0 0.0032607
2430.0 0.0032334
2450.0 0.0032017
2470.0 0.0031693
2490.0 0.0031375
2510.0 0.0031056
2530.0 0.0030825
2550.0 0.0030797
2570.0 0.0031073
2590.0 0.0031781
2610.0 0.0033267
2630.0 0.0035596
2650.0 0.0038625
2670.0 0.0042454
2690.0 0.0047042
2710.0 0.0051844
2730.0 0.0056662
2750.0 0.0061779
2770.0 0.0066854
2790.0 0.0071733
2810.0 0.0076746
2830.0 0.0082174
2850.0 0.0087439
2870.0 0.0092844
2890.0 0.009867
2910.0 0.010472
2930.0 0.011078
2950.0 0.011731
2970.0 0.012429
2990.0 0.013137
3010.0 0.013872
3030.0 0.014662
3050.0 0.015481
3070.0 0.01628
3090.0 0.017095
3110.0 0.017882
3130.0 0.018579
3150.0 0.019162
3170.0 0.019603
3190.0 0.019862
3210.0 0.019938
3230.0 0.019909
3250.0 0.020016
3270.0 0.020412
3290.0 0.021055
3310.0 0.021897
3330.0 0.022935
3350.0 0.024106
3370.0 0.02541
3390.0 0.026844
3410.0 0.02826
3430.0 0.030817
3450.0 0.032753
3470.0 0.034649
3490.0 0.035372
3510.0 0.034761
3530.0 0.038928
3550.0 0.046675
3570.0 0.051315
3590.0 0.053646
3610.0 0.054164
3630.0 0.052085
3650.0 0.056248
3670.0 0.067242
3690.0 0.075652
3710.0 0.079516
3730.0 0.082262
3750.0 0.086078
3770.0 0.08587
3790.0 0.08209
3810.0 0.077125
3830.0 0.071679
3850.0 0.071223
3870.0 0.076406
3890.0 0.081734
3910.0 0.085725
3930.0 0.087467
3950.0 0.093954
3970.0 0.10046
3990.0 0.096342
4010.0 0.085564
4030.0 0.075414
4050.0 0.07214
4070.0 0.074665
4090.0 0.075307
4110.0 0.073485
4130.0 0.072348
4150.0 0.073565
4170.0 0.08078
4190.0 0.088368
4210.0 0.08664
4230.0 0.081411
4250.0 0.078818
4270.0 0.077797
4290.0 0.080026
4310.0 0.08286
4330.0 0.078923
4350.0 0.06898
4370.0 0.060751
4390.0 0.055062
4410.0 0.05025
4430.0 0.049956
4450.0 0.054215
4470.0 0.058215
4490.0 0.063502
4510.0 0.072362
4530.0 0.090146
4550.0 0.1116
4570.0 0.12442
4590.0 0.13284
4610.0 0.14435
4630.0 0.15143
4650.0 0.14134
4670.0 0.11683
4690.0 0.09724
4710.0 0.089983
4730.0 0.087367
4750.0 0.07944
4770.0 0.072905
4790.0 0.076157
4810.0 0.082968
4830.0 0.083289
4850.0 0.0776
4870.0 0.07508
4890.0 0.079222
4910.0 0.083816
4930.0 0.084147
4950.0 0.081398
4970.0 0.076937
4990.0 0.070188
5010.0 0.063908
5030.0 0.060194
5050.0 0.058503
5070.0 0.057254
5090.0 0.055933
5110.0 0.055712
5130.0 0.05633
5150.0 0.059355
5170.0 0.065854
5190.0 0.073779
5210.0 0.082568
5230.0 0.087971
5250.0 0.090626
5270.0 0.095411
5290.0 0.10055
5310.0 0.10208
5330.0 0.097999
5350.0 0.092807
5370.0 0.092537
5390.0 0.098377
5410.0 0.10485
5430.0 0.10803
5450.0 0.10795
5470.0 0.10476
5490.0 0.1004
5510.0 0.097777
5530.0 0.097593
5550.0 0.098585
5570.0 0.099158
5590.0 0.096263
5610.0 0.090987
5630.0 0.085018
5650.0 0.079659
5670.0 0.076383
5690.0 0.073625
5710.0 0.071621
5730.0 0.072336
5750.0 0.07189
5770.0 0.070213
5790.0 0.070518
5810.0 0.0715
5830.0 0.072587
5850.0 0.073014
5870.0 0.071452
5890.0 0.06824
5910.0 0.064257
5930.0 0.058437
5950.0 0.054045
5970.0 0.053381
5990.0 0.055141
6010.0 0.056096
6030.0 0.05417
6050.0 0.052862
6070.0 0.054886
6090.0 0.058371
6110.0 0.060171
6130.0 0.058449
6150.0 0.055078
6170.0 0.052713
6190.0 0.050338
6210.0 0.047523
6230.0 0.045061
6250.0 0.044086
6270.0 0.045207
6290.0 0.047216
6310.0 0.050017
6330.0 0.053478
6350.0 0.056793
6370.0 0.058515
6390.0 0.058834
6410.0 0.059383
6430.0 0.059996
6450.0 0.060395
6470.0 0.061411
6490.0 0.062556
6510.0 0.06312
6530.0 0.06274
6550.0 0.061271
6570.0 0.059036
6590.0 0.056841
6610.0 0.05527
6630.0 0.054161
6650.0 0.052381
6670.0 0.050088
6690.0 0.048266
6710.0 0.047218
6730.0 0.046864
6750.0 0.046224
6770.0 0.045266
6790.0 0.044546
6810.0 0.043846
6830.0 0.04357
6850.0 0.043957
6870.0 0.043987
6890.0 0.04362
6910.0 0.042643
6930.0 0.04165
6950.0 0.041163
6970.0 0.040116
6990.0 0.038694
7010.0 0.03808
7030.0 0.037691
7050.0 0.036737
7070.0 0.035458
7090.0 0.034752
7110.0 0.035311
7130.0 0.03708
7150.0 0.039084
7170.0 0.040373
7190.0 0.040024
7210.0 0.038839
7230.0 0.038106
7250.0 0.037755
7270.0 0.037575
7290.0 0.037185
7310.0 0.037184
7330.0 0.038054
7350.0 0.039173
7370.0 0.039838
7390.0 0.03955
7410.0 0.038559
7430.0 0.037756
7450.0 0.036906
7470.0 0.035039
7490.0 0.033777
7510.0 0.03256
7530.0 0.031744
7550.0 0.031859
7570.0 0.032267
7590.0 0.03231
7610.0 0.032109
7630.0 0.032004
7650.0 0.032019
7670.0 0.03273
7690.0 0.033839
7710.0 0.035238
7730.0 0.036249
7750.0 0.037387
7770.0 0.038054
7790.0 0.038217
7810.0 0.037968
7830.0 0.038259
7850.0 0.038001
7870.0 0.036582
7890.0 0.035103
7910.0 0.034008
7930.0 0.033016
7950.0 0.032232
7970.0 0.032019
7990.0 0.032377
8010.0 0.031637
8030.0 0.031305
8050.0 0.03084
8070.0 0.030294
8090.0 0.029731
8110.0 0.029763
8130.0 0.029984
8150.0 0.029919
8170.0 0.029724
8190.0 0.029045
8210.0 0.027473
8230.0 0.025634
8250.0 0.024537
8270.0 0.023787
8290.0 0.023194
8310.0 0.023107
8330.0 0.023318
8350.0 0.022789
8370.0 0.022349
8390.0 0.0229
8410.0 0.024113
8430.0 0.02578
8450.0 0.027458
8470.0 0.028288
8490.0 0.028977
8510.0 0.02935
8530.0 0.029742
8550.0 0.030227
8570.0 0.030517
8590.0 0.030798
8610.0 0.031657
8630.0 0.032031
8650.0 0.031402
8670.0 0.031428
8690.0 0.031807
8710.0 0.032022
8730.0 0.031848
8750.0 0.03103
8770.0 0.03069
8790.0 0.030525
8810.0 0.030125
8830.0 0.028299
8850.0 0.025948
8870.0 0.024258
8890.0 0.023347
8910.0 0.022043
8930.0 0.020525
8950.0 0.019655
8970.0 0.019545
8990.0 0.019707
9010.0 0.019658
9030.0 0.019518
9050.0 0.019388
9070.0 0.019272
9090.0 0.019159
9110.0 0.019047
9130.0 0.018936
9150.0 0.018825
9170.0 0.018714
9190.0 0.018603
9210.0 0.018493
9230.0 0.018384
9250.0 0.018276
9270.0 0.018168
9290.0 0.018061
9310.0 0.017954
9330.0 0.017847
9350.0 0.017742
9370.0 0.017636
9390.0 0.017532
9410.0 0.017427
9430.0 0.017323
9450.0 0.017213
9470.0 0.017106
9490.0 0.01701
9510.0 0.016911
9530.0 0.016813
9550.0 0.016713
9570.0 0.016614
9590.0 0.016516
9610.0 0.016417
9630.0 0.016319
9650.0 0.016221
9670.0 0.016125
9690.0 0.016028
9710.0 0.015932
9730.0 0.015837
9750.0 0.015742
9770.0 0.015647
9790.0 0.015553
9810.0 0.01546
9830.0 0.015365
9850.0 0.015262
9870.0 0.015172
9890.0 0.015084
9910.0 0.014994
9930.0 0.014903
9950.0 0.014815
9970.0 0.014724
9990.0 0.014632
10010.0 0.01453
10030.0 0.014435
10050.0 0.014352
10070.0 0.014268
10090.0 0.014183
10110.0 0.014091
10130.0 0.013975
10150.0 0.013892
10170.0 0.013814
10190.0 0.01373
10210.0 0.013647
10230.0 0.013564
10250.0 0.013475
10270.0 0.013387
10290.0 0.013302
10310.0 0.013214
10330.0 0.013122
10350.0 0.013035
10370.0 0.012948
10390.0 0.012858
10410.0 0.012768
10430.0 0.012682
10450.0 0.012593
10470.0 0.012502
10490.0 0.012414
10510.0 0.012327
10530.0 0.012234
10550.0 0.012143
10570.0 0.012055
10590.0 0.011964
10610.0 0.011872
10630.0 0.011783
10650.0 0.011694
10670.0 0.011599
10690.0 0.011507
10710.0 0.011417
10730.0 0.011323
10750.0 0.011227
10770.0 0.011136
10790.0 0.011044
10810.0 0.010948
10830.0 0.010853
10850.0 0.010762
10870.0 0.010664
10890.0 0.010567
10910.0 0.010474
10930.0 0.01038
10950.0 0.010283
10970.0 0.01019
10990.0 0.010103
11010.0 0.0101
11030.0 0.010015
11050.0 0.0099337
11070.0 0.0098529
11090.0 0.0097683
11110.0 0.0096888
11130.0 0.0096112
11150.0 0.0095324
11170.0 0.0094553
11190.0 0.009384
11210.0 0.0093139
11230.0 0.0092456
11250.0 0.0091832
11270.0 0.0091256
11290.0 0.0090697
11310.0 0.0090179
11330.0 0.0089723
11350.0 0.0089287
11370.0 0.0088868
11390.0 0.0088483
11410.0 0.0088115
11430.0 0.0087735
11450.0 0.0087361
11470.0 0.008699
11490.0 0.0086597
11510.0 0.008617
11530.0 0.0085733
11550.0 0.0085268
11570.0 0.008475
11590.0 0.0084196
11610.0 0.0083619
11630.0 0.0082978
11650.0 0.0082275
11670.0 0.0081557
11690.0 0.0080798
11710.0 0.0079973
11730.0 0.0079116
11750.0 0.0078258
11770.0 0.0077338
11790.0 0.0076379
11810.0 0.0075426
11830.0 0.0074458
11850.0 0.0073428
11870.0 0.0072418
11890.0 0.0071437
11910.0 0.0070431
11930.0 0.0069423
11950.0 0.0068467
11970.0 0.0067521
11990.0 0.0066564
12010.0 0.0065658
12030.0 0.0064801
12050.0 0.0063954
12070.0 0.0063128
12090.0 0.0062385
12110.0 0.0061668
12130.0 0.0060976
12150.0 0.0060341
12170.0 0.0059766
12190.0 0.0059211
12210.0 0.0058715
12230.0 0.0058287
12250.0 0.005791
12270.0 0.0057584
12290.0 0.0057323
12310.0 0.0057119
12330.0 0.0056964
12350.0 0.005686
12370.0 0.0056798
12390.0 0.0056773
12410.0 0.0056786
12430.0 0.0056816
12450.0 0.0056859
12470.0 0.0056916
12490.0 0.0056973
12510.0 0.0057017
12530.0 0.0057052
12550.0 0.005707
12570.0 0.0057058
12590.0 0.0057013
12610.0 0.0056932
12630.0 0.0056806
12650.0 0.0056637
12670.0 0.0056419
12690.0 0.0056148
12710.0 0.0055834
12730.0 0.0055476
12750.0 0.0055057
12770.0 0.0054602
12790.0 0.0054121
12810.0 0.0053601
12830.0 0.0053043
12850.0 0.0052486
12870.0 0.0051919
12890.0 0.0051327
12910.0 0.0050738
12930.0 0.0050166
12950.0 0.0049581
12970.0 0.0048993
12990.0 0.0048438
13010.0 0.0047892
13030.0 0.0047343
13050.0 0.0046813
13070.0 0.0046312
13090.0 0.0045808
13110.0 0.0045314
13130.0 0.0044849
13150.0 0.00444
13170.0 0.0043951
13190.0 0.0043533
13210.0 0.0043144
13230.0 0.0042765
13250.0 0.0042403
13270.0 0.0042071
13290.0 0.0041753
13310.0 0.0041442
13330.0 0.0041151
13350.0 0.0040875
13370.0 0.0040599
13390.0 0.0040324
13410.0 0.0040061
13430.0 0.0039793
13450.0 0.0039515
13470.0 0.0039236
13490.0 0.0038955
13510.0 0.0038651
13530.0 0.003834
13550.0 0.003803
13570.0 0.0037707
13590.0 0.0037368
13610.0 0.0037031
13630.0 0.0036696
13650.0 0.0036345
13670.0 0.0035993
13690.0 0.003565
13710.0 0.0035302
13730.0 0.003494
13750.0 0.0034596
13770.0 0.0034256
13790.0 0.0033908
13810.0 0.0033562
13830.0 0.0033232
13850.0 0.0032893
13870.0 0.0032551
13890.0 0.0032222
13910.0 0.0031899
13930.0 0.0031567
13950.0 0.0031242
13970.0 0.0030936
13990.0 0.0030627
14010.0 0.0030318
14030.0 0.0030024
14050.0 0.0029737
14070.0 0.0029439
14090.0 0.0029154
14110.0 0.0028882
14130.0 0.0028608
14150.0 0.0028334
14170.0 0.0028078
14190.0 0.0027829
14210.0 0.0027578
14230.0 0.002734
14250.0 0.0027118
14270.0 0.0026898
14290.0 0.0026684
14310.0 0.0026492
14330.0 0.0026309
14350.0 0.0026132
14370.0 0.0025968
14390.0 0.0025819
14410.0 0.0025673
14430.0 0.0025534
14450.0 0.0025408
14470.0 0.0025287
14490.0 0.0025165
14510.0 0.0025052
14530.0 0.0024946
14550.0 0.0024838
14570.0 0.002473
14590.0 0.0024628
14610.0 0.0024523
14630.0 0.0024413
14650.0 0.0024307
14670.0 0.0024204
14690.0 0.0024098
14710.0 0.0023996
14730.0 0.0023908
14750.0 0.0023829
14770.0 0.0023763
14790.0 0.002372
14810.0 0.0023702
14830.0 0.0023713
14850.0 0.0023758
14870.0 0.0023838
14890.0 0.0023952
14910.0 0.0024101
14930.0 0.0024271
14950.0 0.002445
14970.0 0.0024637
14990.0 0.0024811
15010.0 0.0024961
15030.0 0.0025086
15050.0 0.0025186
15070.0 0.0025257
15090.0 0.0025311
15110.0 0.0025351
15130.0 0.0025384
15150.0 0.0025412
15170.0 0.0025439
15190.0 0.0025465
15210.0 0.0025492
15230.0 0.002552
15250.0 0.0025548
15270.0 0.0025577
15290.0 0.0025608
15310.0 0.002564
15330.0 0.0025671
15350.0 0.0025705
15370.0 0.0025739
15390.0 0.0025773
15410.0 0.0025809
15430.0 0.0025846
15450.0 0.0025883
15470.0 0.002592
15490.0 0.002596
15510.0 0.0026
15530.0 0.002604
15550.0 0.0026081
15570.0 0.0026123
15590.0 0.0026166
15610.0 0.0026209
15630.0 0.0026253
15650.0 0.0026298
15670.0 0.0026343
15690.0 0.0026389
15710.0 0.0026437
15730.0 0.0026484
15750.0 0.0026532
15770.0 0.0026581
15790.0 0.0026631
15810.0 0.002668
15830.0 0.002673
15850.0 0.0026782
15870.0 0.0026833
15890.0 0.0026885
15910.0 0.0026938
15930.0 0.0026991
15950.0 0.0027044
15970.0 0.0027098
15990.0 0.0027153
16010.0 0.0027207
16030.0 0.0027262
16050.0 0.0027318
16070.0 0.0027375
16090.0 0.002743
16110.0 0.0027487
16130.0 0.0027545
16150.0 0.0027601
16170.0 0.0027659
16190.0 0.0027717
16210.0 0.0027775
16230.0 0.0027833
16250.0 0.0027892
16270.0 0.0027951
16290.0 0.0028009
16310.0 0.0028068
16330.0 0.0028128
16350.0 0.0028187
16370.0 0.0028245
16390.0 0.0028305
16410.0 0.0028365
16430.0 0.0028424
16450.0 0.0028483
16470.0 0.0028544
16490.0 0.0028603
16510.0 0.0028662
16530.0 0.0028721
16550.0 0.0028781
16570.0 0.002884
16590.0 0.0028898
16610.0 0.0028958
16630.0 0.0029016
16650.0 0.0029075
16670.0 0.0029133
16690.0 0.0029192
16710.0 0.0029249
16730.0 0.0029306
16750.0 0.0029364
16770.0 0.002942
16790.0 0.0029476
16810.0 0.0029533
16830.0 0.0029589
16850.0 0.0029644
16870.0 0.0029699
16890.0 0.0029754
16910.0 0.0029808
16930.0 0.0029861
16950.0 0.0029914
16970.0 0.0029967
16990.0 0.0030018
17010.0 0.003007
17030.0 0.0030121
17050.0 0.0030171
17070.0 0.003022
17090.0 0.0030269
17110.0 0.0030318
17130.0 0.0030364
17150.0 0.0030411
17170.0 0.0030457
17190.0 0.0030502
17210.0 0.0030546
17230.0 0.0030591
17250.0 0.0030633
17270.0 0.0030674
17290.0 0.0030715
17310.0 0.0030756
17330.0 0.0030795
17350.0 0.0030832
17370.0 0.003087
17390.0 0.0030907
17410.0 0.0030941
17430.0 0.0030976
17450.0 0.003101
17470.0 0.0031041
17490.0 0.0031072
17510.0 0.0031102
17530.0 0.0031131
17550.0 0.0031158
17570.0 0.0031185
17590.0 0.0031211
17610.0 0.0031235
17630.0 0.0031257
17650.0 0.003128
17670.0 0.00313
17690.0 0.0031318
17710.0 0.0031337
17730.0 0.0031354
17750.0 0.0031369
17770.0 0.0031383
17790.0 0.0031396
17810.0 0.0031407
17830.0 0.0031416
17850.0 0.0031425
17870.0 0.0031433
17890.0 0.0031438
17910.0 0.0031442
17930.0 0.0031446
17950.0 0.0031447
17970.0 0.0031446
17990.0 0.0031446
18010.0 0.0031443
18030.0 0.0031437
18050.0 0.0031431
18070.0 0.0031424
18090.0 0.0031415
18110.0 0.0031404
18130.0 0.0031392
18150.0 0.0031379
18170.0 0.0031363
18190.0 0.0031346
18210.0 0.0031328
18230.0 0.0031308
18250.0 0.0031285
18270.0 0.0031263
18290.0 0.0031238
18310.0 0.0031211
18330.0 0.0031183
18350.0 0.0031154
18370.0 0.0031122
18390.0 0.0031089
18410.0 0.0031055
18430.0 0.0031019
18450.0 0.003098
18470.0 0.0030941
18490.0 0.00309
18510.0 0.0030857
18530.0 0.0030812
18550.0 0.0030767
18570.0 0.0030719
18590.0 0.0030669
18610.0 0.0030618
18630.0 0.0030566
18650.0 0.0030512
18670.0 0.0030455
18690.0 0.0030399
18710.0 0.003034
18730.0 0.0030278
18750.0 0.0030216
18770.0 0.0030153
18790.0 0.0030087
18810.0 0.0030019
18830.0 0.0029951
18850.0 0.0029881
18870.0 0.0029809
18890.0 0.0029736
18910.0 0.0029662
18930.0 0.0029585
18950.0 0.0029507
18970.0 0.0029428
18990.0 0.0029347
19010.0 0.0029263
19030.0 0.002918
19050.0 0.0029095
19070.0 0.0029008
19090.0 0.0028919
19110.0 0.0028831
19130.0 0.0028739
19150.0 0.0028646
19170.0 0.0028552
19190.0 0.0028458
19210.0 0.002836
19230.0 0.0028262
19250.0 0.0028164
19270.0 0.0028063
19290.0 0.0027961
19310.0 0.0027858
19330.0 0.0027754
19350.0 0.0027647
19370.0 0.0027541
19390.0 0.0027433
19410.0 0.0027324
19430.0 0.0027213
19450.0 0.0027102
19470.0 0.0026989
19490.0 0.0026875
19510.0 0.002676
19530.0 0.0026645
19550.0 0.0026527
19570.0 0.0026409
19590.0 0.002629
19610.0 0.0026171
19630.0 0.0026049
19650.0 0.0025927
19670.0 0.0025805
19690.0 0.0025681
19710.0 0.0025556
19730.0 0.0025431
19750.0 0.0025305
19770.0 0.0025177
19790.0 0.0025049
19810.0 0.0024921
19830.0 0.0024791
19850.0 0.0024659
19870.0 0.0024526
19890.0 0.0024388
19910.0 0.0024242
19930.0 0.0024087
19950.0 0.0023916
19970.0 0.0023721
19990.0 0.0023497
20010.0 0.002325
20030.0 0.0022966
20050.0 0.0022649
20070.0 0.0022314
20090.0 0.0021962
20110.0 0.0021582
20130.0 0.0021202
20150.0 0.0020829
20170.0 0.002045
20190.0 0.002007
20210.0 0.0019708
20230.0 0.0019352
20250.0 0.0018995
20270.0 0.0018654
20290.0 0.001833
20310.0 0.0018011
20330.0 0.0017699
20350.0 0.0017414
20370.0 0.001714
20390.0 0.0016875
20410.0 0.0016628
20430.0 0.0016399
20450.0 0.0016177
20470.0 0.001597
20490.0 0.0015781
20510.0 0.0015603
20530.0 0.0015436
20550.0 0.0015282
20570.0 0.0015141
20590.0 0.0015008
20610.0 0.0014884
20630.0 0.001477
20650.0 0.0014662
20670.0 0.0014559
20690.0 0.0014462
20710.0 0.0014369
20730.0 0.0014278
20750.0 0.0014189
20770.0 0.00141
20790.0 0.001401
20810.0 0.0013918
20830.0 0.0013824
20850.0 0.0013725
20870.0 0.0013622
20890.0 0.0013513
20910.0 0.00134
20930.0 0.001328
20950.0 0.0013154
20970.0 0.0013022
20990.0 0.0012885
21010.0 0.0012739
21030.0 0.0012589
21050.0 0.0012435
21070.0 0.0012276
21090.0 0.001211
21110.0 0.0011944
21130.0 0.0011777
21150.0 0.0011604
21170.0 0.0011432
21190.0 0.0011262
21210.0 0.0011088
21230.0 0.0010914
21250.0 0.0010744
21270.0 0.0010577
21290.0 0.001041
21310.0 0.0010246
21330.0 0.0010089
21350.0 0.00099322
21370.0 0.00097784
21390.0 0.00096309
21410.0 0.00094877
21430.0 0.00093446
21450.0 0.0009208
21470.0 0.00090772
21490.0 0.00089486
21510.0 0.00088232
21530.0 0.00087036
21550.0 0.0008587
21570.0 0.0008472
21590.0 0.00083612
21610.0 0.00082543
21630.0 0.00081489
21650.0 0.0008045
21670.0 0.00079458
21690.0 0.0007848
21710.0 0.0007751
21730.0 0.00076564
21750.0 0.00075639
21770.0 0.00074709
21790.0 0.00073791
21810.0 0.00072889
21830.0 0.00071989
21850.0 0.00071083
21870.0 0.00070185
21890.0 0.00069297
21910.0 0.00068395
21930.0 0.00067492
21950.0 0.00066596
21970.0 0.00065693
21990.0 0.0006477
22010.0 0.00063861
22030.0 0.00062953
22050.0 0.00062032
22070.0 0.0006111
22090.0 0.00060204
22110.0 0.00059291
22130.0 0.0005837
22150.0 0.00057464
22170.0 0.00056567
22190.0 0.00055659
22210.0 0.00054759
22230.0 0.00053885
22250.0 0.00053009
22270.0 0.00052133
22290.0 0.00051278
22310.0 0.00050436
22330.0 0.00049583
22350.0 0.00048744
22370.0 0.00047925
22390.0 0.00047104
22410.0 0.00046279
22430.0 0.00045478
22450.0 0.00044684
22470.0 0.00043883
22490.0 0.00043092
22510.0 0.00042318
22530.0 0.00041534
22550.0 0.00040749
22570.0 0.00039986
22590.0 0.0003923
22610.0 0.00038469
22630.0 0.00037721
22650.0 0.00036998
22670.0 0.00036274
22690.0 0.00035559
22710.0 0.0003487
22730.0 0.00034198
22750.0 0.00033525
22770.0 0.00032884
22790.0 0.00032271
22810.0 0.00031671
22830.0 0.00031091
22850.0 0.00030544
22870.0 0.00030018
22890.0 0.00029512
22910.0 0.00029036
22930.0 0.00028589
22950.0 0.00028166
22970.0 0.00027769
22990.0 0.00027403
23010.0 0.0002706
23030.0 0.00026741
23050.0 0.00026443
23070.0 0.00026162
23090.0 0.00025898
23110.0 0.00025645
23130.0 0.00025397
23150.0 0.00025152
23170.0 0.00024908
23190.0 0.00024657
23210.0 0.00024398
23230.0 0.0002413
23250.0 0.0002385
23270.0 0.00023557
23290.0 0.00023249
23310.0 0.00022925
23330.0 0.00022588
23350.0 0.00022239
23370.0 0.00021873
23390.0 0.00021496
23410.0 0.00021113
23430.0 0.0002072
23450.0 0.00020312
23470.0 0.00019904
23490.0 0.00019494
23510.0 0.00019078
23530.0 0.00018666
23550.0 0.00018264
23570.0 0.00017866
23590.0 0.00017476
23610.0 0.00017104
23630.0 0.00016748
23650.0 0.00016409
23670.0 0.00016099
23690.0 0.00015818
23710.0 0.00015571
23730.0 0.00015365
23750.0 0.00015198
23770.0 0.00015143
23790.0 0.00015143
23810.0 0.00015143
23830.0 0.00015143
23850.0 0.00015143
23870.0 0.00015143
23890.0 0.00015204
23910.0 0.00015332
23930.0 0.0001549
23950.0 0.00015652
23970.0 0.00015799
23990.0 0.00015961
24010.0 0.00016116
24030.0 0.0001624
24050.0 0.00016345
24070.0 0.00016444
24090.0 0.00016497
24110.0 0.00016511
