#lamb flux
1010.0 0.0010538
1030.0 0.0013769
1050.0 0.0017596
1070.0 0.0021997
1090.0 0.0027042
1110.0 0.0032245
1130.0 0.0037418
1150.0 0.0042649
1170.0 0.0047748
1190.0 0.005216
1210.0 0.0056111
1230.0 0.0059595
1250.0 0.0062268
1270.0 0.0064059
1290.0 0.0065323
1310.0 0.0065803
1330.0 0.0065387
1350.0 0.0064407
1370.0 0.0063153
1390.0 0.0061268
1410.0 0.0058878
1430.0 0.0056294
1450.0 0.0053482
1470.0 0.0050477
1490.0 0.0047469
1510.0 0.0044537
1530.0 0.004154
1550.0 0.0038685
1570.0 0.0036059
1590.0 0.0033668
1610.0 0.0031547
1630.0 0.0029679
1650.0 0.0028044
1670.0 0.0026582
1690.0 0.0025308
1710.0 0.0024247
1730.0 0.0023344
1750.0 0.0022419
1770.0 0.0021634
1790.0 0.0020973
1810.0 0.0020397
1830.0 0.0019897
1850.0 0.0019341
1870.0 0.0018877
1890.0 0.0018468
1910.0 0.0018136
1930.0 0.001788
1950.0 0.0017679
1970.0 0.0017551
1990.0 0.0017523
2010.0 0.0017587
2030.0 0.0017752
2050.0 0.001806
2070.0 0.0018531
2090.0 0.0019161
2110.0 0.0019996
2130.0 0.0021079
2150.0 0.0022425
2170.0 0.0024054
2190.0 0.0026031
2210.0 0.0028377
2230.0 0.0031101
2250.0 0.0034243
2270.0 0.0037854
2290.0 0.004191
2310.0 0.004641
2330.0 0.0051401
2350.0 0.0056867
2370.0 0.0062746
2390.0 0.0069044
2410.0 0.0075746
2430.0 0.0082705
2450.0 0.0089831
2470.0 0.0097046
2490.0 0.01042
2510.0 0.011118
2530.0 0.011804
2550.0 0.012499
2570.0 0.013247
2590.0 0.014116
2610.0 0.015253
2630.0 0.016796
2650.0 0.018815
2670.0 0.021476
2690.0 0.02493
2710.0 0.029009
2730.0 0.033582
2750.0 0.038789
2770.0 0.04422
2790.0 0.049468
2810.0 0.05452
2830.0 0.059316
2850.0 0.063323
2870.0 0.066771
2890.0 0.069847
2910.0 0.072538
2930.0 0.07487
2950.0 0.0771
2970.0 0.079252
2990.0 0.081251
3010.0 0.083168
3030.0 0.085101
3050.0 0.086973
3070.0 0.088657
3090.0 0.090291
3110.0 0.091797
3130.0 0.09304
3150.0 0.094038
3170.0 0.094817
3190.0 0.095316
3210.0 0.095646
3230.0 0.095962
3250.0 0.096395
3270.0 0.097017
3290.0 0.097957
3310.0 0.099328
3330.0 0.10099
3350.0 0.10279
3370.0 0.10476
3390.0 0.10678
3410.0 0.10862
3430.0 0.11029
3450.0 0.1116
3470.0 0.11634
3490.0 0.11548
3510.0 0.10393
3530.0 0.11088
3550.0 0.12917
3570.0 0.14292
3590.0 0.15971
3610.0 0.17025
3630.0 0.17801
3650.0 0.16096
3670.0 0.14147
3690.0 0.13722
3710.0 0.15067
3730.0 0.17381
3750.0 0.17682
3770.0 0.17807
3790.0 0.18385
3810.0 0.17212
3830.0 0.1531
3850.0 0.13809
3870.0 0.12971
3890.0 0.1445
3910.0 0.1571
3930.0 0.16122
3950.0 0.1636
3970.0 0.17025
3990.0 0.17971
4010.0 0.1813
4030.0 0.1719
4050.0 0.1558
4070.0 0.15404
4090.0 0.16241
4110.0 0.17222
4130.0 0.16751
4150.0 0.16294
4170.0 0.16109
4190.0 0.16871
4210.0 0.16742
4230.0 0.15481
4250.0 0.13838
4270.0 0.12442
4290.0 0.11322
4310.0 0.10541
4330.0 0.10377
4350.0 0.11354
4370.0 0.11665
4390.0 0.12026
4410.0 0.12606
4430.0 0.12888
4450.0 0.1261
4470.0 0.12283
4490.0 0.12637
4510.0 0.12928
4530.0 0.13223
4550.0 0.13459
4570.0 0.13527
4590.0 0.13935
4610.0 0.14144
4630.0 0.14592
4650.0 0.15068
4670.0 0.14738
4690.0 0.13788
4710.0 0.12549
4730.0 0.12004
4750.0 0.11877
4770.0 0.11463
4790.0 0.10949
4810.0 0.10563
4830.0 0.10805
4850.0 0.10972
4870.0 0.10676
4890.0 0.10343
4910.0 0.095905
4930.0 0.097302
4950.0 0.090533
4970.0 0.082368
4990.0 0.080363
5010.0 0.075
5030.0 0.070314
5050.0 0.070458
5070.0 0.076338
5090.0 0.079244
5110.0 0.087882
5130.0 0.090562
5150.0 0.093396
5170.0 0.096376
5190.0 0.0946
5210.0 0.095102
5230.0 0.096986
5250.0 0.097336
5270.0 0.099712
5290.0 0.098809
5310.0 0.096912
5330.0 0.091885
5350.0 0.086989
5370.0 0.081574
5390.0 0.082709
5410.0 0.084283
5430.0 0.084213
5450.0 0.084838
5470.0 0.083996
5490.0 0.082693
5510.0 0.081798
5530.0 0.079891
5550.0 0.080096
5570.0 0.081056
5590.0 0.082144
5610.0 0.081471
5630.0 0.07964
5650.0 0.078689
5670.0 0.076974
5690.0 0.074702
5710.0 0.072317
5730.0 0.071309
5750.0 0.071059
5770.0 0.069641
5790.0 0.068431
5810.0 0.067968
5830.0 0.069276
5850.0 0.070352
5870.0 0.07045
5890.0 0.06949
5910.0 0.069383
5930.0 0.069532
5950.0 0.069339
5970.0 0.068472
5990.0 0.067353
6010.0 0.068579
6030.0 0.069036
6050.0 0.06752
6070.0 0.067548
6090.0 0.067257
6110.0 0.067474
6130.0 0.067454
6150.0 0.065457
6170.0 0.060656
6190.0 0.056056
6210.0 0.053945
6230.0 0.053108
6250.0 0.053436
6270.0 0.055422
6290.0 0.057095
6310.0 0.059149
6330.0 0.060858
6350.0 0.06173
6370.0 0.061808
6390.0 0.060345
6410.0 0.05905
6430.0 0.057279
6450.0 0.055865
6470.0 0.055082
6490.0 0.055155
6510.0 0.055093
6530.0 0.055005
6550.0 0.053884
6570.0 0.052843
6590.0 0.052508
6610.0 0.051354
6630.0 0.050576
6650.0 0.049669
6670.0 0.048129
6690.0 0.046654
6710.0 0.045394
6730.0 0.044917
6750.0 0.044203
6770.0 0.043705
6790.0 0.043769
6810.0 0.043053
6830.0 0.042505
6850.0 0.042065
6870.0 0.0411
6890.0 0.040827
6910.0 0.040496
6930.0 0.03973
6950.0 0.039701
6970.0 0.039168
6990.0 0.039173
7010.0 0.038529
7030.0 0.038231
7050.0 0.037961
7070.0 0.037247
7090.0 0.036257
7110.0 0.035262
7130.0 0.035254
7150.0 0.035732
7170.0 0.036024
7190.0 0.036568
7210.0 0.036943
7230.0 0.037393
7250.0 0.037701
7270.0 0.037033
7290.0 0.036758
7310.0 0.036007
7330.0 0.034528
7350.0 0.033885
7370.0 0.03347
7390.0 0.032985
7410.0 0.033175
7430.0 0.032952
7450.0 0.032408
7470.0 0.03186
7490.0 0.030865
7510.0 0.029048
7530.0 0.029704
7550.0 0.029985
7570.0 0.029352
7590.0 0.027317
7610.0 0.027851
7630.0 0.027703
7650.0 0.0278
7670.0 0.027831
7690.0 0.028348
7710.0 0.028158
7730.0 0.02923
7750.0 0.03001
7770.0 0.03134
7790.0 0.032529
7810.0 0.033351
7830.0 0.034615
7850.0 0.034532
7870.0 0.035039
7890.0 0.034536
7910.0 0.033436
7930.0 0.032933
7950.0 0.032551
7970.0 0.032275
7990.0 0.032308
8010.0 0.029411
8030.0 0.029233
8050.0 0.028647
8070.0 0.028375
8090.0 0.027531
8110.0 0.027741
8130.0 0.028122
8150.0 0.028635
8170.0 0.028365
8190.0 0.02883
8210.0 0.028451
8230.0 0.027034
8250.0 0.026596
8270.0 0.026132
8290.0 0.025684
8310.0 0.024702
8330.0 0.024985
8350.0 0.024886
8370.0 0.024933
8390.0 0.025369
8410.0 0.025209
8430.0 0.025521
8450.0 0.025818
8470.0 0.026032
8490.0 0.026358
8510.0 0.025878
8530.0 0.024946
8550.0 0.025147
8570.0 0.025158
8590.0 0.024379
8610.0 0.024895
8630.0 0.024543
8650.0 0.024063
8670.0 0.023901
8690.0 0.023849
8710.0 0.022866
8730.0 0.023227
8750.0 0.022449
8770.0 0.022356
8790.0 0.02172
8810.0 0.021448
8830.0 0.02146
8850.0 0.020529
8870.0 0.019501
8890.0 0.01925
8910.0 0.018157
8930.0 0.016769
8950.0 0.016766
8970.0 0.016174
8990.0 0.016052
9010.0 0.015901
9030.0 0.01579
9050.0 0.015679
9070.0 0.015566
9090.0 0.015452
9110.0 0.015337
9130.0 0.015222
9150.0 0.015108
9170.0 0.014993
9190.0 0.014878
9210.0 0.014763
9230.0 0.014647
9250.0 0.014532
9270.0 0.014416
9290.0 0.0143
9310.0 0.014184
9330.0 0.014069
9350.0 0.013953
9370.0 0.013838
9390.0 0.013723
9410.0 0.013609
9430.0 0.013494
9450.0 0.013381
9470.0 0.013276
9490.0 0.013166
9510.0 0.013049
9530.0 0.012934
9550.0 0.01282
9570.0 0.012709
9590.0 0.012598
9610.0 0.012488
9630.0 0.012379
9650.0 0.012271
9670.0 0.012163
9690.0 0.012057
9710.0 0.011951
9730.0 0.011846
9750.0 0.011742
9770.0 0.011639
9790.0 0.011537
9810.0 0.011436
9830.0 0.011334
9850.0 0.011218
9870.0 0.011116
9890.0 0.011028
9910.0 0.010937
9930.0 0.010827
9950.0 0.010733
9970.0 0.010647
9990.0 0.01056
10010.0 0.010471
10030.0 0.010383
10050.0 0.010295
10070.0 0.010208
10090.0 0.010122
10110.0 0.010035
10130.0 0.0099492
10150.0 0.0098662
10170.0 0.0097837
10190.0 0.0097008
10210.0 0.0096207
10230.0 0.0095421
10250.0 0.009463
10270.0 0.0093852
10290.0 0.0093099
10310.0 0.0092344
10330.0 0.0091587
10350.0 0.0090859
10370.0 0.0090142
10390.0 0.0089422
10410.0 0.0088707
10430.0 0.0088016
10450.0 0.0087343
10470.0 0.0086668
10490.0 0.0086015
10510.0 0.0085373
10530.0 0.0084717
10550.0 0.0084081
10570.0 0.0083468
10590.0 0.0082853
10610.0 0.0082241
10630.0 0.0081654
10650.0 0.0081075
10670.0 0.0080487
10690.0 0.0079918
10710.0 0.0079367
10730.0 0.0078812
10750.0 0.0078255
10770.0 0.0077731
10790.0 0.0077211
10810.0 0.0076686
10830.0 0.0076177
10850.0 0.0075689
10870.0 0.0075187
10890.0 0.0074697
10910.0 0.0074233
10930.0 0.0073778
10950.0 0.0073327
10970.0 0.0072902
10990.0 0.0072508
11010.0 0.0077298
11030.0 0.0077003
11050.0 0.0076714
11070.0 0.0076412
11090.0 0.0076075
11110.0 0.007573
11130.0 0.0075367
11150.0 0.0074967
11170.0 0.0074543
11190.0 0.0074122
11210.0 0.0073679
11230.0 0.0073215
11250.0 0.0072765
11270.0 0.0072326
11290.0 0.0071878
11310.0 0.0071443
11330.0 0.0071052
11350.0 0.007067
11370.0 0.00703
11390.0 0.0069964
11410.0 0.0069653
11430.0 0.0069337
11450.0 0.0069041
11470.0 0.0068763
11490.0 0.006848
11510.0 0.0068183
11530.0 0.0067896
11550.0 0.0067604
11570.0 0.0067284
11590.0 0.0066955
11610.0 0.0066629
11630.0 0.0066276
11650.0 0.00659
11670.0 0.0065541
11690.0 0.006518
11710.0 0.0064801
11730.0 0.006443
11750.0 0.0064084
11770.0 0.0063725
11790.0 0.0063367
11810.0 0.0063033
11830.0 0.0062708
11850.0 0.0062367
11870.0 0.006205
11890.0 0.0061759
11910.0 0.0061467
11930.0 0.0061186
11950.0 0.0060939
11970.0 0.0060709
11990.0 0.006049
12010.0 0.0060311
12030.0 0.006017
12050.0 0.0060056
12070.0 0.0059977
12090.0 0.0059949
12110.0 0.0059956
12130.0 0.0059999
12150.0 0.0060079
12170.0 0.0060193
12190.0 0.0060336
12210.0 0.0060504
12230.0 0.0060691
12250.0 0.0060893
12270.0 0.0061106
12290.0 0.0061322
12310.0 0.0061535
12330.0 0.0061747
12350.0 0.006195
12370.0 0.0062137
12390.0 0.0062309
12410.0 0.006246
12430.0 0.0062584
12450.0 0.006268
12470.0 0.0062741
12490.0 0.0062764
12510.0 0.0062752
12530.0 0.0062694
12550.0 0.0062583
12570.0 0.0062432
12590.0 0.0062238
12610.0 0.0061982
12630.0 0.0061677
12650.0 0.0061354
12670.0 0.006098
12690.0 0.0060559
12710.0 0.0060125
12730.0 0.0059673
12750.0 0.0059168
12770.0 0.0058662
12790.0 0.0058165
12810.0 0.005765
12830.0 0.0057122
12850.0 0.0056629
12870.0 0.0056149
12890.0 0.0055664
12910.0 0.0055206
12930.0 0.0054785
12950.0 0.0054367
12970.0 0.0053964
12990.0 0.0053607
13010.0 0.005327
13030.0 0.005294
13050.0 0.0052636
13070.0 0.005236
13090.0 0.0052084
13110.0 0.0051818
13130.0 0.0051572
13150.0 0.0051334
13170.0 0.0051089
13190.0 0.005086
13210.0 0.0050645
13230.0 0.0050425
13250.0 0.0050207
13270.0 0.005
13290.0 0.004979
13310.0 0.0049569
13330.0 0.0049351
13350.0 0.0049132
13370.0 0.0048897
13390.0 0.0048648
13410.0 0.0048402
13430.0 0.0048139
13450.0 0.0047855
13470.0 0.0047565
13490.0 0.0047269
13510.0 0.0046942
13530.0 0.0046606
13550.0 0.0046271
13570.0 0.0045922
13590.0 0.0045554
13610.0 0.0045187
13630.0 0.0044823
13650.0 0.0044437
13670.0 0.0044047
13690.0 0.0043663
13710.0 0.0043269
13730.0 0.0042853
13750.0 0.0042455
13770.0 0.0042056
13790.0 0.0041643
13810.0 0.0041231
13830.0 0.0040834
13850.0 0.0040425
13870.0 0.0040011
13890.0 0.0039612
13910.0 0.0039219
13930.0 0.0038817
13950.0 0.0038421
13970.0 0.0038049
13990.0 0.0037672
14010.0 0.0037296
14030.0 0.0036936
14050.0 0.0036584
14070.0 0.0036221
14090.0 0.0035871
14110.0 0.0035534
14130.0 0.0035193
14150.0 0.0034849
14170.0 0.0034522
14190.0 0.0034197
14210.0 0.0033866
14230.0 0.0033542
14250.0 0.0033229
14270.0 0.0032911
14290.0 0.0032593
14310.0 0.0032294
14330.0 0.0032
14350.0 0.0031706
14370.0 0.0031425
14390.0 0.0031159
14410.0 0.0030893
14430.0 0.0030636
14450.0 0.0030392
14470.0 0.0030156
14490.0 0.0029918
14510.0 0.0029692
14530.0 0.0029475
14550.0 0.0029257
14570.0 0.0029041
14590.0 0.0028833
14610.0 0.0028624
14630.0 0.0028412
14650.0 0.0028206
14670.0 0.0028002
14690.0 0.0027796
14710.0 0.002759
14730.0 0.0027393
14750.0 0.0027196
14770.0 0.0026997
14790.0 0.0026804
14810.0 0.0026617
14830.0 0.0026425
14850.0 0.0026237
14870.0 0.0026056
14890.0 0.0025875
14910.0 0.0025693
14930.0 0.0025519
14950.0 0.0025349
14970.0 0.0025181
14990.0 0.0025019
15010.0 0.0024866
15030.0 0.0024718
15050.0 0.0024573
15070.0 0.0024436
15090.0 0.0024304
15110.0 0.0024172
15130.0 0.0024042
15150.0 0.0023916
15170.0 0.0023789
15190.0 0.0023662
15210.0 0.0023537
15230.0 0.0023412
15250.0 0.0023287
15270.0 0.0023162
15290.0 0.002304
15310.0 0.0022918
15330.0 0.0022795
15350.0 0.0022675
15370.0 0.0022555
15390.0 0.0022434
15410.0 0.0022314
15430.0 0.0022197
15450.0 0.0022079
15470.0 0.0021961
15490.0 0.0021846
15510.0 0.0021731
15530.0 0.0021616
15550.0 0.0021502
15570.0 0.002139
15590.0 0.0021277
15610.0 0.0021164
15630.0 0.0021055
15650.0 0.0020945
15670.0 0.0020835
15690.0 0.0020727
15710.0 0.0020622
15730.0 0.0020515
15750.0 0.0020408
15770.0 0.0020304
15790.0 0.0020201
15810.0 0.0020096
15830.0 0.0019994
15850.0 0.0019894
15870.0 0.0019794
15890.0 0.0019693
15910.0 0.0019596
15930.0 0.0019499
15950.0 0.00194
15970.0 0.0019305
15990.0 0.0019211
16010.0 0.0019116
16030.0 0.0019021
16050.0 0.001893
16070.0 0.0018839
16090.0 0.0018747
16110.0 0.0018658
16130.0 0.001857
16150.0 0.0018481
16170.0 0.0018393
16190.0 0.0018307
16210.0 0.0018222
16230.0 0.0018136
16250.0 0.0018053
16270.0 0.0017971
16290.0 0.0017889
16310.0 0.0017807
16330.0 0.0017728
16350.0 0.0017648
16370.0 0.0017567
16390.0 0.001749
16410.0 0.0017414
16430.0 0.0017337
16450.0 0.0017261
16470.0 0.0017188
16490.0 0.0017114
16510.0 0.001704
16530.0 0.0016968
16550.0 0.0016898
16570.0 0.0016826
16590.0 0.0016755
16610.0 0.0016687
16630.0 0.0016619
16650.0 0.001655
16670.0 0.0016484
16690.0 0.0016419
16710.0 0.0016351
16730.0 0.0016286
16750.0 0.0016223
16770.0 0.001616
16790.0 0.0016096
16810.0 0.0016035
16830.0 0.0015974
16850.0 0.0015912
16870.0 0.0015852
16890.0 0.0015794
16910.0 0.0015734
16930.0 0.0015675
16950.0 0.0015618
16970.0 0.0015562
16990.0 0.0015504
17010.0 0.0015449
17030.0 0.0015395
17050.0 0.001534
17070.0 0.0015285
17090.0 0.0015232
17110.0 0.001518
17130.0 0.0015126
17150.0 0.0015074
17170.0 0.0015024
17190.0 0.0014972
17210.0 0.0014922
17230.0 0.0014873
17250.0 0.0014824
17270.0 0.0014773
17290.0 0.0014725
17310.0 0.0014678
17330.0 0.001463
17350.0 0.0014582
17370.0 0.0014536
17390.0 0.001449
17410.0 0.0014444
17430.0 0.0014399
17450.0 0.0014355
17470.0 0.0014308
17490.0 0.0014264
17510.0 0.0014221
17530.0 0.0014177
17550.0 0.0014133
17570.0 0.001409
17590.0 0.0014049
17610.0 0.0014005
17630.0 0.0013963
17650.0 0.0013922
17670.0 0.0013881
17690.0 0.0013838
17710.0 0.0013798
17730.0 0.0013758
17750.0 0.0013717
17770.0 0.0013676
17790.0 0.0013638
17810.0 0.0013597
17830.0 0.0013557
17850.0 0.0013518
17870.0 0.001348
17890.0 0.0013439
17910.0 0.00134
17930.0 0.0013363
17950.0 0.0013324
17970.0 0.0013285
17990.0 0.0013248
18010.0 0.0013211
18030.0 0.0013171
18050.0 0.0013133
18070.0 0.0013096
18090.0 0.0013058
18110.0 0.001302
18130.0 0.0012983
18150.0 0.0012946
18170.0 0.0012908
18190.0 0.0012871
18210.0 0.0012835
18230.0 0.0012797
18250.0 0.0012758
18270.0 0.0012722
18290.0 0.0012686
18310.0 0.0012647
18330.0 0.0012611
18350.0 0.0012575
18370.0 0.0012537
18390.0 0.0012499
18410.0 0.0012463
18430.0 0.0012426
18450.0 0.0012387
18470.0 0.001235
18490.0 0.0012313
18510.0 0.0012275
18530.0 0.0012237
18550.0 0.0012201
18570.0 0.0012163
18590.0 0.0012124
18610.0 0.0012086
18630.0 0.0012049
18650.0 0.001201
18670.0 0.0011971
18690.0 0.0011934
18710.0 0.0011896
18730.0 0.0011856
18750.0 0.0011818
18770.0 0.001178
18790.0 0.0011739
18810.0 0.00117
18830.0 0.0011661
18850.0 0.0011622
18870.0 0.0011581
18890.0 0.0011542
18910.0 0.0011503
18930.0 0.0011462
18950.0 0.0011421
18970.0 0.0011381
18990.0 0.001134
19010.0 0.0011297
19030.0 0.0011257
19050.0 0.0011216
19070.0 0.0011174
19090.0 0.0011132
19110.0 0.0011091
19130.0 0.0011048
19150.0 0.0011004
19170.0 0.0010962
19190.0 0.001092
19210.0 0.0010875
19230.0 0.0010831
19250.0 0.0010789
19270.0 0.0010745
19290.0 0.00107
19310.0 0.0010656
19330.0 0.0010612
19350.0 0.0010565
19370.0 0.001052
19390.0 0.0010476
19410.0 0.0010429
19430.0 0.0010382
19450.0 0.0010337
19470.0 0.0010291
19490.0 0.0010243
19510.0 0.0010196
19530.0 0.001015
19550.0 0.0010102
19570.0 0.0010053
19590.0 0.0010006
19610.0 0.00099576
19630.0 0.0009908
19650.0 0.00098596
19670.0 0.00098117
19690.0 0.00097613
19710.0 0.00097111
19730.0 0.00096621
19750.0 0.00096121
19770.0 0.00095599
19790.0 0.00095098
19810.0 0.00094599
19830.0 0.00094081
19850.0 0.00093564
19870.0 0.00093063
19890.0 0.00092544
19910.0 0.00092013
19930.0 0.00091503
19950.0 0.00090998
19970.0 0.00090484
19990.0 0.00089979
20010.0 0.00089503
20030.0 0.00089022
20050.0 0.00088541
20070.0 0.00088079
20090.0 0.00087623
20110.0 0.00087145
20130.0 0.00086678
20150.0 0.00086222
20170.0 0.00085754
20190.0 0.00085278
20210.0 0.00084817
20230.0 0.00084355
20250.0 0.00083879
20270.0 0.00083415
20290.0 0.00082964
20310.0 0.00082509
20330.0 0.00082051
20350.0 0.00081625
20370.0 0.00081204
20390.0 0.00080786
20410.0 0.00080386
20430.0 0.00080008
20450.0 0.0007963
20470.0 0.00079268
20490.0 0.00078931
20510.0 0.00078609
20530.0 0.00078299
20550.0 0.00078013
20570.0 0.00077751
20590.0 0.00077504
20610.0 0.00077279
20630.0 0.00077078
20650.0 0.00076897
20670.0 0.00076737
20690.0 0.00076597
20710.0 0.00076474
20730.0 0.00076368
20750.0 0.00076275
20770.0 0.00076187
20790.0 0.00076104
20810.0 0.00076025
20830.0 0.00075938
20850.0 0.0007584
20870.0 0.00075732
20890.0 0.00075604
20910.0 0.0007545
20930.0 0.0007527
20950.0 0.0007506
20970.0 0.00074819
20990.0 0.00074545
21010.0 0.00074232
21030.0 0.00073884
21050.0 0.00073507
21070.0 0.00073094
21090.0 0.00072641
21110.0 0.00072172
21130.0 0.00071681
21150.0 0.00071158
21170.0 0.0007062
21190.0 0.00070081
21210.0 0.00069519
21230.0 0.00068942
21250.0 0.00068375
21270.0 0.00067808
21290.0 0.00067229
21310.0 0.00066655
21330.0 0.00066098
21350.0 0.00065531
21370.0 0.00064961
21390.0 0.00064403
21410.0 0.00063846
21430.0 0.00063267
21450.0 0.00062697
21470.0 0.00062134
21490.0 0.00061555
21510.0 0.00060964
21530.0 0.00060383
21550.0 0.00059793
21570.0 0.00059182
21590.0 0.00058574
21610.0 0.00057971
21630.0 0.00057353
21650.0 0.0005672
21670.0 0.00056115
21690.0 0.00055505
21710.0 0.00054886
21730.0 0.00054279
21750.0 0.00053691
21770.0 0.00053087
21790.0 0.00052493
21810.0 0.00051922
21830.0 0.00051355
21850.0 0.00050786
21870.0 0.00050235
21890.0 0.00049704
21910.0 0.00049166
21930.0 0.00048637
21950.0 0.00048125
21970.0 0.00047613
21990.0 0.00047092
22010.0 0.00046588
22030.0 0.00046091
22050.0 0.00045584
22070.0 0.00045076
22090.0 0.00044582
22110.0 0.00044079
22130.0 0.00043565
22150.0 0.00043059
22170.0 0.00042555
22190.0 0.00042033
22210.0 0.0004151
22230.0 0.00041002
22250.0 0.00040486
22270.0 0.00039962
22290.0 0.00039449
22310.0 0.00038943
22330.0 0.00038421
22350.0 0.00037909
22370.0 0.00037411
22390.0 0.00036912
22410.0 0.00036408
22430.0 0.00035929
22450.0 0.00035459
22470.0 0.00034988
22490.0 0.0003453
22510.0 0.00034093
22530.0 0.00033656
22550.0 0.00033225
22570.0 0.0003282
22590.0 0.00032426
22610.0 0.00032036
22630.0 0.00031661
22650.0 0.00031307
22670.0 0.00030956
22690.0 0.00030614
22710.0 0.00030289
22730.0 0.00029974
22750.0 0.00029658
22770.0 0.00029358
22790.0 0.00029073
22810.0 0.00028791
22830.0 0.00028517
22850.0 0.00028259
22870.0 0.00028009
22890.0 0.00027764
22910.0 0.00027533
22930.0 0.00027317
22950.0 0.00027108
22970.0 0.0002691
22990.0 0.00026732
23010.0 0.00026565
23030.0 0.0002641
23050.0 0.00026272
23070.0 0.00026149
23090.0 0.00026039
23110.0 0.00025946
23130.0 0.00025868
23150.0 0.00025806
23170.0 0.0002576
23190.0 0.00025728
23210.0 0.00025708
23230.0 0.00025704
23250.0 0.00025712
23270.0 0.00025726
23290.0 0.0002575
23310.0 0.00025785
23330.0 0.00025819
23350.0 0.00025853
23370.0 0.00025889
23390.0 0.00025922
23410.0 0.00025946
23430.0 0.00025966
23450.0 0.00026029
23470.0 0.00026094
23490.0 0.00026154
23510.0 0.00026212
23530.0 0.00026267
23550.0 0.00026322
23570.0 0.00026379
23590.0 0.00026443
23610.0 0.00026514
23630.0 0.00026595
23650.0 0.00026692
23670.0 0.00026803
23690.0 0.00026928
23710.0 0.00027071
23730.0 0.00027235
23750.0 0.00027409
23770.0 0.00027598
23790.0 0.00027807
23810.0 0.00028031
23830.0 0.00028265
23850.0 0.00028524
23870.0 0.00028805
23890.0 0.00029098
23910.0 0.00029413
23930.0 0.00029761
23950.0 0.00030128
23970.0 0.00030504
23990.0 0.00030911
24010.0 0.00031333
24030.0 0.00031753
24050.0 0.00032177
24070.0 0.00032614
24090.0 0.00033028
