#lamb flux
1010.0 8.1595e-07
1030.0 9.1856e-07
1050.0 1.0296e-06
1070.0 1.1553e-06
1090.0 1.301e-06
1110.0 1.4512e-06
1130.0 1.6037e-06
1150.0 1.7649e-06
1170.0 1.9332e-06
1190.0 2.0961e-06
1210.0 2.2644e-06
1230.0 2.4418e-06
1250.0 2.6199e-06
1270.0 2.7984e-06
1290.0 2.9911e-06
1310.0 3.1895e-06
1330.0 3.3868e-06
1350.0 3.5917e-06
1370.0 3.8077e-06
1390.0 4.0249e-06
1410.0 4.2418e-06
1430.0 4.471e-06
1450.0 4.7042e-06
1470.0 4.9347e-06
1490.0 5.1699e-06
1510.0 5.4173e-06
1530.0 5.656e-06
1550.0 5.8927e-06
1570.0 6.1355e-06
1590.0 6.3773e-06
1610.0 6.6084e-06
1630.0 6.8413e-06
1650.0 7.0754e-06
1670.0 7.2981e-06
1690.0 7.5124e-06
1710.0 7.7272e-06
1730.0 7.9356e-06
1750.0 8.1234e-06
1770.0 8.3076e-06
1790.0 8.4859e-06
1810.0 8.6473e-06
1830.0 8.7945e-06
1850.0 8.942e-06
1870.0 9.0728e-06
1890.0 9.1854e-06
1910.0 9.2901e-06
1930.0 9.3873e-06
1950.0 9.4639e-06
1970.0 9.5267e-06
1990.0 9.5843e-06
2010.0 9.6267e-06
2030.0 9.651e-06
2050.0 9.6682e-06
2070.0 9.6772e-06
2090.0 9.6639e-06
2110.0 9.6376e-06
2130.0 9.6031e-06
2150.0 9.5524e-06
2170.0 9.4822e-06
2190.0 9.4045e-06
2210.0 9.3145e-06
2230.0 9.206e-06
2250.0 9.0846e-06
2270.0 8.9569e-06
2290.0 8.8133e-06
2310.0 8.6538e-06
2330.0 8.4878e-06
2350.0 8.313e-06
2370.0 8.1244e-06
2390.0 7.9283e-06
2410.0 7.7276e-06
2430.0 7.5136e-06
2450.0 7.2867e-06
2470.0 7.0494e-06
2490.0 6.7996e-06
2510.0 6.5383e-06
2530.0 6.2797e-06
2550.0 6.0445e-06
2570.0 5.859e-06
2590.0 5.7509e-06
2610.0 5.7745e-06
2630.0 5.9454e-06
2650.0 6.2345e-06
2670.0 6.64e-06
2690.0 7.1304e-06
2710.0 7.592e-06
2730.0 7.9667e-06
2750.0 8.2542e-06
2770.0 8.3802e-06
2790.0 8.329e-06
2810.0 8.1321e-06
2830.0 7.8019e-06
2850.0 7.3608e-06
2870.0 6.8492e-06
2890.0 6.2821e-06
2910.0 5.6822e-06
2930.0 5.0766e-06
2950.0 4.4541e-06
2970.0 3.8221e-06
2990.0 3.202e-06
3010.0 5.8285e-06
3030.0 4.4321e-06
3050.0 3.038e-06
3070.0 1.6836e-06
3090.0 1.2679e-06
3110.0 1.2679e-06
3130.0 1.2679e-06
3150.0 1.2679e-06
3170.0 1.2679e-06
3190.0 1.2679e-06
3210.0 5.3317e-06
3230.0 2.488e-05
3250.0 4.9683e-05
3270.0 5.4019e-05
3290.0 6.6805e-05
3310.0 5.63e-05
3330.0 5.7979e-05
3350.0 6.414e-05
3370.0 7.2583e-05
3390.0 8.2316e-05
3410.0 9.2691e-05
3430.0 0.00010533
3450.0 0.00011868
3470.0 0.00013275
3490.0 0.00014323
3510.0 0.00014851
3530.0 0.00015705
3550.0 0.00016123
3570.0 0.00015703
3590.0 0.00016552
3610.0 0.00015828
3630.0 0.0001939
3650.0 0.00021958
3670.0 0.00023557
3690.0 0.000217
3710.0 0.0001709
3730.0 0.00015499
3750.0 0.00013528
3770.0 0.00012013
3790.0 0.00010521
3810.0 0.00010265
3830.0 0.00012632
3850.0 4.9929e-05
3870.0 0.00011656
3890.0 0.00014179
3910.0 0.00015065
3930.0 0.00017924
3950.0 0.00019502
3970.0 0.00023196
3990.0 0.00028684
4010.0 0.00020085
4030.0 0.00016193
4050.0 0.00013425
4070.0 0.00014508
4090.0 0.00022595
4110.0 0.00020909
4130.0 0.00022107
4150.0 0.00020681
4170.0 0.00019803
4190.0 0.00018246
4210.0 0.00027129
4230.0 0.00028242
4250.0 0.00030368
4270.0 0.00028343
4290.0 0.00029241
4310.0 0.0003337
4330.0 0.00039013
4350.0 0.00038213
4370.0 0.00036598
4390.0 0.00031955
4410.0 0.00029666
4430.0 0.00023736
4450.0 0.00020485
4470.0 0.00023174
4490.0 0.00028034
4510.0 0.00029129
4530.0 0.00030855
4550.0 0.0003294
4570.0 0.00045494
4590.0 0.00066131
4610.0 0.00078653
4630.0 0.00078469
4650.0 0.00079286
4670.0 0.00088522
4690.0 0.00097309
4710.0 0.00079697
4730.0 0.00060498
4750.0 0.00048543
4770.0 0.00043953
4790.0 0.00042397
4810.0 0.00040581
4830.0 0.00044593
4850.0 0.00051094
4870.0 0.00056313
4890.0 0.00057775
4910.0 0.00052051
4930.0 0.00054792
4950.0 0.00068426
4970.0 0.00083714
4990.0 0.00087661
5010.0 0.0008042
5030.0 0.00066332
5050.0 0.00049954
5070.0 0.00039522
5090.0 0.00035462
5110.0 0.00034617
5130.0 0.00035469
5150.0 0.00035409
5170.0 0.00034678
5190.0 0.00033097
5210.0 0.00032535
5230.0 0.00036037
5250.0 0.00040505
5270.0 0.0004829
5290.0 0.00056325
5310.0 0.00058671
5330.0 0.00062427
5350.0 0.00069608
5370.0 0.00074869
5390.0 0.00068859
5410.0 0.0006111
5430.0 0.00058824
5450.0 0.00067967
5470.0 0.00085543
5490.0 0.001023
5510.0 0.0011036
5530.0 0.0010954
5550.0 0.0010456
5570.0 0.0010152
5590.0 0.0009888
5610.0 0.0009881
5630.0 0.00098663
5650.0 0.00098759
5670.0 0.00099357
5690.0 0.00093475
5710.0 0.0007933
5730.0 0.00069944
5750.0 0.00065063
5770.0 0.00066463
5790.0 0.00069789
5810.0 0.00074066
5830.0 0.00076426
5850.0 0.00073603
5870.0 0.00068877
5890.0 0.000648
5910.0 0.00066631
5930.0 0.00071404
5950.0 0.00068663
5970.0 0.00061879
5990.0 0.00052816
6010.0 0.00043046
6030.0 0.000383
6050.0 0.00040321
6070.0 0.00043907
6090.0 0.00043904
6110.0 0.00038891
6130.0 0.00038487
6150.0 0.00043928
6170.0 0.00051496
6190.0 0.00058348
6210.0 0.000594
6230.0 0.00057744
6250.0 0.00053028
6270.0 0.00045155
6290.0 0.0003762
6310.0 0.00032798
6330.0 0.00031508
6350.0 0.00032556
6370.0 0.00032785
6390.0 0.00035289
6410.0 0.00042824
6430.0 0.00054257
6450.0 0.00063952
6470.0 0.00067385
6490.0 0.00066064
6510.0 0.0006728
6530.0 0.00070172
6550.0 0.00069554
6570.0 0.00071856
6590.0 0.0007281
6610.0 0.0007379
6630.0 0.00074083
6650.0 0.00070892
6670.0 0.00065259
6690.0 0.00058052
6710.0 0.0005326
6730.0 0.00053395
6750.0 0.00056052
6770.0 0.00058124
6790.0 0.00059529
6810.0 0.00060223
6830.0 0.00058975
6850.0 0.00056907
6870.0 0.00053489
6890.0 0.00052041
6910.0 0.00049462
6930.0 0.00050492
6950.0 0.00054241
6970.0 0.0005617
6990.0 0.00057813
7010.0 0.00056805
7030.0 0.0005267
7050.0 0.00046347
7070.0 0.00039829
7090.0 0.00035603
7110.0 0.00035009
7130.0 0.00035798
7150.0 0.00033362
7170.0 0.00031174
7190.0 0.00032687
7210.0 0.00036718
7230.0 0.00042608
7250.0 0.00046296
7270.0 0.00046747
7290.0 0.00043016
7310.0 0.00039104
7330.0 0.00036752
7350.0 0.00036609
7370.0 0.00037497
7390.0 0.00039012
7410.0 0.00042539
7430.0 0.00049337
7450.0 0.00056628
7470.0 0.00061319
7490.0 0.0006168
7510.0 0.00058359
7530.0 0.00048664
7550.0 0.00042627
7570.0 0.00036946
7590.0 0.00034095
7610.0 0.00035472
7630.0 0.00039394
7650.0 0.00044195
7670.0 0.00048615
7690.0 0.000514
7710.0 0.00054589
7730.0 0.00058063
7750.0 0.00061128
7770.0 0.00060667
7790.0 0.00060688
7810.0 0.0006208
7830.0 0.00063108
7850.0 0.00061363
7870.0 0.00058818
7890.0 0.00057565
7910.0 0.00054516
7930.0 0.00053519
7950.0 0.00050911
7970.0 0.00049853
7990.0 0.00048594
8010.0 0.00050347
8030.0 0.00050645
8050.0 0.0005122
8070.0 0.00050626
8090.0 0.00050344
8110.0 0.00048189
8130.0 0.0004789
8150.0 0.00046952
8170.0 0.00045592
8190.0 0.0004473
8210.0 0.00044823
8230.0 0.00043247
8250.0 0.00041608
8270.0 0.00036917
8290.0 0.00029707
8310.0 0.0002209
8330.0 0.00016713
8350.0 0.00015306
8370.0 0.00018171
8390.0 0.00022065
8410.0 0.00024169
8430.0 0.00025278
8450.0 0.00026487
8470.0 0.00028021
8490.0 0.00031218
8510.0 0.00035498
8530.0 0.00041158
8550.0 0.00047133
8570.0 0.00052397
8590.0 0.00056541
8610.0 0.00059287
8630.0 0.00060178
8650.0 0.00059958
8670.0 0.00059913
8690.0 0.00062364
8710.0 0.00065333
8730.0 0.0006767
8750.0 0.00067154
8770.0 0.00067788
8790.0 0.00067169
8810.0 0.00062755
8830.0 0.00059798
8850.0 0.00055602
8870.0 0.00052201
8890.0 0.00050682
8910.0 0.00051074
8930.0 0.00048333
8950.0 0.00045642
8970.0 0.00044531
8990.0 0.00043886
9010.0 0.00042258
9030.0 0.00041294
9050.0 0.00040991
9070.0 0.00040849
9090.0 0.00040722
9110.0 0.000406
9130.0 0.00040474
9150.0 0.00040348
9170.0 0.00040196
9190.0 0.00040057
9210.0 0.00040156
9230.0 0.00039952
9250.0 0.00039785
9270.0 0.00039635
9290.0 0.00039498
9310.0 0.00039364
9330.0 0.00039234
9350.0 0.00039112
9370.0 0.0003899
9390.0 0.00038865
9410.0 0.00038743
9430.0 0.00038619
9450.0 0.00038458
9470.0 0.00038309
9490.0 0.00038223
9510.0 0.00038118
9530.0 0.00038007
9550.0 0.00037894
9570.0 0.00037778
9590.0 0.0003766
9610.0 0.00037541
9630.0 0.00037423
9650.0 0.00037304
9670.0 0.00037185
9690.0 0.00037066
9710.0 0.00036948
9730.0 0.00036829
9750.0 0.0003671
9770.0 0.00036592
9790.0 0.00036473
9810.0 0.00036354
9830.0 0.00036235
9850.0 0.00036116
9870.0 0.00035996
9890.0 0.00035875
9910.0 0.00035755
9930.0 0.0003563
9950.0 0.00035217
9970.0 0.00035181
9990.0 0.00035129
10010.0 0.00035065
10030.0 0.00034978
10050.0 0.0003487
10070.0 0.00034756
10090.0 0.00034645
10110.0 0.00034515
10130.0 0.00034395
10150.0 0.00034271
10170.0 0.00034137
10190.0 0.00033993
10210.0 0.0003386
10230.0 0.00033731
10250.0 0.0003359
10270.0 0.0003345
10290.0 0.00033318
10310.0 0.00033175
10330.0 0.00033022
10350.0 0.0003288
10370.0 0.00032737
10390.0 0.00032583
10410.0 0.00032428
10430.0 0.00032284
10450.0 0.00032127
10470.0 0.00031963
10490.0 0.00031807
10510.0 0.0003165
10530.0 0.00031473
10550.0 0.00031302
10570.0 0.0003114
10590.0 0.00030965
10610.0 0.00030783
10630.0 0.00030611
10650.0 0.00030434
10670.0 0.00030241
10690.0 0.00030052
10710.0 0.00029868
10730.0 0.00029671
10750.0 0.00029462
10770.0 0.0002927
10790.0 0.00029071
10810.0 0.00028858
10830.0 0.00028648
10850.0 0.00028445
10870.0 0.00028219
10890.0 0.00027988
10910.0 0.00027762
10930.0 0.00027525
10950.0 0.00027262
10970.0 0.00026993
10990.0 0.00026721
11010.0 0.00026796
11030.0 0.00026457
11050.0 0.00026129
11070.0 0.00025796
11090.0 0.00025444
11110.0 0.00025124
11130.0 0.00024819
11150.0 0.00024511
11170.0 0.00024213
11190.0 0.00023939
11210.0 0.00023663
11230.0 0.00023383
11250.0 0.00023117
11270.0 0.00022859
11290.0 0.00022589
11310.0 0.0002232
11330.0 0.0002207
11350.0 0.00021812
11370.0 0.00021545
11390.0 0.00021286
11410.0 0.00021027
11430.0 0.00020744
11450.0 0.00020457
11470.0 0.00020171
11490.0 0.00019865
11510.0 0.00019533
11530.0 0.00019204
11550.0 0.00018864
11570.0 0.00018495
11590.0 0.00018117
11610.0 0.00017743
11630.0 0.00017346
11650.0 0.00016931
11670.0 0.00016533
11690.0 0.00016136
11710.0 0.00015727
11730.0 0.00015329
11750.0 0.00014956
11770.0 0.00014578
11790.0 0.00014206
11810.0 0.00013861
11830.0 0.00013531
11850.0 0.00013197
11870.0 0.00012889
11890.0 0.00012604
11910.0 0.00012324
11930.0 0.00012054
11950.0 0.00011806
11970.0 0.00011566
11990.0 0.00011327
12010.0 0.00011105
12030.0 0.00010897
12050.0 0.00010693
12070.0 0.00010496
12090.0 0.00010322
12110.0 0.00010157
12130.0 0.00010001
12150.0 9.8631e-05
12170.0 9.7438e-05
12190.0 9.6341e-05
12210.0 9.5441e-05
12230.0 9.4756e-05
12250.0 9.4251e-05
12270.0 9.3937e-05
12290.0 9.3839e-05
12310.0 9.3937e-05
12330.0 9.4247e-05
12350.0 9.4769e-05
12370.0 9.5466e-05
12390.0 9.6362e-05
12410.0 9.7511e-05
12430.0 9.8772e-05
12450.0 0.00010017
12470.0 0.00010175
12490.0 0.00010344
12510.0 0.00010514
12530.0 0.00010693
12550.0 0.00010877
12570.0 0.00011053
12590.0 0.00011218
12610.0 0.00011379
12630.0 0.00011523
12650.0 0.0001164
12670.0 0.00011738
12690.0 0.00011812
12710.0 0.00011856
12730.0 0.00011874
12750.0 0.00011864
12770.0 0.00011826
12790.0 0.00011764
12810.0 0.00011678
12830.0 0.0001157
12850.0 0.0001145
12870.0 0.00011318
12890.0 0.00011173
12910.0 0.00011024
12930.0 0.00010877
12950.0 0.00010724
12970.0 0.00010571
12990.0 0.00010428
13010.0 0.00010289
13030.0 0.00010149
13050.0 0.00010017
13070.0 9.8917e-05
13090.0 9.7653e-05
13110.0 9.6401e-05
13130.0 9.5203e-05
13150.0 9.4016e-05
13170.0 9.2784e-05
13190.0 9.1602e-05
13210.0 9.047e-05
13230.0 8.9335e-05
13250.0 8.8236e-05
13270.0 8.7236e-05
13290.0 8.6302e-05
13310.0 8.5439e-05
13330.0 8.4719e-05
13350.0 8.4139e-05
13370.0 8.3686e-05
13390.0 8.3379e-05
13410.0 8.3214e-05
13430.0 8.3158e-05
13450.0 8.3197e-05
13470.0 8.3288e-05
13490.0 8.3392e-05
13510.0 8.3485e-05
13530.0 8.3507e-05
13550.0 8.3426e-05
13570.0 8.3217e-05
13590.0 8.2845e-05
13610.0 8.2315e-05
13630.0 8.164e-05
13650.0 8.0783e-05
13670.0 7.9787e-05
13690.0 7.8712e-05
13710.0 7.7538e-05
13730.0 7.6254e-05
13750.0 7.5019e-05
13770.0 7.3807e-05
13790.0 7.2599e-05
13810.0 7.1463e-05
13830.0 7.045e-05
13850.0 6.9497e-05
13870.0 6.8629e-05
13890.0 6.7889e-05
13910.0 6.7248e-05
13930.0 6.6676e-05
13950.0 6.6192e-05
13970.0 6.5796e-05
13990.0 6.5445e-05
14010.0 6.5134e-05
14030.0 6.4863e-05
14050.0 6.4612e-05
14070.0 6.4358e-05
14090.0 6.4105e-05
14110.0 6.3843e-05
14130.0 6.3553e-05
14150.0 6.3226e-05
14170.0 6.2877e-05
14190.0 6.2495e-05
14210.0 6.2065e-05
14230.0 6.161e-05
14250.0 6.1145e-05
14270.0 6.0647e-05
14290.0 6.0137e-05
14310.0 5.9658e-05
14330.0 5.9195e-05
14350.0 5.8751e-05
14370.0 5.8357e-05
14390.0 5.8019e-05
14410.0 5.772e-05
14430.0 5.7476e-05
14450.0 5.729e-05
14470.0 5.7151e-05
14490.0 5.7055e-05
14510.0 5.7001e-05
14530.0 5.698e-05
14550.0 5.699e-05
14570.0 5.7028e-05
14590.0 5.7091e-05
14610.0 5.7184e-05
14630.0 5.7318e-05
14650.0 5.7485e-05
14670.0 5.7691e-05
14690.0 5.7953e-05
14710.0 5.8277e-05
14730.0 5.8634e-05
14750.0 5.9057e-05
14770.0 5.9556e-05
14790.0 6.0106e-05
14810.0 6.0708e-05
14830.0 6.1427e-05
14850.0 6.2217e-05
14870.0 6.3054e-05
14890.0 6.3977e-05
14910.0 6.4985e-05
14930.0 6.5983e-05
14950.0 6.6945e-05
14970.0 6.7887e-05
14990.0 6.8705e-05
15010.0 6.9354e-05
15030.0 6.9857e-05
15050.0 7.0215e-05
15070.0 7.0415e-05
15090.0 7.0518e-05
15110.0 7.0553e-05
15130.0 7.0543e-05
15150.0 7.0509e-05
15170.0 7.0462e-05
15190.0 7.0409e-05
15210.0 7.0355e-05
15230.0 7.03e-05
15250.0 7.0245e-05
15270.0 7.019e-05
15290.0 7.0136e-05
15310.0 7.0082e-05
15330.0 7.0028e-05
15350.0 6.9976e-05
15370.0 6.9923e-05
15390.0 6.987e-05
15410.0 6.9817e-05
15430.0 6.9766e-05
15450.0 6.9714e-05
15470.0 6.9661e-05
15490.0 6.961e-05
15510.0 6.956e-05
15530.0 6.9508e-05
15550.0 6.9457e-05
15570.0 6.9407e-05
15590.0 6.9356e-05
15610.0 6.9305e-05
15630.0 6.9255e-05
15650.0 6.9205e-05
15670.0 6.9154e-05
15690.0 6.9104e-05
15710.0 6.9055e-05
15730.0 6.9004e-05
15750.0 6.8954e-05
15770.0 6.8904e-05
15790.0 6.8854e-05
15810.0 6.8803e-05
15830.0 6.8752e-05
15850.0 6.8703e-05
15870.0 6.8652e-05
15890.0 6.8601e-05
15910.0 6.8551e-05
15930.0 6.85e-05
15950.0 6.8448e-05
15970.0 6.8397e-05
15990.0 6.8346e-05
16010.0 6.8293e-05
16030.0 6.8241e-05
16050.0 6.8189e-05
16070.0 6.8137e-05
16090.0 6.8083e-05
16110.0 6.803e-05
16130.0 6.7978e-05
16150.0 6.7922e-05
16170.0 6.7868e-05
16190.0 6.7814e-05
16210.0 6.7758e-05
16230.0 6.7702e-05
16250.0 6.7646e-05
16270.0 6.759e-05
16290.0 6.7533e-05
16310.0 6.7475e-05
16330.0 6.7418e-05
16350.0 6.7359e-05
16370.0 6.7298e-05
16390.0 6.7239e-05
16410.0 6.7179e-05
16430.0 6.7117e-05
16450.0 6.7055e-05
16470.0 6.6994e-05
16490.0 6.693e-05
16510.0 6.6866e-05
16530.0 6.6801e-05
16550.0 6.6737e-05
16570.0 6.667e-05
16590.0 6.6602e-05
16610.0 6.6535e-05
16630.0 6.6467e-05
16650.0 6.6397e-05
16670.0 6.6327e-05
16690.0 6.6257e-05
16710.0 6.6183e-05
16730.0 6.611e-05
16750.0 6.6037e-05
16770.0 6.5962e-05
16790.0 6.5885e-05
16810.0 6.5809e-05
16830.0 6.5732e-05
16850.0 6.5652e-05
16870.0 6.5572e-05
16890.0 6.5492e-05
16910.0 6.5409e-05
16930.0 6.5325e-05
16950.0 6.5242e-05
16970.0 6.5156e-05
16990.0 6.5069e-05
17010.0 6.4982e-05
17030.0 6.4894e-05
17050.0 6.4803e-05
17070.0 6.4712e-05
17090.0 6.462e-05
17110.0 6.4526e-05
17130.0 6.443e-05
17150.0 6.4334e-05
17170.0 6.4238e-05
17190.0 6.4139e-05
17210.0 6.4039e-05
17230.0 6.3938e-05
17250.0 6.3836e-05
17270.0 6.3731e-05
17290.0 6.3627e-05
17310.0 6.3521e-05
17330.0 6.3413e-05
17350.0 6.3303e-05
17370.0 6.3194e-05
17390.0 6.3082e-05
17410.0 6.2969e-05
17430.0 6.2855e-05
17450.0 6.274e-05
17470.0 6.2622e-05
17490.0 6.2503e-05
17510.0 6.2384e-05
17530.0 6.2263e-05
17550.0 6.214e-05
17570.0 6.2017e-05
17590.0 6.1892e-05
17610.0 6.1765e-05
17630.0 6.1637e-05
17650.0 6.1509e-05
17670.0 6.1378e-05
17690.0 6.1245e-05
17710.0 6.1113e-05
17730.0 6.0979e-05
17750.0 6.0843e-05
17770.0 6.0706e-05
17790.0 6.0568e-05
17810.0 6.0428e-05
17830.0 6.0287e-05
17850.0 6.0145e-05
17870.0 6.0002e-05
17890.0 5.9857e-05
17910.0 5.971e-05
17930.0 5.9564e-05
17950.0 5.9416e-05
17970.0 5.9266e-05
17990.0 5.9115e-05
18010.0 5.8964e-05
18030.0 5.881e-05
18050.0 5.8656e-05
18070.0 5.8501e-05
18090.0 5.8344e-05
18110.0 5.8186e-05
18130.0 5.8028e-05
18150.0 5.7868e-05
18170.0 5.7707e-05
18190.0 5.7545e-05
18210.0 5.7383e-05
18230.0 5.7219e-05
18250.0 5.7053e-05
18270.0 5.6888e-05
18290.0 5.6722e-05
18310.0 5.6554e-05
18330.0 5.6385e-05
18350.0 5.6217e-05
18370.0 5.6046e-05
18390.0 5.5875e-05
18410.0 5.5703e-05
18430.0 5.5531e-05
18450.0 5.5357e-05
18470.0 5.5183e-05
18490.0 5.5009e-05
18510.0 5.4833e-05
18530.0 5.4656e-05
18550.0 5.448e-05
18570.0 5.4303e-05
18590.0 5.4124e-05
18610.0 5.3946e-05
18630.0 5.3767e-05
18650.0 5.3587e-05
18670.0 5.3407e-05
18690.0 5.3227e-05
18710.0 5.3046e-05
18730.0 5.2864e-05
18750.0 5.2682e-05
18770.0 5.2501e-05
18790.0 5.2317e-05
18810.0 5.2134e-05
18830.0 5.1951e-05
18850.0 5.1768e-05
18870.0 5.1584e-05
18890.0 5.14e-05
18910.0 5.1217e-05
18930.0 5.1032e-05
18950.0 5.0847e-05
18970.0 5.0663e-05
18990.0 5.0478e-05
19010.0 5.0292e-05
19030.0 5.0108e-05
19050.0 4.9924e-05
19070.0 4.9738e-05
19090.0 4.9553e-05
19110.0 4.9369e-05
19130.0 4.9184e-05
19150.0 4.8999e-05
19170.0 4.8814e-05
19190.0 4.863e-05
19210.0 4.8445e-05
19230.0 4.8261e-05
19250.0 4.8077e-05
19270.0 4.7893e-05
19290.0 4.7709e-05
19310.0 4.7527e-05
19330.0 4.7344e-05
19350.0 4.716e-05
19370.0 4.6978e-05
19390.0 4.6796e-05
19410.0 4.6614e-05
19430.0 4.6432e-05
19450.0 4.6251e-05
19470.0 4.6071e-05
19490.0 4.589e-05
19510.0 4.571e-05
19530.0 4.5531e-05
19550.0 4.5352e-05
19570.0 4.5172e-05
19590.0 4.4995e-05
19610.0 4.4818e-05
19630.0 4.464e-05
19650.0 4.4464e-05
19670.0 4.4289e-05
19690.0 4.4113e-05
19710.0 4.3938e-05
19730.0 4.3764e-05
19750.0 4.359e-05
19770.0 4.3416e-05
19790.0 4.3244e-05
19810.0 4.3072e-05
19830.0 4.29e-05
19850.0 4.2726e-05
19870.0 4.255e-05
19890.0 4.2366e-05
19910.0 4.2165e-05
19930.0 4.1941e-05
19950.0 4.1682e-05
19970.0 4.1365e-05
19990.0 4.098e-05
20010.0 4.0536e-05
20030.0 4.0007e-05
20050.0 3.9398e-05
20070.0 3.8747e-05
20090.0 3.8059e-05
20110.0 3.7307e-05
20130.0 3.6563e-05
20150.0 3.584e-05
20170.0 3.5111e-05
20190.0 3.4388e-05
20210.0 3.3711e-05
20230.0 3.3055e-05
20250.0 3.2401e-05
20270.0 3.1785e-05
20290.0 3.1207e-05
20310.0 3.0641e-05
20330.0 3.0084e-05
20350.0 2.9582e-05
20370.0 2.9096e-05
20390.0 2.8622e-05
20410.0 2.8177e-05
20430.0 2.7764e-05
20450.0 2.7357e-05
20470.0 2.6973e-05
20490.0 2.6623e-05
20510.0 2.6294e-05
20530.0 2.5983e-05
20550.0 2.5702e-05
20570.0 2.5453e-05
20590.0 2.5224e-05
20610.0 2.502e-05
20630.0 2.4846e-05
20650.0 2.4695e-05
20670.0 2.4567e-05
20690.0 2.4465e-05
20710.0 2.4384e-05
20730.0 2.4322e-05
20750.0 2.428e-05
20770.0 2.4251e-05
20790.0 2.4236e-05
20810.0 2.4233e-05
20830.0 2.4237e-05
20850.0 2.4245e-05
20870.0 2.4259e-05
20890.0 2.4273e-05
20910.0 2.4278e-05
20930.0 2.428e-05
20950.0 2.4276e-05
20970.0 2.4258e-05
20990.0 2.4227e-05
21010.0 2.4184e-05
21030.0 2.4125e-05
21050.0 2.4049e-05
21070.0 2.3956e-05
21090.0 2.3844e-05
21110.0 2.3717e-05
21130.0 2.3575e-05
21150.0 2.3414e-05
21170.0 2.324e-05
21190.0 2.3057e-05
21210.0 2.2859e-05
21230.0 2.2646e-05
21250.0 2.2431e-05
21270.0 2.2209e-05
21290.0 2.1976e-05
21310.0 2.1741e-05
21330.0 2.1511e-05
21350.0 2.1276e-05
21370.0 2.1039e-05
21390.0 2.0811e-05
21410.0 2.059e-05
21430.0 2.0366e-05
21450.0 2.0157e-05
21470.0 1.9963e-05
21490.0 1.9778e-05
21510.0 1.9606e-05
21530.0 1.9455e-05
21550.0 1.9319e-05
21570.0 1.9199e-05
21590.0 1.9101e-05
21610.0 1.9022e-05
21630.0 1.8963e-05
21650.0 1.8925e-05
21670.0 1.8905e-05
21690.0 1.8902e-05
21710.0 1.8919e-05
21730.0 1.8951e-05
21750.0 1.8992e-05
21770.0 1.9051e-05
21790.0 1.9119e-05
21810.0 1.919e-05
21830.0 1.9266e-05
21850.0 1.9348e-05
21870.0 1.9427e-05
21890.0 1.9499e-05
21910.0 1.9572e-05
21930.0 1.9638e-05
21950.0 1.9692e-05
21970.0 1.9739e-05
21990.0 1.978e-05
22010.0 1.9806e-05
22030.0 1.9821e-05
22050.0 1.9827e-05
22070.0 1.9822e-05
22090.0 1.9804e-05
22110.0 1.9778e-05
22130.0 1.9743e-05
22150.0 1.9699e-05
22170.0 1.9647e-05
22190.0 1.9586e-05
22210.0 1.9518e-05
22230.0 1.9443e-05
22250.0 1.9362e-05
22270.0 1.9272e-05
22290.0 1.9177e-05
22310.0 1.9075e-05
22330.0 1.8963e-05
22350.0 1.8843e-05
22370.0 1.8717e-05
22390.0 1.858e-05
22410.0 1.8429e-05
22430.0 1.8274e-05
22450.0 1.8109e-05
22470.0 1.7928e-05
22490.0 1.7738e-05
22510.0 1.7543e-05
22530.0 1.7331e-05
22550.0 1.7106e-05
22570.0 1.688e-05
22590.0 1.6648e-05
22610.0 1.6403e-05
22630.0 1.6157e-05
