#lamb flux
1010.0 3.835e-07
1030.0 4.029e-07
1050.0 4.2538e-07
1070.0 4.5074e-07
1090.0 4.7957e-07
1110.0 5.0926e-07
1130.0 5.3928e-07
1150.0 5.7086e-07
1170.0 6.036e-07
1190.0 6.3488e-07
1210.0 6.6677e-07
1230.0 6.9991e-07
1250.0 7.3266e-07
1270.0 7.6475e-07
1290.0 7.9884e-07
1310.0 8.3319e-07
1330.0 8.6652e-07
1350.0 9.0051e-07
1370.0 9.3586e-07
1390.0 9.7074e-07
1410.0 1.005e-06
1430.0 1.0411e-06
1450.0 1.0775e-06
1470.0 1.1132e-06
1490.0 1.1495e-06
1510.0 1.1881e-06
1530.0 1.2251e-06
1550.0 1.262e-06
1570.0 1.3003e-06
1590.0 1.3388e-06
1610.0 1.3759e-06
1630.0 1.4142e-06
1650.0 1.4534e-06
1670.0 1.4914e-06
1690.0 1.5289e-06
1710.0 1.5675e-06
1730.0 1.606e-06
1750.0 1.6421e-06
1770.0 1.6787e-06
1790.0 1.7154e-06
1810.0 1.7504e-06
1830.0 1.784e-06
1850.0 1.819e-06
1870.0 1.8521e-06
1890.0 1.8831e-06
1910.0 1.9138e-06
1930.0 1.9443e-06
1950.0 1.9721e-06
1970.0 1.9984e-06
1990.0 2.0248e-06
2010.0 2.0497e-06
2030.0 2.0723e-06
2050.0 2.0949e-06
2070.0 2.1174e-06
2090.0 2.1371e-06
2110.0 2.1561e-06
2130.0 2.1755e-06
2150.0 2.1938e-06
2170.0 2.2106e-06
2190.0 2.2283e-06
2210.0 2.2463e-06
2230.0 2.2634e-06
2250.0 2.2808e-06
2270.0 2.3003e-06
2290.0 2.3197e-06
2310.0 2.3389e-06
2330.0 2.3604e-06
2350.0 2.3837e-06
2370.0 2.4075e-06
2390.0 2.4335e-06
2410.0 2.463e-06
2430.0 2.4939e-06
2450.0 2.5267e-06
2470.0 2.563e-06
2490.0 2.6033e-06
2510.0 2.6474e-06
2530.0 2.7028e-06
2550.0 2.7814e-06
2570.0 2.8977e-06
2590.0 3.0699e-06
2610.0 3.3422e-06
2630.0 3.7334e-06
2650.0 4.2326e-06
2670.0 4.8523e-06
2690.0 5.5818e-06
2710.0 6.3389e-06
2730.0 7.0808e-06
2750.0 7.8204e-06
2770.0 8.5032e-06
2790.0 9.1153e-06
2810.0 9.6962e-06
2830.0 1.0278e-05
2850.0 1.0835e-05
2870.0 1.1403e-05
2890.0 1.2009e-05
2910.0 1.2642e-05
2930.0 1.3288e-05
2950.0 1.3979e-05
2970.0 1.4712e-05
2990.0 1.5458e-05
3010.0 3.5462e-05
3030.0 3.7225e-05
3050.0 3.8988e-05
3070.0 4.0609e-05
3090.0 4.2007e-05
3110.0 4.2833e-05
3130.0 4.2669e-05
3150.0 4.1048e-05
3170.0 3.7027e-05
3190.0 3.0501e-05
3210.0 2.1554e-05
3230.0 1.1456e-05
3250.0 2.2323e-05
3270.0 1.0096e-05
3290.0 3.527e-05
3310.0 7.7599e-06
3330.0 7.5694e-06
3350.0 1.0965e-05
3370.0 1.4932e-05
3390.0 1.9198e-05
3410.0 2.3456e-05
3430.0 2.7927e-05
3450.0 3.2403e-05
3470.0 3.6498e-05
3490.0 3.9213e-05
3510.0 4.9109e-05
3530.0 6.7176e-05
3550.0 6.5453e-05
3570.0 5.2366e-05
3590.0 7.557e-05
3610.0 4.4499e-05
3630.0 7.8806e-05
3650.0 9.2442e-05
3670.0 0.00012101
3690.0 0.00011246
3710.0 7.2881e-05
3730.0 9.9201e-05
3750.0 0.00010254
3770.0 0.00010779
3790.0 9.9409e-05
3810.0 9.3539e-05
3830.0 0.00014534
3850.0 0.00016969
3870.0 0.0002121
3890.0 0.00020014
3910.0 0.00017558
3930.0 0.00018224
3950.0 0.00020193
3970.0 0.00024816
3990.0 0.00017593
4010.0 9.8787e-05
4030.0 0.0001585
4050.0 0.00019348
4070.0 0.00021891
4090.0 0.00017313
4110.0 0.00010821
4130.0 0.00016191
4150.0 0.00015453
4170.0 0.00015627
4190.0 0.00015017
4210.0 0.00020087
4230.0 0.00013663
4250.0 0.0001594
4270.0 0.00015883
4290.0 0.00015659
4310.0 0.0001989
4330.0 0.0002072
4350.0 0.00015815
4370.0 0.00013147
4390.0 0.00016797
4410.0 0.00017561
4430.0 0.00013122
4450.0 0.00012851
4470.0 0.00015556
4490.0 0.00011192
4510.0 0.00014646
4530.0 0.00015506
4550.0 0.00020108
4570.0 0.00029533
4590.0 0.00027915
4610.0 0.00018018
4630.0 0.00030995
4650.0 0.00045004
4670.0 0.00041654
4690.0 0.00024645
4710.0 0.00027241
4730.0 0.0003534
4750.0 0.000309
4770.0 0.00023146
4790.0 0.00015129
4810.0 0.00022455
4830.0 0.00026297
4850.0 0.00022485
4870.0 6.1366e-05
4890.0 0.00024545
4910.0 0.00034888
4930.0 0.00037591
4950.0 0.00036801
4970.0 0.00021649
4990.0 0.00025531
5010.0 0.00031231
5030.0 0.00035338
5050.0 0.00034996
5070.0 0.00024794
5090.0 0.00019987
5110.0 0.00018816
5130.0 0.00016963
5150.0 0.00018883
5170.0 0.00016325
5190.0 0.00020453
5210.0 0.00020552
5230.0 0.00022735
5250.0 0.00028476
5270.0 0.0002302
5290.0 0.00022728
5310.0 0.00035027
5330.0 0.0004099
5350.0 0.00033561
5370.0 0.0002892
5390.0 0.00034139
5410.0 0.00043636
5430.0 0.00048122
5450.0 0.00051116
5470.0 0.00050484
5490.0 0.00049255
5510.0 0.00058678
5530.0 0.0006112
5550.0 0.00066086
5570.0 0.00070947
5590.0 0.00070505
5610.0 0.00066274
5630.0 0.0006409
5650.0 0.00066031
5670.0 0.00065218
5690.0 0.0005514
5710.0 0.00054158
5730.0 0.0005578
5750.0 0.00061173
5770.0 0.00052566
5790.0 0.00048329
5810.0 0.00049017
5830.0 0.000523
5850.0 0.00047848
5870.0 0.00048687
5890.0 0.00059201
5910.0 0.00056025
5930.0 0.00045088
5950.0 0.00039129
5970.0 0.00043082
5990.0 0.00039873
6010.0 0.00037682
6030.0 0.00038572
6050.0 0.00035714
6070.0 0.00026168
6090.0 0.00023571
6110.0 0.00031598
6130.0 0.00036754
6150.0 0.00038383
6170.0 0.00036703
6190.0 0.00033774
6210.0 0.00033464
6230.0 0.00040453
6250.0 0.00037378
6270.0 0.00034126
6290.0 0.00031573
6310.0 0.00029709
6330.0 0.00028127
6350.0 0.00024486
6370.0 0.00024305
6390.0 0.00028833
6410.0 0.00036112
6430.0 0.00041745
6450.0 0.00039205
6470.0 0.0003813
6490.0 0.00048324
6510.0 0.00056348
6530.0 0.00053104
6550.0 0.00050464
6570.0 0.0005127
6590.0 0.00049913
6610.0 0.00054315
6630.0 0.00050616
6650.0 0.00043783
6670.0 0.000395
6690.0 0.00039032
6710.0 0.00048907
6730.0 0.00044222
6750.0 0.0003651
6770.0 0.00032137
6790.0 0.0003395
6810.0 0.00038754
6830.0 0.000381
6850.0 0.00034119
6870.0 0.00035709
6890.0 0.00035421
6910.0 0.00033323
6930.0 0.0003838
6950.0 0.00035154
6970.0 0.0003227
6990.0 0.00031933
7010.0 0.00031016
7030.0 0.00029625
7050.0 0.00028888
7070.0 0.00032152
7090.0 0.00030553
7110.0 0.00025985
7130.0 0.00020968
7150.0 0.00019467
7170.0 0.00026292
7190.0 0.0002858
7210.0 0.00027082
7230.0 0.00028024
7250.0 0.00025938
7270.0 0.00024591
7290.0 0.00027497
7310.0 0.00031226
7330.0 0.00030776
7350.0 0.00028643
7370.0 0.0002678
7390.0 0.00027515
7410.0 0.00032168
7430.0 0.00035512
7450.0 0.00037461
7470.0 0.00036676
7490.0 0.00038984
7510.0 0.00037955
7530.0 0.00036743
7550.0 0.00036249
7570.0 0.00031794
7590.0 0.00031265
7610.0 0.0003014
7630.0 0.00027337
7650.0 0.00029531
7670.0 0.00032262
7690.0 0.00034971
7710.0 0.00039522
7730.0 0.00041815
7750.0 0.00043534
7770.0 0.00044069
7790.0 0.00048352
7810.0 0.00049421
7830.0 0.00044556
7850.0 0.00044814
7870.0 0.00042744
7890.0 0.00044782
7910.0 0.00042352
7930.0 0.00042615
7950.0 0.00036526
7970.0 0.00037218
7990.0 0.00035548
8010.0 0.00036811
8030.0 0.00036565
8050.0 0.00038619
8070.0 0.00036962
8090.0 0.0003705
8110.0 0.000363
8130.0 0.00036182
8150.0 0.00034281
8170.0 0.00033396
8190.0 0.00033054
8210.0 0.00033291
8230.0 0.00029117
8250.0 0.00026534
8270.0 0.0002337
8290.0 0.00019703
8310.0 0.00017284
8330.0 0.00013831
8350.0 0.00011408
8370.0 0.00011343
8390.0 0.00011123
8410.0 0.0001158
8430.0 0.00014589
8450.0 0.0001572
8470.0 0.00016747
8490.0 0.00019468
8510.0 0.00021151
8530.0 0.00024202
8550.0 0.00028579
8570.0 0.0003146
8590.0 0.00033248
8610.0 0.00036492
8630.0 0.00040831
8650.0 0.00041601
8670.0 0.00042211
8690.0 0.00043894
8710.0 0.00043111
8730.0 0.00042104
8750.0 0.00039151
8770.0 0.00039152
8790.0 0.00038606
8810.0 0.00035477
8830.0 0.00035593
8850.0 0.00033041
8870.0 0.00031632
8890.0 0.00028469
8910.0 0.00031145
8930.0 0.00028186
8950.0 0.0002794
8970.0 0.00028252
8990.0 0.00027292
9010.0 0.00027973
9030.0 0.00026662
9050.0 0.00026521
9070.0 0.00026512
9090.0 0.00026497
9110.0 0.00026496
9130.0 0.00026471
9150.0 0.00026435
9170.0 0.00026328
9190.0 0.00026111
9210.0 0.00026486
9230.0 0.00026351
9250.0 0.00026262
9270.0 0.00026182
9290.0 0.00026106
9310.0 0.00026034
9330.0 0.00025961
9350.0 0.00025888
9370.0 0.00025813
9390.0 0.00025735
9410.0 0.00025655
9430.0 0.00025572
9450.0 0.00025487
9470.0 0.00025399
9490.0 0.0002531
9510.0 0.00025219
9530.0 0.00025127
9550.0 0.00025033
9570.0 0.00024937
9590.0 0.0002484
9610.0 0.00024743
9630.0 0.00024644
9650.0 0.00024545
9670.0 0.00024445
9690.0 0.00024345
9710.0 0.00024245
9730.0 0.00024144
9750.0 0.00024043
9770.0 0.00023944
9790.0 0.00023844
9810.0 0.00023744
9830.0 0.00023645
9850.0 0.00023547
9870.0 0.00023449
9890.0 0.00023352
9910.0 0.00023256
9930.0 0.0002316
9950.0 0.00023018
9970.0 0.0002294
9990.0 0.00022861
10010.0 0.00022781
10030.0 0.00022698
10050.0 0.00022608
10070.0 0.00022484
10090.0 0.00022416
10110.0 0.00022345
10130.0 0.00022273
10150.0 0.00022201
10170.0 0.00022127
10190.0 0.00022051
10210.0 0.00021979
10230.0 0.00021909
10250.0 0.00021839
10270.0 0.0002177
10290.0 0.00021706
10310.0 0.00021642
10330.0 0.00021578
10350.0 0.00021519
10370.0 0.00021461
10390.0 0.00021404
10410.0 0.00021349
10430.0 0.00021299
10450.0 0.00021249
10470.0 0.000212
10490.0 0.00021154
10510.0 0.00021111
10530.0 0.00021067
10550.0 0.00021026
10570.0 0.00020989
10590.0 0.00020952
10610.0 0.00020917
10630.0 0.00020885
10650.0 0.00020855
10670.0 0.00020825
10690.0 0.00020798
10710.0 0.00020774
10730.0 0.0002075
10750.0 0.00020727
10770.0 0.00020708
10790.0 0.0002069
10810.0 0.00020673
10830.0 0.00020657
10850.0 0.00020643
10870.0 0.00020624
10890.0 0.000206
10910.0 0.00020565
10930.0 0.0002051
10950.0 0.00020419
10970.0 0.00020284
10990.0 0.00020103
11010.0 0.00020187
11030.0 0.00019871
11050.0 0.00019499
11070.0 0.00019068
11090.0 0.00018567
11110.0 0.00018067
11130.0 0.00017564
11150.0 0.00017047
11170.0 0.00016541
11190.0 0.00016076
11210.0 0.00015622
11230.0 0.00015183
11250.0 0.00014788
11270.0 0.00014428
11290.0 0.00014085
11310.0 0.00013772
11330.0 0.00013504
11350.0 0.00013254
11370.0 0.00013019
11390.0 0.00012809
11410.0 0.00012615
11430.0 0.00012418
11450.0 0.00012228
11470.0 0.00012045
11490.0 0.00011854
11510.0 0.0001165
11530.0 0.00011448
11550.0 0.00011239
11570.0 0.00011011
11590.0 0.00010777
11610.0 0.00010542
11630.0 0.00010291
11650.0 0.00010026
11670.0 9.7702e-05
11690.0 9.5129e-05
11710.0 9.2462e-05
11730.0 8.9855e-05
11750.0 8.7408e-05
11770.0 8.4923e-05
11790.0 8.249e-05
11810.0 8.0241e-05
11830.0 7.8099e-05
11850.0 7.5946e-05
11870.0 7.3981e-05
11890.0 7.2192e-05
11910.0 7.0441e-05
11930.0 6.8762e-05
11950.0 6.7241e-05
11970.0 6.5776e-05
11990.0 6.4307e-05
12010.0 6.2941e-05
12030.0 6.1661e-05
12050.0 6.0383e-05
12070.0 5.9123e-05
12090.0 5.8007e-05
12110.0 5.6928e-05
12130.0 5.5882e-05
12150.0 5.4949e-05
12170.0 5.4146e-05
12190.0 5.3399e-05
12210.0 5.2805e-05
12230.0 5.24e-05
12250.0 5.216e-05
12270.0 5.2109e-05
12290.0 5.228e-05
12310.0 5.266e-05
12330.0 5.3266e-05
12350.0 5.4094e-05
12370.0 5.5097e-05
12390.0 5.6286e-05
12410.0 5.7689e-05
12430.0 5.9151e-05
12450.0 6.0675e-05
12470.0 6.2284e-05
12490.0 6.3897e-05
12510.0 6.5422e-05
12530.0 6.6926e-05
12550.0 6.837e-05
12570.0 6.9671e-05
12590.0 7.0846e-05
12610.0 7.1926e-05
12630.0 7.2864e-05
12650.0 7.3642e-05
12670.0 7.4309e-05
12690.0 7.4857e-05
12710.0 7.5283e-05
12730.0 7.5606e-05
12750.0 7.5825e-05
12770.0 7.5948e-05
12790.0 7.599e-05
12810.0 7.5942e-05
12830.0 7.5796e-05
12850.0 7.559e-05
12870.0 7.5308e-05
12890.0 7.4919e-05
12910.0 7.4453e-05
12930.0 7.393e-05
12950.0 7.3286e-05
12970.0 7.2529e-05
12990.0 7.1734e-05
13010.0 7.0856e-05
13030.0 6.986e-05
13050.0 6.8811e-05
13070.0 6.7756e-05
13090.0 6.6603e-05
13110.0 6.5408e-05
13130.0 6.4255e-05
13150.0 6.3113e-05
13170.0 6.1941e-05
13190.0 6.088e-05
13210.0 5.994e-05
13230.0 5.9068e-05
13250.0 5.8314e-05
13270.0 5.773e-05
13290.0 5.7272e-05
13310.0 5.6937e-05
13330.0 5.6756e-05
13350.0 5.6697e-05
13370.0 5.673e-05
13390.0 5.6839e-05
13410.0 5.699e-05
13430.0 5.7151e-05
13450.0 5.7289e-05
13470.0 5.7377e-05
13490.0 5.7396e-05
13510.0 5.7313e-05
13530.0 5.7123e-05
13550.0 5.684e-05
13570.0 5.6451e-05
13590.0 5.5952e-05
13610.0 5.5394e-05
13630.0 5.4799e-05
13650.0 5.4137e-05
13670.0 5.3462e-05
13690.0 5.2813e-05
13710.0 5.2168e-05
13730.0 5.1518e-05
13750.0 5.0943e-05
13770.0 5.0408e-05
13790.0 4.9891e-05
13810.0 4.941e-05
13830.0 4.8974e-05
13850.0 4.8541e-05
13870.0 4.8111e-05
13890.0 4.7699e-05
13910.0 4.7289e-05
13930.0 4.6856e-05
13950.0 4.6418e-05
13970.0 4.5996e-05
13990.0 4.5559e-05
14010.0 4.5119e-05
14030.0 4.4702e-05
14050.0 4.4303e-05
14070.0 4.3909e-05
14090.0 4.3555e-05
14110.0 4.3245e-05
14130.0 4.2968e-05
14150.0 4.2731e-05
14170.0 4.2546e-05
14190.0 4.2404e-05
14210.0 4.2304e-05
14230.0 4.225e-05
14250.0 4.2237e-05
14270.0 4.227e-05
14290.0 4.2349e-05
14310.0 4.246e-05
14330.0 4.2608e-05
14350.0 4.2798e-05
14370.0 4.3011e-05
14390.0 4.3235e-05
14410.0 4.3489e-05
14430.0 4.3753e-05
14450.0 4.4005e-05
14470.0 4.4252e-05
14490.0 4.4507e-05
14510.0 4.4732e-05
14530.0 4.4933e-05
14550.0 4.5132e-05
14570.0 4.5324e-05
14590.0 4.55e-05
14610.0 4.5688e-05
14630.0 4.5907e-05
14650.0 4.6142e-05
14670.0 4.6408e-05
14690.0 4.6738e-05
14710.0 4.7138e-05
14730.0 4.7569e-05
14750.0 4.8081e-05
14770.0 4.8685e-05
14790.0 4.9339e-05
14810.0 5.0035e-05
14830.0 5.0849e-05
14850.0 5.1696e-05
14870.0 5.2532e-05
14890.0 5.3392e-05
14910.0 5.4261e-05
14930.0 5.5038e-05
14950.0 5.5709e-05
14970.0 5.6297e-05
14990.0 5.6726e-05
15010.0 5.6978e-05
15030.0 5.7087e-05
15050.0 5.7063e-05
15070.0 5.6913e-05
15090.0 5.6687e-05
15110.0 5.6408e-05
15130.0 5.6095e-05
15150.0 5.5768e-05
15170.0 5.5429e-05
15190.0 5.5084e-05
15210.0 5.4741e-05
15230.0 5.4398e-05
15250.0 5.4051e-05
15270.0 5.3705e-05
15290.0 5.3365e-05
15310.0 5.3022e-05
15330.0 5.2678e-05
15350.0 5.2339e-05
15370.0 5.2e-05
15390.0 5.1657e-05
15410.0 5.1318e-05
15430.0 5.0982e-05
15450.0 5.0645e-05
15470.0 5.0307e-05
15490.0 4.9975e-05
15510.0 4.9643e-05
15530.0 4.931e-05
15550.0 4.8979e-05
15570.0 4.8653e-05
15590.0 4.8324e-05
15610.0 4.7995e-05
15630.0 4.7672e-05
15650.0 4.7351e-05
15670.0 4.7027e-05
15690.0 4.6708e-05
15710.0 4.6393e-05
15730.0 4.6075e-05
15750.0 4.576e-05
15770.0 4.5449e-05
15790.0 4.5139e-05
15810.0 4.4827e-05
15830.0 4.452e-05
15850.0 4.4217e-05
15870.0 4.3913e-05
15890.0 4.3611e-05
15910.0 4.3315e-05
15930.0 4.3018e-05
15950.0 4.272e-05
15970.0 4.2428e-05
15990.0 4.2139e-05
16010.0 4.1848e-05
16030.0 4.1559e-05
16050.0 4.1278e-05
16070.0 4.0996e-05
16090.0 4.0714e-05
16110.0 4.0436e-05
16130.0 4.0163e-05
16150.0 3.9886e-05
16170.0 3.9613e-05
16190.0 3.9346e-05
16210.0 3.9079e-05
16230.0 3.8811e-05
16250.0 3.8549e-05
16270.0 3.8291e-05
16290.0 3.8031e-05
16310.0 3.7774e-05
16330.0 3.7522e-05
16350.0 3.7269e-05
16370.0 3.7016e-05
16390.0 3.677e-05
16410.0 3.6526e-05
16430.0 3.6281e-05
16450.0 3.6039e-05
16470.0 3.5803e-05
16490.0 3.5565e-05
16510.0 3.5328e-05
16530.0 3.5097e-05
16550.0 3.4867e-05
16570.0 3.4636e-05
16590.0 3.4409e-05
16610.0 3.4187e-05
16630.0 3.3965e-05
16650.0 3.3743e-05
16670.0 3.3526e-05
16690.0 3.3312e-05
16710.0 3.3094e-05
16730.0 3.2882e-05
16750.0 3.2674e-05
16770.0 3.2465e-05
16790.0 3.2256e-05
16810.0 3.2054e-05
16830.0 3.1853e-05
16850.0 3.1651e-05
16870.0 3.1452e-05
16890.0 3.1258e-05
16910.0 3.1062e-05
16930.0 3.0866e-05
16950.0 3.0677e-05
16970.0 3.0488e-05
16990.0 3.0299e-05
17010.0 3.0114e-05
17030.0 2.9932e-05
17050.0 2.9749e-05
17070.0 2.9567e-05
17090.0 2.939e-05
17110.0 2.9213e-05
17130.0 2.9035e-05
17150.0 2.8862e-05
17170.0 2.8692e-05
17190.0 2.852e-05
17210.0 2.8351e-05
17230.0 2.8186e-05
17250.0 2.8021e-05
17270.0 2.7854e-05
17290.0 2.7692e-05
17310.0 2.7533e-05
17330.0 2.7372e-05
17350.0 2.7212e-05
17370.0 2.7059e-05
17390.0 2.6904e-05
17410.0 2.6749e-05
17430.0 2.6598e-05
17450.0 2.6449e-05
17470.0 2.6297e-05
17490.0 2.6149e-05
17510.0 2.6004e-05
17530.0 2.5859e-05
17550.0 2.5713e-05
17570.0 2.5572e-05
17590.0 2.5433e-05
17610.0 2.5292e-05
17630.0 2.5153e-05
17650.0 2.5017e-05
17670.0 2.4881e-05
17690.0 2.4743e-05
17710.0 2.4611e-05
17730.0 2.448e-05
17750.0 2.4348e-05
17770.0 2.4218e-05
17790.0 2.4092e-05
17810.0 2.3963e-05
17830.0 2.3835e-05
17850.0 2.3711e-05
17870.0 2.3588e-05
17890.0 2.3463e-05
17910.0 2.334e-05
17930.0 2.3222e-05
17950.0 2.3101e-05
17970.0 2.2981e-05
17990.0 2.2865e-05
18010.0 2.275e-05
18030.0 2.2631e-05
18050.0 2.2516e-05
18070.0 2.2404e-05
18090.0 2.2291e-05
18110.0 2.2177e-05
18130.0 2.2069e-05
18150.0 2.196e-05
18170.0 2.1849e-05
18190.0 2.1741e-05
18210.0 2.1636e-05
18230.0 2.1528e-05
18250.0 2.1421e-05
18270.0 2.1318e-05
18290.0 2.1215e-05
18310.0 2.1111e-05
18330.0 2.101e-05
18350.0 2.0911e-05
18370.0 2.0809e-05
18390.0 2.0709e-05
18410.0 2.0612e-05
18430.0 2.0514e-05
18450.0 2.0414e-05
18470.0 2.0319e-05
18490.0 2.0225e-05
18510.0 2.0129e-05
18530.0 2.0035e-05
18550.0 1.9944e-05
18570.0 1.9851e-05
18590.0 1.9757e-05
18610.0 1.9666e-05
18630.0 1.9577e-05
18650.0 1.9486e-05
18670.0 1.9396e-05
18690.0 1.931e-05
18710.0 1.9222e-05
18730.0 1.9134e-05
18750.0 1.9049e-05
18770.0 1.8965e-05
18790.0 1.8877e-05
18810.0 1.8792e-05
18830.0 1.8709e-05
18850.0 1.8626e-05
18870.0 1.8542e-05
18890.0 1.8461e-05
18910.0 1.8381e-05
18930.0 1.8299e-05
18950.0 1.8218e-05
18970.0 1.814e-05
18990.0 1.806e-05
19010.0 1.7979e-05
19030.0 1.7902e-05
19050.0 1.7826e-05
19070.0 1.7747e-05
19090.0 1.7671e-05
19110.0 1.7597e-05
19130.0 1.7521e-05
19150.0 1.7444e-05
19170.0 1.7371e-05
19190.0 1.7297e-05
19210.0 1.7222e-05
19230.0 1.7148e-05
19250.0 1.7078e-05
19270.0 1.7005e-05
19290.0 1.6933e-05
19310.0 1.6863e-05
19330.0 1.6793e-05
19350.0 1.672e-05
19370.0 1.665e-05
19390.0 1.6582e-05
19410.0 1.6512e-05
19430.0 1.6442e-05
19450.0 1.6375e-05
19470.0 1.6308e-05
19490.0 1.6239e-05
19510.0 1.6172e-05
19530.0 1.6107e-05
19550.0 1.6039e-05
19570.0 1.5971e-05
19590.0 1.5908e-05
19610.0 1.5843e-05
19630.0 1.5776e-05
19650.0 1.5712e-05
19670.0 1.565e-05
19690.0 1.5584e-05
19710.0 1.552e-05
19730.0 1.5458e-05
19750.0 1.5395e-05
19770.0 1.533e-05
19790.0 1.5268e-05
19810.0 1.5208e-05
19830.0 1.5145e-05
19850.0 1.5081e-05
19870.0 1.502e-05
19890.0 1.4953e-05
19910.0 1.4878e-05
19930.0 1.4797e-05
19950.0 1.4703e-05
19970.0 1.4586e-05
19990.0 1.4442e-05
20010.0 1.4279e-05
20030.0 1.4082e-05
20050.0 1.3853e-05
20070.0 1.361e-05
20090.0 1.3353e-05
20110.0 1.3069e-05
20130.0 1.2789e-05
20150.0 1.252e-05
20170.0 1.2248e-05
20190.0 1.198e-05
20210.0 1.1733e-05
20230.0 1.1499e-05
20250.0 1.1269e-05
20270.0 1.1062e-05
20290.0 1.0878e-05
20310.0 1.0708e-05
20330.0 1.0556e-05
20350.0 1.0438e-05
20370.0 1.0341e-05
20390.0 1.0265e-05
20410.0 1.0218e-05
20430.0 1.0197e-05
20450.0 1.0201e-05
20470.0 1.0231e-05
20490.0 1.0286e-05
20510.0 1.0365e-05
20530.0 1.0471e-05
20550.0 1.0595e-05
20570.0 1.0733e-05
20590.0 1.0892e-05
20610.0 1.1066e-05
20630.0 1.1243e-05
20650.0 1.1427e-05
20670.0 1.1624e-05
20690.0 1.1811e-05
20710.0 1.1991e-05
20730.0 1.2169e-05
20750.0 1.2336e-05
20770.0 1.2484e-05
20790.0 1.2621e-05
20810.0 1.2745e-05
20830.0 1.285e-05
20850.0 1.2937e-05
20870.0 1.3013e-05
20890.0 1.3073e-05
20910.0 1.3117e-05
20930.0 1.315e-05
20950.0 1.3173e-05
20970.0 1.3186e-05
20990.0 1.3191e-05
21010.0 1.3187e-05
21030.0 1.3175e-05
21050.0 1.3157e-05
21070.0 1.3131e-05
21090.0 1.3096e-05
21110.0 1.3057e-05
21130.0 1.3012e-05
21150.0 1.2959e-05
21170.0 1.2901e-05
21190.0 1.2842e-05
21210.0 1.2778e-05
21230.0 1.271e-05
21250.0 1.2645e-05
21270.0 1.2582e-05
21290.0 1.2518e-05
21310.0 1.246e-05
21330.0 1.241e-05
21350.0 1.2363e-05
21370.0 1.2324e-05
21390.0 1.2294e-05
21410.0 1.2273e-05
21430.0 1.226e-05
21450.0 1.2258e-05
21470.0 1.2264e-05
21490.0 1.228e-05
21510.0 1.2306e-05
21530.0 1.2338e-05
21550.0 1.2379e-05
21570.0 1.2429e-05
21590.0 1.2485e-05
21610.0 1.2546e-05
21630.0 1.2616e-05
21650.0 1.2693e-05
21670.0 1.2772e-05
21690.0 1.2857e-05
21710.0 1.2949e-05
21730.0 1.3046e-05
21750.0 1.3144e-05
21770.0 1.3254e-05
21790.0 1.3369e-05
21810.0 1.3485e-05
21830.0 1.3608e-05
21850.0 1.374e-05
21870.0 1.3874e-05
21890.0 1.4008e-05
21910.0 1.4152e-05
21930.0 1.43e-05
21950.0 1.4444e-05
21970.0 1.4593e-05
21990.0 1.4749e-05
22010.0 1.4897e-05
22030.0 1.504e-05
22050.0 1.5184e-05
22070.0 1.5323e-05
22090.0 1.5448e-05
22110.0 1.5566e-05
22130.0 1.5676e-05
22150.0 1.577e-05
22170.0 1.5848e-05
22190.0 1.5912e-05
22210.0 1.5956e-05
22230.0 1.598e-05
22250.0 1.5984e-05
22270.0 1.5965e-05
22290.0 1.5925e-05
22310.0 1.5865e-05
22330.0 1.5778e-05
22350.0 1.567e-05
22370.0 1.5544e-05
22390.0 1.5395e-05
22410.0 1.5221e-05
22430.0 1.5038e-05
22450.0 1.4841e-05
22470.0 1.4622e-05
22490.0 1.4394e-05
22510.0 1.4165e-05
22530.0 1.3919e-05
22550.0 1.3662e-05
22570.0 1.3415e-05
22590.0 1.3166e-05
22610.0 1.2911e-05
22630.0 1.2663e-05
