#lamb flux
1010.0 1.9466e-07
1030.0 2.132e-07
1050.0 2.3453e-07
1070.0 2.5854e-07
1090.0 2.8581e-07
1110.0 3.1379e-07
1130.0 3.4195e-07
1150.0 3.7146e-07
1170.0 4.0189e-07
1190.0 4.3076e-07
1210.0 4.6002e-07
1230.0 4.9027e-07
1250.0 5.199e-07
1270.0 5.4869e-07
1290.0 5.7911e-07
1310.0 6.0952e-07
1330.0 6.3869e-07
1350.0 6.682e-07
1370.0 6.9867e-07
1390.0 7.2838e-07
1410.0 7.5722e-07
1430.0 7.8738e-07
1450.0 8.1753e-07
1470.0 8.4669e-07
1490.0 8.7616e-07
1510.0 9.073e-07
1530.0 9.368e-07
1550.0 9.6591e-07
1570.0 9.9602e-07
1590.0 1.0262e-06
1610.0 1.0549e-06
1630.0 1.0846e-06
1650.0 1.115e-06
1670.0 1.1445e-06
1690.0 1.1735e-06
1710.0 1.2036e-06
1730.0 1.2338e-06
1750.0 1.2622e-06
1770.0 1.2913e-06
1790.0 1.321e-06
1810.0 1.3497e-06
1830.0 1.3777e-06
1850.0 1.4074e-06
1870.0 1.4362e-06
1890.0 1.4639e-06
1910.0 1.4919e-06
1930.0 1.5205e-06
1950.0 1.5476e-06
1970.0 1.574e-06
1990.0 1.6013e-06
2010.0 1.6279e-06
2030.0 1.653e-06
2050.0 1.6787e-06
2070.0 1.7048e-06
2090.0 1.7288e-06
2110.0 1.7522e-06
2130.0 1.776e-06
2150.0 1.7988e-06
2170.0 1.8197e-06
2190.0 1.8411e-06
2210.0 1.8621e-06
2230.0 1.8812e-06
2250.0 1.8995e-06
2270.0 1.9183e-06
2290.0 1.9354e-06
2310.0 1.9505e-06
2330.0 1.9657e-06
2350.0 1.9802e-06
2370.0 1.9927e-06
2390.0 2.0047e-06
2410.0 2.0174e-06
2430.0 2.0289e-06
2450.0 2.04e-06
2470.0 2.0531e-06
2490.0 2.0697e-06
2510.0 2.0905e-06
2530.0 2.1244e-06
2550.0 2.1856e-06
2570.0 2.2876e-06
2590.0 2.4457e-06
2610.0 2.7026e-06
2630.0 3.0646e-06
2650.0 3.5079e-06
2670.0 4.034e-06
2690.0 4.6188e-06
2710.0 5.177e-06
2730.0 5.6696e-06
2750.0 6.1058e-06
2770.0 6.4433e-06
2790.0 6.6819e-06
2810.0 6.858e-06
2830.0 6.9977e-06
2850.0 7.0963e-06
2870.0 7.18e-06
2890.0 7.2642e-06
2910.0 7.3455e-06
2930.0 7.4178e-06
2950.0 7.4957e-06
2970.0 7.5766e-06
2990.0 7.6502e-06
3010.0 7.0264e-05
3030.0 7.095e-05
3050.0 7.1598e-05
3070.0 7.2088e-05
3090.0 7.2486e-05
3110.0 7.2651e-05
3130.0 7.2408e-05
3150.0 7.1671e-05
3170.0 7.0274e-05
3190.0 6.8231e-05
3210.0 6.5726e-05
3230.0 6.3054e-05
3250.0 6.2804e-05
3270.0 6.0795e-05
3290.0 6.3189e-05
3310.0 6.0904e-05
3330.0 6.2075e-05
3350.0 6.4167e-05
3370.0 6.6907e-05
3390.0 7.0154e-05
3410.0 7.3514e-05
3430.0 7.7111e-05
3450.0 8.0976e-05
3470.0 8.4869e-05
3490.0 8.8609e-05
3510.0 9.3338e-05
3530.0 9.8993e-05
3550.0 0.00010257
3570.0 0.0001052
3590.0 0.00011212
3610.0 0.00011385
3630.0 0.0001224
3650.0 0.00012869
3670.0 0.00013537
3690.0 0.00013643
3710.0 0.00013263
3730.0 0.00013458
3750.0 0.00013459
3770.0 0.00014014
3790.0 0.00014841
3810.0 0.00016509
3830.0 0.00019975
3850.0 0.00023792
3870.0 0.00027393
3890.0 0.00029762
3910.0 0.00030867
3930.0 0.00032108
3950.0 0.00033375
3970.0 0.00029268
3990.0 0.00019879
4010.0 0.0001719
4030.0 0.00023487
4050.0 0.00029611
4070.0 0.00026319
4090.0 0.00016224
4110.0 0.00015786
4130.0 0.00022448
4150.0 0.00025447
4170.0 0.00021423
4190.0 0.00018279
4210.0 0.00023981
4230.0 0.00025184
4250.0 0.0002392
4270.0 0.00024099
4290.0 0.00021973
4310.0 0.00024667
4330.0 0.00028749
4350.0 0.00033022
4370.0 0.00032881
4390.0 0.00032051
4410.0 0.00028289
4430.0 0.00022315
4450.0 0.00016985
4470.0 0.00018426
4490.0 0.00019944
4510.0 0.00027319
4530.0 0.00028488
4550.0 0.00028044
4570.0 0.00032583
4590.0 0.00041552
4610.0 0.00056847
4630.0 0.0006973
4650.0 0.00070399
4670.0 0.00072678
4690.0 0.00078329
4710.0 0.00076706
4730.0 0.00061826
4750.0 0.00044079
4770.0 0.00036807
4790.0 0.00032453
4810.0 0.00030757
4830.0 0.00033608
4850.0 0.00037745
4870.0 0.00044312
4890.0 0.00048654
4910.0 0.00043316
4930.0 0.00045078
4950.0 0.00056045
4970.0 0.00069424
4990.0 0.00079779
5010.0 0.00079747
5030.0 0.00067537
5050.0 0.00048895
5070.0 0.00035826
5090.0 0.0003099
5110.0 0.00031809
5130.0 0.00034645
5150.0 0.0003262
5170.0 0.00032494
5190.0 0.00032353
5210.0 0.00032947
5230.0 0.00035666
5250.0 0.00036829
5270.0 0.00039691
5290.0 0.00047642
5310.0 0.00054021
5330.0 0.00057072
5350.0 0.00058233
5370.0 0.00062211
5390.0 0.00064713
5410.0 0.00059496
5430.0 0.00054212
5450.0 0.00055403
5470.0 0.00065651
5490.0 0.000842
5510.0 0.001012
5530.0 0.0010656
5550.0 0.0010347
5570.0 0.00097816
5590.0 0.00091591
5610.0 0.00087621
5630.0 0.00089146
5650.0 0.0009208
5670.0 0.00089138
5690.0 0.00083925
5710.0 0.00081883
5730.0 0.00072431
5750.0 0.00057823
5770.0 0.00052664
5790.0 0.0005933
5810.0 0.00066044
5830.0 0.00073741
5850.0 0.00075781
5870.0 0.00073791
5890.0 0.00069927
5910.0 0.00065165
5930.0 0.00065006
5950.0 0.0006864
5970.0 0.00070108
5990.0 0.00061934
6010.0 0.00050442
6030.0 0.00040855
6050.0 0.00036968
6070.0 0.00039192
6090.0 0.00044014
6110.0 0.000451
6130.0 0.00042243
6150.0 0.00041868
6170.0 0.00046283
6190.0 0.00054016
6210.0 0.00064698
6230.0 0.00073039
6250.0 0.00069294
6270.0 0.00060499
6290.0 0.00050526
6310.0 0.00040069
6330.0 0.00033943
6350.0 0.00033512
6370.0 0.00036782
6390.0 0.00040579
6410.0 0.00047474
6430.0 0.00058427
6450.0 0.00071937
6470.0 0.00084401
6490.0 0.00095405
6510.0 0.0010111
6530.0 0.00097561
6550.0 0.00093722
6570.0 0.00094169
6590.0 0.00093615
6610.0 0.000891
6630.0 0.00083922
6650.0 0.00078077
6670.0 0.00077339
6690.0 0.00075388
6710.0 0.00069709
6730.0 0.00060649
6750.0 0.00054051
6770.0 0.00055751
6790.0 0.0005952
6810.0 0.0006467
6830.0 0.00065929
6850.0 0.00061963
6870.0 0.0006014
6890.0 0.00058927
6910.0 0.00055682
6930.0 0.00053774
6950.0 0.00054179
6970.0 0.00055339
6990.0 0.00058524
7010.0 0.00063002
7030.0 0.00061762
7050.0 0.00055973
7070.0 0.00050288
7090.0 0.00042972
7110.0 0.00038275
7130.0 0.0004022
7150.0 0.00043573
7170.0 0.00044397
7190.0 0.00043385
7210.0 0.00042931
7230.0 0.00048205
7250.0 0.00054901
7270.0 0.00059091
7290.0 0.00059633
7310.0 0.00056712
7330.0 0.00052086
7350.0 0.00048173
7370.0 0.00045754
7390.0 0.00045248
7410.0 0.00048368
7430.0 0.00055719
7450.0 0.00062206
7470.0 0.00070026
7490.0 0.0008006
7510.0 0.00076553
7530.0 0.00064496
7550.0 0.00054397
7570.0 0.00045248
7590.0 0.00037454
7610.0 0.00036273
7630.0 0.0003811
7650.0 0.00042074
7670.0 0.0004822
7690.0 0.0005311
7710.0 0.00059926
7730.0 0.00062667
7750.0 0.00064857
7770.0 0.0006863
7790.0 0.00069313
7810.0 0.00068304
7830.0 0.00064713
7850.0 0.00063268
7870.0 0.00061241
7890.0 0.00056303
7910.0 0.0005133
7930.0 0.00046688
7950.0 0.00040106
7970.0 0.00038144
7990.0 0.00039416
8010.0 0.00045695
8030.0 0.00045979
8050.0 0.00047757
8070.0 0.00046974
8090.0 0.00046982
8110.0 0.00045834
8130.0 0.00043288
8150.0 0.00040246
8170.0 0.00039908
8190.0 0.00040448
8210.0 0.00040882
8230.0 0.00038298
8250.0 0.00035996
8270.0 0.00031695
8290.0 0.00026049
8310.0 0.00020626
8330.0 0.00014775
8350.0 0.00011109
8370.0 0.00010442
8390.0 0.0001152
8410.0 0.00013601
8430.0 0.00017068
8450.0 0.00018853
8470.0 0.00020209
8490.0 0.00022221
8510.0 0.00023834
8530.0 0.00026446
8550.0 0.00031245
8570.0 0.00035663
8590.0 0.00039102
8610.0 0.00044994
8630.0 0.00052053
8650.0 0.00054844
8670.0 0.00055662
8690.0 0.00055406
8710.0 0.00053499
8730.0 0.00051296
8750.0 0.00048105
8770.0 0.00047288
8790.0 0.00045737
8810.0 0.00042301
8830.0 0.0003998
8850.0 0.00034843
8870.0 0.00031927
8890.0 0.00029398
8910.0 0.00032248
8930.0 0.00030511
8950.0 0.00031066
8970.0 0.00031654
8990.0 0.00031448
9010.0 0.00031856
9030.0 0.00030739
9050.0 0.00030661
9070.0 0.00030692
9090.0 0.00030723
9110.0 0.00030767
9130.0 0.00030799
9150.0 0.00030828
9170.0 0.00030814
9190.0 0.00030741
9210.0 0.00031062
9230.0 0.00031032
9250.0 0.0003104
9270.0 0.00031058
9290.0 0.00031085
9310.0 0.00031117
9330.0 0.00031153
9350.0 0.00031193
9370.0 0.00031234
9390.0 0.00031277
9410.0 0.00031321
9430.0 0.00031368
9450.0 0.00031415
9470.0 0.00031463
9490.0 0.00031513
9510.0 0.00031564
9530.0 0.00031616
9550.0 0.00031671
9570.0 0.00031727
9590.0 0.00031784
9610.0 0.00031843
9630.0 0.00031904
9650.0 0.00031966
9670.0 0.00032029
9690.0 0.00032095
9710.0 0.00032162
9730.0 0.0003223
9750.0 0.00032299
9770.0 0.00032372
9790.0 0.00032445
9810.0 0.00032519
9830.0 0.00032596
9850.0 0.00032674
9870.0 0.00032752
9890.0 0.00032831
9910.0 0.00032914
9930.0 0.00032996
9950.0 0.00033058
9970.0 0.0003315
9990.0 0.00033242
10010.0 0.00033327
10030.0 0.00033416
10050.0 0.00033495
10070.0 0.0003351
10090.0 0.00033625
10110.0 0.00033738
10130.0 0.00033845
10150.0 0.00033948
10170.0 0.00034045
10190.0 0.00034137
10210.0 0.00034231
10230.0 0.00034325
10250.0 0.00034415
10270.0 0.00034505
10290.0 0.00034598
10310.0 0.00034687
10330.0 0.00034774
10350.0 0.00034863
10370.0 0.00034951
10390.0 0.00035036
10410.0 0.00035121
10430.0 0.00035207
10450.0 0.0003529
10470.0 0.0003537
10490.0 0.0003545
10510.0 0.0003553
10530.0 0.00035603
10550.0 0.00035677
10570.0 0.00035751
10590.0 0.00035821
10610.0 0.00035888
10630.0 0.00035956
10650.0 0.00036021
10670.0 0.0003608
10690.0 0.00036139
10710.0 0.00036196
10730.0 0.00036249
10750.0 0.00036298
10770.0 0.00036348
10790.0 0.00036394
10810.0 0.00036434
10830.0 0.00036471
10850.0 0.00036504
10870.0 0.00036522
10890.0 0.00036521
10910.0 0.00036492
10930.0 0.00036412
10950.0 0.00036247
10970.0 0.00035983
10990.0 0.00035612
11010.0 0.00035873
11030.0 0.00035127
11050.0 0.00034273
11070.0 0.00033296
11090.0 0.00032168
11110.0 0.0003105
11130.0 0.00029933
11150.0 0.00028792
11170.0 0.00027687
11190.0 0.00026689
11210.0 0.00025735
11230.0 0.00024841
11250.0 0.00024067
11270.0 0.00023393
11290.0 0.00022782
11310.0 0.00022258
11330.0 0.00021832
11350.0 0.0002145
11370.0 0.00021103
11390.0 0.00020791
11410.0 0.00020492
11430.0 0.0002017
11450.0 0.00019834
11470.0 0.00019481
11490.0 0.00019088
11510.0 0.00018645
11530.0 0.00018186
11550.0 0.00017702
11570.0 0.00017177
11590.0 0.00016641
11610.0 0.00016115
11630.0 0.00015573
11650.0 0.00015029
11670.0 0.00014527
11690.0 0.00014047
11710.0 0.00013579
11730.0 0.00013146
11750.0 0.00012757
11770.0 0.00012381
11790.0 0.00012029
11810.0 0.0001171
11830.0 0.0001141
11850.0 0.00011111
11870.0 0.00010831
11890.0 0.00010565
11910.0 0.00010295
11930.0 0.00010021
11950.0 9.7549e-05
11970.0 9.4828e-05
11990.0 9.196e-05
12010.0 8.9127e-05
12030.0 8.6338e-05
12050.0 8.3486e-05
12070.0 8.0631e-05
12090.0 7.803e-05
12110.0 7.5535e-05
12130.0 7.3177e-05
12150.0 7.1119e-05
12170.0 6.9396e-05
12190.0 6.7937e-05
12210.0 6.6894e-05
12230.0 6.6289e-05
12250.0 6.6101e-05
12270.0 6.6376e-05
12290.0 6.7078e-05
12310.0 6.8139e-05
12330.0 6.9636e-05
12350.0 7.1469e-05
12370.0 7.349e-05
12390.0 7.5733e-05
12410.0 7.8247e-05
12430.0 8.0653e-05
12450.0 8.2994e-05
12470.0 8.5321e-05
12490.0 8.7473e-05
12510.0 8.9305e-05
12530.0 9.095e-05
12550.0 9.2345e-05
12570.0 9.3372e-05
12590.0 9.408e-05
12610.0 9.4512e-05
12630.0 9.462e-05
12650.0 9.442e-05
12670.0 9.3968e-05
12690.0 9.3264e-05
12710.0 9.2358e-05
12730.0 9.128e-05
12750.0 8.9998e-05
12770.0 8.8597e-05
12790.0 8.7119e-05
12810.0 8.5525e-05
12830.0 8.3814e-05
12850.0 8.2094e-05
12870.0 8.0319e-05
12890.0 7.8419e-05
12910.0 7.6469e-05
12930.0 7.45e-05
12950.0 7.2387e-05
12970.0 7.0152e-05
12990.0 6.7935e-05
13010.0 6.5654e-05
13030.0 6.3257e-05
13050.0 6.0871e-05
13070.0 5.8572e-05
13090.0 5.6229e-05
13110.0 5.3946e-05
13130.0 5.1847e-05
13150.0 4.9892e-05
13170.0 4.804e-05
13190.0 4.6463e-05
13210.0 4.5153e-05
13230.0 4.4046e-05
13250.0 4.3187e-05
13270.0 4.2592e-05
13290.0 4.2212e-05
13310.0 4.2043e-05
13330.0 4.2064e-05
13350.0 4.2228e-05
13370.0 4.2522e-05
13390.0 4.2913e-05
13410.0 4.3318e-05
13430.0 4.3749e-05
13450.0 4.4184e-05
13470.0 4.457e-05
13490.0 4.4894e-05
13510.0 4.5185e-05
13530.0 4.5402e-05
13550.0 4.5544e-05
13570.0 4.5636e-05
13590.0 4.5687e-05
13610.0 4.5697e-05
13630.0 4.5682e-05
13650.0 4.566e-05
13670.0 4.5633e-05
13690.0 4.5603e-05
13710.0 4.558e-05
13730.0 4.5566e-05
13750.0 4.5547e-05
13770.0 4.5523e-05
13790.0 4.549e-05
13810.0 4.5434e-05
13830.0 4.5348e-05
13850.0 4.5225e-05
13870.0 4.5053e-05
13890.0 4.4832e-05
13910.0 4.4561e-05
13930.0 4.4229e-05
13950.0 4.3848e-05
13970.0 4.3444e-05
13990.0 4.3003e-05
14010.0 4.2541e-05
14030.0 4.209e-05
14050.0 4.1653e-05
14070.0 4.1219e-05
14090.0 4.0829e-05
14110.0 4.0486e-05
14130.0 4.0179e-05
14150.0 3.9915e-05
14170.0 3.9705e-05
14190.0 3.9537e-05
14210.0 3.941e-05
14230.0 3.9328e-05
14250.0 3.9288e-05
14270.0 3.9295e-05
14290.0 3.9353e-05
14310.0 3.9455e-05
14330.0 3.9607e-05
14350.0 3.9818e-05
14370.0 4.0076e-05
14390.0 4.0368e-05
14410.0 4.0718e-05
14430.0 4.1111e-05
14450.0 4.1521e-05
14470.0 4.1963e-05
14490.0 4.2458e-05
14510.0 4.2963e-05
14530.0 4.3484e-05
14550.0 4.4065e-05
14570.0 4.4701e-05
14590.0 4.5369e-05
14610.0 4.6124e-05
14630.0 4.7004e-05
14650.0 4.7958e-05
14670.0 4.9003e-05
14690.0 5.0201e-05
14710.0 5.1541e-05
14730.0 5.2907e-05
14750.0 5.4397e-05
14770.0 5.6008e-05
14790.0 5.7632e-05
14810.0 5.9241e-05
14830.0 6.0951e-05
14850.0 6.2591e-05
14870.0 6.4097e-05
14890.0 6.5524e-05
14910.0 6.6845e-05
14930.0 6.7953e-05
14950.0 6.886e-05
14970.0 6.9609e-05
14990.0 7.0147e-05
15010.0 7.0488e-05
15030.0 7.0678e-05
15050.0 7.0736e-05
15070.0 7.0693e-05
15090.0 7.0587e-05
15110.0 7.0436e-05
15130.0 7.0263e-05
15150.0 7.0085e-05
15170.0 6.9896e-05
15190.0 6.9701e-05
15210.0 6.9514e-05
15230.0 6.9329e-05
15250.0 6.9137e-05
15270.0 6.8948e-05
15290.0 6.877e-05
15310.0 6.8587e-05
15330.0 6.8402e-05
15350.0 6.8225e-05
15370.0 6.805e-05
15390.0 6.7865e-05
15410.0 6.7687e-05
15430.0 6.7515e-05
15450.0 6.7339e-05
15470.0 6.7159e-05
15490.0 6.699e-05
15510.0 6.6821e-05
15530.0 6.6645e-05
15550.0 6.6474e-05
15570.0 6.6309e-05
15590.0 6.6136e-05
15610.0 6.5961e-05
15630.0 6.5796e-05
15650.0 6.563e-05
15670.0 6.5458e-05
15690.0 6.5291e-05
15710.0 6.5131e-05
15730.0 6.4961e-05
15750.0 6.4792e-05
15770.0 6.4629e-05
15790.0 6.4466e-05
15810.0 6.4292e-05
15830.0 6.4127e-05
15850.0 6.3967e-05
15870.0 6.3799e-05
15890.0 6.3631e-05
15910.0 6.3472e-05
15930.0 6.3308e-05
15950.0 6.3136e-05
15970.0 6.2971e-05
15990.0 6.2809e-05
16010.0 6.264e-05
16030.0 6.2468e-05
16050.0 6.2309e-05
16070.0 6.2143e-05
16090.0 6.1972e-05
16110.0 6.1807e-05
16130.0 6.1646e-05
16150.0 6.147e-05
16170.0 6.1299e-05
16190.0 6.1135e-05
16210.0 6.0966e-05
16230.0 6.0791e-05
16250.0 6.0623e-05
16270.0 6.0457e-05
16290.0 6.0282e-05
16310.0 6.0108e-05
16330.0 5.994e-05
16350.0 5.9767e-05
16370.0 5.9584e-05
16390.0 5.9413e-05
16410.0 5.9242e-05
16430.0 5.9062e-05
16450.0 5.8884e-05
16470.0 5.8714e-05
16490.0 5.8534e-05
16510.0 5.835e-05
16530.0 5.8173e-05
16550.0 5.7996e-05
16570.0 5.7809e-05
16590.0 5.7623e-05
16610.0 5.7447e-05
16630.0 5.7263e-05
16650.0 5.7075e-05
16670.0 5.6893e-05
16690.0 5.6711e-05
16710.0 5.6515e-05
16730.0 5.6327e-05
16750.0 5.6142e-05
16770.0 5.595e-05
16790.0 5.5754e-05
16810.0 5.5567e-05
16830.0 5.5378e-05
16850.0 5.518e-05
16870.0 5.4985e-05
16890.0 5.4796e-05
16910.0 5.4595e-05
16930.0 5.4391e-05
16950.0 5.4198e-05
16970.0 5.4001e-05
16990.0 5.3796e-05
17010.0 5.3595e-05
17030.0 5.34e-05
17050.0 5.3193e-05
17070.0 5.2986e-05
17090.0 5.2785e-05
17110.0 5.2581e-05
17130.0 5.2366e-05
17150.0 5.2159e-05
17170.0 5.1956e-05
17190.0 5.1744e-05
17210.0 5.1531e-05
17230.0 5.1326e-05
17250.0 5.1114e-05
17270.0 5.0894e-05
17290.0 5.0682e-05
17310.0 5.0471e-05
17330.0 5.0251e-05
17350.0 5.003e-05
17370.0 4.9819e-05
17390.0 4.9602e-05
17410.0 4.9379e-05
17430.0 4.9161e-05
17450.0 4.8946e-05
17470.0 4.8717e-05
17490.0 4.8492e-05
17510.0 4.8273e-05
17530.0 4.805e-05
17550.0 4.782e-05
17570.0 4.7597e-05
17590.0 4.7376e-05
17610.0 4.7145e-05
17630.0 4.6916e-05
17650.0 4.6693e-05
17670.0 4.6464e-05
17690.0 4.6224e-05
17710.0 4.5999e-05
17730.0 4.5771e-05
17750.0 4.5536e-05
17770.0 4.5303e-05
17790.0 4.5078e-05
17810.0 4.4842e-05
17830.0 4.4603e-05
17850.0 4.4371e-05
17870.0 4.4139e-05
17890.0 4.3897e-05
17910.0 4.3659e-05
17930.0 4.343e-05
17950.0 4.3191e-05
17970.0 4.2951e-05
17990.0 4.2717e-05
18010.0 4.2482e-05
18030.0 4.2235e-05
18050.0 4.1996e-05
18070.0 4.1761e-05
18090.0 4.1519e-05
18110.0 4.1274e-05
18130.0 4.1038e-05
18150.0 4.08e-05
18170.0 4.0554e-05
18190.0 4.0313e-05
18210.0 4.0077e-05
18230.0 3.9831e-05
18250.0 3.9582e-05
18270.0 3.9345e-05
18290.0 3.9104e-05
18310.0 3.8856e-05
18330.0 3.8614e-05
18350.0 3.8377e-05
18370.0 3.8129e-05
18390.0 3.7883e-05
18410.0 3.7643e-05
18430.0 3.74e-05
18450.0 3.7148e-05
18470.0 3.6906e-05
18490.0 3.6667e-05
18510.0 3.642e-05
18530.0 3.6174e-05
18550.0 3.5936e-05
18570.0 3.5691e-05
18590.0 3.544e-05
18610.0 3.5198e-05
18630.0 3.4957e-05
18650.0 3.4709e-05
18670.0 3.4461e-05
18690.0 3.4224e-05
18710.0 3.398e-05
18730.0 3.3733e-05
18750.0 3.3491e-05
18770.0 3.3253e-05
18790.0 3.3001e-05
18810.0 3.2756e-05
18830.0 3.2518e-05
18850.0 3.2274e-05
18870.0 3.2027e-05
18890.0 3.1788e-05
18910.0 3.155e-05
18930.0 3.1303e-05
18950.0 3.106e-05
18970.0 3.0823e-05
18990.0 3.0581e-05
19010.0 3.033e-05
19030.0 3.0094e-05
19050.0 2.9857e-05
19070.0 2.9613e-05
19090.0 2.9372e-05
19110.0 2.914e-05
19130.0 2.8896e-05
19150.0 2.8653e-05
19170.0 2.8417e-05
19190.0 2.8181e-05
19210.0 2.7937e-05
19230.0 2.7697e-05
19250.0 2.7467e-05
19270.0 2.7228e-05
19290.0 2.6988e-05
19310.0 2.6757e-05
19330.0 2.6524e-05
19350.0 2.628e-05
19370.0 2.6045e-05
19390.0 2.5815e-05
19410.0 2.5578e-05
19430.0 2.534e-05
19450.0 2.5112e-05
19470.0 2.4881e-05
19490.0 2.4644e-05
19510.0 2.4413e-05
19530.0 2.4187e-05
19550.0 2.3951e-05
19570.0 2.3715e-05
19590.0 2.349e-05
19610.0 2.3261e-05
19630.0 2.3028e-05
19650.0 2.2801e-05
19670.0 2.2578e-05
19690.0 2.2346e-05
19710.0 2.2116e-05
19730.0 2.1893e-05
19750.0 2.1667e-05
19770.0 2.1434e-05
19790.0 2.1211e-05
19810.0 2.0991e-05
19830.0 2.0763e-05
19850.0 2.0535e-05
19870.0 2.0313e-05
19890.0 2.0078e-05
19910.0 1.9827e-05
19930.0 1.9569e-05
19950.0 1.9287e-05
19970.0 1.8961e-05
19990.0 1.8593e-05
20010.0 1.8199e-05
20030.0 1.7752e-05
20050.0 1.7264e-05
20070.0 1.677e-05
20090.0 1.6275e-05
20110.0 1.576e-05
20130.0 1.5283e-05
20150.0 1.4852e-05
20170.0 1.4447e-05
20190.0 1.4076e-05
20210.0 1.3762e-05
20230.0 1.3487e-05
20250.0 1.3242e-05
20270.0 1.3043e-05
20290.0 1.2884e-05
20310.0 1.2755e-05
20330.0 1.2657e-05
20350.0 1.2595e-05
20370.0 1.256e-05
20390.0 1.2553e-05
20410.0 1.2572e-05
20430.0 1.2614e-05
20450.0 1.2685e-05
20470.0 1.2782e-05
20490.0 1.2901e-05
20510.0 1.3044e-05
20530.0 1.3219e-05
20550.0 1.3413e-05
20570.0 1.362e-05
20590.0 1.3855e-05
20610.0 1.4108e-05
20630.0 1.4364e-05
20650.0 1.4631e-05
20670.0 1.4917e-05
20690.0 1.519e-05
20710.0 1.5454e-05
20730.0 1.5719e-05
20750.0 1.5976e-05
20770.0 1.6209e-05
20790.0 1.6436e-05
20810.0 1.6658e-05
20830.0 1.6864e-05
20850.0 1.7061e-05
20870.0 1.7265e-05
20890.0 1.7469e-05
20910.0 1.7665e-05
20930.0 1.7872e-05
20950.0 1.8092e-05
20970.0 1.8312e-05
20990.0 1.8534e-05
21010.0 1.877e-05
21030.0 1.9003e-05
21050.0 1.9222e-05
21070.0 1.9435e-05
21090.0 1.964e-05
21110.0 1.9813e-05
21130.0 1.996e-05
21150.0 2.0085e-05
21170.0 2.0177e-05
21190.0 2.0235e-05
21210.0 2.0263e-05
21230.0 2.0257e-05
21250.0 2.0219e-05
21270.0 2.0151e-05
21290.0 2.0052e-05
21310.0 1.9926e-05
21330.0 1.9782e-05
21350.0 1.9611e-05
21370.0 1.9418e-05
21390.0 1.9214e-05
21410.0 1.8998e-05
21430.0 1.8759e-05
21450.0 1.8518e-05
21470.0 1.828e-05
21490.0 1.8034e-05
21510.0 1.7786e-05
21530.0 1.7553e-05
21550.0 1.7326e-05
21570.0 1.7101e-05
21590.0 1.6896e-05
21610.0 1.6712e-05
21630.0 1.6543e-05
21650.0 1.6392e-05
21670.0 1.6275e-05
21690.0 1.6181e-05
21710.0 1.6113e-05
21730.0 1.6075e-05
21750.0 1.6066e-05
21770.0 1.6087e-05
21790.0 1.6139e-05
21810.0 1.6217e-05
21830.0 1.6324e-05
21850.0 1.6463e-05
21870.0 1.6624e-05
21890.0 1.6802e-05
21910.0 1.7008e-05
21930.0 1.7235e-05
21950.0 1.747e-05
21970.0 1.7722e-05
21990.0 1.8e-05
22010.0 1.8273e-05
22030.0 1.8547e-05
22050.0 1.8834e-05
22070.0 1.9121e-05
22090.0 1.9391e-05
22110.0 1.9661e-05
22130.0 1.9929e-05
22150.0 2.0175e-05
22170.0 2.0401e-05
22190.0 2.0618e-05
22210.0 2.0809e-05
22230.0 2.0964e-05
22250.0 2.1095e-05
22270.0 2.1196e-05
22290.0 2.1259e-05
22310.0 2.1286e-05
22330.0 2.1276e-05
22350.0 2.1224e-05
22370.0 2.1134e-05
22390.0 2.1002e-05
22410.0 2.0823e-05
22430.0 2.0613e-05
22450.0 2.0368e-05
22470.0 2.0077e-05
22490.0 1.9756e-05
22510.0 1.9416e-05
22530.0 1.9034e-05
22550.0 1.862e-05
22570.0 1.8203e-05
22590.0 1.7769e-05
22610.0 1.7307e-05
22630.0 1.6842e-05
