#lamb flux
1010.0 5.8041e-09
1030.0 6.3897e-09
1050.0 7.0633e-09
1070.0 7.8216e-09
1090.0 8.6829e-09
1110.0 9.5663e-09
1130.0 1.0455e-08
1150.0 1.1387e-08
1170.0 1.2347e-08
1190.0 1.3258e-08
1210.0 1.4182e-08
1230.0 1.5136e-08
1250.0 1.607e-08
1270.0 1.6978e-08
1290.0 1.7937e-08
1310.0 1.8896e-08
1330.0 1.9815e-08
1350.0 2.0744e-08
1370.0 2.1704e-08
1390.0 2.2639e-08
1410.0 2.3546e-08
1430.0 2.4495e-08
1450.0 2.5444e-08
1470.0 2.636e-08
1490.0 2.7287e-08
1510.0 2.8265e-08
1530.0 2.9191e-08
1550.0 3.0105e-08
1570.0 3.105e-08
1590.0 3.1996e-08
1610.0 3.2899e-08
1630.0 3.3829e-08
1650.0 3.4784e-08
1670.0 3.5706e-08
1690.0 3.6615e-08
1710.0 3.7558e-08
1730.0 3.8506e-08
1750.0 3.9395e-08
1770.0 4.0308e-08
1790.0 4.1238e-08
1810.0 4.2135e-08
1830.0 4.3013e-08
1850.0 4.3943e-08
1870.0 4.4844e-08
1890.0 4.5709e-08
1910.0 4.6587e-08
1930.0 4.7481e-08
1950.0 4.8326e-08
1970.0 4.9152e-08
1990.0 5.0003e-08
2010.0 5.083e-08
2030.0 5.1612e-08
2050.0 5.241e-08
2070.0 5.3217e-08
2090.0 5.3957e-08
2110.0 5.4679e-08
2130.0 5.5409e-08
2150.0 5.6103e-08
2170.0 5.674e-08
2190.0 5.7386e-08
2210.0 5.8014e-08
2230.0 5.8583e-08
2250.0 5.9121e-08
2270.0 5.967e-08
2290.0 6.0163e-08
2310.0 6.0593e-08
2330.0 6.1022e-08
2350.0 6.1439e-08
2370.0 6.1814e-08
2390.0 6.2216e-08
2410.0 6.2729e-08
2430.0 6.3339e-08
2450.0 6.411e-08
2470.0 6.5192e-08
2490.0 6.6648e-08
2510.0 6.8342e-08
2530.0 7.0495e-08
2550.0 7.3382e-08
2570.0 7.7185e-08
2590.0 8.2351e-08
2610.0 9.0358e-08
2630.0 1.0179e-07
2650.0 1.1643e-07
2670.0 1.3489e-07
2690.0 1.5686e-07
2710.0 1.7934e-07
2730.0 2.005e-07
2750.0 2.2033e-07
2770.0 2.3637e-07
2790.0 2.4782e-07
2810.0 2.5573e-07
2830.0 2.6077e-07
2850.0 2.6283e-07
2870.0 2.6324e-07
2890.0 2.6271e-07
2910.0 2.6153e-07
2930.0 2.5992e-07
2950.0 2.5826e-07
2970.0 2.5661e-07
2990.0 2.5491e-07
3010.0 7.982e-06
3030.0 7.9343e-06
3050.0 7.8874e-06
3070.0 7.8363e-06
3090.0 7.7818e-06
3110.0 7.7156e-06
3130.0 7.6286e-06
3150.0 7.5139e-06
3170.0 7.3574e-06
3190.0 7.1622e-06
3210.0 6.9405e-06
3230.0 6.7015e-06
3250.0 6.4598e-06
3270.0 6.2789e-06
3290.0 6.142e-06
3310.0 6.1098e-06
3330.0 6.1482e-06
3350.0 6.2551e-06
3370.0 6.4298e-06
3390.0 6.6638e-06
3410.0 6.9264e-06
3430.0 7.2274e-06
3450.0 7.579e-06
3470.0 7.9678e-06
3490.0 8.3862e-06
3510.0 8.8636e-06
3530.0 9.3863e-06
3550.0 9.9484e-06
3570.0 1.0571e-05
3590.0 1.1271e-05
3610.0 1.2055e-05
3630.0 1.284e-05
3650.0 1.3674e-05
3670.0 1.4429e-05
3690.0 1.4993e-05
3710.0 1.5277e-05
3730.0 1.511e-05
3750.0 1.4492e-05
3770.0 1.4724e-05
3790.0 1.4247e-05
3810.0 1.085e-05
3830.0 1.0199e-05
3850.0 1.4747e-05
3870.0 1.3636e-05
3890.0 1.038e-05
3910.0 1.0845e-05
3930.0 1.4273e-05
3950.0 1.6915e-05
3970.0 1.9639e-05
3990.0 1.4264e-05
4010.0 2.3989e-05
4030.0 2.2206e-05
4050.0 2.2114e-05
4070.0 2.5777e-05
4090.0 2.4644e-05
4110.0 2.2862e-05
4130.0 2.8715e-05
4150.0 3.8102e-05
4170.0 3.0276e-05
4190.0 2.6548e-05
4210.0 2.9904e-05
4230.0 3.7385e-05
4250.0 4.4235e-05
4270.0 4.811e-05
4290.0 4.324e-05
4310.0 3.983e-05
4330.0 3.9689e-05
4350.0 5.1071e-05
4370.0 6.2025e-05
4390.0 4.9366e-05
4410.0 2.8096e-05
4430.0 1.9985e-05
4450.0 1.8395e-05
4470.0 1.2317e-05
4490.0 2.0948e-05
4510.0 4.2418e-05
4530.0 5.152e-05
4550.0 4.9495e-05
4570.0 4.4918e-05
4590.0 4.8634e-05
4610.0 9.4576e-05
4630.0 0.00013167
4650.0 0.00012369
4670.0 0.000109
4690.0 0.00011356
4710.0 0.00011931
4730.0 9.619e-05
4750.0 6.1427e-05
4770.0 4.2937e-05
4790.0 4.81e-05
4810.0 5.026e-05
4830.0 4.9812e-05
4850.0 5.441e-05
4870.0 7.2058e-05
4890.0 8.3588e-05
4910.0 6.4424e-05
4930.0 6.2165e-05
4950.0 7.1708e-05
4970.0 9.6401e-05
4990.0 0.00012978
5010.0 0.00014877
5030.0 0.00011764
5050.0 7.0787e-05
5070.0 5.0573e-05
5090.0 3.9121e-05
5110.0 3.6743e-05
5130.0 4.3565e-05
5150.0 4.1831e-05
5170.0 3.938e-05
5190.0 3.5318e-05
5210.0 3.8662e-05
5230.0 4.8195e-05
5250.0 5.6324e-05
5270.0 5.229e-05
5290.0 5.6904e-05
5310.0 7.6232e-05
5330.0 8.0584e-05
5350.0 7.9365e-05
5370.0 8.9931e-05
5390.0 0.00011185
5410.0 9.5039e-05
5430.0 7.1791e-05
5450.0 7.254e-05
5470.0 8.5391e-05
5490.0 0.00010807
5510.0 0.00013253
5530.0 0.00015337
5550.0 0.000138
5570.0 0.00012327
5590.0 0.00010123
5610.0 0.00010317
5630.0 0.00011601
5650.0 0.00010807
5670.0 9.9816e-05
5690.0 8.0725e-05
5710.0 8.285e-05
5730.0 8.0799e-05
5750.0 4.2975e-05
5770.0 3.1286e-05
5790.0 3.9002e-05
5810.0 4.1932e-05
5830.0 6.4854e-05
5850.0 8.4055e-05
5870.0 8.918e-05
5890.0 8.4127e-05
5910.0 8.1406e-05
5930.0 7.9068e-05
5950.0 8.2007e-05
5970.0 0.00010158
5990.0 8.3163e-05
6010.0 6.3638e-05
6030.0 5.1596e-05
6050.0 4.5978e-05
6070.0 5.5349e-05
6090.0 6.2954e-05
6110.0 6.3991e-05
6130.0 5.8076e-05
6150.0 4.5809e-05
6170.0 3.72e-05
6190.0 4.648e-05
6210.0 7.2752e-05
6230.0 0.00010553
6250.0 0.00011215
6270.0 8.5573e-05
6290.0 7.3066e-05
6310.0 5.5808e-05
6330.0 4.0782e-05
6350.0 4.0134e-05
6370.0 4.2213e-05
6390.0 5.1014e-05
6410.0 6.5443e-05
6430.0 7.8868e-05
6450.0 9.7388e-05
6470.0 0.00010356
6490.0 0.00012483
6510.0 0.00014018
6530.0 0.00014146
6550.0 0.00013039
6570.0 0.0001071
6590.0 0.00010357
6610.0 8.5965e-05
6630.0 8.9225e-05
6650.0 8.5971e-05
6670.0 7.62e-05
6690.0 6.0432e-05
6710.0 5.865e-05
6730.0 2.8193e-05
6750.0 3.5785e-05
6770.0 5.4206e-05
6790.0 7.1803e-05
6810.0 5.2266e-05
6830.0 5.3421e-05
6850.0 4.5179e-05
6870.0 4.2808e-05
6890.0 3.6556e-05
6910.0 4.3121e-05
6930.0 4.0452e-05
6950.0 4.8367e-05
6970.0 4.9545e-05
6990.0 5.4863e-05
7010.0 5.3988e-05
7030.0 6.0239e-05
7050.0 5.206e-05
7070.0 4.3962e-05
7090.0 4.6333e-05
7110.0 4.8064e-05
7130.0 5.4813e-05
7150.0 6.2432e-05
7170.0 6.9619e-05
7190.0 7.3026e-05
7210.0 6.4491e-05
7230.0 6.5147e-05
7250.0 7.0708e-05
7270.0 7.7218e-05
7290.0 9.3698e-05
7310.0 9.6868e-05
7330.0 8.875e-05
7350.0 7.9146e-05
7370.0 5.866e-05
7390.0 6.1468e-05
7410.0 7.6138e-05
7430.0 8.6508e-05
7450.0 9.3023e-05
7470.0 8.6426e-05
7490.0 7.2998e-05
7510.0 0.00011669
7530.0 0.0001045
7550.0 9.6857e-05
7570.0 6.5179e-05
7590.0 2.8689e-05
7610.0 2.0288e-05
7630.0 3.0623e-05
7650.0 4.1069e-05
7670.0 6.5266e-05
7690.0 7.336e-05
7710.0 6.6049e-05
7730.0 6.4799e-05
7750.0 8.4531e-05
7770.0 8.6479e-05
7790.0 7.9624e-05
7810.0 6.5168e-05
7830.0 6.9931e-05
7850.0 7.6109e-05
7870.0 7.4525e-05
7890.0 5.8626e-05
7910.0 3.921e-05
7930.0 3.9975e-05
7950.0 3.5942e-05
7970.0 3.0383e-05
7990.0 2.7457e-05
8010.0 2.2552e-05
8030.0 2.1204e-05
8050.0 2.2571e-05
8070.0 2.4426e-05
8090.0 2.8496e-05
8110.0 2.6673e-05
8130.0 1.753e-05
8150.0 1.7491e-05
8170.0 1.1511e-05
8190.0 8.577e-06
8210.0 1.5846e-05
8230.0 1.8519e-05
8250.0 9.7926e-06
8270.0 8.141e-06
8290.0 1.1418e-05
8310.0 9.3373e-06
8330.0 5.7619e-06
8350.0 4.5742e-06
8370.0 1.8542e-06
8390.0 5.0129e-06
8410.0 5.9793e-06
8430.0 7.4443e-06
8450.0 8.344e-06
8470.0 1.2726e-05
8490.0 1.0702e-05
8510.0 8.7559e-06
8530.0 5.4875e-06
8550.0 1.4209e-05
8570.0 2.136e-05
8590.0 1.6394e-05
8610.0 2.3443e-05
8630.0 2.5741e-05
8650.0 1.6406e-05
8670.0 2.1716e-05
8690.0 3.0827e-05
8710.0 2.6999e-05
8730.0 2.8519e-05
8750.0 2.3134e-05
8770.0 2.0934e-05
8790.0 2.2796e-05
8810.0 2.4116e-05
8830.0 1.4605e-05
8850.0 7.8323e-06
8870.0 5.9222e-06
8890.0 1.1036e-05
8910.0 1.6227e-05
8930.0 2.0698e-05
8950.0 2.3392e-05
8970.0 2.2764e-05
8990.0 1.8025e-05
9010.0 1.3324e-05
9030.0 1.0763e-05
9050.0 1.1175e-05
9070.0 1.1573e-05
9090.0 1.189e-05
9110.0 1.2262e-05
9130.0 1.2533e-05
9150.0 1.273e-05
9170.0 1.2939e-05
9190.0 1.3163e-05
9210.0 1.3398e-05
9230.0 1.3647e-05
9250.0 1.39e-05
9270.0 1.4162e-05
9290.0 1.443e-05
9310.0 1.4699e-05
9330.0 1.4973e-05
9350.0 1.5256e-05
9370.0 1.5542e-05
9390.0 1.583e-05
9410.0 1.6125e-05
9430.0 1.6428e-05
9450.0 1.673e-05
9470.0 1.7037e-05
9490.0 1.7353e-05
9510.0 1.7671e-05
9530.0 1.7992e-05
9550.0 1.8322e-05
9570.0 1.8657e-05
9590.0 1.8994e-05
9610.0 1.9336e-05
9630.0 1.9686e-05
9650.0 2.0039e-05
9670.0 2.0393e-05
9690.0 2.0755e-05
9710.0 2.1123e-05
9730.0 2.1492e-05
9750.0 2.1866e-05
9770.0 2.225e-05
9790.0 2.2634e-05
9810.0 2.302e-05
9830.0 2.3414e-05
9850.0 2.3812e-05
9870.0 2.4209e-05
9890.0 2.4612e-05
9910.0 2.5022e-05
9930.0 2.5432e-05
9950.0 2.5845e-05
9970.0 2.6264e-05
9990.0 2.6687e-05
10010.0 2.4343e-05
10030.0 2.4719e-05
10050.0 2.51e-05
10070.0 2.5476e-05
10090.0 2.5857e-05
10110.0 2.6246e-05
10130.0 2.6633e-05
10150.0 2.7019e-05
10170.0 2.7407e-05
10190.0 2.7798e-05
10210.0 2.8186e-05
10230.0 2.8573e-05
10250.0 2.8963e-05
10270.0 2.9353e-05
10290.0 2.9738e-05
10310.0 3.0126e-05
10330.0 3.0515e-05
10350.0 3.0899e-05
10370.0 3.1281e-05
10390.0 3.1665e-05
10410.0 3.2046e-05
10430.0 3.242e-05
10450.0 3.2795e-05
10470.0 3.3169e-05
10490.0 3.3536e-05
10510.0 3.39e-05
10530.0 3.4266e-05
10550.0 3.4625e-05
10570.0 3.4977e-05
10590.0 3.5327e-05
10610.0 3.5674e-05
10630.0 3.6012e-05
10650.0 3.6346e-05
10670.0 3.6678e-05
10690.0 3.7003e-05
10710.0 3.732e-05
10730.0 3.7634e-05
10750.0 3.7944e-05
10770.0 3.8242e-05
10790.0 3.8534e-05
10810.0 3.8822e-05
10830.0 3.9099e-05
10850.0 3.9363e-05
10870.0 3.9615e-05
10890.0 3.9841e-05
10910.0 4.0024e-05
10930.0 4.0146e-05
10950.0 4.0173e-05
10970.0 4.0077e-05
10990.0 3.9846e-05
11010.0 4.0683e-05
11030.0 4.0071e-05
11050.0 3.9308e-05
11070.0 3.8381e-05
11090.0 3.7257e-05
11110.0 3.6089e-05
11130.0 3.4869e-05
11150.0 3.3557e-05
11170.0 3.2208e-05
11190.0 3.0905e-05
11210.0 2.9568e-05
11230.0 2.8208e-05
11250.0 2.6918e-05
11270.0 2.5688e-05
11290.0 2.4465e-05
11310.0 2.3313e-05
11330.0 2.2302e-05
11350.0 2.1348e-05
11370.0 2.0465e-05
11390.0 1.9696e-05
11410.0 1.9015e-05
11430.0 1.8373e-05
11450.0 1.7807e-05
11470.0 1.7303e-05
11490.0 1.6822e-05
11510.0 1.6347e-05
11530.0 1.5897e-05
11550.0 1.5444e-05
11570.0 1.4962e-05
11590.0 1.4465e-05
11610.0 1.3962e-05
11630.0 1.3423e-05
11650.0 1.2853e-05
11670.0 1.2297e-05
11690.0 1.1738e-05
11710.0 1.1166e-05
11730.0 1.0616e-05
11750.0 1.0106e-05
11770.0 9.607e-06
11790.0 9.1386e-06
11810.0 8.7225e-06
11830.0 8.3465e-06
11850.0 7.9963e-06
11870.0 7.6962e-06
11890.0 7.4391e-06
11910.0 7.2068e-06
11930.0 6.9996e-06
11950.0 6.8191e-06
11970.0 6.652e-06
11990.0 6.4899e-06
12010.0 6.3362e-06
12030.0 6.1862e-06
12050.0 6.0318e-06
12070.0 5.8722e-06
12090.0 5.7174e-06
12110.0 5.5602e-06
12130.0 5.4012e-06
12150.0 5.2498e-06
12170.0 5.1103e-06
12190.0 4.9781e-06
12210.0 4.8656e-06
12230.0 4.7778e-06
12250.0 4.7144e-06
12270.0 4.6802e-06
12290.0 4.6774e-06
12310.0 4.7034e-06
12330.0 4.7636e-06
12350.0 4.855e-06
12370.0 4.9691e-06
12390.0 5.1093e-06
12410.0 5.2818e-06
12430.0 5.4596e-06
12450.0 5.6454e-06
12470.0 5.8451e-06
12490.0 6.0453e-06
12510.0 6.2305e-06
12530.0 6.4137e-06
12550.0 6.5882e-06
12570.0 6.7375e-06
12590.0 6.8638e-06
12610.0 6.9725e-06
12630.0 7.0524e-06
12650.0 7.0976e-06
12670.0 7.1173e-06
12690.0 7.1079e-06
12710.0 7.0684e-06
12730.0 7.0026e-06
12750.0 6.9088e-06
12770.0 6.7912e-06
12790.0 6.6552e-06
12810.0 6.4994e-06
12830.0 6.3245e-06
12850.0 6.1437e-06
12870.0 5.9551e-06
12890.0 5.7542e-06
12910.0 5.5514e-06
12930.0 5.3518e-06
12950.0 5.1454e-06
12970.0 4.9361e-06
12990.0 4.7371e-06
13010.0 4.5403e-06
13030.0 4.3413e-06
13050.0 4.1489e-06
13070.0 3.967e-06
13090.0 3.7838e-06
13110.0 3.6051e-06
13130.0 3.4384e-06
13150.0 3.2789e-06
13170.0 3.1215e-06
13190.0 2.979e-06
13210.0 2.8512e-06
13230.0 2.7322e-06
13250.0 2.6267e-06
13270.0 2.5395e-06
13290.0 2.4669e-06
13310.0 2.41e-06
13330.0 2.3726e-06
13350.0 2.3534e-06
13370.0 2.3526e-06
13390.0 2.3715e-06
13410.0 2.4055e-06
13430.0 2.4559e-06
13450.0 2.5231e-06
13470.0 2.601e-06
13490.0 2.6859e-06
13510.0 2.7848e-06
13530.0 2.8873e-06
13550.0 2.987e-06
13570.0 3.0872e-06
13590.0 3.1869e-06
13610.0 3.2768e-06
13630.0 3.3564e-06
13650.0 3.4306e-06
13670.0 3.4932e-06
13690.0 3.5422e-06
13710.0 3.5807e-06
13730.0 3.6092e-06
13750.0 3.6236e-06
13770.0 3.6275e-06
13790.0 3.6215e-06
13810.0 3.6055e-06
13830.0 3.5813e-06
13850.0 3.5487e-06
13870.0 3.5078e-06
13890.0 3.4612e-06
13910.0 3.4091e-06
13930.0 3.3497e-06
13950.0 3.2856e-06
13970.0 3.2206e-06
13990.0 3.1509e-06
14010.0 3.0777e-06
14030.0 3.0053e-06
14050.0 2.9331e-06
14070.0 2.8577e-06
14090.0 2.786e-06
14110.0 2.7189e-06
14130.0 2.6541e-06
14150.0 2.5933e-06
14170.0 2.5412e-06
14190.0 2.4958e-06
14210.0 2.457e-06
14230.0 2.4276e-06
14250.0 2.4076e-06
14270.0 2.3966e-06
14290.0 2.3958e-06
14310.0 2.4046e-06
14330.0 2.4225e-06
14350.0 2.4503e-06
14370.0 2.4861e-06
14390.0 2.5277e-06
14410.0 2.5779e-06
14430.0 2.6342e-06
14450.0 2.6931e-06
14470.0 2.7558e-06
14490.0 2.8242e-06
14510.0 2.8917e-06
14530.0 2.958e-06
14550.0 3.0265e-06
14570.0 3.0949e-06
14590.0 3.16e-06
14610.0 3.2255e-06
14630.0 3.2932e-06
14650.0 3.359e-06
14670.0 3.4247e-06
14690.0 3.4946e-06
14710.0 3.569e-06
14730.0 3.6434e-06
14750.0 3.7249e-06
14770.0 3.8153e-06
14790.0 3.9111e-06
14810.0 4.0123e-06
14830.0 4.1285e-06
14850.0 4.2515e-06
14870.0 4.3771e-06
14890.0 4.5096e-06
14910.0 4.6477e-06
14930.0 4.7789e-06
14950.0 4.9005e-06
14970.0 5.015e-06
14990.0 5.1113e-06
15010.0 5.1861e-06
15030.0 5.2431e-06
15050.0 5.2829e-06
15070.0 5.306e-06
15090.0 5.3187e-06
15110.0 5.3241e-06
15130.0 5.325e-06
15150.0 5.324e-06
15170.0 5.3215e-06
15190.0 5.3183e-06
15210.0 5.3154e-06
15230.0 5.3125e-06
15250.0 5.3093e-06
15270.0 5.3063e-06
15290.0 5.304e-06
15310.0 5.3015e-06
15330.0 5.2988e-06
15350.0 5.2966e-06
15370.0 5.2946e-06
15390.0 5.292e-06
15410.0 5.2898e-06
15430.0 5.288e-06
15450.0 5.2859e-06
15470.0 5.2836e-06
15490.0 5.282e-06
15510.0 5.2804e-06
15530.0 5.2784e-06
15550.0 5.2766e-06
15570.0 5.2752e-06
15590.0 5.2733e-06
15610.0 5.2712e-06
15630.0 5.2698e-06
15650.0 5.2682e-06
15670.0 5.2662e-06
15690.0 5.2646e-06
15710.0 5.2633e-06
15730.0 5.2613e-06
15750.0 5.2594e-06
15770.0 5.2578e-06
15790.0 5.2561e-06
15810.0 5.2538e-06
15830.0 5.2519e-06
15850.0 5.2503e-06
15870.0 5.2481e-06
15890.0 5.2459e-06
15910.0 5.2441e-06
15930.0 5.242e-06
15950.0 5.2393e-06
15970.0 5.237e-06
15990.0 5.2348e-06
16010.0 5.2321e-06
16030.0 5.2291e-06
16050.0 5.2269e-06
16070.0 5.2241e-06
16090.0 5.221e-06
16110.0 5.2181e-06
16130.0 5.2153e-06
16150.0 5.2116e-06
16170.0 5.208e-06
16190.0 5.2048e-06
16210.0 5.2013e-06
16230.0 5.1972e-06
16250.0 5.1934e-06
16270.0 5.1898e-06
16290.0 5.1854e-06
16310.0 5.181e-06
16330.0 5.1769e-06
16350.0 5.1723e-06
16370.0 5.1669e-06
16390.0 5.1623e-06
16410.0 5.1575e-06
16430.0 5.152e-06
16450.0 5.1466e-06
16470.0 5.1415e-06
16490.0 5.1357e-06
16510.0 5.1295e-06
16530.0 5.1236e-06
16550.0 5.1176e-06
16570.0 5.1109e-06
16590.0 5.1041e-06
16610.0 5.0978e-06
16630.0 5.0909e-06
16650.0 5.0835e-06
16670.0 5.0766e-06
16690.0 5.0694e-06
16710.0 5.0612e-06
16730.0 5.0533e-06
16750.0 5.0456e-06
16770.0 5.0373e-06
16790.0 5.0286e-06
16810.0 5.0203e-06
16830.0 5.0118e-06
16850.0 5.0026e-06
16870.0 4.9934e-06
16890.0 4.9845e-06
16910.0 4.9747e-06
16930.0 4.9646e-06
16950.0 4.955e-06
16970.0 4.9451e-06
16990.0 4.9345e-06
17010.0 4.9241e-06
17030.0 4.9139e-06
17050.0 4.9028e-06
17070.0 4.8915e-06
17090.0 4.8806e-06
17110.0 4.8693e-06
17130.0 4.8572e-06
17150.0 4.8454e-06
17170.0 4.8339e-06
17190.0 4.8216e-06
17210.0 4.8091e-06
17230.0 4.797e-06
17250.0 4.7843e-06
17270.0 4.771e-06
17290.0 4.758e-06
17310.0 4.7451e-06
17330.0 4.7314e-06
17350.0 4.7175e-06
17370.0 4.7042e-06
17390.0 4.6904e-06
17410.0 4.676e-06
17430.0 4.6619e-06
17450.0 4.6479e-06
17470.0 4.6328e-06
17490.0 4.6178e-06
17510.0 4.6033e-06
17530.0 4.5882e-06
17550.0 4.5726e-06
17570.0 4.5574e-06
17590.0 4.5423e-06
17610.0 4.5263e-06
17630.0 4.5103e-06
17650.0 4.4947e-06
17670.0 4.4786e-06
17690.0 4.4616e-06
17710.0 4.4456e-06
17730.0 4.4293e-06
17750.0 4.4124e-06
17770.0 4.3955e-06
17790.0 4.3791e-06
17810.0 4.3618e-06
17830.0 4.3443e-06
17850.0 4.3272e-06
17870.0 4.31e-06
17890.0 4.292e-06
17910.0 4.2742e-06
17930.0 4.2569e-06
17950.0 4.2389e-06
17970.0 4.2207e-06
17990.0 4.2029e-06
18010.0 4.185e-06
18030.0 4.1661e-06
18050.0 4.1477e-06
18070.0 4.1295e-06
18090.0 4.1108e-06
18110.0 4.0918e-06
18130.0 4.0734e-06
18150.0 4.0548e-06
18170.0 4.0355e-06
18190.0 4.0166e-06
18210.0 3.9979e-06
18230.0 3.9784e-06
18250.0 3.9588e-06
18270.0 3.9399e-06
18290.0 3.9206e-06
18310.0 3.9009e-06
18330.0 3.8815e-06
18350.0 3.8625e-06
18370.0 3.8426e-06
18390.0 3.8227e-06
18410.0 3.8033e-06
18430.0 3.7837e-06
18450.0 3.7633e-06
18470.0 3.7436e-06
18490.0 3.7241e-06
18510.0 3.7041e-06
18530.0 3.684e-06
18550.0 3.6645e-06
18570.0 3.6444e-06
18590.0 3.6239e-06
18610.0 3.604e-06
18630.0 3.5842e-06
18650.0 3.5638e-06
18670.0 3.5434e-06
18690.0 3.5238e-06
18710.0 3.5037e-06
18730.0 3.4832e-06
18750.0 3.4632e-06
18770.0 3.4434e-06
18790.0 3.4227e-06
18810.0 3.4024e-06
18830.0 3.3825e-06
18850.0 3.3623e-06
18870.0 3.3418e-06
18890.0 3.3219e-06
18910.0 3.302e-06
18930.0 3.2815e-06
18950.0 3.2613e-06
18970.0 3.2415e-06
18990.0 3.2213e-06
19010.0 3.2005e-06
19030.0 3.1808e-06
19050.0 3.1609e-06
19070.0 3.1406e-06
19090.0 3.1206e-06
19110.0 3.1011e-06
19130.0 3.0808e-06
19150.0 3.0605e-06
19170.0 3.0408e-06
19190.0 3.0211e-06
19210.0 3.0008e-06
19230.0 2.9809e-06
19250.0 2.9615e-06
19270.0 2.9417e-06
19290.0 2.9217e-06
19310.0 2.9023e-06
19330.0 2.8829e-06
19350.0 2.8627e-06
19370.0 2.8432e-06
19390.0 2.8239e-06
19410.0 2.8043e-06
19430.0 2.7846e-06
19450.0 2.7656e-06
19470.0 2.7464e-06
19490.0 2.7268e-06
19510.0 2.7076e-06
19530.0 2.6887e-06
19550.0 2.6693e-06
19570.0 2.6498e-06
19590.0 2.6311e-06
19610.0 2.6122e-06
19630.0 2.593e-06
19650.0 2.5743e-06
19670.0 2.5559e-06
19690.0 2.5368e-06
19710.0 2.5179e-06
19730.0 2.4996e-06
19750.0 2.481e-06
19770.0 2.462e-06
19790.0 2.4437e-06
19810.0 2.4256e-06
19830.0 2.407e-06
19850.0 2.3885e-06
19870.0 2.3704e-06
19890.0 2.3514e-06
19910.0 2.3312e-06
19930.0 2.3104e-06
19950.0 2.2877e-06
19970.0 2.2615e-06
19990.0 2.2317e-06
20010.0 2.1293e-06
20030.0 2.0926e-06
20050.0 2.0512e-06
20070.0 2.0073e-06
20090.0 1.9611e-06
20110.0 1.91e-06
20130.0 1.8591e-06
20150.0 1.8092e-06
20170.0 1.7582e-06
20190.0 1.707e-06
20210.0 1.6589e-06
20230.0 1.6123e-06
20250.0 1.5659e-06
20270.0 1.5229e-06
20290.0 1.4834e-06
20310.0 1.4459e-06
20330.0 1.4106e-06
20350.0 1.3808e-06
20370.0 1.354e-06
20390.0 1.33e-06
20410.0 1.31e-06
20430.0 1.2939e-06
20450.0 1.2804e-06
20470.0 1.2704e-06
20490.0 1.2638e-06
20510.0 1.26e-06
20530.0 1.259e-06
20550.0 1.2606e-06
20570.0 1.2642e-06
20590.0 1.2701e-06
20610.0 1.278e-06
20630.0 1.2871e-06
20650.0 1.2977e-06
20670.0 1.3103e-06
20690.0 1.3233e-06
20710.0 1.3369e-06
20730.0 1.3517e-06
20750.0 1.3671e-06
20770.0 1.3821e-06
20790.0 1.3979e-06
20810.0 1.4144e-06
20830.0 1.4305e-06
20850.0 1.4464e-06
20870.0 1.4633e-06
20890.0 1.4803e-06
20910.0 1.4963e-06
20930.0 1.5128e-06
20950.0 1.5297e-06
20970.0 1.5459e-06
20990.0 1.5618e-06
21010.0 1.5784e-06
21030.0 1.5946e-06
21050.0 1.6099e-06
21070.0 1.6251e-06
21090.0 1.6405e-06
21110.0 1.6544e-06
21130.0 1.6674e-06
21150.0 1.6803e-06
21170.0 1.692e-06
21190.0 1.7021e-06
21210.0 1.7115e-06
21230.0 1.7197e-06
21250.0 1.7259e-06
21270.0 1.7303e-06
21290.0 1.7329e-06
21310.0 1.7332e-06
21330.0 1.7312e-06
21350.0 1.7267e-06
21370.0 1.7193e-06
21390.0 1.7093e-06
21410.0 1.6966e-06
21430.0 1.6801e-06
21450.0 1.6609e-06
21470.0 1.6395e-06
21490.0 1.6149e-06
21510.0 1.5874e-06
21530.0 1.5588e-06
21550.0 1.5284e-06
21570.0 1.4955e-06
21590.0 1.4624e-06
21610.0 1.4298e-06
21630.0 1.3966e-06
21650.0 1.3634e-06
21670.0 1.3337e-06
21690.0 1.3055e-06
21710.0 1.279e-06
21730.0 1.2561e-06
21750.0 1.2369e-06
21770.0 1.2203e-06
21790.0 1.2078e-06
21810.0 1.1996e-06
21830.0 1.1951e-06
21850.0 1.1947e-06
21870.0 1.1981e-06
21890.0 1.2048e-06
21910.0 1.2152e-06
21930.0 1.2288e-06
21950.0 1.2446e-06
21970.0 1.263e-06
21990.0 1.2847e-06
22010.0 1.3071e-06
22030.0 1.3305e-06
22050.0 1.3559e-06
22070.0 1.3821e-06
22090.0 1.4074e-06
22110.0 1.4336e-06
22130.0 1.4604e-06
22150.0 1.4859e-06
22170.0 1.5104e-06
22190.0 1.5352e-06
22210.0 1.5587e-06
22230.0 1.5797e-06
22250.0 1.5997e-06
22270.0 1.6185e-06
22290.0 1.6347e-06
22310.0 1.6487e-06
22330.0 1.6613e-06
22350.0 1.6712e-06
22370.0 1.6783e-06
22390.0 1.683e-06
22410.0 1.685e-06
22430.0 1.6839e-06
22450.0 1.6801e-06
22470.0 1.6731e-06
22490.0 1.6631e-06
22510.0 1.6504e-06
22530.0 1.6342e-06
22550.0 1.6144e-06
22570.0 1.5923e-06
22590.0 1.5675e-06
22610.0 1.5389e-06
22630.0 1.5079e-06
