#lamb flux
1010.0 3.7067e-06
1030.0 4.1523e-06
1050.0 4.5947e-06
1070.0 5.0945e-06
1090.0 5.6849e-06
1110.0 6.29e-06
1130.0 6.9008e-06
1150.0 7.544e-06
1170.0 8.2143e-06
1190.0 8.8624e-06
1210.0 9.5336e-06
1230.0 1.0245e-05
1250.0 1.096e-05
1270.0 1.1683e-05
1290.0 1.2469e-05
1310.0 1.3286e-05
1330.0 1.4103e-05
1350.0 1.4957e-05
1370.0 1.586e-05
1390.0 1.6769e-05
1410.0 1.7675e-05
1430.0 1.8628e-05
1450.0 1.9592e-05
1470.0 2.0537e-05
1490.0 2.149e-05
1510.0 2.248e-05
1530.0 2.3421e-05
1550.0 2.4338e-05
1570.0 2.5263e-05
1590.0 2.6168e-05
1610.0 2.701e-05
1630.0 2.7838e-05
1650.0 2.8653e-05
1670.0 2.9406e-05
1690.0 3.011e-05
1710.0 3.0803e-05
1730.0 3.1458e-05
1750.0 3.2024e-05
1770.0 3.2571e-05
1790.0 3.3094e-05
1810.0 3.3555e-05
1830.0 3.397e-05
1850.0 3.4399e-05
1870.0 3.4782e-05
1890.0 3.5122e-05
1910.0 3.546e-05
1930.0 3.5804e-05
1950.0 3.6109e-05
1970.0 3.6404e-05
1990.0 3.6724e-05
2010.0 3.7034e-05
2030.0 3.7321e-05
2050.0 3.7628e-05
2070.0 3.7948e-05
2090.0 3.8224e-05
2110.0 3.8488e-05
2130.0 3.8753e-05
2150.0 3.8984e-05
2170.0 3.9159e-05
2190.0 3.9323e-05
2210.0 3.945e-05
2230.0 3.9507e-05
2250.0 3.9513e-05
2270.0 3.9491e-05
2290.0 3.9395e-05
2310.0 3.9219e-05
2330.0 3.9002e-05
2350.0 3.8731e-05
2370.0 3.8379e-05
2390.0 3.7974e-05
2410.0 3.753e-05
2430.0 3.7005e-05
2450.0 3.6401e-05
2470.0 3.5735e-05
2490.0 3.5e-05
2510.0 3.42e-05
2530.0 3.3418e-05
2550.0 3.2773e-05
2570.0 3.2413e-05
2590.0 3.2497e-05
2610.0 3.3368e-05
2630.0 3.5126e-05
2650.0 3.7606e-05
2670.0 4.0813e-05
2690.0 4.4542e-05
2710.0 4.8048e-05
2730.0 5.0903e-05
2750.0 5.2983e-05
2770.0 5.3707e-05
2790.0 5.2917e-05
2810.0 5.07e-05
2830.0 4.6999e-05
2850.0 4.223e-05
2870.0 3.6649e-05
2890.0 3.0296e-05
2910.0 2.3493e-05
2930.0 1.6618e-05
2950.0 9.3645e-06
2970.0 2.545e-06
2990.0 2.545e-06
3010.0 5.1678e-06
3030.0 5.1678e-06
3050.0 5.1678e-06
3070.0 5.1678e-06
3090.0 5.1678e-06
3110.0 5.1678e-06
3130.0 5.1678e-06
3150.0 5.1678e-06
3170.0 5.1678e-06
3190.0 5.1678e-06
3210.0 5.1678e-06
3230.0 0.00021008
3250.0 0.00037423
3270.0 0.00035104
3290.0 0.00032769
3310.0 0.00024908
3330.0 0.00024174
3350.0 0.00026698
3370.0 0.00030461
3390.0 0.00034604
3410.0 0.00039048
3430.0 0.00044904
3450.0 0.00050637
3470.0 0.00056575
3490.0 0.00058753
3510.0 0.00053364
3530.0 0.00051326
3550.0 0.00056791
3570.0 0.00060984
3590.0 0.00066094
3610.0 0.00064533
3630.0 0.0007818
3650.0 0.00085354
3670.0 0.00090143
3690.0 0.00089561
3710.0 0.00081082
3730.0 0.00080069
3750.0 0.00076058
3770.0 0.00073461
3790.0 0.00069183
3810.0 0.00065801
3830.0 0.00067902
3850.0 0.0003598
3870.0 0.00048269
3890.0 0.0005596
3910.0 0.00068793
3930.0 0.00088299
3950.0 0.00095717
3970.0 0.0010693
3990.0 0.0012809
4010.0 0.0010861
4030.0 0.00093441
4050.0 0.00067479
4070.0 0.00063595
4090.0 0.00093731
4110.0 0.00093736
4130.0 0.0010203
4150.0 0.00097783
4170.0 0.00092593
4190.0 0.00084038
4210.0 0.0011322
4230.0 0.0011957
4250.0 0.0013031
4270.0 0.0012406
4290.0 0.001223
4310.0 0.0013286
4330.0 0.0015604
4350.0 0.0016287
4370.0 0.001619
4390.0 0.0014771
4410.0 0.0013628
4430.0 0.0010624
4450.0 0.00086508
4470.0 0.00093408
4490.0 0.0010953
4510.0 0.0011402
4530.0 0.0011492
4550.0 0.0011626
4570.0 0.0016565
4590.0 0.0024794
4610.0 0.0029133
4630.0 0.002951
4650.0 0.0031822
4670.0 0.0037102
4690.0 0.0040218
4710.0 0.0033527
4730.0 0.0025573
4750.0 0.0020033
4770.0 0.0017272
4790.0 0.0015799
4810.0 0.0014978
4830.0 0.0016602
4850.0 0.0019617
4870.0 0.0021511
4890.0 0.0022466
4910.0 0.002116
4930.0 0.0022877
4950.0 0.0027921
4970.0 0.0032529
4990.0 0.0033735
5010.0 0.0031064
5030.0 0.0025799
5050.0 0.0019871
5070.0 0.0015848
5090.0 0.0014313
5110.0 0.0014089
5130.0 0.0014349
5150.0 0.0014247
5170.0 0.0013398
5190.0 0.0012569
5210.0 0.001235
5230.0 0.0014001
5250.0 0.0016698
5270.0 0.0019981
5290.0 0.0022799
5310.0 0.002441
5330.0 0.0026946
5350.0 0.0029938
5370.0 0.003106
5390.0 0.0028183
5410.0 0.002508
5430.0 0.0024592
5450.0 0.0028713
5470.0 0.003548
5490.0 0.0041316
5510.0 0.0043981
5530.0 0.0043449
5550.0 0.0041625
5570.0 0.0040363
5590.0 0.0039005
5610.0 0.0038426
5630.0 0.0038394
5650.0 0.0038639
5670.0 0.0038055
5690.0 0.0034633
5710.0 0.0029362
5730.0 0.0026392
5750.0 0.0025426
5770.0 0.0026132
5790.0 0.0027079
5810.0 0.0028176
5830.0 0.0028722
5850.0 0.0027534
5870.0 0.0026118
5890.0 0.0025568
5910.0 0.0026586
5930.0 0.002777
5950.0 0.0026253
5970.0 0.0023264
5990.0 0.0019314
6010.0 0.001569
6030.0 0.0014487
6050.0 0.001569
6070.0 0.0016678
6090.0 0.00159
6110.0 0.0014034
6130.0 0.0014361
6150.0 0.0016708
6170.0 0.0019209
6190.0 0.0021085
6210.0 0.0021389
6230.0 0.0021053
6250.0 0.0019226
6270.0 0.001607
6290.0 0.0013267
6310.0 0.0011775
6330.0 0.0011504
6350.0 0.0011711
6370.0 0.001187
6390.0 0.0013349
6410.0 0.0016651
6430.0 0.002055
6450.0 0.0023055
6470.0 0.0023768
6490.0 0.0023606
6510.0 0.0024095
6530.0 0.0024832
6550.0 0.0024711
6570.0 0.0025642
6590.0 0.0026291
6610.0 0.0026738
6630.0 0.0026291
6650.0 0.0024553
6670.0 0.0022402
6690.0 0.0020371
6710.0 0.001928
6730.0 0.0019043
6750.0 0.0019388
6770.0 0.0019919
6790.0 0.0020566
6810.0 0.0021003
6830.0 0.0020602
6850.0 0.0019607
6870.0 0.0018368
6890.0 0.0017955
6910.0 0.0017414
6930.0 0.0018023
6950.0 0.0019096
6970.0 0.0019602
6990.0 0.0019965
7010.0 0.0019394
7030.0 0.0017833
7050.0 0.0015779
7070.0 0.0014079
7090.0 0.0013175
7110.0 0.0013061
7130.0 0.0012748
7150.0 0.0011394
7170.0 0.001081
7190.0 0.0011827
7210.0 0.0013676
7230.0 0.0015771
7250.0 0.0016694
7270.0 0.0016501
7290.0 0.0015219
7310.0 0.0014049
7330.0 0.0013481
7350.0 0.0013519
7370.0 0.0013774
7390.0 0.0014429
7410.0 0.0015987
7430.0 0.0018476
7450.0 0.002086
7470.0 0.0022003
7490.0 0.002149
7510.0 0.0020012
7530.0 0.0017393
7550.0 0.0015797
7570.0 0.0014096
7590.0 0.001326
7610.0 0.0013596
7630.0 0.0014683
7650.0 0.0016222
7670.0 0.0017776
7690.0 0.0018863
7710.0 0.0019997
7730.0 0.0021162
7750.0 0.002214
7770.0 0.0021917
7790.0 0.0022022
7810.0 0.0022372
7830.0 0.0022246
7850.0 0.002149
7870.0 0.0020779
7890.0 0.002087
7910.0 0.0020274
7930.0 0.0019944
7950.0 0.0018881
7970.0 0.0018327
7990.0 0.0017643
8010.0 0.0017877
8030.0 0.0017997
8050.0 0.0018099
8070.0 0.0017874
8090.0 0.0017738
8110.0 0.0017089
8130.0 0.0017046
8150.0 0.0016811
8170.0 0.0016367
8190.0 0.0016005
8210.0 0.0015925
8230.0 0.001552
8250.0 0.0015189
8270.0 0.0013754
8290.0 0.0011233
8310.0 0.00084443
8330.0 0.00065263
8350.0 0.00061035
8370.0 0.00072781
8390.0 0.00088241
8410.0 0.00095332
8430.0 0.00097801
8450.0 0.0010283
8470.0 0.0011015
8490.0 0.0012337
8510.0 0.0014077
8530.0 0.0016163
8550.0 0.0018114
8570.0 0.0019721
8590.0 0.0020953
8610.0 0.0021652
8630.0 0.0021686
8650.0 0.0021469
8670.0 0.0021466
8690.0 0.0022537
8710.0 0.002397
8730.0 0.0024927
8750.0 0.0024828
8770.0 0.0025164
8790.0 0.0025061
8810.0 0.0023532
8830.0 0.0022166
8850.0 0.0020352
8870.0 0.0018887
8890.0 0.0018404
8910.0 0.0018429
8930.0 0.001741
8950.0 0.001625
8970.0 0.0015768
8990.0 0.0015633
9010.0 0.0015036
9030.0 0.0014698
9050.0 0.0014574
9070.0 0.0014517
9090.0 0.0014467
9110.0 0.001442
9130.0 0.0014372
9150.0 0.0014325
9170.0 0.0014272
9190.0 0.0014233
9210.0 0.0014251
9230.0 0.0014179
9250.0 0.0014119
9270.0 0.0014066
9290.0 0.0014018
9310.0 0.0013971
9330.0 0.0013926
9350.0 0.0013885
9370.0 0.0013843
9390.0 0.0013801
9410.0 0.0013761
9430.0 0.0013719
9450.0 0.001366
9470.0 0.0013607
9490.0 0.0013585
9510.0 0.0013554
9530.0 0.0013521
9550.0 0.0013486
9570.0 0.0013451
9590.0 0.0013414
9610.0 0.0013378
9630.0 0.0013341
9650.0 0.0013305
9670.0 0.0013268
9690.0 0.0013232
9710.0 0.0013196
9730.0 0.0013161
9750.0 0.0013125
9770.0 0.0013089
9790.0 0.0013054
9810.0 0.0013018
9830.0 0.0012982
9850.0 0.0012947
9870.0 0.0012911
9890.0 0.0012875
9910.0 0.0012839
9930.0 0.0012801
9950.0 0.0012665
9970.0 0.0012658
9990.0 0.0012644
10010.0 0.0012628
10030.0 0.0012603
10050.0 0.001257
10070.0 0.0012536
10090.0 0.0012503
10110.0 0.0012462
10130.0 0.0012423
10150.0 0.0012384
10170.0 0.0012343
10190.0 0.0012297
10210.0 0.0012255
10230.0 0.0012215
10250.0 0.0012169
10270.0 0.0012124
10290.0 0.0012081
10310.0 0.0012034
10330.0 0.0011983
10350.0 0.0011936
10370.0 0.0011889
10390.0 0.0011836
10410.0 0.0011784
10430.0 0.0011735
10450.0 0.0011681
10470.0 0.0011624
10490.0 0.001157
10510.0 0.0011516
10530.0 0.0011453
10550.0 0.0011393
10570.0 0.0011335
10590.0 0.0011272
10610.0 0.0011207
10630.0 0.0011144
10650.0 0.001108
10670.0 0.001101
10690.0 0.001094
10710.0 0.0010872
10730.0 0.00108
10750.0 0.0010722
10770.0 0.001065
10790.0 0.0010575
10810.0 0.0010495
10830.0 0.0010415
10850.0 0.0010338
10870.0 0.0010252
10890.0 0.0010164
10910.0 0.0010079
10930.0 0.00099897
10950.0 0.00098922
10970.0 0.00097938
10990.0 0.00096962
11010.0 0.0010231
11030.0 0.0010113
11050.0 0.00099987
11070.0 0.00098817
11090.0 0.00097571
11110.0 0.00096423
11130.0 0.00095319
11150.0 0.00094193
11170.0 0.00093088
11190.0 0.00092064
11210.0 0.00091024
11230.0 0.00089962
11250.0 0.0008895
11270.0 0.00087965
11290.0 0.00086936
11310.0 0.0008591
11330.0 0.00084951
11350.0 0.0008396
11370.0 0.00082934
11390.0 0.0008193
11410.0 0.00080921
11430.0 0.00079812
11450.0 0.00078683
11470.0 0.00077543
11490.0 0.0007632
11510.0 0.00074992
11530.0 0.00073662
11550.0 0.00072285
11570.0 0.00070793
11590.0 0.00069266
11610.0 0.00067752
11630.0 0.0006615
11650.0 0.00064489
11670.0 0.000629
11690.0 0.00061318
11710.0 0.000597
11730.0 0.0005813
11750.0 0.00056656
11770.0 0.00055169
11790.0 0.00053711
11810.0 0.00052349
11830.0 0.00051038
11850.0 0.00049713
11870.0 0.00048477
11890.0 0.00047325
11910.0 0.00046182
11930.0 0.0004507
11950.0 0.0004404
11970.0 0.00043038
11990.0 0.00042037
12010.0 0.00041101
12030.0 0.00040223
12050.0 0.00039363
12070.0 0.00038535
12090.0 0.00037802
12110.0 0.00037111
12130.0 0.00036462
12150.0 0.00035891
12170.0 0.00035397
12190.0 0.00034952
12210.0 0.00034589
12230.0 0.00034312
12250.0 0.00034108
12270.0 0.00033984
12290.0 0.00033939
12310.0 0.00033963
12330.0 0.00034067
12350.0 0.00034242
12370.0 0.00034471
12390.0 0.00034763
12410.0 0.00035138
12430.0 0.00035536
12450.0 0.00035969
12470.0 0.00036457
12490.0 0.00036972
12510.0 0.00037474
12530.0 0.00038001
12550.0 0.00038539
12570.0 0.00039037
12590.0 0.00039496
12610.0 0.00039934
12630.0 0.0004031
12650.0 0.00040588
12670.0 0.00040799
12690.0 0.00040926
12710.0 0.0004095
12730.0 0.00040879
12750.0 0.00040713
12770.0 0.0004045
12790.0 0.00040106
12810.0 0.00039681
12830.0 0.00039178
12850.0 0.00038638
12870.0 0.00038062
12890.0 0.00037441
12910.0 0.00036812
12930.0 0.00036194
12950.0 0.00035564
12970.0 0.00034936
12990.0 0.0003435
13010.0 0.00033783
13030.0 0.00033225
13050.0 0.00032695
13070.0 0.00032199
13090.0 0.00031706
13110.0 0.00031224
13130.0 0.00030767
13150.0 0.00030318
13170.0 0.0002986
13190.0 0.0002942
13210.0 0.00028997
13230.0 0.00028572
13250.0 0.00028154
13270.0 0.00027763
13290.0 0.00027385
13310.0 0.0002702
13330.0 0.00026692
13350.0 0.00026401
13370.0 0.00026139
13390.0 0.00025915
13410.0 0.00025738
13430.0 0.00025594
13450.0 0.00025481
13470.0 0.00025395
13490.0 0.00025326
13510.0 0.00025265
13530.0 0.00025202
13550.0 0.00025126
13570.0 0.00025031
13590.0 0.00024906
13610.0 0.00024749
13630.0 0.00024562
13650.0 0.00024335
13670.0 0.00024075
13690.0 0.00023795
13710.0 0.00023491
13730.0 0.00023158
13750.0 0.00022835
13770.0 0.00022516
13790.0 0.00022196
13810.0 0.00021893
13830.0 0.0002162
13850.0 0.00021361
13870.0 0.00021124
13890.0 0.00020919
13910.0 0.00020739
13930.0 0.00020575
13950.0 0.00020433
13970.0 0.00020312
13990.0 0.000202
14010.0 0.00020095
14030.0 0.00019997
14050.0 0.00019901
14070.0 0.00019797
14090.0 0.0001969
14110.0 0.00019576
14130.0 0.0001945
14150.0 0.00019309
14170.0 0.00019162
14190.0 0.00019004
14210.0 0.00018831
14230.0 0.00018652
14250.0 0.00018474
14270.0 0.00018288
14290.0 0.00018101
14310.0 0.0001793
14330.0 0.00017767
14350.0 0.00017615
14370.0 0.00017482
14390.0 0.00017371
14410.0 0.00017275
14430.0 0.000172
14450.0 0.00017146
14470.0 0.00017109
14490.0 0.00017087
14510.0 0.00017081
14530.0 0.00017086
14550.0 0.00017102
14570.0 0.0001713
14590.0 0.00017166
14610.0 0.00017214
14630.0 0.00017277
14650.0 0.00017353
14670.0 0.00017444
14690.0 0.00017555
14710.0 0.0001769
14730.0 0.00017838
14750.0 0.0001801
14770.0 0.0001821
14790.0 0.00018429
14810.0 0.00018667
14830.0 0.00018947
14850.0 0.00019251
14870.0 0.00019572
14890.0 0.00019923
14910.0 0.00020303
14930.0 0.00020681
14950.0 0.00021046
14970.0 0.00021406
14990.0 0.00021726
15010.0 0.00021988
15030.0 0.00022203
15050.0 0.00022371
15070.0 0.00022485
15090.0 0.00022567
15110.0 0.00022628
15130.0 0.00022673
15150.0 0.00022711
15170.0 0.00022746
15190.0 0.00022779
15210.0 0.00022812
15230.0 0.00022846
15250.0 0.0002288
15270.0 0.00022915
15290.0 0.00022951
15310.0 0.00022988
15330.0 0.00023025
15350.0 0.00023063
15370.0 0.00023102
15390.0 0.00023141
15410.0 0.00023181
15430.0 0.00023221
15450.0 0.00023263
15470.0 0.00023304
15490.0 0.00023347
15510.0 0.0002339
15530.0 0.00023433
15550.0 0.00023477
15570.0 0.00023522
15590.0 0.00023567
15610.0 0.00023612
15630.0 0.00023658
15650.0 0.00023704
15670.0 0.00023751
15690.0 0.00023798
15710.0 0.00023846
15730.0 0.00023894
15750.0 0.00023942
15770.0 0.0002399
15790.0 0.00024039
15810.0 0.00024088
15830.0 0.00024137
15850.0 0.00024187
15870.0 0.00024237
15890.0 0.00024287
15910.0 0.00024337
15930.0 0.00024387
15950.0 0.00024438
15970.0 0.00024488
15990.0 0.00024539
16010.0 0.00024589
16030.0 0.0002464
16050.0 0.00024691
16070.0 0.00024742
16090.0 0.00024792
16110.0 0.00024843
16130.0 0.00024894
16150.0 0.00024944
16170.0 0.00024994
16190.0 0.00025044
16210.0 0.00025094
16230.0 0.00025144
16250.0 0.00025194
16270.0 0.00025243
16290.0 0.00025292
16310.0 0.00025341
16330.0 0.00025389
16350.0 0.00025437
16370.0 0.00025485
16390.0 0.00025532
16410.0 0.00025579
16430.0 0.00025625
16450.0 0.00025671
16470.0 0.00025717
16490.0 0.00025762
16510.0 0.00025806
16530.0 0.0002585
16550.0 0.00025893
16570.0 0.00025936
16590.0 0.00025977
16610.0 0.00026019
16630.0 0.00026059
16650.0 0.00026099
16670.0 0.00026138
16690.0 0.00026176
16710.0 0.00026214
16730.0 0.0002625
16750.0 0.00026286
16770.0 0.00026321
16790.0 0.00026355
16810.0 0.00026388
16830.0 0.0002642
16850.0 0.00026451
16870.0 0.00026481
16890.0 0.00026511
16910.0 0.00026538
16930.0 0.00026565
16950.0 0.00026591
16970.0 0.00026616
16990.0 0.0002664
17010.0 0.00026662
17030.0 0.00026684
17050.0 0.00026704
17070.0 0.00026723
17090.0 0.00026741
17110.0 0.00026757
17130.0 0.00026772
17150.0 0.00026786
17170.0 0.00026799
17190.0 0.00026811
17210.0 0.00026821
17230.0 0.0002683
17250.0 0.00026837
17270.0 0.00026843
17290.0 0.00026847
17310.0 0.00026851
17330.0 0.00026852
17350.0 0.00026853
17370.0 0.00026852
17390.0 0.00026849
17410.0 0.00026845
17430.0 0.0002684
17450.0 0.00026833
17470.0 0.00026825
17490.0 0.00026815
17510.0 0.00026804
17530.0 0.00026791
17550.0 0.00026776
17570.0 0.00026761
17590.0 0.00026744
17610.0 0.00026725
17630.0 0.00026704
17650.0 0.00026682
17670.0 0.00026659
17690.0 0.00026634
17710.0 0.00026608
17730.0 0.0002658
17750.0 0.0002655
17770.0 0.00026519
17790.0 0.00026487
17810.0 0.00026453
17830.0 0.00026417
17850.0 0.0002638
17870.0 0.00026342
17890.0 0.00026302
17910.0 0.0002626
17930.0 0.00026218
17950.0 0.00026173
17970.0 0.00026127
17990.0 0.0002608
18010.0 0.00026032
18030.0 0.00025982
18050.0 0.0002593
18070.0 0.00025877
18090.0 0.00025823
18110.0 0.00025767
18130.0 0.00025711
18150.0 0.00025652
18170.0 0.00025593
18190.0 0.00025532
18210.0 0.0002547
18230.0 0.00025406
18250.0 0.00025341
18270.0 0.00025275
18290.0 0.00025208
18310.0 0.0002514
18330.0 0.0002507
18350.0 0.00025
18370.0 0.00024928
18390.0 0.00024855
18410.0 0.00024781
18430.0 0.00024705
18450.0 0.00024629
18470.0 0.00024552
18490.0 0.00024474
18510.0 0.00024394
18530.0 0.00024314
18550.0 0.00024233
18570.0 0.00024151
18590.0 0.00024067
18610.0 0.00023983
18630.0 0.00023899
18650.0 0.00023813
18670.0 0.00023726
18690.0 0.00023639
18710.0 0.00023551
18730.0 0.00023462
18750.0 0.00023373
18770.0 0.00023283
18790.0 0.00023191
18810.0 0.000231
18830.0 0.00023008
18850.0 0.00022915
18870.0 0.00022821
18890.0 0.00022728
18910.0 0.00022633
18930.0 0.00022538
18950.0 0.00022443
18970.0 0.00022347
18990.0 0.00022251
19010.0 0.00022154
19030.0 0.00022057
19050.0 0.00021959
19070.0 0.00021861
19090.0 0.00021763
19110.0 0.00021665
19130.0 0.00021566
19150.0 0.00021466
19170.0 0.00021367
19190.0 0.00021268
19210.0 0.00021168
19230.0 0.00021068
19250.0 0.00020968
19270.0 0.00020868
19290.0 0.00020768
19310.0 0.00020668
19330.0 0.00020567
19350.0 0.00020466
19370.0 0.00020366
19390.0 0.00020266
19410.0 0.00020165
19430.0 0.00020064
19450.0 0.00019964
19470.0 0.00019864
19490.0 0.00019763
19510.0 0.00019663
19530.0 0.00019563
19550.0 0.00019463
19570.0 0.00019363
19590.0 0.00019264
19610.0 0.00019164
19630.0 0.00019065
19650.0 0.00018966
19670.0 0.00018867
19690.0 0.00018769
19710.0 0.0001867
19730.0 0.00018572
19750.0 0.00018475
19770.0 0.00018377
19790.0 0.0001828
19810.0 0.00018183
19830.0 0.00018086
19850.0 0.00017988
19870.0 0.00017889
19890.0 0.00017787
19910.0 0.00017678
19930.0 0.00017559
19950.0 0.00017426
19970.0 0.00017267
19990.0 0.0001708
20010.0 0.00016868
20030.0 0.00016621
20050.0 0.00016341
20070.0 0.00016043
20090.0 0.00015731
20110.0 0.00015393
20130.0 0.00015059
20150.0 0.00014734
20170.0 0.00014408
20190.0 0.00014086
20210.0 0.00013783
20230.0 0.00013491
20250.0 0.000132
20270.0 0.00012927
20290.0 0.00012671
20310.0 0.00012421
20330.0 0.00012177
20350.0 0.00011958
20370.0 0.00011747
20390.0 0.00011542
20410.0 0.00011351
20430.0 0.00011175
20450.0 0.00011002
20470.0 0.00010839
20490.0 0.00010691
20510.0 0.00010551
20530.0 0.00010418
20550.0 0.00010297
20570.0 0.00010187
20590.0 0.00010084
20610.0 9.9903e-05
20630.0 9.9063e-05
20650.0 9.8298e-05
20670.0 9.7601e-05
20690.0 9.6986e-05
20710.0 9.6436e-05
20730.0 9.5941e-05
20750.0 9.55e-05
20770.0 9.5098e-05
20790.0 9.4732e-05
20810.0 9.4396e-05
20830.0 9.4076e-05
20850.0 9.3764e-05
20870.0 9.3461e-05
20890.0 9.3152e-05
20910.0 9.2824e-05
20930.0 9.2481e-05
20950.0 9.2112e-05
20970.0 9.1711e-05
20990.0 9.1276e-05
21010.0 9.0802e-05
21030.0 9.0284e-05
21050.0 8.9728e-05
21070.0 8.9126e-05
21090.0 8.8471e-05
21110.0 8.7785e-05
21130.0 8.7065e-05
21150.0 8.6295e-05
21170.0 8.5493e-05
21190.0 8.4677e-05
21210.0 8.3817e-05
21230.0 8.2921e-05
21250.0 8.2028e-05
21270.0 8.1123e-05
21290.0 8.0187e-05
21310.0 7.925e-05
21330.0 7.834e-05
21350.0 7.7412e-05
21370.0 7.6485e-05
21390.0 7.5591e-05
21410.0 7.4719e-05
21430.0 7.3841e-05
21450.0 7.3013e-05
21470.0 7.2236e-05
21490.0 7.1486e-05
21510.0 7.0777e-05
21530.0 7.0134e-05
21550.0 6.9541e-05
21570.0 6.8993e-05
21590.0 6.8512e-05
21610.0 6.8092e-05
21630.0 6.7729e-05
21650.0 6.7427e-05
21670.0 6.7183e-05
21690.0 6.6991e-05
21710.0 6.6854e-05
21730.0 6.6762e-05
21750.0 6.6701e-05
21770.0 6.6691e-05
21790.0 6.6709e-05
21810.0 6.6739e-05
21830.0 6.6786e-05
21850.0 6.6855e-05
21870.0 6.6916e-05
21890.0 6.6963e-05
21910.0 6.7013e-05
21930.0 6.7049e-05
21950.0 6.7056e-05
21970.0 6.7046e-05
21990.0 6.7022e-05
22010.0 6.696e-05
22030.0 6.6869e-05
22050.0 6.6758e-05
22070.0 6.6619e-05
22090.0 6.6452e-05
22110.0 6.6264e-05
22130.0 6.6055e-05
22150.0 6.5826e-05
22170.0 6.5581e-05
22190.0 6.5318e-05
22210.0 6.504e-05
22230.0 6.475e-05
22250.0 6.4447e-05
22270.0 6.4127e-05
22290.0 6.3795e-05
22310.0 6.345e-05
22330.0 6.3079e-05
22350.0 6.2689e-05
22370.0 6.2282e-05
22390.0 6.1843e-05
22410.0 6.1365e-05
22430.0 6.0867e-05
22450.0 6.0336e-05
22470.0 5.9756e-05
22490.0 5.9139e-05
22510.0 5.8501e-05
22530.0 5.7804e-05
22550.0 5.7059e-05
22570.0 5.6303e-05
22590.0 5.5518e-05
22610.0 5.4686e-05
22630.0 5.3843e-05
22650.0 5.3015e-05
22670.0 5.2156e-05
22690.0 5.129e-05
22710.0 5.0457e-05
22730.0 4.9639e-05
22750.0 4.8806e-05
22770.0 4.8026e-05
22790.0 4.7296e-05
22810.0 4.6584e-05
22830.0 4.5906e-05
22850.0 4.5291e-05
22870.0 4.471e-05
22890.0 4.4155e-05
22910.0 4.3652e-05
22930.0 4.3195e-05
22950.0 4.2763e-05
22970.0 4.2357e-05
22990.0 4.1998e-05
