#lamb flux
1010.0 4.7502e-05
1030.0 4.7502e-05
1050.0 4.7502e-05
1070.0 4.7502e-05
1090.0 4.7502e-05
1110.0 4.7502e-05
1130.0 4.7502e-05
1150.0 4.7502e-05
1170.0 4.7502e-05
1190.0 4.7502e-05
1210.0 4.7502e-05
1230.0 4.7502e-05
1250.0 4.7502e-05
1270.0 4.7502e-05
1290.0 4.7502e-05
1310.0 4.7502e-05
1330.0 4.7502e-05
1350.0 4.7502e-05
1370.0 4.7502e-05
1390.0 4.7502e-05
1410.0 4.7502e-05
1430.0 4.7502e-05
1450.0 5.2677e-05
1470.0 5.9867e-05
1490.0 6.7964e-05
1510.0 7.7117e-05
1530.0 8.7069e-05
1550.0 9.7955e-05
1570.0 0.00011
1590.0 0.00012319
1610.0 0.00013736
1630.0 0.00015268
1650.0 0.0001695
1670.0 0.00018763
1690.0 0.00020722
1710.0 0.00022862
1730.0 0.00025173
1750.0 0.00027614
1770.0 0.00030239
1790.0 0.00033044
1810.0 0.0003598
1830.0 0.00039045
1850.0 0.00042292
1870.0 0.00045628
1890.0 0.00049017
1910.0 0.00052485
1930.0 0.00056011
1950.0 0.00059483
1970.0 0.00062902
1990.0 0.00066294
2010.0 0.0006956
2030.0 0.00072639
2050.0 0.00075585
2070.0 0.00078366
2090.0 0.00080842
2110.0 0.00083066
2130.0 0.00085069
2150.0 0.00086772
2170.0 0.00088134
2190.0 0.00089266
2210.0 0.00090129
2230.0 0.00090668
2250.0 0.00090943
2270.0 0.00091036
2290.0 0.00090861
2310.0 0.00090429
2330.0 0.00089856
2350.0 0.00089135
2370.0 0.00088229
2390.0 0.00087229
2410.0 0.00086208
2430.0 0.00085101
2450.0 0.00083952
2470.0 0.00082855
2490.0 0.00081844
2510.0 0.00080901
2530.0 0.00080262
2550.0 0.00080239
2570.0 0.00081104
2590.0 0.00083207
2610.0 0.00087506
2630.0 0.00094195
2650.0 0.0010289
2670.0 0.0011389
2690.0 0.0012706
2710.0 0.0014088
2730.0 0.0015478
2750.0 0.0016949
2770.0 0.0018409
2790.0 0.0019818
2810.0 0.0021273
2830.0 0.0022858
2850.0 0.0024421
2870.0 0.0026049
2890.0 0.002782
2910.0 0.0029679
2930.0 0.003156
2950.0 0.0033598
2970.0 0.0035779
2990.0 0.0038008
3010.0 0.0040328
3030.0 0.0042823
3050.0 0.004541
3070.0 0.0047946
3090.0 0.0050523
3110.0 0.0053
3130.0 0.0055174
3150.0 0.0056953
3170.0 0.0058218
3190.0 0.0058797
3210.0 0.0058576
3230.0 0.0057805
3250.0 0.0057514
3270.0 0.0058298
3290.0 0.0059835
3310.0 0.0061747
3330.0 0.0064108
3350.0 0.0066767
3370.0 0.0069763
3390.0 0.007326
3410.0 0.0076582
3430.0 0.008176
3450.0 0.008589
3470.0 0.009022
3490.0 0.009389
3510.0 0.0098343
3530.0 0.011308
3550.0 0.013367
3570.0 0.014625
3590.0 0.015174
3610.0 0.015231
3630.0 0.014764
3650.0 0.015955
3670.0 0.018977
3690.0 0.021368
3710.0 0.022638
3730.0 0.023697
3750.0 0.02486
3770.0 0.024656
3790.0 0.023357
3810.0 0.02187
3830.0 0.020374
3850.0 0.020231
3870.0 0.0219
3890.0 0.023634
3910.0 0.024831
3930.0 0.025588
3950.0 0.027838
3970.0 0.029933
3990.0 0.028605
4010.0 0.025166
4030.0 0.022044
4050.0 0.021109
4070.0 0.021642
4090.0 0.021648
4110.0 0.02117
4130.0 0.020819
4150.0 0.021035
4170.0 0.022921
4190.0 0.02517
4210.0 0.024888
4230.0 0.023543
4250.0 0.022949
4270.0 0.022934
4290.0 0.023916
4310.0 0.024965
4330.0 0.023768
4350.0 0.02062
4370.0 0.018053
4390.0 0.016224
4410.0 0.014669
4430.0 0.014582
4450.0 0.015828
4470.0 0.016925
4490.0 0.018384
4510.0 0.021034
4530.0 0.026609
4550.0 0.03381
4570.0 0.038121
4590.0 0.040639
4610.0 0.044633
4630.0 0.047502
4650.0 0.044432
4670.0 0.036429
4690.0 0.029809
4710.0 0.027101
4730.0 0.026305
4750.0 0.024251
4770.0 0.02249
4790.0 0.02363
4810.0 0.025838
4830.0 0.026092
4850.0 0.024382
4870.0 0.023658
4890.0 0.025237
4910.0 0.026846
4930.0 0.027046
4950.0 0.026115
4970.0 0.024479
4990.0 0.022129
5010.0 0.020035
5030.0 0.018816
5050.0 0.018255
5070.0 0.017805
5090.0 0.017279
5110.0 0.017128
5130.0 0.017232
5150.0 0.018039
5170.0 0.020048
5190.0 0.022604
5210.0 0.025521
5230.0 0.027453
5250.0 0.028464
5270.0 0.030058
5290.0 0.031949
5310.0 0.032692
5330.0 0.031506
5350.0 0.02978
5370.0 0.02974
5390.0 0.031884
5410.0 0.034595
5430.0 0.036284
5450.0 0.036672
5470.0 0.035897
5490.0 0.034542
5510.0 0.033643
5530.0 0.033493
5550.0 0.033748
5570.0 0.033866
5590.0 0.033086
5610.0 0.031596
5630.0 0.029532
5650.0 0.027345
5670.0 0.026003
5690.0 0.025323
5710.0 0.024967
5730.0 0.025105
5750.0 0.024901
5770.0 0.024424
5790.0 0.024532
5810.0 0.02476
5830.0 0.02508
5850.0 0.025305
5870.0 0.02485
5890.0 0.023835
5910.0 0.022457
5930.0 0.020306
5950.0 0.018532
5970.0 0.018136
5990.0 0.01879
6010.0 0.019231
6030.0 0.01859
6050.0 0.017972
6070.0 0.018651
6090.0 0.020098
6110.0 0.020944
6130.0 0.020425
6150.0 0.019244
6170.0 0.018396
6190.0 0.017609
6210.0 0.016556
6230.0 0.015457
6250.0 0.014935
6270.0 0.015265
6290.0 0.015852
6310.0 0.016788
6330.0 0.018151
6350.0 0.019604
6370.0 0.020415
6390.0 0.020616
6410.0 0.020817
6430.0 0.02102
6450.0 0.021248
6470.0 0.021667
6490.0 0.022122
6510.0 0.02244
6530.0 0.022435
6550.0 0.022081
6570.0 0.021333
6590.0 0.020343
6610.0 0.019635
6630.0 0.019228
6650.0 0.018627
6670.0 0.017786
6690.0 0.017068
6710.0 0.016695
6730.0 0.016523
6750.0 0.016271
6770.0 0.015963
6790.0 0.015704
6810.0 0.015378
6830.0 0.015195
6850.0 0.01546
6870.0 0.015628
6890.0 0.015469
6910.0 0.01513
6930.0 0.014813
6950.0 0.014539
6970.0 0.014046
6990.0 0.013511
7010.0 0.013277
7030.0 0.013145
7050.0 0.012758
7070.0 0.012185
7090.0 0.011941
7110.0 0.012244
7130.0 0.012992
7150.0 0.013795
7170.0 0.014314
7190.0 0.014213
7210.0 0.013657
7230.0 0.0133
7250.0 0.013272
7270.0 0.013239
7290.0 0.01313
7310.0 0.013227
7330.0 0.013622
7350.0 0.01414
7370.0 0.014458
7390.0 0.014417
7410.0 0.014105
7430.0 0.013695
7450.0 0.013218
7470.0 0.012588
7490.0 0.012153
7510.0 0.011776
7530.0 0.011549
7550.0 0.011616
7570.0 0.011745
7590.0 0.011825
7610.0 0.011773
7630.0 0.011707
7650.0 0.01179
7670.0 0.012083
7690.0 0.012455
7710.0 0.012888
7730.0 0.01322
7750.0 0.013613
7770.0 0.013899
7790.0 0.014052
7810.0 0.014053
7830.0 0.014036
7850.0 0.013777
7870.0 0.013174
7890.0 0.01255
7910.0 0.012152
7930.0 0.011861
7950.0 0.011582
7970.0 0.011438
7990.0 0.011497
8010.0 0.011051
8030.0 0.010928
8050.0 0.01077
8070.0 0.010576
8090.0 0.01038
8110.0 0.010367
8130.0 0.010415
8150.0 0.010367
8170.0 0.01028
8190.0 0.010006
8210.0 0.0094253
8230.0 0.0087943
8250.0 0.0084293
8270.0 0.0081472
8290.0 0.0078575
8310.0 0.0077181
8330.0 0.0076925
8350.0 0.0074934
8370.0 0.0073879
8390.0 0.007624
8410.0 0.0080606
8430.0 0.0086252
8450.0 0.0092176
8470.0 0.0095564
8490.0 0.0098545
8510.0 0.010061
8530.0 0.010267
8550.0 0.010472
8570.0 0.010606
8590.0 0.010725
8610.0 0.011
8630.0 0.011109
8650.0 0.010883
8670.0 0.010883
8690.0 0.011052
8710.0 0.011208
8730.0 0.011174
8750.0 0.010898
8770.0 0.010786
8790.0 0.010728
8810.0 0.010547
8830.0 0.0098524
8850.0 0.0089854
8870.0 0.0083643
8890.0 0.0080487
8910.0 0.0076173
8930.0 0.00708
8950.0 0.0067329
8970.0 0.0066697
8990.0 0.0067299
9010.0 0.0067216
9030.0 0.0066716
9050.0 0.0066257
9070.0 0.006587
9090.0 0.0065497
9110.0 0.0065128
9130.0 0.0064759
9150.0 0.0064394
9170.0 0.006403
9190.0 0.0063668
9210.0 0.0063307
9230.0 0.0062949
9250.0 0.0062595
9270.0 0.0062241
9290.0 0.006189
9310.0 0.0061541
9330.0 0.0061194
9350.0 0.006085
9370.0 0.0060507
9390.0 0.0060167
9410.0 0.0059827
9430.0 0.0059485
9450.0 0.0059119
9470.0 0.0058764
9490.0 0.0058463
9510.0 0.0058147
9530.0 0.0057833
9550.0 0.0057512
9570.0 0.0057191
9590.0 0.0056874
9610.0 0.0056556
9630.0 0.0056238
9650.0 0.0055923
9670.0 0.0055613
9690.0 0.0055301
9710.0 0.005499
9730.0 0.0054683
9750.0 0.0054377
9770.0 0.0054069
9790.0 0.0053765
9810.0 0.0053465
9830.0 0.0053159
9850.0 0.0052833
9870.0 0.0052542
9890.0 0.0052253
9910.0 0.005196
9930.0 0.0051667
9950.0 0.0051377
9970.0 0.0051083
9990.0 0.0050783
10010.0 0.0050456
10030.0 0.005015
10050.0 0.0049877
10070.0 0.0049601
10090.0 0.0049323
10110.0 0.0049019
10130.0 0.0048623
10150.0 0.0048353
10170.0 0.0048104
10190.0 0.0047829
10210.0 0.0047559
10230.0 0.0047287
10250.0 0.0046995
10270.0 0.0046703
10290.0 0.0046422
10310.0 0.0046127
10330.0 0.0045821
10350.0 0.0045531
10370.0 0.0045241
10390.0 0.0044937
10410.0 0.0044635
10430.0 0.0044348
10450.0 0.0044048
10470.0 0.0043739
10490.0 0.0043442
10510.0 0.0043145
10530.0 0.0042827
10550.0 0.0042516
10570.0 0.0042218
10590.0 0.0041907
10610.0 0.0041588
10630.0 0.0041283
10650.0 0.0040974
10670.0 0.0040647
10690.0 0.0040327
10710.0 0.0040014
10730.0 0.0039688
10750.0 0.0039349
10770.0 0.0039032
10790.0 0.0038709
10810.0 0.0038371
10830.0 0.0038038
10850.0 0.0037716
10870.0 0.003737
10890.0 0.0037023
10910.0 0.0036691
10930.0 0.0036356
10950.0 0.0036009
10970.0 0.0035674
10990.0 0.0035357
11010.0 0.0034323
11030.0 0.0033992
11050.0 0.0033682
11070.0 0.0033377
11090.0 0.0033063
11110.0 0.0032775
11130.0 0.00325
11150.0 0.0032227
11170.0 0.0031967
11190.0 0.0031733
11210.0 0.0031508
11230.0 0.0031295
11250.0 0.0031106
11270.0 0.0030936
11290.0 0.0030776
11310.0 0.0030633
11330.0 0.0030511
11350.0 0.0030398
11370.0 0.0030292
11390.0 0.0030196
11410.0 0.0030106
11430.0 0.0030013
11450.0 0.002992
11470.0 0.0029826
11490.0 0.0029724
11510.0 0.002961
11530.0 0.0029491
11550.0 0.0029361
11570.0 0.0029212
11590.0 0.0029049
11610.0 0.0028876
11630.0 0.002868
11650.0 0.002846
11670.0 0.002823
11690.0 0.0027982
11710.0 0.0027707
11730.0 0.0027414
11750.0 0.0027115
11770.0 0.0026787
11790.0 0.0026437
11810.0 0.0026082
11830.0 0.0025714
11850.0 0.0025315
11870.0 0.0024917
11890.0 0.0024526
11910.0 0.0024119
11930.0 0.0023707
11950.0 0.0023314
11970.0 0.0022923
11990.0 0.0022525
12010.0 0.0022149
12030.0 0.0021793
12050.0 0.002144
12070.0 0.0021097
12090.0 0.0020789
12110.0 0.0020493
12130.0 0.0020206
12150.0 0.0019944
12170.0 0.0019707
12190.0 0.0019477
12210.0 0.001927
12230.0 0.0019093
12250.0 0.0018935
12270.0 0.0018797
12290.0 0.0018685
12310.0 0.0018597
12330.0 0.0018528
12350.0 0.0018479
12370.0 0.0018448
12390.0 0.0018432
12410.0 0.0018431
12430.0 0.001844
12450.0 0.0018455
12470.0 0.0018478
12490.0 0.0018504
12510.0 0.0018528
12530.0 0.0018552
12550.0 0.0018575
12570.0 0.0018591
12590.0 0.0018598
12610.0 0.0018598
12630.0 0.0018586
12650.0 0.0018559
12670.0 0.0018519
12690.0 0.0018461
12710.0 0.0018387
12730.0 0.0018297
12750.0 0.0018185
12770.0 0.0018058
12790.0 0.0017917
12810.0 0.0017761
12830.0 0.0017588
12850.0 0.0017412
12870.0 0.0017229
12890.0 0.0017036
12910.0 0.0016843
12930.0 0.0016655
12950.0 0.0016462
12970.0 0.0016268
12990.0 0.0016087
13010.0 0.001591
13030.0 0.0015734
13050.0 0.0015566
13070.0 0.0015409
13090.0 0.0015252
13110.0 0.00151
13130.0 0.0014958
13150.0 0.0014822
13170.0 0.0014686
13190.0 0.001456
13210.0 0.0014444
13230.0 0.001433
13250.0 0.0014221
13270.0 0.0014122
13290.0 0.0014027
13310.0 0.0013933
13330.0 0.0013845
13350.0 0.0013762
13370.0 0.0013677
13390.0 0.0013593
13410.0 0.0013511
13430.0 0.0013426
13450.0 0.0013337
13470.0 0.0013245
13490.0 0.0013152
13510.0 0.0013048
13530.0 0.0012941
13550.0 0.0012832
13570.0 0.0012717
13590.0 0.0012595
13610.0 0.0012471
13630.0 0.0012348
13650.0 0.0012218
13670.0 0.0012086
13690.0 0.0011958
13710.0 0.0011827
13730.0 0.001169
13750.0 0.0011561
13770.0 0.0011434
13790.0 0.0011304
13810.0 0.0011176
13830.0 0.0011054
13850.0 0.001093
13870.0 0.0010807
13890.0 0.0010689
13910.0 0.0010576
13930.0 0.0010461
13950.0 0.0010351
13970.0 0.001025
13990.0 0.001015
14010.0 0.0010053
14030.0 0.00099634
14050.0 0.00098781
14070.0 0.00097924
14090.0 0.00097125
14110.0 0.00096379
14130.0 0.00095645
14150.0 0.00094922
14170.0 0.00094256
14190.0 0.00093611
14210.0 0.00092964
14230.0 0.00092348
14250.0 0.00091767
14270.0 0.00091182
14290.0 0.00090606
14310.0 0.00090075
14330.0 0.00089558
14350.0 0.00089041
14370.0 0.00088551
14390.0 0.00088094
14410.0 0.00087631
14430.0 0.00087182
14450.0 0.00086764
14470.0 0.00086357
14490.0 0.00085943
14510.0 0.00085555
14530.0 0.00085187
14550.0 0.00084808
14570.0 0.00084427
14590.0 0.00084059
14610.0 0.00083675
14630.0 0.00083264
14650.0 0.00082857
14670.0 0.00082451
14690.0 0.00082029
14710.0 0.00081611
14730.0 0.00081245
14750.0 0.00080911
14770.0 0.00080633
14790.0 0.0008045
14810.0 0.00080376
14830.0 0.00080428
14850.0 0.00080635
14870.0 0.00080991
14890.0 0.00081503
14910.0 0.00082171
14930.0 0.00082924
14950.0 0.00083719
14970.0 0.00084548
14990.0 0.00085317
15010.0 0.00085973
15030.0 0.00086523
15050.0 0.00086958
15070.0 0.00087264
15090.0 0.00087488
15110.0 0.00087656
15130.0 0.00087787
15150.0 0.000879
15170.0 0.00088003
15190.0 0.00088102
15210.0 0.00088205
15230.0 0.00088309
15250.0 0.00088414
15270.0 0.00088523
15290.0 0.00088636
15310.0 0.00088751
15330.0 0.00088869
15350.0 0.0008899
15370.0 0.00089115
15390.0 0.00089239
15410.0 0.00089368
15430.0 0.00089501
15450.0 0.00089635
15470.0 0.00089771
15490.0 0.00089911
15510.0 0.00090054
15530.0 0.00090198
15550.0 0.00090345
15570.0 0.00090495
15590.0 0.00090646
15610.0 0.00090799
15630.0 0.00090956
15650.0 0.00091116
15670.0 0.00091275
15690.0 0.00091438
15710.0 0.00091605
15730.0 0.00091771
15750.0 0.0009194
15770.0 0.00092112
15790.0 0.00092285
15810.0 0.00092458
15830.0 0.00092635
15850.0 0.00092815
15870.0 0.00092995
15890.0 0.00093176
15910.0 0.00093361
15930.0 0.00093546
15950.0 0.00093731
15970.0 0.00093919
15990.0 0.0009411
16010.0 0.000943
16030.0 0.00094491
16050.0 0.00094686
16070.0 0.00094881
16090.0 0.00095075
16110.0 0.00095272
16130.0 0.00095472
16150.0 0.00095669
16170.0 0.00095867
16190.0 0.00096069
16210.0 0.00096271
16230.0 0.00096471
16250.0 0.00096674
16270.0 0.00096879
16290.0 0.00097082
16310.0 0.00097286
16330.0 0.00097492
16350.0 0.00097697
16370.0 0.00097899
16390.0 0.00098106
16410.0 0.00098313
16430.0 0.00098517
16450.0 0.00098723
16470.0 0.00098931
16490.0 0.00099136
16510.0 0.0009934
16530.0 0.00099546
16550.0 0.00099751
16570.0 0.00099954
16590.0 0.0010016
16610.0 0.0010036
16630.0 0.0010057
16650.0 0.0010077
16670.0 0.0010097
16690.0 0.0010117
16710.0 0.0010137
16730.0 0.0010157
16750.0 0.0010177
16770.0 0.0010196
16790.0 0.0010216
16810.0 0.0010235
16830.0 0.0010255
16850.0 0.0010274
16870.0 0.0010293
16890.0 0.0010312
16910.0 0.0010331
16930.0 0.0010349
16950.0 0.0010368
16970.0 0.0010386
16990.0 0.0010404
17010.0 0.0010422
17030.0 0.0010439
17050.0 0.0010457
17070.0 0.0010474
17090.0 0.0010491
17110.0 0.0010508
17130.0 0.0010524
17150.0 0.001054
17170.0 0.0010557
17190.0 0.0010572
17210.0 0.0010588
17230.0 0.0010603
17250.0 0.0010618
17270.0 0.0010632
17290.0 0.0010647
17310.0 0.0010661
17330.0 0.0010675
17350.0 0.0010688
17370.0 0.0010701
17390.0 0.0010714
17410.0 0.0010726
17430.0 0.0010738
17450.0 0.001075
17470.0 0.0010761
17490.0 0.0010772
17510.0 0.0010783
17530.0 0.0010793
17550.0 0.0010803
17570.0 0.0010813
17590.0 0.0010822
17610.0 0.001083
17630.0 0.0010839
17650.0 0.0010847
17670.0 0.0010854
17690.0 0.0010861
17710.0 0.0010868
17730.0 0.0010874
17750.0 0.0010879
17770.0 0.0010885
17790.0 0.001089
17810.0 0.0010894
17830.0 0.0010897
17850.0 0.0010901
17870.0 0.0010904
17890.0 0.0010906
17910.0 0.0010908
17930.0 0.001091
17950.0 0.0010911
17970.0 0.0010911
17990.0 0.0010911
18010.0 0.0010911
18030.0 0.0010909
18050.0 0.0010908
18070.0 0.0010906
18090.0 0.0010903
18110.0 0.00109
18130.0 0.0010896
18150.0 0.0010892
18170.0 0.0010887
18190.0 0.0010882
18210.0 0.0010876
18230.0 0.001087
18250.0 0.0010863
18270.0 0.0010855
18290.0 0.0010847
18310.0 0.0010839
18330.0 0.0010829
18350.0 0.001082
18370.0 0.001081
18390.0 0.0010799
18410.0 0.0010787
18430.0 0.0010776
18450.0 0.0010763
18470.0 0.001075
18490.0 0.0010736
18510.0 0.0010722
18530.0 0.0010707
18550.0 0.0010692
18570.0 0.0010676
18590.0 0.001066
18610.0 0.0010643
18630.0 0.0010625
18650.0 0.0010607
18670.0 0.0010588
18690.0 0.0010569
18710.0 0.0010549
18730.0 0.0010529
18750.0 0.0010508
18770.0 0.0010487
18790.0 0.0010465
18810.0 0.0010442
18830.0 0.0010419
18850.0 0.0010395
18870.0 0.0010371
18890.0 0.0010346
18910.0 0.0010321
18930.0 0.0010295
18950.0 0.0010269
18970.0 0.0010242
18990.0 0.0010215
19010.0 0.0010187
19030.0 0.0010159
19050.0 0.001013
19070.0 0.00101
19090.0 0.001007
19110.0 0.001004
19130.0 0.0010009
19150.0 0.00099777
19170.0 0.0009946
19190.0 0.00099138
19210.0 0.00098808
19230.0 0.00098475
19250.0 0.0009814
19270.0 0.00097798
19290.0 0.00097451
19310.0 0.00097102
19330.0 0.00096748
19350.0 0.00096386
19370.0 0.00096022
19390.0 0.00095656
19410.0 0.00095284
19430.0 0.00094907
19450.0 0.00094529
19470.0 0.00094145
19490.0 0.00093756
19510.0 0.00093365
19530.0 0.00092972
19550.0 0.00092572
19570.0 0.00092168
19590.0 0.00091763
19610.0 0.00091354
19630.0 0.0009094
19650.0 0.00090525
19670.0 0.00090107
19690.0 0.00089684
19710.0 0.00089257
19730.0 0.0008883
19750.0 0.00088399
19770.0 0.00087962
19790.0 0.00087526
19810.0 0.00087087
19830.0 0.00086642
19850.0 0.00086192
19870.0 0.00085736
19890.0 0.00085262
19910.0 0.0008476
19930.0 0.00084222
19950.0 0.00083627
19970.0 0.00082942
19990.0 0.00082152
20010.0 0.00081274
20030.0 0.00080266
20050.0 0.00079136
20070.0 0.0007794
20090.0 0.00076686
20110.0 0.00075331
20130.0 0.00073981
20150.0 0.00072655
20170.0 0.00071309
20190.0 0.00069962
20210.0 0.00068676
20230.0 0.00067414
20250.0 0.00066146
20270.0 0.00064932
20290.0 0.00063777
20310.0 0.0006264
20330.0 0.00061523
20350.0 0.00060502
20370.0 0.00059518
20390.0 0.00058564
20410.0 0.00057673
20430.0 0.00056849
20450.0 0.00056048
20470.0 0.00055302
20490.0 0.00054619
20510.0 0.0005398
20530.0 0.00053379
20550.0 0.00052829
20570.0 0.00052326
20590.0 0.00051853
20610.0 0.00051416
20630.0 0.00051013
20650.0 0.00050636
20670.0 0.00050281
20690.0 0.00049947
20710.0 0.00049627
20730.0 0.00049317
20750.0 0.00049014
20770.0 0.00048711
20790.0 0.00048407
20810.0 0.00048098
20830.0 0.00047778
20850.0 0.00047446
20870.0 0.00047098
20890.0 0.00046732
20910.0 0.00046348
20930.0 0.00045943
20950.0 0.00045514
20970.0 0.00045067
20990.0 0.00044602
21010.0 0.00044108
21030.0 0.00043596
21050.0 0.00043073
21070.0 0.0004253
21090.0 0.00041963
21110.0 0.00041396
21130.0 0.00040822
21150.0 0.00040231
21170.0 0.00039636
21190.0 0.0003905
21210.0 0.00038452
21230.0 0.00037849
21250.0 0.00037261
21270.0 0.0003668
21290.0 0.00036095
21310.0 0.00035521
21330.0 0.0003497
21350.0 0.00034419
21370.0 0.00033877
21390.0 0.00033356
21410.0 0.0003285
21430.0 0.00032345
21450.0 0.00031863
21470.0 0.00031403
21490.0 0.00030953
21510.0 0.00030515
21530.0 0.00030101
21550.0 0.000297
21570.0 0.00029308
21590.0 0.00028934
21610.0 0.00028576
21630.0 0.00028227
21650.0 0.00027887
21670.0 0.00027563
21690.0 0.00027248
21710.0 0.00026937
21730.0 0.00026636
21750.0 0.00026342
21770.0 0.00026048
21790.0 0.00025759
21810.0 0.00025474
21830.0 0.0002519
21850.0 0.00024905
21870.0 0.00024621
21890.0 0.00024339
21910.0 0.00024053
21930.0 0.00023765
21950.0 0.00023479
21970.0 0.00023189
21990.0 0.00022893
22010.0 0.00022599
22030.0 0.00022305
22050.0 0.00022005
22070.0 0.00021703
22090.0 0.00021403
22110.0 0.000211
22130.0 0.00020792
22150.0 0.00020487
22170.0 0.00020181
22190.0 0.0001987
22210.0 0.00019558
22230.0 0.00019252
22250.0 0.00018942
22270.0 0.00018629
22290.0 0.00018321
22310.0 0.00018015
22330.0 0.00017702
22350.0 0.00017393
22370.0 0.00017088
22390.0 0.00016782
22410.0 0.00016471
22430.0 0.0001617
22450.0 0.00015871
22470.0 0.00015569
22490.0 0.0001527
22510.0 0.0001498
22530.0 0.00014685
22550.0 0.00014392
22570.0 0.00014109
22590.0 0.00013829
22610.0 0.0001355
22630.0 0.00013277
22650.0 0.00013016
22670.0 0.00012756
22690.0 0.00012502
22710.0 0.00012259
22730.0 0.00012024
22750.0 0.00011791
22770.0 0.0001157
22790.0 0.0001136
22810.0 0.00011157
22830.0 0.00010961
22850.0 0.00010777
22870.0 0.00010601
22890.0 0.00010431
22910.0 0.00010272
22930.0 0.00010121
22950.0 9.9776e-05
22970.0 9.8413e-05
22990.0 9.7139e-05
23010.0 9.5926e-05
23030.0 9.4772e-05
23050.0 9.3674e-05
23070.0 9.262e-05
23090.0 9.1602e-05
23110.0 9.061e-05
23130.0 8.9632e-05
23150.0 8.8659e-05
23170.0 8.768e-05
23190.0 8.6685e-05
23210.0 8.5668e-05
23230.0 8.4619e-05
23250.0 8.3531e-05
23270.0 8.2407e-05
23290.0 8.1235e-05
23310.0 8e-05
23330.0 7.8728e-05
23350.0 7.7414e-05
23370.0 7.6038e-05
23390.0 7.462e-05
23410.0 7.3187e-05
23430.0 7.171e-05
23450.0 7.0187e-05
23470.0 6.8668e-05
23490.0 6.7152e-05
23510.0 6.5614e-05
23530.0 6.4099e-05
23550.0 6.2643e-05
23570.0 6.1209e-05
23590.0 5.9816e-05
23610.0 5.8502e-05
23630.0 5.7261e-05
23650.0 5.6084e-05
