#lamb flux
1010.0 1.8165e-09
1030.0 2.009e-09
1050.0 2.2305e-09
1070.0 2.4798e-09
1090.0 2.763e-09
1110.0 3.0535e-09
1130.0 3.3458e-09
1150.0 3.652e-09
1170.0 3.9679e-09
1190.0 4.2674e-09
1210.0 4.571e-09
1230.0 4.8847e-09
1250.0 5.192e-09
1270.0 5.4905e-09
1290.0 5.8059e-09
1310.0 6.1211e-09
1330.0 6.4233e-09
1350.0 6.729e-09
1370.0 7.0445e-09
1390.0 7.3522e-09
1410.0 7.6507e-09
1430.0 7.9628e-09
1450.0 8.2749e-09
1470.0 8.5766e-09
1490.0 8.8815e-09
1510.0 9.2036e-09
1530.0 9.5088e-09
1550.0 9.81e-09
1570.0 1.0122e-08
1590.0 1.0434e-08
1610.0 1.0732e-08
1630.0 1.1039e-08
1650.0 1.1355e-08
1670.0 1.1661e-08
1690.0 1.1963e-08
1710.0 1.2276e-08
1730.0 1.2592e-08
1750.0 1.2889e-08
1770.0 1.3196e-08
1790.0 1.3508e-08
1810.0 1.3811e-08
1830.0 1.411e-08
1850.0 1.4427e-08
1870.0 1.4736e-08
1890.0 1.5036e-08
1910.0 1.5342e-08
1930.0 1.5656e-08
1950.0 1.5956e-08
1970.0 1.6254e-08
1990.0 1.6563e-08
2010.0 1.6868e-08
2030.0 1.7163e-08
2050.0 1.7468e-08
2070.0 1.778e-08
2090.0 1.8076e-08
2110.0 1.8372e-08
2130.0 1.8677e-08
2150.0 1.8977e-08
2170.0 1.9264e-08
2190.0 1.9563e-08
2210.0 1.9864e-08
2230.0 2.0154e-08
2250.0 2.0442e-08
2270.0 2.0745e-08
2290.0 2.1038e-08
2310.0 2.1319e-08
2330.0 2.1612e-08
2350.0 2.1913e-08
2370.0 2.2213e-08
2390.0 2.2538e-08
2410.0 2.2922e-08
2430.0 2.3365e-08
2450.0 2.3893e-08
2470.0 2.4571e-08
2490.0 2.5425e-08
2510.0 2.6395e-08
2530.0 2.7564e-08
2550.0 2.9026e-08
2570.0 3.0845e-08
2590.0 3.3212e-08
2610.0 3.6755e-08
2630.0 4.1814e-08
2650.0 4.8428e-08
2670.0 5.698e-08
2690.0 6.7489e-08
2710.0 7.8707e-08
2730.0 8.9791e-08
2750.0 1.0071e-07
2770.0 1.1021e-07
2790.0 1.1775e-07
2810.0 1.2373e-07
2830.0 1.2841e-07
2850.0 1.316e-07
2870.0 1.3394e-07
2890.0 1.358e-07
2910.0 1.3728e-07
2930.0 1.3849e-07
2950.0 1.3964e-07
2970.0 1.4077e-07
2990.0 1.4183e-07
3010.0 4.0089e-06
3030.0 4.0389e-06
3050.0 4.0678e-06
3070.0 4.0926e-06
3090.0 4.114e-06
3110.0 4.1272e-06
3130.0 4.1267e-06
3150.0 4.1083e-06
3170.0 4.0643e-06
3190.0 3.9952e-06
3210.0 3.9076e-06
3230.0 3.8073e-06
3250.0 3.7083e-06
3270.0 3.6359e-06
3290.0 3.5958e-06
3310.0 3.6023e-06
3330.0 3.6544e-06
3350.0 3.7452e-06
3370.0 3.8748e-06
3390.0 4.0382e-06
3410.0 4.216e-06
3430.0 4.4156e-06
3450.0 4.6453e-06
3470.0 4.8963e-06
3490.0 5.1622e-06
3510.0 5.4628e-06
3530.0 5.7847e-06
3550.0 6.1106e-06
3570.0 6.4505e-06
3590.0 6.8202e-06
3610.0 7.2012e-06
3630.0 7.581e-06
3650.0 7.975e-06
3670.0 8.3347e-06
3690.0 8.6036e-06
3710.0 8.7577e-06
3730.0 8.7628e-06
3750.0 8.6408e-06
3770.0 8.5929e-06
3790.0 8.5418e-06
3810.0 8.3319e-06
3830.0 8.5898e-06
3850.0 9.6044e-06
3870.0 1.0161e-05
3890.0 1.0115e-05
3910.0 1.0158e-05
3930.0 1.0426e-05
3950.0 1.059e-05
3970.0 9.6486e-06
3990.0 8.3022e-06
4010.0 2.4883e-05
4030.0 3.0149e-05
4050.0 3.4564e-05
4070.0 2.999e-05
4090.0 2.7162e-05
4110.0 2.3968e-05
4130.0 2.206e-05
4150.0 2.3465e-05
4170.0 2.3114e-05
4190.0 2.4638e-05
4210.0 2.4413e-05
4230.0 2.5822e-05
4250.0 3.0548e-05
4270.0 3.0907e-05
4290.0 2.8481e-05
4310.0 2.9593e-05
4330.0 3.1479e-05
4350.0 3.5295e-05
4370.0 4.0166e-05
4390.0 3.7692e-05
4410.0 2.7848e-05
4430.0 2.3575e-05
4450.0 2.1663e-05
4470.0 1.6627e-05
4490.0 1.7942e-05
4510.0 2.7102e-05
4530.0 3.1257e-05
4550.0 3.1528e-05
4570.0 3.5478e-05
4590.0 4.0412e-05
4610.0 5.4507e-05
4630.0 7.0793e-05
4650.0 7.6774e-05
4670.0 7.11e-05
4690.0 6.7842e-05
4710.0 7.1714e-05
4730.0 6.7677e-05
4750.0 5.0598e-05
4770.0 3.7115e-05
4790.0 3.4658e-05
4810.0 3.3035e-05
4830.0 3.0243e-05
4850.0 3.3187e-05
4870.0 4.3843e-05
4890.0 5.1703e-05
4910.0 4.5363e-05
4930.0 4.014e-05
4950.0 4.4099e-05
4970.0 5.6555e-05
4990.0 7.6645e-05
5010.0 8.817e-05
5030.0 7.7745e-05
5050.0 5.26e-05
5070.0 3.4665e-05
5090.0 2.7952e-05
5110.0 2.8747e-05
5130.0 3.3178e-05
5150.0 3.5946e-05
5170.0 3.5407e-05
5190.0 3.3085e-05
5210.0 3.4581e-05
5230.0 3.6353e-05
5250.0 3.9178e-05
5270.0 4.227e-05
5290.0 4.6845e-05
5310.0 5.4525e-05
5330.0 6.0339e-05
5350.0 5.9955e-05
5370.0 6.2976e-05
5390.0 7.2267e-05
5410.0 7.2202e-05
5430.0 6.3852e-05
5450.0 5.8665e-05
5470.0 6.2292e-05
5490.0 7.6103e-05
5510.0 9.5156e-05
5530.0 0.00010914
5550.0 0.00010548
5570.0 9.5893e-05
5590.0 8.338e-05
5610.0 7.6895e-05
5630.0 7.4564e-05
5650.0 7.1015e-05
5670.0 6.7293e-05
5690.0 6.016e-05
5710.0 5.8657e-05
5730.0 5.4032e-05
5750.0 3.8095e-05
5770.0 2.9721e-05
5790.0 3.368e-05
5810.0 3.8031e-05
5830.0 4.6669e-05
5850.0 5.5554e-05
5870.0 6.1638e-05
5890.0 6.2682e-05
5910.0 6.1496e-05
5930.0 5.8536e-05
5950.0 5.9648e-05
5970.0 6.7992e-05
5990.0 6.393e-05
6010.0 5.3593e-05
6030.0 4.5278e-05
6050.0 3.9431e-05
6070.0 3.9216e-05
6090.0 4.2523e-05
6110.0 4.7548e-05
6130.0 4.8276e-05
6150.0 4.1537e-05
6170.0 3.654e-05
6190.0 4.112e-05
6210.0 5.436e-05
6230.0 7.1336e-05
6250.0 7.7267e-05
6270.0 6.7521e-05
6290.0 5.6809e-05
6310.0 4.4349e-05
6330.0 3.398e-05
6350.0 3.0309e-05
6370.0 3.1873e-05
6390.0 3.6848e-05
6410.0 4.5435e-05
6430.0 5.3055e-05
6450.0 6.0709e-05
6470.0 6.9513e-05
6490.0 8.3967e-05
6510.0 9.3886e-05
6530.0 9.2108e-05
6550.0 8.3291e-05
6570.0 7.0706e-05
6590.0 6.3758e-05
6610.0 5.4975e-05
6630.0 4.9806e-05
6650.0 4.7081e-05
6670.0 4.5738e-05
6690.0 4.1327e-05
6710.0 3.7567e-05
6730.0 2.7059e-05
6750.0 2.6826e-05
6770.0 2.9158e-05
6790.0 3.3515e-05
6810.0 3.0667e-05
6830.0 3.1578e-05
6850.0 2.9536e-05
6870.0 2.6981e-05
6890.0 2.5906e-05
6910.0 2.7606e-05
6930.0 2.5857e-05
6950.0 2.6602e-05
6970.0 2.7981e-05
6990.0 3.176e-05
7010.0 3.2031e-05
7030.0 3.254e-05
7050.0 3.1032e-05
7070.0 2.9568e-05
7090.0 2.9654e-05
7110.0 3.0512e-05
7130.0 3.2836e-05
7150.0 3.4874e-05
7170.0 3.8481e-05
7190.0 4.2302e-05
7210.0 4.1567e-05
7230.0 4.2732e-05
7250.0 4.5922e-05
7270.0 5.0044e-05
7290.0 5.9397e-05
7310.0 6.4451e-05
7330.0 6.2297e-05
7350.0 5.6344e-05
7370.0 4.9025e-05
7390.0 4.756e-05
7410.0 5.0542e-05
7430.0 5.6171e-05
7450.0 6.118e-05
7470.0 6.0618e-05
7490.0 5.5272e-05
7510.0 6.261e-05
7530.0 6.1924e-05
7550.0 5.5659e-05
7570.0 4.348e-05
7590.0 2.9891e-05
7610.0 2.5655e-05
7630.0 2.9149e-05
7650.0 3.4465e-05
7670.0 4.2895e-05
7690.0 4.7202e-05
7710.0 4.9191e-05
7730.0 5.1693e-05
7750.0 5.8031e-05
7770.0 5.8944e-05
7790.0 5.4143e-05
7810.0 4.9402e-05
7830.0 5.0945e-05
7850.0 4.9523e-05
7870.0 4.5404e-05
7890.0 3.8148e-05
7910.0 3.101e-05
7930.0 2.9609e-05
7950.0 2.6975e-05
7970.0 2.497e-05
7990.0 2.4828e-05
8010.0 1.8388e-06
8030.0 1.8149e-06
8050.0 1.7904e-06
8070.0 1.8139e-06
8090.0 1.949e-06
8110.0 1.9158e-06
8130.0 1.5803e-06
8150.0 1.539e-06
8170.0 1.3256e-06
8190.0 1.2563e-06
8210.0 1.6315e-06
8230.0 1.8164e-06
8250.0 1.6371e-06
8270.0 1.4249e-06
8290.0 1.389e-06
8310.0 1.069e-06
8330.0 7.2054e-07
8350.0 5.1136e-07
8370.0 3.2218e-07
8390.0 5.8893e-07
8410.0 6.8627e-07
8430.0 8.4593e-07
8450.0 9.9336e-07
8470.0 1.2347e-06
8490.0 1.226e-06
8510.0 1.2059e-06
8530.0 1.2586e-06
8550.0 1.698e-06
8570.0 2.0102e-06
8590.0 2.169e-06
8610.0 2.74e-06
8630.0 3.3007e-06
8650.0 3.4529e-06
8670.0 3.6694e-06
8690.0 3.6899e-06
8710.0 3.3417e-06
8730.0 3.1084e-06
8750.0 2.7437e-06
8770.0 2.6034e-06
8790.0 2.5577e-06
8810.0 2.4508e-06
8830.0 1.9598e-06
8850.0 1.4347e-06
8870.0 1.0985e-06
8890.0 1.074e-06
8910.0 1.2308e-06
8930.0 1.4e-06
8950.0 1.4268e-06
8970.0 1.4335e-06
8990.0 1.2785e-06
9010.0 1.3399e-05
9030.0 1.2141e-05
9050.0 1.2199e-05
9070.0 1.2296e-05
9090.0 1.238e-05
9110.0 1.2484e-05
9130.0 1.2565e-05
9150.0 1.2627e-05
9170.0 1.2694e-05
9190.0 1.2765e-05
9210.0 1.284e-05
9230.0 1.2919e-05
9250.0 1.3e-05
9270.0 1.3083e-05
9290.0 1.3169e-05
9310.0 1.3256e-05
9330.0 1.3344e-05
9350.0 1.3435e-05
9370.0 1.3528e-05
9390.0 1.3621e-05
9410.0 1.3717e-05
9430.0 1.3816e-05
9450.0 1.3915e-05
9470.0 1.4016e-05
9490.0 1.4119e-05
9510.0 1.4224e-05
9530.0 1.433e-05
9550.0 1.4439e-05
9570.0 1.455e-05
9590.0 1.4661e-05
9610.0 1.4774e-05
9630.0 1.489e-05
9650.0 1.5007e-05
9670.0 1.5125e-05
9690.0 1.5245e-05
9710.0 1.5368e-05
9730.0 1.549e-05
9750.0 1.5615e-05
9770.0 1.5743e-05
9790.0 1.5871e-05
9810.0 1.6e-05
9830.0 1.6131e-05
9850.0 1.6264e-05
9870.0 1.6397e-05
9890.0 1.6531e-05
9910.0 1.6669e-05
9930.0 1.6806e-05
9950.0 1.6944e-05
9970.0 1.7084e-05
9990.0 1.7226e-05
10010.0 1.4948e-05
10030.0 1.5071e-05
10050.0 1.5196e-05
10070.0 1.5325e-05
10090.0 1.5447e-05
10110.0 1.5572e-05
10130.0 1.5698e-05
10150.0 1.5823e-05
10170.0 1.595e-05
10190.0 1.6079e-05
10210.0 1.6206e-05
10230.0 1.6333e-05
10250.0 1.6462e-05
10270.0 1.6591e-05
10290.0 1.6719e-05
10310.0 1.6847e-05
10330.0 1.6978e-05
10350.0 1.7106e-05
10370.0 1.7233e-05
10390.0 1.7362e-05
10410.0 1.7491e-05
10430.0 1.7617e-05
10450.0 1.7744e-05
10470.0 1.7872e-05
10490.0 1.7997e-05
10510.0 1.8121e-05
10530.0 1.8248e-05
10550.0 1.8373e-05
10570.0 1.8494e-05
10590.0 1.8617e-05
10610.0 1.8739e-05
10630.0 1.8859e-05
10650.0 1.8977e-05
10670.0 1.9097e-05
10690.0 1.9214e-05
10710.0 1.9329e-05
10730.0 1.9444e-05
10750.0 1.9559e-05
10770.0 1.967e-05
10790.0 1.9779e-05
10810.0 1.9889e-05
10830.0 1.9995e-05
10850.0 2.0096e-05
10870.0 2.0193e-05
10890.0 2.0279e-05
10910.0 2.0345e-05
10930.0 2.0383e-05
10950.0 2.0374e-05
10970.0 2.0305e-05
10990.0 2.0169e-05
11010.0 1.9943e-05
11030.0 1.9626e-05
11050.0 1.9239e-05
11070.0 1.8777e-05
11090.0 1.8221e-05
11110.0 1.7646e-05
11130.0 1.7047e-05
11150.0 1.6402e-05
11170.0 1.5736e-05
11190.0 1.5091e-05
11210.0 1.4425e-05
11230.0 1.3741e-05
11250.0 1.3088e-05
11270.0 1.2461e-05
11290.0 1.1833e-05
11310.0 1.1238e-05
11330.0 1.0714e-05
11350.0 1.0219e-05
11370.0 9.7613e-06
11390.0 9.3655e-06
11410.0 9.0193e-06
11430.0 8.6975e-06
11450.0 8.4203e-06
11470.0 8.1805e-06
11490.0 7.9575e-06
11510.0 7.7426e-06
11530.0 7.5431e-06
11550.0 7.345e-06
11570.0 7.1336e-06
11590.0 6.9147e-06
11610.0 6.6919e-06
11630.0 6.4494e-06
11650.0 6.1898e-06
11670.0 5.9339e-06
11690.0 5.6744e-06
11710.0 5.4068e-06
11730.0 5.1474e-06
11750.0 4.9073e-06
11770.0 4.6719e-06
11790.0 4.4513e-06
11810.0 4.2571e-06
11830.0 4.0834e-06
11850.0 3.9234e-06
11870.0 3.7895e-06
11890.0 3.6783e-06
11910.0 3.5805e-06
11930.0 3.4965e-06
11950.0 3.4265e-06
11970.0 3.364e-06
11990.0 3.3049e-06
12010.0 3.2503e-06
12030.0 3.1976e-06
12050.0 3.1431e-06
12070.0 3.0865e-06
12090.0 3.0319e-06
12110.0 2.9764e-06
12130.0 2.9209e-06
12150.0 2.8697e-06
12170.0 2.825e-06
12190.0 2.7863e-06
12210.0 2.7593e-06
12230.0 2.7463e-06
12250.0 2.7484e-06
12270.0 2.7691e-06
12290.0 2.8083e-06
12310.0 2.8645e-06
12330.0 2.9431e-06
12350.0 3.0412e-06
12370.0 3.1529e-06
12390.0 3.2817e-06
12410.0 3.4327e-06
12430.0 3.5861e-06
12450.0 3.7449e-06
12470.0 3.9139e-06
12490.0 4.0835e-06
12510.0 4.2427e-06
12530.0 4.401e-06
12550.0 4.5537e-06
12570.0 4.6886e-06
12590.0 4.8069e-06
12610.0 4.9124e-06
12630.0 4.9965e-06
12650.0 5.0545e-06
12670.0 5.0927e-06
12690.0 5.108e-06
12710.0 5.0996e-06
12730.0 5.07e-06
12750.0 5.0172e-06
12770.0 4.9449e-06
12790.0 4.8571e-06
12810.0 4.7523e-06
12830.0 4.6311e-06
12850.0 4.5042e-06
12870.0 4.3702e-06
12890.0 4.2251e-06
12910.0 4.0776e-06
12930.0 3.9323e-06
12950.0 3.7806e-06
12970.0 3.6262e-06
12990.0 3.4801e-06
13010.0 3.3359e-06
13030.0 3.19e-06
13050.0 3.0499e-06
13070.0 2.9187e-06
13090.0 2.787e-06
13110.0 2.6596e-06
13130.0 2.5421e-06
13150.0 2.4308e-06
13170.0 2.3219e-06
13190.0 2.225e-06
13210.0 2.1397e-06
13230.0 2.0617e-06
13250.0 1.9946e-06
13270.0 1.9416e-06
13290.0 1.9004e-06
13310.0 1.872e-06
13330.0 1.8591e-06
13350.0 1.8606e-06
13370.0 1.8773e-06
13390.0 1.9101e-06
13410.0 1.9544e-06
13430.0 2.012e-06
13450.0 2.0831e-06
13470.0 2.1621e-06
13490.0 2.2457e-06
13510.0 2.3401e-06
13530.0 2.4357e-06
13550.0 2.5272e-06
13570.0 2.6175e-06
13590.0 2.7054e-06
13610.0 2.7837e-06
13630.0 2.852e-06
13650.0 2.9144e-06
13670.0 2.9661e-06
13690.0 3.0062e-06
13710.0 3.0371e-06
13730.0 3.0593e-06
13750.0 3.0703e-06
13770.0 3.0728e-06
13790.0 3.0672e-06
13810.0 3.0537e-06
13830.0 3.0337e-06
13850.0 3.0066e-06
13870.0 2.9724e-06
13890.0 2.9333e-06
13910.0 2.8893e-06
13930.0 2.8383e-06
13950.0 2.7826e-06
13970.0 2.7256e-06
13990.0 2.6636e-06
14010.0 2.5977e-06
14030.0 2.5319e-06
14050.0 2.4657e-06
14070.0 2.3957e-06
14090.0 2.3286e-06
14110.0 2.2656e-06
14130.0 2.2046e-06
14150.0 2.1471e-06
14170.0 2.098e-06
14190.0 2.0556e-06
14210.0 2.0196e-06
14230.0 1.9929e-06
14250.0 1.9757e-06
14270.0 1.9674e-06
14290.0 1.9692e-06
14310.0 1.9801e-06
14330.0 1.9998e-06
14350.0 2.0288e-06
14370.0 2.065e-06
14390.0 2.106e-06
14410.0 2.1543e-06
14430.0 2.2074e-06
14450.0 2.2616e-06
14470.0 2.3179e-06
14490.0 2.3777e-06
14510.0 2.4349e-06
14530.0 2.4892e-06
14550.0 2.5435e-06
14570.0 2.5956e-06
14590.0 2.6431e-06
14610.0 2.6889e-06
14630.0 2.7344e-06
14650.0 2.7767e-06
14670.0 2.8175e-06
14690.0 2.8601e-06
14710.0 2.9049e-06
14730.0 2.9497e-06
14750.0 2.9993e-06
14770.0 3.0556e-06
14790.0 3.1166e-06
14810.0 3.1826e-06
14830.0 3.261e-06
14850.0 3.3461e-06
14870.0 3.4349e-06
14890.0 3.5307e-06
14910.0 3.6325e-06
14930.0 3.7303e-06
14950.0 3.8218e-06
14970.0 3.9083e-06
14990.0 3.9809e-06
15010.0 4.0364e-06
15030.0 4.0775e-06
15050.0 4.1047e-06
15070.0 4.118e-06
15090.0 4.1226e-06
15110.0 4.1213e-06
15130.0 4.1161e-06
15150.0 4.1092e-06
15170.0 4.1009e-06
15190.0 4.0921e-06
15210.0 4.0834e-06
15230.0 4.0747e-06
15250.0 4.0657e-06
15270.0 4.0568e-06
15290.0 4.0484e-06
15310.0 4.0397e-06
15330.0 4.031e-06
15350.0 4.0226e-06
15370.0 4.0143e-06
15390.0 4.0055e-06
15410.0 3.997e-06
15430.0 3.9888e-06
15450.0 3.9804e-06
15470.0 3.9719e-06
15490.0 3.9638e-06
15510.0 3.9557e-06
15530.0 3.9474e-06
15550.0 3.9392e-06
15570.0 3.9313e-06
15590.0 3.9231e-06
15610.0 3.9147e-06
15630.0 3.9069e-06
15650.0 3.899e-06
15670.0 3.8908e-06
15690.0 3.8828e-06
15710.0 3.8752e-06
15730.0 3.8671e-06
15750.0 3.8591e-06
15770.0 3.8514e-06
15790.0 3.8436e-06
15810.0 3.8355e-06
15830.0 3.8277e-06
15850.0 3.8201e-06
15870.0 3.8122e-06
15890.0 3.8044e-06
15910.0 3.7969e-06
15930.0 3.7892e-06
15950.0 3.7812e-06
15970.0 3.7735e-06
15990.0 3.7659e-06
16010.0 3.7581e-06
16030.0 3.7502e-06
16050.0 3.7428e-06
16070.0 3.7352e-06
16090.0 3.7273e-06
16110.0 3.7197e-06
16130.0 3.7123e-06
16150.0 3.7044e-06
16170.0 3.6966e-06
16190.0 3.6891e-06
16210.0 3.6815e-06
16230.0 3.6736e-06
16250.0 3.666e-06
16270.0 3.6586e-06
16290.0 3.6508e-06
16310.0 3.643e-06
16330.0 3.6356e-06
16350.0 3.6279e-06
16370.0 3.6198e-06
16390.0 3.6123e-06
16410.0 3.6048e-06
16430.0 3.5969e-06
16450.0 3.5892e-06
16470.0 3.5817e-06
16490.0 3.5739e-06
16510.0 3.566e-06
16530.0 3.5583e-06
16550.0 3.5507e-06
16570.0 3.5427e-06
16590.0 3.5348e-06
16610.0 3.5273e-06
16630.0 3.5194e-06
16650.0 3.5114e-06
16670.0 3.5038e-06
16690.0 3.4961e-06
16710.0 3.4879e-06
16730.0 3.48e-06
16750.0 3.4722e-06
16770.0 3.4643e-06
16790.0 3.4561e-06
16810.0 3.4484e-06
16830.0 3.4405e-06
16850.0 3.4323e-06
16870.0 3.4243e-06
16890.0 3.4166e-06
16910.0 3.4084e-06
16930.0 3.4e-06
16950.0 3.3921e-06
16970.0 3.3841e-06
16990.0 3.3758e-06
17010.0 3.3677e-06
17030.0 3.3598e-06
17050.0 3.3515e-06
17070.0 3.3431e-06
17090.0 3.3351e-06
17110.0 3.3269e-06
17130.0 3.3183e-06
17150.0 3.3101e-06
17170.0 3.302e-06
17190.0 3.2936e-06
17210.0 3.2851e-06
17230.0 3.277e-06
17250.0 3.2686e-06
17270.0 3.2599e-06
17290.0 3.2515e-06
17310.0 3.2432e-06
17330.0 3.2346e-06
17350.0 3.2259e-06
17370.0 3.2177e-06
17390.0 3.2092e-06
17410.0 3.2004e-06
17430.0 3.1919e-06
17450.0 3.1836e-06
17470.0 3.1746e-06
17490.0 3.1659e-06
17510.0 3.1574e-06
17530.0 3.1487e-06
17550.0 3.1398e-06
17570.0 3.1312e-06
17590.0 3.1226e-06
17610.0 3.1137e-06
17630.0 3.1048e-06
17650.0 3.0962e-06
17670.0 3.0874e-06
17690.0 3.0781e-06
17710.0 3.0694e-06
17730.0 3.0607e-06
17750.0 3.0516e-06
17770.0 3.0426e-06
17790.0 3.034e-06
17810.0 3.0249e-06
17830.0 3.0157e-06
17850.0 3.0068e-06
17870.0 2.9979e-06
17890.0 2.9886e-06
17910.0 2.9795e-06
17930.0 2.9707e-06
17950.0 2.9615e-06
17970.0 2.9523e-06
17990.0 2.9434e-06
18010.0 2.9344e-06
18030.0 2.9248e-06
18050.0 2.9157e-06
18070.0 2.9067e-06
18090.0 2.8974e-06
18110.0 2.8879e-06
18130.0 2.8789e-06
18150.0 2.8698e-06
18170.0 2.8603e-06
18190.0 2.8511e-06
18210.0 2.842e-06
18230.0 2.8325e-06
18250.0 2.823e-06
18270.0 2.8139e-06
18290.0 2.8046e-06
18310.0 2.795e-06
18330.0 2.7857e-06
18350.0 2.7766e-06
18370.0 2.767e-06
18390.0 2.7575e-06
18410.0 2.7483e-06
18430.0 2.7389e-06
18450.0 2.7291e-06
18470.0 2.7198e-06
18490.0 2.7105e-06
18510.0 2.701e-06
18530.0 2.6914e-06
18550.0 2.6822e-06
18570.0 2.6727e-06
18590.0 2.6629e-06
18610.0 2.6535e-06
18630.0 2.6442e-06
18650.0 2.6345e-06
18670.0 2.6248e-06
18690.0 2.6155e-06
18710.0 2.606e-06
18730.0 2.5963e-06
18750.0 2.5869e-06
18770.0 2.5776e-06
18790.0 2.5677e-06
18810.0 2.558e-06
18830.0 2.5487e-06
18850.0 2.5391e-06
18870.0 2.5293e-06
18890.0 2.5199e-06
18910.0 2.5105e-06
18930.0 2.5007e-06
18950.0 2.4911e-06
18970.0 2.4817e-06
18990.0 2.4721e-06
19010.0 2.4621e-06
19030.0 2.4527e-06
19050.0 2.4433e-06
19070.0 2.4335e-06
19090.0 2.4239e-06
19110.0 2.4146e-06
19130.0 2.4048e-06
19150.0 2.3951e-06
19170.0 2.3856e-06
19190.0 2.3761e-06
19210.0 2.3662e-06
19230.0 2.3566e-06
19250.0 2.3473e-06
19270.0 2.3376e-06
19290.0 2.3279e-06
19310.0 2.3185e-06
19330.0 2.309e-06
19350.0 2.2991e-06
19370.0 2.2895e-06
19390.0 2.2801e-06
19410.0 2.2704e-06
19430.0 2.2606e-06
19450.0 2.2513e-06
19470.0 2.2418e-06
19490.0 2.232e-06
19510.0 2.2225e-06
19530.0 2.2131e-06
19550.0 2.2034e-06
19570.0 2.1936e-06
19590.0 2.1843e-06
19610.0 2.1748e-06
19630.0 2.165e-06
19650.0 2.1555e-06
19670.0 2.1463e-06
19690.0 2.1365e-06
19710.0 2.1269e-06
19730.0 2.1175e-06
19750.0 2.108e-06
19770.0 2.0982e-06
19790.0 2.0888e-06
19810.0 2.0794e-06
19830.0 2.0698e-06
19850.0 2.0601e-06
19870.0 2.0505e-06
19890.0 2.0403e-06
19910.0 2.029e-06
19930.0 2.017e-06
19950.0 2.0032e-06
19970.0 1.9863e-06
19990.0 1.9658e-06
20010.0 1.749e-06
20030.0 1.7237e-06
20050.0 1.6941e-06
20070.0 1.662e-06
20090.0 1.6274e-06
20110.0 1.5884e-06
20130.0 1.5488e-06
20150.0 1.5096e-06
20170.0 1.469e-06
20190.0 1.4278e-06
20210.0 1.3889e-06
20230.0 1.3509e-06
20250.0 1.3129e-06
20270.0 1.2776e-06
20290.0 1.2453e-06
20310.0 1.2147e-06
20330.0 1.1861e-06
20350.0 1.1623e-06
20370.0 1.1412e-06
20390.0 1.1227e-06
20410.0 1.1078e-06
20430.0 1.0962e-06
20450.0 1.0871e-06
20470.0 1.081e-06
20490.0 1.0777e-06
20510.0 1.0768e-06
20530.0 1.0781e-06
20550.0 1.0814e-06
20570.0 1.0863e-06
20590.0 1.0928e-06
20610.0 1.1008e-06
20630.0 1.1095e-06
20650.0 1.1193e-06
20670.0 1.1305e-06
20690.0 1.1419e-06
20710.0 1.1537e-06
20730.0 1.1664e-06
20750.0 1.1797e-06
20770.0 1.1927e-06
20790.0 1.2064e-06
20810.0 1.2209e-06
20830.0 1.2354e-06
20850.0 1.2498e-06
20870.0 1.2654e-06
20890.0 1.2812e-06
20910.0 1.2965e-06
20930.0 1.3123e-06
20950.0 1.3287e-06
20970.0 1.3447e-06
20990.0 1.3605e-06
21010.0 1.3771e-06
21030.0 1.3933e-06
21050.0 1.4088e-06
21070.0 1.4243e-06
21090.0 1.4398e-06
21110.0 1.4539e-06
21130.0 1.4672e-06
21150.0 1.4801e-06
21170.0 1.4917e-06
21190.0 1.5018e-06
21210.0 1.5108e-06
21230.0 1.5183e-06
21250.0 1.5236e-06
21270.0 1.527e-06
21290.0 1.5283e-06
21310.0 1.5271e-06
21330.0 1.5235e-06
21350.0 1.5171e-06
21370.0 1.5078e-06
21390.0 1.496e-06
21410.0 1.4816e-06
21430.0 1.4633e-06
21450.0 1.4427e-06
21470.0 1.4203e-06
21490.0 1.395e-06
21510.0 1.3672e-06
21530.0 1.339e-06
21550.0 1.3095e-06
21570.0 1.2779e-06
21590.0 1.2469e-06
21610.0 1.217e-06
21630.0 1.187e-06
21650.0 1.1577e-06
21670.0 1.1323e-06
21690.0 1.1089e-06
21710.0 1.0878e-06
21730.0 1.0705e-06
21750.0 1.0572e-06
21770.0 1.047e-06
21790.0 1.0412e-06
21810.0 1.0396e-06
21830.0 1.0419e-06
21850.0 1.0484e-06
21870.0 1.0585e-06
21890.0 1.0716e-06
21910.0 1.0885e-06
21930.0 1.1082e-06
21950.0 1.1296e-06
21970.0 1.1533e-06
21990.0 1.1799e-06
22010.0 1.2064e-06
22030.0 1.2334e-06
22050.0 1.2618e-06
22070.0 1.2903e-06
22090.0 1.3172e-06
22110.0 1.3444e-06
22130.0 1.3716e-06
22150.0 1.397e-06
22170.0 1.4209e-06
22190.0 1.4446e-06
22210.0 1.4666e-06
22230.0 1.486e-06
22250.0 1.5043e-06
22270.0 1.5211e-06
22290.0 1.5355e-06
22310.0 1.5479e-06
22330.0 1.5587e-06
22350.0 1.5671e-06
22370.0 1.573e-06
22390.0 1.5768e-06
22410.0 1.5779e-06
22430.0 1.5764e-06
22450.0 1.5724e-06
22470.0 1.5653e-06
22490.0 1.5555e-06
22510.0 1.5432e-06
22530.0 1.5275e-06
22550.0 1.5084e-06
22570.0 1.4872e-06
22590.0 1.4632e-06
22610.0 1.4357e-06
22630.0 1.4059e-06
