#lamb flux
1010.0 9.0743e-08
1030.0 1.0118e-07
1050.0 1.1319e-07
1070.0 1.267e-07
1090.0 1.4206e-07
1110.0 1.578e-07
1130.0 1.7365e-07
1150.0 1.9025e-07
1170.0 2.0737e-07
1190.0 2.2361e-07
1210.0 2.4007e-07
1230.0 2.5707e-07
1250.0 2.7373e-07
1270.0 2.8991e-07
1290.0 3.0701e-07
1310.0 3.2409e-07
1330.0 3.4047e-07
1350.0 3.5704e-07
1370.0 3.7414e-07
1390.0 3.9082e-07
1410.0 4.07e-07
1430.0 4.2391e-07
1450.0 4.4081e-07
1470.0 4.5715e-07
1490.0 4.7366e-07
1510.0 4.911e-07
1530.0 5.0762e-07
1550.0 5.239e-07
1570.0 5.4075e-07
1590.0 5.576e-07
1610.0 5.7369e-07
1630.0 5.9027e-07
1650.0 6.0727e-07
1670.0 6.237e-07
1690.0 6.3989e-07
1710.0 6.5669e-07
1730.0 6.7356e-07
1750.0 6.8938e-07
1770.0 7.0563e-07
1790.0 7.2217e-07
1810.0 7.3812e-07
1830.0 7.5372e-07
1850.0 7.7024e-07
1870.0 7.8624e-07
1890.0 8.0158e-07
1910.0 8.1714e-07
1930.0 8.3297e-07
1950.0 8.479e-07
1970.0 8.6249e-07
1990.0 8.7751e-07
2010.0 8.9205e-07
2030.0 9.058e-07
2050.0 9.1979e-07
2070.0 9.3392e-07
2090.0 9.4682e-07
2110.0 9.5936e-07
2130.0 9.7201e-07
2150.0 9.8399e-07
2170.0 9.949e-07
2190.0 1.0059e-06
2210.0 1.0166e-06
2230.0 1.0262e-06
2250.0 1.0351e-06
2270.0 1.0442e-06
2290.0 1.0523e-06
2310.0 1.0591e-06
2330.0 1.0659e-06
2350.0 1.0722e-06
2370.0 1.0776e-06
2390.0 1.0829e-06
2410.0 1.0895e-06
2430.0 1.0966e-06
2450.0 1.105e-06
2470.0 1.1168e-06
2490.0 1.1327e-06
2510.0 1.151e-06
2530.0 1.1755e-06
2550.0 1.2109e-06
2570.0 1.261e-06
2590.0 1.3332e-06
2610.0 1.4496e-06
2630.0 1.618e-06
2650.0 1.8331e-06
2670.0 2.1014e-06
2690.0 2.4161e-06
2710.0 2.7315e-06
2730.0 3.0219e-06
2750.0 3.2878e-06
2770.0 3.4963e-06
2790.0 3.639e-06
2810.0 3.7325e-06
2830.0 3.7875e-06
2850.0 3.8032e-06
2870.0 3.7978e-06
2890.0 3.7813e-06
2910.0 3.7567e-06
2930.0 3.7267e-06
2950.0 3.6965e-06
2970.0 3.6669e-06
2990.0 3.6366e-06
3010.0 0.00010248
3030.0 0.00010169
3050.0 0.00010091
3070.0 0.00010007
3090.0 9.9202e-05
3110.0 9.8196e-05
3130.0 9.6939e-05
3150.0 9.5356e-05
3170.0 9.3292e-05
3190.0 9.0792e-05
3210.0 8.8021e-05
3230.0 8.5112e-05
3250.0 8.2312e-05
3270.0 8.0258e-05
3290.0 7.8894e-05
3310.0 7.8736e-05
3330.0 7.954e-05
3350.0 8.1206e-05
3370.0 8.3747e-05
3390.0 8.7057e-05
3410.0 9.0729e-05
3430.0 9.4919e-05
3450.0 9.9794e-05
3470.0 0.00010516
3490.0 0.0001109
3510.0 0.00011742
3530.0 0.0001245
3550.0 0.00013196
3570.0 0.00014012
3590.0 0.00014933
3610.0 0.00015945
3630.0 0.00016982
3650.0 0.00018084
3670.0 0.00019096
3690.0 0.00019867
3710.0 0.00020283
3730.0 0.00020146
3750.0 0.00019441
3770.0 0.00019073
3790.0 0.00017971
3810.0 0.00014601
3830.0 0.00013264
3850.0 0.00015452
3870.0 0.00012638
3890.0 0.0001199
3910.0 0.00015914
3930.0 0.00020486
3950.0 0.00022157
3970.0 0.00025211
3990.0 0.00022812
4010.0 0.00033175
4030.0 0.00031032
4050.0 0.00028052
4070.0 0.00029937
4090.0 0.00028729
4110.0 0.00030696
4130.0 0.00036242
4150.0 0.00043192
4170.0 0.00037284
4190.0 0.00034513
4210.0 0.00036881
4230.0 0.0004454
4250.0 0.00050898
4270.0 0.00054131
4290.0 0.00051043
4310.0 0.00048562
4330.0 0.00050524
4350.0 0.00062732
4370.0 0.0007423
4390.0 0.00062911
4410.0 0.00042002
4430.0 0.00032496
4450.0 0.00028776
4470.0 0.00024199
4490.0 0.0003235
4510.0 0.0005013
4530.0 0.00058964
4550.0 0.00061141
4570.0 0.00061824
4590.0 0.00070403
4610.0 0.0011512
4630.0 0.001529
4650.0 0.0014766
4670.0 0.0013385
4690.0 0.0014174
4710.0 0.0015035
4730.0 0.0012288
4750.0 0.00081076
4770.0 0.00060984
4790.0 0.00064504
4810.0 0.00063941
4830.0 0.00062041
4850.0 0.00069007
4870.0 0.00090967
4890.0 0.0010598
4910.0 0.00084159
4930.0 0.00077748
4950.0 0.00088408
4970.0 0.0011945
4990.0 0.0015943
5010.0 0.0017841
5030.0 0.0014301
5050.0 0.00087095
5070.0 0.00061154
5090.0 0.00050332
5110.0 0.00049615
5130.0 0.00056235
5150.0 0.00055959
5170.0 0.00054156
5190.0 0.00050699
5210.0 0.0005206
5230.0 0.00059869
5250.0 0.00067604
5270.0 0.00068131
5290.0 0.00076329
5310.0 0.00094583
5330.0 0.00098297
5350.0 0.00097274
5370.0 0.0010863
5390.0 0.0012891
5410.0 0.0011522
5430.0 0.00091072
5450.0 0.00088071
5470.0 0.0010162
5490.0 0.0012987
5510.0 0.0016305
5530.0 0.0018634
5550.0 0.0017203
5570.0 0.0015387
5590.0 0.0013024
5610.0 0.0012761
5630.0 0.001343
5650.0 0.0012991
5670.0 0.0012263
5690.0 0.0010443
5710.0 0.0010384
5730.0 0.000991
5750.0 0.00058411
5770.0 0.00046266
5790.0 0.00055162
5810.0 0.00063259
5830.0 0.00085296
5850.0 0.0010379
5870.0 0.0010877
5890.0 0.0010348
5910.0 0.00099509
5930.0 0.00097962
5950.0 0.0010201
5970.0 0.0012001
5990.0 0.0010404
6010.0 0.00082537
6030.0 0.0006752
6050.0 0.00059256
6070.0 0.00066018
6090.0 0.00075261
6110.0 0.00079257
6130.0 0.00073527
6150.0 0.00061589
6170.0 0.00057691
6190.0 0.00071185
6210.0 0.00099428
6230.0 0.0013147
6250.0 0.0013638
6270.0 0.001109
6290.0 0.00093355
6310.0 0.00072407
6330.0 0.00054728
6350.0 0.00051468
6370.0 0.00054522
6390.0 0.00065719
6410.0 0.00080832
6430.0 0.00096044
6450.0 0.0011607
6470.0 0.0013012
6490.0 0.0015893
6510.0 0.0017815
6530.0 0.0017317
6550.0 0.0015896
6570.0 0.0013999
6590.0 0.0013554
6610.0 0.0011535
6630.0 0.0011271
6650.0 0.0010601
6670.0 0.0010066
6690.0 0.00088503
6710.0 0.0008235
6730.0 0.00055943
6750.0 0.00057943
6770.0 0.00070586
6790.0 0.00087789
6810.0 0.00073529
6830.0 0.0007546
6850.0 0.00068596
6870.0 0.00065353
6890.0 0.00059823
6910.0 0.0006381
6930.0 0.00059604
6950.0 0.00066492
6970.0 0.00067314
6990.0 0.00074931
7010.0 0.00076957
7030.0 0.00078456
7050.0 0.00070372
7070.0 0.00064046
7090.0 0.00063586
7110.0 0.00062882
7130.0 0.00068387
7150.0 0.00075895
7170.0 0.00083146
7190.0 0.00085702
7210.0 0.00078566
7230.0 0.00079874
7250.0 0.00088696
7270.0 0.0010021
7290.0 0.0011621
7310.0 0.0011728
7330.0 0.0010572
7350.0 0.00094214
7370.0 0.00077426
7390.0 0.00079946
7410.0 0.00092647
7430.0 0.0010339
7450.0 0.0011145
7470.0 0.0011111
7490.0 0.001083
7510.0 0.001426
7530.0 0.0012931
7550.0 0.0011407
7570.0 0.00081715
7590.0 0.0004683
7610.0 0.0003804
7630.0 0.00046876
7650.0 0.00057851
7670.0 0.00078928
7690.0 0.00089331
7710.0 0.00086975
7730.0 0.00086989
7750.0 0.0010196
7770.0 0.0010287
7790.0 0.00096468
7810.0 0.00086829
7830.0 0.00089018
7850.0 0.00089138
7870.0 0.00084423
7890.0 0.00070263
7910.0 0.00052576
7930.0 0.00049529
7950.0 0.00044549
7970.0 0.0004036
7990.0 0.00038953
8010.0 0.00038892
8030.0 0.00037919
8050.0 0.00039182
8070.0 0.00040107
8090.0 0.00043625
8110.0 0.00040924
8130.0 0.00031469
8150.0 0.00030133
8170.0 0.00024316
8190.0 0.00021905
8210.0 0.00028421
8230.0 0.0003162
8250.0 0.0002387
8270.0 0.00020841
8290.0 0.00020705
8310.0 0.00015281
8330.0 9.6792e-05
8350.0 7.3709e-05
8370.0 5.4828e-05
8390.0 8.5932e-05
8410.0 0.00010637
8430.0 0.00013157
8450.0 0.00014661
8470.0 0.00018836
8490.0 0.00017136
8510.0 0.00015755
8530.0 0.00013665
8550.0 0.00022034
8570.0 0.00029993
8590.0 0.00028436
8610.0 0.00037012
8630.0 0.00041856
8650.0 0.00036168
8670.0 0.00040472
8690.0 0.00047031
8710.0 0.00042745
8730.0 0.00042908
8750.0 0.00037254
8770.0 0.00034861
8790.0 0.00036159
8810.0 0.00036208
8830.0 0.00026235
8850.0 0.00018588
8870.0 0.00014952
8890.0 0.00018523
8910.0 0.00023241
8930.0 0.00027237
8950.0 0.00030941
8970.0 0.00030754
8990.0 0.00027118
9010.0 0.0002218
9030.0 0.00020427
9050.0 0.00020866
9070.0 0.00021256
9090.0 0.00021558
9110.0 0.00021887
9130.0 0.00022136
9150.0 0.00022332
9170.0 0.0002254
9190.0 0.00022762
9210.0 0.00022994
9230.0 0.00023241
9250.0 0.00023495
9270.0 0.00023758
9290.0 0.0002403
9310.0 0.00024307
9330.0 0.00024591
9350.0 0.00024884
9370.0 0.00025182
9390.0 0.00025487
9410.0 0.00025799
9430.0 0.0002612
9450.0 0.00026444
9470.0 0.00026776
9490.0 0.00027116
9510.0 0.00027462
9530.0 0.00027813
9550.0 0.00028173
9570.0 0.00028539
9590.0 0.0002891
9610.0 0.00029288
9630.0 0.00029673
9650.0 0.00030064
9670.0 0.00030459
9690.0 0.00030862
9710.0 0.00031271
9730.0 0.00031684
9750.0 0.00032103
9770.0 0.00032529
9790.0 0.00032959
9810.0 0.00033393
9830.0 0.00033834
9850.0 0.00034279
9870.0 0.00034727
9890.0 0.0003518
9910.0 0.00035638
9930.0 0.00036098
9950.0 0.00036562
9970.0 0.00037031
9990.0 0.00037503
10010.0 0.00035168
10030.0 0.00035599
10050.0 0.00036032
10070.0 0.00036462
10090.0 0.00036899
10110.0 0.00037339
10130.0 0.00037778
10150.0 0.00038217
10170.0 0.00038657
10190.0 0.00039097
10210.0 0.00039536
10230.0 0.00039974
10250.0 0.00040412
10270.0 0.00040848
10290.0 0.00041282
10310.0 0.00041714
10330.0 0.00042145
10350.0 0.00042573
10370.0 0.00042997
10390.0 0.00043419
10410.0 0.00043837
10430.0 0.0004425
10450.0 0.0004466
10470.0 0.00045065
10490.0 0.00045465
10510.0 0.00045859
10530.0 0.00046249
10550.0 0.00046633
10570.0 0.00047009
10590.0 0.0004738
10610.0 0.00047744
10630.0 0.000481
10650.0 0.00048449
10670.0 0.00048791
10690.0 0.00049124
10710.0 0.00049449
10730.0 0.00049766
10750.0 0.00050074
10770.0 0.00050373
10790.0 0.00050662
10810.0 0.00050942
10830.0 0.0005121
10850.0 0.00051463
10870.0 0.00051695
10890.0 0.00051896
10910.0 0.00052048
10930.0 0.00052126
10950.0 0.00052086
10970.0 0.00051902
10990.0 0.00051558
11010.0 0.00051591
11030.0 0.00050805
11050.0 0.00049846
11070.0 0.00048691
11090.0 0.00047294
11110.0 0.00045844
11130.0 0.00044328
11150.0 0.00042693
11170.0 0.0004101
11190.0 0.00039386
11210.0 0.0003772
11230.0 0.00036026
11250.0 0.00034427
11270.0 0.00032908
11290.0 0.00031405
11310.0 0.00029999
11330.0 0.00028774
11350.0 0.00027625
11370.0 0.00026568
11390.0 0.00025654
11410.0 0.00024849
11430.0 0.00024091
11450.0 0.00023421
11470.0 0.00022822
11490.0 0.00022243
11510.0 0.00021663
11530.0 0.00021104
11550.0 0.00020535
11570.0 0.00019921
11590.0 0.00019281
11610.0 0.0001863
11630.0 0.00017929
11650.0 0.00017187
11670.0 0.00016464
11690.0 0.00015739
11710.0 0.00015
11730.0 0.00014291
11750.0 0.00013639
11770.0 0.00013005
11790.0 0.00012413
11810.0 0.00011891
11830.0 0.00011422
11850.0 0.00010987
11870.0 0.00010617
11890.0 0.00010301
11910.0 0.00010014
11930.0 9.7573e-05
11950.0 9.5309e-05
11970.0 9.3177e-05
11990.0 9.106e-05
12010.0 8.9007e-05
12030.0 8.6966e-05
12050.0 8.4825e-05
12070.0 8.2579e-05
12090.0 8.0391e-05
12110.0 7.8154e-05
12130.0 7.5883e-05
12150.0 7.3723e-05
12170.0 7.1736e-05
12190.0 6.9852e-05
12210.0 6.8252e-05
12230.0 6.7006e-05
12250.0 6.6106e-05
12270.0 6.5612e-05
12290.0 6.5554e-05
12310.0 6.5898e-05
12330.0 6.6706e-05
12350.0 6.7935e-05
12370.0 6.9471e-05
12390.0 7.1351e-05
12410.0 7.3653e-05
12430.0 7.6015e-05
12450.0 7.8474e-05
12470.0 8.1098e-05
12490.0 8.3711e-05
12510.0 8.611e-05
12530.0 8.846e-05
12550.0 9.0674e-05
12570.0 9.2543e-05
12590.0 9.4099e-05
12610.0 9.5407e-05
12630.0 9.6336e-05
12650.0 9.6823e-05
12670.0 9.6982e-05
12690.0 9.6777e-05
12710.0 9.6206e-05
12730.0 9.5319e-05
12750.0 9.4097e-05
12770.0 9.2598e-05
12790.0 9.089e-05
12810.0 8.895e-05
12830.0 8.6788e-05
12850.0 8.4559e-05
12870.0 8.2233e-05
12890.0 7.9752e-05
12910.0 7.7235e-05
12930.0 7.4743e-05
12950.0 7.2144e-05
12970.0 6.9483e-05
12990.0 6.6927e-05
13010.0 6.4375e-05
13030.0 6.1769e-05
13050.0 5.9226e-05
13070.0 5.6804e-05
13090.0 5.4349e-05
13110.0 5.1945e-05
13130.0 4.9697e-05
13150.0 4.7546e-05
13170.0 4.5428e-05
13190.0 4.3522e-05
13210.0 4.1826e-05
13230.0 4.0265e-05
13250.0 3.8905e-05
13270.0 3.7805e-05
13290.0 3.6918e-05
13310.0 3.6258e-05
13330.0 3.5867e-05
13350.0 3.5721e-05
13370.0 3.5823e-05
13390.0 3.6179e-05
13410.0 3.6715e-05
13430.0 3.7451e-05
13450.0 3.8385e-05
13470.0 3.9429e-05
13490.0 4.0537e-05
13510.0 4.1798e-05
13530.0 4.3073e-05
13550.0 4.4288e-05
13570.0 4.5486e-05
13590.0 4.6654e-05
13610.0 4.7686e-05
13630.0 4.8578e-05
13650.0 4.939e-05
13670.0 5.005e-05
13690.0 5.0541e-05
13710.0 5.09e-05
13730.0 5.113e-05
13750.0 5.1195e-05
13770.0 5.1134e-05
13790.0 5.0953e-05
13810.0 5.0656e-05
13830.0 5.0268e-05
13850.0 4.9781e-05
13870.0 4.9199e-05
13890.0 4.8558e-05
13910.0 4.7858e-05
13930.0 4.7074e-05
13950.0 4.624e-05
13970.0 4.5406e-05
13990.0 4.4518e-05
14010.0 4.3595e-05
14030.0 4.269e-05
14050.0 4.1794e-05
14070.0 4.0865e-05
14090.0 3.9988e-05
14110.0 3.9174e-05
14130.0 3.8396e-05
14150.0 3.7673e-05
14170.0 3.7062e-05
14190.0 3.6538e-05
14210.0 3.6101e-05
14230.0 3.5781e-05
14250.0 3.5578e-05
14270.0 3.5487e-05
14290.0 3.5522e-05
14310.0 3.5669e-05
14330.0 3.5924e-05
14350.0 3.6297e-05
14370.0 3.676e-05
14390.0 3.7288e-05
14410.0 3.7914e-05
14430.0 3.8609e-05
14450.0 3.9331e-05
14470.0 4.0095e-05
14490.0 4.093e-05
14510.0 4.1758e-05
14530.0 4.2578e-05
14550.0 4.344e-05
14570.0 4.4321e-05
14590.0 4.518e-05
14610.0 4.6075e-05
14630.0 4.7033e-05
14650.0 4.7999e-05
14670.0 4.8994e-05
14690.0 5.0083e-05
14710.0 5.1263e-05
14730.0 5.2452e-05
14750.0 5.3752e-05
14770.0 5.5181e-05
14790.0 5.6666e-05
14810.0 5.8201e-05
14830.0 5.9919e-05
14850.0 6.1683e-05
14870.0 6.3429e-05
14890.0 6.5221e-05
14910.0 6.7035e-05
14930.0 6.8711e-05
14950.0 7.0229e-05
14970.0 7.1623e-05
14990.0 7.2768e-05
15010.0 7.3634e-05
15030.0 7.4271e-05
15050.0 7.4694e-05
15070.0 7.4913e-05
15090.0 7.5009e-05
15110.0 7.5016e-05
15130.0 7.497e-05
15150.0 7.4903e-05
15170.0 7.4817e-05
15190.0 7.4722e-05
15210.0 7.4632e-05
15230.0 7.4544e-05
15250.0 7.4448e-05
15270.0 7.4356e-05
15290.0 7.4275e-05
15310.0 7.4188e-05
15330.0 7.41e-05
15350.0 7.402e-05
15370.0 7.3941e-05
15390.0 7.3852e-05
15410.0 7.377e-05
15430.0 7.3694e-05
15450.0 7.3613e-05
15470.0 7.3528e-05
15490.0 7.3454e-05
15510.0 7.3379e-05
15530.0 7.3298e-05
15550.0 7.322e-05
15570.0 7.3148e-05
15590.0 7.3068e-05
15610.0 7.2985e-05
15630.0 7.2912e-05
15650.0 7.2837e-05
15670.0 7.2756e-05
15690.0 7.2679e-05
15710.0 7.2607e-05
15730.0 7.2526e-05
15750.0 7.2445e-05
15770.0 7.2369e-05
15790.0 7.2292e-05
15810.0 7.2204e-05
15830.0 7.2124e-05
15850.0 7.2047e-05
15870.0 7.1963e-05
15890.0 7.1878e-05
15910.0 7.1799e-05
15930.0 7.1715e-05
15950.0 7.1623e-05
15970.0 7.1537e-05
15990.0 7.1453e-05
16010.0 7.136e-05
16030.0 7.1264e-05
16050.0 7.1179e-05
16070.0 7.1087e-05
16090.0 7.0989e-05
16110.0 7.0895e-05
16130.0 7.0803e-05
16150.0 7.0697e-05
16170.0 7.0594e-05
16190.0 7.0496e-05
16210.0 7.0393e-05
16230.0 7.0283e-05
16250.0 7.0178e-05
16270.0 7.0075e-05
16290.0 6.9961e-05
16310.0 6.9847e-05
16330.0 6.9738e-05
16350.0 6.9622e-05
16370.0 6.9495e-05
16390.0 6.9379e-05
16410.0 6.9261e-05
16430.0 6.9134e-05
16450.0 6.9007e-05
16470.0 6.8887e-05
16490.0 6.8755e-05
16510.0 6.8618e-05
16530.0 6.8487e-05
16550.0 6.8355e-05
16570.0 6.8211e-05
16590.0 6.8068e-05
16610.0 6.7933e-05
16630.0 6.7788e-05
16650.0 6.7638e-05
16670.0 6.7493e-05
16690.0 6.7346e-05
16710.0 6.7186e-05
16730.0 6.703e-05
16750.0 6.6877e-05
16770.0 6.6716e-05
16790.0 6.6549e-05
16810.0 6.639e-05
16830.0 6.6227e-05
16850.0 6.6054e-05
16870.0 6.5884e-05
16890.0 6.5717e-05
16910.0 6.5538e-05
16930.0 6.5355e-05
16950.0 6.518e-05
16970.0 6.5001e-05
16990.0 6.4812e-05
17010.0 6.4627e-05
17030.0 6.4446e-05
17050.0 6.4252e-05
17070.0 6.4057e-05
17090.0 6.3867e-05
17110.0 6.3672e-05
17130.0 6.3465e-05
17150.0 6.3266e-05
17170.0 6.3068e-05
17190.0 6.2861e-05
17210.0 6.2652e-05
17230.0 6.245e-05
17250.0 6.2239e-05
17270.0 6.202e-05
17290.0 6.1807e-05
17310.0 6.1594e-05
17330.0 6.1372e-05
17350.0 6.1147e-05
17370.0 6.0932e-05
17390.0 6.0709e-05
17410.0 6.0479e-05
17430.0 6.0254e-05
17450.0 6.003e-05
17470.0 5.9792e-05
17490.0 5.9556e-05
17510.0 5.9327e-05
17530.0 5.9091e-05
17550.0 5.8848e-05
17570.0 5.8612e-05
17590.0 5.8376e-05
17610.0 5.813e-05
17630.0 5.7884e-05
17650.0 5.7644e-05
17670.0 5.7397e-05
17690.0 5.714e-05
17710.0 5.6895e-05
17730.0 5.6647e-05
17750.0 5.6392e-05
17770.0 5.6137e-05
17790.0 5.589e-05
17810.0 5.5631e-05
17830.0 5.5369e-05
17850.0 5.5114e-05
17870.0 5.4857e-05
17890.0 5.4591e-05
17910.0 5.4328e-05
17930.0 5.4072e-05
17950.0 5.3807e-05
17970.0 5.354e-05
17990.0 5.3279e-05
18010.0 5.3016e-05
18030.0 5.2741e-05
18050.0 5.2473e-05
18070.0 5.2208e-05
18090.0 5.1937e-05
18110.0 5.1662e-05
18130.0 5.1397e-05
18150.0 5.1128e-05
18170.0 5.0851e-05
18190.0 5.0579e-05
18210.0 5.0311e-05
18230.0 5.0033e-05
18250.0 4.9753e-05
18270.0 4.9483e-05
18290.0 4.921e-05
18310.0 4.893e-05
18330.0 4.8655e-05
18350.0 4.8385e-05
18370.0 4.8104e-05
18390.0 4.7825e-05
18410.0 4.7552e-05
18430.0 4.7275e-05
18450.0 4.699e-05
18470.0 4.6714e-05
18490.0 4.6441e-05
18510.0 4.6161e-05
18530.0 4.5881e-05
18550.0 4.5609e-05
18570.0 4.5331e-05
18590.0 4.5047e-05
18610.0 4.477e-05
18630.0 4.4496e-05
18650.0 4.4215e-05
18670.0 4.3933e-05
18690.0 4.3662e-05
18710.0 4.3385e-05
18730.0 4.3104e-05
18750.0 4.283e-05
18770.0 4.2558e-05
18790.0 4.2274e-05
18810.0 4.1996e-05
18830.0 4.1725e-05
18850.0 4.1449e-05
18870.0 4.117e-05
18890.0 4.0898e-05
18910.0 4.0628e-05
18930.0 4.035e-05
18950.0 4.0075e-05
18970.0 3.9807e-05
18990.0 3.9534e-05
19010.0 3.9253e-05
19030.0 3.8986e-05
19050.0 3.8718e-05
19070.0 3.8445e-05
19090.0 3.8175e-05
19110.0 3.7912e-05
19130.0 3.764e-05
19150.0 3.7368e-05
19170.0 3.7104e-05
19190.0 3.6839e-05
19210.0 3.6568e-05
19230.0 3.6301e-05
19250.0 3.6043e-05
19270.0 3.5777e-05
19290.0 3.5512e-05
19310.0 3.5253e-05
19330.0 3.4994e-05
19350.0 3.4726e-05
19370.0 3.4466e-05
19390.0 3.4211e-05
19410.0 3.395e-05
19430.0 3.3689e-05
19450.0 3.3437e-05
19470.0 3.3183e-05
19490.0 3.2923e-05
19510.0 3.267e-05
19530.0 3.2421e-05
19550.0 3.2164e-05
19570.0 3.1908e-05
19590.0 3.1662e-05
19610.0 3.1413e-05
19630.0 3.116e-05
19650.0 3.0914e-05
19670.0 3.0671e-05
19690.0 3.0421e-05
19710.0 3.0174e-05
19730.0 2.9933e-05
19750.0 2.969e-05
19770.0 2.9441e-05
19790.0 2.9201e-05
19810.0 2.8965e-05
19830.0 2.8722e-05
19850.0 2.848e-05
19870.0 2.8243e-05
19890.0 2.7996e-05
19910.0 2.7735e-05
19930.0 2.7467e-05
19950.0 2.7177e-05
19970.0 2.6846e-05
19990.0 2.6472e-05
20010.0 2.6125e-05
20030.0 2.5658e-05
20050.0 2.5134e-05
20070.0 2.4585e-05
20090.0 2.4009e-05
20110.0 2.3378e-05
20130.0 2.2752e-05
20150.0 2.2142e-05
20170.0 2.1522e-05
20190.0 2.0902e-05
20210.0 2.0323e-05
20230.0 1.9763e-05
20250.0 1.9207e-05
20270.0 1.8692e-05
20290.0 1.8222e-05
20310.0 1.7776e-05
20330.0 1.7357e-05
20350.0 1.7006e-05
20370.0 1.669e-05
20390.0 1.6411e-05
20410.0 1.618e-05
20430.0 1.5996e-05
20450.0 1.5847e-05
20470.0 1.574e-05
20490.0 1.5675e-05
20510.0 1.5644e-05
20530.0 1.5649e-05
20550.0 1.5685e-05
20570.0 1.5745e-05
20590.0 1.5833e-05
20610.0 1.5945e-05
20630.0 1.6071e-05
20650.0 1.6214e-05
20670.0 1.6381e-05
20690.0 1.6552e-05
20710.0 1.6728e-05
20730.0 1.6918e-05
20750.0 1.7115e-05
20770.0 1.7306e-05
20790.0 1.7505e-05
20810.0 1.7713e-05
20830.0 1.7917e-05
20850.0 1.8118e-05
20870.0 1.8331e-05
20890.0 1.8546e-05
20910.0 1.8749e-05
20930.0 1.8958e-05
20950.0 1.9174e-05
20970.0 1.9382e-05
20990.0 1.9586e-05
21010.0 1.9802e-05
21030.0 2.0013e-05
21050.0 2.0213e-05
21070.0 2.0414e-05
21090.0 2.0619e-05
21110.0 2.0805e-05
21130.0 2.0982e-05
21150.0 2.1158e-05
21170.0 2.1321e-05
21190.0 2.1466e-05
21210.0 2.1603e-05
21230.0 2.1727e-05
21250.0 2.1826e-05
21270.0 2.1906e-05
21290.0 2.1966e-05
21310.0 2.2e-05
21330.0 2.2005e-05
21350.0 2.1983e-05
21370.0 2.1928e-05
21390.0 2.1841e-05
21410.0 2.172e-05
21430.0 2.1555e-05
21450.0 2.1356e-05
21470.0 2.1127e-05
21490.0 2.0856e-05
21510.0 2.0548e-05
21530.0 2.0221e-05
21550.0 1.9867e-05
21570.0 1.9477e-05
21590.0 1.9079e-05
21610.0 1.8681e-05
21630.0 1.8268e-05
21650.0 1.7848e-05
21670.0 1.7465e-05
21690.0 1.7094e-05
21710.0 1.6737e-05
21730.0 1.6418e-05
21750.0 1.6143e-05
21770.0 1.5893e-05
21790.0 1.569e-05
21810.0 1.5539e-05
21830.0 1.5433e-05
21850.0 1.5374e-05
21870.0 1.5364e-05
21890.0 1.5398e-05
21910.0 1.5478e-05
21930.0 1.56e-05
21950.0 1.5755e-05
21970.0 1.5947e-05
21990.0 1.6183e-05
22010.0 1.6435e-05
22030.0 1.6706e-05
22050.0 1.7007e-05
22070.0 1.7325e-05
22090.0 1.7639e-05
22110.0 1.7969e-05
22130.0 1.8313e-05
22150.0 1.8645e-05
22170.0 1.897e-05
22190.0 1.9303e-05
22210.0 1.9623e-05
22230.0 1.9912e-05
22250.0 2.0191e-05
22270.0 2.0456e-05
22290.0 2.0686e-05
22310.0 2.0888e-05
22330.0 2.1072e-05
22350.0 2.1218e-05
22370.0 2.1326e-05
22390.0 2.1401e-05
22410.0 2.1438e-05
22430.0 2.1434e-05
22450.0 2.1391e-05
22470.0 2.1307e-05
22490.0 2.1181e-05
22510.0 2.1019e-05
22530.0 2.0811e-05
22550.0 2.0556e-05
22570.0 2.0271e-05
22590.0 1.9949e-05
22610.0 1.9578e-05
22630.0 1.9176e-05
22650.0 1.8759e-05
22670.0 1.8297e-05
22690.0 1.7802e-05
