#lamb flux
1010.0 1.3952e-05
1030.0 1.4854e-05
1050.0 1.5896e-05
1070.0 1.707e-05
1090.0 1.8405e-05
1110.0 1.9777e-05
1130.0 2.1162e-05
1150.0 2.2616e-05
1170.0 2.412e-05
1190.0 2.5553e-05
1210.0 2.7011e-05
1230.0 2.8522e-05
1250.0 3.001e-05
1270.0 3.1463e-05
1290.0 3.3003e-05
1310.0 3.4551e-05
1330.0 3.6045e-05
1350.0 3.7563e-05
1370.0 3.9138e-05
1390.0 4.0685e-05
1410.0 4.2198e-05
1430.0 4.3785e-05
1450.0 4.5383e-05
1470.0 4.6939e-05
1490.0 4.8521e-05
1510.0 5.0195e-05
1530.0 5.1795e-05
1550.0 5.3383e-05
1570.0 5.5029e-05
1590.0 5.6681e-05
1610.0 5.8269e-05
1630.0 5.9905e-05
1650.0 6.1581e-05
1670.0 6.3205e-05
1690.0 6.4805e-05
1710.0 6.6458e-05
1730.0 6.811e-05
1750.0 6.9658e-05
1770.0 7.1236e-05
1790.0 7.2828e-05
1810.0 7.4351e-05
1830.0 7.5825e-05
1850.0 7.7366e-05
1870.0 7.8839e-05
1890.0 8.0232e-05
1910.0 8.1622e-05
1930.0 8.3016e-05
1950.0 8.4304e-05
1970.0 8.554e-05
1990.0 8.6794e-05
2010.0 8.7985e-05
2030.0 8.9088e-05
2050.0 9.0198e-05
2070.0 9.131e-05
2090.0 9.2302e-05
2110.0 9.326e-05
2130.0 9.4231e-05
2150.0 9.5148e-05
2170.0 9.5982e-05
2190.0 9.6847e-05
2210.0 9.7705e-05
2230.0 9.8496e-05
2250.0 9.9274e-05
2270.0 0.00010011
2290.0 0.0001009
2310.0 0.00010164
2330.0 0.00010244
2350.0 0.00010326
2370.0 0.00010405
2390.0 0.00010487
2410.0 0.00010579
2430.0 0.00010669
2450.0 0.00010761
2470.0 0.00010863
2490.0 0.00010978
2510.0 0.00011109
2530.0 0.00011295
2550.0 0.00011596
2570.0 0.00012081
2590.0 0.00012832
2610.0 0.00014055
2630.0 0.00015817
2650.0 0.00018042
2670.0 0.00020766
2690.0 0.00023912
2710.0 0.00027079
2730.0 0.00030068
2750.0 0.00032929
2770.0 0.00035426
2790.0 0.0003752
2810.0 0.00039391
2830.0 0.00041182
2850.0 0.00042814
2870.0 0.0004444
2890.0 0.00046162
2910.0 0.00047948
2930.0 0.00049742
2950.0 0.00051666
2970.0 0.00053702
2990.0 0.00055757
3010.0 0.0019729
3030.0 0.0020483
3050.0 0.0021232
3070.0 0.0021908
3090.0 0.0022481
3110.0 0.0022793
3130.0 0.0022658
3150.0 0.0021875
3170.0 0.002004
3190.0 0.0017119
3210.0 0.0013165
3230.0 0.00087278
3250.0 0.001338
3270.0 0.00083676
3290.0 0.0019261
3310.0 0.00075929
3330.0 0.00075166
3350.0 0.00090022
3370.0 0.0010779
3390.0 0.0012722
3410.0 0.0014669
3430.0 0.0016721
3450.0 0.0018792
3470.0 0.0020703
3490.0 0.002204
3510.0 0.0026466
3530.0 0.0034271
3550.0 0.0033385
3570.0 0.0027529
3590.0 0.0037264
3610.0 0.0024117
3630.0 0.0039273
3650.0 0.0045746
3670.0 0.0058168
3690.0 0.0054008
3710.0 0.0036165
3730.0 0.0046675
3750.0 0.0047793
3770.0 0.0051294
3790.0 0.0049774
3810.0 0.005124
3830.0 0.0080533
3850.0 0.0098854
3870.0 0.01219
3890.0 0.011847
3910.0 0.010588
3930.0 0.010725
3950.0 0.011584
3970.0 0.012773
3990.0 0.0081901
4010.0 0.0044334
4030.0 0.0078837
4050.0 0.010428
4070.0 0.011156
4090.0 0.0078032
4110.0 0.0049391
4130.0 0.0081233
4150.0 0.0082934
4170.0 0.0077197
4190.0 0.0070048
4210.0 0.0099147
4230.0 0.0073044
4250.0 0.0079139
4270.0 0.0078621
4290.0 0.0074489
4310.0 0.0095488
4330.0 0.010318
4350.0 0.0085969
4370.0 0.0072574
4390.0 0.0088452
4410.0 0.0090589
4430.0 0.0066607
4450.0 0.0060436
4470.0 0.007469
4490.0 0.0057144
4510.0 0.0079765
4530.0 0.0082899
4550.0 0.009838
4570.0 0.013869
4590.0 0.013716
4610.0 0.010875
4630.0 0.017356
4650.0 0.023129
4670.0 0.022057
4690.0 0.015597
4710.0 0.01654
4730.0 0.018735
4750.0 0.015434
4770.0 0.011799
4790.0 0.0079632
4810.0 0.010869
4830.0 0.012801
4850.0 0.011252
4870.0 0.0047303
4890.0 0.012769
4910.0 0.01674
4930.0 0.018194
4950.0 0.018748
4970.0 0.013169
4990.0 0.015325
5010.0 0.0178
5030.0 0.01908
5050.0 0.017812
5070.0 0.012596
5090.0 0.010219
5110.0 0.0098792
5130.0 0.0093866
5150.0 0.0097773
5170.0 0.0087246
5190.0 0.010402
5210.0 0.010558
5230.0 0.011686
5250.0 0.013865
5270.0 0.011486
5290.0 0.011935
5310.0 0.017529
5330.0 0.020134
5350.0 0.016884
5370.0 0.015168
5390.0 0.017584
5410.0 0.020966
5430.0 0.022316
5450.0 0.023454
5470.0 0.023591
5490.0 0.024273
5510.0 0.029028
5530.0 0.030126
5550.0 0.031781
5570.0 0.033338
5590.0 0.032736
5610.0 0.030621
5630.0 0.029866
5650.0 0.030859
5670.0 0.030123
5690.0 0.025764
5710.0 0.025461
5730.0 0.025475
5750.0 0.026463
5770.0 0.02277
5790.0 0.0217
5810.0 0.022209
5830.0 0.023944
5850.0 0.02227
5870.0 0.022354
5890.0 0.026042
5910.0 0.024271
5930.0 0.020023
5950.0 0.018068
5970.0 0.01967
5990.0 0.017842
6010.0 0.016301
6030.0 0.015985
6050.0 0.014641
6070.0 0.011344
6090.0 0.010789
6110.0 0.013841
6130.0 0.015532
6150.0 0.016043
6170.0 0.015602
6190.0 0.014881
6210.0 0.015516
6230.0 0.018829
6250.0 0.017398
6270.0 0.015643
6290.0 0.014219
6310.0 0.012879
6330.0 0.011947
6350.0 0.010678
6370.0 0.010823
6390.0 0.012594
6410.0 0.015637
6430.0 0.018484
6450.0 0.018555
6470.0 0.018762
6490.0 0.022914
6510.0 0.026307
6530.0 0.024998
6550.0 0.023719
6570.0 0.024061
6590.0 0.023715
6610.0 0.0251
6630.0 0.023406
6650.0 0.020337
6670.0 0.01876
6690.0 0.018598
6710.0 0.022013
6730.0 0.019601
6750.0 0.016122
6770.0 0.014553
6790.0 0.015462
6810.0 0.017756
6830.0 0.017673
6850.0 0.015851
6870.0 0.016417
6890.0 0.016316
6910.0 0.015334
6930.0 0.017024
6950.0 0.015837
6970.0 0.014753
6990.0 0.014706
7010.0 0.014814
7030.0 0.01439
7050.0 0.013778
7070.0 0.014778
7090.0 0.013764
7110.0 0.01167
7130.0 0.010024
7150.0 0.0098439
7170.0 0.012429
7190.0 0.013177
7210.0 0.012494
7230.0 0.01314
7250.0 0.012762
7270.0 0.012449
7290.0 0.013486
7310.0 0.014783
7330.0 0.014404
7350.0 0.013363
7370.0 0.012362
7390.0 0.012399
7410.0 0.014246
7430.0 0.01604
7450.0 0.017078
7470.0 0.017323
7490.0 0.01927
7510.0 0.019049
7530.0 0.017263
7550.0 0.016356
7570.0 0.014147
7590.0 0.01348
7610.0 0.013031
7630.0 0.012014
7650.0 0.012917
7670.0 0.014322
7690.0 0.015605
7710.0 0.017821
7730.0 0.018707
7750.0 0.019452
7770.0 0.020236
7790.0 0.021968
7810.0 0.022148
7830.0 0.019892
7850.0 0.019989
7870.0 0.019262
7890.0 0.019738
7910.0 0.018604
7930.0 0.018483
7950.0 0.015532
7970.0 0.015595
7990.0 0.015082
8010.0 0.016398
8030.0 0.016339
8050.0 0.017368
8070.0 0.016672
8090.0 0.01675
8110.0 0.016499
8130.0 0.016319
8150.0 0.015329
8170.0 0.015044
8190.0 0.01501
8210.0 0.01516
8230.0 0.013264
8250.0 0.012131
8270.0 0.010724
8290.0 0.0091203
8310.0 0.0080361
8330.0 0.0063671
8350.0 0.0051562
8370.0 0.0049795
8390.0 0.0048288
8410.0 0.0050547
8430.0 0.0065031
8450.0 0.0070839
8470.0 0.007626
8490.0 0.0089261
8510.0 0.0097157
8530.0 0.01105
8550.0 0.013074
8570.0 0.014364
8590.0 0.01511
8610.0 0.016785
8630.0 0.019099
8650.0 0.019596
8670.0 0.020008
8690.0 0.020765
8710.0 0.020365
8730.0 0.019725
8750.0 0.018179
8770.0 0.018187
8790.0 0.017931
8810.0 0.016492
8830.0 0.016514
8850.0 0.015126
8870.0 0.014424
8890.0 0.012924
8910.0 0.014408
8930.0 0.013034
8950.0 0.013069
8970.0 0.013347
8990.0 0.012963
9010.0 0.013314
9030.0 0.012639
9050.0 0.012578
9070.0 0.012583
9090.0 0.012586
9110.0 0.012598
9130.0 0.012597
9150.0 0.01259
9170.0 0.012548
9190.0 0.012457
9210.0 0.012654
9230.0 0.012598
9250.0 0.012566
9270.0 0.012538
9290.0 0.012514
9310.0 0.012492
9330.0 0.01247
9350.0 0.012448
9370.0 0.012425
9390.0 0.012401
9410.0 0.012377
9430.0 0.012352
9450.0 0.012325
9470.0 0.012298
9490.0 0.01227
9510.0 0.012241
9530.0 0.012211
9550.0 0.012181
9570.0 0.012151
9590.0 0.01212
9610.0 0.012089
9630.0 0.012058
9650.0 0.012027
9670.0 0.011994
9690.0 0.011963
9710.0 0.011931
9730.0 0.011899
9750.0 0.011868
9770.0 0.011837
9790.0 0.011806
9810.0 0.011775
9830.0 0.011745
9850.0 0.011715
9870.0 0.011685
9890.0 0.011656
9910.0 0.011628
9930.0 0.011599
9950.0 0.011553
9970.0 0.011532
9990.0 0.011511
10010.0 0.011488
10030.0 0.011466
10050.0 0.011439
10070.0 0.01139
10090.0 0.011376
10110.0 0.011363
10130.0 0.011347
10150.0 0.011331
10170.0 0.011313
10190.0 0.011295
10210.0 0.011278
10230.0 0.011262
10250.0 0.011245
10270.0 0.01123
10290.0 0.011216
10310.0 0.011202
10330.0 0.011188
10350.0 0.011176
10370.0 0.011165
10390.0 0.011154
10410.0 0.011144
10430.0 0.011136
10450.0 0.011128
10470.0 0.01112
10490.0 0.011114
10510.0 0.011108
10530.0 0.011102
10550.0 0.011098
10570.0 0.011095
10590.0 0.011092
10610.0 0.011089
10630.0 0.011088
10650.0 0.011088
10670.0 0.011087
10690.0 0.011087
10710.0 0.011089
10730.0 0.01109
10750.0 0.011092
10770.0 0.011096
10790.0 0.011099
10810.0 0.011103
10830.0 0.011107
10850.0 0.011111
10870.0 0.011113
10890.0 0.01111
10910.0 0.011101
10930.0 0.011079
10950.0 0.011034
10970.0 0.010963
10990.0 0.010863
11010.0 0.011051
11030.0 0.010858
11050.0 0.010632
11070.0 0.010369
11090.0 0.010065
11110.0 0.0097619
11130.0 0.0094584
11150.0 0.0091477
11170.0 0.0088457
11190.0 0.0085708
11210.0 0.0083056
11230.0 0.0080533
11250.0 0.0078301
11270.0 0.0076307
11290.0 0.0074442
11310.0 0.0072782
11330.0 0.0071384
11350.0 0.0070091
11370.0 0.0068889
11390.0 0.0067807
11410.0 0.006679
11430.0 0.0065732
11450.0 0.0064685
11470.0 0.006364
11490.0 0.0062525
11510.0 0.0061312
11530.0 0.0060092
11550.0 0.0058826
11570.0 0.0057453
11590.0 0.0056049
11610.0 0.005466
11630.0 0.0053197
11650.0 0.0051686
11670.0 0.0050252
11690.0 0.0048834
11710.0 0.0047393
11730.0 0.0046005
11750.0 0.0044716
11770.0 0.0043422
11790.0 0.0042164
11810.0 0.0041001
11830.0 0.0039892
11850.0 0.0038775
11870.0 0.0037742
11890.0 0.0036787
11910.0 0.0035838
11930.0 0.0034913
11950.0 0.0034056
11970.0 0.0033214
11990.0 0.0032358
12010.0 0.0031548
12030.0 0.0030776
12050.0 0.0030002
12070.0 0.0029236
12090.0 0.0028551
12110.0 0.0027892
12130.0 0.0027261
12150.0 0.0026701
12170.0 0.0026223
12190.0 0.0025793
12210.0 0.002546
12230.0 0.0025241
12250.0 0.0025125
12270.0 0.0025126
12290.0 0.0025252
12310.0 0.0025492
12330.0 0.002586
12350.0 0.0026344
12370.0 0.0026913
12390.0 0.0027572
12410.0 0.0028338
12430.0 0.0029114
12450.0 0.0029905
12470.0 0.0030726
12490.0 0.0031529
12510.0 0.0032267
12530.0 0.0032978
12550.0 0.0033642
12570.0 0.0034218
12590.0 0.0034717
12610.0 0.0035155
12630.0 0.0035512
12650.0 0.0035782
12670.0 0.003599
12690.0 0.0036134
12710.0 0.0036215
12730.0 0.0036245
12750.0 0.003622
12770.0 0.003615
12790.0 0.0036044
12810.0 0.0035895
12830.0 0.00357
12850.0 0.003548
12870.0 0.0035225
12890.0 0.0034917
12910.0 0.0034572
12930.0 0.0034201
12950.0 0.0033768
12970.0 0.0033276
12990.0 0.0032768
13010.0 0.0032219
13030.0 0.0031611
13050.0 0.0030981
13070.0 0.0030355
13090.0 0.0029687
13110.0 0.0029007
13130.0 0.0028361
13150.0 0.0027734
13170.0 0.0027106
13190.0 0.0026548
13210.0 0.0026062
13230.0 0.0025622
13250.0 0.0025251
13270.0 0.0024969
13290.0 0.0024755
13310.0 0.0024604
13330.0 0.0024527
13350.0 0.0024506
13370.0 0.0024528
13390.0 0.0024581
13410.0 0.002465
13430.0 0.0024719
13450.0 0.0024775
13470.0 0.0024806
13490.0 0.0024806
13510.0 0.0024761
13530.0 0.0024671
13550.0 0.0024544
13570.0 0.0024376
13590.0 0.0024169
13610.0 0.0023943
13630.0 0.0023709
13650.0 0.0023455
13670.0 0.0023204
13690.0 0.0022968
13710.0 0.0022741
13730.0 0.0022518
13750.0 0.0022326
13770.0 0.0022151
13790.0 0.0021983
13810.0 0.0021827
13830.0 0.0021684
13850.0 0.0021538
13870.0 0.0021387
13890.0 0.0021235
13910.0 0.0021076
13930.0 0.00209
13950.0 0.0020716
13970.0 0.0020532
13990.0 0.0020338
14010.0 0.0020139
14030.0 0.0019949
14050.0 0.0019766
14070.0 0.0019586
14090.0 0.0019424
14110.0 0.0019284
14130.0 0.001916
14150.0 0.0019055
14170.0 0.0018974
14190.0 0.0018913
14210.0 0.0018872
14230.0 0.0018851
14250.0 0.0018849
14270.0 0.0018867
14290.0 0.0018908
14310.0 0.0018963
14330.0 0.0019037
14350.0 0.0019132
14370.0 0.001924
14390.0 0.0019356
14410.0 0.0019489
14430.0 0.0019631
14450.0 0.0019771
14470.0 0.0019912
14490.0 0.0020063
14510.0 0.0020205
14530.0 0.0020339
14550.0 0.002048
14570.0 0.0020623
14590.0 0.0020764
14610.0 0.0020918
14630.0 0.0021096
14650.0 0.0021287
14670.0 0.0021497
14690.0 0.0021747
14710.0 0.0022036
14730.0 0.0022337
14750.0 0.0022681
14770.0 0.002307
14790.0 0.0023478
14810.0 0.00239
14830.0 0.0024374
14850.0 0.0024853
14870.0 0.0025313
14890.0 0.0025773
14910.0 0.0026224
14930.0 0.0026619
14950.0 0.0026955
14970.0 0.0027243
14990.0 0.0027451
15010.0 0.0027575
15030.0 0.0027632
15050.0 0.0027627
15070.0 0.0027566
15090.0 0.0027472
15110.0 0.0027353
15130.0 0.002722
15150.0 0.0027082
15170.0 0.0026938
15190.0 0.0026792
15210.0 0.0026647
15230.0 0.0026503
15250.0 0.0026356
15270.0 0.002621
15290.0 0.0026067
15310.0 0.0025923
15330.0 0.0025778
15350.0 0.0025635
15370.0 0.0025493
15390.0 0.0025349
15410.0 0.0025206
15430.0 0.0025066
15450.0 0.0024924
15470.0 0.0024782
15490.0 0.0024643
15510.0 0.0024505
15530.0 0.0024365
15550.0 0.0024226
15570.0 0.002409
15590.0 0.0023952
15610.0 0.0023814
15630.0 0.0023679
15650.0 0.0023545
15670.0 0.0023409
15690.0 0.0023275
15710.0 0.0023144
15730.0 0.0023011
15750.0 0.0022878
15770.0 0.0022748
15790.0 0.0022618
15810.0 0.0022487
15830.0 0.0022358
15850.0 0.0022231
15870.0 0.0022104
15890.0 0.0021976
15910.0 0.0021852
15930.0 0.0021727
15950.0 0.0021601
15970.0 0.0021478
15990.0 0.0021357
16010.0 0.0021234
16030.0 0.0021111
16050.0 0.0020993
16070.0 0.0020873
16090.0 0.0020753
16110.0 0.0020636
16130.0 0.002052
16150.0 0.0020402
16170.0 0.0020285
16190.0 0.0020172
16210.0 0.0020058
16230.0 0.0019943
16250.0 0.0019831
16270.0 0.0019721
16290.0 0.0019608
16310.0 0.0019498
16330.0 0.0019389
16350.0 0.0019281
16370.0 0.001917
16390.0 0.0019064
16410.0 0.0018958
16430.0 0.0018852
16450.0 0.0018746
16470.0 0.0018644
16490.0 0.0018539
16510.0 0.0018435
16530.0 0.0018334
16550.0 0.0018233
16570.0 0.0018131
16590.0 0.001803
16610.0 0.0017932
16630.0 0.0017833
16650.0 0.0017734
16670.0 0.0017638
16690.0 0.0017542
16710.0 0.0017444
16730.0 0.0017348
16750.0 0.0017255
16770.0 0.001716
16790.0 0.0017065
16810.0 0.0016974
16830.0 0.0016882
16850.0 0.0016789
16870.0 0.0016698
16890.0 0.0016609
16910.0 0.0016518
16930.0 0.0016428
16950.0 0.001634
16970.0 0.0016252
16990.0 0.0016164
17010.0 0.0016077
17030.0 0.0015992
17050.0 0.0015905
17070.0 0.0015819
17090.0 0.0015735
17110.0 0.0015651
17130.0 0.0015565
17150.0 0.0015482
17170.0 0.0015401
17190.0 0.0015318
17210.0 0.0015235
17230.0 0.0015156
17250.0 0.0015075
17270.0 0.0014993
17290.0 0.0014913
17310.0 0.0014835
17330.0 0.0014755
17350.0 0.0014675
17370.0 0.0014599
17390.0 0.0014522
17410.0 0.0014444
17430.0 0.0014367
17450.0 0.0014293
17470.0 0.0014215
17490.0 0.0014139
17510.0 0.0014065
17530.0 0.001399
17550.0 0.0013915
17570.0 0.0013842
17590.0 0.001377
17610.0 0.0013696
17630.0 0.0013623
17650.0 0.0013552
17670.0 0.001348
17690.0 0.0013406
17710.0 0.0013336
17730.0 0.0013266
17750.0 0.0013195
17770.0 0.0013124
17790.0 0.0013057
17810.0 0.0012987
17830.0 0.0012916
17850.0 0.0012848
17870.0 0.0012781
17890.0 0.0012711
17910.0 0.0012643
17930.0 0.0012578
17950.0 0.001251
17970.0 0.0012443
17990.0 0.0012378
18010.0 0.0012313
18030.0 0.0012245
18050.0 0.001218
18070.0 0.0012116
18090.0 0.001205
18110.0 0.0011985
18130.0 0.0011922
18150.0 0.0011859
18170.0 0.0011794
18190.0 0.0011731
18210.0 0.001167
18230.0 0.0011606
18250.0 0.0011542
18270.0 0.0011481
18290.0 0.001142
18310.0 0.0011357
18330.0 0.0011296
18350.0 0.0011237
18370.0 0.0011175
18390.0 0.0011114
18410.0 0.0011055
18430.0 0.0010995
18450.0 0.0010934
18470.0 0.0010875
18490.0 0.0010817
18510.0 0.0010758
18530.0 0.0010699
18550.0 0.0010642
18570.0 0.0010584
18590.0 0.0010525
18610.0 0.0010467
18630.0 0.0010411
18650.0 0.0010353
18670.0 0.0010295
18690.0 0.0010241
18710.0 0.0010184
18730.0 0.0010127
18750.0 0.0010072
18770.0 0.0010018
18790.0 0.00099607
18810.0 0.00099052
18830.0 0.00098515
18850.0 0.00097968
18870.0 0.00097413
18890.0 0.00096881
18910.0 0.00096352
18930.0 0.00095804
18950.0 0.00095268
18970.0 0.00094747
18990.0 0.00094215
19010.0 0.00093666
19030.0 0.00093152
19050.0 0.00092636
19070.0 0.00092106
19090.0 0.00091586
19110.0 0.00091086
19130.0 0.00090563
19150.0 0.0009004
19170.0 0.00089537
19190.0 0.00089034
19210.0 0.00088514
19230.0 0.00088006
19250.0 0.0008752
19270.0 0.00087016
19290.0 0.00086511
19310.0 0.00086025
19330.0 0.00085537
19350.0 0.00085026
19370.0 0.00084537
19390.0 0.00084059
19410.0 0.00083567
19430.0 0.00083073
19450.0 0.00082603
19470.0 0.00082127
19490.0 0.00081638
19510.0 0.00081163
19530.0 0.00080699
19550.0 0.00080215
19570.0 0.00079731
19590.0 0.00079274
19610.0 0.00078809
19630.0 0.00078333
19650.0 0.00077872
19670.0 0.00077423
19690.0 0.00076951
19710.0 0.00076486
19730.0 0.00076038
19750.0 0.00075583
19770.0 0.00075112
19790.0 0.00074664
19810.0 0.00074223
19830.0 0.00073764
19850.0 0.00073306
19870.0 0.00072859
19890.0 0.00072379
19910.0 0.00071853
19930.0 0.00071296
19950.0 0.00070665
19970.0 0.00069898
19990.0 0.00068992
20010.0 0.00067986
20030.0 0.00066799
20050.0 0.00065453
20070.0 0.0006405
20090.0 0.000626
20110.0 0.00061034
20130.0 0.00059531
20150.0 0.00058118
20170.0 0.00056727
20190.0 0.00055393
20210.0 0.000542
20230.0 0.00053096
20250.0 0.00052047
20270.0 0.00051128
20290.0 0.00050338
20310.0 0.00049634
20330.0 0.00049029
20350.0 0.0004858
20370.0 0.00048238
20390.0 0.00048006
20410.0 0.00047902
20430.0 0.00047917
20450.0 0.00048055
20470.0 0.00048321
20490.0 0.00048697
20510.0 0.00049189
20530.0 0.00049814
20550.0 0.00050531
20570.0 0.00051311
20590.0 0.00052202
20610.0 0.00053164
20630.0 0.00054141
20650.0 0.00055159
20670.0 0.00056241
20690.0 0.0005727
20710.0 0.00058259
20730.0 0.00059237
20750.0 0.00060163
20770.0 0.00060984
20790.0 0.00061753
20810.0 0.00062465
20830.0 0.00063082
20850.0 0.00063621
20870.0 0.00064119
20890.0 0.00064557
20910.0 0.00064928
20930.0 0.0006527
20950.0 0.00065587
20970.0 0.00065867
20990.0 0.0006612
21010.0 0.00066358
21030.0 0.00066563
21050.0 0.0006673
21070.0 0.00066862
21090.0 0.00066953
21110.0 0.0006699
21130.0 0.00066979
21150.0 0.00066913
21170.0 0.00066793
21190.0 0.00066631
21210.0 0.00066416
21230.0 0.00066153
21250.0 0.00065866
21270.0 0.00065555
21290.0 0.00065214
21310.0 0.00064864
21330.0 0.00064528
21350.0 0.00064183
21370.0 0.00063844
21390.0 0.00063533
21410.0 0.00063245
21430.0 0.00062967
21450.0 0.00062731
21470.0 0.00062535
21490.0 0.00062367
21510.0 0.00062236
21530.0 0.00062148
21550.0 0.00062097
21570.0 0.00062085
21590.0 0.00062115
21610.0 0.00062185
21630.0 0.00062298
21650.0 0.00062461
21670.0 0.00062657
21690.0 0.00062899
21710.0 0.00063195
21730.0 0.00063533
21750.0 0.00063904
21770.0 0.00064347
21790.0 0.00064838
21810.0 0.00065359
21830.0 0.00065931
21850.0 0.00066571
21870.0 0.00067238
21890.0 0.00067923
21910.0 0.00068674
21930.0 0.00069458
21950.0 0.0007024
21970.0 0.00071054
21990.0 0.00071922
22010.0 0.00072755
22030.0 0.00073573
22050.0 0.00074406
22070.0 0.00075216
22090.0 0.00075958
22110.0 0.00076678
22130.0 0.00077361
22150.0 0.00077958
22170.0 0.00078477
22190.0 0.00078933
22210.0 0.00079287
22230.0 0.00079525
22250.0 0.00079663
22270.0 0.00079684
22290.0 0.00079586
22310.0 0.00079373
22330.0 0.0007902
22350.0 0.00078544
22370.0 0.00077964
22390.0 0.00077253
22410.0 0.00076399
22430.0 0.00075481
22450.0 0.00074476
22470.0 0.00073345
22490.0 0.00072149
22510.0 0.00070933
22530.0 0.00069612
22550.0 0.00068224
22570.0 0.00066867
22590.0 0.00065496
22610.0 0.00064073
22630.0 0.00062675
22650.0 0.00061353
22670.0 0.00060004
22690.0 0.00058676
22710.0 0.00057434
22730.0 0.0005624
22750.0 0.00055032
22770.0 0.00053929
22790.0 0.00052916
22810.0 0.00051935
22830.0 0.00051012
22850.0 0.00050196
22870.0 0.00049438
22890.0 0.00048728
22910.0 0.00048114
22930.0 0.00047588
22950.0 0.00047124
22970.0 0.00046737
22990.0 0.00046457
23010.0 0.00046252
23030.0 0.00046127
23050.0 0.00046089
23070.0 0.0004613
23090.0 0.00046256
23110.0 0.0004646
23130.0 0.00046726
23150.0 0.00047058
23170.0 0.0004746
23190.0 0.00047897
23210.0 0.00048357
23230.0 0.00048863
23250.0 0.00049385
23270.0 0.00049896
23290.0 0.00050412
23310.0 0.00050938
23330.0 0.00051416
23350.0 0.0005186
23370.0 0.00052281
23390.0 0.00052658
23410.0 0.00052973
23430.0 0.00053247
23450.0 0.00053471
23470.0 0.00053632
23490.0 0.00053735
23510.0 0.00053784
23530.0 0.00053772
23550.0 0.00053709
23570.0 0.00053594
23590.0 0.00053428
23610.0 0.00053226
23630.0 0.00052993
23650.0 0.00052719
23670.0 0.00052432
23690.0 0.00052147
23710.0 0.00051859
23730.0 0.00051584
23750.0 0.00051357
23770.0 0.00051178
