#lamb flux
1010.0 3.2456e-06
1030.0 4.0759e-06
1050.0 5.0261e-06
1070.0 6.0898e-06
1090.0 7.2907e-06
1110.0 8.5117e-06
1130.0 9.7307e-06
1150.0 1.102e-05
1170.0 1.2346e-05
1190.0 1.3598e-05
1210.0 1.4853e-05
1230.0 1.6148e-05
1250.0 1.7412e-05
1270.0 1.8639e-05
1290.0 1.9939e-05
1310.0 2.1242e-05
1330.0 2.2497e-05
1350.0 2.3775e-05
1370.0 2.5106e-05
1390.0 2.6417e-05
1410.0 2.7702e-05
1430.0 2.9059e-05
1450.0 3.043e-05
1470.0 3.1769e-05
1490.0 3.3134e-05
1510.0 3.4562e-05
1530.0 3.5917e-05
1550.0 3.7278e-05
1570.0 3.8783e-05
1590.0 4.0293e-05
1610.0 4.1746e-05
1630.0 4.3237e-05
1650.0 4.476e-05
1670.0 4.6234e-05
1690.0 4.7685e-05
1710.0 4.918e-05
1730.0 5.0676e-05
1750.0 5.2084e-05
1770.0 5.3523e-05
1790.0 5.4983e-05
1810.0 5.6394e-05
1830.0 5.7776e-05
1850.0 5.9234e-05
1870.0 6.0649e-05
1890.0 6.2017e-05
1910.0 6.3409e-05
1930.0 6.4833e-05
1950.0 6.6197e-05
1970.0 6.7544e-05
1990.0 6.894e-05
2010.0 7.0313e-05
2030.0 7.1637e-05
2050.0 7.3001e-05
2070.0 7.4404e-05
2090.0 7.5732e-05
2110.0 7.7059e-05
2130.0 7.8429e-05
2150.0 7.9777e-05
2170.0 8.1071e-05
2190.0 8.2418e-05
2210.0 8.3777e-05
2230.0 8.5085e-05
2250.0 8.6392e-05
2270.0 8.7762e-05
2290.0 8.9095e-05
2310.0 9.0379e-05
2330.0 9.1706e-05
2350.0 9.3046e-05
2370.0 9.4331e-05
2390.0 9.5626e-05
2410.0 9.6981e-05
2430.0 9.8306e-05
2450.0 9.9644e-05
2470.0 0.00010113
2490.0 0.00010286
2510.0 0.00010486
2530.0 0.00010748
2550.0 0.00011115
2570.0 0.00011612
2590.0 0.00012272
2610.0 0.00013219
2630.0 0.00014474
2650.0 0.00016003
2670.0 0.00017883
2690.0 0.00020145
2710.0 0.000226
2730.0 0.0002515
2750.0 0.00027875
2770.0 0.0003053
2790.0 0.00032937
2810.0 0.00035133
2830.0 0.00037119
2850.0 0.00038691
2870.0 0.00039994
2890.0 0.0004113
2910.0 0.00042113
2930.0 0.0004297
2950.0 0.00043808
2970.0 0.0004464
2990.0 0.00045441
3010.0 0.00046236
3030.0 0.00047062
3050.0 0.00047889
3070.0 0.00048673
3090.0 0.00049477
3110.0 0.00050308
3130.0 0.00051186
3150.0 0.00052243
3170.0 0.00053751
3190.0 0.00055898
3210.0 0.0005888
3230.0 0.00063017
3250.0 0.00068314
3270.0 0.00072977
3290.0 0.00080997
3310.0 0.0009867
3330.0 0.0010288
3350.0 0.0010374
3370.0 0.0010444
3390.0 0.0010515
3410.0 0.0010588
3430.0 0.0010663
3450.0 0.0010738
3470.0 0.0010811
3490.0 0.0010879
3510.0 0.0010935
3530.0 0.0010688
3550.0 0.0010254
3570.0 0.001026
3590.0 0.0010766
3610.0 0.0011613
3630.0 0.0011869
3650.0 0.0011317
3670.0 0.0010354
3690.0 0.00098064
3710.0 0.00099292
3730.0 0.0010259
3750.0 0.0010456
3770.0 0.0010851
3790.0 0.0011312
3810.0 0.0011226
3830.0 0.0010563
3850.0 0.00099933
3870.0 0.00097934
3890.0 0.00098155
3910.0 0.00097462
3930.0 0.00098073
3950.0 0.0010279
3970.0 0.0010829
3990.0 0.0011177
4010.0 0.0011016
4030.0 0.0010677
4050.0 0.0010552
4070.0 0.0010486
4090.0 0.0010482
4110.0 0.0010383
4130.0 0.0010044
4150.0 0.00096785
4170.0 0.00095626
4190.0 0.00091793
4210.0 0.00085593
4230.0 0.00078806
4250.0 0.00072026
4270.0 0.00067143
4290.0 0.00063701
4310.0 0.00062568
4330.0 0.0006415
4350.0 0.0006607
4370.0 0.00068369
4390.0 0.0007254
4410.0 0.00075978
4430.0 0.00074857
4450.0 0.00069331
4470.0 0.00064384
4490.0 0.00062002
4510.0 0.00060696
4530.0 0.00060377
4550.0 0.00060105
4570.0 0.00060451
4590.0 0.00061781
4610.0 0.00064126
4630.0 0.00065592
4650.0 0.00066375
4670.0 0.00064833
4690.0 0.0006096
4710.0 0.00056999
4730.0 0.00054328
4750.0 0.00052531
4770.0 0.00052401
4790.0 0.00051751
4810.0 0.00050146
4830.0 0.0004978
4850.0 0.00050636
4870.0 0.00050559
4890.0 0.00048853
4910.0 0.00046925
4930.0 0.00043517
4950.0 0.00039105
4970.0 0.00035891
4990.0 0.00033208
5010.0 0.00032205
5030.0 0.00032678
5050.0 0.00032808
5070.0 0.0003338
5090.0 0.00034712
5110.0 0.00034557
5130.0 0.00034199
5150.0 0.00034166
5170.0 0.00033855
5190.0 0.00034143
5210.0 0.00033693
5230.0 0.0003281
5250.0 0.00032522
5270.0 0.00032431
5290.0 0.00032062
5310.0 0.00031433
5330.0 0.00030456
5350.0 0.00029737
5370.0 0.00029123
5390.0 0.00028471
5410.0 0.0002795
5430.0 0.0002774
5450.0 0.00028038
5470.0 0.00028456
5490.0 0.00029125
5510.0 0.0002998
5530.0 0.00030359
5550.0 0.00030874
5570.0 0.00031015
5590.0 0.00030478
5610.0 0.00030426
5630.0 0.00030879
5650.0 0.00030752
5670.0 0.00030355
5690.0 0.00029748
5710.0 0.00030038
5730.0 0.00030736
5750.0 0.00029833
5770.0 0.0002873
5790.0 0.00026802
5810.0 0.0002381
5830.0 0.00026141
5850.0 0.00029517
5870.0 0.00030752
5890.0 0.00031528
5910.0 0.0003241
5930.0 0.00033022
5950.0 0.00033154
5970.0 0.00033463
5990.0 0.00033689
6010.0 0.00033388
6030.0 0.00032953
6050.0 0.00033162
6070.0 0.00033767
6090.0 0.0003398
6110.0 0.00033565
6130.0 0.00033139
6150.0 0.00032492
6170.0 0.00031789
6190.0 0.00031026
6210.0 0.00030538
6230.0 0.00030685
6250.0 0.00030617
6270.0 0.00030539
6290.0 0.00030839
6310.0 0.00031158
6330.0 0.00030978
6350.0 0.00030449
6370.0 0.00030311
6390.0 0.00030152
6410.0 0.00029695
6430.0 0.00029256
6450.0 0.00028935
6470.0 0.00028608
6490.0 0.00028438
6510.0 0.000282
6530.0 0.00027687
6550.0 0.00027251
6570.0 0.00026987
6590.0 0.00027055
6610.0 0.00026977
6630.0 0.00026136
6650.0 0.0002544
6670.0 0.00025191
6690.0 0.00024782
6710.0 0.00024152
6730.0 0.0002388
6750.0 0.00023981
6770.0 0.00025305
6790.0 0.00028177
6810.0 0.00026571
6830.0 0.00023142
6850.0 0.00022056
6870.0 0.00021524
6890.0 0.00021318
6910.0 0.00021139
6930.0 0.00020952
6950.0 0.00020629
6970.0 0.0001985
6990.0 0.00019407
7010.0 0.00019421
7030.0 0.00019221
7050.0 0.00018653
7070.0 0.0001819
7090.0 0.00018025
7110.0 0.00018141
7130.0 0.00017883
7150.0 0.0001763
7170.0 0.00017407
7190.0 0.00017335
7210.0 0.00017183
7230.0 0.00017027
7250.0 0.00016926
7270.0 0.00016754
7290.0 0.00016681
7310.0 0.00016666
7330.0 0.00016214
7350.0 0.00015562
7370.0 0.00015035
7390.0 0.00014687
7410.0 0.00014474
7430.0 0.00014361
7450.0 0.00014166
7470.0 0.00014072
7490.0 0.00013715
7510.0 0.00013311
7530.0 0.00013201
7550.0 0.00013384
7570.0 0.00013105
7590.0 0.00012178
7610.0 0.00011838
7630.0 0.00012295
7650.0 0.00012308
7670.0 0.00012197
7690.0 0.00012539
7710.0 0.00012718
7730.0 0.00012611
7750.0 0.00013072
7770.0 0.00012514
7790.0 0.00012019
7810.0 0.00012558
7830.0 0.00012838
7850.0 0.00012994
7870.0 0.00013052
7890.0 0.00012988
7910.0 0.00012727
7930.0 0.00012669
7950.0 0.00013096
7970.0 0.00012933
7990.0 0.000119
8010.0 0.00016601
8030.0 0.00016262
8050.0 0.00015996
8070.0 0.00015509
8090.0 0.00013939
8110.0 0.00013793
8130.0 0.00015325
8150.0 0.00016174
8170.0 0.00016589
8190.0 0.00017249
8210.0 0.00016671
8230.0 0.00016689
8250.0 0.00016631
8270.0 0.00016505
8290.0 0.00016237
8310.0 0.00015453
8330.0 0.00015185
8350.0 0.00015618
8370.0 0.00015786
8390.0 0.00015451
8410.0 0.00015266
8430.0 0.00014782
8450.0 0.00014537
8470.0 0.00015491
8490.0 0.00015592
8510.0 0.00014693
8530.0 0.0001445
8550.0 0.00014279
8570.0 0.00013455
8590.0 0.0001351
8610.0 0.00013668
8630.0 0.00014039
8650.0 0.00014054
8670.0 0.00014057
8690.0 0.00013795
8710.0 0.00013348
8730.0 0.00012993
8750.0 0.00012753
8770.0 0.00012737
8790.0 0.00013061
8810.0 0.00012441
8830.0 0.00012342
8850.0 0.00012844
8870.0 0.00012185
8890.0 0.0001139
8910.0 0.00011175
8930.0 0.00011087
8950.0 0.00010423
8970.0 9.9975e-05
8990.0 9.7819e-05
9010.0 9.256e-05
9030.0 9.1232e-05
9050.0 9.0759e-05
9070.0 9.0329e-05
9090.0 8.9894e-05
9110.0 8.945e-05
9130.0 8.9004e-05
9150.0 8.8562e-05
9170.0 8.8115e-05
9190.0 8.7664e-05
9210.0 8.7208e-05
9230.0 8.675e-05
9250.0 8.6289e-05
9270.0 8.5826e-05
9290.0 8.5359e-05
9310.0 8.4927e-05
9330.0 8.4544e-05
9350.0 8.416e-05
9370.0 8.3773e-05
9390.0 8.3384e-05
9410.0 8.2992e-05
9430.0 8.26e-05
9450.0 8.2204e-05
9470.0 8.1851e-05
9490.0 8.1474e-05
9510.0 8.1052e-05
9530.0 8.0632e-05
9550.0 8.0223e-05
9570.0 7.9818e-05
9590.0 7.9412e-05
9610.0 7.9056e-05
9630.0 7.8709e-05
9650.0 7.8358e-05
9670.0 7.8002e-05
9690.0 7.7651e-05
9710.0 7.73e-05
9730.0 7.6944e-05
9750.0 7.6589e-05
9770.0 7.6241e-05
9790.0 7.5887e-05
9810.0 7.5531e-05
9830.0 7.518e-05
9850.0 7.4789e-05
9870.0 7.437e-05
9890.0 7.4063e-05
9910.0 7.3741e-05
9930.0 7.336e-05
9950.0 7.3014e-05
9970.0 7.2691e-05
9990.0 7.2359e-05
10010.0 7.2025e-05
10030.0 7.1687e-05
10050.0 7.1346e-05
10070.0 7.1007e-05
10090.0 7.0669e-05
10110.0 7.033e-05
10130.0 6.9994e-05
10150.0 6.9661e-05
10170.0 6.9329e-05
10190.0 6.8998e-05
10210.0 6.8671e-05
10230.0 6.8346e-05
10250.0 6.8022e-05
10270.0 6.7701e-05
10290.0 6.7383e-05
10310.0 6.7066e-05
10330.0 6.675e-05
10350.0 6.6439e-05
10370.0 6.613e-05
10390.0 6.5819e-05
10410.0 6.5466e-05
10430.0 6.5101e-05
10450.0 6.4855e-05
10470.0 6.4582e-05
10490.0 6.4306e-05
10510.0 6.4028e-05
10530.0 6.3739e-05
10550.0 6.3455e-05
10570.0 6.3177e-05
10590.0 6.2896e-05
10610.0 6.2615e-05
10630.0 6.2344e-05
10650.0 6.2075e-05
10670.0 6.18e-05
10690.0 6.1533e-05
10710.0 6.1272e-05
10730.0 6.101e-05
10750.0 6.0745e-05
10770.0 6.0493e-05
10790.0 6.0242e-05
10810.0 5.9989e-05
10830.0 5.9741e-05
10850.0 5.9501e-05
10870.0 5.9254e-05
10890.0 5.9007e-05
10910.0 5.8767e-05
10930.0 5.8523e-05
10950.0 5.8266e-05
10970.0 5.8006e-05
10990.0 5.7742e-05
11010.0 5.5685e-05
11030.0 5.5398e-05
11050.0 5.5113e-05
11070.0 5.4816e-05
11090.0 5.4491e-05
11110.0 5.4175e-05
11130.0 5.3856e-05
11150.0 5.3516e-05
11170.0 5.3167e-05
11190.0 5.2829e-05
11210.0 5.2476e-05
11230.0 5.211e-05
11250.0 5.1755e-05
11270.0 5.1408e-05
11290.0 5.1051e-05
11310.0 5.0703e-05
11330.0 5.0387e-05
11350.0 5.0074e-05
11370.0 4.977e-05
11390.0 4.9491e-05
11410.0 4.9231e-05
11430.0 4.8969e-05
11450.0 4.8724e-05
11470.0 4.8496e-05
11490.0 4.8269e-05
11510.0 4.8039e-05
11530.0 4.782e-05
11550.0 4.7602e-05
11570.0 4.7371e-05
11590.0 4.7138e-05
11610.0 4.6906e-05
11630.0 4.6657e-05
11650.0 4.6393e-05
11670.0 4.6134e-05
11690.0 4.5867e-05
11710.0 4.5583e-05
11730.0 4.5296e-05
11750.0 4.5016e-05
11770.0 4.472e-05
11790.0 4.4418e-05
11810.0 4.4126e-05
11830.0 4.3835e-05
11850.0 4.3531e-05
11870.0 4.3242e-05
11890.0 4.2968e-05
11910.0 4.2695e-05
11930.0 4.2428e-05
11950.0 4.2183e-05
11970.0 4.1949e-05
11990.0 4.1718e-05
12010.0 4.1508e-05
12030.0 4.1318e-05
12050.0 4.1136e-05
12070.0 4.0966e-05
12090.0 4.0821e-05
12110.0 4.0686e-05
12130.0 4.056e-05
12150.0 4.0447e-05
12170.0 4.0347e-05
12190.0 4.0247e-05
12210.0 4.0152e-05
12230.0 4.0063e-05
12250.0 3.997e-05
12270.0 3.9869e-05
12290.0 3.9762e-05
12310.0 3.9649e-05
12330.0 3.9516e-05
12350.0 3.9368e-05
12370.0 3.9208e-05
12390.0 3.9028e-05
12410.0 3.8818e-05
12430.0 3.8599e-05
12450.0 3.8366e-05
12470.0 3.8106e-05
12490.0 3.783e-05
12510.0 3.7551e-05
12530.0 3.7251e-05
12550.0 3.6932e-05
12570.0 3.6614e-05
12590.0 3.6293e-05
12610.0 3.5952e-05
12630.0 3.5609e-05
12650.0 3.5283e-05
12670.0 3.4949e-05
12690.0 3.4612e-05
12710.0 3.4292e-05
12730.0 3.3983e-05
12750.0 3.3665e-05
12770.0 3.3366e-05
12790.0 3.3088e-05
12810.0 3.2817e-05
12830.0 3.2553e-05
12850.0 3.2318e-05
12870.0 3.2099e-05
12890.0 3.1889e-05
12910.0 3.1701e-05
12930.0 3.1535e-05
12950.0 3.1382e-05
12970.0 3.1246e-05
12990.0 3.1136e-05
13010.0 3.1044e-05
13030.0 3.0968e-05
13050.0 3.0912e-05
13070.0 3.0873e-05
13090.0 3.0845e-05
13110.0 3.083e-05
13130.0 3.0822e-05
13150.0 3.0819e-05
13170.0 3.0816e-05
13190.0 3.0809e-05
13210.0 3.0795e-05
13230.0 3.077e-05
13250.0 3.0731e-05
13270.0 3.0678e-05
13290.0 3.0607e-05
13310.0 3.0514e-05
13330.0 3.0404e-05
13350.0 3.0278e-05
13370.0 3.0129e-05
13390.0 2.9958e-05
13410.0 2.9781e-05
13430.0 2.9585e-05
13450.0 2.9369e-05
13470.0 2.9143e-05
13490.0 2.8913e-05
13510.0 2.8656e-05
13530.0 2.8392e-05
13550.0 2.8129e-05
13570.0 2.7856e-05
13590.0 2.7567e-05
13610.0 2.7283e-05
13630.0 2.7002e-05
13650.0 2.6705e-05
13670.0 2.6408e-05
13690.0 2.6121e-05
13710.0 2.5828e-05
13730.0 2.5523e-05
13750.0 2.5237e-05
13770.0 2.4957e-05
13790.0 2.4672e-05
13810.0 2.4395e-05
13830.0 2.4136e-05
13850.0 2.3876e-05
13870.0 2.3618e-05
13890.0 2.3378e-05
13910.0 2.3148e-05
13930.0 2.2918e-05
13950.0 2.2697e-05
13970.0 2.2497e-05
13990.0 2.2298e-05
14010.0 2.2104e-05
14030.0 2.1924e-05
14050.0 2.1754e-05
14070.0 2.1582e-05
14090.0 2.1423e-05
14110.0 2.1275e-05
14130.0 2.1132e-05
14150.0 2.0992e-05
14170.0 2.0866e-05
14190.0 2.0745e-05
14210.0 2.0626e-05
14230.0 2.0513e-05
14250.0 2.0409e-05
14270.0 2.0303e-05
14290.0 2.0199e-05
14310.0 2.0102e-05
14330.0 2.0008e-05
14350.0 1.9912e-05
14370.0 1.9819e-05
14390.0 1.9732e-05
14410.0 1.9642e-05
14430.0 1.9552e-05
14450.0 1.9467e-05
14470.0 1.9383e-05
14490.0 1.9295e-05
14510.0 1.9211e-05
14530.0 1.913e-05
14550.0 1.9045e-05
14570.0 1.896e-05
14590.0 1.8879e-05
14610.0 1.8795e-05
14630.0 1.8707e-05
14650.0 1.8621e-05
14670.0 1.8535e-05
14690.0 1.8446e-05
14710.0 1.8354e-05
14730.0 1.8267e-05
14750.0 1.8176e-05
14770.0 1.8081e-05
14790.0 1.7987e-05
14810.0 1.7894e-05
14830.0 1.7793e-05
14850.0 1.7692e-05
14870.0 1.7593e-05
14890.0 1.7492e-05
14910.0 1.7388e-05
14930.0 1.729e-05
14950.0 1.7197e-05
14970.0 1.7105e-05
14990.0 1.7022e-05
15010.0 1.6949e-05
15030.0 1.6883e-05
15050.0 1.6822e-05
15070.0 1.6771e-05
15090.0 1.6724e-05
15110.0 1.6678e-05
15130.0 1.6635e-05
15150.0 1.6595e-05
15170.0 1.6553e-05
15190.0 1.6511e-05
15210.0 1.6471e-05
15230.0 1.6431e-05
15250.0 1.6389e-05
15270.0 1.6347e-05
15290.0 1.6308e-05
15310.0 1.6267e-05
15330.0 1.6226e-05
15350.0 1.6186e-05
15370.0 1.6146e-05
15390.0 1.6103e-05
15410.0 1.6063e-05
15430.0 1.6023e-05
15450.0 1.5982e-05
15470.0 1.594e-05
15490.0 1.59e-05
15510.0 1.586e-05
15530.0 1.5819e-05
15550.0 1.5778e-05
15570.0 1.5738e-05
15590.0 1.5697e-05
15610.0 1.5655e-05
15630.0 1.5615e-05
15650.0 1.5575e-05
15670.0 1.5534e-05
15690.0 1.5493e-05
15710.0 1.5454e-05
15730.0 1.5413e-05
15750.0 1.5371e-05
15770.0 1.5332e-05
15790.0 1.5291e-05
15810.0 1.5249e-05
15830.0 1.5209e-05
15850.0 1.5169e-05
15870.0 1.5128e-05
15890.0 1.5087e-05
15910.0 1.5048e-05
15930.0 1.5008e-05
15950.0 1.4966e-05
15970.0 1.4926e-05
15990.0 1.4886e-05
16010.0 1.4845e-05
16030.0 1.4803e-05
16050.0 1.4764e-05
16070.0 1.4724e-05
16090.0 1.4683e-05
16110.0 1.4643e-05
16130.0 1.4604e-05
16150.0 1.4562e-05
16170.0 1.4521e-05
16190.0 1.4481e-05
16210.0 1.4441e-05
16230.0 1.44e-05
16250.0 1.436e-05
16270.0 1.4321e-05
16290.0 1.428e-05
16310.0 1.4239e-05
16330.0 1.42e-05
16350.0 1.4159e-05
16370.0 1.4117e-05
16390.0 1.4078e-05
16410.0 1.4038e-05
16430.0 1.3997e-05
16450.0 1.3957e-05
16470.0 1.3918e-05
16490.0 1.3877e-05
16510.0 1.3836e-05
16530.0 1.3796e-05
16550.0 1.3756e-05
16570.0 1.3715e-05
16590.0 1.3674e-05
16610.0 1.3636e-05
16630.0 1.3595e-05
16650.0 1.3554e-05
16670.0 1.3515e-05
16690.0 1.3475e-05
16710.0 1.3434e-05
16730.0 1.3393e-05
16750.0 1.3354e-05
16770.0 1.3314e-05
16790.0 1.3273e-05
16810.0 1.3233e-05
16830.0 1.3194e-05
16850.0 1.3153e-05
16870.0 1.3113e-05
16890.0 1.3074e-05
16910.0 1.3033e-05
16930.0 1.2991e-05
16950.0 1.2952e-05
16970.0 1.2912e-05
16990.0 1.2871e-05
17010.0 1.2832e-05
17030.0 1.2793e-05
17050.0 1.2752e-05
17070.0 1.2711e-05
17090.0 1.2672e-05
17110.0 1.2632e-05
17130.0 1.259e-05
17150.0 1.255e-05
17170.0 1.2511e-05
17190.0 1.2471e-05
17210.0 1.243e-05
17230.0 1.2391e-05
17250.0 1.2351e-05
17270.0 1.231e-05
17290.0 1.227e-05
17310.0 1.2231e-05
17330.0 1.219e-05
17350.0 1.2149e-05
17370.0 1.211e-05
17390.0 1.207e-05
17410.0 1.203e-05
17430.0 1.199e-05
17450.0 1.1951e-05
17470.0 1.1909e-05
17490.0 1.1869e-05
17510.0 1.183e-05
17530.0 1.179e-05
17550.0 1.1749e-05
17570.0 1.1709e-05
17590.0 1.167e-05
17610.0 1.1629e-05
17630.0 1.1589e-05
17650.0 1.155e-05
17670.0 1.151e-05
17690.0 1.1468e-05
17710.0 1.1429e-05
17730.0 1.1389e-05
17750.0 1.1348e-05
17770.0 1.1308e-05
17790.0 1.127e-05
17810.0 1.1229e-05
17830.0 1.1188e-05
17850.0 1.1148e-05
17870.0 1.1109e-05
17890.0 1.1068e-05
17910.0 1.1027e-05
17930.0 1.0988e-05
17950.0 1.0948e-05
17970.0 1.0907e-05
17990.0 1.0868e-05
18010.0 1.0829e-05
18030.0 1.0787e-05
18050.0 1.0747e-05
18070.0 1.0708e-05
18090.0 1.0667e-05
18110.0 1.0626e-05
18130.0 1.0587e-05
18150.0 1.0548e-05
18170.0 1.0507e-05
18190.0 1.0467e-05
18210.0 1.0428e-05
18230.0 1.0387e-05
18250.0 1.0346e-05
18270.0 1.0306e-05
18290.0 1.0267e-05
18310.0 1.0226e-05
18330.0 1.0186e-05
18350.0 1.0147e-05
18370.0 1.0106e-05
18390.0 1.0065e-05
18410.0 1.0026e-05
18430.0 9.9862e-06
18450.0 9.9446e-06
18470.0 9.9047e-06
18490.0 9.8656e-06
18510.0 9.825e-06
18530.0 9.7845e-06
18550.0 9.7455e-06
18570.0 9.7053e-06
18590.0 9.664e-06
18610.0 9.6242e-06
18630.0 9.5847e-06
18650.0 9.5438e-06
18670.0 9.5029e-06
18690.0 9.4641e-06
18710.0 9.424e-06
18730.0 9.3831e-06
18750.0 9.3434e-06
18770.0 9.3043e-06
18790.0 9.2626e-06
18810.0 9.222e-06
18830.0 9.1828e-06
18850.0 9.1426e-06
18870.0 9.1015e-06
18890.0 9.062e-06
18910.0 9.0227e-06
18930.0 8.9816e-06
18950.0 8.9413e-06
18970.0 8.902e-06
18990.0 8.8616e-06
19010.0 8.8197e-06
19030.0 8.7805e-06
19050.0 8.7409e-06
19070.0 8.7e-06
19090.0 8.6597e-06
19110.0 8.6209e-06
19130.0 8.58e-06
19150.0 8.539e-06
19170.0 8.4994e-06
19190.0 8.4596e-06
19210.0 8.4183e-06
19230.0 8.3777e-06
19250.0 8.3388e-06
19270.0 8.2983e-06
19290.0 8.2575e-06
19310.0 8.2181e-06
19330.0 8.1785e-06
19350.0 8.1366e-06
19370.0 8.0965e-06
19390.0 8.0571e-06
19410.0 8.0164e-06
19430.0 7.9753e-06
19450.0 7.9362e-06
19470.0 7.8963e-06
19490.0 7.8552e-06
19510.0 7.8152e-06
19530.0 7.7759e-06
19550.0 7.7347e-06
19570.0 7.6934e-06
19590.0 7.6542e-06
19610.0 7.6141e-06
19630.0 7.573e-06
19650.0 7.5331e-06
19670.0 7.494e-06
19690.0 7.4529e-06
19710.0 7.4121e-06
19730.0 7.3726e-06
19750.0 7.3324e-06
19770.0 7.2907e-06
19790.0 7.2509e-06
19810.0 7.2115e-06
19830.0 7.1708e-06
19850.0 7.1303e-06
19870.0 7.0916e-06
19890.0 7.0519e-06
19910.0 7.0119e-06
19930.0 6.9749e-06
19950.0 6.9399e-06
19970.0 6.9065e-06
19990.0 6.8769e-06
20010.0 6.8524e-06
20030.0 6.831e-06
20050.0 6.8133e-06
20070.0 6.7994e-06
20090.0 6.7883e-06
20110.0 6.7784e-06
20130.0 6.7701e-06
20150.0 6.7626e-06
20170.0 6.7552e-06
20190.0 6.7476e-06
20210.0 6.7402e-06
20230.0 6.7324e-06
20250.0 6.7239e-06
20270.0 6.7151e-06
20290.0 6.7061e-06
20310.0 6.6962e-06
20330.0 6.6855e-06
20350.0 6.6749e-06
20370.0 6.6636e-06
20390.0 6.6515e-06
20410.0 6.6391e-06
20430.0 6.6268e-06
20450.0 6.6134e-06
20470.0 6.5997e-06
20490.0 6.5864e-06
20510.0 6.5729e-06
20530.0 6.559e-06
20550.0 6.5456e-06
20570.0 6.5329e-06
20590.0 6.5199e-06
20610.0 6.5072e-06
20630.0 6.4953e-06
20650.0 6.4834e-06
20670.0 6.4712e-06
20690.0 6.4595e-06
20710.0 6.448e-06
20730.0 6.4359e-06
20750.0 6.4233e-06
20770.0 6.4108e-06
20790.0 6.3973e-06
20810.0 6.3825e-06
20830.0 6.3672e-06
20850.0 6.351e-06
20870.0 6.3329e-06
20890.0 6.3136e-06
20910.0 6.2941e-06
20930.0 6.2732e-06
20950.0 6.2507e-06
20970.0 6.2281e-06
20990.0 6.2052e-06
21010.0 6.1806e-06
21030.0 6.1559e-06
21050.0 6.1319e-06
21070.0 6.1074e-06
21090.0 6.0821e-06
21110.0 6.0581e-06
21130.0 6.0347e-06
21150.0 6.0107e-06
21170.0 5.9871e-06
21190.0 5.9646e-06
21210.0 5.9414e-06
21230.0 5.9178e-06
21250.0 5.8951e-06
21270.0 5.8723e-06
21290.0 5.8485e-06
21310.0 5.8245e-06
21330.0 5.8011e-06
21350.0 5.7764e-06
21370.0 5.7507e-06
21390.0 5.7253e-06
21410.0 5.6993e-06
21430.0 5.6711e-06
21450.0 5.6431e-06
21470.0 5.6153e-06
21490.0 5.5861e-06
21510.0 5.5559e-06
21530.0 5.5265e-06
21550.0 5.4965e-06
21570.0 5.4649e-06
21590.0 5.4337e-06
21610.0 5.4032e-06
21630.0 5.3715e-06
21650.0 5.3388e-06
21670.0 5.3083e-06
21690.0 5.2773e-06
21710.0 5.2455e-06
21730.0 5.2144e-06
21750.0 5.1845e-06
21770.0 5.1528e-06
21790.0 5.1213e-06
21810.0 5.0911e-06
21830.0 5.0606e-06
21850.0 5.0291e-06
21870.0 4.9985e-06
21890.0 4.9689e-06
21910.0 4.9381e-06
21930.0 4.9074e-06
21950.0 4.878e-06
21970.0 4.8484e-06
21990.0 4.8178e-06
22010.0 4.7891e-06
22030.0 4.7614e-06
22050.0 4.7334e-06
22070.0 4.7064e-06
22090.0 4.6816e-06
22110.0 4.657e-06
22130.0 4.633e-06
22150.0 4.6108e-06
22170.0 4.5899e-06
22190.0 4.5693e-06
22210.0 4.5498e-06
22230.0 4.5323e-06
22250.0 4.5152e-06
22270.0 4.4986e-06
22290.0 4.4833e-06
22310.0 4.4688e-06
22330.0 4.4539e-06
22350.0 4.4397e-06
22370.0 4.4262e-06
22390.0 4.4126e-06
22410.0 4.3985e-06
22430.0 4.3851e-06
22450.0 4.3718e-06
22470.0 4.3578e-06
22490.0 4.3438e-06
22510.0 4.3301e-06
22530.0 4.3158e-06
22550.0 4.301e-06
22570.0 4.2868e-06
22590.0 4.2727e-06
22610.0 4.2581e-06
22630.0 4.2438e-06
22650.0 4.2303e-06
