#lamb flux
1010.0 2.1685e-06
1030.0 2.436e-06
1050.0 2.7437e-06
1070.0 3.0901e-06
1090.0 3.4836e-06
1110.0 3.8872e-06
1130.0 4.2934e-06
1150.0 4.7189e-06
1170.0 5.1578e-06
1190.0 5.574e-06
1210.0 5.9958e-06
1230.0 6.4317e-06
1250.0 6.8588e-06
1270.0 7.2736e-06
1290.0 7.7118e-06
1310.0 8.1498e-06
1330.0 8.5698e-06
1350.0 8.9945e-06
1370.0 9.433e-06
1390.0 9.8605e-06
1410.0 1.0275e-05
1430.0 1.0709e-05
1450.0 1.1142e-05
1470.0 1.1561e-05
1490.0 1.1985e-05
1510.0 1.2432e-05
1530.0 1.2856e-05
1550.0 1.3273e-05
1570.0 1.3705e-05
1590.0 1.4138e-05
1610.0 1.455e-05
1630.0 1.4976e-05
1650.0 1.5412e-05
1670.0 1.5833e-05
1690.0 1.6249e-05
1710.0 1.668e-05
1730.0 1.7113e-05
1750.0 1.7519e-05
1770.0 1.7936e-05
1790.0 1.8361e-05
1810.0 1.8771e-05
1830.0 1.9172e-05
1850.0 1.9596e-05
1870.0 2.0007e-05
1890.0 2.0402e-05
1910.0 2.0802e-05
1930.0 2.1209e-05
1950.0 2.1594e-05
1970.0 2.197e-05
1990.0 2.2357e-05
2010.0 2.2732e-05
2030.0 2.3087e-05
2050.0 2.3449e-05
2070.0 2.3815e-05
2090.0 2.4149e-05
2110.0 2.4474e-05
2130.0 2.4804e-05
2150.0 2.5116e-05
2170.0 2.5401e-05
2190.0 2.569e-05
2210.0 2.597e-05
2230.0 2.6222e-05
2250.0 2.646e-05
2270.0 2.6702e-05
2290.0 2.6917e-05
2310.0 2.7101e-05
2330.0 2.7282e-05
2350.0 2.7451e-05
2370.0 2.7589e-05
2390.0 2.7718e-05
2410.0 2.7856e-05
2430.0 2.7978e-05
2450.0 2.8095e-05
2470.0 2.8243e-05
2490.0 2.8438e-05
2510.0 2.8675e-05
2530.0 2.9056e-05
2550.0 2.9737e-05
2570.0 3.0857e-05
2590.0 3.2598e-05
2610.0 3.546e-05
2630.0 3.9536e-05
2650.0 4.4561e-05
2670.0 5.0563e-05
2690.0 5.7256e-05
2710.0 6.3614e-05
2730.0 6.9156e-05
2750.0 7.396e-05
2770.0 7.7506e-05
2790.0 7.9787e-05
2810.0 8.1213e-05
2830.0 8.2063e-05
2850.0 8.2344e-05
2870.0 8.2368e-05
2890.0 8.2306e-05
2910.0 8.2169e-05
2930.0 8.1947e-05
2950.0 8.176e-05
2970.0 8.1598e-05
2990.0 8.14e-05
3010.0 0.0014678
3030.0 0.0014631
3050.0 0.0014583
3070.0 0.001452
3090.0 0.0014452
3110.0 0.0014361
3130.0 0.0014229
3150.0 0.0014048
3170.0 0.0013803
3190.0 0.0013501
3210.0 0.0013169
3230.0 0.0012838
3250.0 0.0012585
3270.0 0.0012417
3290.0 0.0012425
3310.0 0.0012538
3330.0 0.0012839
3350.0 0.0013271
3370.0 0.001384
3390.0 0.0014531
3410.0 0.0015268
3430.0 0.0016087
3450.0 0.0017017
3470.0 0.0018016
3490.0 0.0019055
3510.0 0.0020212
3530.0 0.0021435
3550.0 0.0022633
3570.0 0.002386
3590.0 0.0025236
3610.0 0.0026597
3630.0 0.0028064
3650.0 0.0029562
3670.0 0.0030976
3690.0 0.0032064
3710.0 0.0032744
3730.0 0.0032975
3750.0 0.0032736
3770.0 0.0029842
3790.0 0.0026773
3810.0 0.0024993
3830.0 0.0021567
3850.0 0.0015543
3870.0 0.001193
3890.0 0.0020054
3910.0 0.0031912
3930.0 0.0038636
3950.0 0.0038607
3970.0 0.0038591
3990.0 0.0045264
4010.0 0.0056182
4030.0 0.0057809
4050.0 0.0052041
4070.0 0.004526
4090.0 0.0042418
4110.0 0.0050893
4130.0 0.0052707
4150.0 0.0050204
4170.0 0.0051834
4190.0 0.0053203
4210.0 0.0052434
4230.0 0.0056921
4250.0 0.0062002
4270.0 0.0062645
4290.0 0.0063619
4310.0 0.0066131
4330.0 0.0073116
4350.0 0.0083394
4370.0 0.0094283
4390.0 0.009082
4410.0 0.0076142
4430.0 0.0064169
4450.0 0.0054593
4470.0 0.0053429
4490.0 0.0058002
4510.0 0.0063474
4530.0 0.0069446
4550.0 0.0080892
4570.0 0.009729
4590.0 0.011909
4610.0 0.014967
4630.0 0.017931
4650.0 0.018555
4670.0 0.018196
4690.0 0.019378
4710.0 0.020252
4730.0 0.017214
4750.0 0.012518
4770.0 0.010274
4790.0 0.0098039
4810.0 0.0091059
4830.0 0.0086347
4850.0 0.0099449
4870.0 0.012695
4890.0 0.014403
4910.0 0.012388
4930.0 0.01106
4950.0 0.012444
4970.0 0.016576
4990.0 0.02121
5010.0 0.022229
5030.0 0.018408
5050.0 0.012119
5070.0 0.0083852
5090.0 0.0074576
5110.0 0.0077931
5130.0 0.0083576
5150.0 0.0087979
5170.0 0.0087977
5190.0 0.0086474
5210.0 0.0083679
5230.0 0.0085039
5250.0 0.0090542
5270.0 0.010574
5290.0 0.012214
5310.0 0.013273
5330.0 0.013616
5350.0 0.013829
5370.0 0.015017
5390.0 0.015955
5410.0 0.015518
5430.0 0.013586
5450.0 0.012583
5470.0 0.014186
5490.0 0.018162
5510.0 0.023021
5530.0 0.025377
5550.0 0.024777
5570.0 0.022597
5590.0 0.020336
5610.0 0.018755
5630.0 0.017777
5650.0 0.018251
5670.0 0.017877
5690.0 0.016785
5710.0 0.015818
5730.0 0.01419
5750.0 0.010565
5770.0 0.0092644
5790.0 0.010335
5810.0 0.012461
5830.0 0.013951
5850.0 0.01504
5870.0 0.01538
5890.0 0.014813
5910.0 0.014183
5930.0 0.014274
5950.0 0.014983
5970.0 0.015684
5990.0 0.014895
6010.0 0.012602
6030.0 0.010474
6050.0 0.0091368
6070.0 0.0090546
6090.0 0.010158
6110.0 0.011076
6130.0 0.010668
6150.0 0.010022
6170.0 0.011095
6190.0 0.013339
6210.0 0.016006
6230.0 0.018043
6250.0 0.017966
6270.0 0.016209
6290.0 0.013417
6310.0 0.010705
6330.0 0.0085941
6350.0 0.0077949
6370.0 0.0084994
6390.0 0.009976
6410.0 0.011433
6430.0 0.013225
6450.0 0.015371
6470.0 0.018991
6490.0 0.023289
6510.0 0.025567
6530.0 0.02377
6550.0 0.02194
6570.0 0.021585
6590.0 0.020742
6610.0 0.01875
6630.0 0.016835
6650.0 0.015563
6670.0 0.01616
6690.0 0.016072
6710.0 0.014248
6730.0 0.013205
6750.0 0.011743
6770.0 0.011305
6790.0 0.012193
6810.0 0.012849
6830.0 0.013163
6850.0 0.012938
6870.0 0.012403
6890.0 0.012151
6910.0 0.011552
6930.0 0.010914
6950.0 0.010977
6970.0 0.011205
6990.0 0.012475
7010.0 0.013274
7030.0 0.012088
7050.0 0.011323
7070.0 0.010892
7090.0 0.0097996
7110.0 0.0091295
7130.0 0.0092927
7150.0 0.0096507
7170.0 0.010166
7190.0 0.010182
7210.0 0.010232
7230.0 0.010778
7250.0 0.012412
7270.0 0.014499
7290.0 0.015538
7310.0 0.015055
7330.0 0.01339
7350.0 0.012037
7370.0 0.011837
7390.0 0.011949
7410.0 0.012386
7430.0 0.013562
7450.0 0.014701
7470.0 0.016291
7490.0 0.018
7510.0 0.016549
7530.0 0.015843
7550.0 0.013306
7570.0 0.011182
7590.0 0.0092157
7610.0 0.0084594
7630.0 0.0088514
7650.0 0.010123
7670.0 0.011028
7690.0 0.012439
7710.0 0.013867
7730.0 0.014501
7750.0 0.014537
7770.0 0.014483
7790.0 0.014271
7810.0 0.014825
7830.0 0.014331
7850.0 0.012787
7870.0 0.011549
7890.0 0.01076
7910.0 0.0097055
7930.0 0.0083055
7950.0 0.0076032
7970.0 0.0075593
7990.0 0.0079121
8010.0 0.0084001
8030.0 0.008523
8050.0 0.0084884
8070.0 0.0082478
8090.0 0.00821
8110.0 0.0078022
8130.0 0.0072719
8150.0 0.0068367
8170.0 0.0066701
8190.0 0.0068127
8210.0 0.0068309
8230.0 0.0071034
8250.0 0.0070605
8270.0 0.0063109
8290.0 0.0048478
8310.0 0.0033012
8330.0 0.0021773
8350.0 0.0015455
8370.0 0.001835
8390.0 0.0020306
8410.0 0.0026007
8430.0 0.0031515
8450.0 0.0034529
8470.0 0.0035814
8490.0 0.003678
8510.0 0.0038422
8530.0 0.0042966
8550.0 0.0047474
8570.0 0.005578
8590.0 0.0068414
8610.0 0.0080113
8630.0 0.009365
8650.0 0.010533
8670.0 0.010378
8690.0 0.0097256
8710.0 0.0091918
8730.0 0.0086876
8750.0 0.0083098
8770.0 0.0080647
8790.0 0.0078141
8810.0 0.0072801
8830.0 0.0065648
8850.0 0.0056846
8870.0 0.0048569
8890.0 0.0043872
8910.0 0.0044371
8930.0 0.0044314
8950.0 0.0048119
8970.0 0.0049237
8990.0 0.0051149
9010.0 0.0053046
9030.0 0.0053469
9050.0 0.0053668
9070.0 0.0053818
9090.0 0.0053929
9110.0 0.0053984
9130.0 0.0054072
9150.0 0.0054194
9170.0 0.0054316
9190.0 0.0054435
9210.0 0.0054622
9230.0 0.0054761
9250.0 0.0054921
9270.0 0.0055091
9290.0 0.005527
9310.0 0.0055466
9330.0 0.0055673
9350.0 0.0055887
9370.0 0.0056113
9390.0 0.0056354
9410.0 0.0056601
9430.0 0.0056854
9450.0 0.0057126
9470.0 0.0057406
9490.0 0.0057691
9510.0 0.0057988
9530.0 0.0058299
9550.0 0.0058612
9570.0 0.0058932
9590.0 0.0059267
9610.0 0.0059609
9630.0 0.0059954
9650.0 0.0060309
9670.0 0.0060677
9690.0 0.0061047
9710.0 0.0061423
9730.0 0.006181
9750.0 0.0062202
9770.0 0.0062592
9790.0 0.0062995
9810.0 0.0063405
9830.0 0.0063816
9850.0 0.006423
9870.0 0.0064656
9890.0 0.0065082
9910.0 0.0065507
9930.0 0.0065939
9950.0 0.0066374
9970.0 0.0066808
9990.0 0.0067243
10010.0 0.0066144
10030.0 0.006657
10050.0 0.0066989
10070.0 0.0067397
10090.0 0.0067834
10110.0 0.006826
10130.0 0.0068685
10150.0 0.0069114
10170.0 0.0069536
10190.0 0.0069947
10210.0 0.0070365
10230.0 0.0070782
10250.0 0.0071187
10270.0 0.0071589
10290.0 0.0071994
10310.0 0.0072387
10330.0 0.0072768
10350.0 0.0073153
10370.0 0.0073533
10390.0 0.0073898
10410.0 0.0074258
10430.0 0.007462
10450.0 0.0074966
10470.0 0.0075299
10490.0 0.0075632
10510.0 0.0075956
10530.0 0.0076258
10550.0 0.0076556
10570.0 0.0076852
10590.0 0.007713
10610.0 0.0077394
10630.0 0.0077656
10650.0 0.0077905
10670.0 0.0078131
10690.0 0.0078351
10710.0 0.0078565
10730.0 0.0078758
10750.0 0.0078931
10770.0 0.0079106
10790.0 0.0079265
10810.0 0.0079401
10830.0 0.0079524
10850.0 0.0079637
10870.0 0.0079704
10890.0 0.0079727
10910.0 0.0079694
10930.0 0.0079556
10950.0 0.0079244
10970.0 0.0078736
10990.0 0.0078017
11010.0 0.0075383
11030.0 0.0074056
11050.0 0.0072512
11070.0 0.0070708
11090.0 0.0068567
11110.0 0.006638
11130.0 0.0064122
11150.0 0.0061716
11170.0 0.005928
11190.0 0.005697
11210.0 0.0054647
11230.0 0.0052341
11250.0 0.0050221
11270.0 0.0048263
11290.0 0.0046381
11310.0 0.0044675
11330.0 0.0043232
11350.0 0.0041913
11370.0 0.0040725
11390.0 0.003971
11410.0 0.0038816
11430.0 0.0037956
11450.0 0.0037166
11470.0 0.0036422
11490.0 0.0035655
11510.0 0.0034835
11530.0 0.0034003
11550.0 0.0033124
11570.0 0.0032151
11590.0 0.0031129
11610.0 0.0030093
11630.0 0.0028985
11650.0 0.002783
11670.0 0.0026728
11690.0 0.0025646
11710.0 0.0024569
11730.0 0.002356
11750.0 0.0022655
11770.0 0.0021792
11790.0 0.0021004
11810.0 0.0020322
11830.0 0.0019717
11850.0 0.0019159
11870.0 0.001868
11890.0 0.0018263
11910.0 0.0017871
11930.0 0.00175
11950.0 0.0017152
11970.0 0.0016803
11990.0 0.0016434
12010.0 0.0016059
12030.0 0.0015675
12050.0 0.0015266
12070.0 0.0014837
12090.0 0.0014424
12110.0 0.001401
12130.0 0.00136
12150.0 0.0013222
12170.0 0.0012888
12190.0 0.0012586
12210.0 0.0012347
12230.0 0.0012181
12250.0 0.0012083
12270.0 0.0012064
12290.0 0.0012123
12310.0 0.001225
12330.0 0.0012457
12350.0 0.0012731
12370.0 0.0013048
12390.0 0.0013416
12410.0 0.0013844
12430.0 0.0014267
12450.0 0.0014693
12470.0 0.0015132
12490.0 0.0015553
12510.0 0.0015926
12530.0 0.0016276
12550.0 0.0016589
12570.0 0.0016836
12590.0 0.0017023
12610.0 0.001716
12630.0 0.0017231
12650.0 0.0017235
12670.0 0.0017185
12690.0 0.0017079
12710.0 0.0016924
12730.0 0.0016727
12750.0 0.0016484
12770.0 0.001621
12790.0 0.0015914
12810.0 0.0015592
12830.0 0.0015243
12850.0 0.0014892
12870.0 0.0014531
12890.0 0.0014149
12910.0 0.0013761
12930.0 0.0013376
12950.0 0.0012971
12970.0 0.0012552
12990.0 0.0012144
13010.0 0.0011733
13030.0 0.0011308
13050.0 0.001089
13070.0 0.001049
13090.0 0.0010085
13110.0 0.00096894
13130.0 0.00093229
13150.0 0.00089774
13170.0 0.00086445
13190.0 0.00083539
13210.0 0.00081053
13230.0 0.00078881
13250.0 0.00077125
13270.0 0.00075849
13290.0 0.00074986
13310.0 0.00074563
13330.0 0.00074585
13350.0 0.00074993
13370.0 0.00075799
13390.0 0.0007698
13410.0 0.00078346
13430.0 0.00079955
13450.0 0.00081788
13470.0 0.00083672
13490.0 0.00085539
13510.0 0.0008753
13530.0 0.00089426
13550.0 0.0009113
13570.0 0.00092722
13590.0 0.00094188
13610.0 0.00095402
13630.0 0.0009638
13650.0 0.00097202
13670.0 0.00097796
13690.0 0.00098157
13710.0 0.00098335
13730.0 0.00098332
13750.0 0.00098133
13770.0 0.00097781
13790.0 0.00097276
13810.0 0.00096633
13830.0 0.00095889
13850.0 0.00095018
13870.0 0.00094026
13890.0 0.00092965
13910.0 0.00091831
13930.0 0.0009058
13950.0 0.00089266
13970.0 0.00087962
13990.0 0.00086587
14010.0 0.0008517
14030.0 0.00083794
14050.0 0.00082446
14070.0 0.0008107
14090.0 0.00079791
14110.0 0.00078625
14130.0 0.00077537
14150.0 0.00076558
14170.0 0.0007576
14190.0 0.00075111
14210.0 0.00074612
14230.0 0.00074299
14250.0 0.00074164
14270.0 0.00074209
14290.0 0.00074445
14310.0 0.00074833
14330.0 0.00075374
14350.0 0.00076079
14370.0 0.00076893
14390.0 0.00077773
14410.0 0.00078776
14430.0 0.00079851
14450.0 0.00080932
14470.0 0.00082052
14490.0 0.00083259
14510.0 0.00084448
14530.0 0.00085634
14550.0 0.00086909
14570.0 0.00088258
14590.0 0.00089635
14610.0 0.00091146
14630.0 0.00092862
14650.0 0.0009469
14670.0 0.00096664
14690.0 0.00098908
14710.0 0.001014
14730.0 0.0010395
14750.0 0.0010674
14770.0 0.0010977
14790.0 0.0011286
14810.0 0.0011596
14830.0 0.001193
14850.0 0.0012258
14870.0 0.0012566
14890.0 0.0012866
14910.0 0.0013152
14930.0 0.0013401
14950.0 0.0013614
14970.0 0.0013797
14990.0 0.0013937
15010.0 0.0014033
15030.0 0.0014096
15050.0 0.0014127
15070.0 0.0014134
15090.0 0.0014124
15110.0 0.0014103
15130.0 0.0014076
15150.0 0.0014046
15170.0 0.0014014
15190.0 0.0013981
15210.0 0.0013949
15230.0 0.0013917
15250.0 0.0013884
15270.0 0.0013851
15290.0 0.0013821
15310.0 0.0013789
15330.0 0.0013757
15350.0 0.0013726
15370.0 0.0013696
15390.0 0.0013663
15410.0 0.0013632
15430.0 0.0013602
15450.0 0.0013571
15470.0 0.0013539
15490.0 0.0013509
15510.0 0.001348
15530.0 0.0013448
15550.0 0.0013418
15570.0 0.0013388
15590.0 0.0013357
15610.0 0.0013325
15630.0 0.0013296
15650.0 0.0013266
15670.0 0.0013234
15690.0 0.0013204
15710.0 0.0013175
15730.0 0.0013143
15750.0 0.0013112
15770.0 0.0013082
15790.0 0.0013052
15810.0 0.0013019
15830.0 0.0012988
15850.0 0.0012958
15870.0 0.0012927
15890.0 0.0012895
15910.0 0.0012864
15930.0 0.0012833
15950.0 0.00128
15970.0 0.0012768
15990.0 0.0012737
16010.0 0.0012705
16030.0 0.0012671
16050.0 0.001264
16070.0 0.0012608
16090.0 0.0012574
16110.0 0.0012541
16130.0 0.0012509
16150.0 0.0012475
16170.0 0.0012441
16190.0 0.0012408
16210.0 0.0012374
16230.0 0.0012339
16250.0 0.0012305
16270.0 0.0012271
16290.0 0.0012236
16310.0 0.0012201
16330.0 0.0012166
16350.0 0.0012131
16370.0 0.0012093
16390.0 0.0012058
16410.0 0.0012023
16430.0 0.0011986
16450.0 0.0011949
16470.0 0.0011914
16490.0 0.0011876
16510.0 0.0011838
16530.0 0.0011801
16550.0 0.0011764
16570.0 0.0011725
16590.0 0.0011686
16610.0 0.0011649
16630.0 0.001161
16650.0 0.001157
16670.0 0.0011532
16690.0 0.0011493
16710.0 0.0011452
16730.0 0.0011412
16750.0 0.0011372
16770.0 0.0011331
16790.0 0.001129
16810.0 0.001125
16830.0 0.0011209
16850.0 0.0011167
16870.0 0.0011125
16890.0 0.0011085
16910.0 0.0011042
16930.0 0.0010998
16950.0 0.0010957
16970.0 0.0010914
16990.0 0.001087
17010.0 0.0010827
17030.0 0.0010785
17050.0 0.0010741
17070.0 0.0010696
17090.0 0.0010653
17110.0 0.0010609
17130.0 0.0010563
17150.0 0.0010518
17170.0 0.0010474
17190.0 0.0010429
17210.0 0.0010383
17230.0 0.0010339
17250.0 0.0010293
17270.0 0.0010246
17290.0 0.00102
17310.0 0.0010155
17330.0 0.0010108
17350.0 0.001006
17370.0 0.0010015
17390.0 0.0009968
17410.0 0.00099202
17430.0 0.00098734
17450.0 0.00098271
17470.0 0.00097782
17490.0 0.00097301
17510.0 0.00096832
17530.0 0.00096353
17550.0 0.00095864
17570.0 0.00095388
17590.0 0.00094915
17610.0 0.00094422
17630.0 0.00093935
17650.0 0.00093458
17670.0 0.0009297
17690.0 0.00092465
17710.0 0.00091984
17730.0 0.00091501
17750.0 0.00091004
17770.0 0.00090511
17790.0 0.00090032
17810.0 0.00089533
17830.0 0.00089031
17850.0 0.00088542
17870.0 0.00088052
17890.0 0.00087546
17910.0 0.00087045
17930.0 0.00086562
17950.0 0.00086063
17970.0 0.00085559
17990.0 0.0008507
18010.0 0.00084578
18030.0 0.00084065
18050.0 0.00083567
18070.0 0.00083076
18090.0 0.00082574
18110.0 0.00082066
18130.0 0.00081577
18150.0 0.00081083
18170.0 0.00080576
18190.0 0.00080079
18210.0 0.0007959
18230.0 0.00079084
18250.0 0.00078575
18270.0 0.00078086
18290.0 0.00077591
18310.0 0.00077086
18330.0 0.00076591
18350.0 0.00076105
18370.0 0.00075602
18390.0 0.00075101
18410.0 0.00074613
18430.0 0.0007412
18450.0 0.00073611
18470.0 0.0007312
18490.0 0.00072636
18510.0 0.00072139
18530.0 0.00071644
18550.0 0.00071163
18570.0 0.00070673
18590.0 0.00070171
18610.0 0.00069686
18630.0 0.00069204
18650.0 0.0006871
18670.0 0.00068216
18690.0 0.00067743
18710.0 0.00067259
18730.0 0.00066769
18750.0 0.00066291
18770.0 0.00065818
18790.0 0.00065324
18810.0 0.00064841
18830.0 0.00064371
18850.0 0.00063893
18870.0 0.00063409
18890.0 0.0006294
18910.0 0.00062474
18930.0 0.00061993
18950.0 0.0006152
18970.0 0.00061058
18990.0 0.00060587
19010.0 0.00060104
19030.0 0.00059646
19050.0 0.00059186
19070.0 0.00058716
19090.0 0.00058252
19110.0 0.00057803
19130.0 0.00057337
19150.0 0.00056871
19170.0 0.00056419
19190.0 0.00055967
19210.0 0.00055503
19230.0 0.00055047
19250.0 0.00054607
19270.0 0.00054154
19290.0 0.000537
19310.0 0.00053261
19330.0 0.00052819
19350.0 0.00052361
19370.0 0.00051919
19390.0 0.00051485
19410.0 0.00051041
19430.0 0.00050596
19450.0 0.00050168
19470.0 0.00049736
19490.0 0.00049294
19510.0 0.00048864
19530.0 0.00048441
19550.0 0.00048004
19570.0 0.00047567
19590.0 0.00047149
19610.0 0.00046727
19630.0 0.00046296
19650.0 0.00045878
19670.0 0.00045467
19690.0 0.00045041
19710.0 0.0004462
19730.0 0.00044211
19750.0 0.00043797
19770.0 0.00043373
19790.0 0.00042965
19810.0 0.00042563
19830.0 0.00042149
19850.0 0.00041738
19870.0 0.00041336
19890.0 0.00040917
19910.0 0.00040476
19930.0 0.00040027
19950.0 0.00039548
19970.0 0.00039007
19990.0 0.00038406
20010.0 0.00038344
20030.0 0.00037611
20050.0 0.00036804
20070.0 0.00035974
20090.0 0.0003512
20110.0 0.00034201
20130.0 0.0003331
20150.0 0.00032459
20170.0 0.00031612
20190.0 0.00030784
20210.0 0.00030026
20230.0 0.0002931
20250.0 0.00028614
20270.0 0.00027986
20290.0 0.00027426
20310.0 0.0002691
20330.0 0.00026443
20350.0 0.00026068
20370.0 0.00025748
20390.0 0.00025486
20410.0 0.00025293
20430.0 0.00025164
20450.0 0.00025092
20470.0 0.00025081
20490.0 0.00025125
20510.0 0.00025219
20530.0 0.00025367
20550.0 0.00025554
20570.0 0.00025769
20590.0 0.00026026
20610.0 0.00026313
20630.0 0.00026609
20650.0 0.00026926
20670.0 0.00027274
20690.0 0.00027614
20710.0 0.00027954
20730.0 0.00028308
20750.0 0.00028665
20770.0 0.00029004
20790.0 0.0002935
20810.0 0.00029707
20830.0 0.00030054
20850.0 0.00030396
20870.0 0.00030759
20890.0 0.00031128
20910.0 0.00031483
20930.0 0.00031853
20950.0 0.00032241
20970.0 0.00032622
20990.0 0.00033002
21010.0 0.00033406
21030.0 0.00033804
21050.0 0.00034186
21070.0 0.00034568
21090.0 0.00034953
21110.0 0.00035302
21130.0 0.00035628
21150.0 0.00035943
21170.0 0.00036227
21190.0 0.0003647
21210.0 0.0003669
21230.0 0.00036877
21250.0 0.00037016
21270.0 0.00037115
21290.0 0.00037175
21310.0 0.00037187
21330.0 0.00037153
21350.0 0.00037072
21370.0 0.0003694
21390.0 0.00036762
21410.0 0.00036538
21430.0 0.00036247
21450.0 0.00035914
21470.0 0.00035544
21490.0 0.0003512
21510.0 0.00034646
21530.0 0.00034156
21550.0 0.00033633
21570.0 0.00033065
21590.0 0.00032493
21610.0 0.00031927
21630.0 0.00031346
21650.0 0.0003076
21670.0 0.00030232
21690.0 0.00029724
21710.0 0.00029242
21730.0 0.00028816
21750.0 0.00028454
21770.0 0.00028131
21790.0 0.00027879
21810.0 0.00027702
21830.0 0.00027591
21850.0 0.00027552
21870.0 0.00027586
21890.0 0.00027683
21910.0 0.00027853
21930.0 0.00028088
21950.0 0.00028372
21970.0 0.00028716
21990.0 0.0002913
22010.0 0.00029572
22030.0 0.00030044
22050.0 0.00030567
22070.0 0.00031119
22090.0 0.00031665
22110.0 0.00032239
22130.0 0.00032835
22150.0 0.00033412
22170.0 0.00033974
22190.0 0.00034547
22210.0 0.00035094
22230.0 0.00035584
22250.0 0.00036051
22270.0 0.00036484
22290.0 0.00036852
22310.0 0.00037163
22330.0 0.00037428
22350.0 0.00037619
22370.0 0.00037737
22390.0 0.00037787
22410.0 0.00037758
22430.0 0.00037654
22450.0 0.00037479
22470.0 0.0003722
22490.0 0.00036888
22510.0 0.00036498
22530.0 0.00036022
22550.0 0.00035465
22570.0 0.00034869
22590.0 0.00034215
22610.0 0.00033482
22630.0 0.00032707
22650.0 0.00031923
22670.0 0.0003107
22690.0 0.00030174
22710.0 0.00029282
22730.0 0.00028375
22750.0 0.00027402
22770.0 0.0002646
22790.0 0.0002555
22810.0 0.00024624
22830.0 0.00023709
22850.0 0.00022862
22870.0 0.00022041
22890.0 0.00021236
22910.0 0.00020509
22930.0 0.00019857
22950.0 0.00019255
22970.0 0.0001872
22990.0 0.00018302
23010.0 0.00017959
23030.0 0.00017702
23050.0 0.00017545
23070.0 0.00017483
23090.0 0.00017516
23110.0 0.00017647
23130.0 0.00017864
23150.0 0.00018167
23170.0 0.00018563
23190.0 0.00019019
23210.0 0.00019523
23230.0 0.00020099
23250.0 0.00020716
23270.0 0.00021339
23290.0 0.0002199
23310.0 0.00022674
23330.0 0.00023317
23350.0 0.00023933
23370.0 0.00024537
23390.0 0.00025097
23410.0 0.00025583
23430.0 0.00026026
23450.0 0.0002641
