#lamb flux
1010.0 3.0713e-05
1030.0 3.2105e-05
1050.0 3.3719e-05
1070.0 3.5541e-05
1090.0 3.7612e-05
1110.0 3.9747e-05
1130.0 4.1907e-05
1150.0 4.4181e-05
1170.0 4.654e-05
1190.0 4.8796e-05
1210.0 5.1099e-05
1230.0 5.3494e-05
1250.0 5.5863e-05
1270.0 5.8188e-05
1290.0 6.066e-05
1310.0 6.3155e-05
1330.0 6.5578e-05
1350.0 6.8053e-05
1370.0 7.063e-05
1390.0 7.3177e-05
1410.0 7.5684e-05
1430.0 7.8324e-05
1450.0 8.0994e-05
1470.0 8.3614e-05
1490.0 8.6289e-05
1510.0 8.9124e-05
1530.0 9.1856e-05
1550.0 9.4578e-05
1570.0 9.7404e-05
1590.0 0.00010025
1610.0 0.000103
1630.0 0.00010583
1650.0 0.00010873
1670.0 0.00011155
1690.0 0.00011433
1710.0 0.00011718
1730.0 0.00012003
1750.0 0.0001227
1770.0 0.0001254
1790.0 0.00012812
1810.0 0.00013069
1830.0 0.00013317
1850.0 0.00013574
1870.0 0.00013817
1890.0 0.00014044
1910.0 0.00014268
1930.0 0.0001449
1950.0 0.00014691
1970.0 0.00014882
1990.0 0.00015073
2010.0 0.00015252
2030.0 0.00015415
2050.0 0.00015577
2070.0 0.0001574
2090.0 0.00015882
2110.0 0.0001602
2130.0 0.00016161
2150.0 0.00016295
2170.0 0.0001642
2190.0 0.00016553
2210.0 0.0001669
2230.0 0.00016823
2250.0 0.00016961
2270.0 0.00017117
2290.0 0.00017276
2310.0 0.00017437
2330.0 0.00017619
2350.0 0.00017818
2370.0 0.00018025
2390.0 0.00018254
2410.0 0.00018514
2430.0 0.0001879
2450.0 0.00019085
2470.0 0.0001941
2490.0 0.00019766
2510.0 0.00020149
2530.0 0.00020605
2550.0 0.00021215
2570.0 0.00022078
2590.0 0.00023325
2610.0 0.00025266
2630.0 0.00028051
2650.0 0.00031632
2670.0 0.00036113
2690.0 0.00041446
2710.0 0.00047071
2730.0 0.0005269
2750.0 0.00058399
2770.0 0.00063801
2790.0 0.00068775
2810.0 0.00073596
2830.0 0.00078498
2850.0 0.0008326
2870.0 0.00088145
2890.0 0.0009336
2910.0 0.00098826
2930.0 0.001044
2950.0 0.0011037
2970.0 0.0011669
2990.0 0.0012314
3010.0 0.0024459
3030.0 0.0025772
3050.0 0.002709
3070.0 0.0028308
3090.0 0.0029373
3110.0 0.0030034
3130.0 0.0029992
3150.0 0.0028912
3170.0 0.0026114
3190.0 0.002151
3210.0 0.0015149
3230.0 0.00079481
3250.0 0.0015595
3270.0 0.00064634
3290.0 0.0024269
3310.0 0.00044778
3330.0 0.00044198
3350.0 0.0006932
3370.0 0.00098318
3390.0 0.0012929
3410.0 0.0016016
3430.0 0.001925
3450.0 0.002248
3470.0 0.0025433
3490.0 0.002737
3510.0 0.0034436
3530.0 0.004752
3550.0 0.0046771
3570.0 0.0038072
3590.0 0.0055298
3610.0 0.0033253
3630.0 0.0057509
3650.0 0.0066728
3670.0 0.0087135
3690.0 0.008182
3710.0 0.0054721
3730.0 0.0074467
3750.0 0.007724
3770.0 0.0080336
3790.0 0.007302
3810.0 0.0066058
3830.0 0.0098303
3850.0 0.011066
3870.0 0.013838
3890.0 0.012985
3910.0 0.011479
3930.0 0.012144
3950.0 0.013593
3970.0 0.01737
3990.0 0.013085
4010.0 0.0078693
4030.0 0.011628
4050.0 0.01347
4070.0 0.015401
4090.0 0.012869
4110.0 0.0083109
4130.0 0.011698
4150.0 0.010898
4170.0 0.011357
4190.0 0.011146
4210.0 0.014393
4230.0 0.009771
4250.0 0.011632
4270.0 0.011607
4290.0 0.011617
4310.0 0.014508
4330.0 0.014948
4350.0 0.011326
4370.0 0.009544
4390.0 0.012046
4410.0 0.012512
4430.0 0.0094899
4450.0 0.0094879
4470.0 0.011267
4490.0 0.0081457
4510.0 0.010274
4530.0 0.010989
4550.0 0.014605
4570.0 0.021546
4590.0 0.020439
4610.0 0.012949
4630.0 0.021899
4650.0 0.032059
4670.0 0.029527
4690.0 0.016967
4710.0 0.01875
4730.0 0.024856
4750.0 0.022104
4770.0 0.016571
4790.0 0.011011
4810.0 0.016365
4830.0 0.019038
4850.0 0.016484
4870.0 0.0047152
4890.0 0.01779
4910.0 0.02534
4930.0 0.027213
4950.0 0.026511
4970.0 0.015571
4990.0 0.018222
5010.0 0.022064
5030.0 0.02481
5050.0 0.024745
5070.0 0.017665
5090.0 0.014319
5110.0 0.013393
5130.0 0.011928
5150.0 0.013552
5170.0 0.011695
5190.0 0.0147
5210.0 0.014707
5230.0 0.016187
5250.0 0.020509
5270.0 0.016816
5290.0 0.016431
5310.0 0.024969
5330.0 0.029161
5350.0 0.024062
5370.0 0.020697
5390.0 0.024101
5410.0 0.030845
5430.0 0.034128
5450.0 0.036388
5470.0 0.036083
5490.0 0.03498
5510.0 0.041302
5530.0 0.042939
5550.0 0.046369
5570.0 0.049663
5590.0 0.049344
5610.0 0.046518
5630.0 0.044862
5650.0 0.045971
5670.0 0.045479
5690.0 0.038523
5710.0 0.03744
5730.0 0.038427
5750.0 0.042319
5770.0 0.036473
5790.0 0.033304
5810.0 0.033708
5830.0 0.035674
5850.0 0.03254
5870.0 0.033013
5890.0 0.039998
5910.0 0.038018
5930.0 0.030714
5950.0 0.026506
5970.0 0.028886
5990.0 0.026766
6010.0 0.025388
6030.0 0.026142
6050.0 0.024356
6070.0 0.017921
6090.0 0.016009
6110.0 0.021275
6130.0 0.024785
6150.0 0.025992
6170.0 0.024977
6190.0 0.023069
6210.0 0.022596
6230.0 0.02685
6250.0 0.024818
6270.0 0.022729
6290.0 0.021029
6310.0 0.019934
6330.0 0.018959
6350.0 0.016482
6370.0 0.016317
6390.0 0.019406
6410.0 0.02426
6430.0 0.027882
6450.0 0.025955
6470.0 0.025176
6490.0 0.031905
6510.0 0.037038
6530.0 0.03492
6550.0 0.033344
6570.0 0.033877
6590.0 0.032853
6610.0 0.035878
6630.0 0.033553
6650.0 0.029263
6670.0 0.026303
6690.0 0.025789
6710.0 0.032296
6730.0 0.029445
6750.0 0.024695
6770.0 0.021853
6790.0 0.022998
6810.0 0.025923
6830.0 0.025371
6850.0 0.022853
6870.0 0.023838
6890.0 0.023551
6910.0 0.022188
6930.0 0.025647
6950.0 0.023546
6970.0 0.021738
6990.0 0.021565
7010.0 0.020715
7030.0 0.019628
7050.0 0.019122
7070.0 0.021176
7090.0 0.020163
7110.0 0.017282
7130.0 0.013829
7150.0 0.012615
7170.0 0.01711
7190.0 0.018689
7210.0 0.017837
7230.0 0.018449
7250.0 0.016989
7270.0 0.016062
7290.0 0.017983
7310.0 0.020396
7330.0 0.020106
7350.0 0.018778
7370.0 0.017729
7390.0 0.018414
7410.0 0.021558
7430.0 0.023646
7450.0 0.024993
7470.0 0.024374
7490.0 0.025387
7510.0 0.024523
7530.0 0.024314
7550.0 0.024157
7570.0 0.021282
7590.0 0.021085
7610.0 0.020386
7630.0 0.018639
7650.0 0.020279
7670.0 0.022114
7690.0 0.023982
7710.0 0.02694
7730.0 0.02863
7750.0 0.029871
7770.0 0.029996
7790.0 0.032912
7810.0 0.03385
7830.0 0.030847
7850.0 0.031059
7870.0 0.029581
7890.0 0.031064
7910.0 0.029435
7930.0 0.029694
7950.0 0.025871
7970.0 0.026491
7990.0 0.025317
8010.0 0.025719
8030.0 0.025578
8050.0 0.026927
8070.0 0.025857
8090.0 0.025928
8110.0 0.025351
8130.0 0.025331
8150.0 0.024138
8170.0 0.023491
8190.0 0.023223
8210.0 0.023397
8230.0 0.020624
8250.0 0.018834
8270.0 0.016564
8290.0 0.013879
8310.0 0.012044
8330.0 0.0096417
8350.0 0.0080358
8370.0 0.0081356
8390.0 0.0081327
8410.0 0.0085361
8430.0 0.010594
8450.0 0.011374
8470.0 0.012068
8490.0 0.013937
8510.0 0.015165
8530.0 0.017419
8550.0 0.020587
8570.0 0.022797
8590.0 0.024273
8610.0 0.026561
8630.0 0.029468
8650.0 0.029988
8670.0 0.03037
8690.0 0.031582
8710.0 0.03113
8730.0 0.030613
8750.0 0.028719
8770.0 0.028737
8790.0 0.028351
8810.0 0.026112
8830.0 0.026161
8850.0 0.024446
8870.0 0.02346
8890.0 0.021286
8910.0 0.02304
8930.0 0.020968
8950.0 0.020696
8970.0 0.020838
8990.0 0.020137
9010.0 0.020571
9030.0 0.019675
9050.0 0.019569
9070.0 0.019553
9090.0 0.019533
9110.0 0.019522
9130.0 0.019495
9150.0 0.019461
9170.0 0.019378
9190.0 0.019216
9210.0 0.019465
9230.0 0.019362
9250.0 0.019292
9270.0 0.019226
9290.0 0.019163
9310.0 0.019103
9330.0 0.019042
9350.0 0.018981
9370.0 0.018918
9390.0 0.018853
9410.0 0.018787
9430.0 0.018718
9450.0 0.018647
9470.0 0.018575
9490.0 0.018503
9510.0 0.018428
9530.0 0.018353
9550.0 0.018276
9570.0 0.018198
9590.0 0.01812
9610.0 0.01804
9630.0 0.01796
9650.0 0.017879
9670.0 0.017798
9690.0 0.017717
9710.0 0.017635
9730.0 0.017553
9750.0 0.017471
9770.0 0.01739
9790.0 0.017308
9810.0 0.017226
9830.0 0.017145
9850.0 0.017065
9870.0 0.016984
9890.0 0.016905
9910.0 0.016826
9930.0 0.016747
9950.0 0.016627
9970.0 0.016563
9990.0 0.016497
10010.0 0.01643
10030.0 0.016361
10050.0 0.016287
10070.0 0.016193
10090.0 0.016132
10110.0 0.016069
10130.0 0.016005
10150.0 0.015942
10170.0 0.015878
10190.0 0.015812
10210.0 0.015749
10230.0 0.015688
10250.0 0.015626
10270.0 0.015566
10290.0 0.015509
10310.0 0.015452
10330.0 0.015395
10350.0 0.015341
10370.0 0.015289
10390.0 0.015236
10410.0 0.015186
10430.0 0.015139
10450.0 0.015091
10470.0 0.015045
10490.0 0.015001
10510.0 0.014959
10530.0 0.014915
10550.0 0.014875
10570.0 0.014837
10590.0 0.0148
10610.0 0.014763
10630.0 0.014729
10650.0 0.014696
10670.0 0.014663
10690.0 0.014633
10710.0 0.014604
10730.0 0.014576
10750.0 0.014548
10770.0 0.014523
10790.0 0.0145
10810.0 0.014476
10830.0 0.014453
10850.0 0.014433
10870.0 0.014408
10890.0 0.01438
10910.0 0.014347
10930.0 0.0143
10950.0 0.01423
10970.0 0.014133
10990.0 0.014007
11010.0 0.013929
11030.0 0.013722
11050.0 0.013481
11070.0 0.013202
11090.0 0.012878
11110.0 0.012554
11130.0 0.012229
11150.0 0.011894
11170.0 0.011564
11190.0 0.01126
11210.0 0.01096
11230.0 0.010668
11250.0 0.010403
11270.0 0.010159
11290.0 0.009923
11310.0 0.009706
11330.0 0.0095189
11350.0 0.0093423
11370.0 0.0091764
11390.0 0.0090285
11410.0 0.0088923
11430.0 0.0087548
11450.0 0.0086246
11470.0 0.0085007
11490.0 0.008373
11510.0 0.0082378
11530.0 0.0081048
11550.0 0.0079677
11570.0 0.0078177
11590.0 0.0076624
11610.0 0.0075065
11630.0 0.0073376
11650.0 0.0071579
11670.0 0.0069832
11690.0 0.0068058
11710.0 0.0066204
11730.0 0.0064379
11750.0 0.0062659
11770.0 0.0060904
11790.0 0.0059179
11810.0 0.0057586
11830.0 0.005607
11850.0 0.0054547
11870.0 0.0053165
11890.0 0.0051916
11910.0 0.0050699
11930.0 0.0049543
11950.0 0.0048507
11970.0 0.0047517
11990.0 0.0046531
12010.0 0.0045623
12030.0 0.0044779
12050.0 0.0043939
12070.0 0.0043113
12090.0 0.0042384
12110.0 0.0041679
12130.0 0.0040993
12150.0 0.0040379
12170.0 0.0039848
12190.0 0.0039347
12210.0 0.0038945
12230.0 0.0038666
12250.0 0.0038494
12270.0 0.0038445
12290.0 0.0038547
12310.0 0.0038792
12330.0 0.0039191
12350.0 0.0039745
12370.0 0.0040427
12390.0 0.0041242
12410.0 0.0042212
12430.0 0.0043236
12450.0 0.0044314
12470.0 0.0045461
12490.0 0.0046623
12510.0 0.0047735
12530.0 0.0048842
12550.0 0.0049916
12570.0 0.0050898
12590.0 0.0051796
12610.0 0.0052634
12630.0 0.0053375
12650.0 0.0054002
12670.0 0.0054553
12690.0 0.005502
12710.0 0.0055397
12730.0 0.0055698
12750.0 0.0055924
12770.0 0.0056077
12790.0 0.0056168
12810.0 0.0056191
12830.0 0.0056142
12850.0 0.0056045
12870.0 0.0055893
12890.0 0.0055663
12910.0 0.0055377
12930.0 0.005505
12950.0 0.0054639
12970.0 0.0054149
12990.0 0.0053632
13010.0 0.0053057
13030.0 0.0052398
13050.0 0.0051701
13070.0 0.0050997
13090.0 0.0050219
13110.0 0.0049407
13130.0 0.0048617
13150.0 0.0047828
13170.0 0.004701
13190.0 0.0046263
13210.0 0.0045596
13230.0 0.004497
13250.0 0.0044424
13270.0 0.0043997
13290.0 0.0043659
13310.0 0.0043409
13330.0 0.0043272
13350.0 0.0043227
13370.0 0.0043252
13390.0 0.0043337
13410.0 0.0043458
13430.0 0.0043589
13450.0 0.0043707
13470.0 0.004379
13490.0 0.0043822
13510.0 0.0043778
13530.0 0.004365
13550.0 0.0043449
13570.0 0.0043162
13590.0 0.0042785
13610.0 0.0042357
13630.0 0.0041893
13650.0 0.0041369
13670.0 0.0040829
13690.0 0.0040302
13710.0 0.0039773
13730.0 0.0039235
13750.0 0.0038753
13770.0 0.0038302
13790.0 0.0037864
13810.0 0.0037456
13830.0 0.0037089
13850.0 0.0036727
13870.0 0.0036372
13890.0 0.0036038
13910.0 0.0035711
13930.0 0.0035373
13950.0 0.0035038
13970.0 0.0034719
13990.0 0.0034393
14010.0 0.0034067
14030.0 0.0033759
14050.0 0.0033467
14070.0 0.0033178
14090.0 0.0032918
14110.0 0.0032689
14130.0 0.0032484
14150.0 0.0032306
14170.0 0.0032166
14190.0 0.0032057
14210.0 0.0031977
14230.0 0.0031931
14250.0 0.0031914
14270.0 0.003193
14290.0 0.0031979
14310.0 0.0032051
14330.0 0.0032149
14350.0 0.0032277
14370.0 0.0032421
14390.0 0.0032571
14410.0 0.003274
14430.0 0.0032916
14450.0 0.003308
14470.0 0.003324
14490.0 0.0033401
14510.0 0.0033539
14530.0 0.0033657
14550.0 0.003377
14570.0 0.0033874
14590.0 0.0033965
14610.0 0.003406
14630.0 0.0034172
14650.0 0.0034294
14670.0 0.0034435
14690.0 0.0034619
14710.0 0.0034851
14730.0 0.0035106
14750.0 0.0035418
14770.0 0.0035797
14790.0 0.0036217
14810.0 0.0036671
14830.0 0.0037213
14850.0 0.0037787
14870.0 0.0038361
14890.0 0.0038962
14910.0 0.0039577
14930.0 0.0040134
14950.0 0.004062
14970.0 0.004105
14990.0 0.0041367
15010.0 0.0041554
15030.0 0.0041637
15050.0 0.0041621
15070.0 0.004151
15090.0 0.0041342
15110.0 0.0041133
15130.0 0.0040899
15150.0 0.0040653
15170.0 0.0040399
15190.0 0.004014
15210.0 0.0039882
15230.0 0.0039624
15250.0 0.0039364
15270.0 0.0039104
15290.0 0.0038848
15310.0 0.003859
15330.0 0.0038331
15350.0 0.0038075
15370.0 0.003782
15390.0 0.0037562
15410.0 0.0037306
15430.0 0.0037053
15450.0 0.0036799
15470.0 0.0036544
15490.0 0.0036293
15510.0 0.0036043
15530.0 0.0035792
15550.0 0.0035542
15570.0 0.0035296
15590.0 0.0035048
15610.0 0.00348
15630.0 0.0034556
15650.0 0.0034313
15670.0 0.0034069
15690.0 0.0033828
15710.0 0.0033589
15730.0 0.003335
15750.0 0.0033111
15770.0 0.0032876
15790.0 0.0032642
15810.0 0.0032407
15830.0 0.0032175
15850.0 0.0031946
15870.0 0.0031717
15890.0 0.0031489
15910.0 0.0031265
15930.0 0.0031041
15950.0 0.0030816
15970.0 0.0030595
15990.0 0.0030377
16010.0 0.0030158
16030.0 0.002994
16050.0 0.0029727
16070.0 0.0029515
16090.0 0.0029302
16110.0 0.0029093
16130.0 0.0028887
16150.0 0.0028678
16170.0 0.0028473
16190.0 0.0028271
16210.0 0.002807
16230.0 0.0027869
16250.0 0.0027672
16270.0 0.0027477
16290.0 0.0027281
16310.0 0.0027088
16330.0 0.0026898
16350.0 0.0026709
16370.0 0.0026519
16390.0 0.0026334
16410.0 0.002615
16430.0 0.0025967
16450.0 0.0025786
16470.0 0.0025608
16490.0 0.002543
16510.0 0.0025253
16530.0 0.002508
16550.0 0.0024908
16570.0 0.0024736
16590.0 0.0024566
16610.0 0.00244
16630.0 0.0024234
16650.0 0.0024069
16670.0 0.0023908
16690.0 0.0023748
16710.0 0.0023586
16730.0 0.0023428
16750.0 0.0023273
16770.0 0.0023118
16790.0 0.0022964
16810.0 0.0022814
16830.0 0.0022665
16850.0 0.0022515
16870.0 0.0022368
16890.0 0.0022224
16910.0 0.002208
16930.0 0.0021936
16950.0 0.0021796
16970.0 0.0021657
16990.0 0.0021518
17010.0 0.0021382
17030.0 0.0021248
17050.0 0.0021114
17070.0 0.0020981
17090.0 0.0020851
17110.0 0.0020722
17130.0 0.0020592
17150.0 0.0020465
17170.0 0.0020341
17190.0 0.0020217
17210.0 0.0020093
17230.0 0.0019973
17250.0 0.0019853
17270.0 0.0019733
17290.0 0.0019616
17310.0 0.00195
17330.0 0.0019384
17350.0 0.001927
17370.0 0.0019159
17390.0 0.0019047
17410.0 0.0018936
17430.0 0.0018828
17450.0 0.0018721
17470.0 0.0018613
17490.0 0.0018506
17510.0 0.0018403
17530.0 0.00183
17550.0 0.0018196
17570.0 0.0018096
17590.0 0.0017997
17610.0 0.0017897
17630.0 0.0017799
17650.0 0.0017703
17670.0 0.0017607
17690.0 0.001751
17710.0 0.0017417
17730.0 0.0017325
17750.0 0.0017233
17770.0 0.0017142
17790.0 0.0017053
17810.0 0.0016964
17830.0 0.0016874
17850.0 0.0016788
17870.0 0.0016702
17890.0 0.0016616
17910.0 0.0016531
17930.0 0.0016449
17950.0 0.0016366
17970.0 0.0016284
17990.0 0.0016204
18010.0 0.0016124
18030.0 0.0016043
18050.0 0.0015965
18070.0 0.0015888
18090.0 0.0015811
18110.0 0.0015734
18130.0 0.001566
18150.0 0.0015586
18170.0 0.0015511
18190.0 0.0015438
18210.0 0.0015367
18230.0 0.0015294
18250.0 0.0015222
18270.0 0.0015153
18290.0 0.0015084
18310.0 0.0015015
18330.0 0.0014947
18350.0 0.0014881
18370.0 0.0014813
18390.0 0.0014747
18410.0 0.0014682
18430.0 0.0014618
18450.0 0.0014552
18470.0 0.0014489
18490.0 0.0014427
18510.0 0.0014364
18530.0 0.0014302
18550.0 0.0014242
18570.0 0.0014182
18590.0 0.0014121
18610.0 0.0014062
18630.0 0.0014004
18650.0 0.0013945
18670.0 0.0013886
18690.0 0.001383
18710.0 0.0013774
18730.0 0.0013717
18750.0 0.0013662
18770.0 0.0013608
18790.0 0.0013551
18810.0 0.0013497
18830.0 0.0013444
18850.0 0.0013391
18870.0 0.0013338
18890.0 0.0013286
18910.0 0.0013235
18930.0 0.0013183
18950.0 0.0013132
18970.0 0.0013083
18990.0 0.0013032
19010.0 0.0012981
19030.0 0.0012933
19050.0 0.0012885
19070.0 0.0012836
19090.0 0.0012788
19110.0 0.0012742
19130.0 0.0012694
19150.0 0.0012646
19170.0 0.0012601
19190.0 0.0012555
19210.0 0.0012508
19230.0 0.0012463
19250.0 0.0012419
19270.0 0.0012374
19290.0 0.0012329
19310.0 0.0012286
19330.0 0.0012243
19350.0 0.0012198
19370.0 0.0012156
19390.0 0.0012114
19410.0 0.0012071
19430.0 0.0012028
19450.0 0.0011988
19470.0 0.0011947
19490.0 0.0011905
19510.0 0.0011864
19530.0 0.0011825
19550.0 0.0011783
19570.0 0.0011742
19590.0 0.0011704
19610.0 0.0011664
19630.0 0.0011624
19650.0 0.0011586
19670.0 0.0011548
19690.0 0.0011509
19710.0 0.001147
19730.0 0.0011433
19750.0 0.0011395
19770.0 0.0011356
19790.0 0.0011319
19810.0 0.0011283
19830.0 0.0011245
19850.0 0.0011207
19870.0 0.001117
19890.0 0.001113
19910.0 0.0011084
19930.0 0.0011034
19950.0 0.0010975
19970.0 0.0010899
19990.0 0.0010805
20010.0 0.0010697
20030.0 0.0010565
20050.0 0.001041
20070.0 0.0010243
20090.0 0.0010065
20110.0 0.00098658
20130.0 0.00096678
20150.0 0.0009475
20170.0 0.0009278
20190.0 0.00090814
20210.0 0.00088987
20230.0 0.0008723
20250.0 0.0008549
20270.0 0.00083901
20290.0 0.00082474
20310.0 0.00081142
20330.0 0.00079927
20350.0 0.0007896
20370.0 0.00078146
20390.0 0.0007749
20410.0 0.00077037
20430.0 0.0007678
20450.0 0.00076699
20470.0 0.00076816
20490.0 0.00077113
20510.0 0.00077582
20530.0 0.00078238
20550.0 0.00079035
20570.0 0.00079932
20590.0 0.00080976
20610.0 0.0008212
20630.0 0.00083293
20650.0 0.00084524
20670.0 0.00085835
20690.0 0.00087087
20710.0 0.00088292
20730.0 0.00089482
20750.0 0.00090603
20770.0 0.0009159
20790.0 0.00092498
20810.0 0.00093317
20830.0 0.00093997
20850.0 0.00094554
20870.0 0.00095014
20890.0 0.00095355
20910.0 0.00095579
20930.0 0.00095712
20950.0 0.00095755
20970.0 0.00095719
20990.0 0.00095614
21010.0 0.00095433
21030.0 0.00095191
21050.0 0.00094906
21070.0 0.00094564
21090.0 0.00094159
21110.0 0.00093736
21130.0 0.00093284
21150.0 0.00092785
21170.0 0.00092271
21190.0 0.00091765
21210.0 0.00091235
21230.0 0.00090699
21250.0 0.00090205
21270.0 0.00089739
21290.0 0.00089292
21310.0 0.00088898
21330.0 0.00088575
21350.0 0.00088299
21370.0 0.00088088
21390.0 0.00087956
21410.0 0.00087896
21430.0 0.0008791
21450.0 0.00088004
21470.0 0.00088168
21490.0 0.00088406
21510.0 0.00088717
21530.0 0.00089079
21550.0 0.00089498
21570.0 0.00089988
21590.0 0.00090516
21610.0 0.00091075
21630.0 0.0009169
21650.0 0.0009236
21670.0 0.00093022
21690.0 0.00093723
21710.0 0.00094474
21730.0 0.00095238
21750.0 0.00096006
21770.0 0.00096845
21790.0 0.00097707
21810.0 0.00098567
21830.0 0.00099462
21850.0 0.0010041
21870.0 0.0010136
21890.0 0.0010231
21910.0 0.0010331
21930.0 0.0010433
21950.0 0.0010532
21970.0 0.0010633
21990.0 0.0010738
22010.0 0.0010837
22030.0 0.0010932
22050.0 0.0011027
22070.0 0.0011117
22090.0 0.0011198
22110.0 0.0011274
22130.0 0.0011343
22150.0 0.0011401
22170.0 0.0011448
22190.0 0.0011484
22210.0 0.0011507
22230.0 0.0011516
22250.0 0.0011511
22270.0 0.001149
22290.0 0.0011455
22310.0 0.0011406
22330.0 0.0011339
22350.0 0.0011258
22370.0 0.0011166
22390.0 0.0011058
22410.0 0.0010933
22430.0 0.0010803
22450.0 0.0010663
22470.0 0.001051
22490.0 0.0010351
22510.0 0.0010192
22530.0 0.0010022
22550.0 0.00098455
22570.0 0.00096759
22590.0 0.00095065
22610.0 0.00093329
22630.0 0.00091646
22650.0 0.00090074
22670.0 0.00088489
22690.0 0.00086947
22710.0 0.00085523
22730.0 0.00084167
22750.0 0.0008281
22770.0 0.00081582
22790.0 0.00080463
22810.0 0.00079384
22830.0 0.00078372
22850.0 0.00077476
22870.0 0.00076639
22890.0 0.00075843
22910.0 0.0007514
22930.0 0.0007452
22950.0 0.00073948
22970.0 0.00073434
22990.0 0.00073021
23010.0 0.00072663
23030.0 0.00072364
23050.0 0.00072138
23070.0 0.0007198
23090.0 0.00071876
23110.0 0.00071836
23130.0 0.00071855
23150.0 0.00071923
23170.0 0.00072043
23190.0 0.00072201
23210.0 0.00072388
23230.0 0.00072612
23250.0 0.00072858
23270.0 0.00073113
23290.0 0.00073384
23310.0 0.00073676
23330.0 0.00073957
23350.0 0.00074234
23370.0 0.00074517
23390.0 0.00074792
23410.0 0.00075045
23430.0 0.00075292
23450.0 0.00075526
23470.0 0.00075731
23490.0 0.00075912
23510.0 0.00076073
23530.0 0.00076202
23550.0 0.00076295
23570.0 0.00076362
23590.0 0.00076399
23610.0 0.00076409
23630.0 0.00076397
23650.0 0.00076367
23670.0 0.00076328
23690.0 0.00076292
23710.0 0.00076268
23730.0 0.00076271
23750.0 0.00076317
23770.0 0.00076418
23790.0 0.000766
23810.0 0.00076872
23830.0 0.00077235
23850.0 0.00077735
23870.0 0.00078378
23890.0 0.00079125
23910.0 0.00080001
23930.0 0.00081035
23950.0 0.00082165
