#lamb flux
1010.0 1.1516e-08
1030.0 1.2737e-08
1050.0 1.4141e-08
1070.0 1.5722e-08
1090.0 1.7517e-08
1110.0 1.9359e-08
1130.0 2.1212e-08
1150.0 2.3153e-08
1170.0 2.5156e-08
1190.0 2.7055e-08
1210.0 2.898e-08
1230.0 3.0968e-08
1250.0 3.2917e-08
1270.0 3.4809e-08
1290.0 3.6809e-08
1310.0 3.8807e-08
1330.0 4.0723e-08
1350.0 4.2661e-08
1370.0 4.4662e-08
1390.0 4.6612e-08
1410.0 4.8505e-08
1430.0 5.0484e-08
1450.0 5.2462e-08
1470.0 5.4375e-08
1490.0 5.6308e-08
1510.0 5.835e-08
1530.0 6.0285e-08
1550.0 6.2194e-08
1570.0 6.417e-08
1590.0 6.6148e-08
1610.0 6.8039e-08
1630.0 6.9989e-08
1650.0 7.1991e-08
1670.0 7.3928e-08
1690.0 7.5842e-08
1710.0 7.7831e-08
1730.0 7.9833e-08
1750.0 8.1717e-08
1770.0 8.3658e-08
1790.0 8.5641e-08
1810.0 8.7563e-08
1830.0 8.9454e-08
1850.0 9.1464e-08
1870.0 9.3425e-08
1890.0 9.5324e-08
1910.0 9.7265e-08
1930.0 9.9256e-08
1950.0 1.0116e-07
1970.0 1.0305e-07
1990.0 1.0501e-07
2010.0 1.0694e-07
2030.0 1.0881e-07
2050.0 1.1074e-07
2070.0 1.1273e-07
2090.0 1.146e-07
2110.0 1.1647e-07
2130.0 1.1841e-07
2150.0 1.2031e-07
2170.0 1.2213e-07
2190.0 1.2403e-07
2210.0 1.2594e-07
2230.0 1.2777e-07
2250.0 1.296e-07
2270.0 1.3152e-07
2290.0 1.3338e-07
2310.0 1.3516e-07
2330.0 1.3702e-07
2350.0 1.3893e-07
2370.0 1.4083e-07
2390.0 1.4289e-07
2410.0 1.4532e-07
2430.0 1.4813e-07
2450.0 1.5148e-07
2470.0 1.5578e-07
2490.0 1.6119e-07
2510.0 1.6734e-07
2530.0 1.7475e-07
2550.0 1.8402e-07
2570.0 1.9556e-07
2590.0 2.1056e-07
2610.0 2.3302e-07
2630.0 2.6509e-07
2650.0 3.0703e-07
2670.0 3.6125e-07
2690.0 4.2787e-07
2710.0 4.9899e-07
2730.0 5.6927e-07
2750.0 6.3849e-07
2770.0 6.987e-07
2790.0 7.4651e-07
2810.0 7.8445e-07
2830.0 8.1409e-07
2850.0 8.3433e-07
2870.0 8.4918e-07
2890.0 8.6094e-07
2910.0 8.7032e-07
2930.0 8.7799e-07
2950.0 8.8531e-07
2970.0 8.9247e-07
2990.0 8.9918e-07
3010.0 2.5416e-05
3030.0 2.5606e-05
3050.0 2.579e-05
3070.0 2.5947e-05
3090.0 2.6082e-05
3110.0 2.6166e-05
3130.0 2.6163e-05
3150.0 2.6046e-05
3170.0 2.5767e-05
3190.0 2.5329e-05
3210.0 2.4774e-05
3230.0 2.4138e-05
3250.0 2.351e-05
3270.0 2.3051e-05
3290.0 2.2797e-05
3310.0 2.2838e-05
3330.0 2.3169e-05
3350.0 2.3744e-05
3370.0 2.4566e-05
3390.0 2.5602e-05
3410.0 2.6729e-05
3430.0 2.7994e-05
3450.0 2.9451e-05
3470.0 3.1042e-05
3490.0 3.2728e-05
3510.0 3.4634e-05
3530.0 3.6674e-05
3550.0 3.874e-05
3570.0 4.0895e-05
3590.0 4.324e-05
3610.0 4.5655e-05
3630.0 4.8062e-05
3650.0 5.056e-05
3670.0 5.2841e-05
3690.0 5.4546e-05
3710.0 5.5523e-05
3730.0 5.5555e-05
3750.0 5.4782e-05
3770.0 5.4478e-05
3790.0 5.4154e-05
3810.0 5.2824e-05
3830.0 5.4459e-05
3850.0 6.0891e-05
3870.0 6.4422e-05
3890.0 6.4128e-05
3910.0 6.4402e-05
3930.0 6.6097e-05
3950.0 6.7141e-05
3970.0 6.1171e-05
3990.0 5.2635e-05
4010.0 0.00015775
4030.0 0.00019114
4050.0 0.00021913
4070.0 0.00019013
4090.0 0.0001722
4110.0 0.00015195
4130.0 0.00013986
4150.0 0.00014877
4170.0 0.00014654
4190.0 0.0001562
4210.0 0.00015477
4230.0 0.00016371
4250.0 0.00019367
4270.0 0.00019595
4290.0 0.00018056
4310.0 0.00018762
4330.0 0.00019957
4350.0 0.00022377
4370.0 0.00025465
4390.0 0.00023896
4410.0 0.00017655
4430.0 0.00014946
4450.0 0.00013734
4470.0 0.00010541
4490.0 0.00011375
4510.0 0.00017183
4530.0 0.00019817
4550.0 0.00019989
4570.0 0.00022492
4590.0 0.00025621
4610.0 0.00034557
4630.0 0.00044882
4650.0 0.00048674
4670.0 0.00045076
4690.0 0.00043011
4710.0 0.00045466
4730.0 0.00042907
4750.0 0.00032078
4770.0 0.00023531
4790.0 0.00021973
4810.0 0.00020944
4830.0 0.00019174
4850.0 0.0002104
4870.0 0.00027796
4890.0 0.00032779
4910.0 0.0002876
4930.0 0.00025448
4950.0 0.00027959
4970.0 0.00035855
4990.0 0.00048592
5010.0 0.00055899
5030.0 0.0004929
5050.0 0.00033348
5070.0 0.00021978
5090.0 0.00017722
5110.0 0.00018225
5130.0 0.00021035
5150.0 0.00022789
5170.0 0.00022447
5190.0 0.00020976
5210.0 0.00021924
5230.0 0.00023047
5250.0 0.00024838
5270.0 0.00026798
5290.0 0.00029698
5310.0 0.00034567
5330.0 0.00038253
5350.0 0.00038008
5370.0 0.00039924
5390.0 0.00045813
5410.0 0.00045771
5430.0 0.00040478
5450.0 0.00037189
5470.0 0.00039488
5490.0 0.00048243
5510.0 0.0006032
5530.0 0.00069184
5550.0 0.00066867
5570.0 0.00060786
5590.0 0.00052854
5610.0 0.00048743
5630.0 0.00047265
5650.0 0.00045015
5670.0 0.00042655
5690.0 0.00038133
5710.0 0.0003718
5730.0 0.00034248
5750.0 0.00024147
5770.0 0.00018838
5790.0 0.00021348
5810.0 0.00024105
5830.0 0.0002958
5850.0 0.00035211
5870.0 0.00039067
5890.0 0.00039729
5910.0 0.00038976
5930.0 0.00037101
5950.0 0.00037805
5970.0 0.00043093
5990.0 0.00040518
6010.0 0.00033966
6030.0 0.00028696
6050.0 0.00024991
6070.0 0.00024854
6090.0 0.0002695
6110.0 0.00030135
6130.0 0.00030597
6150.0 0.00026326
6170.0 0.00023158
6190.0 0.00026061
6210.0 0.00034453
6230.0 0.00045212
6250.0 0.00048971
6270.0 0.00042794
6290.0 0.00036005
6310.0 0.00028108
6330.0 0.00021536
6350.0 0.0001921
6370.0 0.00020201
6390.0 0.00023353
6410.0 0.00028796
6430.0 0.00033626
6450.0 0.00038476
6470.0 0.00044056
6490.0 0.00053217
6510.0 0.00059504
6530.0 0.00058377
6550.0 0.00052788
6570.0 0.00044812
6590.0 0.00040409
6610.0 0.00034843
6630.0 0.00031566
6650.0 0.00029839
6670.0 0.00028988
6690.0 0.00026192
6710.0 0.00023809
6730.0 0.00017149
6750.0 0.00017002
6770.0 0.0001848
6790.0 0.00021241
6810.0 0.00019436
6830.0 0.00020014
6850.0 0.00018719
6870.0 0.000171
6890.0 0.00016419
6910.0 0.00017496
6930.0 0.00016388
6950.0 0.0001686
6970.0 0.00017734
6990.0 0.00020129
7010.0 0.00020301
7030.0 0.00020623
7050.0 0.00019667
7070.0 0.0001874
7090.0 0.00018794
7110.0 0.00019338
7130.0 0.00020811
7150.0 0.00022103
7170.0 0.00024389
7190.0 0.0002681
7210.0 0.00026345
7230.0 0.00027083
7250.0 0.00029105
7270.0 0.00031717
7290.0 0.00037645
7310.0 0.00040848
7330.0 0.00039483
7350.0 0.0003571
7370.0 0.00031071
7390.0 0.00030143
7410.0 0.00032032
7430.0 0.000356
7450.0 0.00038775
7470.0 0.00038419
7490.0 0.00035031
7510.0 0.00039681
7530.0 0.00039247
7550.0 0.00035276
7570.0 0.00027557
7590.0 0.00018945
7610.0 0.0001626
7630.0 0.00018475
7650.0 0.00021844
7670.0 0.00027187
7690.0 0.00029917
7710.0 0.00031178
7730.0 0.00032764
7750.0 0.00036781
7770.0 0.0003736
7790.0 0.00034317
7810.0 0.00031312
7830.0 0.0003229
7850.0 0.00031389
7870.0 0.00028779
7890.0 0.0002418
7910.0 0.00019655
7930.0 0.00018768
7950.0 0.00017098
7970.0 0.00015827
7990.0 0.00015737
8010.0 1.1661e-05
8030.0 1.1508e-05
8050.0 1.1354e-05
8070.0 1.1504e-05
8090.0 1.2362e-05
8110.0 1.2151e-05
8130.0 1.0021e-05
8150.0 9.7596e-06
8170.0 8.4046e-06
8190.0 7.9638e-06
8210.0 1.0345e-05
8230.0 1.1519e-05
8250.0 1.0378e-05
8270.0 9.0325e-06
8290.0 8.8076e-06
8310.0 6.7793e-06
8330.0 4.5691e-06
8350.0 3.2428e-06
8370.0 2.042e-06
8390.0 3.7347e-06
8410.0 4.3519e-06
8430.0 5.3644e-06
8450.0 6.2992e-06
8470.0 7.831e-06
8490.0 7.775e-06
8510.0 7.647e-06
8530.0 7.979e-06
8550.0 1.0769e-05
8570.0 1.2751e-05
8590.0 1.3755e-05
8610.0 1.7377e-05
8630.0 2.0933e-05
8650.0 2.1893e-05
8670.0 2.3268e-05
8690.0 2.3403e-05
8710.0 2.1194e-05
8730.0 1.9715e-05
8750.0 1.7401e-05
8770.0 1.6511e-05
8790.0 1.6222e-05
8810.0 1.5545e-05
8830.0 1.2429e-05
8850.0 9.0968e-06
8870.0 6.965e-06
8890.0 6.812e-06
8910.0 7.8085e-06
8930.0 8.883e-06
8950.0 9.0536e-06
8970.0 9.096e-06
8990.0 8.1111e-06
9010.0 8.494e-05
9030.0 7.6964e-05
9050.0 7.7336e-05
9070.0 7.7947e-05
9090.0 7.8482e-05
9110.0 7.9144e-05
9130.0 7.9654e-05
9150.0 8.0051e-05
9170.0 8.0474e-05
9190.0 8.0925e-05
9210.0 8.1401e-05
9230.0 8.1903e-05
9250.0 8.2412e-05
9270.0 8.2941e-05
9290.0 8.3486e-05
9310.0 8.4034e-05
9330.0 8.4594e-05
9350.0 8.5174e-05
9370.0 8.5761e-05
9390.0 8.6353e-05
9410.0 8.6963e-05
9430.0 8.7591e-05
9450.0 8.8216e-05
9470.0 8.8855e-05
9490.0 8.9513e-05
9510.0 9.0177e-05
9530.0 9.0845e-05
9550.0 9.1537e-05
9570.0 9.224e-05
9590.0 9.2946e-05
9610.0 9.3663e-05
9630.0 9.44e-05
9650.0 9.5143e-05
9670.0 9.5888e-05
9690.0 9.6652e-05
9710.0 9.7428e-05
9730.0 9.8206e-05
9750.0 9.8996e-05
9770.0 9.9809e-05
9790.0 0.00010062
9810.0 0.00010144
9830.0 0.00010227
9850.0 0.00010311
9870.0 0.00010395
9890.0 0.00010481
9910.0 0.00010568
9930.0 0.00010655
9950.0 0.00010742
9970.0 0.00010831
9990.0 0.00010921
10010.0 9.4769e-05
10030.0 9.5547e-05
10050.0 9.6341e-05
10070.0 9.7162e-05
10090.0 9.7936e-05
10110.0 9.8729e-05
10130.0 9.9526e-05
10150.0 0.00010032
10170.0 0.00010112
10190.0 0.00010194
10210.0 0.00010275
10230.0 0.00010355
10250.0 0.00010437
10270.0 0.00010519
10290.0 0.000106
10310.0 0.00010681
10330.0 0.00010764
10350.0 0.00010845
10370.0 0.00010926
10390.0 0.00011008
10410.0 0.00011089
10430.0 0.00011169
10450.0 0.0001125
10470.0 0.00011331
10490.0 0.0001141
10510.0 0.00011489
10530.0 0.00011569
10550.0 0.00011648
10570.0 0.00011726
10590.0 0.00011803
10610.0 0.00011881
10630.0 0.00011957
10650.0 0.00012032
10670.0 0.00012108
10690.0 0.00012182
10710.0 0.00012255
10730.0 0.00012328
10750.0 0.00012401
10770.0 0.00012471
10790.0 0.0001254
10810.0 0.0001261
10830.0 0.00012677
10850.0 0.00012741
10870.0 0.00012803
10890.0 0.00012857
10910.0 0.00012899
10930.0 0.00012923
10950.0 0.00012918
10970.0 0.00012874
10990.0 0.00012788
11010.0 0.00012644
11030.0 0.00012442
11050.0 0.00012197
11070.0 0.00011904
11090.0 0.00011552
11110.0 0.00011188
11130.0 0.00010808
11150.0 0.00010399
11170.0 9.9767e-05
11190.0 9.5676e-05
11210.0 9.1451e-05
11230.0 8.7119e-05
11250.0 8.2979e-05
11270.0 7.9004e-05
11290.0 7.5021e-05
11310.0 7.1248e-05
11330.0 6.7925e-05
11350.0 6.4786e-05
11370.0 6.1886e-05
11390.0 5.9376e-05
11410.0 5.7181e-05
11430.0 5.5141e-05
11450.0 5.3384e-05
11470.0 5.1864e-05
11490.0 5.045e-05
11510.0 4.9087e-05
11530.0 4.7823e-05
11550.0 4.6567e-05
11570.0 4.5226e-05
11590.0 4.3839e-05
11610.0 4.2426e-05
11630.0 4.0889e-05
11650.0 3.9243e-05
11670.0 3.762e-05
11690.0 3.5975e-05
11710.0 3.4278e-05
11730.0 3.2634e-05
11750.0 3.1112e-05
11770.0 2.9619e-05
11790.0 2.8221e-05
11810.0 2.6989e-05
11830.0 2.5888e-05
11850.0 2.4874e-05
11870.0 2.4025e-05
11890.0 2.332e-05
11910.0 2.27e-05
11930.0 2.2168e-05
11950.0 2.1724e-05
11970.0 2.1328e-05
11990.0 2.0953e-05
12010.0 2.0606e-05
12030.0 2.0272e-05
12050.0 1.9927e-05
12070.0 1.9568e-05
12090.0 1.9222e-05
12110.0 1.887e-05
12130.0 1.8518e-05
12150.0 1.8193e-05
12170.0 1.791e-05
12190.0 1.7665e-05
12210.0 1.7494e-05
12230.0 1.7411e-05
12250.0 1.7424e-05
12270.0 1.7556e-05
12290.0 1.7804e-05
12310.0 1.816e-05
12330.0 1.8659e-05
12350.0 1.9281e-05
12370.0 1.9989e-05
12390.0 2.0806e-05
12410.0 2.1763e-05
12430.0 2.2735e-05
12450.0 2.3743e-05
12470.0 2.4813e-05
12490.0 2.5889e-05
12510.0 2.6898e-05
12530.0 2.7902e-05
12550.0 2.887e-05
12570.0 2.9725e-05
12590.0 3.0476e-05
12610.0 3.1144e-05
12630.0 3.1677e-05
12650.0 3.2045e-05
12670.0 3.2287e-05
12690.0 3.2384e-05
12710.0 3.2331e-05
12730.0 3.2143e-05
12750.0 3.1809e-05
12770.0 3.135e-05
12790.0 3.0794e-05
12810.0 3.0129e-05
12830.0 2.936e-05
12850.0 2.8556e-05
12870.0 2.7706e-05
12890.0 2.6787e-05
12910.0 2.5852e-05
12930.0 2.493e-05
12950.0 2.3968e-05
12970.0 2.299e-05
12990.0 2.2064e-05
13010.0 2.1149e-05
13030.0 2.0224e-05
13050.0 1.9336e-05
13070.0 1.8504e-05
13090.0 1.7669e-05
13110.0 1.6861e-05
13130.0 1.6117e-05
13150.0 1.5411e-05
13170.0 1.4721e-05
13190.0 1.4106e-05
13210.0 1.3565e-05
13230.0 1.3071e-05
13250.0 1.2645e-05
13270.0 1.2309e-05
13290.0 1.2048e-05
13310.0 1.1868e-05
13330.0 1.1786e-05
13350.0 1.1796e-05
13370.0 1.1902e-05
13390.0 1.211e-05
13410.0 1.2391e-05
13430.0 1.2756e-05
13450.0 1.3207e-05
13470.0 1.3707e-05
13490.0 1.4238e-05
13510.0 1.4836e-05
13530.0 1.5442e-05
13550.0 1.6022e-05
13570.0 1.6595e-05
13590.0 1.7152e-05
13610.0 1.7648e-05
13630.0 1.8081e-05
13650.0 1.8477e-05
13670.0 1.8805e-05
13690.0 1.9059e-05
13710.0 1.9255e-05
13730.0 1.9395e-05
13750.0 1.9465e-05
13770.0 1.9481e-05
13790.0 1.9446e-05
13810.0 1.936e-05
13830.0 1.9233e-05
13850.0 1.9061e-05
13870.0 1.8845e-05
13890.0 1.8597e-05
13910.0 1.8318e-05
13930.0 1.7994e-05
13950.0 1.7641e-05
13970.0 1.728e-05
13990.0 1.6887e-05
14010.0 1.6469e-05
14030.0 1.6052e-05
14050.0 1.5632e-05
14070.0 1.5188e-05
14090.0 1.4763e-05
14110.0 1.4364e-05
14130.0 1.3977e-05
14150.0 1.3612e-05
14170.0 1.3301e-05
14190.0 1.3032e-05
14210.0 1.2804e-05
14230.0 1.2635e-05
14250.0 1.2526e-05
14270.0 1.2473e-05
14290.0 1.2484e-05
14310.0 1.2554e-05
14330.0 1.2679e-05
14350.0 1.2863e-05
14370.0 1.3092e-05
14390.0 1.3352e-05
14410.0 1.3658e-05
14430.0 1.3995e-05
14450.0 1.4339e-05
14470.0 1.4695e-05
14490.0 1.5074e-05
14510.0 1.5437e-05
14530.0 1.5781e-05
14550.0 1.6125e-05
14570.0 1.6456e-05
14590.0 1.6757e-05
14610.0 1.7048e-05
14630.0 1.7336e-05
14650.0 1.7604e-05
14670.0 1.7863e-05
14690.0 1.8133e-05
14710.0 1.8417e-05
14730.0 1.8701e-05
14750.0 1.9015e-05
14770.0 1.9372e-05
14790.0 1.9759e-05
14810.0 2.0178e-05
14830.0 2.0674e-05
14850.0 2.1214e-05
14870.0 2.1777e-05
14890.0 2.2384e-05
14910.0 2.303e-05
14930.0 2.365e-05
14950.0 2.4229e-05
14970.0 2.4778e-05
14990.0 2.5239e-05
15010.0 2.559e-05
15030.0 2.5851e-05
15050.0 2.6023e-05
15070.0 2.6108e-05
15090.0 2.6137e-05
15110.0 2.6129e-05
15130.0 2.6096e-05
15150.0 2.6052e-05
15170.0 2.5999e-05
15190.0 2.5943e-05
15210.0 2.5888e-05
15230.0 2.5833e-05
15250.0 2.5776e-05
15270.0 2.572e-05
15290.0 2.5666e-05
15310.0 2.5612e-05
15330.0 2.5556e-05
15350.0 2.5503e-05
15370.0 2.545e-05
15390.0 2.5394e-05
15410.0 2.5341e-05
15430.0 2.5289e-05
15450.0 2.5236e-05
15470.0 2.5181e-05
15490.0 2.513e-05
15510.0 2.5079e-05
15530.0 2.5026e-05
15550.0 2.4974e-05
15570.0 2.4924e-05
15590.0 2.4872e-05
15610.0 2.4819e-05
15630.0 2.4769e-05
15650.0 2.4719e-05
15670.0 2.4667e-05
15690.0 2.4617e-05
15710.0 2.4568e-05
15730.0 2.4517e-05
15750.0 2.4466e-05
15770.0 2.4417e-05
15790.0 2.4368e-05
15810.0 2.4317e-05
15830.0 2.4267e-05
15850.0 2.4219e-05
15870.0 2.4169e-05
15890.0 2.4119e-05
15910.0 2.4072e-05
15930.0 2.4023e-05
15950.0 2.3972e-05
15970.0 2.3924e-05
15990.0 2.3876e-05
16010.0 2.3826e-05
16030.0 2.3776e-05
16050.0 2.3729e-05
16070.0 2.3681e-05
16090.0 2.3631e-05
16110.0 2.3583e-05
16130.0 2.3536e-05
16150.0 2.3485e-05
16170.0 2.3436e-05
16190.0 2.3389e-05
16210.0 2.334e-05
16230.0 2.329e-05
16250.0 2.3242e-05
16270.0 2.3195e-05
16290.0 2.3146e-05
16310.0 2.3097e-05
16330.0 2.3049e-05
16350.0 2.3001e-05
16370.0 2.2949e-05
16390.0 2.2902e-05
16410.0 2.2854e-05
16430.0 2.2804e-05
16450.0 2.2755e-05
16470.0 2.2708e-05
16490.0 2.2658e-05
16510.0 2.2608e-05
16530.0 2.2559e-05
16550.0 2.2511e-05
16570.0 2.246e-05
16590.0 2.241e-05
16610.0 2.2362e-05
16630.0 2.2313e-05
16650.0 2.2262e-05
16670.0 2.2214e-05
16690.0 2.2165e-05
16710.0 2.2113e-05
16730.0 2.2063e-05
16750.0 2.2014e-05
16770.0 2.1963e-05
16790.0 2.1911e-05
16810.0 2.1862e-05
16830.0 2.1813e-05
16850.0 2.1761e-05
16870.0 2.171e-05
16890.0 2.1661e-05
16910.0 2.1609e-05
16930.0 2.1556e-05
16950.0 2.1506e-05
16970.0 2.1455e-05
16990.0 2.1402e-05
17010.0 2.1351e-05
17030.0 2.1301e-05
17050.0 2.1248e-05
17070.0 2.1195e-05
17090.0 2.1144e-05
17110.0 2.1092e-05
17130.0 2.1038e-05
17150.0 2.0985e-05
17170.0 2.0934e-05
17190.0 2.0881e-05
17210.0 2.0827e-05
17230.0 2.0776e-05
17250.0 2.0723e-05
17270.0 2.0668e-05
17290.0 2.0614e-05
17310.0 2.0562e-05
17330.0 2.0507e-05
17350.0 2.0452e-05
17370.0 2.04e-05
17390.0 2.0346e-05
17410.0 2.029e-05
17430.0 2.0237e-05
17450.0 2.0184e-05
17470.0 2.0127e-05
17490.0 2.0071e-05
17510.0 2.0018e-05
17530.0 1.9962e-05
17550.0 1.9906e-05
17570.0 1.9851e-05
17590.0 1.9797e-05
17610.0 1.974e-05
17630.0 1.9684e-05
17650.0 1.963e-05
17670.0 1.9574e-05
17690.0 1.9515e-05
17710.0 1.946e-05
17730.0 1.9404e-05
17750.0 1.9347e-05
17770.0 1.929e-05
17790.0 1.9235e-05
17810.0 1.9178e-05
17830.0 1.9119e-05
17850.0 1.9063e-05
17870.0 1.9007e-05
17890.0 1.8948e-05
17910.0 1.889e-05
17930.0 1.8834e-05
17950.0 1.8776e-05
17970.0 1.8717e-05
17990.0 1.8661e-05
18010.0 1.8604e-05
18030.0 1.8543e-05
18050.0 1.8485e-05
18070.0 1.8428e-05
18090.0 1.8369e-05
18110.0 1.8309e-05
18130.0 1.8252e-05
18150.0 1.8194e-05
18170.0 1.8134e-05
18190.0 1.8076e-05
18210.0 1.8018e-05
18230.0 1.7958e-05
18250.0 1.7897e-05
18270.0 1.784e-05
18290.0 1.7781e-05
18310.0 1.772e-05
18330.0 1.7661e-05
18350.0 1.7603e-05
18370.0 1.7543e-05
18390.0 1.7482e-05
18410.0 1.7424e-05
18430.0 1.7364e-05
18450.0 1.7302e-05
18470.0 1.7243e-05
18490.0 1.7185e-05
18510.0 1.7124e-05
18530.0 1.7063e-05
18550.0 1.7005e-05
18570.0 1.6945e-05
18590.0 1.6883e-05
18610.0 1.6823e-05
18630.0 1.6764e-05
18650.0 1.6702e-05
18670.0 1.6641e-05
18690.0 1.6582e-05
18710.0 1.6522e-05
18730.0 1.646e-05
18750.0 1.6401e-05
18770.0 1.6341e-05
18790.0 1.6279e-05
18810.0 1.6218e-05
18830.0 1.6158e-05
18850.0 1.6097e-05
18870.0 1.6035e-05
18890.0 1.5976e-05
18910.0 1.5916e-05
18930.0 1.5854e-05
18950.0 1.5793e-05
18970.0 1.5734e-05
18990.0 1.5673e-05
19010.0 1.5609e-05
19030.0 1.555e-05
19050.0 1.549e-05
19070.0 1.5428e-05
19090.0 1.5367e-05
19110.0 1.5308e-05
19130.0 1.5246e-05
19150.0 1.5184e-05
19170.0 1.5124e-05
19190.0 1.5064e-05
19210.0 1.5002e-05
19230.0 1.494e-05
19250.0 1.4881e-05
19270.0 1.482e-05
19290.0 1.4758e-05
19310.0 1.4699e-05
19330.0 1.4639e-05
19350.0 1.4576e-05
19370.0 1.4515e-05
19390.0 1.4455e-05
19410.0 1.4394e-05
19430.0 1.4332e-05
19450.0 1.4273e-05
19470.0 1.4213e-05
19490.0 1.4151e-05
19510.0 1.409e-05
19530.0 1.4031e-05
19550.0 1.3969e-05
19570.0 1.3907e-05
19590.0 1.3848e-05
19610.0 1.3788e-05
19630.0 1.3726e-05
19650.0 1.3666e-05
19670.0 1.3607e-05
19690.0 1.3545e-05
19710.0 1.3484e-05
19730.0 1.3425e-05
19750.0 1.3365e-05
19770.0 1.3302e-05
19790.0 1.3243e-05
19810.0 1.3183e-05
19830.0 1.3122e-05
19850.0 1.3061e-05
19870.0 1.3e-05
19890.0 1.2935e-05
19910.0 1.2864e-05
19930.0 1.2787e-05
19950.0 1.27e-05
19970.0 1.2593e-05
19990.0 1.2463e-05
20010.0 1.1088e-05
20030.0 1.0928e-05
20050.0 1.074e-05
20070.0 1.0537e-05
20090.0 1.0318e-05
20110.0 1.007e-05
20130.0 9.8194e-06
20150.0 9.571e-06
20170.0 9.3134e-06
20190.0 9.0521e-06
20210.0 8.8053e-06
20230.0 8.5647e-06
20250.0 8.3235e-06
20270.0 8.0996e-06
20290.0 7.8952e-06
20310.0 7.701e-06
20330.0 7.5195e-06
20350.0 7.3688e-06
20370.0 7.2351e-06
20390.0 7.1178e-06
20410.0 7.0231e-06
20430.0 6.9501e-06
20450.0 6.8922e-06
20470.0 6.8535e-06
20490.0 6.8327e-06
20510.0 6.8267e-06
20530.0 6.8351e-06
20550.0 6.8562e-06
20570.0 6.8869e-06
20590.0 6.9285e-06
20610.0 6.9788e-06
20630.0 7.0343e-06
20650.0 7.0963e-06
20670.0 7.1672e-06
20690.0 7.2394e-06
20710.0 7.3142e-06
20730.0 7.3948e-06
20750.0 7.4789e-06
20770.0 7.5617e-06
20790.0 7.6486e-06
20810.0 7.7405e-06
20830.0 7.832e-06
20850.0 7.9239e-06
20870.0 8.0223e-06
20890.0 8.1226e-06
20910.0 8.2194e-06
20930.0 8.3198e-06
20950.0 8.4238e-06
20970.0 8.5252e-06
20990.0 8.6253e-06
21010.0 8.7305e-06
21030.0 8.8334e-06
21050.0 8.9316e-06
21070.0 9.0296e-06
21090.0 9.1279e-06
21110.0 9.2176e-06
21130.0 9.3018e-06
21150.0 9.3835e-06
21170.0 9.4573e-06
21190.0 9.5209e-06
21210.0 9.5781e-06
21230.0 9.6257e-06
21250.0 9.6596e-06
21270.0 9.6811e-06
21290.0 9.6891e-06
21310.0 9.6814e-06
21330.0 9.6586e-06
21350.0 9.6185e-06
21370.0 9.5596e-06
21390.0 9.4847e-06
21410.0 9.3931e-06
21430.0 9.277e-06
21450.0 9.1467e-06
21470.0 9.0048e-06
21490.0 8.8443e-06
21510.0 8.6682e-06
21530.0 8.4893e-06
21550.0 8.3019e-06
21570.0 8.102e-06
21590.0 7.9055e-06
21610.0 7.7156e-06
21630.0 7.5254e-06
21650.0 7.3396e-06
21670.0 7.1786e-06
21690.0 7.0301e-06
21710.0 6.8964e-06
21730.0 6.7869e-06
21750.0 6.7024e-06
21770.0 6.638e-06
21790.0 6.6009e-06
21810.0 6.5907e-06
21830.0 6.6053e-06
21850.0 6.6466e-06
21870.0 6.711e-06
21890.0 6.7941e-06
21910.0 6.9008e-06
21930.0 7.026e-06
21950.0 7.1615e-06
21970.0 7.3117e-06
21990.0 7.4803e-06
22010.0 7.6487e-06
22030.0 7.8198e-06
22050.0 7.9995e-06
22070.0 8.1801e-06
22090.0 8.3512e-06
22110.0 8.5236e-06
22130.0 8.6958e-06
22150.0 8.8566e-06
22170.0 9.0082e-06
22190.0 9.1584e-06
22210.0 9.2982e-06
22230.0 9.4213e-06
22250.0 9.5371e-06
22270.0 9.6438e-06
22290.0 9.735e-06
22310.0 9.8132e-06
22330.0 9.8821e-06
22350.0 9.9354e-06
22370.0 9.973e-06
22390.0 9.9965e-06
22410.0 1.0004e-05
22430.0 9.9944e-06
22450.0 9.9686e-06
22470.0 9.9241e-06
22490.0 9.8616e-06
22510.0 9.7837e-06
22530.0 9.6841e-06
22550.0 9.5629e-06
22570.0 9.4284e-06
22590.0 9.2768e-06
22610.0 9.1023e-06
