#lamb flux
1010.0 8.618e-05
1030.0 9.7008e-05
1050.0 0.00010821
1070.0 0.00012088
1090.0 0.00013571
1110.0 0.00015097
1130.0 0.00016642
1150.0 0.00018272
1170.0 0.00019973
1190.0 0.0002162
1210.0 0.00023325
1230.0 0.00025127
1250.0 0.00026941
1270.0 0.00028766
1290.0 0.00030746
1310.0 0.00032794
1330.0 0.00034841
1350.0 0.00036973
1370.0 0.00039225
1390.0 0.00041493
1410.0 0.00043759
1430.0 0.00046147
1450.0 0.00048571
1470.0 0.00050958
1490.0 0.0005338
1510.0 0.00055914
1530.0 0.00058341
1550.0 0.00060729
1570.0 0.00063158
1590.0 0.00065557
1610.0 0.00067823
1630.0 0.00070079
1650.0 0.00072325
1670.0 0.00074432
1690.0 0.00076434
1710.0 0.00078422
1730.0 0.00080328
1750.0 0.00082015
1770.0 0.00083656
1790.0 0.00085233
1810.0 0.00086642
1830.0 0.00087917
1850.0 0.00089207
1870.0 0.00090351
1890.0 0.00091341
1910.0 0.00092284
1930.0 0.00093192
1950.0 0.00093941
1970.0 0.000946
1990.0 0.0009526
2010.0 0.00095824
2030.0 0.00096261
2050.0 0.00096683
2070.0 0.00097074
2090.0 0.00097289
2110.0 0.00097417
2130.0 0.00097501
2150.0 0.00097454
2170.0 0.00097233
2190.0 0.00096953
2210.0 0.00096561
2230.0 0.00095982
2250.0 0.00095269
2270.0 0.00094484
2290.0 0.00093522
2310.0 0.00092375
2330.0 0.00091142
2350.0 0.00089792
2370.0 0.00088269
2390.0 0.00086638
2410.0 0.00084931
2430.0 0.00083052
2450.0 0.00081007
2470.0 0.00078826
2490.0 0.00076492
2510.0 0.00074017
2530.0 0.00071574
2550.0 0.00069409
2570.0 0.00067833
2590.0 0.00067172
2610.0 0.00068093
2630.0 0.00070784
2650.0 0.00074891
2670.0 0.00080394
2690.0 0.00086887
2710.0 0.00092926
2730.0 0.00097727
2750.0 0.0010114
2770.0 0.0010211
2790.0 0.001004
2810.0 0.00096257
2830.0 0.0008965
2850.0 0.00081214
2870.0 0.00071444
2890.0 0.00060446
2910.0 0.00048733
2930.0 0.00036908
2950.0 0.00024528
2970.0 0.0001176
2990.0 5.8788e-05
3010.0 0.00012975
3030.0 0.00012975
3050.0 0.00012975
3070.0 0.00012975
3090.0 0.00012975
3110.0 0.00012975
3130.0 0.00012975
3150.0 0.00012975
3170.0 0.00012975
3190.0 0.00012975
3210.0 0.00012975
3230.0 0.0035333
3250.0 0.007024
3270.0 0.0070278
3290.0 0.0075727
3310.0 0.0059629
3330.0 0.0059571
3350.0 0.0066116
3370.0 0.00755
3390.0 0.0086087
3410.0 0.0097423
3430.0 0.011188
3450.0 0.012655
3470.0 0.014188
3490.0 0.015031
3510.0 0.014619
3530.0 0.014807
3550.0 0.015609
3570.0 0.01572
3590.0 0.016761
3610.0 0.016037
3630.0 0.019853
3650.0 0.022273
3670.0 0.023791
3690.0 0.022473
3710.0 0.018492
3730.0 0.017359
3750.0 0.015656
3770.0 0.014461
3790.0 0.013121
3810.0 0.012677
3830.0 0.014572
3850.0 0.0064031
3870.0 0.011775
3890.0 0.013912
3910.0 0.015665
3930.0 0.019489
3950.0 0.021186
3970.0 0.024705
3990.0 0.030286
4010.0 0.022767
4030.0 0.018863
4050.0 0.014315
4070.0 0.014723
4090.0 0.023109
4110.0 0.021928
4130.0 0.023641
4150.0 0.022268
4170.0 0.021202
4190.0 0.019287
4210.0 0.028007
4230.0 0.029198
4250.0 0.031755
4270.0 0.02981
4290.0 0.030099
4310.0 0.033775
4330.0 0.039749
4350.0 0.039898
4370.0 0.038851
4390.0 0.034748
4410.0 0.032347
4430.0 0.025408
4450.0 0.021262
4470.0 0.023691
4490.0 0.028239
4510.0 0.029246
4530.0 0.030128
4550.0 0.031265
4570.0 0.044265
4590.0 0.065449
4610.0 0.076936
4630.0 0.077154
4650.0 0.080793
4670.0 0.092522
4690.0 0.10109
4710.0 0.083277
4730.0 0.063454
4750.0 0.050382
4770.0 0.044497
4790.0 0.041709
4810.0 0.039773
4830.0 0.043943
4850.0 0.050917
4870.0 0.055567
4890.0 0.057972
4910.0 0.053408
4930.0 0.056852
4950.0 0.070141
4970.0 0.083589
4990.0 0.087315
5010.0 0.080551
5030.0 0.066948
5050.0 0.051034
5070.0 0.040341
5090.0 0.036185
5110.0 0.035394
5130.0 0.036122
5150.0 0.036005
5170.0 0.034453
5190.0 0.032554
5210.0 0.031828
5230.0 0.035697
5250.0 0.041388
5270.0 0.049338
5290.0 0.056984
5310.0 0.060321
5330.0 0.065495
5350.0 0.072864
5370.0 0.076981
5390.0 0.070214
5410.0 0.062403
5430.0 0.060573
5450.0 0.070393
5470.0 0.087782
5490.0 0.10349
5510.0 0.11087
5530.0 0.10961
5550.0 0.10478
5570.0 0.10185
5590.0 0.098801
5610.0 0.097931
5630.0 0.097668
5650.0 0.098028
5670.0 0.097702
5690.0 0.090209
5710.0 0.076189
5730.0 0.067923
5750.0 0.064566
5770.0 0.066107
5790.0 0.068757
5810.0 0.072201
5830.0 0.074028
5850.0 0.070915
5870.0 0.066779
5890.0 0.064277
5910.0 0.066564
5930.0 0.070347
5950.0 0.066824
5970.0 0.059655
5990.0 0.05014
6010.0 0.040719
6030.0 0.036986
6050.0 0.039604
6070.0 0.04249
6090.0 0.041373
6110.0 0.036521
6130.0 0.036876
6150.0 0.042671
6170.0 0.049545
6190.0 0.055184
6210.0 0.055924
6230.0 0.054758
6250.0 0.050154
6270.0 0.042275
6290.0 0.035047
6310.0 0.030857
6330.0 0.029921
6350.0 0.030633
6370.0 0.030814
6390.0 0.033905
6410.0 0.041904
6430.0 0.052553
6450.0 0.060323
6470.0 0.062669
6490.0 0.061784
6510.0 0.063152
6530.0 0.065557
6550.0 0.064988
6570.0 0.06738
6590.0 0.068718
6610.0 0.069941
6630.0 0.069535
6650.0 0.06562
6670.0 0.060009
6690.0 0.053901
6710.0 0.050428
6730.0 0.050298
6750.0 0.051979
6770.0 0.053536
6790.0 0.055033
6810.0 0.056009
6830.0 0.054871
6850.0 0.052545
6870.0 0.049296
6890.0 0.048136
6910.0 0.04616
6930.0 0.047586
6950.0 0.050818
6970.0 0.052298
6990.0 0.05352
7010.0 0.052228
7030.0 0.048181
7050.0 0.042528
7070.0 0.037311
7090.0 0.03415
7110.0 0.033707
7130.0 0.033622
7150.0 0.030572
7170.0 0.028803
7190.0 0.030925
7210.0 0.035279
7230.0 0.040868
7250.0 0.043755
7270.0 0.043649
7290.0 0.040171
7310.0 0.036825
7330.0 0.034977
7350.0 0.034956
7370.0 0.0357
7390.0 0.03727
7410.0 0.041028
7430.0 0.047588
7450.0 0.054204
7470.0 0.057839
7490.0 0.05725
7510.0 0.05371
7530.0 0.045598
7550.0 0.040798
7570.0 0.035916
7590.0 0.033528
7610.0 0.034667
7630.0 0.037939
7650.0 0.042247
7670.0 0.046363
7690.0 0.049048
7710.0 0.052084
7730.0 0.055337
7750.0 0.058139
7770.0 0.05751
7790.0 0.057682
7810.0 0.058887
7830.0 0.059221
7850.0 0.057359
7870.0 0.05518
7890.0 0.054869
7910.0 0.052627
7930.0 0.051818
7950.0 0.049058
7970.0 0.047838
7990.0 0.04628
8010.0 0.047568
8030.0 0.047895
8050.0 0.048305
8070.0 0.047747
8090.0 0.047443
8110.0 0.045539
8130.0 0.045353
8150.0 0.044617
8170.0 0.043383
8190.0 0.042507
8210.0 0.042484
8230.0 0.041251
8250.0 0.040063
8270.0 0.035903
8290.0 0.029069
8310.0 0.021653
8330.0 0.016503
8350.0 0.015287
8370.0 0.018269
8390.0 0.022245
8410.0 0.024204
8430.0 0.025018
8450.0 0.026248
8470.0 0.027951
8490.0 0.031251
8510.0 0.035663
8530.0 0.041202
8550.0 0.046704
8570.0 0.051408
8590.0 0.055066
8610.0 0.057311
8630.0 0.057742
8650.0 0.057352
8670.0 0.057332
8690.0 0.059959
8710.0 0.063359
8730.0 0.065825
8750.0 0.065489
8770.0 0.066278
8790.0 0.065859
8810.0 0.061677
8830.0 0.058432
8850.0 0.054002
8870.0 0.050403
8890.0 0.049066
8910.0 0.049295
8930.0 0.046639
8950.0 0.043781
8970.0 0.042604
8990.0 0.042124
9010.0 0.040489
9030.0 0.039574
9050.0 0.039261
9070.0 0.039116
9090.0 0.038989
9110.0 0.038867
9130.0 0.038743
9150.0 0.038621
9170.0 0.038478
9190.0 0.038363
9210.0 0.038435
9230.0 0.03824
9250.0 0.03808
9270.0 0.037938
9290.0 0.037809
9310.0 0.037683
9330.0 0.037562
9350.0 0.037449
9370.0 0.037336
9390.0 0.037221
9410.0 0.03711
9430.0 0.036996
9450.0 0.03684
9470.0 0.036699
9490.0 0.036631
9510.0 0.036541
9530.0 0.036445
9550.0 0.036346
9570.0 0.036245
9590.0 0.036141
9610.0 0.036037
9630.0 0.035933
9650.0 0.035829
9670.0 0.035725
9690.0 0.035621
9710.0 0.035518
9730.0 0.035415
9750.0 0.035311
9770.0 0.035209
9790.0 0.035106
9810.0 0.035002
9830.0 0.034899
9850.0 0.034797
9870.0 0.034692
9890.0 0.034588
9910.0 0.034483
9930.0 0.034374
9950.0 0.033988
9970.0 0.033965
9990.0 0.033925
10010.0 0.033875
10030.0 0.033801
10050.0 0.033708
10070.0 0.03361
10090.0 0.033513
10110.0 0.033397
10130.0 0.033289
10150.0 0.033179
10170.0 0.033059
10190.0 0.032929
10210.0 0.032811
10230.0 0.032695
10250.0 0.032567
10270.0 0.032439
10290.0 0.032319
10310.0 0.032188
10330.0 0.032046
10350.0 0.031916
10370.0 0.031784
10390.0 0.03164
10410.0 0.031495
10430.0 0.031361
10450.0 0.031214
10470.0 0.031058
10490.0 0.030911
10510.0 0.030762
10530.0 0.030593
10550.0 0.030429
10570.0 0.030273
10590.0 0.030105
10610.0 0.029928
10630.0 0.029761
10650.0 0.02959
10670.0 0.029401
10690.0 0.029216
10710.0 0.029036
10730.0 0.028842
10750.0 0.028636
10770.0 0.028446
10790.0 0.028249
10810.0 0.028037
10830.0 0.027828
10850.0 0.027626
10870.0 0.0274
10890.0 0.027169
10910.0 0.026944
10930.0 0.026708
10950.0 0.02645
10970.0 0.026187
10990.0 0.025924
11010.0 0.026754
11030.0 0.02643
11050.0 0.026116
11070.0 0.025796
11090.0 0.025457
11110.0 0.025146
11130.0 0.02485
11150.0 0.024549
11170.0 0.024256
11190.0 0.023987
11210.0 0.023714
11230.0 0.023437
11250.0 0.023173
11270.0 0.022917
11290.0 0.022649
11310.0 0.022382
11330.0 0.022133
11350.0 0.021875
11370.0 0.021608
11390.0 0.021346
11410.0 0.021084
11430.0 0.020796
11450.0 0.020503
11470.0 0.020209
11490.0 0.019893
11510.0 0.01955
11530.0 0.019208
11550.0 0.018854
11570.0 0.018471
11590.0 0.018079
11610.0 0.017691
11630.0 0.017279
11650.0 0.016852
11670.0 0.016443
11690.0 0.016036
11710.0 0.015618
11730.0 0.015213
11750.0 0.014833
11770.0 0.014449
11790.0 0.014073
11810.0 0.013723
11830.0 0.013387
11850.0 0.013047
11870.0 0.012732
11890.0 0.01244
11910.0 0.012152
11930.0 0.011872
11950.0 0.011614
11970.0 0.011363
11990.0 0.011113
12010.0 0.01088
12030.0 0.010661
12050.0 0.010447
12070.0 0.01024
12090.0 0.010057
12110.0 0.0098838
12130.0 0.0097207
12150.0 0.0095766
12170.0 0.0094521
12190.0 0.0093389
12210.0 0.0092461
12230.0 0.0091752
12250.0 0.0091229
12270.0 0.0090903
12290.0 0.0090786
12310.0 0.0090856
12330.0 0.0091133
12350.0 0.0091607
12370.0 0.0092236
12390.0 0.0093046
12410.0 0.0094088
12430.0 0.0095217
12450.0 0.0096459
12470.0 0.0097867
12490.0 0.0099368
12510.0 0.010085
12530.0 0.010242
12550.0 0.010404
12570.0 0.010556
12590.0 0.010698
12610.0 0.010836
12630.0 0.010957
12650.0 0.011051
12670.0 0.011128
12690.0 0.011181
12710.0 0.011206
12730.0 0.011205
12750.0 0.011178
12770.0 0.011123
12790.0 0.011046
12810.0 0.010947
12830.0 0.010826
12850.0 0.010693
12870.0 0.010551
12890.0 0.010396
12910.0 0.010238
12930.0 0.010083
12950.0 0.0099239
12970.0 0.0097652
12990.0 0.0096172
13010.0 0.009474
13030.0 0.0093325
13050.0 0.0091981
13070.0 0.0090724
13090.0 0.0089465
13110.0 0.008823
13130.0 0.0087054
13150.0 0.0085894
13170.0 0.00847
13190.0 0.0083552
13210.0 0.0082447
13230.0 0.0081335
13250.0 0.0080246
13270.0 0.0079237
13290.0 0.0078273
13310.0 0.0077357
13330.0 0.0076557
13350.0 0.0075872
13370.0 0.0075287
13390.0 0.0074823
13410.0 0.0074492
13430.0 0.0074261
13450.0 0.007412
13470.0 0.0074045
13490.0 0.0074002
13510.0 0.007397
13530.0 0.0073905
13550.0 0.0073776
13570.0 0.007356
13590.0 0.0073227
13610.0 0.0072776
13630.0 0.0072213
13650.0 0.0071506
13670.0 0.0070687
13690.0 0.00698
13710.0 0.0068829
13730.0 0.0067766
13750.0 0.0066737
13770.0 0.0065722
13790.0 0.0064708
13810.0 0.0063751
13830.0 0.0062893
13850.0 0.0062085
13870.0 0.0061347
13890.0 0.0060716
13910.0 0.0060167
13930.0 0.0059676
13950.0 0.0059257
13970.0 0.0058909
13990.0 0.0058596
14010.0 0.0058313
14030.0 0.0058058
14050.0 0.0057813
14070.0 0.0057558
14090.0 0.0057296
14110.0 0.005702
14130.0 0.0056712
14150.0 0.0056364
14170.0 0.0055996
14190.0 0.0055595
14210.0 0.0055147
14230.0 0.0054679
14250.0 0.0054205
14270.0 0.0053702
14290.0 0.0053191
14310.0 0.0052715
14330.0 0.005226
14350.0 0.0051826
14370.0 0.0051443
14390.0 0.0051119
14410.0 0.0050836
14430.0 0.0050608
14450.0 0.0050439
14470.0 0.0050319
14490.0 0.0050242
14510.0 0.0050208
14530.0 0.0050209
14550.0 0.0050242
14570.0 0.0050305
14590.0 0.0050393
14610.0 0.0050513
14630.0 0.0050674
14650.0 0.0050868
14670.0 0.0051101
14690.0 0.005139
14710.0 0.0051738
14730.0 0.0052118
14750.0 0.0052561
14770.0 0.0053076
14790.0 0.005364
14810.0 0.005425
14830.0 0.0054971
14850.0 0.0055757
14870.0 0.0056586
14890.0 0.0057494
14910.0 0.0058483
14930.0 0.0059464
14950.0 0.0060412
14970.0 0.0061343
14990.0 0.0062162
15010.0 0.0062827
15030.0 0.0063359
15050.0 0.0063758
15070.0 0.0064012
15090.0 0.0064177
15110.0 0.006428
15130.0 0.0064342
15150.0 0.0064383
15170.0 0.0064412
15190.0 0.0064437
15210.0 0.0064462
15230.0 0.0064487
15250.0 0.0064512
15270.0 0.0064538
15290.0 0.0064566
15310.0 0.0064595
15330.0 0.0064625
15350.0 0.0064656
15370.0 0.0064689
15390.0 0.0064721
15410.0 0.0064754
15430.0 0.006479
15450.0 0.0064825
15470.0 0.0064861
15490.0 0.0064899
15510.0 0.0064938
15530.0 0.0064976
15550.0 0.0065016
15570.0 0.0065057
15590.0 0.0065097
15610.0 0.0065138
15630.0 0.006518
15650.0 0.0065223
15670.0 0.0065266
15690.0 0.006531
15710.0 0.0065355
15730.0 0.0065399
15750.0 0.0065443
15770.0 0.0065489
15790.0 0.0065534
15810.0 0.0065579
15830.0 0.0065625
15850.0 0.0065672
15870.0 0.0065718
15890.0 0.0065764
15910.0 0.0065811
15930.0 0.0065858
15950.0 0.0065904
15970.0 0.006595
15990.0 0.0065997
16010.0 0.0066043
16030.0 0.0066089
16050.0 0.0066135
16070.0 0.0066181
16090.0 0.0066226
16110.0 0.0066271
16130.0 0.0066317
16150.0 0.006636
16170.0 0.0066404
16190.0 0.0066448
16210.0 0.0066491
16230.0 0.0066532
16250.0 0.0066574
16270.0 0.0066616
16290.0 0.0066656
16310.0 0.0066695
16330.0 0.0066735
16350.0 0.0066773
16370.0 0.0066809
16390.0 0.0066846
16410.0 0.0066882
16430.0 0.0066915
16450.0 0.0066949
16470.0 0.0066982
16490.0 0.0067012
16510.0 0.0067042
16530.0 0.0067071
16550.0 0.0067099
16570.0 0.0067124
16590.0 0.0067149
16610.0 0.0067173
16630.0 0.0067195
16650.0 0.0067215
16670.0 0.0067235
16690.0 0.0067253
16710.0 0.0067268
16730.0 0.0067283
16750.0 0.0067296
16770.0 0.0067307
16790.0 0.0067315
16810.0 0.0067324
16830.0 0.006733
16850.0 0.0067333
16870.0 0.0067335
16890.0 0.0067336
16910.0 0.0067333
16930.0 0.0067329
16950.0 0.0067323
16970.0 0.0067316
16990.0 0.0067305
17010.0 0.0067293
17030.0 0.0067279
17050.0 0.0067262
17070.0 0.0067243
17090.0 0.0067222
17110.0 0.0067199
17130.0 0.0067173
17150.0 0.0067145
17170.0 0.0067115
17190.0 0.0067082
17210.0 0.0067046
17230.0 0.006701
17250.0 0.006697
17270.0 0.0066926
17290.0 0.0066881
17310.0 0.0066834
17330.0 0.0066783
17350.0 0.006673
17370.0 0.0066676
17390.0 0.0066618
17410.0 0.0066557
17430.0 0.0066494
17450.0 0.0066429
17470.0 0.006636
17490.0 0.0066288
17510.0 0.0066215
17530.0 0.0066139
17550.0 0.0066059
17570.0 0.0065978
17590.0 0.0065894
17610.0 0.0065806
17630.0 0.0065716
17650.0 0.0065625
17670.0 0.0065529
17690.0 0.006543
17710.0 0.0065331
17730.0 0.0065228
17750.0 0.0065122
17770.0 0.0065013
17790.0 0.0064903
17810.0 0.0064789
17830.0 0.0064672
17850.0 0.0064553
17870.0 0.0064432
17890.0 0.0064307
17910.0 0.006418
17930.0 0.0064052
17950.0 0.006392
17970.0 0.0063785
17990.0 0.0063649
18010.0 0.006351
18030.0 0.0063367
18050.0 0.0063223
18070.0 0.0063077
18090.0 0.0062928
18110.0 0.0062776
18130.0 0.0062623
18150.0 0.0062468
18170.0 0.0062309
18190.0 0.0062149
18210.0 0.0061987
18230.0 0.0061822
18250.0 0.0061654
18270.0 0.0061486
18290.0 0.0061315
18310.0 0.0061141
18330.0 0.0060966
18350.0 0.006079
18370.0 0.0060611
18390.0 0.006043
18410.0 0.0060247
18430.0 0.0060063
18450.0 0.0059876
18470.0 0.0059688
18490.0 0.0059499
18510.0 0.0059307
18530.0 0.0059114
18550.0 0.005892
18570.0 0.0058724
18590.0 0.0058526
18610.0 0.0058327
18630.0 0.0058127
18650.0 0.0057925
18670.0 0.0057721
18690.0 0.0057518
18710.0 0.0057312
18730.0 0.0057105
18750.0 0.0056897
18770.0 0.0056689
18790.0 0.0056478
18810.0 0.0056267
18830.0 0.0056055
18850.0 0.0055842
18870.0 0.0055628
18890.0 0.0055413
18910.0 0.0055198
18930.0 0.0054982
18950.0 0.0054764
18970.0 0.0054547
18990.0 0.0054329
19010.0 0.0054109
19030.0 0.005389
19050.0 0.0053671
19070.0 0.005345
19090.0 0.0053229
19110.0 0.0053009
19130.0 0.0052787
19150.0 0.0052565
19170.0 0.0052343
19190.0 0.0052121
19210.0 0.0051898
19230.0 0.0051675
19250.0 0.0051453
19270.0 0.005123
19290.0 0.0051007
19310.0 0.0050784
19330.0 0.0050562
19350.0 0.0050338
19370.0 0.0050116
19390.0 0.0049894
19410.0 0.0049671
19430.0 0.0049449
19450.0 0.0049228
19470.0 0.0049006
19490.0 0.0048785
19510.0 0.0048564
19530.0 0.0048344
19550.0 0.0048123
19570.0 0.0047903
19590.0 0.0047684
19610.0 0.0047466
19630.0 0.0047247
19650.0 0.004703
19670.0 0.0046813
19690.0 0.0046596
19710.0 0.004638
19730.0 0.0046165
19750.0 0.004595
19770.0 0.0045736
19790.0 0.0045523
19810.0 0.004531
19830.0 0.0045097
19850.0 0.0044882
19870.0 0.0044665
19890.0 0.004444
19910.0 0.0044197
19930.0 0.004393
19950.0 0.0043625
19970.0 0.0043259
19990.0 0.0042821
20010.0 0.0042322
20030.0 0.0041734
20050.0 0.0041063
20070.0 0.0040346
20090.0 0.0039593
20110.0 0.0038775
20130.0 0.0037966
20150.0 0.003718
20170.0 0.003639
20190.0 0.0035607
20210.0 0.0034873
20230.0 0.0034163
20250.0 0.0033457
20270.0 0.0032793
20290.0 0.0032169
20310.0 0.0031558
20330.0 0.0030961
20350.0 0.0030421
20370.0 0.0029901
20390.0 0.0029393
20410.0 0.0028917
20430.0 0.0028475
20450.0 0.002804
20470.0 0.002763
20490.0 0.0027254
20510.0 0.00269
20530.0 0.0026562
20550.0 0.0026256
20570.0 0.002598
20590.0 0.0025723
20610.0 0.0025491
20630.0 0.0025287
20650.0 0.0025106
20670.0 0.0024944
20690.0 0.0024808
20710.0 0.0024691
20730.0 0.0024593
20750.0 0.0024512
20770.0 0.0024444
20790.0 0.0024388
20810.0 0.0024345
20830.0 0.0024307
20850.0 0.0024272
20870.0 0.0024244
20890.0 0.0024215
20910.0 0.002418
20930.0 0.0024141
20950.0 0.0024097
20970.0 0.0024041
20990.0 0.0023975
21010.0 0.0023898
21030.0 0.0023806
21050.0 0.0023701
21070.0 0.0023581
21090.0 0.0023444
21110.0 0.0023295
21130.0 0.0023133
21150.0 0.0022955
21170.0 0.0022765
21190.0 0.0022568
21210.0 0.0022357
21230.0 0.0022133
21250.0 0.0021907
21270.0 0.0021676
21290.0 0.0021435
21310.0 0.0021191
21330.0 0.0020953
21350.0 0.0020709
21370.0 0.0020464
21390.0 0.0020228
21410.0 0.0019997
21430.0 0.0019763
21450.0 0.0019544
21470.0 0.0019338
21490.0 0.0019141
21510.0 0.0018955
21530.0 0.0018789
21550.0 0.0018637
21570.0 0.0018499
21590.0 0.0018381
21610.0 0.0018282
21630.0 0.00182
21650.0 0.0018138
21670.0 0.0018092
21690.0 0.0018063
21710.0 0.0018052
21730.0 0.0018054
21750.0 0.0018065
21770.0 0.0018092
21790.0 0.0018128
21810.0 0.0018167
21830.0 0.0018212
21850.0 0.0018262
21870.0 0.0018309
21890.0 0.0018351
21910.0 0.0018394
21930.0 0.0018432
21950.0 0.001846
21970.0 0.0018481
21990.0 0.0018498
22010.0 0.0018502
22030.0 0.0018497
22050.0 0.0018484
22070.0 0.0018463
22090.0 0.0018431
22110.0 0.0018393
22130.0 0.0018347
22150.0 0.0018295
22170.0 0.0018236
22190.0 0.0018172
22210.0 0.0018101
22230.0 0.0018027
22250.0 0.0017948
22270.0 0.0017863
22290.0 0.0017773
22310.0 0.0017679
22330.0 0.0017577
22350.0 0.0017469
22370.0 0.0017355
22390.0 0.0017232
22410.0 0.0017098
22430.0 0.0016958
22450.0 0.0016808
22470.0 0.0016645
22490.0 0.0016472
22510.0 0.0016293
22530.0 0.0016098
22550.0 0.0015889
22570.0 0.0015679
22590.0 0.0015461
22610.0 0.001523
22630.0 0.0014997
22650.0 0.001477
22670.0 0.0014534
22690.0 0.0014297
22710.0 0.0014069
22730.0 0.0013847
22750.0 0.0013621
22770.0 0.001341
22790.0 0.0013213
22810.0 0.0013022
22830.0 0.0012841
22850.0 0.0012678
22870.0 0.0012524
22890.0 0.0012377
22910.0 0.0012245
22930.0 0.0012125
22950.0 0.0012012
22970.0 0.0011907
22990.0 0.0011814
23010.0 0.0011726
23030.0 0.0011641
23050.0 0.0011562
23070.0 0.0011486
23090.0 0.0011409
23110.0 0.0011333
23130.0 0.0011257
23150.0 0.001118
23170.0 0.0011098
23190.0 0.0011016
23210.0 0.0010933
23230.0 0.0010846
23250.0 0.0010757
23270.0 0.0010669
23290.0 0.0010581
23310.0 0.001049
23330.0 0.0010404
23350.0 0.0010321
23370.0 0.0010238
23390.0 0.0010159
23410.0 0.0010084
23430.0 0.0010012
23450.0 0.00099406
23470.0 0.00098734
23490.0 0.00098086
23510.0 0.00097435
23530.0 0.000968
23550.0 0.00096194
23570.0 0.00095582
23590.0 0.00094968
23610.0 0.00094373
23630.0 0.00093787
23650.0 0.00093191
23670.0 0.00092617
23690.0 0.00092074
23710.0 0.00091549
23730.0 0.00091055
23750.0 0.00090623
23770.0 0.00090248
23790.0 0.00089942
23810.0 0.00089727
23830.0 0.0008961
23850.0 0.00089613
23870.0 0.00089757
23890.0 0.00090028
23910.0 0.00090444
23930.0 0.00091038
23950.0 0.00091775
23970.0 0.00092617
23990.0 0.00093637
24010.0 0.00094797
24030.0 0.00096019
24050.0 0.00097331
24070.0 0.00098805
24090.0 0.0010027
24110.0 0.0010173
24130.0 0.0010326
24150.0 0.0010482
24170.0 0.0010631
