#lamb flux
1010.0 1.7405e-06
1030.0 1.9051e-06
1050.0 2.0756e-06
1070.0 2.2675e-06
1090.0 2.4909e-06
1110.0 2.7191e-06
1130.0 2.9481e-06
1150.0 3.1878e-06
1170.0 3.4355e-06
1190.0 3.6717e-06
1210.0 3.9132e-06
1230.0 4.1658e-06
1250.0 4.4158e-06
1270.0 4.6633e-06
1290.0 4.9291e-06
1310.0 5.2001e-06
1330.0 5.4659e-06
1350.0 5.7391e-06
1370.0 6.0245e-06
1390.0 6.3066e-06
1410.0 6.5834e-06
1430.0 6.8723e-06
1450.0 7.1611e-06
1470.0 7.4397e-06
1490.0 7.7184e-06
1510.0 8.008e-06
1530.0 8.2788e-06
1550.0 8.5405e-06
1570.0 8.8047e-06
1590.0 9.0622e-06
1610.0 9.3e-06
1630.0 9.5354e-06
1650.0 9.769e-06
1670.0 9.9852e-06
1690.0 1.0189e-05
1710.0 1.0395e-05
1730.0 1.0593e-05
1750.0 1.0769e-05
1770.0 1.0946e-05
1790.0 1.1122e-05
1810.0 1.1286e-05
1830.0 1.1444e-05
1850.0 1.1616e-05
1870.0 1.1782e-05
1890.0 1.1943e-05
1910.0 1.2115e-05
1930.0 1.2298e-05
1950.0 1.2479e-05
1970.0 1.2667e-05
1990.0 1.2873e-05
2010.0 1.3087e-05
2030.0 1.3303e-05
2050.0 1.3537e-05
2070.0 1.3785e-05
2090.0 1.4029e-05
2110.0 1.4279e-05
2130.0 1.454e-05
2150.0 1.4799e-05
2170.0 1.505e-05
2190.0 1.5306e-05
2210.0 1.5561e-05
2230.0 1.58e-05
2250.0 1.6031e-05
2270.0 1.6262e-05
2290.0 1.6475e-05
2310.0 1.6667e-05
2330.0 1.6853e-05
2350.0 1.7028e-05
2370.0 1.7179e-05
2390.0 1.7319e-05
2410.0 1.7456e-05
2430.0 1.7572e-05
2450.0 1.767e-05
2470.0 1.7762e-05
2490.0 1.7849e-05
2510.0 1.7926e-05
2530.0 1.8039e-05
2550.0 1.8259e-05
2570.0 1.8662e-05
2590.0 1.9345e-05
2610.0 2.0543e-05
2630.0 2.2333e-05
2650.0 2.463e-05
2670.0 2.747e-05
2690.0 3.0742e-05
2710.0 3.3946e-05
2730.0 3.6783e-05
2750.0 3.916e-05
2770.0 4.0665e-05
2790.0 4.1177e-05
2810.0 4.0764e-05
2830.0 3.9406e-05
2850.0 3.7377e-05
2870.0 3.4861e-05
2890.0 3.1902e-05
2910.0 2.8703e-05
2930.0 2.5489e-05
2950.0 2.2081e-05
2970.0 1.8543e-05
2990.0 1.5064e-05
3010.0 1.8308e-05
3030.0 1.2555e-05
3050.0 6.7722e-06
3070.0 2.0248e-06
3090.0 2.0248e-06
3110.0 2.0248e-06
3130.0 2.0248e-06
3150.0 2.0248e-06
3170.0 2.0248e-06
3190.0 2.0248e-06
3210.0 6.3927e-05
3230.0 0.00017781
3250.0 0.00024191
3270.0 0.00021228
3290.0 0.0001609
3310.0 0.00012746
3330.0 0.0001189
3350.0 0.00012472
3370.0 0.00013492
3390.0 0.00014559
3410.0 0.00015677
3430.0 0.00017043
3450.0 0.00018349
3470.0 0.00019706
3490.0 0.00019958
3510.0 0.00017407
3530.0 0.00016298
3550.0 0.00020842
3570.0 0.00026541
3590.0 0.00029539
3610.0 0.00030581
3630.0 0.00032418
3650.0 0.00032447
3670.0 0.0003381
3690.0 0.00039764
3710.0 0.00046219
3730.0 0.0005046
3750.0 0.00053079
3770.0 0.00053923
3790.0 0.00052293
3810.0 0.00048482
3830.0 0.00042441
3850.0 0.00033392
3870.0 0.00029689
3890.0 0.00033444
3910.0 0.00044302
3930.0 0.00055378
3950.0 0.00060542
3970.0 0.00062665
3990.0 0.00067579
4010.0 0.00069876
4030.0 0.00063176
4050.0 0.00047628
4070.0 0.00040295
4090.0 0.00045127
4110.0 0.00050094
4130.0 0.00053503
4150.0 0.00053535
4170.0 0.00051475
4190.0 0.00049168
4210.0 0.00052351
4230.0 0.00056225
4250.0 0.00059587
4270.0 0.00059747
4290.0 0.00057867
4310.0 0.00058149
4330.0 0.00063921
4350.0 0.00070366
4370.0 0.00071284
4390.0 0.00066473
4410.0 0.00059092
4430.0 0.00047893
4450.0 0.00039564
4470.0 0.00039384
4490.0 0.00043708
4510.0 0.00047632
4530.0 0.00050077
4550.0 0.00054016
4570.0 0.00070228
4590.0 0.00096504
4610.0 0.0011468
4630.0 0.0012181
4650.0 0.0013247
4670.0 0.0014751
4690.0 0.0015015
4710.0 0.0013008
4730.0 0.0010207
4750.0 0.00080114
4770.0 0.00067388
4790.0 0.00061414
4810.0 0.00059671
4830.0 0.00064845
4850.0 0.00076442
4870.0 0.00085369
4890.0 0.0008757
4910.0 0.00087993
4930.0 0.00097238
4950.0 0.0011206
4970.0 0.0012166
4990.0 0.0012077
5010.0 0.0010879
5030.0 0.00090047
5050.0 0.00073015
5070.0 0.00062359
5090.0 0.00058331
5110.0 0.00058392
5130.0 0.00059159
5150.0 0.0005841
5170.0 0.00055596
5190.0 0.00054286
5210.0 0.00057157
5230.0 0.00065623
5250.0 0.00079535
5270.0 0.00094471
5290.0 0.00105
5310.0 0.0011398
5330.0 0.0012683
5350.0 0.0013834
5370.0 0.0013936
5390.0 0.0013059
5410.0 0.0012267
5430.0 0.0012641
5450.0 0.0014616
5470.0 0.0017273
5490.0 0.0019373
5510.0 0.002033
5530.0 0.0020352
5550.0 0.0019884
5570.0 0.001932
5590.0 0.0018776
5610.0 0.0018501
5630.0 0.001866
5650.0 0.0018791
5670.0 0.0018046
5690.0 0.0016425
5710.0 0.0014752
5730.0 0.0013713
5750.0 0.0013524
5770.0 0.0014098
5790.0 0.0014733
5810.0 0.001517
5830.0 0.0015435
5850.0 0.0015254
5870.0 0.0014931
5890.0 0.0015077
5910.0 0.0015705
5930.0 0.0015994
5950.0 0.0015243
5970.0 0.0013616
5990.0 0.0011517
6010.0 0.00098174
6030.0 0.00093477
6050.0 0.0010038
6070.0 0.0010547
6090.0 0.00099862
6110.0 0.00091648
6130.0 0.00094223
6150.0 0.0010538
6170.0 0.0011565
6190.0 0.0012191
6210.0 0.0012414
6230.0 0.0012185
6250.0 0.0011081
6270.0 0.00093436
6290.0 0.00078903
6310.0 0.00072877
6330.0 0.000737
6350.0 0.00076222
6370.0 0.00080332
6390.0 0.00091977
6410.0 0.0011083
6430.0 0.0012757
6450.0 0.0013602
6470.0 0.0013976
6490.0 0.0014188
6510.0 0.0014314
6530.0 0.0014437
6550.0 0.0014598
6570.0 0.0014966
6590.0 0.0015294
6610.0 0.0015254
6630.0 0.0014608
6650.0 0.0013509
6670.0 0.0012446
6690.0 0.0011731
6710.0 0.001123
6730.0 0.0010763
6750.0 0.0010584
6770.0 0.0010864
6790.0 0.0011269
6810.0 0.0011455
6830.0 0.0011277
6850.0 0.0010734
6870.0 0.0010165
6890.0 0.00099147
6910.0 0.00099099
6930.0 0.0010152
6950.0 0.0010415
6970.0 0.0010617
6990.0 0.0010657
7010.0 0.0010309
7030.0 0.00095309
7050.0 0.00085461
7070.0 0.00078767
7090.0 0.00077381
7110.0 0.0007806
7130.0 0.00074439
7150.0 0.00067282
7170.0 0.00065683
7190.0 0.00072602
7210.0 0.00083201
7230.0 0.00092286
7250.0 0.00095639
7270.0 0.00093444
7290.0 0.00087767
7310.0 0.00083054
7330.0 0.00082263
7350.0 0.00083682
7370.0 0.00085124
7390.0 0.00089225
7410.0 0.00098006
7430.0 0.0010906
7450.0 0.0011828
7470.0 0.0012144
7490.0 0.0011587
7510.0 0.0010665
7530.0 0.00099228
7550.0 0.00092275
7570.0 0.00084984
7590.0 0.00080946
7610.0 0.00080607
7630.0 0.00083574
7650.0 0.00089422
7670.0 0.00096606
7690.0 0.0010266
7710.0 0.0010705
7730.0 0.0011068
7750.0 0.0011338
7770.0 0.0011322
7790.0 0.0011364
7810.0 0.0011299
7830.0 0.0010887
7850.0 0.0010421
7870.0 0.0010132
7890.0 0.0010127
7910.0 0.0010042
7930.0 0.00097386
7950.0 0.00092911
7970.0 0.00088865
7990.0 0.00085021
8010.0 0.00081432
8030.0 0.00081138
8050.0 0.0008055
8070.0 0.00078896
8090.0 0.00077605
8110.0 0.00075467
8130.0 0.00074972
8150.0 0.00073821
8170.0 0.00071841
8190.0 0.0006943
8210.0 0.00067238
8230.0 0.00064955
8250.0 0.00063837
8270.0 0.00059233
8290.0 0.00050148
8310.0 0.00040094
8330.0 0.00033236
8350.0 0.00031531
8370.0 0.00035575
8390.0 0.0004114
8410.0 0.0004365
8430.0 0.00044679
8450.0 0.00047239
8470.0 0.00050738
8490.0 0.0005593
8510.0 0.00062177
8530.0 0.00068827
8550.0 0.00074098
8570.0 0.00077894
8590.0 0.00080578
8610.0 0.0008174
8630.0 0.000809
8650.0 0.00079126
8670.0 0.00078744
8690.0 0.00082485
8710.0 0.00087696
8730.0 0.00090149
8750.0 0.0008915
8770.0 0.00089745
8790.0 0.00089232
8810.0 0.00084384
8830.0 0.00078044
8850.0 0.00070212
8870.0 0.00064134
8890.0 0.00062092
8910.0 0.00061043
8930.0 0.00056975
8950.0 0.00052423
8970.0 0.00050373
8990.0 0.00050099
9010.0 0.00048756
9030.0 0.00047796
9050.0 0.00047348
9070.0 0.00047125
9090.0 0.00046931
9110.0 0.00046743
9130.0 0.00046557
9150.0 0.00046374
9170.0 0.00046183
9190.0 0.00046036
9210.0 0.00045978
9230.0 0.00045747
9250.0 0.00045544
9270.0 0.00045357
9290.0 0.00045183
9310.0 0.00045012
9330.0 0.00044847
9350.0 0.00044691
9370.0 0.00044536
9390.0 0.00044381
9410.0 0.0004423
9430.0 0.00044073
9450.0 0.00043854
9470.0 0.00043659
9490.0 0.00043581
9510.0 0.00043471
9530.0 0.00043353
9550.0 0.00043228
9570.0 0.00043099
9590.0 0.0004297
9610.0 0.00042841
9630.0 0.0004271
9650.0 0.00042582
9670.0 0.00042456
9690.0 0.0004233
9710.0 0.00042203
9730.0 0.00042081
9750.0 0.00041958
9770.0 0.00041832
9790.0 0.00041711
9810.0 0.0004159
9830.0 0.00041468
9850.0 0.00041345
9870.0 0.00041226
9890.0 0.00041106
9910.0 0.00040983
9930.0 0.00040859
9950.0 0.00040541
9970.0 0.00040476
9990.0 0.00040398
10010.0 0.00040318
10030.0 0.00040219
10050.0 0.00040103
10070.0 0.00039987
10090.0 0.00039871
10110.0 0.00039733
10130.0 0.00039572
10150.0 0.00039449
10170.0 0.00039325
10190.0 0.00039185
10210.0 0.00039054
10230.0 0.00038924
10250.0 0.00038777
10270.0 0.0003863
10290.0 0.00038491
10310.0 0.00038338
10330.0 0.00038172
10350.0 0.00038019
10370.0 0.00037864
10390.0 0.00037694
10410.0 0.00037522
10430.0 0.00037363
10450.0 0.00037188
10470.0 0.00037002
10490.0 0.00036825
10510.0 0.00036646
10530.0 0.00036443
10550.0 0.00036245
10570.0 0.00036056
10590.0 0.00035851
10610.0 0.00035636
10630.0 0.00035432
10650.0 0.00035221
10670.0 0.00034989
10690.0 0.00034762
10710.0 0.00034539
10730.0 0.00034299
10750.0 0.00034043
10770.0 0.00033807
10790.0 0.00033561
10810.0 0.00033297
10830.0 0.00033035
10850.0 0.00032781
10870.0 0.00032499
10890.0 0.00032211
10910.0 0.00031933
10930.0 0.00031644
10950.0 0.00031333
10970.0 0.00031024
10990.0 0.00030722
11010.0 0.0003325
11030.0 0.00032909
11050.0 0.0003258
11070.0 0.00032243
11090.0 0.00031882
11110.0 0.00031544
11130.0 0.00031214
11150.0 0.00030871
11170.0 0.00030528
11190.0 0.00030206
11210.0 0.00029875
11230.0 0.00029536
11250.0 0.00029212
11270.0 0.00028897
11290.0 0.00028571
11310.0 0.00028248
11330.0 0.00027949
11350.0 0.00027643
11370.0 0.00027331
11390.0 0.00027028
11410.0 0.00026726
11430.0 0.00026397
11450.0 0.00026064
11470.0 0.00025726
11490.0 0.00025364
11510.0 0.00024971
11530.0 0.00024574
11550.0 0.0002416
11570.0 0.00023711
11590.0 0.00023248
11610.0 0.00022785
11630.0 0.00022294
11650.0 0.00021782
11670.0 0.00021287
11690.0 0.00020792
11710.0 0.00020283
11730.0 0.00019783
11750.0 0.00019309
11770.0 0.00018825
11790.0 0.00018344
11810.0 0.00017888
11830.0 0.00017441
11850.0 0.00016983
11870.0 0.00016547
11890.0 0.00016134
11910.0 0.00015719
11930.0 0.0001531
11950.0 0.00014927
11970.0 0.00014552
11990.0 0.00014176
12010.0 0.00013824
12030.0 0.00013493
12050.0 0.00013171
12070.0 0.00012862
12090.0 0.00012588
12110.0 0.00012331
12130.0 0.00012091
12150.0 0.0001188
12170.0 0.00011697
12190.0 0.00011534
12210.0 0.00011401
12230.0 0.00011298
12250.0 0.00011222
12270.0 0.00011174
12290.0 0.00011154
12310.0 0.00011157
12330.0 0.00011186
12350.0 0.00011238
12370.0 0.00011305
12390.0 0.00011389
12410.0 0.00011496
12430.0 0.00011604
12450.0 0.00011717
12470.0 0.0001184
12490.0 0.00011965
12510.0 0.00012079
12530.0 0.00012195
12550.0 0.00012308
12570.0 0.00012405
12590.0 0.00012487
12610.0 0.0001256
12630.0 0.00012614
12650.0 0.0001264
12670.0 0.00012647
12690.0 0.00012631
12710.0 0.00012588
12730.0 0.00012521
12750.0 0.00012427
12770.0 0.00012309
12790.0 0.0001217
12810.0 0.0001201
12830.0 0.00011829
12850.0 0.00011639
12870.0 0.00011439
12890.0 0.00011227
12910.0 0.00011013
12930.0 0.00010801
12950.0 0.00010586
12970.0 0.0001037
12990.0 0.00010167
13010.0 9.9684e-05
13030.0 9.772e-05
13050.0 9.5842e-05
13070.0 9.4074e-05
13090.0 9.2319e-05
13110.0 9.0613e-05
13130.0 8.9002e-05
13150.0 8.744e-05
13170.0 8.5876e-05
13190.0 8.4396e-05
13210.0 8.2992e-05
13230.0 8.1604e-05
13250.0 8.0257e-05
13270.0 7.8994e-05
13290.0 7.7768e-05
13310.0 7.6567e-05
13330.0 7.5445e-05
13350.0 7.4396e-05
13370.0 7.3387e-05
13390.0 7.2435e-05
13410.0 7.1579e-05
13430.0 7.0774e-05
13450.0 7.0018e-05
13470.0 6.9326e-05
13490.0 6.8688e-05
13510.0 6.807e-05
13530.0 6.7486e-05
13550.0 6.6929e-05
13570.0 6.6376e-05
13590.0 6.5815e-05
13610.0 6.5254e-05
13630.0 6.4688e-05
13650.0 6.4093e-05
13670.0 6.3483e-05
13690.0 6.2871e-05
13710.0 6.2243e-05
13730.0 6.1587e-05
13750.0 6.0956e-05
13770.0 6.0335e-05
13790.0 5.9713e-05
13810.0 5.9112e-05
13830.0 5.855e-05
13850.0 5.8001e-05
13870.0 5.7472e-05
13890.0 5.6984e-05
13910.0 5.6523e-05
13930.0 5.6074e-05
13950.0 5.5646e-05
13970.0 5.5247e-05
13990.0 5.4848e-05
14010.0 5.4447e-05
14030.0 5.4053e-05
14050.0 5.3654e-05
14070.0 5.3224e-05
14090.0 5.2786e-05
14110.0 5.2341e-05
14130.0 5.1869e-05
14150.0 5.137e-05
14170.0 5.0878e-05
14190.0 5.0379e-05
14210.0 4.9862e-05
14230.0 4.9358e-05
14250.0 4.8882e-05
14270.0 4.8409e-05
14290.0 4.7961e-05
14310.0 4.7569e-05
14330.0 4.7216e-05
14350.0 4.6898e-05
14370.0 4.6635e-05
14390.0 4.6425e-05
14410.0 4.625e-05
14430.0 4.6116e-05
14450.0 4.6023e-05
14470.0 4.5958e-05
14490.0 4.5915e-05
14510.0 4.5894e-05
14530.0 4.589e-05
14550.0 4.5899e-05
14570.0 4.5921e-05
14590.0 4.5962e-05
14610.0 4.6023e-05
14630.0 4.6115e-05
14650.0 4.6244e-05
14670.0 4.6416e-05
14690.0 4.665e-05
14710.0 4.6957e-05
14730.0 4.7324e-05
14750.0 4.778e-05
14770.0 4.8341e-05
14790.0 4.899e-05
14810.0 4.9727e-05
14830.0 5.0621e-05
14850.0 5.1622e-05
14870.0 5.2699e-05
14890.0 5.389e-05
14910.0 5.5188e-05
14930.0 5.6486e-05
14950.0 5.775e-05
14970.0 5.9e-05
14990.0 6.012e-05
15010.0 6.1061e-05
15030.0 6.1852e-05
15050.0 6.2494e-05
15070.0 6.2969e-05
15090.0 6.3344e-05
15110.0 6.3653e-05
15130.0 6.3918e-05
15150.0 6.4161e-05
15170.0 6.4396e-05
15190.0 6.4628e-05
15210.0 6.4864e-05
15230.0 6.5103e-05
15250.0 6.5347e-05
15270.0 6.5595e-05
15290.0 6.5848e-05
15310.0 6.6106e-05
15330.0 6.6368e-05
15350.0 6.6636e-05
15370.0 6.6907e-05
15390.0 6.7183e-05
15410.0 6.7463e-05
15430.0 6.7748e-05
15450.0 6.8037e-05
15470.0 6.8329e-05
15490.0 6.8627e-05
15510.0 6.8928e-05
15530.0 6.9232e-05
15550.0 6.9541e-05
15570.0 6.9854e-05
15590.0 7.017e-05
15610.0 7.0489e-05
15630.0 7.0812e-05
15650.0 7.1139e-05
15670.0 7.1468e-05
15690.0 7.1801e-05
15710.0 7.2138e-05
15730.0 7.2476e-05
15750.0 7.2818e-05
15770.0 7.3163e-05
15790.0 7.3511e-05
15810.0 7.386e-05
15830.0 7.4213e-05
15850.0 7.4568e-05
15870.0 7.4925e-05
15890.0 7.5285e-05
15910.0 7.5647e-05
15930.0 7.601e-05
15950.0 7.6375e-05
15970.0 7.6742e-05
15990.0 7.7111e-05
16010.0 7.7481e-05
16030.0 7.7852e-05
16050.0 7.8225e-05
16070.0 7.8598e-05
16090.0 7.8973e-05
16110.0 7.9348e-05
16130.0 7.9725e-05
16150.0 8.0101e-05
16170.0 8.0478e-05
16190.0 8.0856e-05
16210.0 8.1234e-05
16230.0 8.1611e-05
16250.0 8.1989e-05
16270.0 8.2366e-05
16290.0 8.2743e-05
16310.0 8.3119e-05
16330.0 8.3495e-05
16350.0 8.387e-05
16370.0 8.4244e-05
16390.0 8.4617e-05
16410.0 8.4989e-05
16430.0 8.5358e-05
16450.0 8.5727e-05
16470.0 8.6094e-05
16490.0 8.6459e-05
16510.0 8.6822e-05
16530.0 8.7183e-05
16550.0 8.7542e-05
16570.0 8.7897e-05
16590.0 8.8251e-05
16610.0 8.8602e-05
16630.0 8.895e-05
16650.0 8.9294e-05
16670.0 8.9636e-05
16690.0 8.9975e-05
16710.0 9.0309e-05
16730.0 9.064e-05
16750.0 9.0967e-05
16770.0 9.129e-05
16790.0 9.1609e-05
16810.0 9.1925e-05
16830.0 9.2235e-05
16850.0 9.2541e-05
16870.0 9.2843e-05
16890.0 9.314e-05
16910.0 9.3431e-05
16930.0 9.3717e-05
16950.0 9.3999e-05
16970.0 9.4275e-05
16990.0 9.4545e-05
17010.0 9.481e-05
17030.0 9.507e-05
17050.0 9.5323e-05
17070.0 9.557e-05
17090.0 9.5812e-05
17110.0 9.6047e-05
17130.0 9.6275e-05
17150.0 9.6497e-05
17170.0 9.6714e-05
17190.0 9.6923e-05
17210.0 9.7125e-05
17230.0 9.7321e-05
17250.0 9.7509e-05
17270.0 9.769e-05
17290.0 9.7864e-05
17310.0 9.8032e-05
17330.0 9.8191e-05
17350.0 9.8343e-05
17370.0 9.8488e-05
17390.0 9.8625e-05
17410.0 9.8754e-05
17430.0 9.8877e-05
17450.0 9.8991e-05
17470.0 9.9097e-05
17490.0 9.9195e-05
17510.0 9.9286e-05
17530.0 9.9368e-05
17550.0 9.9442e-05
17570.0 9.9508e-05
17590.0 9.9567e-05
17610.0 9.9617e-05
17630.0 9.9658e-05
17650.0 9.9692e-05
17670.0 9.9718e-05
17690.0 9.9734e-05
17710.0 9.9743e-05
17730.0 9.9744e-05
17750.0 9.9736e-05
17770.0 9.972e-05
17790.0 9.9696e-05
17810.0 9.9663e-05
17830.0 9.9622e-05
17850.0 9.9573e-05
17870.0 9.9516e-05
17890.0 9.9449e-05
17910.0 9.9375e-05
17930.0 9.9294e-05
17950.0 9.9204e-05
17970.0 9.9105e-05
17990.0 9.8999e-05
18010.0 9.8885e-05
18030.0 9.8762e-05
18050.0 9.8631e-05
18070.0 9.8493e-05
18090.0 9.8347e-05
18110.0 9.8193e-05
18130.0 9.8032e-05
18150.0 9.7863e-05
18170.0 9.7685e-05
18190.0 9.7501e-05
18210.0 9.731e-05
18230.0 9.711e-05
18250.0 9.6903e-05
18270.0 9.669e-05
18290.0 9.647e-05
18310.0 9.6241e-05
18330.0 9.6007e-05
18350.0 9.5766e-05
18370.0 9.5517e-05
18390.0 9.5262e-05
18410.0 9.5001e-05
18430.0 9.4733e-05
18450.0 9.4458e-05
18470.0 9.4178e-05
18490.0 9.3891e-05
18510.0 9.3599e-05
18530.0 9.33e-05
18550.0 9.2996e-05
18570.0 9.2686e-05
18590.0 9.237e-05
18610.0 9.2049e-05
18630.0 9.1722e-05
18650.0 9.139e-05
18670.0 9.1053e-05
18690.0 9.0712e-05
18710.0 9.0365e-05
18730.0 9.0014e-05
18750.0 8.9658e-05
18770.0 8.9298e-05
18790.0 8.8932e-05
18810.0 8.8563e-05
18830.0 8.819e-05
18850.0 8.7812e-05
18870.0 8.7431e-05
18890.0 8.7046e-05
18910.0 8.6658e-05
18930.0 8.6265e-05
18950.0 8.587e-05
18970.0 8.5472e-05
18990.0 8.507e-05
19010.0 8.4664e-05
19030.0 8.4257e-05
19050.0 8.3846e-05
19070.0 8.3433e-05
19090.0 8.3017e-05
19110.0 8.2599e-05
19130.0 8.2179e-05
19150.0 8.1756e-05
19170.0 8.1331e-05
19190.0 8.0905e-05
19210.0 8.0476e-05
19230.0 8.0046e-05
19250.0 7.9615e-05
19270.0 7.9182e-05
19290.0 7.8747e-05
19310.0 7.8311e-05
19330.0 7.7875e-05
19350.0 7.7436e-05
19370.0 7.6997e-05
19390.0 7.6558e-05
19410.0 7.6117e-05
19430.0 7.5676e-05
19450.0 7.5235e-05
19470.0 7.4793e-05
19490.0 7.4351e-05
19510.0 7.3908e-05
19530.0 7.3466e-05
19550.0 7.3023e-05
19570.0 7.258e-05
19590.0 7.2138e-05
19610.0 7.1696e-05
19630.0 7.1254e-05
19650.0 7.0813e-05
19670.0 7.0372e-05
19690.0 6.9931e-05
19710.0 6.9492e-05
19730.0 6.9053e-05
19750.0 6.8615e-05
19770.0 6.8177e-05
19790.0 6.7741e-05
19810.0 6.7305e-05
19830.0 6.6869e-05
19850.0 6.6431e-05
19870.0 6.5989e-05
19890.0 6.5534e-05
19910.0 6.5055e-05
19930.0 6.454e-05
19950.0 6.3969e-05
19970.0 6.3311e-05
19990.0 6.255e-05
20010.0 6.1699e-05
20030.0 6.0723e-05
20050.0 5.9629e-05
20070.0 5.8473e-05
20090.0 5.7266e-05
20110.0 5.5969e-05
20130.0 5.4686e-05
20150.0 5.3438e-05
20170.0 5.2184e-05
20190.0 5.0944e-05
20210.0 4.9775e-05
20230.0 4.8644e-05
20250.0 4.7524e-05
20270.0 4.647e-05
20290.0 4.5483e-05
20310.0 4.4527e-05
20330.0 4.3605e-05
20350.0 4.2777e-05
20370.0 4.1992e-05
20390.0 4.1245e-05
20410.0 4.0559e-05
20430.0 3.9933e-05
20450.0 3.9334e-05
20470.0 3.8784e-05
20490.0 3.8286e-05
20510.0 3.7826e-05
20530.0 3.7396e-05
20550.0 3.7005e-05
20570.0 3.6648e-05
20590.0 3.6314e-05
20610.0 3.6003e-05
20630.0 3.5715e-05
20650.0 3.5443e-05
20670.0 3.5183e-05
20690.0 3.4935e-05
20710.0 3.4693e-05
20730.0 3.4455e-05
20750.0 3.4217e-05
20770.0 3.3979e-05
20790.0 3.3736e-05
20810.0 3.3487e-05
20830.0 3.3231e-05
20850.0 3.2967e-05
20870.0 3.269e-05
20890.0 3.2403e-05
20910.0 3.2109e-05
20930.0 3.1804e-05
20950.0 3.1486e-05
20970.0 3.1163e-05
20990.0 3.0834e-05
21010.0 3.0491e-05
21030.0 3.0144e-05
21050.0 2.9798e-05
21070.0 2.9446e-05
21090.0 2.9087e-05
21110.0 2.8735e-05
21130.0 2.8386e-05
21150.0 2.8032e-05
21170.0 2.7683e-05
21190.0 2.7343e-05
21210.0 2.7002e-05
21230.0 2.6663e-05
21250.0 2.6337e-05
21270.0 2.6018e-05
21290.0 2.5701e-05
21310.0 2.5394e-05
21330.0 2.5101e-05
21350.0 2.4812e-05
21370.0 2.4531e-05
21390.0 2.4264e-05
21410.0 2.4007e-05
21430.0 2.3755e-05
21450.0 2.3518e-05
21470.0 2.3294e-05
21490.0 2.308e-05
21510.0 2.2876e-05
21530.0 2.2685e-05
21550.0 2.2504e-05
21570.0 2.2333e-05
21590.0 2.2172e-05
21610.0 2.2021e-05
21630.0 2.1879e-05
21650.0 2.1744e-05
21670.0 2.1618e-05
21690.0 2.1498e-05
21710.0 2.1384e-05
21730.0 2.1275e-05
21750.0 2.1171e-05
21770.0 2.1072e-05
21790.0 2.0977e-05
21810.0 2.0884e-05
21830.0 2.0793e-05
21850.0 2.0706e-05
21870.0 2.062e-05
21890.0 2.0534e-05
21910.0 2.0449e-05
21930.0 2.0365e-05
21950.0 2.0279e-05
21970.0 2.0193e-05
21990.0 2.0107e-05
22010.0 2.0018e-05
22030.0 1.9927e-05
22050.0 1.9834e-05
22070.0 1.9738e-05
22090.0 1.9639e-05
22110.0 1.9538e-05
22130.0 1.9434e-05
22150.0 1.9327e-05
22170.0 1.9217e-05
22190.0 1.9104e-05
22210.0 1.8988e-05
22230.0 1.887e-05
22250.0 1.8749e-05
22270.0 1.8624e-05
22290.0 1.8497e-05
22310.0 1.8368e-05
22330.0 1.8232e-05
22350.0 1.8092e-05
22370.0 1.7948e-05
22390.0 1.7798e-05
22410.0 1.7638e-05
22430.0 1.7474e-05
22450.0 1.7304e-05
22470.0 1.7121e-05
22490.0 1.6931e-05
22510.0 1.6737e-05
22530.0 1.6529e-05
22550.0 1.631e-05
22570.0 1.6089e-05
22590.0 1.5862e-05
22610.0 1.5623e-05
22630.0 1.5383e-05
22650.0 1.5147e-05
22670.0 1.4903e-05
22690.0 1.4657e-05
22710.0 1.4419e-05
