#lamb flux
1010.0 0.00032226
1030.0 0.00042723
1050.0 0.00055652
1070.0 0.0007124
1090.0 0.00090107
1110.0 0.0011109
1130.0 0.0013391
1150.0 0.0015925
1170.0 0.0018682
1190.0 0.0021469
1210.0 0.0024376
1230.0 0.0027412
1250.0 0.0030407
1270.0 0.003328
1290.0 0.0036158
1310.0 0.0038848
1330.0 0.0041188
1350.0 0.0043243
1370.0 0.0045013
1390.0 0.0046326
1410.0 0.0047157
1430.0 0.0047663
1450.0 0.0047752
1470.0 0.0047384
1490.0 0.0046687
1510.0 0.0045762
1530.0 0.0044467
1550.0 0.0042954
1570.0 0.0041349
1590.0 0.0039645
1610.0 0.0037835
1630.0 0.0036057
1650.0 0.0034333
1670.0 0.0032626
1690.0 0.0030989
1710.0 0.0029478
1730.0 0.0028072
1750.0 0.0026711
1770.0 0.0025486
1790.0 0.0024388
1810.0 0.0023382
1830.0 0.002248
1850.0 0.0021719
1870.0 0.0021048
1890.0 0.0020463
1910.0 0.0019986
1930.0 0.0019614
1950.0 0.0019318
1970.0 0.0019111
1990.0 0.0019011
2010.0 0.0018999
2030.0 0.001907
2050.0 0.0019251
2070.0 0.0019544
2090.0 0.0019927
2110.0 0.0020424
2130.0 0.0021057
2150.0 0.0021815
2170.0 0.00227
2190.0 0.0023751
2210.0 0.0024968
2230.0 0.0026345
2250.0 0.0027905
2270.0 0.0029681
2290.0 0.003165
2310.0 0.0033815
2330.0 0.0036217
2350.0 0.0038851
2370.0 0.0041692
2390.0 0.0044762
2410.0 0.0048078
2430.0 0.0051578
2450.0 0.0055246
2470.0 0.0059088
2490.0 0.0063076
2510.0 0.0067169
2530.0 0.0071466
2550.0 0.0076143
2570.0 0.0081436
2590.0 0.0087701
2610.0 0.0095843
2630.0 0.010656
2650.0 0.01202
2670.0 0.013779
2690.0 0.016026
2710.0 0.01866
2730.0 0.021601
2750.0 0.024925
2770.0 0.028362
2790.0 0.031649
2810.0 0.034755
2830.0 0.037616
2850.0 0.039938
2870.0 0.041858
2890.0 0.04348
2910.0 0.044817
2930.0 0.045908
2950.0 0.046878
2970.0 0.047746
2990.0 0.04849
3010.0 0.049142
3030.0 0.049737
3050.0 0.050246
3070.0 0.050625
3090.0 0.050929
3110.0 0.051127
3130.0 0.051158
3150.0 0.051637
3170.0 0.051836
3190.0 0.051895
3210.0 0.05175
3230.0 0.051204
3250.0 0.049272
3270.0 0.045879
3290.0 0.04314
3310.0 0.042456
3330.0 0.043515
3350.0 0.044897
3370.0 0.046182
3390.0 0.047361
3410.0 0.048445
3430.0 0.049469
3450.0 0.050585
3470.0 0.051985
3490.0 0.052616
3510.0 0.051764
3530.0 0.052702
3550.0 0.05593
3570.0 0.063059
3590.0 0.069979
3610.0 0.075377
3630.0 0.080848
3650.0 0.078169
3670.0 0.0695
3690.0 0.06295
3710.0 0.062595
3730.0 0.066488
3750.0 0.069049
3770.0 0.070501
3790.0 0.071497
3810.0 0.070162
3830.0 0.064422
3850.0 0.057951
3870.0 0.054802
3890.0 0.057079
3910.0 0.059263
3930.0 0.059645
3950.0 0.061385
3970.0 0.064226
3990.0 0.066033
4010.0 0.067147
4030.0 0.065489
4050.0 0.063355
4070.0 0.062568
4090.0 0.063125
4110.0 0.063695
4130.0 0.062334
4150.0 0.060422
4170.0 0.059798
4190.0 0.059997
4210.0 0.057429
4230.0 0.053181
4250.0 0.047946
4270.0 0.042952
4290.0 0.039768
4310.0 0.038135
4330.0 0.038969
4350.0 0.04245
4370.0 0.045059
4390.0 0.048643
4410.0 0.051885
4430.0 0.053149
4450.0 0.050956
4470.0 0.048322
4490.0 0.047665
4510.0 0.047686
4530.0 0.047982
4550.0 0.04783
4570.0 0.048057
4590.0 0.049414
4610.0 0.050677
4630.0 0.051793
4650.0 0.052618
4670.0 0.052296
4690.0 0.049658
4710.0 0.046694
4730.0 0.04495
4750.0 0.043846
4770.0 0.042369
4790.0 0.041698
4810.0 0.04091
4830.0 0.041359
4850.0 0.041475
4870.0 0.042713
4890.0 0.040895
4910.0 0.038707
4930.0 0.036424
4950.0 0.033121
4970.0 0.030626
4990.0 0.029058
5010.0 0.027519
5030.0 0.02725
5050.0 0.02804
5070.0 0.029507
5090.0 0.031087
5110.0 0.032439
5130.0 0.033298
5150.0 0.033801
5170.0 0.033763
5190.0 0.033852
5210.0 0.033742
5230.0 0.033344
5250.0 0.033399
5270.0 0.033859
5290.0 0.033418
5310.0 0.032351
5330.0 0.030972
5350.0 0.029561
5370.0 0.028832
5390.0 0.028392
5410.0 0.028623
5430.0 0.028654
5450.0 0.0285
5470.0 0.028392
5490.0 0.028846
5510.0 0.028942
5530.0 0.028523
5550.0 0.028556
5570.0 0.028854
5590.0 0.029078
5610.0 0.028655
5630.0 0.02821
5650.0 0.027604
5670.0 0.027349
5690.0 0.026698
5710.0 0.026309
5730.0 0.026007
5750.0 0.025564
5770.0 0.025082
5790.0 0.024501
5810.0 0.024236
5830.0 0.02435
5850.0 0.024476
5870.0 0.024417
5890.0 0.024404
5910.0 0.024658
5930.0 0.024998
5950.0 0.024907
5970.0 0.025084
5990.0 0.025222
6010.0 0.025235
6030.0 0.024964
6050.0 0.024534
6070.0 0.024517
6090.0 0.024582
6110.0 0.02429
6130.0 0.02385
6150.0 0.023174
6170.0 0.022155
6190.0 0.020956
6210.0 0.020493
6230.0 0.020219
6250.0 0.020127
6270.0 0.020488
6290.0 0.020871
6310.0 0.021188
6330.0 0.021489
6350.0 0.021649
6370.0 0.02151
6390.0 0.020964
6410.0 0.020544
6430.0 0.020103
6450.0 0.019722
6470.0 0.019472
6490.0 0.019467
6510.0 0.019291
6530.0 0.019158
6550.0 0.0189
6570.0 0.018672
6590.0 0.018523
6610.0 0.018253
6630.0 0.018032
6650.0 0.017716
6670.0 0.017316
6690.0 0.016823
6710.0 0.016457
6730.0 0.016227
6750.0 0.016082
6770.0 0.016034
6790.0 0.015689
6810.0 0.015605
6830.0 0.015473
6850.0 0.015223
6870.0 0.014908
6890.0 0.014709
6910.0 0.014617
6930.0 0.014327
6950.0 0.014336
6970.0 0.014207
6990.0 0.014094
7010.0 0.013816
7030.0 0.01372
7050.0 0.01362
7070.0 0.013279
7090.0 0.012872
7110.0 0.01278
7130.0 0.012842
7150.0 0.012877
7170.0 0.012944
7190.0 0.013043
7210.0 0.013296
7230.0 0.013388
7250.0 0.013523
7270.0 0.01325
7290.0 0.013178
7310.0 0.01288
7330.0 0.012652
7350.0 0.012335
7370.0 0.01221
7390.0 0.012199
7410.0 0.012018
7430.0 0.012012
7450.0 0.011762
7470.0 0.011688
7490.0 0.011346
7510.0 0.011019
7530.0 0.011093
7550.0 0.010722
7570.0 0.010674
7590.0 0.010265
7610.0 0.010492
7630.0 0.010369
7650.0 0.010508
7670.0 0.01022
7690.0 0.01029
7710.0 0.010186
7730.0 0.010622
7750.0 0.010565
7770.0 0.011056
7790.0 0.011381
7810.0 0.011486
7830.0 0.011943
7850.0 0.011784
7870.0 0.012232
7890.0 0.012003
7910.0 0.011793
7930.0 0.011558
7950.0 0.011407
7970.0 0.011423
7990.0 0.011348
8010.0 0.010916
8030.0 0.010826
8050.0 0.010601
8070.0 0.010449
8090.0 0.0098432
8110.0 0.0099005
8130.0 0.010318
8150.0 0.010626
8170.0 0.010631
8190.0 0.010904
8210.0 0.010739
8230.0 0.01039
8250.0 0.010335
8270.0 0.010138
8290.0 0.0099357
8310.0 0.0094609
8330.0 0.0095062
8350.0 0.0095697
8370.0 0.0096262
8390.0 0.0096935
8410.0 0.009564
8430.0 0.0095252
8450.0 0.0095584
8470.0 0.0097868
8490.0 0.0099139
8510.0 0.0096218
8530.0 0.0092443
8550.0 0.0092644
8570.0 0.0091473
8590.0 0.0088971
8610.0 0.0090696
8630.0 0.0089806
8650.0 0.0088563
8670.0 0.0087902
8690.0 0.0087223
8710.0 0.0083228
8730.0 0.0084209
8750.0 0.0081771
8770.0 0.0081931
8790.0 0.0080013
8810.0 0.0078459
8830.0 0.0078925
8850.0 0.007757
8870.0 0.0073962
8890.0 0.0072246
8910.0 0.0069037
8930.0 0.0064652
8950.0 0.0063955
8970.0 0.0061252
8990.0 0.0060507
9010.0 0.0059168
9030.0 0.0058629
9050.0 0.0058238
9070.0 0.0057852
9090.0 0.0057463
9110.0 0.0057065
9130.0 0.0056668
9150.0 0.0056277
9170.0 0.0055883
9190.0 0.0055486
9210.0 0.0055086
9230.0 0.0054685
9250.0 0.0054284
9270.0 0.005388
9290.0 0.0053476
9310.0 0.0053075
9330.0 0.0052676
9350.0 0.0052277
9370.0 0.0051878
9390.0 0.005148
9410.0 0.0051082
9430.0 0.0050684
9450.0 0.0050287
9470.0 0.0049927
9490.0 0.0049549
9510.0 0.0049137
9530.0 0.004873
9550.0 0.0048332
9570.0 0.004794
9590.0 0.004755
9610.0 0.0047166
9630.0 0.0046787
9650.0 0.0046409
9670.0 0.0046032
9690.0 0.0045659
9710.0 0.0045289
9730.0 0.0044921
9750.0 0.0044555
9770.0 0.0044195
9790.0 0.0043836
9810.0 0.0043479
9830.0 0.0043123
9850.0 0.0042736
9870.0 0.0042361
9890.0 0.0042046
9910.0 0.0041727
9930.0 0.0041338
9950.0 0.0041004
9970.0 0.0040703
9990.0 0.0040395
10010.0 0.0040089
10030.0 0.0039778
10050.0 0.0039464
10070.0 0.0039156
10090.0 0.0038852
10110.0 0.0038546
10130.0 0.0038244
10150.0 0.003795
10170.0 0.0037659
10190.0 0.0037368
10210.0 0.0037085
10230.0 0.0036807
10250.0 0.0036529
10270.0 0.0036256
10290.0 0.003599
10310.0 0.0035724
10330.0 0.003546
10350.0 0.0035204
10370.0 0.0034952
10390.0 0.0034699
10410.0 0.0034441
10430.0 0.0034188
10450.0 0.0033961
10470.0 0.0033729
10490.0 0.0033504
10510.0 0.0033281
10530.0 0.0033054
10550.0 0.0032833
10570.0 0.003262
10590.0 0.0032406
10610.0 0.0032194
10630.0 0.003199
10650.0 0.003179
10670.0 0.0031587
10690.0 0.003139
10710.0 0.00312
10730.0 0.0031009
10750.0 0.0030818
10770.0 0.0030638
10790.0 0.003046
10810.0 0.0030281
10830.0 0.0030107
10850.0 0.002994
10870.0 0.0029769
10890.0 0.0029602
10910.0 0.0029443
10930.0 0.0029286
10950.0 0.0029129
10970.0 0.0028978
10990.0 0.0028835
11010.0 0.0029017
11030.0 0.0028841
11050.0 0.0028667
11070.0 0.0028488
11090.0 0.0028298
11110.0 0.0028112
11130.0 0.0027927
11150.0 0.0027734
11170.0 0.0027539
11190.0 0.002735
11210.0 0.0027158
11230.0 0.0026961
11250.0 0.0026772
11270.0 0.0026589
11290.0 0.0026404
11310.0 0.0026226
11330.0 0.0026064
11350.0 0.0025908
11370.0 0.0025757
11390.0 0.0025621
11410.0 0.0025496
11430.0 0.0025373
11450.0 0.0025259
11470.0 0.0025156
11490.0 0.0025055
11510.0 0.0024954
11530.0 0.002486
11550.0 0.0024769
11570.0 0.0024673
11590.0 0.0024577
11610.0 0.0024486
11630.0 0.0024388
11650.0 0.0024285
11670.0 0.0024187
11690.0 0.0024087
11710.0 0.0023982
11730.0 0.0023877
11750.0 0.0023777
11770.0 0.0023672
11790.0 0.0023564
11810.0 0.0023463
11830.0 0.0023364
11850.0 0.0023258
11870.0 0.0023161
11890.0 0.0023074
11910.0 0.0022987
11930.0 0.0022906
11950.0 0.0022838
11970.0 0.0022779
11990.0 0.0022725
12010.0 0.0022687
12030.0 0.0022663
12050.0 0.0022649
12070.0 0.0022648
12090.0 0.0022665
12110.0 0.0022694
12130.0 0.0022734
12150.0 0.0022788
12170.0 0.0022853
12190.0 0.0022926
12210.0 0.0023007
12230.0 0.0023094
12250.0 0.0023184
12270.0 0.0023276
12290.0 0.0023366
12310.0 0.0023453
12330.0 0.0023535
12350.0 0.0023611
12370.0 0.0023679
12390.0 0.0023737
12410.0 0.0023782
12430.0 0.0023818
12450.0 0.0023843
12470.0 0.0023854
12490.0 0.0023851
12510.0 0.0023841
12530.0 0.0023815
12550.0 0.0023772
12570.0 0.0023722
12590.0 0.0023663
12610.0 0.0023585
12630.0 0.0023496
12650.0 0.0023408
12670.0 0.0023307
12690.0 0.0023194
12710.0 0.0023082
12730.0 0.0022969
12750.0 0.0022839
12770.0 0.0022712
12790.0 0.0022592
12810.0 0.0022467
12830.0 0.0022339
12850.0 0.0022224
12870.0 0.0022115
12890.0 0.0022004
12910.0 0.0021904
12930.0 0.0021818
12950.0 0.0021735
12970.0 0.0021661
12990.0 0.0021606
13010.0 0.0021564
13030.0 0.002153
13050.0 0.0021512
13070.0 0.002151
13090.0 0.0021516
13110.0 0.0021532
13130.0 0.0021561
13150.0 0.0021597
13170.0 0.0021637
13190.0 0.0021683
13210.0 0.0021732
13230.0 0.0021781
13250.0 0.0021829
13270.0 0.0021876
13290.0 0.0021918
13310.0 0.0021954
13330.0 0.0021984
13350.0 0.0022008
13370.0 0.0022021
13390.0 0.0022023
13410.0 0.0022019
13430.0 0.0022002
13450.0 0.002197
13470.0 0.0021927
13490.0 0.0021876
13510.0 0.0021805
13530.0 0.0021723
13550.0 0.0021635
13570.0 0.0021535
13590.0 0.0021421
13610.0 0.0021303
13630.0 0.0021182
13650.0 0.0021047
13670.0 0.0020905
13690.0 0.0020763
13710.0 0.0020612
13730.0 0.0020446
13750.0 0.0020286
13770.0 0.0020122
13790.0 0.0019947
13810.0 0.0019769
13830.0 0.0019596
13850.0 0.0019415
13870.0 0.0019228
13890.0 0.0019047
13910.0 0.0018868
13930.0 0.0018683
13950.0 0.0018502
13970.0 0.0018333
13990.0 0.0018162
14010.0 0.0017992
14030.0 0.0017833
14050.0 0.0017678
14070.0 0.001752
14090.0 0.001737
14110.0 0.0017228
14130.0 0.0017085
14150.0 0.0016943
14170.0 0.001681
14190.0 0.0016678
14210.0 0.0016544
14230.0 0.0016412
14250.0 0.0016285
14270.0 0.0016155
14290.0 0.0016024
14310.0 0.0015899
14330.0 0.0015775
14350.0 0.001565
14370.0 0.0015529
14390.0 0.0015413
14410.0 0.0015296
14430.0 0.0015181
14450.0 0.0015071
14470.0 0.0014964
14490.0 0.0014854
14510.0 0.0014749
14530.0 0.0014646
14550.0 0.0014542
14570.0 0.0014436
14590.0 0.0014333
14610.0 0.0014227
14630.0 0.0014117
14650.0 0.0014008
14670.0 0.0013898
14690.0 0.0013784
14710.0 0.0013667
14730.0 0.0013552
14750.0 0.0013434
14770.0 0.0013312
14790.0 0.0013191
14810.0 0.0013069
14830.0 0.001294
14850.0 0.0012811
14870.0 0.0012683
14890.0 0.0012553
14910.0 0.001242
14930.0 0.001229
14950.0 0.0012164
14970.0 0.0012038
14990.0 0.0011918
15010.0 0.0011805
15030.0 0.0011696
15050.0 0.0011591
15070.0 0.0011492
15090.0 0.0011396
15110.0 0.0011301
15130.0 0.0011207
15150.0 0.0011114
15170.0 0.0011021
15190.0 0.0010927
15210.0 0.0010834
15230.0 0.0010741
15250.0 0.0010647
15270.0 0.0010552
15290.0 0.0010459
15310.0 0.0010365
15330.0 0.0010271
15350.0 0.0010178
15370.0 0.0010084
15390.0 0.00099896
15410.0 0.00098958
15430.0 0.00098027
15450.0 0.00097091
15470.0 0.00096151
15490.0 0.00095225
15510.0 0.000943
15530.0 0.00093368
15550.0 0.00092444
15570.0 0.00091529
15590.0 0.00090607
15610.0 0.00089685
15630.0 0.00088778
15650.0 0.00087872
15670.0 0.00086963
15690.0 0.00086064
15710.0 0.00085175
15730.0 0.0008428
15750.0 0.0008339
15770.0 0.00082512
15790.0 0.00081637
15810.0 0.00080757
15830.0 0.0007989
15850.0 0.00079035
15870.0 0.00078177
15890.0 0.00077324
15910.0 0.00076485
15930.0 0.00075648
15950.0 0.00074809
15970.0 0.00073983
15990.0 0.00073167
16010.0 0.0007235
16030.0 0.00071538
16050.0 0.00070743
16070.0 0.0006995
16090.0 0.00069159
16110.0 0.0006838
16130.0 0.00067612
16150.0 0.00066838
16170.0 0.00066075
16190.0 0.00065326
16210.0 0.00064581
16230.0 0.00063837
16250.0 0.00063108
16270.0 0.00062388
16290.0 0.00061667
16310.0 0.00060956
16330.0 0.00060257
16350.0 0.00059562
16370.0 0.00058866
16390.0 0.00058188
16410.0 0.00057518
16430.0 0.00056849
16450.0 0.00056189
16470.0 0.00055544
16490.0 0.00054898
16510.0 0.00054258
16530.0 0.0005363
16550.0 0.00053011
16570.0 0.00052392
16590.0 0.00051782
16610.0 0.00051187
16630.0 0.00050594
16650.0 0.00050006
16670.0 0.0004943
16690.0 0.00048862
16710.0 0.00048292
16730.0 0.00047735
16750.0 0.00047188
16770.0 0.00046644
16790.0 0.00046105
16810.0 0.00045579
16830.0 0.00045059
16850.0 0.00044542
16870.0 0.00044034
16890.0 0.00043536
16910.0 0.00043038
16930.0 0.00042547
16950.0 0.00042068
16970.0 0.00041595
16990.0 0.00041123
17010.0 0.00040662
17030.0 0.00040211
17050.0 0.0003976
17070.0 0.00039315
17090.0 0.00038881
17110.0 0.00038452
17130.0 0.00038023
17150.0 0.00037606
17170.0 0.00037197
17190.0 0.0003679
17210.0 0.00036388
17230.0 0.00035997
17250.0 0.00035609
17270.0 0.00035223
17290.0 0.00034847
17310.0 0.00034477
17330.0 0.00034109
17350.0 0.00033746
17370.0 0.00033395
17390.0 0.00033046
17410.0 0.000327
17430.0 0.00032362
17450.0 0.00032031
17470.0 0.00031698
17490.0 0.00031373
17510.0 0.00031057
17530.0 0.00030743
17550.0 0.00030432
17570.0 0.00030129
17590.0 0.00029832
17610.0 0.00029536
17630.0 0.00029245
17650.0 0.00028962
17670.0 0.00028681
17690.0 0.000284
17710.0 0.00028131
17730.0 0.00027865
17750.0 0.000276
17770.0 0.0002734
17790.0 0.00027089
17810.0 0.00026837
17830.0 0.00026588
17850.0 0.00026347
17870.0 0.00026109
17890.0 0.00025872
17910.0 0.0002564
17930.0 0.00025416
17950.0 0.00025192
17970.0 0.00024971
17990.0 0.00024757
18010.0 0.00024546
18030.0 0.00024334
18050.0 0.00024129
18070.0 0.00023929
18090.0 0.0002373
18110.0 0.00023533
18130.0 0.00023343
18150.0 0.00023156
18170.0 0.00022969
18190.0 0.00022787
18210.0 0.00022611
18230.0 0.00022433
18250.0 0.00022258
18270.0 0.0002209
18290.0 0.00021924
18310.0 0.00021759
18330.0 0.00021598
18350.0 0.00021443
18370.0 0.00021286
18390.0 0.00021132
18410.0 0.00020984
18430.0 0.00020837
18450.0 0.0002069
18470.0 0.00020549
18490.0 0.00020411
18510.0 0.00020274
18530.0 0.00020139
18550.0 0.00020009
18570.0 0.0001988
18590.0 0.00019751
18610.0 0.00019627
18630.0 0.00019506
18650.0 0.00019384
18670.0 0.00019265
18690.0 0.00019152
18710.0 0.00019039
18730.0 0.00018927
18750.0 0.00018819
18770.0 0.00018714
18790.0 0.00018606
18810.0 0.00018503
18830.0 0.00018404
18850.0 0.00018305
18870.0 0.00018207
18890.0 0.00018114
18910.0 0.00018022
18930.0 0.0001793
18950.0 0.0001784
18970.0 0.00017755
18990.0 0.00017669
19010.0 0.00017582
19030.0 0.00017502
19050.0 0.00017423
19070.0 0.00017343
19090.0 0.00017266
19110.0 0.00017194
19130.0 0.00017119
19150.0 0.00017045
19170.0 0.00016976
19190.0 0.00016909
19210.0 0.00016839
19230.0 0.00016773
19250.0 0.00016711
19270.0 0.00016648
19290.0 0.00016586
19310.0 0.00016528
19330.0 0.00016471
19350.0 0.00016411
19370.0 0.00016355
19390.0 0.00016303
19410.0 0.00016249
19430.0 0.00016196
19450.0 0.00016148
19470.0 0.000161
19490.0 0.0001605
19510.0 0.00016005
19530.0 0.00015961
19550.0 0.00015916
19570.0 0.00015871
19590.0 0.00015831
19610.0 0.00015792
19630.0 0.00015751
19650.0 0.00015713
19670.0 0.00015679
19690.0 0.00015641
19710.0 0.00015605
19730.0 0.00015573
19750.0 0.00015541
19770.0 0.00015506
19790.0 0.00015476
19810.0 0.00015449
19830.0 0.00015419
19850.0 0.00015391
19870.0 0.00015367
19890.0 0.00015343
19910.0 0.00015318
19930.0 0.000153
19950.0 0.00015287
19970.0 0.00015277
19990.0 0.00015276
20010.0 0.00015286
20030.0 0.00015304
20050.0 0.00015331
20070.0 0.00015369
20090.0 0.00015415
20110.0 0.00015466
20130.0 0.00015525
20150.0 0.0001559
20170.0 0.00015659
20190.0 0.00015732
20210.0 0.00015809
20230.0 0.00015888
20250.0 0.0001597
20270.0 0.00016054
20290.0 0.00016141
20310.0 0.00016228
20330.0 0.00016317
20350.0 0.00016407
20370.0 0.00016498
20390.0 0.00016589
20410.0 0.0001668
20430.0 0.00016773
20450.0 0.00016866
20470.0 0.00016959
20490.0 0.00017054
20510.0 0.00017151
20530.0 0.00017249
20550.0 0.00017349
20570.0 0.00017453
20590.0 0.00017559
20610.0 0.00017667
20630.0 0.0001778
20650.0 0.00017896
20670.0 0.00018014
20690.0 0.00018136
20710.0 0.00018261
20730.0 0.00018388
20750.0 0.00018516
20770.0 0.00018647
20790.0 0.00018778
20810.0 0.00018909
20830.0 0.0001904
20850.0 0.0001917
20870.0 0.00019298
20890.0 0.00019424
20910.0 0.0001955
20930.0 0.00019674
20950.0 0.00019794
20970.0 0.00019914
20990.0 0.00020034
21010.0 0.00020149
21030.0 0.00020265
21050.0 0.00020381
21070.0 0.00020497
21090.0 0.0002061
21110.0 0.00020727
21130.0 0.00020845
21150.0 0.00020962
21170.0 0.0002108
21190.0 0.00021202
21210.0 0.00021321
21230.0 0.00021439
21250.0 0.00021561
21270.0 0.00021684
21290.0 0.00021802
21310.0 0.00021921
21330.0 0.00022043
21350.0 0.0002216
21370.0 0.00022274
21390.0 0.00022389
21410.0 0.00022503
21430.0 0.00022608
21450.0 0.00022714
21470.0 0.00022822
21490.0 0.00022925
21510.0 0.00023023
21530.0 0.00023125
21550.0 0.00023225
21570.0 0.00023317
21590.0 0.00023411
21610.0 0.00023507
21630.0 0.00023598
21650.0 0.00023682
21670.0 0.00023777
21690.0 0.00023868
21710.0 0.00023953
21730.0 0.00024042
21750.0 0.00024135
21770.0 0.00024217
21790.0 0.00024299
21810.0 0.00024388
21830.0 0.00024474
21850.0 0.00024553
21870.0 0.00024636
21890.0 0.00024727
21910.0 0.00024809
21930.0 0.00024892
21950.0 0.00024984
21970.0 0.00025074
21990.0 0.00025157
22010.0 0.00025252
22030.0 0.00025354
22050.0 0.00025453
22070.0 0.00025557
22090.0 0.00025675
22110.0 0.00025793
22130.0 0.00025914
22150.0 0.00026046
22170.0 0.00026187
22190.0 0.00026327
22210.0 0.00026474
22230.0 0.00026636
22250.0 0.00026801
22270.0 0.00026968
22290.0 0.00027145
22310.0 0.00027329
22330.0 0.00027511
22350.0 0.00027699
22370.0 0.00027895
22390.0 0.00028092
22410.0 0.00028287
22430.0 0.00028493
22450.0 0.00028702
22470.0 0.00028909
22490.0 0.00029121
22510.0 0.0002934
22530.0 0.00029557
22550.0 0.00029775
22570.0 0.00030003
22590.0 0.00030236
22610.0 0.00030467
22630.0 0.00030705
22650.0 0.00030954
22670.0 0.00031202
22690.0 0.00031454
22710.0 0.00031716
22730.0 0.00031984
22750.0 0.0003225
22770.0 0.00032528
22790.0 0.00032816
22810.0 0.00033108
22830.0 0.00033405
22850.0 0.00033717
22870.0 0.00034037
22890.0 0.00034363
22910.0 0.00034703
22930.0 0.00035057
22950.0 0.00035421
22970.0 0.00035798
22990.0 0.00036195
23010.0 0.00036607
23030.0 0.00037033
23050.0 0.00037479
23070.0 0.00037944
23090.0 0.00038427
23110.0 0.0003893
23130.0 0.00039454
23150.0 0.00039998
23170.0 0.00040566
23190.0 0.00041153
23210.0 0.00041759
23230.0 0.00042388
23250.0 0.00043038
23270.0 0.00043703
23290.0 0.00044388
23310.0 0.00045095
23330.0 0.00045811
23350.0 0.00046538
23370.0 0.0004728
23390.0 0.00048031
23410.0 0.00048784
23430.0 0.00049546
23450.0 0.00050315
23470.0 0.00051084
23490.0 0.00051856
23510.0 0.00052635
23530.0 0.00053417
23550.0 0.000542
23570.0 0.00054993
23590.0 0.00055796
23610.0 0.00056607
23630.0 0.0005743
23650.0 0.00058274
23670.0 0.00059133
