#lamb flux
1010.0 0.00012899
1030.0 0.00013886
1050.0 0.00015556
1070.0 0.00017433
1090.0 0.00019427
1110.0 0.00021493
1130.0 0.00023586
1150.0 0.00025786
1170.0 0.00028047
1190.0 0.00030162
1210.0 0.00032261
1230.0 0.00034369
1250.0 0.00036383
1270.0 0.00038239
1290.0 0.00040109
1310.0 0.00041867
1330.0 0.00043431
1350.0 0.00044928
1370.0 0.00046417
1390.0 0.00047803
1410.0 0.00049109
1430.0 0.00050511
1450.0 0.00051951
1470.0 0.00053396
1490.0 0.00054962
1510.0 0.00056758
1530.0 0.00058602
1550.0 0.00060592
1570.0 0.00062836
1590.0 0.00065287
1610.0 0.00067879
1630.0 0.00070804
1650.0 0.00074015
1670.0 0.00077391
1690.0 0.00080965
1710.0 0.00084828
1730.0 0.00088898
1750.0 0.00092998
1770.0 0.00097286
1790.0 0.0010171
1810.0 0.0010609
1830.0 0.0011042
1850.0 0.0011481
1870.0 0.00119
1890.0 0.0012289
1910.0 0.0012657
1930.0 0.0012998
1950.0 0.0013289
1970.0 0.0013535
1990.0 0.0013743
2010.0 0.0013898
2030.0 0.0013995
2050.0 0.001405
2070.0 0.0014063
2090.0 0.0014016
2110.0 0.0013929
2130.0 0.0013812
2150.0 0.001366
2170.0 0.0013476
2190.0 0.0013281
2210.0 0.0013076
2230.0 0.0012857
2250.0 0.0012639
2270.0 0.0012436
2290.0 0.0012237
2310.0 0.0012047
2330.0 0.0011882
2350.0 0.0011741
2370.0 0.0011619
2390.0 0.0011527
2410.0 0.0011476
2430.0 0.0011457
2450.0 0.0011474
2470.0 0.0011543
2490.0 0.0011669
2510.0 0.0011842
2530.0 0.0012098
2550.0 0.0012487
2570.0 0.0013053
2590.0 0.0013861
2610.0 0.00151
2630.0 0.0016825
2650.0 0.0018976
2670.0 0.0021605
2690.0 0.0024652
2710.0 0.0027746
2730.0 0.0030685
2750.0 0.0033472
2770.0 0.0035839
2790.0 0.0037732
2810.0 0.0039292
2830.0 0.0040624
2850.0 0.0041773
2870.0 0.0042894
2890.0 0.004408
2910.0 0.0045363
2930.0 0.004675
2950.0 0.0048288
2970.0 0.0049985
2990.0 0.0051807
3010.0 0.006622
3030.0 0.0068839
3050.0 0.007161
3070.0 0.0074429
3090.0 0.0077288
3110.0 0.0080027
3130.0 0.008244
3150.0 0.0084502
3170.0 0.0085765
3190.0 0.0091439
3210.0 0.011418
3230.0 0.015033
3250.0 0.016713
3270.0 0.015392
3290.0 0.013164
3310.0 0.011989
3330.0 0.011523
3350.0 0.011506
3370.0 0.011624
3390.0 0.011808
3410.0 0.011936
3430.0 0.011613
3450.0 0.011534
3470.0 0.011547
3490.0 0.01276
3510.0 0.016079
3530.0 0.019375
3550.0 0.022472
3570.0 0.025905
3590.0 0.027817
3610.0 0.027895
3630.0 0.02761
3650.0 0.028492
3670.0 0.031791
3690.0 0.037197
3710.0 0.042613
3730.0 0.046735
3750.0 0.050179
3770.0 0.049905
3790.0 0.046775
3810.0 0.043201
3830.0 0.039122
3850.0 0.036669
3870.0 0.036894
3890.0 0.040752
3910.0 0.04622
3930.0 0.051997
3950.0 0.058261
3970.0 0.062198
3990.0 0.061325
4010.0 0.057857
4030.0 0.051281
4050.0 0.044975
4070.0 0.041721
4090.0 0.041283
4110.0 0.043005
4130.0 0.043673
4150.0 0.043901
4170.0 0.044761
4190.0 0.046684
4210.0 0.046741
4230.0 0.047135
4250.0 0.047867
4270.0 0.0493
4290.0 0.051044
4310.0 0.05284
4330.0 0.052558
4350.0 0.050338
4370.0 0.047027
4390.0 0.042598
4410.0 0.037515
4430.0 0.034181
4450.0 0.033136
4470.0 0.033964
4490.0 0.036393
4510.0 0.041274
4530.0 0.050343
4550.0 0.064125
4570.0 0.07613
4590.0 0.087027
4610.0 0.10026
4630.0 0.10958
4650.0 0.10879
4670.0 0.10043
4690.0 0.089004
4710.0 0.077861
4730.0 0.067919
4750.0 0.059221
4770.0 0.053298
4790.0 0.053521
4810.0 0.056689
4830.0 0.058939
4850.0 0.059998
4870.0 0.063062
4890.0 0.066679
4910.0 0.07007
4930.0 0.073864
4950.0 0.076609
4970.0 0.075557
4990.0 0.070248
5010.0 0.062756
5030.0 0.05513
5050.0 0.049547
5070.0 0.046005
5090.0 0.043871
5110.0 0.043444
5130.0 0.043519
5150.0 0.043812
5170.0 0.045781
5190.0 0.049672
5210.0 0.055356
5230.0 0.061012
5250.0 0.066857
5270.0 0.073087
5290.0 0.078517
5310.0 0.082027
5330.0 0.083575
5350.0 0.083005
5370.0 0.081732
5390.0 0.081906
5410.0 0.084452
5430.0 0.088989
5450.0 0.094852
5470.0 0.099956
5490.0 0.1019
5510.0 0.10115
5530.0 0.09922
5550.0 0.096641
5570.0 0.093288
5590.0 0.089937
5610.0 0.086641
5630.0 0.082853
5650.0 0.077695
5670.0 0.071718
5690.0 0.066756
5710.0 0.063184
5730.0 0.059775
5750.0 0.057801
5770.0 0.057597
5790.0 0.057855
5810.0 0.057304
5830.0 0.056667
5850.0 0.055793
5870.0 0.053864
5890.0 0.052206
5910.0 0.050645
5930.0 0.047266
5950.0 0.042681
5970.0 0.038287
5990.0 0.034796
6010.0 0.032576
6030.0 0.031429
6050.0 0.031549
6070.0 0.032889
6090.0 0.033806
6110.0 0.033897
6130.0 0.033909
6150.0 0.034255
6170.0 0.034726
6190.0 0.034862
6210.0 0.034244
6230.0 0.032374
6250.0 0.029829
6270.0 0.027451
6290.0 0.025638
6310.0 0.025603
6330.0 0.027413
6350.0 0.029808
6370.0 0.031801
6390.0 0.034098
6410.0 0.037097
6430.0 0.039418
6450.0 0.040769
6470.0 0.04187
6490.0 0.04289
6510.0 0.043475
6530.0 0.043725
6550.0 0.044171
6570.0 0.044001
6590.0 0.043059
6610.0 0.041761
6630.0 0.040134
6650.0 0.037963
6670.0 0.035658
6690.0 0.034021
6710.0 0.032912
6730.0 0.031704
6750.0 0.03094
6770.0 0.031184
6790.0 0.03155
6810.0 0.031274
6830.0 0.030681
6850.0 0.030403
6870.0 0.030124
6890.0 0.029519
6910.0 0.029418
6930.0 0.029458
6950.0 0.029164
6970.0 0.028743
6990.0 0.028163
7010.0 0.027385
7030.0 0.026167
7050.0 0.024319
7070.0 0.02266
7090.0 0.022434
7110.0 0.023146
7130.0 0.023466
7150.0 0.023382
7170.0 0.023827
7190.0 0.024874
7210.0 0.025657
7230.0 0.026275
7250.0 0.026878
7270.0 0.026515
7290.0 0.025723
7310.0 0.025415
7330.0 0.025985
7350.0 0.026983
7370.0 0.027647
7390.0 0.028381
7410.0 0.029489
7430.0 0.030287
7450.0 0.030574
7470.0 0.030388
7490.0 0.02904
7510.0 0.027587
7530.0 0.027261
7550.0 0.026754
7570.0 0.026225
7590.0 0.026202
7610.0 0.026359
7630.0 0.02689
7650.0 0.028368
7670.0 0.030318
7690.0 0.03218
7710.0 0.033546
7730.0 0.034768
7750.0 0.035925
7770.0 0.036943
7790.0 0.037908
7810.0 0.038289
7830.0 0.037432
7850.0 0.036235
7870.0 0.035256
7890.0 0.034586
7910.0 0.034502
7930.0 0.034022
7950.0 0.033327
7970.0 0.032459
7990.0 0.031935
8010.0 0.030165
8030.0 0.030202
8050.0 0.03017
8070.0 0.029891
8090.0 0.029672
8110.0 0.029566
8130.0 0.029719
8150.0 0.029644
8170.0 0.029363
8190.0 0.028605
8210.0 0.027345
8230.0 0.026201
8250.0 0.02577
8270.0 0.024697
8290.0 0.022394
8310.0 0.019954
8330.0 0.018338
8350.0 0.017776
8370.0 0.018796
8390.0 0.020696
8410.0 0.022165
8430.0 0.023459
8450.0 0.025291
8470.0 0.027134
8490.0 0.029305
8510.0 0.03161
8530.0 0.033918
8550.0 0.035764
8570.0 0.037155
8590.0 0.038244
8610.0 0.039134
8630.0 0.0393
8650.0 0.038698
8670.0 0.038867
8690.0 0.040581
8710.0 0.042836
8730.0 0.043763
8750.0 0.043332
8770.0 0.043605
8790.0 0.043695
8810.0 0.042349
8830.0 0.039341
8850.0 0.035584
8870.0 0.032819
8890.0 0.031905
8910.0 0.031013
8930.0 0.028987
8950.0 0.027056
8970.0 0.026395
8990.0 0.026681
9010.0 0.026553
9030.0 0.026202
9050.0 0.025976
9070.0 0.025837
9090.0 0.025711
9110.0 0.025588
9130.0 0.025465
9150.0 0.025344
9170.0 0.025222
9190.0 0.02511
9210.0 0.025015
9230.0 0.024888
9250.0 0.024767
9270.0 0.02465
9290.0 0.024536
9310.0 0.024424
9330.0 0.024313
9350.0 0.024206
9370.0 0.024099
9390.0 0.023993
9410.0 0.023888
9430.0 0.023779
9450.0 0.023646
9470.0 0.023523
9490.0 0.02345
9510.0 0.023364
9530.0 0.023276
9550.0 0.023183
9570.0 0.023089
9590.0 0.022997
9610.0 0.022903
9630.0 0.022809
9650.0 0.022716
9670.0 0.022626
9690.0 0.022535
9710.0 0.022444
9730.0 0.022355
9750.0 0.022266
9770.0 0.022175
9790.0 0.022087
9810.0 0.022001
9830.0 0.021912
9850.0 0.021822
9870.0 0.021737
9890.0 0.021652
9910.0 0.021564
9930.0 0.021478
9950.0 0.021356
9970.0 0.021279
9990.0 0.021199
10010.0 0.021119
10030.0 0.021036
10050.0 0.020951
10070.0 0.020867
10090.0 0.020784
10110.0 0.020689
10130.0 0.020561
10150.0 0.02048
10170.0 0.020404
10190.0 0.020318
10210.0 0.020234
10230.0 0.02015
10250.0 0.020056
10270.0 0.019962
10290.0 0.019872
10310.0 0.019775
10330.0 0.019672
10350.0 0.019576
10370.0 0.019479
10390.0 0.019375
10410.0 0.01927
10430.0 0.019172
10450.0 0.019067
10470.0 0.018957
10490.0 0.018851
10510.0 0.018745
10530.0 0.018627
10550.0 0.018512
10570.0 0.018402
10590.0 0.018284
10610.0 0.018162
10630.0 0.018046
10650.0 0.017927
10670.0 0.017798
10690.0 0.017671
10710.0 0.017547
10730.0 0.017415
10750.0 0.017276
10770.0 0.017146
10790.0 0.017013
10810.0 0.016871
10830.0 0.01673
10850.0 0.016594
10870.0 0.016444
10890.0 0.016293
10910.0 0.016147
10930.0 0.015997
10950.0 0.015839
10970.0 0.015684
10990.0 0.015534
11010.0 0.015774
11030.0 0.015607
11050.0 0.015449
11070.0 0.015291
11090.0 0.015127
11110.0 0.014976
11130.0 0.014831
11150.0 0.014684
11170.0 0.014541
11190.0 0.01441
11210.0 0.014279
11230.0 0.01415
11250.0 0.01403
11270.0 0.013917
11290.0 0.013805
11310.0 0.013697
11330.0 0.013601
11350.0 0.013506
11370.0 0.013411
11390.0 0.013321
11410.0 0.013233
11430.0 0.013138
11450.0 0.013041
11470.0 0.012942
11490.0 0.012836
11510.0 0.012718
11530.0 0.012597
11550.0 0.012469
11570.0 0.012328
11590.0 0.012179
11610.0 0.012027
11630.0 0.011862
11650.0 0.011686
11670.0 0.011511
11690.0 0.01133
11710.0 0.011138
11730.0 0.010943
11750.0 0.01075
11770.0 0.010546
11790.0 0.010336
11810.0 0.010128
11830.0 0.0099169
11850.0 0.0096922
11870.0 0.0094716
11890.0 0.0092566
11910.0 0.0090355
11930.0 0.0088133
11950.0 0.0086021
11970.0 0.0083933
11990.0 0.0081822
12010.0 0.0079833
12030.0 0.0077962
12050.0 0.0076128
12070.0 0.0074362
12090.0 0.0072794
12110.0 0.0071311
12130.0 0.0069907
12150.0 0.0068653
12170.0 0.0067548
12190.0 0.006652
12210.0 0.0065641
12230.0 0.0064923
12250.0 0.0064333
12270.0 0.0063875
12290.0 0.0063561
12310.0 0.0063372
12330.0 0.0063304
12350.0 0.0063348
12370.0 0.0063474
12390.0 0.0063684
12410.0 0.0063987
12430.0 0.0064312
12450.0 0.0064662
12470.0 0.0065053
12490.0 0.0065452
12510.0 0.0065819
12530.0 0.0066191
12550.0 0.0066554
12570.0 0.0066863
12590.0 0.0067123
12610.0 0.0067351
12630.0 0.006751
12650.0 0.0067574
12670.0 0.0067567
12690.0 0.0067471
12710.0 0.0067271
12730.0 0.0066974
12750.0 0.0066567
12770.0 0.0066056
12790.0 0.0065456
12810.0 0.0064761
12830.0 0.0063969
12850.0 0.0063135
12870.0 0.0062255
12890.0 0.0061314
12910.0 0.006036
12930.0 0.005942
12950.0 0.0058457
12970.0 0.0057494
12990.0 0.0056589
13010.0 0.0055708
13030.0 0.0054839
13050.0 0.0054013
13070.0 0.0053243
13090.0 0.0052482
13110.0 0.005175
13130.0 0.0051066
13150.0 0.0050412
13170.0 0.0049764
13190.0 0.0049161
13210.0 0.0048597
13230.0 0.0048047
13250.0 0.004752
13270.0 0.0047031
13290.0 0.004656
13310.0 0.0046096
13330.0 0.0045659
13350.0 0.004524
13370.0 0.0044825
13390.0 0.0044412
13410.0 0.0044021
13430.0 0.0043627
13450.0 0.0043225
13470.0 0.0042828
13490.0 0.0042435
13510.0 0.004202
13530.0 0.0041603
13550.0 0.0041192
13570.0 0.0040771
13590.0 0.0040337
13610.0 0.0039909
13630.0 0.0039487
13650.0 0.0039051
13670.0 0.0038617
13690.0 0.0038197
13710.0 0.0037774
13730.0 0.0037338
13750.0 0.0036927
13770.0 0.0036525
13790.0 0.0036117
13810.0 0.0035718
13830.0 0.003534
13850.0 0.003496
13870.0 0.0034584
13890.0 0.0034229
13910.0 0.0033889
13930.0 0.003355
13950.0 0.0033227
13970.0 0.0032932
13990.0 0.0032644
14010.0 0.0032366
14030.0 0.0032109
14050.0 0.0031866
14070.0 0.0031622
14090.0 0.0031394
14110.0 0.003118
14130.0 0.0030969
14150.0 0.003076
14170.0 0.0030566
14190.0 0.0030379
14210.0 0.0030192
14230.0 0.0030015
14250.0 0.0029849
14270.0 0.0029686
14290.0 0.0029528
14310.0 0.0029386
14330.0 0.0029252
14350.0 0.0029122
14370.0 0.0029002
14390.0 0.0028893
14410.0 0.0028785
14430.0 0.0028683
14450.0 0.0028589
14470.0 0.0028498
14490.0 0.0028406
14510.0 0.0028318
14530.0 0.0028235
14550.0 0.0028149
14570.0 0.0028062
14590.0 0.0027979
14610.0 0.0027895
14630.0 0.0027808
14650.0 0.0027731
14670.0 0.0027663
14690.0 0.0027606
14710.0 0.002757
14730.0 0.0027565
14750.0 0.0027594
14770.0 0.0027671
14790.0 0.0027801
14810.0 0.002799
14830.0 0.0028261
14850.0 0.0028608
14870.0 0.002902
14890.0 0.0029509
14910.0 0.0030072
14930.0 0.0030657
14950.0 0.0031243
14970.0 0.0031832
14990.0 0.0032367
15010.0 0.0032819
15030.0 0.0033197
15050.0 0.0033503
15070.0 0.0033724
15090.0 0.0033895
15110.0 0.0034032
15130.0 0.0034146
15150.0 0.0034249
15170.0 0.0034346
15190.0 0.0034443
15210.0 0.003454
15230.0 0.0034639
15250.0 0.003474
15270.0 0.0034843
15290.0 0.0034948
15310.0 0.0035055
15330.0 0.0035164
15350.0 0.0035275
15370.0 0.0035388
15390.0 0.0035503
15410.0 0.003562
15430.0 0.0035739
15450.0 0.003586
15470.0 0.0035982
15490.0 0.0036107
15510.0 0.0036233
15530.0 0.0036361
15550.0 0.003649
15570.0 0.0036622
15590.0 0.0036755
15610.0 0.0036889
15630.0 0.0037026
15650.0 0.0037163
15670.0 0.0037303
15690.0 0.0037444
15710.0 0.0037586
15730.0 0.003773
15750.0 0.0037875
15770.0 0.0038021
15790.0 0.0038169
15810.0 0.0038318
15830.0 0.0038468
15850.0 0.003862
15870.0 0.0038773
15890.0 0.0038926
15910.0 0.0039081
15930.0 0.0039237
15950.0 0.0039394
15970.0 0.0039551
15990.0 0.003971
16010.0 0.0039869
16030.0 0.0040029
16050.0 0.004019
16070.0 0.0040352
16090.0 0.0040514
16110.0 0.0040677
16130.0 0.004084
16150.0 0.0041004
16170.0 0.0041168
16190.0 0.0041333
16210.0 0.0041497
16230.0 0.0041662
16250.0 0.0041828
16270.0 0.0041993
16290.0 0.0042159
16310.0 0.0042324
16330.0 0.0042489
16350.0 0.0042655
16370.0 0.004282
16390.0 0.0042985
16410.0 0.0043149
16430.0 0.0043314
16450.0 0.0043478
16470.0 0.0043641
16490.0 0.0043804
16510.0 0.0043966
16530.0 0.0044128
16550.0 0.0044289
16570.0 0.0044449
16590.0 0.0044608
16610.0 0.0044767
16630.0 0.0044924
16650.0 0.004508
16670.0 0.0045236
16690.0 0.004539
16710.0 0.0045543
16730.0 0.0045694
16750.0 0.0045845
16770.0 0.0045993
16790.0 0.0046141
16810.0 0.0046287
16830.0 0.0046431
16850.0 0.0046573
16870.0 0.0046714
16890.0 0.0046853
16910.0 0.0046991
16930.0 0.0047126
16950.0 0.0047259
16970.0 0.004739
16990.0 0.004752
17010.0 0.0047647
17030.0 0.0047772
17050.0 0.0047894
17070.0 0.0048014
17090.0 0.0048132
17110.0 0.0048248
17130.0 0.0048361
17150.0 0.0048471
17170.0 0.0048579
17190.0 0.0048685
17210.0 0.0048787
17230.0 0.0048887
17250.0 0.0048984
17270.0 0.0049078
17290.0 0.004917
17310.0 0.0049258
17330.0 0.0049344
17350.0 0.0049426
17370.0 0.0049506
17390.0 0.0049582
17410.0 0.0049655
17430.0 0.0049726
17450.0 0.0049793
17470.0 0.0049856
17490.0 0.0049917
17510.0 0.0049974
17530.0 0.0050028
17550.0 0.0050078
17570.0 0.0050125
17590.0 0.0050169
17610.0 0.005021
17630.0 0.0050246
17650.0 0.005028
17670.0 0.005031
17690.0 0.0050336
17710.0 0.0050359
17730.0 0.0050378
17750.0 0.0050394
17770.0 0.0050406
17790.0 0.0050415
17810.0 0.005042
17830.0 0.0050421
17850.0 0.0050419
17870.0 0.0050413
17890.0 0.0050404
17910.0 0.0050391
17930.0 0.0050374
17950.0 0.0050354
17970.0 0.005033
17990.0 0.0050303
18010.0 0.0050272
18030.0 0.0050237
18050.0 0.0050199
18070.0 0.0050157
18090.0 0.0050112
18110.0 0.0050063
18130.0 0.005001
18150.0 0.0049955
18170.0 0.0049895
18190.0 0.0049832
18210.0 0.0049766
18230.0 0.0049696
18250.0 0.0049622
18270.0 0.0049546
18290.0 0.0049466
18310.0 0.0049382
18330.0 0.0049295
18350.0 0.0049205
18370.0 0.0049112
18390.0 0.0049015
18410.0 0.0048916
18430.0 0.0048813
18450.0 0.0048706
18470.0 0.0048597
18490.0 0.0048485
18510.0 0.0048369
18530.0 0.0048251
18550.0 0.004813
18570.0 0.0048005
18590.0 0.0047878
18610.0 0.0047748
18630.0 0.0047615
18650.0 0.004748
18670.0 0.0047341
18690.0 0.00472
18710.0 0.0047057
18730.0 0.004691
18750.0 0.0046762
18770.0 0.004661
18790.0 0.0046456
18810.0 0.00463
18830.0 0.0046142
18850.0 0.0045981
18870.0 0.0045817
18890.0 0.0045652
18910.0 0.0045484
18930.0 0.0045315
18950.0 0.0045143
18970.0 0.0044969
18990.0 0.0044793
19010.0 0.0044615
19030.0 0.0044435
19050.0 0.0044254
19070.0 0.004407
19090.0 0.0043885
19110.0 0.0043698
19130.0 0.004351
19150.0 0.004332
19170.0 0.0043128
19190.0 0.0042935
19210.0 0.004274
19230.0 0.0042544
19250.0 0.0042347
19270.0 0.0042148
19290.0 0.0041948
19310.0 0.0041747
19330.0 0.0041544
19350.0 0.0041341
19370.0 0.0041136
19390.0 0.0040931
19410.0 0.0040724
19430.0 0.0040516
19450.0 0.0040308
19470.0 0.0040099
19490.0 0.0039888
19510.0 0.0039678
19530.0 0.0039466
19550.0 0.0039254
19570.0 0.0039041
19590.0 0.0038828
19610.0 0.0038614
19630.0 0.0038399
19650.0 0.0038184
19670.0 0.0037969
19690.0 0.0037753
19710.0 0.0037537
19730.0 0.0037321
19750.0 0.0037104
19770.0 0.0036887
19790.0 0.003667
19810.0 0.0036453
19830.0 0.0036235
19850.0 0.0036015
19870.0 0.0035792
19890.0 0.0035563
19910.0 0.0035321
19930.0 0.003506
19950.0 0.0034771
19970.0 0.0034437
19990.0 0.0034052
20010.0 0.0033622
20030.0 0.0033128
20050.0 0.0032576
20070.0 0.0031992
20090.0 0.0031383
20110.0 0.0030728
20130.0 0.0030078
20150.0 0.0029445
20170.0 0.0028806
20190.0 0.0028171
20210.0 0.002757
20230.0 0.0026984
20250.0 0.0026401
20270.0 0.0025847
20290.0 0.0025326
20310.0 0.0024817
20330.0 0.0024324
20350.0 0.0023877
20370.0 0.0023452
20390.0 0.0023046
20410.0 0.0022671
20430.0 0.0022328
20450.0 0.0022001
20470.0 0.0021699
20490.0 0.0021427
20510.0 0.0021175
20530.0 0.0020942
20550.0 0.002073
20570.0 0.0020537
20590.0 0.0020357
20610.0 0.0020191
20630.0 0.0020037
20650.0 0.0019891
20670.0 0.0019753
20690.0 0.001962
20710.0 0.001949
20730.0 0.001936
20750.0 0.0019231
20770.0 0.0019098
20790.0 0.0018963
20810.0 0.0018822
20830.0 0.0018675
20850.0 0.0018522
20870.0 0.0018361
20890.0 0.0018191
20910.0 0.0018017
20930.0 0.0017834
20950.0 0.0017642
20970.0 0.0017446
20990.0 0.0017246
21010.0 0.0017037
21030.0 0.0016825
21050.0 0.0016612
21070.0 0.0016396
21090.0 0.0016174
21110.0 0.0015957
21130.0 0.0015742
21150.0 0.0015523
21170.0 0.0015308
21190.0 0.0015098
21210.0 0.0014888
21230.0 0.0014678
21250.0 0.0014477
21270.0 0.001428
21290.0 0.0014084
21310.0 0.0013894
21330.0 0.0013713
21350.0 0.0013534
21370.0 0.001336
21390.0 0.0013194
21410.0 0.0013034
21430.0 0.0012877
21450.0 0.0012729
21470.0 0.0012589
21490.0 0.0012454
21510.0 0.0012325
21530.0 0.0012203
21550.0 0.0012087
21570.0 0.0011976
21590.0 0.0011871
21610.0 0.001177
21630.0 0.0011674
21650.0 0.0011581
21670.0 0.0011492
21690.0 0.0011405
21710.0 0.001132
21730.0 0.0011238
21750.0 0.0011156
21770.0 0.0011076
21790.0 0.0010996
21810.0 0.0010918
21830.0 0.0010839
21850.0 0.0010761
21870.0 0.0010684
21890.0 0.0010607
21910.0 0.001053
21930.0 0.0010453
21950.0 0.0010376
21970.0 0.0010299
21990.0 0.0010222
22010.0 0.0010145
22030.0 0.0010067
22050.0 0.00099885
22070.0 0.00099088
22090.0 0.00098286
22110.0 0.00097468
22130.0 0.0009663
22150.0 0.0009578
22170.0 0.00094918
22190.0 0.00094024
22210.0 0.00093111
22230.0 0.00092195
22250.0 0.00091252
22270.0 0.00090281
22290.0 0.00089305
22310.0 0.00088317
22330.0 0.00087287
22350.0 0.00086246
22370.0 0.00085204
22390.0 0.00084134
22410.0 0.00083026
22430.0 0.00081932
22450.0 0.00080825
22470.0 0.00079681
22490.0 0.0007853
22510.0 0.00077393
22530.0 0.00076217
22550.0 0.00075019
22570.0 0.00073851
22590.0 0.00072684
22610.0 0.00071495
22630.0 0.00070325
22650.0 0.00069201
22670.0 0.00068066
22690.0 0.00066946
22710.0 0.00065878
22730.0 0.00064841
22750.0 0.000638
22770.0 0.00062823
22790.0 0.00061903
22810.0 0.00061005
22830.0 0.00060143
22850.0 0.00059345
22870.0 0.00058582
22890.0 0.00057842
22910.0 0.00057152
22930.0 0.00056507
22950.0 0.00055883
22970.0 0.00055284
22990.0 0.00054733
23010.0 0.00054201
23030.0 0.00053683
23050.0 0.0005319
23070.0 0.00052721
23090.0 0.00052253
23110.0 0.000518
23130.0 0.00051366
23150.0 0.0005094
23170.0 0.00050516
23190.0 0.00050106
23210.0 0.00049708
23230.0 0.00049309
23250.0 0.00048916
23270.0 0.00048535
23290.0 0.00048155
23310.0 0.00047771
23330.0 0.000474
23350.0 0.00047036
23370.0 0.00046669
23390.0 0.00046308
23410.0 0.0004596
23430.0 0.00045613
23450.0 0.00045273
23470.0 0.00044949
23490.0 0.00044638
23510.0 0.00044333
23530.0 0.00044045
23550.0 0.00043783
23570.0 0.00043535
23590.0 0.00043309
23610.0 0.0004311
23630.0 0.00042937
23650.0 0.00042791
23670.0 0.00042678
23690.0 0.00042598
23710.0 0.00042556
23730.0 0.00042557
23750.0 0.00042596
23770.0 0.00042678
23790.0 0.00042817
23810.0 0.00043005
23830.0 0.00043235
23850.0 0.00043534
23870.0 0.00043897
23890.0 0.00044293
23910.0 0.00044738
23930.0 0.00045245
23950.0 0.00045778
23970.0 0.00046312
23990.0 0.00046888
24010.0 0.00047475
24030.0 0.00048035
24050.0 0.00048583
24070.0 0.00049143
24090.0 0.00049648
24110.0 0.00050107
24130.0 0.00050551
24150.0 0.00050963
