#lamb flux
1010.0 1.0929e-05
1030.0 1.1448e-05
1050.0 1.273e-05
1070.0 1.4157e-05
1090.0 1.5647e-05
1110.0 1.7135e-05
1130.0 1.8592e-05
1150.0 2.0091e-05
1170.0 2.16e-05
1190.0 2.2961e-05
1210.0 2.4292e-05
1230.0 2.5621e-05
1250.0 2.6875e-05
1270.0 2.8017e-05
1290.0 2.9186e-05
1310.0 3.0292e-05
1330.0 3.1284e-05
1350.0 3.2265e-05
1370.0 3.3287e-05
1390.0 3.4287e-05
1410.0 3.5292e-05
1430.0 3.6441e-05
1450.0 3.77e-05
1470.0 3.9054e-05
1490.0 4.0599e-05
1510.0 4.243e-05
1530.0 4.4417e-05
1550.0 4.6643e-05
1570.0 4.9204e-05
1590.0 5.2072e-05
1610.0 5.52e-05
1630.0 5.8751e-05
1650.0 6.2697e-05
1670.0 6.694e-05
1690.0 7.1507e-05
1710.0 7.6484e-05
1730.0 8.1796e-05
1750.0 8.727e-05
1770.0 9.3047e-05
1790.0 9.907e-05
1810.0 0.00010516
1830.0 0.00011126
1850.0 0.00011751
1870.0 0.00012359
1890.0 0.00012941
1910.0 0.000135
1930.0 0.00014031
1950.0 0.00014504
1970.0 0.00014923
1990.0 0.00015294
2010.0 0.00015598
2030.0 0.00015826
2050.0 0.00015995
2070.0 0.00016103
2090.0 0.00016129
2110.0 0.00016092
2130.0 0.00016004
2150.0 0.00015859
2170.0 0.00015657
2190.0 0.00015426
2210.0 0.00015165
2230.0 0.00014871
2250.0 0.0001456
2270.0 0.0001425
2290.0 0.00013931
2310.0 0.00013608
2330.0 0.00013301
2350.0 0.00013011
2370.0 0.00012733
2390.0 0.00012483
2410.0 0.00012271
2430.0 0.00012091
2450.0 0.0001195
2470.0 0.00011863
2490.0 0.00011839
2510.0 0.00011869
2530.0 0.00011991
2550.0 0.00012253
2570.0 0.00012695
2590.0 0.00013374
2610.0 0.00014469
2630.0 0.00016022
2650.0 0.00017971
2670.0 0.00020375
2690.0 0.00023199
2710.0 0.0002613
2730.0 0.00029025
2750.0 0.00031968
2770.0 0.00034766
2790.0 0.00037378
2810.0 0.0003999
2830.0 0.0004277
2850.0 0.00045572
2870.0 0.00048548
2890.0 0.00051831
2910.0 0.0005535
2930.0 0.00058993
2950.0 0.00062959
2970.0 0.00067223
2990.0 0.0007163
3010.0 0.00079485
3030.0 0.0008464
3050.0 0.00089998
3070.0 0.00095293
3090.0 0.0010065
3110.0 0.0010578
3130.0 0.0011025
3150.0 0.0011386
3170.0 0.0011622
3190.0 0.0011808
3210.0 0.0012183
3230.0 0.0012706
3250.0 0.0012853
3270.0 0.0012525
3290.0 0.0012083
3310.0 0.0011886
3330.0 0.0011859
3350.0 0.0011941
3370.0 0.0012077
3390.0 0.0012307
3410.0 0.001247
3430.0 0.0012337
3450.0 0.0012359
3470.0 0.0012471
3490.0 0.0013785
3510.0 0.0017561
3530.0 0.0021718
3550.0 0.0024727
3570.0 0.0027094
3590.0 0.0028428
3610.0 0.002817
3630.0 0.0027523
3650.0 0.0029353
3670.0 0.003411
3690.0 0.0038777
3710.0 0.0042275
3730.0 0.0045391
3750.0 0.0048337
3770.0 0.0047627
3790.0 0.0044309
3810.0 0.0041137
3830.0 0.0038345
3850.0 0.0037704
3870.0 0.0040511
3890.0 0.0044241
3910.0 0.0047131
3930.0 0.0050156
3950.0 0.0055974
3970.0 0.0060639
3990.0 0.0058161
4010.0 0.0051424
4030.0 0.0044939
4050.0 0.0042406
4070.0 0.0041926
4090.0 0.0041105
4110.0 0.0040839
4130.0 0.0040466
4150.0 0.0040659
4170.0 0.0043158
4190.0 0.0046821
4210.0 0.0046691
4230.0 0.004516
4250.0 0.0044777
4270.0 0.0045798
4290.0 0.0048505
4310.0 0.0051068
4330.0 0.0049035
4350.0 0.0043217
4370.0 0.0038222
4390.0 0.0034042
4410.0 0.0030291
4430.0 0.0029587
4450.0 0.0031321
4470.0 0.0033077
4490.0 0.003545
4510.0 0.0040578
4530.0 0.005174
4550.0 0.0067788
4570.0 0.0078222
4590.0 0.0084465
4610.0 0.0094876
4630.0 0.010315
4650.0 0.0098065
4670.0 0.0082438
4690.0 0.0067891
4710.0 0.0059936
4730.0 0.0056356
4750.0 0.0051949
4770.0 0.0048322
4790.0 0.0050549
4810.0 0.0055144
4830.0 0.0056312
4850.0 0.00536
4870.0 0.0053688
4890.0 0.0057726
4910.0 0.0061386
4930.0 0.006272
4950.0 0.0061669
4970.0 0.0058088
4990.0 0.0052391
5010.0 0.004705
5030.0 0.0043382
5050.0 0.004125
5070.0 0.0039658
5090.0 0.0038094
5110.0 0.0037519
5130.0 0.00375
5150.0 0.0038509
5170.0 0.0042165
5190.0 0.0047497
5210.0 0.0053781
5230.0 0.0058541
5250.0 0.0061717
5270.0 0.0065592
5290.0 0.0070173
5310.0 0.0072466
5330.0 0.0070968
5350.0 0.0067697
5370.0 0.0067212
5390.0 0.0070948
5410.0 0.0076989
5430.0 0.008195
5450.0 0.008463
5470.0 0.0085017
5490.0 0.0083311
5510.0 0.0081413
5530.0 0.0080254
5550.0 0.0079582
5570.0 0.0078456
5590.0 0.0076589
5610.0 0.007385
5630.0 0.0069364
5650.0 0.0063571
5670.0 0.005919
5690.0 0.0057241
5710.0 0.0056386
5730.0 0.0055245
5750.0 0.0054075
5770.0 0.0053356
5790.0 0.0053431
5810.0 0.0053238
5830.0 0.005325
5850.0 0.005335
5870.0 0.0052137
5890.0 0.0050242
5910.0 0.0047708
5930.0 0.0043309
5950.0 0.0038847
5970.0 0.0036562
5990.0 0.0036388
6010.0 0.0036458
6030.0 0.0035267
6050.0 0.0034144
6070.0 0.0035453
6090.0 0.0038178
6110.0 0.0039763
6130.0 0.0039142
6150.0 0.0037535
6170.0 0.0036433
6190.0 0.0035505
6210.0 0.0033789
6230.0 0.0031238
6250.0 0.0029385
6270.0 0.0029005
6290.0 0.0029035
6310.0 0.0030227
6330.0 0.0032976
6350.0 0.0036287
6370.0 0.0038419
6390.0 0.0039577
6410.0 0.0040798
6430.0 0.0041757
6450.0 0.0042633
6470.0 0.0043655
6490.0 0.0044702
6510.0 0.0045543
6530.0 0.0045845
6550.0 0.0045834
6570.0 0.0044812
6590.0 0.0042688
6610.0 0.0040956
6630.0 0.0039832
6650.0 0.003837
6670.0 0.0036428
6690.0 0.0034783
6710.0 0.0033914
6730.0 0.0033178
6750.0 0.0032526
6770.0 0.0032245
6790.0 0.0031973
6810.0 0.0031252
6830.0 0.0030637
6850.0 0.0031167
6870.0 0.0031634
6890.0 0.0031176
6910.0 0.0030709
6930.0 0.0030344
6950.0 0.0029654
6970.0 0.0028601
6990.0 0.0027613
7010.0 0.0027001
7030.0 0.0026441
7050.0 0.0025235
7070.0 0.0023686
7090.0 0.0023288
7110.0 0.0024166
7130.0 0.0025548
7150.0 0.0026809
7170.0 0.0027787
7190.0 0.0028029
7210.0 0.0027224
7230.0 0.0026691
7250.0 0.0027029
7270.0 0.0026903
7290.0 0.0026566
7310.0 0.0026807
7330.0 0.0027716
7350.0 0.0028972
7370.0 0.0029762
7390.0 0.0030057
7410.0 0.0030053
7430.0 0.0029459
7450.0 0.0028504
7470.0 0.0027635
7490.0 0.0026617
7510.0 0.0025745
7530.0 0.0025505
7550.0 0.0025508
7570.0 0.0025555
7590.0 0.0025833
7610.0 0.0025867
7630.0 0.0025883
7650.0 0.0026641
7670.0 0.0027765
7690.0 0.002887
7710.0 0.0029784
7730.0 0.0030625
7750.0 0.0031539
7770.0 0.0032422
7790.0 0.0033176
7810.0 0.0033491
7830.0 0.003299
7850.0 0.0031934
7870.0 0.0030588
7890.0 0.0029264
7910.0 0.0028654
7930.0 0.002825
7950.0 0.0027684
7970.0 0.002712
7990.0 0.0026965
8010.0 0.0025433
8030.0 0.0025268
8050.0 0.0025055
8070.0 0.0024709
8090.0 0.0024379
8110.0 0.0024329
8130.0 0.002442
8150.0 0.002431
8170.0 0.0024093
8190.0 0.0023419
8210.0 0.0022112
8230.0 0.0020838
8250.0 0.0020198
8270.0 0.0019465
8290.0 0.0018278
8310.0 0.0017243
8330.0 0.0016628
8350.0 0.0016158
8370.0 0.0016363
8390.0 0.001735
8410.0 0.0018502
8430.0 0.0019772
8450.0 0.0021278
8470.0 0.0022451
8490.0 0.0023649
8510.0 0.0024755
8530.0 0.0025831
8550.0 0.0026732
8570.0 0.0027395
8590.0 0.0027932
8610.0 0.0028609
8630.0 0.0028825
8650.0 0.0028307
8670.0 0.0028367
8690.0 0.0029191
8710.0 0.0030208
8730.0 0.0030456
8750.0 0.0029912
8770.0 0.0029825
8790.0 0.0029775
8810.0 0.0029094
8830.0 0.0027047
8850.0 0.0024524
8870.0 0.0022706
8890.0 0.0021955
8910.0 0.0021023
8930.0 0.0019568
8950.0 0.001842
8970.0 0.0018115
8990.0 0.001833
9010.0 0.0018333
9030.0 0.001816
9050.0 0.0018021
9070.0 0.001792
9090.0 0.0017825
9110.0 0.0017732
9130.0 0.0017639
9150.0 0.0017547
9170.0 0.0017455
9190.0 0.0017365
9210.0 0.001728
9230.0 0.0017188
9250.0 0.0017099
9270.0 0.001701
9290.0 0.0016923
9310.0 0.0016837
9330.0 0.0016751
9350.0 0.0016666
9370.0 0.0016582
9390.0 0.0016499
9410.0 0.0016416
9430.0 0.0016331
9450.0 0.0016235
9470.0 0.0016144
9490.0 0.0016077
9510.0 0.0016004
9530.0 0.0015931
9550.0 0.0015854
9570.0 0.0015778
9590.0 0.0015702
9610.0 0.0015626
9630.0 0.001555
9650.0 0.0015474
9670.0 0.0015401
9690.0 0.0015326
9710.0 0.0015252
9730.0 0.0015179
9750.0 0.0015106
9770.0 0.0015032
9790.0 0.001496
9810.0 0.0014888
9830.0 0.0014816
9850.0 0.0014741
9870.0 0.0014671
9890.0 0.0014601
9910.0 0.001453
9930.0 0.001446
9950.0 0.0014384
9970.0 0.0014314
9990.0 0.0014244
10010.0 0.0014171
10030.0 0.0014099
10050.0 0.0014031
10070.0 0.0013964
10090.0 0.0013896
10110.0 0.001382
10130.0 0.0013718
10150.0 0.0013653
10170.0 0.0013594
10190.0 0.0013527
10210.0 0.0013461
10230.0 0.0013394
10250.0 0.0013322
10270.0 0.0013249
10290.0 0.0013179
10310.0 0.0013104
10330.0 0.0013026
10350.0 0.0012953
10370.0 0.0012879
10390.0 0.0012801
10410.0 0.0012723
10430.0 0.0012649
10450.0 0.0012571
10470.0 0.001249
10490.0 0.0012412
10510.0 0.0012334
10530.0 0.0012249
10550.0 0.0012166
10570.0 0.0012087
10590.0 0.0012003
10610.0 0.0011917
10630.0 0.0011834
10650.0 0.001175
10670.0 0.001166
10690.0 0.0011572
10710.0 0.0011485
10730.0 0.0011395
10750.0 0.0011299
10770.0 0.0011211
10790.0 0.0011119
10810.0 0.0011023
10830.0 0.0010929
10850.0 0.0010837
10870.0 0.0010737
10890.0 0.0010637
10910.0 0.001054
10930.0 0.0010442
10950.0 0.0010339
10970.0 0.0010239
10990.0 0.0010144
11010.0 0.0009734
11030.0 0.00096274
11050.0 0.0009528
11070.0 0.00094309
11090.0 0.00093318
11110.0 0.00092423
11130.0 0.00091583
11150.0 0.00090758
11170.0 0.0008998
11190.0 0.00089289
11210.0 0.0008863
11230.0 0.00088006
11250.0 0.00087457
11270.0 0.00086967
11290.0 0.00086505
11310.0 0.0008609
11330.0 0.00085739
11350.0 0.00085411
11370.0 0.000851
11390.0 0.00084817
11410.0 0.00084546
11430.0 0.00084257
11450.0 0.00083964
11470.0 0.00083661
11490.0 0.00083326
11510.0 0.00082945
11530.0 0.00082541
11550.0 0.000821
11570.0 0.00081594
11590.0 0.00081043
11610.0 0.0008046
11630.0 0.00079804
11650.0 0.00079073
11670.0 0.00078317
11690.0 0.00077505
11710.0 0.00076606
11730.0 0.00075653
11750.0 0.00074677
11770.0 0.00073605
11790.0 0.00072457
11810.0 0.00071287
11830.0 0.00070068
11850.0 0.00068736
11870.0 0.00067401
11890.0 0.0006608
11910.0 0.00064702
11930.0 0.00063301
11950.0 0.00061961
11970.0 0.00060627
11990.0 0.0005927
12010.0 0.00057987
12030.0 0.00056776
12050.0 0.00055583
12070.0 0.00054427
12090.0 0.00053397
12110.0 0.00052414
12130.0 0.00051472
12150.0 0.00050619
12170.0 0.00049855
12190.0 0.00049125
12210.0 0.0004848
12230.0 0.00047934
12250.0 0.00047461
12270.0 0.00047058
12290.0 0.00046746
12310.0 0.00046513
12330.0 0.00046345
12350.0 0.00046246
12370.0 0.00046206
12390.0 0.00046216
12410.0 0.00046278
12430.0 0.00046368
12450.0 0.00046481
12470.0 0.0004662
12490.0 0.00046773
12510.0 0.00046922
12530.0 0.00047079
12550.0 0.00047238
12570.0 0.0004738
12590.0 0.00047503
12610.0 0.00047614
12630.0 0.00047695
12650.0 0.00047731
12670.0 0.00047731
12690.0 0.00047682
12710.0 0.00047579
12730.0 0.00047421
12750.0 0.00047198
12770.0 0.00046915
12790.0 0.0004658
12810.0 0.00046187
12830.0 0.00045736
12850.0 0.0004526
12870.0 0.00044757
12890.0 0.00044216
12910.0 0.00043668
12930.0 0.00043131
12950.0 0.0004258
12970.0 0.0004203
12990.0 0.00041517
13010.0 0.00041022
13030.0 0.00040534
13050.0 0.00040076
13070.0 0.00039652
13090.0 0.00039235
13110.0 0.00038837
13130.0 0.00038469
13150.0 0.00038118
13170.0 0.00037772
13190.0 0.00037453
13210.0 0.00037158
13230.0 0.00036871
13250.0 0.00036597
13270.0 0.00036345
13290.0 0.00036103
13310.0 0.00035865
13330.0 0.0003564
13350.0 0.00035424
13370.0 0.00035205
13390.0 0.00034983
13410.0 0.00034767
13430.0 0.00034541
13450.0 0.00034301
13470.0 0.00034054
13490.0 0.00033799
13510.0 0.00033517
13530.0 0.00033222
13550.0 0.00032921
13570.0 0.00032602
13590.0 0.00032262
13610.0 0.00031919
13630.0 0.00031576
13650.0 0.00031213
13670.0 0.00030846
13690.0 0.00030488
13710.0 0.00030125
13730.0 0.00029746
13750.0 0.00029389
13770.0 0.00029037
13790.0 0.0002868
13810.0 0.0002833
13830.0 0.00028
13850.0 0.00027666
13870.0 0.00027336
13890.0 0.00027027
13910.0 0.00026731
13930.0 0.00026438
13950.0 0.00026161
13970.0 0.00025913
13990.0 0.00025674
14010.0 0.00025449
14030.0 0.00025246
14050.0 0.0002506
14070.0 0.0002488
14090.0 0.00024719
14110.0 0.00024573
14130.0 0.00024435
14150.0 0.00024303
14170.0 0.00024183
14190.0 0.0002407
14210.0 0.00023957
14230.0 0.00023849
14250.0 0.00023746
14270.0 0.00023641
14290.0 0.00023535
14310.0 0.00023434
14330.0 0.00023333
14350.0 0.00023227
14370.0 0.00023123
14390.0 0.00023023
14410.0 0.00022917
14430.0 0.00022812
14450.0 0.00022711
14470.0 0.00022611
14490.0 0.00022507
14510.0 0.00022408
14530.0 0.00022314
14550.0 0.00022215
14570.0 0.00022115
14590.0 0.00022018
14610.0 0.00021916
14630.0 0.00021806
14650.0 0.00021697
14670.0 0.00021588
14690.0 0.00021477
14710.0 0.00021369
14730.0 0.00021278
14750.0 0.00021202
14770.0 0.00021149
14790.0 0.00021129
14810.0 0.00021148
14830.0 0.00021215
14850.0 0.00021336
14870.0 0.00021507
14890.0 0.00021732
14910.0 0.00022011
14930.0 0.00022315
14950.0 0.00022629
14970.0 0.00022952
14990.0 0.00023248
15010.0 0.00023498
15030.0 0.00023708
15050.0 0.00023874
15070.0 0.0002399
15090.0 0.00024076
15110.0 0.0002414
15130.0 0.00024191
15150.0 0.00024234
15170.0 0.00024274
15190.0 0.00024313
15210.0 0.00024352
15230.0 0.00024392
15250.0 0.00024432
15270.0 0.00024474
15290.0 0.00024516
15310.0 0.00024559
15330.0 0.00024603
15350.0 0.00024648
15370.0 0.00024694
15390.0 0.00024741
15410.0 0.00024788
15430.0 0.00024836
15450.0 0.00024885
15470.0 0.00024935
15490.0 0.00024986
15510.0 0.00025038
15530.0 0.0002509
15550.0 0.00025143
15570.0 0.00025197
15590.0 0.00025251
15610.0 0.00025307
15630.0 0.00025363
15650.0 0.00025419
15670.0 0.00025477
15690.0 0.00025535
15710.0 0.00025594
15730.0 0.00025653
15750.0 0.00025713
15770.0 0.00025774
15790.0 0.00025835
15810.0 0.00025897
15830.0 0.00025959
15850.0 0.00026022
15870.0 0.00026086
15890.0 0.00026149
15910.0 0.00026214
15930.0 0.00026279
15950.0 0.00026344
15970.0 0.0002641
15990.0 0.00026477
16010.0 0.00026543
16030.0 0.0002661
16050.0 0.00026678
16070.0 0.00026746
16090.0 0.00026814
16110.0 0.00026882
16130.0 0.00026951
16150.0 0.0002702
16170.0 0.00027089
16190.0 0.00027159
16210.0 0.00027229
16230.0 0.00027299
16250.0 0.00027369
16270.0 0.00027439
16290.0 0.00027509
16310.0 0.0002758
16330.0 0.0002765
16350.0 0.00027721
16370.0 0.00027791
16390.0 0.00027862
16410.0 0.00027932
16430.0 0.00028003
16450.0 0.00028073
16470.0 0.00028144
16490.0 0.00028214
16510.0 0.00028284
16530.0 0.00028354
16550.0 0.00028423
16570.0 0.00028493
16590.0 0.00028562
16610.0 0.00028631
16630.0 0.000287
16650.0 0.00028768
16670.0 0.00028836
16690.0 0.00028903
16710.0 0.0002897
16730.0 0.00029037
16750.0 0.00029104
16770.0 0.00029169
16790.0 0.00029234
16810.0 0.00029299
16830.0 0.00029364
16850.0 0.00029427
16870.0 0.0002949
16890.0 0.00029553
16910.0 0.00029614
16930.0 0.00029675
16950.0 0.00029736
16970.0 0.00029795
16990.0 0.00029854
17010.0 0.00029912
17030.0 0.00029969
17050.0 0.00030025
17070.0 0.00030081
17090.0 0.00030135
17110.0 0.00030189
17130.0 0.00030242
17150.0 0.00030293
17170.0 0.00030344
17190.0 0.00030394
17210.0 0.00030443
17230.0 0.0003049
17250.0 0.00030537
17270.0 0.00030582
17290.0 0.00030626
17310.0 0.0003067
17330.0 0.00030712
17350.0 0.00030752
17370.0 0.00030792
17390.0 0.0003083
17410.0 0.00030867
17430.0 0.00030903
17450.0 0.00030937
17470.0 0.0003097
17490.0 0.00031002
17510.0 0.00031033
17530.0 0.00031062
17550.0 0.00031089
17570.0 0.00031115
17590.0 0.0003114
17610.0 0.00031163
17630.0 0.00031185
17650.0 0.00031206
17670.0 0.00031225
17690.0 0.00031242
17710.0 0.00031258
17730.0 0.00031272
17750.0 0.00031285
17770.0 0.00031296
17790.0 0.00031306
17810.0 0.00031314
17830.0 0.0003132
17850.0 0.00031325
17870.0 0.00031328
17890.0 0.00031329
17910.0 0.00031329
17930.0 0.00031327
17950.0 0.00031324
17970.0 0.00031319
17990.0 0.00031312
18010.0 0.00031303
18030.0 0.00031293
18050.0 0.00031281
18070.0 0.00031268
18090.0 0.00031252
18110.0 0.00031235
18130.0 0.00031217
18150.0 0.00031196
18170.0 0.00031174
18190.0 0.0003115
18210.0 0.00031125
18230.0 0.00031097
18250.0 0.00031068
18270.0 0.00031037
18290.0 0.00031005
18310.0 0.00030971
18330.0 0.00030935
18350.0 0.00030897
18370.0 0.00030858
18390.0 0.00030817
18410.0 0.00030774
18430.0 0.0003073
18450.0 0.00030683
18470.0 0.00030636
18490.0 0.00030586
18510.0 0.00030535
18530.0 0.00030482
18550.0 0.00030428
18570.0 0.00030371
18590.0 0.00030314
18610.0 0.00030254
18630.0 0.00030193
18650.0 0.00030131
18670.0 0.00030066
18690.0 0.00030001
18710.0 0.00029933
18730.0 0.00029864
18750.0 0.00029794
18770.0 0.00029722
18790.0 0.00029648
18810.0 0.00029573
18830.0 0.00029496
18850.0 0.00029418
18870.0 0.00029339
18890.0 0.00029258
18910.0 0.00029175
18930.0 0.00029091
18950.0 0.00029006
18970.0 0.0002892
18990.0 0.00028832
19010.0 0.00028742
19030.0 0.00028651
19050.0 0.0002856
19070.0 0.00028466
19090.0 0.00028372
19110.0 0.00028276
19130.0 0.00028179
19150.0 0.0002808
19170.0 0.00027981
19190.0 0.0002788
19210.0 0.00027778
19230.0 0.00027675
19250.0 0.00027571
19270.0 0.00027466
19290.0 0.0002736
19310.0 0.00027252
19330.0 0.00027144
19350.0 0.00027034
19370.0 0.00026924
19390.0 0.00026812
19410.0 0.000267
19430.0 0.00026587
19450.0 0.00026473
19470.0 0.00026358
19490.0 0.00026241
19510.0 0.00026125
19530.0 0.00026007
19550.0 0.00025889
19570.0 0.00025769
19590.0 0.00025649
19610.0 0.00025529
19630.0 0.00025407
19650.0 0.00025285
19670.0 0.00025162
19690.0 0.00025039
19710.0 0.00024915
19730.0 0.0002479
19750.0 0.00024665
19770.0 0.00024539
19790.0 0.00024413
19810.0 0.00024286
19830.0 0.00024158
19850.0 0.00024029
19870.0 0.00023897
19890.0 0.00023761
19910.0 0.00023617
19930.0 0.00023461
19950.0 0.00023288
19970.0 0.00023087
19990.0 0.00022854
20010.0 0.00022594
20030.0 0.00022294
20050.0 0.00021958
20070.0 0.00021603
20090.0 0.00021231
20110.0 0.0002083
20130.0 0.00020431
20150.0 0.00020041
20170.0 0.00019647
20190.0 0.00019253
20210.0 0.00018878
20230.0 0.00018511
20250.0 0.00018143
20270.0 0.00017791
20290.0 0.00017458
20310.0 0.0001713
20330.0 0.00016809
20350.0 0.00016516
20370.0 0.00016234
20390.0 0.00015962
20410.0 0.00015709
20430.0 0.00015476
20450.0 0.0001525
20470.0 0.00015041
20490.0 0.00014851
20510.0 0.00014674
20530.0 0.00014508
20550.0 0.00014358
20570.0 0.00014221
20590.0 0.00014093
20610.0 0.00013976
20630.0 0.00013868
20650.0 0.00013767
20670.0 0.00013673
20690.0 0.00013583
20710.0 0.00013497
20730.0 0.00013414
20750.0 0.00013332
20770.0 0.0001325
20790.0 0.00013166
20810.0 0.00013081
20830.0 0.00012992
20850.0 0.000129
20870.0 0.00012803
20890.0 0.00012701
20910.0 0.00012594
20930.0 0.00012481
20950.0 0.00012362
20970.0 0.00012239
20990.0 0.00012112
21010.0 0.00011977
21030.0 0.00011838
21050.0 0.00011697
21070.0 0.00011552
21090.0 0.00011401
21110.0 0.00011251
21130.0 0.00011099
21150.0 0.00010944
21170.0 0.00010789
21190.0 0.00010637
21210.0 0.00010482
21230.0 0.00010326
21250.0 0.00010174
21270.0 0.00010024
21290.0 9.8735e-05
21310.0 9.7259e-05
21330.0 9.5842e-05
21350.0 9.4428e-05
21370.0 9.3038e-05
21390.0 9.1706e-05
21410.0 9.0414e-05
21430.0 8.913e-05
21450.0 8.7912e-05
21470.0 8.6754e-05
21490.0 8.5629e-05
21510.0 8.4548e-05
21530.0 8.3532e-05
21550.0 8.256e-05
21570.0 8.1621e-05
21590.0 8.0736e-05
21610.0 7.9898e-05
21630.0 7.9092e-05
21650.0 7.8317e-05
21670.0 7.7584e-05
21690.0 7.6875e-05
21710.0 7.6185e-05
21730.0 7.5516e-05
21750.0 7.4864e-05
21770.0 7.4219e-05
21790.0 7.3583e-05
21810.0 7.2954e-05
21830.0 7.2328e-05
21850.0 7.17e-05
21870.0 7.1073e-05
21890.0 7.0446e-05
21910.0 6.9814e-05
21930.0 6.9177e-05
21950.0 6.8539e-05
21970.0 6.7894e-05
21990.0 6.7238e-05
22010.0 6.658e-05
22030.0 6.5917e-05
22050.0 6.524e-05
22070.0 6.4554e-05
22090.0 6.3866e-05
22110.0 6.3163e-05
22130.0 6.2442e-05
22150.0 6.1717e-05
22170.0 6.0983e-05
22190.0 6.0224e-05
22210.0 5.9452e-05
22230.0 5.8684e-05
22250.0 5.7897e-05
22270.0 5.7091e-05
22290.0 5.6286e-05
22310.0 5.5476e-05
22330.0 5.4638e-05
22350.0 5.38e-05
22370.0 5.2968e-05
22390.0 5.2122e-05
22410.0 5.1258e-05
22430.0 5.0414e-05
22450.0 4.9573e-05
22470.0 4.8716e-05
22490.0 4.7867e-05
22510.0 4.7039e-05
22530.0 4.6199e-05
22550.0 4.5358e-05
22570.0 4.4549e-05
22590.0 4.3753e-05
22610.0 4.2956e-05
22630.0 4.2184e-05
22650.0 4.1449e-05
22670.0 4.0719e-05
22690.0 4.0009e-05
22710.0 3.9338e-05
22730.0 3.8693e-05
22750.0 3.8055e-05
22770.0 3.746e-05
22790.0 3.6902e-05
22810.0 3.6362e-05
22830.0 3.5847e-05
22850.0 3.537e-05
22870.0 3.4914e-05
22890.0 3.4476e-05
22910.0 3.4066e-05
22930.0 3.368e-05
22950.0 3.3308e-05
22970.0 3.2952e-05
22990.0 3.2618e-05
23010.0 3.2296e-05
23030.0 3.1983e-05
23050.0 3.1682e-05
