#lamb flux
1010.0 5.3009e-07
1030.0 5.7534e-07
1050.0 6.2744e-07
1070.0 6.8611e-07
1090.0 7.5277e-07
1110.0 8.2118e-07
1130.0 8.9008e-07
1150.0 9.6231e-07
1170.0 1.0369e-06
1190.0 1.1077e-06
1210.0 1.1795e-06
1230.0 1.2538e-06
1250.0 1.3267e-06
1270.0 1.3976e-06
1290.0 1.4725e-06
1310.0 1.5476e-06
1330.0 1.6197e-06
1350.0 1.6927e-06
1370.0 1.7681e-06
1390.0 1.8419e-06
1410.0 1.9136e-06
1430.0 1.9886e-06
1450.0 2.0638e-06
1470.0 2.1366e-06
1490.0 2.2103e-06
1510.0 2.2882e-06
1530.0 2.3622e-06
1550.0 2.4353e-06
1570.0 2.511e-06
1590.0 2.5868e-06
1610.0 2.6593e-06
1630.0 2.734e-06
1650.0 2.8106e-06
1670.0 2.8847e-06
1690.0 2.9578e-06
1710.0 3.0335e-06
1730.0 3.1094e-06
1750.0 3.1806e-06
1770.0 3.2536e-06
1790.0 3.3278e-06
1810.0 3.3992e-06
1830.0 3.4689e-06
1850.0 3.5424e-06
1870.0 3.6134e-06
1890.0 3.6813e-06
1910.0 3.75e-06
1930.0 3.8196e-06
1950.0 3.8851e-06
1970.0 3.9488e-06
1990.0 4.0142e-06
2010.0 4.0775e-06
2030.0 4.1371e-06
2050.0 4.1977e-06
2070.0 4.259e-06
2090.0 4.3149e-06
2110.0 4.3693e-06
2130.0 4.4246e-06
2150.0 4.4771e-06
2170.0 4.5253e-06
2190.0 4.5746e-06
2210.0 4.6229e-06
2230.0 4.6669e-06
2250.0 4.7092e-06
2270.0 4.7529e-06
2290.0 4.7929e-06
2310.0 4.8287e-06
2330.0 4.8649e-06
2350.0 4.9e-06
2370.0 4.931e-06
2390.0 4.9611e-06
2410.0 4.9929e-06
2430.0 5.0218e-06
2450.0 5.0491e-06
2470.0 5.0796e-06
2490.0 5.1162e-06
2510.0 5.1606e-06
2530.0 5.2333e-06
2550.0 5.3674e-06
2570.0 5.5963e-06
2590.0 5.9594e-06
2610.0 6.5587e-06
2630.0 7.4168e-06
2650.0 8.4832e-06
2670.0 9.7662e-06
2690.0 1.1214e-05
2710.0 1.2622e-05
2730.0 1.3893e-05
2750.0 1.5049e-05
2770.0 1.5981e-05
2790.0 1.6683e-05
2810.0 1.7242e-05
2830.0 1.7725e-05
2850.0 1.8112e-05
2870.0 1.8469e-05
2890.0 1.8839e-05
2910.0 1.921e-05
2930.0 1.9564e-05
2950.0 1.9944e-05
2970.0 2.0342e-05
2990.0 2.0727e-05
3010.0 0.00014223
3030.0 0.00014497
3050.0 0.00014764
3070.0 0.0001499
3090.0 0.00015178
3110.0 0.00015269
3130.0 0.00015197
3150.0 0.000149
3170.0 0.0001426
3190.0 0.00013273
3210.0 0.00011978
3230.0 0.00010546
3250.0 0.00011641
3270.0 0.0001021
3290.0 0.00013166
3310.0 0.00010061
3330.0 0.00010177
3350.0 0.00010788
3370.0 0.00011557
3390.0 0.00012432
3410.0 0.00013322
3430.0 0.00014265
3450.0 0.00015246
3470.0 0.00016187
3490.0 0.00016971
3510.0 0.00018625
3530.0 0.00021193
3550.0 0.00021356
3570.0 0.00020183
3590.0 0.0002334
3610.0 0.00020367
3630.0 0.00025168
3650.0 0.00027603
3670.0 0.00031435
3690.0 0.00030404
3710.0 0.00025367
3730.0 0.00027961
3750.0 0.00028155
3770.0 0.00030403
3790.0 0.00032015
3810.0 0.00036144
3830.0 0.00050802
3850.0 0.00063582
3870.0 0.00075674
3890.0 0.00078265
3910.0 0.00075091
3930.0 0.00075827
3950.0 0.00079331
3970.0 0.00073883
3990.0 0.00044946
4010.0 0.00030391
4030.0 0.00050097
4050.0 0.00068097
4070.0 0.00064476
4090.0 0.0003841
4110.0 0.00030369
4130.0 0.00049925
4150.0 0.00056017
4170.0 0.00046787
4190.0 0.00039246
4210.0 0.00056314
4230.0 0.0005179
4250.0 0.00049942
4270.0 0.00049724
4290.0 0.00044803
4310.0 0.00054337
4330.0 0.00062661
4350.0 0.00064561
4370.0 0.00059615
4390.0 0.00062712
4410.0 0.00058975
4430.0 0.00044272
4450.0 0.00034798
4470.0 0.00041405
4490.0 0.00039168
4510.0 0.00056414
4530.0 0.00058037
4550.0 0.00059106
4570.0 0.00073756
4590.0 0.00085703
4610.0 0.0010149
4630.0 0.0013485
4650.0 0.0014854
4670.0 0.0015047
4690.0 0.0014423
4710.0 0.0014316
4730.0 0.0012673
4750.0 0.00093586
4770.0 0.00075993
4790.0 0.0005986
4810.0 0.00064384
4830.0 0.00073993
4850.0 0.00074811
4870.0 0.00067218
4890.0 0.00091907
4910.0 0.00094479
4930.0 0.0010236
4950.0 0.0012019
4970.0 0.0012418
4990.0 0.0014125
5010.0 0.0014638
5030.0 0.0013497
5050.0 0.0010801
5070.0 0.00077878
5090.0 0.00065602
5110.0 0.00066504
5130.0 0.00069564
5150.0 0.0006602
5170.0 0.00063532
5190.0 0.00067082
5210.0 0.0006899
5230.0 0.00075883
5250.0 0.0008142
5270.0 0.00078297
5290.0 0.00090516
5310.0 0.0011323
5330.0 0.0012381
5350.0 0.001165
5370.0 0.0011732
5390.0 0.0012692
5410.0 0.0012728
5430.0 0.0012359
5450.0 0.0012853
5470.0 0.0014224
5490.0 0.001692
5510.0 0.0020268
5530.0 0.0021123
5550.0 0.0021085
5570.0 0.0020777
5590.0 0.0019899
5610.0 0.0018844
5630.0 0.0018947
5650.0 0.0019661
5670.0 0.0019008
5690.0 0.0017226
5710.0 0.0016979
5730.0 0.001571
5750.0 0.0014018
5770.0 0.0012485
5790.0 0.0013242
5810.0 0.0014167
5830.0 0.0015619
5850.0 0.0015396
5870.0 0.0015074
5890.0 0.0015493
5910.0 0.0014311
5930.0 0.0013211
5950.0 0.001324
5970.0 0.0013825
5990.0 0.0012205
6010.0 0.0010323
6030.0 0.00089753
6050.0 0.00081227
6070.0 0.00076582
6090.0 0.00081841
6110.0 0.0009073
6130.0 0.00091143
6150.0 0.00091929
6170.0 0.00096436
6190.0 0.0010407
6210.0 0.0011959
6230.0 0.001393
6250.0 0.0012988
6270.0 0.0011377
6290.0 0.0009819
6310.0 0.00081409
6330.0 0.00071584
6350.0 0.00068696
6370.0 0.00073356
6390.0 0.00081854
6410.0 0.00098153
6430.0 0.0012057
6450.0 0.0013983
6470.0 0.0015494
6490.0 0.0017646
6510.0 0.0019234
6530.0 0.0018582
6550.0 0.0017776
6570.0 0.0017941
6590.0 0.0017929
6610.0 0.0017772
6630.0 0.001672
6650.0 0.0015094
6670.0 0.0014585
6690.0 0.0014298
6710.0 0.0014481
6730.0 0.0012664
6750.0 0.0010872
6770.0 0.0010686
6790.0 0.0011396
6810.0 0.0012742
6830.0 0.0012913
6850.0 0.0011869
6870.0 0.0011825
6890.0 0.0011666
6910.0 0.0010989
6930.0 0.0011142
6950.0 0.0010905
6970.0 0.0010756
6990.0 0.0011071
7010.0 0.0011757
7030.0 0.0011575
7050.0 0.0010639
7070.0 0.0010209
7090.0 0.00090215
7110.0 0.00078155
7130.0 0.00076976
7150.0 0.00081714
7170.0 0.00089176
7190.0 0.00089625
7210.0 0.00087032
7230.0 0.00095444
7250.0 0.0010292
7270.0 0.0010675
7290.0 0.0010915
7310.0 0.0010917
7330.0 0.0010283
7350.0 0.00095341
7370.0 0.00088796
7390.0 0.00087028
7410.0 0.00095483
7430.0 0.0011043
7450.0 0.0012126
7470.0 0.0013257
7490.0 0.0015352
7510.0 0.0015129
7530.0 0.0012649
7550.0 0.0010978
7570.0 0.00092018
7590.0 0.00080429
7610.0 0.00078151
7630.0 0.00077584
7650.0 0.00084035
7670.0 0.0009556
7690.0 0.0010487
7710.0 0.001195
7730.0 0.0012407
7750.0 0.0012842
7770.0 0.0013756
7790.0 0.0014313
7810.0 0.0014098
7830.0 0.0012956
7850.0 0.0012852
7870.0 0.0012512
7890.0 0.0011962
7910.0 0.0011083
7930.0 0.0010493
7950.0 0.00087843
7970.0 0.00084818
7990.0 0.00085205
8010.0 0.00098928
8030.0 0.00099107
8050.0 0.0010452
8070.0 0.0010174
8090.0 0.0010202
8110.0 0.0010021
8130.0 0.00096418
8150.0 0.00089532
8170.0 0.00088621
8190.0 0.00089394
8210.0 0.0009034
8230.0 0.00081573
8250.0 0.00075582
8270.0 0.00066647
8290.0 0.00055954
8310.0 0.0004691
8330.0 0.00035309
8350.0 0.00027483
8370.0 0.00025724
8390.0 0.00026298
8410.0 0.00029238
8430.0 0.00037396
8450.0 0.00041204
8470.0 0.00044495
8490.0 0.00050721
8510.0 0.00054963
8530.0 0.00061542
8550.0 0.00072826
8570.0 0.0008131
8590.0 0.00086861
8610.0 0.00098555
8630.0 0.0011359
8650.0 0.0011809
8670.0 0.0012058
8690.0 0.0012253
8710.0 0.0011943
8730.0 0.0011469
8750.0 0.0010607
8770.0 0.001052
8790.0 0.0010265
8810.0 0.00094684
8830.0 0.00092116
8850.0 0.00081898
8870.0 0.00076649
8890.0 0.00069543
8910.0 0.00077631
8930.0 0.00071627
8950.0 0.00072613
8970.0 0.00074342
8990.0 0.00073064
9010.0 0.00074412
9030.0 0.00071
9050.0 0.00070742
9070.0 0.00070815
9090.0 0.00070881
9110.0 0.00070995
9130.0 0.00071055
9150.0 0.00071088
9170.0 0.00070971
9190.0 0.00070649
9210.0 0.00071624
9230.0 0.00071446
9250.0 0.00071383
9270.0 0.00071349
9290.0 0.00071334
9310.0 0.00071332
9330.0 0.00071336
9350.0 0.00071346
9370.0 0.00071357
9390.0 0.00071364
9410.0 0.00071373
9430.0 0.00071384
9450.0 0.00071389
9470.0 0.00071394
9490.0 0.00071402
9510.0 0.00071407
9530.0 0.0007141
9550.0 0.00071418
9570.0 0.00071427
9590.0 0.00071434
9610.0 0.00071442
9630.0 0.00071456
9650.0 0.00071469
9670.0 0.00071479
9690.0 0.00071496
9710.0 0.00071516
9730.0 0.00071533
9750.0 0.00071554
9770.0 0.00071585
9790.0 0.00071612
9810.0 0.0007164
9830.0 0.00071675
9850.0 0.00071713
9870.0 0.00071748
9890.0 0.00071789
9910.0 0.00071837
9930.0 0.00071884
9950.0 0.00071862
9970.0 0.0007194
9990.0 0.00072018
10010.0 0.00072087
10030.0 0.00072157
10050.0 0.00072201
10070.0 0.00072088
10090.0 0.00072223
10110.0 0.00072355
10130.0 0.00072471
10150.0 0.00072578
10170.0 0.00072676
10190.0 0.00072764
10210.0 0.00072856
10230.0 0.0007295
10250.0 0.0007304
10270.0 0.00073132
10290.0 0.0007323
10310.0 0.00073325
10330.0 0.00073418
10350.0 0.00073518
10370.0 0.00073619
10390.0 0.00073717
10410.0 0.00073817
10430.0 0.00073923
10450.0 0.00074025
10470.0 0.00074125
10490.0 0.00074229
10510.0 0.00074333
10530.0 0.00074431
10550.0 0.00074532
10570.0 0.00074636
10590.0 0.00074736
10610.0 0.00074834
10630.0 0.00074935
10650.0 0.00075034
10670.0 0.00075127
10690.0 0.00075222
10710.0 0.00075317
10730.0 0.00075408
10750.0 0.00075494
10770.0 0.00075585
10790.0 0.00075671
10810.0 0.00075752
10830.0 0.00075829
10850.0 0.000759
10870.0 0.00075946
10890.0 0.00075955
10910.0 0.00075909
10930.0 0.00075761
10950.0 0.00075444
10970.0 0.00074924
10990.0 0.00074184
11010.0 0.00075803
11030.0 0.00074299
11050.0 0.0007256
11070.0 0.00070562
11090.0 0.00068255
11110.0 0.00065966
11130.0 0.00063684
11150.0 0.00061355
11170.0 0.00059106
11190.0 0.00057075
11210.0 0.00055138
11230.0 0.0005332
11250.0 0.00051742
11270.0 0.00050363
11290.0 0.00049104
11310.0 0.00048014
11330.0 0.00047118
11350.0 0.00046305
11370.0 0.00045557
11390.0 0.00044879
11410.0 0.00044228
11430.0 0.00043531
11450.0 0.00042811
11470.0 0.00042063
11490.0 0.0004124
11510.0 0.00040324
11530.0 0.00039386
11550.0 0.00038404
11570.0 0.00037342
11590.0 0.00036261
11610.0 0.00035202
11630.0 0.00034107
11650.0 0.00033001
11670.0 0.00031972
11690.0 0.0003098
11710.0 0.00029998
11730.0 0.00029077
11750.0 0.00028236
11770.0 0.00027411
11790.0 0.00026622
11810.0 0.00025898
11830.0 0.00025208
11850.0 0.00024514
11870.0 0.00023863
11890.0 0.00023249
11910.0 0.00022627
11930.0 0.00022005
11950.0 0.0002141
11970.0 0.00020811
11990.0 0.0002019
12010.0 0.00019586
12030.0 0.00018999
12050.0 0.00018405
12070.0 0.00017815
12090.0 0.00017281
12110.0 0.0001677
12130.0 0.00016285
12150.0 0.00015861
12170.0 0.00015503
12190.0 0.00015193
12210.0 0.00014965
12230.0 0.00014826
12250.0 0.00014768
12270.0 0.00014803
12290.0 0.00014927
12310.0 0.00015128
12330.0 0.00015421
12350.0 0.00015787
12370.0 0.00016199
12390.0 0.00016663
12410.0 0.00017189
12430.0 0.00017701
12450.0 0.00018208
12470.0 0.00018718
12490.0 0.00019199
12510.0 0.0001962
12530.0 0.00020008
12550.0 0.00020351
12570.0 0.00020622
12590.0 0.00020831
12610.0 0.00020989
12630.0 0.00021084
12650.0 0.00021118
12670.0 0.00021104
12690.0 0.00021042
12710.0 0.00020938
12730.0 0.000208
12750.0 0.00020622
12770.0 0.00020417
12790.0 0.00020194
12810.0 0.00019945
12830.0 0.00019669
12850.0 0.00019384
12870.0 0.00019083
12890.0 0.00018752
12910.0 0.00018403
12930.0 0.00018044
12950.0 0.00017648
12970.0 0.0001722
12990.0 0.00016789
13010.0 0.00016337
13030.0 0.00015854
13050.0 0.00015366
13070.0 0.00014891
13090.0 0.00014399
13110.0 0.00013912
13130.0 0.0001346
13150.0 0.00013033
13170.0 0.0001262
13190.0 0.00012263
13210.0 0.00011961
13230.0 0.00011699
13250.0 0.00011487
13270.0 0.00011334
13290.0 0.00011225
13310.0 0.0001116
13330.0 0.00011136
13350.0 0.00011145
13370.0 0.00011179
13390.0 0.00011231
13410.0 0.00011287
13430.0 0.00011345
13450.0 0.00011397
13470.0 0.00011437
13490.0 0.0001146
13510.0 0.00011467
13530.0 0.00011454
13550.0 0.00011424
13570.0 0.0001138
13590.0 0.00011323
13610.0 0.00011261
13630.0 0.00011196
13650.0 0.00011129
13670.0 0.00011066
13690.0 0.00011009
13710.0 0.00010959
13730.0 0.00010914
13750.0 0.00010877
13770.0 0.00010845
13790.0 0.00010815
13810.0 0.00010785
13830.0 0.00010754
13850.0 0.00010718
13870.0 0.00010673
13890.0 0.0001062
13910.0 0.00010558
13930.0 0.00010484
13950.0 0.00010399
13970.0 0.00010311
13990.0 0.00010215
14010.0 0.00010114
14030.0 0.00010016
14050.0 9.9222e-05
14070.0 9.8293e-05
14090.0 9.7466e-05
14110.0 9.6747e-05
14130.0 9.6115e-05
14150.0 9.5581e-05
14170.0 9.5166e-05
14190.0 9.4846e-05
14210.0 9.4616e-05
14230.0 9.4483e-05
14250.0 9.4437e-05
14270.0 9.449e-05
14290.0 9.4653e-05
14310.0 9.4904e-05
14330.0 9.5259e-05
14350.0 9.5742e-05
14370.0 9.632e-05
14390.0 9.6967e-05
14410.0 9.7737e-05
14430.0 9.8593e-05
14450.0 9.9479e-05
14470.0 0.00010042
14490.0 0.00010147
14510.0 0.00010252
14530.0 0.00010358
14550.0 0.00010475
14570.0 0.00010601
14590.0 0.00010731
14610.0 0.00010877
14630.0 0.00011046
14650.0 0.00011228
14670.0 0.00011428
14690.0 0.00011657
14710.0 0.00011916
14730.0 0.0001218
14750.0 0.00012471
14770.0 0.0001279
14790.0 0.00013113
14810.0 0.00013438
14830.0 0.00013787
14850.0 0.00014128
14870.0 0.00014445
14890.0 0.00014751
14910.0 0.0001504
14930.0 0.00015285
14950.0 0.0001549
14970.0 0.00015661
14990.0 0.00015785
15010.0 0.00015862
15030.0 0.00015903
15050.0 0.00015913
15070.0 0.00015896
15090.0 0.00015862
15110.0 0.00015817
15130.0 0.00015766
15150.0 0.00015713
15170.0 0.00015658
15190.0 0.00015601
15210.0 0.00015545
15230.0 0.0001549
15250.0 0.00015433
15270.0 0.00015377
15290.0 0.00015323
15310.0 0.00015268
15330.0 0.00015212
15350.0 0.00015159
15370.0 0.00015105
15390.0 0.0001505
15410.0 0.00014996
15430.0 0.00014943
15450.0 0.0001489
15470.0 0.00014836
15490.0 0.00014784
15510.0 0.00014732
15530.0 0.00014679
15550.0 0.00014627
15570.0 0.00014576
15590.0 0.00014524
15610.0 0.00014471
15630.0 0.00014421
15650.0 0.00014371
15670.0 0.00014319
15690.0 0.00014268
15710.0 0.00014219
15730.0 0.00014169
15750.0 0.00014118
15770.0 0.00014069
15790.0 0.0001402
15810.0 0.00013968
15830.0 0.00013919
15850.0 0.00013871
15870.0 0.00013822
15890.0 0.00013772
15910.0 0.00013725
15930.0 0.00013677
15950.0 0.00013627
15970.0 0.00013579
15990.0 0.00013532
16010.0 0.00013483
16030.0 0.00013434
16050.0 0.00013388
16070.0 0.0001334
16090.0 0.00013292
16110.0 0.00013245
16130.0 0.00013199
16150.0 0.0001315
16170.0 0.00013102
16190.0 0.00013056
16210.0 0.00013009
16230.0 0.00012961
16250.0 0.00012915
16270.0 0.00012869
16290.0 0.00012822
16310.0 0.00012775
16330.0 0.00012729
16350.0 0.00012683
16370.0 0.00012635
16390.0 0.00012589
16410.0 0.00012543
16430.0 0.00012496
16450.0 0.0001245
16470.0 0.00012405
16490.0 0.00012358
16510.0 0.00012311
16530.0 0.00012266
16550.0 0.0001222
16570.0 0.00012173
16590.0 0.00012126
16610.0 0.00012081
16630.0 0.00012035
16650.0 0.00011988
16670.0 0.00011943
16690.0 0.00011897
16710.0 0.0001185
16730.0 0.00011803
16750.0 0.00011758
16770.0 0.00011711
16790.0 0.00011664
16810.0 0.00011619
16830.0 0.00011573
16850.0 0.00011526
16870.0 0.0001148
16890.0 0.00011435
16910.0 0.00011387
16930.0 0.0001134
16950.0 0.00011294
16970.0 0.00011248
16990.0 0.00011201
17010.0 0.00011154
17030.0 0.00011109
17050.0 0.00011062
17070.0 0.00011014
17090.0 0.00010968
17110.0 0.00010922
17130.0 0.00010873
17150.0 0.00010827
17170.0 0.00010781
17190.0 0.00010733
17210.0 0.00010686
17230.0 0.0001064
17250.0 0.00010593
17270.0 0.00010545
17290.0 0.00010498
17310.0 0.00010451
17330.0 0.00010403
17350.0 0.00010355
17370.0 0.00010309
17390.0 0.00010261
17410.0 0.00010213
17430.0 0.00010166
17450.0 0.0001012
17470.0 0.0001007
17490.0 0.00010022
17510.0 9.9753e-05
17530.0 9.9275e-05
17550.0 9.8787e-05
17570.0 9.8314e-05
17590.0 9.7845e-05
17610.0 9.7357e-05
17630.0 9.6874e-05
17650.0 9.6404e-05
17670.0 9.5922e-05
17690.0 9.5422e-05
17710.0 9.4949e-05
17730.0 9.4475e-05
17750.0 9.3985e-05
17770.0 9.3501e-05
17790.0 9.3033e-05
17810.0 9.2544e-05
17830.0 9.2051e-05
17850.0 9.1574e-05
17870.0 9.1096e-05
17890.0 9.06e-05
17910.0 9.0111e-05
17930.0 8.9641e-05
17950.0 8.9154e-05
17970.0 8.8662e-05
17990.0 8.8186e-05
18010.0 8.7709e-05
18030.0 8.7207e-05
18050.0 8.6722e-05
18070.0 8.6246e-05
18090.0 8.5757e-05
18110.0 8.5262e-05
18130.0 8.4787e-05
18150.0 8.4308e-05
18170.0 8.3814e-05
18190.0 8.333e-05
18210.0 8.2856e-05
18230.0 8.2363e-05
18250.0 8.1866e-05
18270.0 8.1392e-05
18290.0 8.0911e-05
18310.0 8.0418e-05
18330.0 7.9937e-05
18350.0 7.9466e-05
18370.0 7.8974e-05
18390.0 7.8485e-05
18410.0 7.801e-05
18430.0 7.753e-05
18450.0 7.7032e-05
18470.0 7.6554e-05
18490.0 7.6083e-05
18510.0 7.5596e-05
18530.0 7.5112e-05
18550.0 7.4644e-05
18570.0 7.4164e-05
18590.0 7.3671e-05
18610.0 7.3196e-05
18630.0 7.2725e-05
18650.0 7.2239e-05
18670.0 7.1754e-05
18690.0 7.1291e-05
18710.0 7.0816e-05
18730.0 7.0333e-05
18750.0 6.9863e-05
18770.0 6.9399e-05
18790.0 6.891e-05
18810.0 6.8433e-05
18830.0 6.797e-05
18850.0 6.7498e-05
18870.0 6.7018e-05
18890.0 6.6556e-05
18910.0 6.6095e-05
18930.0 6.5617e-05
18950.0 6.5148e-05
18970.0 6.469e-05
18990.0 6.4222e-05
19010.0 6.3739e-05
19030.0 6.3285e-05
19050.0 6.2827e-05
19070.0 6.2357e-05
19090.0 6.1895e-05
19110.0 6.1448e-05
19130.0 6.0981e-05
19150.0 6.0513e-05
19170.0 6.0061e-05
19190.0 5.9608e-05
19210.0 5.914e-05
19230.0 5.8682e-05
19250.0 5.8241e-05
19270.0 5.7784e-05
19290.0 5.7326e-05
19310.0 5.6883e-05
19330.0 5.6438e-05
19350.0 5.5973e-05
19370.0 5.5525e-05
19390.0 5.5086e-05
19410.0 5.4635e-05
19430.0 5.4182e-05
19450.0 5.3748e-05
19470.0 5.3309e-05
19490.0 5.2858e-05
19510.0 5.2419e-05
19530.0 5.1989e-05
19550.0 5.1541e-05
19570.0 5.1092e-05
19590.0 5.0666e-05
19610.0 5.0233e-05
19630.0 4.979e-05
19650.0 4.936e-05
19670.0 4.8939e-05
19690.0 4.8499e-05
19710.0 4.8063e-05
19730.0 4.7642e-05
19750.0 4.7216e-05
19770.0 4.6774e-05
19790.0 4.6353e-05
19810.0 4.5937e-05
19830.0 4.5506e-05
19850.0 4.5075e-05
19870.0 4.4655e-05
19890.0 4.4209e-05
19910.0 4.3728e-05
19930.0 4.3228e-05
19950.0 4.2675e-05
19970.0 4.2024e-05
19990.0 4.1278e-05
20010.0 4.047e-05
20030.0 3.9541e-05
20050.0 3.8514e-05
20070.0 3.7468e-05
20090.0 3.6411e-05
20110.0 3.5302e-05
20130.0 3.4268e-05
20150.0 3.3324e-05
20170.0 3.2427e-05
20190.0 3.16e-05
20210.0 3.0888e-05
20230.0 3.0258e-05
20250.0 2.9687e-05
20270.0 2.9213e-05
20290.0 2.8827e-05
20310.0 2.8504e-05
20330.0 2.825e-05
20350.0 2.8081e-05
20370.0 2.7973e-05
20390.0 2.7929e-05
20410.0 2.7951e-05
20430.0 2.803e-05
20450.0 2.8178e-05
20470.0 2.8393e-05
20490.0 2.8662e-05
20510.0 2.8993e-05
20530.0 2.94e-05
20550.0 2.9856e-05
20570.0 3.0346e-05
20590.0 3.0902e-05
20610.0 3.1501e-05
20630.0 3.2108e-05
20650.0 3.274e-05
20670.0 3.3415e-05
20690.0 3.4058e-05
20710.0 3.4677e-05
20730.0 3.5294e-05
20750.0 3.5885e-05
20770.0 3.6416e-05
20790.0 3.6923e-05
20810.0 3.7409e-05
20830.0 3.7849e-05
20850.0 3.8255e-05
20870.0 3.8662e-05
20890.0 3.9055e-05
20910.0 3.9423e-05
20930.0 3.9801e-05
20950.0 4.0193e-05
20970.0 4.0578e-05
20990.0 4.0959e-05
21010.0 4.1362e-05
21030.0 4.175e-05
21050.0 4.2111e-05
21070.0 4.2455e-05
21090.0 4.2776e-05
21110.0 4.3037e-05
21130.0 4.3248e-05
21150.0 4.3413e-05
21170.0 4.3516e-05
21190.0 4.3558e-05
21210.0 4.3544e-05
21230.0 4.3468e-05
21250.0 4.3339e-05
21270.0 4.3163e-05
21290.0 4.2933e-05
21310.0 4.2664e-05
21330.0 4.2371e-05
21350.0 4.2041e-05
21370.0 4.168e-05
21390.0 4.1313e-05
21410.0 4.0934e-05
21430.0 4.0526e-05
21450.0 4.0129e-05
21470.0 3.9745e-05
21490.0 3.9358e-05
21510.0 3.8978e-05
21530.0 3.863e-05
21550.0 3.83e-05
21570.0 3.7984e-05
21590.0 3.7706e-05
21610.0 3.7466e-05
21630.0 3.7257e-05
21650.0 3.7087e-05
21670.0 3.697e-05
21690.0 3.6897e-05
21710.0 3.6872e-05
21730.0 3.6899e-05
21750.0 3.6973e-05
21770.0 3.7106e-05
21790.0 3.7293e-05
21810.0 3.7523e-05
21830.0 3.7805e-05
21850.0 3.8148e-05
21870.0 3.8528e-05
21890.0 3.8935e-05
21910.0 3.9398e-05
21930.0 3.9897e-05
21950.0 4.0406e-05
21970.0 4.0947e-05
21990.0 4.1535e-05
22010.0 4.2108e-05
22030.0 4.2679e-05
22050.0 4.3271e-05
22070.0 4.3857e-05
22090.0 4.4403e-05
22110.0 4.4944e-05
22130.0 4.5472e-05
22150.0 4.5948e-05
22170.0 4.6379e-05
22190.0 4.678e-05
22210.0 4.7121e-05
22230.0 4.7385e-05
22250.0 4.7591e-05
22270.0 4.7726e-05
22290.0 4.7779e-05
22310.0 4.7756e-05
22330.0 4.7647e-05
22350.0 4.7451e-05
22370.0 4.7177e-05
22390.0 4.6814e-05
22410.0 4.6351e-05
22430.0 4.583e-05
22450.0 4.5241e-05
22470.0 4.4559e-05
22490.0 4.3819e-05
22510.0 4.305e-05
22530.0 4.2199e-05
22550.0 4.1287e-05
22570.0 4.0381e-05
22590.0 3.9449e-05
22610.0 3.8467e-05
22630.0 3.7487e-05
22650.0 3.6546e-05
22670.0 3.5574e-05
22690.0 3.4603e-05
22710.0 3.3682e-05
22730.0 3.2787e-05
22750.0 3.1871e-05
