#lamb flux
1010.0 1.4148e-07
1030.0 1.5648e-07
1050.0 1.7373e-07
1070.0 1.9315e-07
1090.0 2.1521e-07
1110.0 2.3783e-07
1130.0 2.606e-07
1150.0 2.8446e-07
1170.0 3.0906e-07
1190.0 3.3239e-07
1210.0 3.5603e-07
1230.0 3.8047e-07
1250.0 4.0441e-07
1270.0 4.2766e-07
1290.0 4.5222e-07
1310.0 4.7677e-07
1330.0 5.0031e-07
1350.0 5.2412e-07
1370.0 5.487e-07
1390.0 5.7266e-07
1410.0 5.9592e-07
1430.0 6.2023e-07
1450.0 6.4453e-07
1470.0 6.6803e-07
1490.0 6.9178e-07
1510.0 7.1687e-07
1530.0 7.4064e-07
1550.0 7.641e-07
1570.0 7.8838e-07
1590.0 8.1268e-07
1610.0 8.3591e-07
1630.0 8.5986e-07
1650.0 8.8445e-07
1670.0 9.0826e-07
1690.0 9.3177e-07
1710.0 9.5621e-07
1730.0 9.808e-07
1750.0 1.0039e-06
1770.0 1.0278e-06
1790.0 1.0522e-06
1810.0 1.0758e-06
1830.0 1.099e-06
1850.0 1.1237e-06
1870.0 1.1478e-06
1890.0 1.1711e-06
1910.0 1.195e-06
1930.0 1.2194e-06
1950.0 1.2428e-06
1970.0 1.266e-06
1990.0 1.2901e-06
2010.0 1.3139e-06
2030.0 1.3368e-06
2050.0 1.3605e-06
2070.0 1.3849e-06
2090.0 1.4079e-06
2110.0 1.431e-06
2130.0 1.4547e-06
2150.0 1.4781e-06
2170.0 1.5005e-06
2190.0 1.5238e-06
2210.0 1.5472e-06
2230.0 1.5698e-06
2250.0 1.5923e-06
2270.0 1.6158e-06
2290.0 1.6386e-06
2310.0 1.6606e-06
2330.0 1.6834e-06
2350.0 1.7068e-06
2370.0 1.7302e-06
2390.0 1.7555e-06
2410.0 1.7854e-06
2430.0 1.8199e-06
2450.0 1.861e-06
2470.0 1.9138e-06
2490.0 1.9803e-06
2510.0 2.0559e-06
2530.0 2.1469e-06
2550.0 2.2608e-06
2570.0 2.4025e-06
2590.0 2.5869e-06
2610.0 2.8628e-06
2630.0 3.2569e-06
2650.0 3.7721e-06
2670.0 4.4382e-06
2690.0 5.2567e-06
2710.0 6.1305e-06
2730.0 6.9939e-06
2750.0 7.8443e-06
2770.0 8.584e-06
2790.0 9.1714e-06
2810.0 9.6375e-06
2830.0 1.0002e-05
2850.0 1.025e-05
2870.0 1.0433e-05
2890.0 1.0577e-05
2910.0 1.0693e-05
2930.0 1.0787e-05
2950.0 1.0877e-05
2970.0 1.0965e-05
2990.0 1.1047e-05
3010.0 0.00031225
3030.0 0.00031459
3050.0 0.00031684
3070.0 0.00031877
3090.0 0.00032044
3110.0 0.00032147
3130.0 0.00032143
3150.0 0.00032
3170.0 0.00031657
3190.0 0.00031119
3210.0 0.00030436
3230.0 0.00029655
3250.0 0.00028884
3270.0 0.0002832
3290.0 0.00028007
3310.0 0.00028058
3330.0 0.00028464
3350.0 0.00029171
3370.0 0.00030181
3390.0 0.00031454
3410.0 0.00032838
3430.0 0.00034393
3450.0 0.00036183
3470.0 0.00038137
3490.0 0.00040209
3510.0 0.0004255
3530.0 0.00045057
3550.0 0.00047595
3570.0 0.00050243
3590.0 0.00053123
3610.0 0.0005609
3630.0 0.00059048
3650.0 0.00062117
3670.0 0.00064919
3690.0 0.00067013
3710.0 0.00068214
3730.0 0.00068253
3750.0 0.00067304
3770.0 0.0006693
3790.0 0.00066532
3810.0 0.00064897
3830.0 0.00066906
3850.0 0.00074809
3870.0 0.00079147
3890.0 0.00078786
3910.0 0.00079122
3930.0 0.00081205
3950.0 0.00082487
3970.0 0.00075153
3990.0 0.00064666
4010.0 0.0019381
4030.0 0.0023483
4050.0 0.0026922
4070.0 0.0023359
4090.0 0.0021156
4110.0 0.0018669
4130.0 0.0017183
4150.0 0.0018277
4170.0 0.0018004
4190.0 0.0019191
4210.0 0.0019015
4230.0 0.0020113
4250.0 0.0023794
4270.0 0.0024074
4290.0 0.0022184
4310.0 0.002305
4330.0 0.0024519
4350.0 0.0027491
4370.0 0.0031286
4390.0 0.0029358
4410.0 0.0021691
4430.0 0.0018363
4450.0 0.0016873
4470.0 0.0012951
4490.0 0.0013975
4510.0 0.002111
4530.0 0.0024346
4550.0 0.0024557
4570.0 0.0027633
4590.0 0.0031477
4610.0 0.0042455
4630.0 0.005514
4650.0 0.0059799
4670.0 0.005538
4690.0 0.0052842
4710.0 0.0055858
4730.0 0.0052714
4750.0 0.003941
4770.0 0.0028909
4790.0 0.0026995
4810.0 0.0025731
4830.0 0.0023556
4850.0 0.0025849
4870.0 0.0034149
4890.0 0.0040271
4910.0 0.0035333
4930.0 0.0031265
4950.0 0.0034349
4970.0 0.004405
4990.0 0.0059699
5010.0 0.0068676
5030.0 0.0060556
5050.0 0.004097
5070.0 0.0027001
5090.0 0.0021772
5110.0 0.0022391
5130.0 0.0025842
5150.0 0.0027998
5170.0 0.0027578
5190.0 0.002577
5210.0 0.0026935
5230.0 0.0028315
5250.0 0.0030515
5270.0 0.0032924
5290.0 0.0036486
5310.0 0.0042468
5330.0 0.0046996
5350.0 0.0046696
5370.0 0.004905
5390.0 0.0056285
5410.0 0.0056234
5430.0 0.0049731
5450.0 0.0045691
5470.0 0.0048515
5490.0 0.0059272
5510.0 0.007411
5530.0 0.0085
5550.0 0.0082153
5570.0 0.0074682
5590.0 0.0064937
5610.0 0.0059886
5630.0 0.005807
5650.0 0.0055306
5670.0 0.0052406
5690.0 0.0046851
5710.0 0.004568
5730.0 0.0042078
5750.0 0.0029667
5770.0 0.0023145
5790.0 0.0026228
5810.0 0.0029616
5830.0 0.0036343
5850.0 0.0043262
5870.0 0.0047999
5890.0 0.0048812
5910.0 0.0047888
5930.0 0.0045584
5950.0 0.0046449
5970.0 0.0052946
5990.0 0.0049783
6010.0 0.0041733
6030.0 0.0035258
6050.0 0.0030705
6070.0 0.0030537
6090.0 0.0033113
6110.0 0.0037026
6130.0 0.0037593
6150.0 0.0032345
6170.0 0.0028454
6190.0 0.0032021
6210.0 0.0042331
6230.0 0.005555
6250.0 0.0060168
6270.0 0.0052579
6290.0 0.0044237
6310.0 0.0034535
6330.0 0.002646
6350.0 0.0023602
6370.0 0.002482
6390.0 0.0028693
6410.0 0.003538
6430.0 0.0041314
6450.0 0.0047274
6470.0 0.005413
6490.0 0.0065386
6510.0 0.007311
6530.0 0.0071725
6550.0 0.0064859
6570.0 0.0055059
6590.0 0.0049648
6610.0 0.004281
6630.0 0.0038784
6650.0 0.0036662
6670.0 0.0035616
6690.0 0.0032181
6710.0 0.0029253
6730.0 0.0021071
6750.0 0.0020889
6770.0 0.0022705
6790.0 0.0026098
6810.0 0.002388
6830.0 0.002459
6850.0 0.0022999
6870.0 0.002101
6890.0 0.0020173
6910.0 0.0021497
6930.0 0.0020135
6950.0 0.0020715
6970.0 0.0021789
6990.0 0.0024732
7010.0 0.0024943
7030.0 0.0025339
7050.0 0.0024165
7070.0 0.0023025
7090.0 0.0023092
7110.0 0.002376
7130.0 0.0025569
7150.0 0.0027157
7170.0 0.0029966
7190.0 0.0032941
7210.0 0.0032368
7230.0 0.0033275
7250.0 0.003576
7270.0 0.0038969
7290.0 0.0046252
7310.0 0.0050188
7330.0 0.0048511
7350.0 0.0043875
7370.0 0.0038176
7390.0 0.0037035
7410.0 0.0039357
7430.0 0.004374
7450.0 0.0047641
7470.0 0.0047204
7490.0 0.0043041
7510.0 0.0048754
7530.0 0.0048221
7550.0 0.0043342
7570.0 0.0033858
7590.0 0.0023276
7610.0 0.0019978
7630.0 0.0022699
7650.0 0.0026839
7670.0 0.0033403
7690.0 0.0036758
7710.0 0.0038306
7730.0 0.0040255
7750.0 0.0045191
7770.0 0.0045902
7790.0 0.0042163
7810.0 0.0038472
7830.0 0.0039673
7850.0 0.0038566
7870.0 0.0035359
7890.0 0.0029708
7910.0 0.0024149
7930.0 0.0023059
7950.0 0.0021007
7970.0 0.0019446
7990.0 0.0019335
8010.0 0.0001432
8030.0 0.00014134
8050.0 0.00013944
8070.0 0.00014126
8090.0 0.00015178
8110.0 0.0001492
8130.0 0.00012307
8150.0 0.00011986
8170.0 0.00010324
8190.0 9.7842e-05
8210.0 0.00012706
8230.0 0.00014146
8250.0 0.0001275
8270.0 0.00011097
8290.0 0.00010818
8310.0 8.3259e-05
8330.0 5.6116e-05
8350.0 3.9825e-05
8370.0 2.5092e-05
8390.0 4.5867e-05
8410.0 5.3448e-05
8430.0 6.5884e-05
8450.0 7.7366e-05
8470.0 9.6161e-05
8490.0 9.5484e-05
8510.0 9.3923e-05
8530.0 9.8022e-05
8550.0 0.00013225
8570.0 0.00015657
8590.0 0.00016894
8610.0 0.0002134
8630.0 0.00025708
8650.0 0.00026893
8670.0 0.00028579
8690.0 0.0002874
8710.0 0.00026028
8730.0 0.0002421
8750.0 0.0002137
8770.0 0.00020277
8790.0 0.00019921
8810.0 0.00019089
8830.0 0.00015265
8850.0 0.00011175
8870.0 8.5564e-05
8890.0 8.3653e-05
8910.0 9.5869e-05
8930.0 0.00010904
8950.0 0.00011113
8970.0 0.00011166
8990.0 9.9587e-05
9010.0 0.0010436
9030.0 0.00094564
9050.0 0.0009502
9070.0 0.00095771
9090.0 0.00096429
9110.0 0.00097241
9130.0 0.00097867
9150.0 0.00098355
9170.0 0.00098874
9190.0 0.00099429
9210.0 0.0010001
9230.0 0.0010063
9250.0 0.0010126
9270.0 0.001019
9290.0 0.0010257
9310.0 0.0010325
9330.0 0.0010393
9350.0 0.0010465
9370.0 0.0010537
9390.0 0.001061
9410.0 0.0010684
9430.0 0.0010762
9450.0 0.0010838
9470.0 0.0010917
9490.0 0.0010998
9510.0 0.0011079
9530.0 0.0011161
9550.0 0.0011246
9570.0 0.0011333
9590.0 0.0011419
9610.0 0.0011508
9630.0 0.0011598
9650.0 0.0011689
9670.0 0.0011781
9690.0 0.0011875
9710.0 0.001197
9730.0 0.0012066
9750.0 0.0012163
9770.0 0.0012262
9790.0 0.0012362
9810.0 0.0012462
9830.0 0.0012565
9850.0 0.0012668
9870.0 0.0012771
9890.0 0.0012876
9910.0 0.0012983
9930.0 0.001309
9950.0 0.0013198
9970.0 0.0013307
9990.0 0.0013418
10010.0 0.0011643
10030.0 0.0011739
10050.0 0.0011836
10070.0 0.0011937
10090.0 0.0012032
10110.0 0.0012129
10130.0 0.0012227
10150.0 0.0012325
10170.0 0.0012423
10190.0 0.0012524
10210.0 0.0012623
10230.0 0.0012722
10250.0 0.0012822
10270.0 0.0012923
10290.0 0.0013022
10310.0 0.0013122
10330.0 0.0013224
10350.0 0.0013324
10370.0 0.0013423
10390.0 0.0013524
10410.0 0.0013624
10430.0 0.0013722
10450.0 0.0013821
10470.0 0.001392
10490.0 0.0014018
10510.0 0.0014115
10530.0 0.0014213
10550.0 0.001431
10570.0 0.0014405
10590.0 0.0014501
10610.0 0.0014596
10630.0 0.0014689
10650.0 0.0014781
10670.0 0.0014875
10690.0 0.0014966
10710.0 0.0015055
10730.0 0.0015145
10750.0 0.0015235
10770.0 0.0015321
10790.0 0.0015406
10810.0 0.0015491
10830.0 0.0015574
10850.0 0.0015653
10870.0 0.0015729
10890.0 0.0015795
10910.0 0.0015847
10930.0 0.0015876
10950.0 0.0015869
10970.0 0.0015815
10990.0 0.001571
11010.0 0.0015534
11030.0 0.0015286
11050.0 0.0014985
11070.0 0.0014625
11090.0 0.0014192
11110.0 0.0013745
11130.0 0.0013278
11150.0 0.0012775
11170.0 0.0012257
11190.0 0.0011754
11210.0 0.0011235
11230.0 0.0010703
11250.0 0.0010195
11270.0 0.00097062
11290.0 0.00092168
11310.0 0.00087533
11330.0 0.00083451
11350.0 0.00079595
11370.0 0.00076031
11390.0 0.00072948
11410.0 0.00070251
11430.0 0.00067745
11450.0 0.00065586
11470.0 0.00063718
11490.0 0.00061981
11510.0 0.00060307
11530.0 0.00058753
11550.0 0.0005721
11570.0 0.00055564
11590.0 0.00053859
11610.0 0.00052123
11630.0 0.00050235
11650.0 0.00048212
11670.0 0.00046219
11690.0 0.00044198
11710.0 0.00042113
11730.0 0.00040093
11750.0 0.00038223
11770.0 0.0003639
11790.0 0.00034671
11810.0 0.00033158
11830.0 0.00031805
11850.0 0.00030559
11870.0 0.00029517
11890.0 0.0002865
11910.0 0.00027889
11930.0 0.00027234
11950.0 0.00026689
11970.0 0.00026202
11990.0 0.00025742
12010.0 0.00025316
12030.0 0.00024906
12050.0 0.00024482
12070.0 0.00024041
12090.0 0.00023615
12110.0 0.00023183
12130.0 0.00022751
12150.0 0.00022352
12170.0 0.00022004
12190.0 0.00021702
12210.0 0.00021492
12230.0 0.00021391
12250.0 0.00021407
12270.0 0.00021569
12290.0 0.00021874
12310.0 0.00022311
12330.0 0.00022924
12350.0 0.00023688
12370.0 0.00024558
12390.0 0.00025562
12410.0 0.00026737
12430.0 0.00027932
12450.0 0.00029169
12470.0 0.00030485
12490.0 0.00031806
12510.0 0.00033046
12530.0 0.00034279
12550.0 0.00035469
12570.0 0.00036519
12590.0 0.00037441
12610.0 0.00038263
12630.0 0.00038918
12650.0 0.0003937
12670.0 0.00039667
12690.0 0.00039786
12710.0 0.00039721
12730.0 0.0003949
12750.0 0.00039079
12770.0 0.00038516
12790.0 0.00037832
12810.0 0.00037016
12830.0 0.00036071
12850.0 0.00035084
12870.0 0.00034039
12890.0 0.00032909
12910.0 0.0003176
12930.0 0.00030628
12950.0 0.00029447
12970.0 0.00028244
12990.0 0.00027107
13010.0 0.00025983
13030.0 0.00024847
13050.0 0.00023756
13070.0 0.00022734
13090.0 0.00021708
13110.0 0.00020715
13130.0 0.000198
13150.0 0.00018934
13170.0 0.00018086
13190.0 0.00017331
13210.0 0.00016666
13230.0 0.00016059
13250.0 0.00015536
13270.0 0.00015123
13290.0 0.00014802
13310.0 0.00014581
13330.0 0.00014481
13350.0 0.00014492
13370.0 0.00014622
13390.0 0.00014878
13410.0 0.00015223
13430.0 0.00015671
13450.0 0.00016225
13470.0 0.0001684
13490.0 0.00017492
13510.0 0.00018227
13530.0 0.00018971
13550.0 0.00019685
13570.0 0.00020388
13590.0 0.00021073
13610.0 0.00021682
13630.0 0.00022214
13650.0 0.000227
13670.0 0.00023103
13690.0 0.00023415
13710.0 0.00023656
13730.0 0.00023829
13750.0 0.00023915
13770.0 0.00023934
13790.0 0.00023891
13810.0 0.00023785
13830.0 0.0002363
13850.0 0.00023418
13870.0 0.00023152
13890.0 0.00022848
13910.0 0.00022504
13930.0 0.00022107
13950.0 0.00021673
13970.0 0.0002123
13990.0 0.00020747
14010.0 0.00020234
14030.0 0.00019721
14050.0 0.00019205
14070.0 0.0001866
14090.0 0.00018138
14110.0 0.00017647
14130.0 0.00017171
14150.0 0.00016724
14170.0 0.00016341
14190.0 0.00016011
14210.0 0.00015731
14230.0 0.00015523
14250.0 0.00015389
14270.0 0.00015324
14290.0 0.00015338
14310.0 0.00015423
14330.0 0.00015577
14350.0 0.00015803
14370.0 0.00016084
14390.0 0.00016404
14410.0 0.0001678
14430.0 0.00017194
14450.0 0.00017616
14470.0 0.00018054
14490.0 0.0001852
14510.0 0.00018965
14530.0 0.00019388
14550.0 0.00019811
14570.0 0.00020217
14590.0 0.00020587
14610.0 0.00020944
14630.0 0.00021298
14650.0 0.00021628
14670.0 0.00021946
14690.0 0.00022277
14710.0 0.00022626
14730.0 0.00022975
14750.0 0.00023361
14770.0 0.000238
14790.0 0.00024275
14810.0 0.0002479
14830.0 0.000254
14850.0 0.00026063
14870.0 0.00026754
14890.0 0.00027501
14910.0 0.00028293
14930.0 0.00029056
14950.0 0.00029768
14970.0 0.00030442
14990.0 0.00031007
15010.0 0.0003144
15030.0 0.0003176
15050.0 0.00031972
15070.0 0.00032075
15090.0 0.00032111
15110.0 0.00032101
15130.0 0.0003206
15150.0 0.00032006
15170.0 0.00031942
15190.0 0.00031873
15210.0 0.00031806
15230.0 0.00031738
15250.0 0.00031668
15270.0 0.00031599
15290.0 0.00031533
15310.0 0.00031466
15330.0 0.00031397
15350.0 0.00031332
15370.0 0.00031267
15390.0 0.00031199
15410.0 0.00031133
15430.0 0.00031069
15450.0 0.00031004
15470.0 0.00030937
15490.0 0.00030874
15510.0 0.00030811
15530.0 0.00030746
15550.0 0.00030683
15570.0 0.00030621
15590.0 0.00030557
15610.0 0.00030492
15630.0 0.00030431
15650.0 0.00030369
15670.0 0.00030305
15690.0 0.00030243
15710.0 0.00030184
15730.0 0.00030121
15750.0 0.00030059
15770.0 0.00029999
15790.0 0.00029938
15810.0 0.00029875
15830.0 0.00029814
15850.0 0.00029755
15870.0 0.00029694
15890.0 0.00029632
15910.0 0.00029574
15930.0 0.00029514
15950.0 0.00029452
15970.0 0.00029392
15990.0 0.00029333
16010.0 0.00029272
16030.0 0.0002921
16050.0 0.00029153
16070.0 0.00029093
16090.0 0.00029032
16110.0 0.00028973
16130.0 0.00028915
16150.0 0.00028853
16170.0 0.00028793
16190.0 0.00028735
16210.0 0.00028675
16230.0 0.00028614
16250.0 0.00028555
16270.0 0.00028497
16290.0 0.00028436
16310.0 0.00028376
16330.0 0.00028318
16350.0 0.00028258
16370.0 0.00028195
16390.0 0.00028136
16410.0 0.00028078
16430.0 0.00028016
16450.0 0.00027956
16470.0 0.00027898
16490.0 0.00027837
16510.0 0.00027775
16530.0 0.00027716
16550.0 0.00027656
16570.0 0.00027594
16590.0 0.00027532
16610.0 0.00027474
16630.0 0.00027413
16650.0 0.00027351
16670.0 0.00027291
16690.0 0.00027231
16710.0 0.00027167
16730.0 0.00027105
16750.0 0.00027045
16770.0 0.00026983
16790.0 0.0002692
16810.0 0.00026859
16830.0 0.00026798
16850.0 0.00026735
16870.0 0.00026672
16890.0 0.00026612
16910.0 0.00026548
16930.0 0.00026483
16950.0 0.00026421
16970.0 0.00026359
16990.0 0.00026294
17010.0 0.00026231
17030.0 0.0002617
17050.0 0.00026105
17070.0 0.0002604
17090.0 0.00025977
17110.0 0.00025913
17130.0 0.00025846
17150.0 0.00025782
17170.0 0.00025719
17190.0 0.00025653
17210.0 0.00025588
17230.0 0.00025524
17250.0 0.00025459
17270.0 0.00025392
17290.0 0.00025326
17310.0 0.00025262
17330.0 0.00025194
17350.0 0.00025127
17370.0 0.00025062
17390.0 0.00024996
17410.0 0.00024928
17430.0 0.00024862
17450.0 0.00024797
17470.0 0.00024727
17490.0 0.00024659
17510.0 0.00024593
17530.0 0.00024525
17550.0 0.00024456
17570.0 0.00024389
17590.0 0.00024322
17610.0 0.00024252
17630.0 0.00024183
17650.0 0.00024116
17670.0 0.00024047
17690.0 0.00023975
17710.0 0.00023908
17730.0 0.0002384
17750.0 0.00023769
17770.0 0.00023699
17790.0 0.00023632
17810.0 0.00023561
17830.0 0.00023489
17850.0 0.0002342
17870.0 0.00023351
17890.0 0.00023278
17910.0 0.00023207
17930.0 0.00023139
17950.0 0.00023068
17970.0 0.00022995
17990.0 0.00022926
18010.0 0.00022856
18030.0 0.00022782
18050.0 0.0002271
18070.0 0.0002264
18090.0 0.00022568
18110.0 0.00022494
18130.0 0.00022424
18150.0 0.00022353
18170.0 0.00022279
18190.0 0.00022207
18210.0 0.00022137
18230.0 0.00022063
18250.0 0.00021988
18270.0 0.00021917
18290.0 0.00021845
18310.0 0.00021771
18330.0 0.00021698
18350.0 0.00021627
18370.0 0.00021553
18390.0 0.00021478
18410.0 0.00021406
18430.0 0.00021333
18450.0 0.00021257
18470.0 0.00021184
18490.0 0.00021112
18510.0 0.00021038
18530.0 0.00020963
18550.0 0.00020892
18570.0 0.00020818
18590.0 0.00020742
18610.0 0.00020668
18630.0 0.00020595
18650.0 0.0002052
18670.0 0.00020444
18690.0 0.00020373
18710.0 0.00020298
18730.0 0.00020223
18750.0 0.00020149
18770.0 0.00020077
18790.0 0.0002
18810.0 0.00019924
18830.0 0.00019852
18850.0 0.00019777
18870.0 0.00019701
18890.0 0.00019627
18910.0 0.00019554
18930.0 0.00019478
18950.0 0.00019403
18970.0 0.0001933
18990.0 0.00019255
19010.0 0.00019177
19030.0 0.00019104
19050.0 0.00019031
19070.0 0.00018955
19090.0 0.0001888
19110.0 0.00018807
19130.0 0.00018731
19150.0 0.00018655
19170.0 0.00018581
19190.0 0.00018507
19210.0 0.00018431
19230.0 0.00018355
19250.0 0.00018283
19270.0 0.00018208
19290.0 0.00018132
19310.0 0.00018059
19330.0 0.00017985
19350.0 0.00017907
19370.0 0.00017833
19390.0 0.0001776
19410.0 0.00017684
19430.0 0.00017608
19450.0 0.00017535
19470.0 0.00017461
19490.0 0.00017385
19510.0 0.00017311
19530.0 0.00017238
19550.0 0.00017162
19570.0 0.00017086
19590.0 0.00017013
19610.0 0.00016939
19630.0 0.00016863
19650.0 0.0001679
19670.0 0.00016717
19690.0 0.00016641
19710.0 0.00016566
19730.0 0.00016493
19750.0 0.00016419
19770.0 0.00016343
19790.0 0.00016269
19810.0 0.00016197
19830.0 0.00016121
19850.0 0.00016046
19870.0 0.00015971
19890.0 0.00015892
19910.0 0.00015804
19930.0 0.0001571
19950.0 0.00015603
19970.0 0.00015471
19990.0 0.00015312
20010.0 0.00013623
20030.0 0.00013426
20050.0 0.00013195
20070.0 0.00012945
20090.0 0.00012676
20110.0 0.00012372
20130.0 0.00012064
20150.0 0.00011759
20170.0 0.00011442
20190.0 0.00011121
20210.0 0.00010818
20230.0 0.00010522
20250.0 0.00010226
20270.0 9.9509e-05
20290.0 9.6998e-05
20310.0 9.4612e-05
20330.0 9.2382e-05
20350.0 9.0531e-05
20370.0 8.8888e-05
20390.0 8.7447e-05
20410.0 8.6284e-05
20430.0 8.5387e-05
20450.0 8.4676e-05
20470.0 8.42e-05
20490.0 8.3944e-05
20510.0 8.387e-05
20530.0 8.3974e-05
20550.0 8.4233e-05
20570.0 8.461e-05
20590.0 8.5121e-05
20610.0 8.574e-05
20630.0 8.6421e-05
20650.0 8.7183e-05
20670.0 8.8054e-05
20690.0 8.8942e-05
20710.0 8.986e-05
20730.0 9.085e-05
20750.0 9.1884e-05
20770.0 9.29e-05
20790.0 9.3968e-05
20810.0 9.5098e-05
20830.0 9.6222e-05
20850.0 9.7351e-05
20870.0 9.8559e-05
20890.0 9.9792e-05
20910.0 0.00010098
20930.0 0.00010221
20950.0 0.00010349
20970.0 0.00010474
20990.0 0.00010597
21010.0 0.00010726
21030.0 0.00010852
21050.0 0.00010973
21070.0 0.00011093
21090.0 0.00011214
21110.0 0.00011324
21130.0 0.00011428
21150.0 0.00011528
21170.0 0.00011619
21190.0 0.00011697
21210.0 0.00011767
21230.0 0.00011826
21250.0 0.00011867
21270.0 0.00011894
21290.0 0.00011904
21310.0 0.00011894
21330.0 0.00011866
21350.0 0.00011817
21370.0 0.00011745
21390.0 0.00011653
21410.0 0.0001154
21430.0 0.00011397
21450.0 0.00011237
21470.0 0.00011063
21490.0 0.00010866
21510.0 0.00010649
21530.0 0.0001043
21550.0 0.00010199
21570.0 9.9539e-05
21590.0 9.7124e-05
21610.0 9.4791e-05
21630.0 9.2455e-05
21650.0 9.0173e-05
21670.0 8.8195e-05
21690.0 8.637e-05
21710.0 8.4727e-05
21730.0 8.3381e-05
21750.0 8.2343e-05
21770.0 8.1552e-05
21790.0 8.1097e-05
21810.0 8.0971e-05
21830.0 8.1151e-05
21850.0 8.1658e-05
21870.0 8.2449e-05
21890.0 8.3471e-05
21910.0 8.4782e-05
21930.0 8.6319e-05
21950.0 8.7985e-05
21970.0 8.9829e-05
21990.0 9.19e-05
22010.0 9.397e-05
22030.0 9.6071e-05
22050.0 9.8279e-05
22070.0 0.0001005
22090.0 0.0001026
22110.0 0.00010472
22130.0 0.00010683
22150.0 0.00010881
22170.0 0.00011067
22190.0 0.00011252
22210.0 0.00011424
22230.0 0.00011575
22250.0 0.00011717
22270.0 0.00011848
22290.0 0.0001196
22310.0 0.00012056
22330.0 0.00012141
22350.0 0.00012206
22370.0 0.00012252
22390.0 0.00012281
22410.0 0.00012291
22430.0 0.00012279
22450.0 0.00012247
22470.0 0.00012192
22490.0 0.00012116
22510.0 0.0001202
22530.0 0.00011898
22550.0 0.00011749
22570.0 0.00011583
22590.0 0.00011397
22610.0 0.00011183
22630.0 0.00010951
22650.0 0.00010711
22670.0 0.00010446
22690.0 0.00010163
22710.0 9.8772e-05
22730.0 9.583e-05
22750.0 9.2639e-05
22770.0 8.9521e-05
22790.0 8.6477e-05
22810.0 8.3351e-05
22830.0 8.0233e-05
22850.0 7.7315e-05
22870.0 7.4454e-05
22890.0 7.1607e-05
22910.0 6.8985e-05
22930.0 6.6582e-05
22950.0 6.4292e-05
