#lamb flux
1010.0 2.0231e-09
1030.0 2.5344e-09
1050.0 3.1146e-09
1070.0 3.7579e-09
1090.0 4.4766e-09
1110.0 5.1962e-09
1130.0 5.9009e-09
1150.0 6.6207e-09
1170.0 7.3436e-09
1190.0 8.0045e-09
1210.0 8.6586e-09
1230.0 9.3239e-09
1250.0 9.9647e-09
1270.0 1.0582e-08
1290.0 1.1246e-08
1310.0 1.1922e-08
1330.0 1.2588e-08
1350.0 1.3291e-08
1370.0 1.4052e-08
1390.0 1.4836e-08
1410.0 1.564e-08
1430.0 1.6522e-08
1450.0 1.7447e-08
1470.0 1.8388e-08
1490.0 1.9373e-08
1510.0 2.0433e-08
1530.0 2.1477e-08
1550.0 2.2529e-08
1570.0 2.362e-08
1590.0 2.4719e-08
1610.0 2.5783e-08
1630.0 2.6869e-08
1650.0 2.7972e-08
1670.0 2.9038e-08
1690.0 3.0082e-08
1710.0 3.1147e-08
1730.0 3.2204e-08
1750.0 3.3197e-08
1770.0 3.4201e-08
1790.0 3.521e-08
1810.0 3.618e-08
1830.0 3.7124e-08
1850.0 3.8061e-08
1870.0 3.8925e-08
1890.0 3.9766e-08
1910.0 4.0629e-08
1930.0 4.152e-08
1950.0 4.2381e-08
1970.0 4.3238e-08
1990.0 4.4131e-08
2010.0 4.5011e-08
2030.0 4.5864e-08
2050.0 4.6746e-08
2070.0 4.7663e-08
2090.0 4.8536e-08
2110.0 4.9414e-08
2130.0 5.0323e-08
2150.0 5.1224e-08
2170.0 5.2094e-08
2190.0 5.3002e-08
2210.0 5.3887e-08
2230.0 5.4699e-08
2250.0 5.551e-08
2270.0 5.6363e-08
2290.0 5.7193e-08
2310.0 5.7993e-08
2330.0 5.8825e-08
2350.0 5.9668e-08
2370.0 6.0482e-08
2390.0 6.1308e-08
2410.0 6.2181e-08
2430.0 6.3045e-08
2450.0 6.3928e-08
2470.0 6.4919e-08
2490.0 6.6087e-08
2510.0 6.7449e-08
2530.0 6.9235e-08
2550.0 7.1728e-08
2570.0 7.5096e-08
2590.0 7.9559e-08
2610.0 8.5945e-08
2630.0 9.4406e-08
2650.0 1.0474e-07
2670.0 1.1748e-07
2690.0 1.3288e-07
2710.0 1.4973e-07
2730.0 1.6743e-07
2750.0 1.8656e-07
2770.0 2.0554e-07
2790.0 2.2321e-07
2810.0 2.3984e-07
2830.0 2.5543e-07
2850.0 2.6859e-07
2870.0 2.803e-07
2890.0 2.9124e-07
2910.0 3.0152e-07
2930.0 3.1132e-07
2950.0 3.2141e-07
2970.0 3.3191e-07
2990.0 3.4265e-07
3010.0 3.5386e-07
3030.0 3.6582e-07
3050.0 3.7835e-07
3070.0 3.9112e-07
3090.0 4.0462e-07
3110.0 4.1898e-07
3130.0 4.3437e-07
3150.0 4.5213e-07
3170.0 4.7459e-07
3190.0 5.0376e-07
3210.0 5.4181e-07
3230.0 5.9219e-07
3250.0 6.5548e-07
3270.0 7.1474e-07
3290.0 8.1036e-07
3310.0 1.0095e-06
3330.0 1.0752e-06
3350.0 1.1072e-06
3370.0 1.138e-06
3390.0 1.1692e-06
3410.0 1.201e-06
3430.0 1.2331e-06
3450.0 1.2652e-06
3470.0 1.2967e-06
3490.0 1.3273e-06
3510.0 1.3558e-06
3530.0 1.3446e-06
3550.0 1.3073e-06
3570.0 1.3252e-06
3590.0 1.4054e-06
3610.0 1.5304e-06
3630.0 1.576e-06
3650.0 1.5123e-06
3670.0 1.3907e-06
3690.0 1.3219e-06
3710.0 1.3408e-06
3730.0 1.3849e-06
3750.0 1.4084e-06
3770.0 1.4558e-06
3790.0 1.5089e-06
3810.0 1.4859e-06
3830.0 1.385e-06
3850.0 1.296e-06
3870.0 1.2539e-06
3890.0 1.2381e-06
3910.0 1.2091e-06
3930.0 1.1951e-06
3950.0 1.2283e-06
3970.0 1.2671e-06
3990.0 1.2791e-06
4010.0 1.2312e-06
4030.0 1.1642e-06
4050.0 1.1214e-06
4070.0 1.0853e-06
4090.0 1.0555e-06
4110.0 1.0163e-06
4130.0 9.5521e-07
4150.0 8.9417e-07
4170.0 8.5799e-07
4190.0 7.9942e-07
4210.0 7.2389e-07
4230.0 6.4729e-07
4250.0 5.7486e-07
4270.0 5.2113e-07
4290.0 4.8061e-07
4310.0 4.5932e-07
4330.0 4.5862e-07
4350.0 4.597e-07
4370.0 4.6411e-07
4390.0 4.8053e-07
4410.0 4.9194e-07
4430.0 4.7412e-07
4450.0 4.3079e-07
4470.0 3.9327e-07
4490.0 3.7252e-07
4510.0 3.5941e-07
4530.0 3.5294e-07
4550.0 3.4746e-07
4570.0 3.4607e-07
4590.0 3.5081e-07
4610.0 3.6227e-07
4630.0 3.6911e-07
4650.0 3.7276e-07
4670.0 3.6369e-07
4690.0 3.4238e-07
4710.0 3.2098e-07
4730.0 3.0739e-07
4750.0 2.9899e-07
4770.0 2.9985e-07
4790.0 2.987e-07
4810.0 2.9228e-07
4830.0 2.9253e-07
4850.0 3.0179e-07
4870.0 3.047e-07
4890.0 2.9916e-07
4910.0 2.9253e-07
4930.0 2.7595e-07
4950.0 2.5159e-07
4970.0 2.352e-07
4990.0 2.2175e-07
5010.0 2.188e-07
5030.0 2.2619e-07
5050.0 2.3203e-07
5070.0 2.4069e-07
5090.0 2.5525e-07
5110.0 2.5918e-07
5130.0 2.6141e-07
5150.0 2.6631e-07
5170.0 2.684e-07
5190.0 2.7546e-07
5210.0 2.7692e-07
5230.0 2.7403e-07
5250.0 2.7636e-07
5270.0 2.803e-07
5290.0 2.811e-07
5310.0 2.7897e-07
5330.0 2.7371e-07
5350.0 2.6982e-07
5370.0 2.6698e-07
5390.0 2.6354e-07
5410.0 2.6058e-07
5430.0 2.606e-07
5450.0 2.6428e-07
5470.0 2.6919e-07
5490.0 2.7635e-07
5510.0 2.8477e-07
5530.0 2.8825e-07
5550.0 2.9271e-07
5570.0 2.9301e-07
5590.0 2.865e-07
5610.0 2.8438e-07
5630.0 2.867e-07
5650.0 2.8316e-07
5670.0 2.7688e-07
5690.0 2.684e-07
5710.0 2.68e-07
5730.0 2.7066e-07
5750.0 2.5906e-07
5770.0 2.4583e-07
5790.0 2.2549e-07
5810.0 1.9678e-07
5830.0 2.1247e-07
5850.0 2.3594e-07
5870.0 2.4136e-07
5890.0 2.4269e-07
5910.0 2.4433e-07
5930.0 2.4394e-07
5950.0 2.3974e-07
5970.0 2.3683e-07
5990.0 2.3322e-07
6010.0 2.2618e-07
6030.0 2.183e-07
6050.0 2.1492e-07
6070.0 2.1425e-07
6090.0 2.1079e-07
6110.0 2.0363e-07
6130.0 1.9681e-07
6150.0 1.8884e-07
6170.0 1.8082e-07
6190.0 1.7317e-07
6210.0 1.6697e-07
6230.0 1.6438e-07
6250.0 1.609e-07
6270.0 1.5753e-07
6290.0 1.561e-07
6310.0 1.5483e-07
6330.0 1.5136e-07
6350.0 1.4646e-07
6370.0 1.4355e-07
6390.0 1.4098e-07
6410.0 1.3692e-07
6430.0 1.3331e-07
6450.0 1.3028e-07
6470.0 1.2739e-07
6490.0 1.2538e-07
6510.0 1.2345e-07
6530.0 1.2023e-07
6550.0 1.1756e-07
6570.0 1.1588e-07
6590.0 1.1554e-07
6610.0 1.1479e-07
6630.0 1.1089e-07
6650.0 1.0786e-07
6670.0 1.0682e-07
6690.0 1.0518e-07
6710.0 1.027e-07
6730.0 1.0185e-07
6750.0 1.0264e-07
6770.0 1.0895e-07
6790.0 1.2243e-07
6810.0 1.1612e-07
6830.0 1.0152e-07
6850.0 9.764e-08
6870.0 9.6138e-08
6890.0 9.6172e-08
6910.0 9.6389e-08
6930.0 9.667e-08
6950.0 9.6262e-08
6970.0 9.3827e-08
6990.0 9.2979e-08
7010.0 9.4384e-08
7030.0 9.4729e-08
7050.0 9.3345e-08
7070.0 9.2669e-08
7090.0 9.3517e-08
7110.0 9.5666e-08
7130.0 9.5986e-08
7150.0 9.6286e-08
7170.0 9.6806e-08
7190.0 9.8171e-08
7210.0 9.9122e-08
7230.0 9.9972e-08
7250.0 1.0133e-07
7270.0 1.0225e-07
7290.0 1.0377e-07
7310.0 1.0587e-07
7330.0 1.051e-07
7350.0 1.0293e-07
7370.0 1.0135e-07
7390.0 1.009e-07
7410.0 1.0163e-07
7430.0 1.0285e-07
7450.0 1.0351e-07
7470.0 1.0478e-07
7490.0 1.0413e-07
7510.0 1.0315e-07
7530.0 1.0424e-07
7550.0 1.0792e-07
7570.0 1.0761e-07
7590.0 1.0198e-07
7610.0 1.0085e-07
7630.0 1.0677e-07
7650.0 1.0875e-07
7670.0 1.0986e-07
7690.0 1.1466e-07
7710.0 1.1842e-07
7730.0 1.1947e-07
7750.0 1.2579e-07
7770.0 1.2239e-07
7790.0 1.1932e-07
7810.0 1.2667e-07
7830.0 1.3134e-07
7850.0 1.3495e-07
7870.0 1.3735e-07
7890.0 1.3858e-07
7910.0 1.3755e-07
7930.0 1.3859e-07
7950.0 1.4476e-07
7970.0 1.4479e-07
7990.0 1.3483e-07
8010.0 1.3259e-07
8030.0 1.3495e-07
8050.0 1.3769e-07
8070.0 1.2487e-07
8090.0 8.298e-08
8110.0 8.6286e-08
8130.0 1.2193e-07
8150.0 1.3133e-07
8170.0 1.3658e-07
8190.0 1.3976e-07
8210.0 1.3776e-07
8230.0 1.4894e-07
8250.0 1.5202e-07
8270.0 1.4417e-07
8290.0 1.3868e-07
8310.0 1.3644e-07
8330.0 1.4335e-07
8350.0 1.5011e-07
8370.0 1.475e-07
8390.0 1.4071e-07
8410.0 1.4054e-07
8430.0 1.3177e-07
8450.0 1.3435e-07
8470.0 1.4684e-07
8490.0 1.4729e-07
8510.0 1.3655e-07
8530.0 1.2836e-07
8550.0 1.2317e-07
8570.0 1.1589e-07
8590.0 1.1921e-07
8610.0 1.2621e-07
8630.0 1.2977e-07
8650.0 1.3198e-07
8670.0 1.2856e-07
8690.0 1.2555e-07
8710.0 1.1704e-07
8730.0 1.1274e-07
8750.0 1.1706e-07
8770.0 1.1878e-07
8790.0 1.1877e-07
8810.0 1.1785e-07
8830.0 1.2018e-07
8850.0 1.2631e-07
8870.0 1.1798e-07
8890.0 1.1112e-07
8910.0 1.0951e-07
8930.0 1.0333e-07
8950.0 9.9285e-08
8970.0 9.9106e-08
8990.0 9.4914e-08
9010.0 8.9075e-08
9030.0 8.7065e-08
9050.0 8.635e-08
9070.0 8.5714e-08
9090.0 8.5073e-08
9110.0 8.4429e-08
9130.0 8.3781e-08
9150.0 8.3131e-08
9170.0 8.2477e-08
9190.0 8.1823e-08
9210.0 8.1168e-08
9230.0 8.0513e-08
9250.0 7.9857e-08
9270.0 7.9202e-08
9290.0 7.8548e-08
9310.0 7.7898e-08
9330.0 7.7254e-08
9350.0 7.6612e-08
9370.0 7.5973e-08
9390.0 7.5336e-08
9410.0 7.4703e-08
9430.0 7.4073e-08
9450.0 7.3446e-08
9470.0 7.2825e-08
9490.0 7.2207e-08
9510.0 7.1593e-08
9530.0 7.0983e-08
9550.0 7.0379e-08
9570.0 6.978e-08
9590.0 6.9185e-08
9610.0 6.8601e-08
9630.0 6.8023e-08
9650.0 6.745e-08
9670.0 6.6883e-08
9690.0 6.6321e-08
9710.0 6.5765e-08
9730.0 6.5215e-08
9750.0 6.467e-08
9770.0 6.4132e-08
9790.0 6.36e-08
9810.0 6.3073e-08
9830.0 6.2552e-08
9850.0 6.2036e-08
9870.0 6.1524e-08
9890.0 6.1023e-08
9910.0 6.0528e-08
9930.0 6.0037e-08
9950.0 5.9552e-08
9970.0 5.9074e-08
9990.0 5.8601e-08
10010.0 5.8134e-08
10030.0 5.7672e-08
10050.0 5.7217e-08
10070.0 5.6766e-08
10090.0 5.6322e-08
10110.0 5.5883e-08
10130.0 5.545e-08
10150.0 5.5022e-08
10170.0 5.46e-08
10190.0 5.4183e-08
10210.0 5.3771e-08
10230.0 5.3364e-08
10250.0 5.2963e-08
10270.0 5.2566e-08
10290.0 5.2175e-08
10310.0 5.1788e-08
10330.0 5.1407e-08
10350.0 5.103e-08
10370.0 5.0658e-08
10390.0 5.0285e-08
10410.0 4.9846e-08
10430.0 4.9387e-08
10450.0 4.9117e-08
10470.0 4.8805e-08
10490.0 4.8487e-08
10510.0 4.8165e-08
10530.0 4.783e-08
10550.0 4.7499e-08
10570.0 4.7177e-08
10590.0 4.6851e-08
10610.0 4.6526e-08
10630.0 4.6212e-08
10650.0 4.5901e-08
10670.0 4.5584e-08
10690.0 4.5276e-08
10710.0 4.4976e-08
10730.0 4.4674e-08
10750.0 4.4369e-08
10770.0 4.408e-08
10790.0 4.3791e-08
10810.0 4.35e-08
10830.0 4.3215e-08
10850.0 4.2939e-08
10870.0 4.2654e-08
10890.0 4.2372e-08
10910.0 4.2098e-08
10930.0 4.1824e-08
10950.0 4.1542e-08
10970.0 4.1262e-08
10990.0 4.0987e-08
11010.0 3.8606e-08
11030.0 3.8324e-08
11050.0 3.8046e-08
11070.0 3.7763e-08
11090.0 3.7465e-08
11110.0 3.7175e-08
11130.0 3.6886e-08
11150.0 3.6586e-08
11170.0 3.6282e-08
11190.0 3.5988e-08
11210.0 3.5687e-08
11230.0 3.5379e-08
11250.0 3.5081e-08
11270.0 3.4791e-08
11290.0 3.4497e-08
11310.0 3.421e-08
11330.0 3.3947e-08
11350.0 3.3689e-08
11370.0 3.3438e-08
11390.0 3.3206e-08
11410.0 3.2988e-08
11430.0 3.277e-08
11450.0 3.2566e-08
11470.0 3.2375e-08
11490.0 3.2185e-08
11510.0 3.1995e-08
11530.0 3.1814e-08
11550.0 3.1635e-08
11570.0 3.1448e-08
11590.0 3.1261e-08
11610.0 3.1076e-08
11630.0 3.0881e-08
11650.0 3.0678e-08
11670.0 3.0478e-08
11690.0 3.0275e-08
11710.0 3.0061e-08
11730.0 2.9846e-08
11750.0 2.9637e-08
11770.0 2.942e-08
11790.0 2.9198e-08
11810.0 2.8985e-08
11830.0 2.8773e-08
11850.0 2.8553e-08
11870.0 2.8344e-08
11890.0 2.8147e-08
11910.0 2.7949e-08
11930.0 2.7758e-08
11950.0 2.7581e-08
11970.0 2.7412e-08
11990.0 2.7245e-08
12010.0 2.7094e-08
12030.0 2.6955e-08
12050.0 2.6822e-08
12070.0 2.6698e-08
12090.0 2.659e-08
12110.0 2.649e-08
12130.0 2.6395e-08
12150.0 2.631e-08
12170.0 2.6233e-08
12190.0 2.6156e-08
12210.0 2.6084e-08
12230.0 2.6015e-08
12250.0 2.5944e-08
12270.0 2.5868e-08
12290.0 2.5789e-08
12310.0 2.5706e-08
12330.0 2.561e-08
12350.0 2.5505e-08
12370.0 2.5393e-08
12390.0 2.5268e-08
12410.0 2.5123e-08
12430.0 2.4974e-08
12450.0 2.4815e-08
12470.0 2.464e-08
12490.0 2.4454e-08
12510.0 2.4267e-08
12530.0 2.4067e-08
12550.0 2.3854e-08
12570.0 2.3643e-08
12590.0 2.343e-08
12610.0 2.3205e-08
12630.0 2.2978e-08
12650.0 2.2763e-08
12670.0 2.2544e-08
12690.0 2.2322e-08
12710.0 2.2112e-08
12730.0 2.1909e-08
12750.0 2.17e-08
12770.0 2.1505e-08
12790.0 2.1323e-08
12810.0 2.1145e-08
12830.0 2.0973e-08
12850.0 2.0819e-08
12870.0 2.0676e-08
12890.0 2.0539e-08
12910.0 2.0415e-08
12930.0 2.0307e-08
12950.0 2.0207e-08
12970.0 2.0118e-08
12990.0 2.0045e-08
13010.0 1.9985e-08
13030.0 1.9934e-08
13050.0 1.9897e-08
13070.0 1.987e-08
13090.0 1.9851e-08
13110.0 1.9839e-08
13130.0 1.9833e-08
13150.0 1.9829e-08
13170.0 1.9825e-08
13190.0 1.9819e-08
13210.0 1.9809e-08
13230.0 1.9791e-08
13250.0 1.9764e-08
13270.0 1.9728e-08
13290.0 1.968e-08
13310.0 1.9618e-08
13330.0 1.9546e-08
13350.0 1.9463e-08
13370.0 1.9365e-08
13390.0 1.9253e-08
13410.0 1.9137e-08
13430.0 1.9009e-08
13450.0 1.8868e-08
13470.0 1.8721e-08
13490.0 1.8571e-08
13510.0 1.8404e-08
13530.0 1.8233e-08
13550.0 1.8063e-08
13570.0 1.7885e-08
13590.0 1.7699e-08
13610.0 1.7515e-08
13630.0 1.7333e-08
13650.0 1.7141e-08
13670.0 1.6949e-08
13690.0 1.6763e-08
13710.0 1.6574e-08
13730.0 1.6377e-08
13750.0 1.6193e-08
13770.0 1.6012e-08
13790.0 1.5828e-08
13810.0 1.565e-08
13830.0 1.5483e-08
13850.0 1.5315e-08
13870.0 1.5149e-08
13890.0 1.4995e-08
13910.0 1.4847e-08
13930.0 1.4699e-08
13950.0 1.4557e-08
13970.0 1.4428e-08
13990.0 1.43e-08
14010.0 1.4176e-08
14030.0 1.406e-08
14050.0 1.3951e-08
14070.0 1.384e-08
14090.0 1.3738e-08
14110.0 1.3643e-08
14130.0 1.3551e-08
14150.0 1.3461e-08
14170.0 1.338e-08
14190.0 1.3303e-08
14210.0 1.3226e-08
14230.0 1.3153e-08
14250.0 1.3086e-08
14270.0 1.3018e-08
14290.0 1.2951e-08
14310.0 1.2889e-08
14330.0 1.2828e-08
14350.0 1.2766e-08
14370.0 1.2706e-08
14390.0 1.265e-08
14410.0 1.2592e-08
14430.0 1.2534e-08
14450.0 1.2479e-08
14470.0 1.2425e-08
14490.0 1.2368e-08
14510.0 1.2314e-08
14530.0 1.2261e-08
14550.0 1.2207e-08
14570.0 1.2152e-08
14590.0 1.2099e-08
14610.0 1.2045e-08
14630.0 1.1988e-08
14650.0 1.1932e-08
14670.0 1.1877e-08
14690.0 1.1819e-08
14710.0 1.176e-08
14730.0 1.1703e-08
14750.0 1.1645e-08
14770.0 1.1584e-08
14790.0 1.1523e-08
14810.0 1.1463e-08
14830.0 1.1398e-08
14850.0 1.1333e-08
14870.0 1.1269e-08
14890.0 1.1204e-08
14910.0 1.1137e-08
14930.0 1.1073e-08
14950.0 1.1014e-08
14970.0 1.0955e-08
14990.0 1.0901e-08
15010.0 1.0854e-08
15030.0 1.0811e-08
15050.0 1.0772e-08
15070.0 1.0738e-08
15090.0 1.0708e-08
15110.0 1.0678e-08
15130.0 1.065e-08
15150.0 1.0624e-08
15170.0 1.0597e-08
15190.0 1.057e-08
15210.0 1.0544e-08
15230.0 1.0518e-08
15250.0 1.0491e-08
15270.0 1.0464e-08
15290.0 1.0438e-08
15310.0 1.0412e-08
15330.0 1.0385e-08
15350.0 1.0359e-08
15370.0 1.0333e-08
15390.0 1.0306e-08
15410.0 1.0279e-08
15430.0 1.0254e-08
15450.0 1.0227e-08
15470.0 1.02e-08
15490.0 1.0174e-08
15510.0 1.0149e-08
15530.0 1.0122e-08
15550.0 1.0095e-08
15570.0 1.007e-08
15590.0 1.0043e-08
15610.0 1.0016e-08
15630.0 9.9906e-09
15650.0 9.9647e-09
15670.0 9.9379e-09
15690.0 9.9118e-09
15710.0 9.8864e-09
15730.0 9.8599e-09
15750.0 9.8334e-09
15770.0 9.8077e-09
15790.0 9.7819e-09
15810.0 9.7548e-09
15830.0 9.7288e-09
15850.0 9.7034e-09
15870.0 9.6771e-09
15890.0 9.6508e-09
15910.0 9.6254e-09
15930.0 9.5996e-09
15950.0 9.5728e-09
15970.0 9.5469e-09
15990.0 9.5215e-09
16010.0 9.4951e-09
16030.0 9.4685e-09
16050.0 9.4434e-09
16070.0 9.4177e-09
16090.0 9.3913e-09
16110.0 9.3656e-09
16130.0 9.3405e-09
16150.0 9.3138e-09
16170.0 9.2875e-09
16190.0 9.2623e-09
16210.0 9.2365e-09
16230.0 9.2101e-09
16250.0 9.1846e-09
16270.0 9.1594e-09
16290.0 9.1332e-09
16310.0 9.1072e-09
16330.0 9.0821e-09
16350.0 9.0563e-09
16370.0 9.0295e-09
16390.0 9.0042e-09
16410.0 8.979e-09
16430.0 8.9528e-09
16450.0 8.927e-09
16470.0 8.9022e-09
16490.0 8.8763e-09
16510.0 8.85e-09
16530.0 8.8247e-09
16550.0 8.7994e-09
16570.0 8.7731e-09
16590.0 8.7471e-09
16610.0 8.7223e-09
16630.0 8.6966e-09
16650.0 8.6706e-09
16670.0 8.6455e-09
16690.0 8.6204e-09
16710.0 8.5939e-09
16730.0 8.5683e-09
16750.0 8.5432e-09
16770.0 8.5175e-09
16790.0 8.4913e-09
16810.0 8.4663e-09
16830.0 8.4412e-09
16850.0 8.4151e-09
16870.0 8.3897e-09
16890.0 8.3648e-09
16910.0 8.3388e-09
16930.0 8.3126e-09
16950.0 8.2876e-09
16970.0 8.2624e-09
16990.0 8.2363e-09
17010.0 8.2109e-09
17030.0 8.1862e-09
17050.0 8.1603e-09
17070.0 8.1345e-09
17090.0 8.1095e-09
17110.0 8.0842e-09
17130.0 8.0577e-09
17150.0 8.0324e-09
17170.0 8.0076e-09
17190.0 7.9818e-09
17210.0 7.9561e-09
17230.0 7.9314e-09
17250.0 7.906e-09
17270.0 7.8797e-09
17290.0 7.8544e-09
17310.0 7.8295e-09
17330.0 7.8036e-09
17350.0 7.7775e-09
17370.0 7.7529e-09
17390.0 7.7276e-09
17410.0 7.7017e-09
17430.0 7.6765e-09
17450.0 7.6517e-09
17470.0 7.6254e-09
17490.0 7.5996e-09
17510.0 7.5747e-09
17530.0 7.5493e-09
17550.0 7.5232e-09
17570.0 7.4982e-09
17590.0 7.4734e-09
17610.0 7.4474e-09
17630.0 7.4218e-09
17650.0 7.3969e-09
17670.0 7.3714e-09
17690.0 7.3448e-09
17710.0 7.3199e-09
17730.0 7.2949e-09
17750.0 7.269e-09
17770.0 7.2435e-09
17790.0 7.2189e-09
17810.0 7.1931e-09
17830.0 7.1671e-09
17850.0 7.142e-09
17870.0 7.1168e-09
17890.0 7.0906e-09
17910.0 7.0649e-09
17930.0 7.0403e-09
17950.0 7.0147e-09
17970.0 6.9888e-09
17990.0 6.9638e-09
18010.0 6.9388e-09
18030.0 6.9123e-09
18050.0 6.8868e-09
18070.0 6.8619e-09
18090.0 6.8361e-09
18110.0 6.81e-09
18130.0 6.7852e-09
18150.0 6.76e-09
18170.0 6.734e-09
18190.0 6.7085e-09
18210.0 6.6837e-09
18230.0 6.6576e-09
18250.0 6.6314e-09
18270.0 6.6065e-09
18290.0 6.5812e-09
18310.0 6.5551e-09
18330.0 6.5297e-09
18350.0 6.5049e-09
18370.0 6.4789e-09
18390.0 6.453e-09
18410.0 6.428e-09
18430.0 6.4025e-09
18450.0 6.376e-09
18470.0 6.3507e-09
18490.0 6.3257e-09
18510.0 6.2998e-09
18530.0 6.274e-09
18550.0 6.2492e-09
18570.0 6.2236e-09
18590.0 6.1972e-09
18610.0 6.1718e-09
18630.0 6.1467e-09
18650.0 6.1206e-09
18670.0 6.0945e-09
18690.0 6.0698e-09
18710.0 6.0442e-09
18730.0 6.0181e-09
18750.0 5.9928e-09
18770.0 5.9678e-09
18790.0 5.9412e-09
18810.0 5.9153e-09
18830.0 5.8903e-09
18850.0 5.8646e-09
18870.0 5.8384e-09
18890.0 5.8132e-09
18910.0 5.7881e-09
18930.0 5.7619e-09
18950.0 5.7361e-09
18970.0 5.711e-09
18990.0 5.6852e-09
19010.0 5.6584e-09
19030.0 5.6334e-09
19050.0 5.6081e-09
19070.0 5.582e-09
19090.0 5.5562e-09
19110.0 5.5314e-09
19130.0 5.5053e-09
19150.0 5.4791e-09
19170.0 5.4538e-09
19190.0 5.4283e-09
19210.0 5.4019e-09
19230.0 5.376e-09
19250.0 5.3511e-09
19270.0 5.3252e-09
19290.0 5.2991e-09
19310.0 5.2739e-09
19330.0 5.2485e-09
19350.0 5.2218e-09
19370.0 5.1961e-09
19390.0 5.1709e-09
19410.0 5.1449e-09
19430.0 5.1186e-09
19450.0 5.0935e-09
19470.0 5.068e-09
19490.0 5.0417e-09
19510.0 5.016e-09
19530.0 4.9909e-09
19550.0 4.9645e-09
19570.0 4.9381e-09
19590.0 4.913e-09
19610.0 4.8873e-09
19630.0 4.861e-09
19650.0 4.8355e-09
19670.0 4.8104e-09
19690.0 4.784e-09
19710.0 4.7579e-09
19730.0 4.7327e-09
19750.0 4.7069e-09
19770.0 4.6802e-09
19790.0 4.6546e-09
19810.0 4.6294e-09
19830.0 4.6033e-09
19850.0 4.5774e-09
19870.0 4.5526e-09
19890.0 4.5271e-09
19910.0 4.5015e-09
19930.0 4.4778e-09
19950.0 4.4554e-09
19970.0 4.434e-09
19990.0 4.415e-09
20010.0 4.3993e-09
20030.0 4.3857e-09
20050.0 4.3743e-09
20070.0 4.3655e-09
20090.0 4.3584e-09
20110.0 4.3521e-09
20130.0 4.3468e-09
20150.0 4.342e-09
20170.0 4.3372e-09
20190.0 4.3324e-09
20210.0 4.3276e-09
20230.0 4.3226e-09
20250.0 4.3171e-09
20270.0 4.3114e-09
20290.0 4.3056e-09
20310.0 4.2992e-09
20330.0 4.2923e-09
20350.0 4.2854e-09
20370.0 4.2782e-09
20390.0 4.2704e-09
20410.0 4.2624e-09
20430.0 4.2544e-09
20450.0 4.2458e-09
20470.0 4.237e-09
20490.0 4.2284e-09
20510.0 4.2197e-09
20530.0 4.2108e-09
20550.0 4.2022e-09
20570.0 4.194e-09
20590.0 4.1856e-09
20610.0 4.1775e-09
20630.0 4.1698e-09
20650.0 4.1622e-09
20670.0 4.1543e-09
20690.0 4.1468e-09
20710.0 4.1394e-09
20730.0 4.1316e-09
20750.0 4.1235e-09
20770.0 4.1154e-09
20790.0 4.1068e-09
20810.0 4.0972e-09
20830.0 4.0874e-09
20850.0 4.077e-09
20870.0 4.0654e-09
20890.0 4.053e-09
20910.0 4.0405e-09
20930.0 4.027e-09
20950.0 4.0126e-09
20970.0 3.9981e-09
20990.0 3.9834e-09
21010.0 3.9676e-09
21030.0 3.9518e-09
21050.0 3.9364e-09
21070.0 3.9207e-09
21090.0 3.9045e-09
21110.0 3.8892e-09
21130.0 3.8742e-09
21150.0 3.8588e-09
21170.0 3.8438e-09
21190.0 3.8294e-09
21210.0 3.8146e-09
21230.0 3.7994e-09
21250.0 3.7849e-09
21270.0 3.7704e-09
21290.0 3.7552e-09
21310.0 3.7399e-09
21330.0 3.725e-09
21350.0 3.7092e-09
21370.0 3.6928e-09
21390.0 3.6762e-09
21410.0 3.6593e-09
21430.0 3.6409e-09
21450.0 3.6227e-09
21470.0 3.6046e-09
21490.0 3.5856e-09
21510.0 3.5659e-09
21530.0 3.5467e-09
21550.0 3.5272e-09
21570.0 3.5066e-09
21590.0 3.4862e-09
21610.0 3.4663e-09
21630.0 3.4456e-09
21650.0 3.4243e-09
21670.0 3.4044e-09
21690.0 3.3841e-09
21710.0 3.3633e-09
21730.0 3.343e-09
21750.0 3.3234e-09
21770.0 3.3027e-09
21790.0 3.2822e-09
21810.0 3.2624e-09
21830.0 3.2424e-09
21850.0 3.2218e-09
21870.0 3.2017e-09
21890.0 3.1823e-09
21910.0 3.1621e-09
21930.0 3.1419e-09
21950.0 3.1226e-09
21970.0 3.1032e-09
21990.0 3.0831e-09
22010.0 3.0642e-09
22030.0 3.046e-09
22050.0 3.0276e-09
22070.0 3.0099e-09
22090.0 2.9936e-09
22110.0 2.9776e-09
22130.0 2.9619e-09
22150.0 2.9474e-09
22170.0 2.9337e-09
22190.0 2.9201e-09
22210.0 2.9073e-09
22230.0 2.8958e-09
22250.0 2.8846e-09
22270.0 2.8736e-09
22290.0 2.8635e-09
22310.0 2.8539e-09
22330.0 2.8441e-09
22350.0 2.8347e-09
22370.0 2.8257e-09
22390.0 2.8166e-09
22410.0 2.8073e-09
22430.0 2.7984e-09
22450.0 2.7896e-09
22470.0 2.7803e-09
22490.0 2.771e-09
22510.0 2.7619e-09
22530.0 2.7524e-09
22550.0 2.7426e-09
22570.0 2.7332e-09
22590.0 2.7237e-09
22610.0 2.714e-09
