#lamb flux
1010.0 3.6838e-06
1030.0 4.0183e-06
1050.0 4.4032e-06
1070.0 4.8367e-06
1090.0 5.329e-06
1110.0 5.8342e-06
1130.0 6.3428e-06
1150.0 6.8758e-06
1170.0 7.4258e-06
1190.0 7.9476e-06
1210.0 8.4768e-06
1230.0 9.0238e-06
1250.0 9.5602e-06
1270.0 1.0081e-05
1290.0 1.0633e-05
1310.0 1.1184e-05
1330.0 1.1713e-05
1350.0 1.2248e-05
1370.0 1.2801e-05
1390.0 1.3341e-05
1410.0 1.3865e-05
1430.0 1.4413e-05
1450.0 1.4962e-05
1470.0 1.5493e-05
1490.0 1.603e-05
1510.0 1.6597e-05
1530.0 1.7136e-05
1550.0 1.7667e-05
1570.0 1.8217e-05
1590.0 1.8767e-05
1610.0 1.9293e-05
1630.0 1.9835e-05
1650.0 2.0391e-05
1670.0 2.0929e-05
1690.0 2.1459e-05
1710.0 2.2008e-05
1730.0 2.256e-05
1750.0 2.3078e-05
1770.0 2.3609e-05
1790.0 2.415e-05
1810.0 2.4671e-05
1830.0 2.5181e-05
1850.0 2.5719e-05
1870.0 2.6241e-05
1890.0 2.6741e-05
1910.0 2.7247e-05
1930.0 2.7763e-05
1950.0 2.8249e-05
1970.0 2.8723e-05
1990.0 2.9212e-05
2010.0 2.9685e-05
2030.0 3.0134e-05
2050.0 3.0591e-05
2070.0 3.1053e-05
2090.0 3.1477e-05
2110.0 3.1892e-05
2130.0 3.2312e-05
2150.0 3.2712e-05
2170.0 3.3081e-05
2190.0 3.3457e-05
2210.0 3.3825e-05
2230.0 3.4161e-05
2250.0 3.4483e-05
2270.0 3.4814e-05
2290.0 3.5115e-05
2310.0 3.5383e-05
2330.0 3.5652e-05
2350.0 3.5911e-05
2370.0 3.6135e-05
2390.0 3.6351e-05
2410.0 3.6578e-05
2430.0 3.6783e-05
2450.0 3.6976e-05
2470.0 3.7196e-05
2490.0 3.7469e-05
2510.0 3.7804e-05
2530.0 3.8361e-05
2550.0 3.9386e-05
2570.0 4.1126e-05
2590.0 4.3865e-05
2610.0 4.8361e-05
2630.0 5.4758e-05
2650.0 6.2655e-05
2670.0 7.2093e-05
2690.0 8.2668e-05
2710.0 9.2853e-05
2730.0 0.00010194
2750.0 0.00011009
2770.0 0.00011652
2790.0 0.00012121
2810.0 0.0001248
2830.0 0.00012777
2850.0 0.00013001
2870.0 0.000132
2890.0 0.00013403
2910.0 0.00013604
2930.0 0.0001379
2950.0 0.00013989
2970.0 0.00014197
2990.0 0.00014392
3010.0 0.0011457
3030.0 0.0011617
3050.0 0.0011771
3070.0 0.0011896
3090.0 0.0011999
3110.0 0.0012046
3130.0 0.0011998
3150.0 0.0011826
3170.0 0.0011473
3190.0 0.001094
3210.0 0.0010256
3230.0 0.00095104
3250.0 0.00098663
3270.0 0.00091855
3290.0 0.0010432
3310.0 0.0009142
3330.0 0.00092869
3350.0 0.00096888
3370.0 0.0010204
3390.0 0.0010804
3410.0 0.0011418
3430.0 0.0012072
3450.0 0.0012763
3470.0 0.0013441
3490.0 0.001405
3510.0 0.0015052
3530.0 0.0016454
3550.0 0.0016828
3570.0 0.0016651
3590.0 0.0018376
3610.0 0.0017499
3630.0 0.0019953
3650.0 0.0021379
3670.0 0.0023315
3690.0 0.002303
3710.0 0.0020898
3730.0 0.0021951
3750.0 0.0022008
3770.0 0.0023461
3790.0 0.0024983
3810.0 0.0028301
3830.0 0.0037265
3850.0 0.0045974
3870.0 0.0053901
3890.0 0.0057066
3910.0 0.0056627
3930.0 0.0057753
3950.0 0.0060087
3970.0 0.0053762
3990.0 0.0033821
4010.0 0.0025847
4030.0 0.0039185
4050.0 0.0051919
4070.0 0.004738
4090.0 0.0027969
4110.0 0.0024645
4130.0 0.0038286
4150.0 0.0043555
4170.0 0.0036052
4190.0 0.0030149
4210.0 0.0041911
4230.0 0.004149
4250.0 0.0039307
4270.0 0.0039314
4290.0 0.0035391
4310.0 0.0041397
4330.0 0.0048303
4350.0 0.0052987
4370.0 0.0050768
4390.0 0.0051147
4410.0 0.0046543
4430.0 0.0035686
4450.0 0.0027272
4470.0 0.0031191
4490.0 0.0031813
4510.0 0.0045067
4530.0 0.0046558
4550.0 0.0046057
4570.0 0.005511
4590.0 0.0067678
4610.0 0.0087819
4630.0 0.011142
4650.0 0.011653
4670.0 0.011967
4690.0 0.012311
4710.0 0.012091
4730.0 0.0101
4750.0 0.007274
4770.0 0.0060118
4790.0 0.0050238
4810.0 0.0050209
4830.0 0.0056472
4850.0 0.006038
4870.0 0.0063645
4890.0 0.00761
4910.0 0.0072114
4930.0 0.0077002
4950.0 0.0093811
4970.0 0.010747
4990.0 0.012246
5010.0 0.012395
5030.0 0.010909
5050.0 0.0082738
5070.0 0.0060176
5090.0 0.0051426
5110.0 0.005264
5130.0 0.005642
5150.0 0.0052906
5170.0 0.0051975
5190.0 0.0053012
5210.0 0.0054416
5230.0 0.0059487
5250.0 0.0062247
5270.0 0.0063581
5290.0 0.0075348
5310.0 0.0089366
5330.0 0.0095982
5350.0 0.0094338
5370.0 0.0098263
5390.0 0.010404
5410.0 0.0099145
5430.0 0.0093041
5450.0 0.0096132
5470.0 0.01105
5490.0 0.013739
5510.0 0.016479
5530.0 0.017253
5550.0 0.016952
5570.0 0.016341
5590.0 0.015487
5610.0 0.014753
5630.0 0.01496
5650.0 0.01551
5670.0 0.014993
5690.0 0.013879
5710.0 0.013625
5730.0 0.012292
5750.0 0.01034
5770.0 0.0093378
5790.0 0.010267
5810.0 0.011203
5830.0 0.01244
5850.0 0.012535
5870.0 0.012217
5890.0 0.012013
5910.0 0.011126
5930.0 0.010719
5950.0 0.01108
5970.0 0.011425
5990.0 0.010062
6010.0 0.0083211
6030.0 0.0069426
6050.0 0.0062748
6070.0 0.0063333
6090.0 0.006977
6110.0 0.0073903
6130.0 0.007138
6150.0 0.0071344
6170.0 0.0077064
6190.0 0.0086841
6210.0 0.01023
6230.0 0.01172
6250.0 0.011006
6270.0 0.0096038
6290.0 0.0081423
6310.0 0.0065748
6330.0 0.0056669
6350.0 0.0055456
6370.0 0.0060175
6390.0 0.0066536
6410.0 0.0078728
6430.0 0.0097232
6450.0 0.011709
6470.0 0.013365
6490.0 0.015071
6510.0 0.016167
6530.0 0.015641
6550.0 0.015003
6570.0 0.01511
6590.0 0.015092
6610.0 0.01464
6630.0 0.013797
6650.0 0.012649
6670.0 0.012389
6690.0 0.012102
6710.0 0.011655
6730.0 0.010156
6750.0 0.008891
6770.0 0.0089806
6790.0 0.0095831
6810.0 0.010567
6830.0 0.01075
6850.0 0.0099896
6870.0 0.0098161
6890.0 0.0096509
6910.0 0.0091037
6930.0 0.0089772
6950.0 0.0089332
6970.0 0.008983
6990.0 0.0093693
7010.0 0.010048
7030.0 0.0098869
7050.0 0.0090027
7070.0 0.0083325
7090.0 0.0072311
7110.0 0.0063453
7130.0 0.0064928
7150.0 0.0069927
7170.0 0.0073336
7190.0 0.0072538
7210.0 0.0071141
7230.0 0.007905
7250.0 0.0087873
7270.0 0.0092906
7290.0 0.0094016
7310.0 0.0091443
7330.0 0.0085036
7350.0 0.0078788
7370.0 0.0073987
7390.0 0.0072597
7410.0 0.0078485
7430.0 0.0090908
7450.0 0.010079
7470.0 0.011226
7490.0 0.012983
7510.0 0.01265
7530.0 0.01052
7550.0 0.0089456
7570.0 0.007448
7590.0 0.0063154
7610.0 0.0061339
7630.0 0.0062742
7650.0 0.0068494
7670.0 0.0078315
7690.0 0.0086103
7710.0 0.009768
7730.0 0.010154
7750.0 0.010501
7770.0 0.011232
7790.0 0.011501
7810.0 0.011297
7830.0 0.010529
7850.0 0.010372
7870.0 0.010087
7890.0 0.0094258
7910.0 0.0086628
7930.0 0.0080337
7950.0 0.0067889
7970.0 0.0064842
7990.0 0.0066128
8010.0 0.0077363
8030.0 0.0077657
8050.0 0.0081329
8070.0 0.0079592
8090.0 0.0079695
8110.0 0.0078028
8130.0 0.0074321
8150.0 0.0068965
8170.0 0.0068348
8190.0 0.0069123
8210.0 0.0069846
8230.0 0.006417
8250.0 0.0059847
8270.0 0.0052712
8290.0 0.0043815
8310.0 0.0035735
8330.0 0.0026251
8350.0 0.0020091
8370.0 0.0018771
8390.0 0.0019885
8410.0 0.0022774
8430.0 0.0028868
8450.0 0.0031863
8470.0 0.0034306
8490.0 0.0038437
8510.0 0.0041461
8530.0 0.0046182
8550.0 0.0054616
8570.0 0.0061607
8590.0 0.0066581
8610.0 0.0076086
8630.0 0.0087869
8650.0 0.00919
8670.0 0.009359
8690.0 0.0094136
8710.0 0.0091356
8730.0 0.0087618
8750.0 0.0081527
8770.0 0.0080488
8790.0 0.0078167
8810.0 0.0072187
8830.0 0.0069224
8850.0 0.0060897
8870.0 0.0056426
8890.0 0.0051572
8910.0 0.0057153
8930.0 0.0053353
8950.0 0.0054204
8970.0 0.0055376
8990.0 0.0054698
9010.0 0.0055527
9030.0 0.0053245
9050.0 0.005308
9070.0 0.0053136
9090.0 0.0053189
9110.0 0.0053273
9130.0 0.0053326
9150.0 0.0053364
9170.0 0.0053309
9190.0 0.0053125
9210.0 0.0053775
9230.0 0.0053682
9250.0 0.0053666
9270.0 0.005367
9290.0 0.0053689
9310.0 0.0053718
9330.0 0.0053752
9350.0 0.0053792
9370.0 0.0053833
9390.0 0.0053874
9410.0 0.0053917
9430.0 0.0053964
9450.0 0.0054007
9470.0 0.0054052
9490.0 0.00541
9510.0 0.0054148
9530.0 0.0054195
9550.0 0.0054247
9570.0 0.0054301
9590.0 0.0054354
9610.0 0.0054409
9630.0 0.0054468
9650.0 0.0054529
9670.0 0.0054588
9690.0 0.0054652
9710.0 0.005472
9730.0 0.0054786
9750.0 0.0054856
9770.0 0.0054932
9790.0 0.0055007
9810.0 0.0055082
9830.0 0.0055163
9850.0 0.0055246
9870.0 0.0055329
9890.0 0.0055414
9910.0 0.0055505
9930.0 0.0055595
9950.0 0.0055642
9970.0 0.0055752
9990.0 0.0055863
10010.0 0.0055965
10030.0 0.005607
10050.0 0.0056156
10070.0 0.0056125
10090.0 0.0056278
10110.0 0.0056428
10130.0 0.0056566
10150.0 0.0056697
10170.0 0.0056819
10190.0 0.0056934
10210.0 0.0057052
10230.0 0.005717
10250.0 0.0057283
10270.0 0.0057397
10290.0 0.0057515
10310.0 0.005763
10330.0 0.0057741
10350.0 0.0057858
10370.0 0.0057974
10390.0 0.0058086
10410.0 0.0058198
10430.0 0.0058314
10450.0 0.0058425
10470.0 0.0058534
10490.0 0.0058644
10510.0 0.0058754
10530.0 0.0058856
10550.0 0.0058959
10570.0 0.0059064
10590.0 0.0059164
10610.0 0.005926
10630.0 0.0059358
10650.0 0.0059453
10670.0 0.0059541
10690.0 0.0059629
10710.0 0.0059716
10730.0 0.0059798
10750.0 0.0059874
10770.0 0.0059952
10790.0 0.0060026
10810.0 0.0060093
10830.0 0.0060156
10850.0 0.0060213
10870.0 0.0060247
10890.0 0.0060251
10910.0 0.0060209
10930.0 0.0060085
10950.0 0.0059824
10970.0 0.00594
10990.0 0.0058799
11010.0 0.0059804
11030.0 0.0058584
11050.0 0.005718
11070.0 0.0055571
11090.0 0.0053714
11110.0 0.0051873
11130.0 0.0050038
11150.0 0.0048164
11170.0 0.0046354
11190.0 0.0044721
11210.0 0.0043163
11230.0 0.0041705
11250.0 0.0040441
11270.0 0.003934
11290.0 0.0038341
11310.0 0.003748
11330.0 0.0036778
11350.0 0.0036144
11370.0 0.0035564
11390.0 0.0035039
11410.0 0.0034535
11430.0 0.0033992
11450.0 0.0033427
11470.0 0.0032835
11490.0 0.0032179
11510.0 0.0031444
11530.0 0.0030687
11550.0 0.0029893
11570.0 0.0029032
11590.0 0.0028155
11610.0 0.0027297
11630.0 0.0026412
11650.0 0.0025522
11670.0 0.0024697
11690.0 0.0023907
11710.0 0.0023131
11730.0 0.0022407
11750.0 0.0021753
11770.0 0.0021116
11790.0 0.0020511
11810.0 0.0019959
11830.0 0.0019436
11850.0 0.0018912
11870.0 0.0018419
11890.0 0.0017952
11910.0 0.0017478
11930.0 0.0017001
11950.0 0.001654
11970.0 0.0016072
11990.0 0.0015584
12010.0 0.0015105
12030.0 0.0014637
12050.0 0.0014161
12070.0 0.0013686
12090.0 0.0013256
12110.0 0.0012843
12130.0 0.0012454
12150.0 0.0012113
12170.0 0.0011826
12190.0 0.0011581
12210.0 0.0011404
12230.0 0.0011298
12250.0 0.0011259
12270.0 0.0011296
12290.0 0.0011404
12310.0 0.0011572
12330.0 0.0011812
12350.0 0.001211
12370.0 0.0012441
12390.0 0.0012811
12410.0 0.0013227
12430.0 0.0013629
12450.0 0.0014022
12470.0 0.0014416
12490.0 0.0014783
12510.0 0.0015099
12530.0 0.0015386
12550.0 0.0015635
12570.0 0.0015824
12590.0 0.0015962
12610.0 0.0016058
12630.0 0.0016101
12650.0 0.0016095
12670.0 0.0016049
12690.0 0.0015963
12710.0 0.0015844
12730.0 0.0015697
12750.0 0.0015518
12770.0 0.0015319
12790.0 0.0015105
12810.0 0.0014872
12830.0 0.0014619
12850.0 0.0014362
12870.0 0.0014093
12890.0 0.0013802
12910.0 0.00135
12930.0 0.0013192
12950.0 0.0012857
12970.0 0.00125
12990.0 0.0012142
13010.0 0.0011771
13030.0 0.0011378
13050.0 0.0010984
13070.0 0.0010602
13090.0 0.0010211
13110.0 0.00098263
13130.0 0.00094711
13150.0 0.00091381
13170.0 0.00088198
13190.0 0.00085468
13210.0 0.00083179
13230.0 0.00081218
13250.0 0.00079666
13270.0 0.00078562
13290.0 0.00077815
13310.0 0.00077411
13330.0 0.00077328
13350.0 0.00077487
13370.0 0.0007785
13390.0 0.00078361
13410.0 0.00078898
13430.0 0.00079458
13450.0 0.0008
13470.0 0.00080447
13490.0 0.0008078
13510.0 0.00081022
13530.0 0.00081128
13550.0 0.0008111
13570.0 0.00080998
13590.0 0.00080808
13610.0 0.00080567
13630.0 0.00080303
13650.0 0.00080031
13670.0 0.00079774
13690.0 0.00079546
13710.0 0.00079351
13730.0 0.00079191
13750.0 0.00079059
13770.0 0.00078944
13790.0 0.00078831
13810.0 0.00078702
13830.0 0.00078539
13850.0 0.00078324
13870.0 0.00078037
13890.0 0.00077675
13910.0 0.00077233
13930.0 0.0007669
13950.0 0.00076067
13970.0 0.00075406
13990.0 0.00074685
14010.0 0.00073927
14030.0 0.00073189
14050.0 0.00072476
14070.0 0.00071772
14090.0 0.00071143
14110.0 0.00070594
14130.0 0.00070108
14150.0 0.00069694
14170.0 0.00069369
14190.0 0.00069114
14210.0 0.00068924
14230.0 0.00068807
14250.0 0.00068755
14270.0 0.00068778
14290.0 0.00068884
14310.0 0.00069058
14330.0 0.00069314
14350.0 0.00069669
14370.0 0.00070099
14390.0 0.00070586
14410.0 0.00071171
14430.0 0.00071826
14450.0 0.00072511
14470.0 0.00073247
14490.0 0.0007407
14510.0 0.00074906
14530.0 0.00075764
14550.0 0.00076715
14570.0 0.0007775
14590.0 0.00078833
14610.0 0.0008005
14630.0 0.00081464
14650.0 0.00082995
14670.0 0.00084669
14690.0 0.00086591
14710.0 0.00088742
14730.0 0.0009094
14750.0 0.00093344
14770.0 0.00095954
14790.0 0.00098595
14810.0 0.0010122
14830.0 0.0010403
14850.0 0.0010675
14870.0 0.0010925
14890.0 0.0011165
14910.0 0.0011388
14930.0 0.0011577
14950.0 0.0011733
14970.0 0.0011862
14990.0 0.0011956
15010.0 0.0012015
15030.0 0.0012048
15050.0 0.0012057
15070.0 0.0012048
15090.0 0.0012027
15110.0 0.0011999
15130.0 0.0011966
15150.0 0.0011932
15170.0 0.0011895
15190.0 0.0011858
15210.0 0.0011822
15230.0 0.0011787
15250.0 0.001175
15270.0 0.0011714
15290.0 0.0011679
15310.0 0.0011644
15330.0 0.0011608
15350.0 0.0011574
15370.0 0.001154
15390.0 0.0011505
15410.0 0.001147
15430.0 0.0011437
15450.0 0.0011403
15470.0 0.0011368
15490.0 0.0011335
15510.0 0.0011302
15530.0 0.0011268
15550.0 0.0011235
15570.0 0.0011203
15590.0 0.0011169
15610.0 0.0011136
15630.0 0.0011104
15650.0 0.0011071
15670.0 0.0011038
15690.0 0.0011006
15710.0 0.0010975
15730.0 0.0010942
15750.0 0.0010909
15770.0 0.0010878
15790.0 0.0010847
15810.0 0.0010813
15830.0 0.0010782
15850.0 0.0010751
15870.0 0.0010719
15890.0 0.0010687
15910.0 0.0010656
15930.0 0.0010625
15950.0 0.0010592
15970.0 0.0010561
15990.0 0.001053
16010.0 0.0010498
16030.0 0.0010466
16050.0 0.0010436
16070.0 0.0010405
16090.0 0.0010373
16110.0 0.0010341
16130.0 0.0010311
16150.0 0.0010279
16170.0 0.0010247
16190.0 0.0010216
16210.0 0.0010185
16230.0 0.0010152
16250.0 0.0010121
16270.0 0.0010091
16290.0 0.0010058
16310.0 0.0010026
16330.0 0.00099956
16350.0 0.00099639
16370.0 0.00099306
16390.0 0.00098995
16410.0 0.00098682
16430.0 0.00098357
16450.0 0.00098035
16470.0 0.00097727
16490.0 0.00097402
16510.0 0.00097072
16530.0 0.00096754
16550.0 0.00096436
16570.0 0.00096102
16590.0 0.00095772
16610.0 0.00095458
16630.0 0.0009513
16650.0 0.00094796
16670.0 0.00094475
16690.0 0.00094152
16710.0 0.00093808
16730.0 0.00093476
16750.0 0.00093151
16770.0 0.00092815
16790.0 0.00092472
16810.0 0.00092145
16830.0 0.00091814
16850.0 0.0009147
16870.0 0.00091132
16890.0 0.00090802
16910.0 0.00090455
16930.0 0.00090103
16950.0 0.00089768
16970.0 0.00089427
16990.0 0.00089075
17010.0 0.0008873
17030.0 0.00088394
17050.0 0.0008804
17070.0 0.00087686
17090.0 0.00087342
17110.0 0.00086993
17130.0 0.00086627
17150.0 0.00086275
17170.0 0.0008593
17190.0 0.0008557
17210.0 0.00085209
17230.0 0.00084861
17250.0 0.00084503
17270.0 0.00084131
17290.0 0.00083773
17310.0 0.00083417
17330.0 0.00083047
17350.0 0.00082675
17370.0 0.00082321
17390.0 0.00081956
17410.0 0.00081582
17430.0 0.00081217
17450.0 0.00080857
17470.0 0.00080474
17490.0 0.00080098
17510.0 0.00079734
17530.0 0.0007936
17550.0 0.00078977
17570.0 0.00078608
17590.0 0.0007824
17610.0 0.00077855
17630.0 0.00077475
17650.0 0.00077105
17670.0 0.00076725
17690.0 0.00076329
17710.0 0.00075955
17730.0 0.0007558
17750.0 0.00075191
17770.0 0.00074806
17790.0 0.00074434
17810.0 0.00074045
17830.0 0.00073651
17850.0 0.0007327
17870.0 0.00072888
17890.0 0.00072491
17910.0 0.00072099
17930.0 0.00071722
17950.0 0.00071331
17970.0 0.00070936
17990.0 0.00070553
18010.0 0.00070168
18030.0 0.00069763
18050.0 0.00069372
18070.0 0.00068987
18090.0 0.00068592
18110.0 0.00068191
18130.0 0.00067806
18150.0 0.00067417
18170.0 0.00067016
18190.0 0.00066623
18210.0 0.00066238
18230.0 0.00065836
18250.0 0.00065432
18270.0 0.00065045
18290.0 0.00064653
18310.0 0.0006425
18330.0 0.00063857
18350.0 0.00063471
18370.0 0.00063069
18390.0 0.00062668
18410.0 0.0006228
18430.0 0.00061886
18450.0 0.00061477
18470.0 0.00061084
18490.0 0.00060696
18510.0 0.00060296
18530.0 0.00059898
18550.0 0.00059512
18570.0 0.00059117
18590.0 0.00058711
18610.0 0.00058318
18630.0 0.00057929
18650.0 0.00057528
18670.0 0.00057127
18690.0 0.00056744
18710.0 0.00056351
18730.0 0.00055951
18750.0 0.00055562
18770.0 0.00055177
18790.0 0.00054772
18810.0 0.00054376
18830.0 0.00053992
18850.0 0.000536
18870.0 0.00053201
18890.0 0.00052816
18910.0 0.00052433
18930.0 0.00052036
18950.0 0.00051645
18970.0 0.00051264
18990.0 0.00050874
19010.0 0.00050471
19030.0 0.00050092
19050.0 0.0004971
19070.0 0.00049318
19090.0 0.00048932
19110.0 0.00048559
19130.0 0.00048168
19150.0 0.00047777
19170.0 0.00047399
19190.0 0.0004702
19210.0 0.00046629
19230.0 0.00046245
19250.0 0.00045875
19270.0 0.00045493
19290.0 0.00045109
19310.0 0.00044738
19330.0 0.00044365
19350.0 0.00043974
19370.0 0.00043599
19390.0 0.0004323
19410.0 0.00042852
19430.0 0.00042471
19450.0 0.00042106
19470.0 0.00041737
19490.0 0.00041358
19510.0 0.00040989
19530.0 0.00040627
19550.0 0.0004025
19570.0 0.00039873
19590.0 0.00039514
19610.0 0.00039149
19630.0 0.00038776
19650.0 0.00038414
19670.0 0.00038059
19690.0 0.00037688
19710.0 0.00037321
19730.0 0.00036966
19750.0 0.00036606
19770.0 0.00036234
19790.0 0.00035878
19810.0 0.00035527
19830.0 0.00035164
19850.0 0.00034801
19870.0 0.00034446
19890.0 0.00034071
19910.0 0.00033669
19930.0 0.00033251
19950.0 0.00032794
19970.0 0.00032259
19990.0 0.00031651
20010.0 0.00030997
20030.0 0.0003025
20050.0 0.00029429
20070.0 0.00028597
20090.0 0.0002776
20110.0 0.00026887
20130.0 0.00026077
20150.0 0.00025342
20170.0 0.00024649
20190.0 0.00024014
20210.0 0.00023472
20230.0 0.00022997
20250.0 0.00022572
20270.0 0.00022223
20290.0 0.00021943
20310.0 0.00021714
20330.0 0.00021537
20350.0 0.00021424
20370.0 0.00021357
20390.0 0.00021337
20410.0 0.00021365
20430.0 0.00021434
20450.0 0.00021554
20470.0 0.00021722
20490.0 0.00021928
20510.0 0.00022179
20530.0 0.00022486
20550.0 0.00022829
20570.0 0.00023195
20590.0 0.00023612
20610.0 0.0002406
20630.0 0.00024513
20650.0 0.00024986
20670.0 0.00025492
20690.0 0.00025973
20710.0 0.00026439
20730.0 0.00026905
20750.0 0.00027353
20770.0 0.00027757
20790.0 0.00028146
20810.0 0.00028524
20830.0 0.00028871
20850.0 0.00029196
20870.0 0.00029528
20890.0 0.00029856
20910.0 0.00030168
20930.0 0.00030494
20950.0 0.00030837
20970.0 0.00031177
20990.0 0.00031518
21010.0 0.00031881
21030.0 0.00032236
21050.0 0.00032568
21070.0 0.00032888
21090.0 0.00033192
21110.0 0.00033445
21130.0 0.00033657
21150.0 0.0003383
21170.0 0.00033951
21190.0 0.00034019
21210.0 0.00034038
21230.0 0.00034004
21250.0 0.00033921
21270.0 0.00033793
21290.0 0.00033618
21310.0 0.00033404
21330.0 0.00033164
21350.0 0.00032887
21370.0 0.00032579
21390.0 0.00032259
21410.0 0.00031925
21430.0 0.00031558
21450.0 0.00031194
21470.0 0.00030838
21490.0 0.00030474
21510.0 0.00030111
21530.0 0.00029773
21550.0 0.00029447
21570.0 0.00029129
21590.0 0.00028842
21610.0 0.00028588
21630.0 0.00028359
21650.0 0.0002816
21670.0 0.00028012
21690.0 0.000279
21710.0 0.00027829
21730.0 0.00027804
21750.0 0.00027822
21770.0 0.00027888
21790.0 0.00028002
21810.0 0.00028156
21830.0 0.00028354
21850.0 0.00028603
21870.0 0.00028884
21890.0 0.00029192
21910.0 0.00029545
21930.0 0.0002993
21950.0 0.00030325
21970.0 0.00030747
21990.0 0.0003121
22010.0 0.00031662
22030.0 0.00032116
22050.0 0.00032587
22070.0 0.00033057
22090.0 0.00033496
22110.0 0.00033935
22130.0 0.00034365
22150.0 0.00034757
22170.0 0.00035116
22190.0 0.00035454
22210.0 0.00035748
22230.0 0.00035981
22250.0 0.00036172
22270.0 0.00036309
22290.0 0.00036383
22310.0 0.00036396
22330.0 0.00036345
22350.0 0.00036224
22370.0 0.00036042
22390.0 0.00035789
22410.0 0.00035457
22430.0 0.00035077
22450.0 0.0003464
22470.0 0.00034129
22490.0 0.00033569
22510.0 0.00032982
22530.0 0.00032328
22550.0 0.00031622
22570.0 0.00030916
22590.0 0.00030187
22610.0 0.00029414
22630.0 0.00028639
22650.0 0.0002789
22670.0 0.00027114
22690.0 0.00026335
22710.0 0.00025594
22730.0 0.0002487
22750.0 0.00024128
22770.0 0.0002344
22790.0 0.00022801
22810.0 0.00022177
22830.0 0.00021587
22850.0 0.00021063
22870.0 0.00020579
22890.0 0.00020127
22910.0 0.00019742
22930.0 0.0001942
22950.0 0.00019147
22970.0 0.00018934
22990.0 0.00018797
23010.0 0.0001872
23030.0 0.00018708
23050.0 0.00018762
23070.0 0.00018874
23090.0 0.00019057
23110.0 0.00019299
23130.0 0.00019586
23150.0 0.00019924
23170.0 0.00020316
23190.0 0.00020732
23210.0 0.0002116
23230.0 0.00021624
23250.0 0.00022096
23270.0 0.00022551
23290.0 0.00023004
