#lamb flux
1010.0 1.1999e-08
1030.0 1.3271e-08
1050.0 1.4734e-08
1070.0 1.6381e-08
1090.0 1.8252e-08
1110.0 2.0171e-08
1130.0 2.2102e-08
1150.0 2.4125e-08
1170.0 2.6211e-08
1190.0 2.819e-08
1210.0 3.0195e-08
1230.0 3.2268e-08
1250.0 3.4298e-08
1270.0 3.627e-08
1290.0 3.8353e-08
1310.0 4.0435e-08
1330.0 4.2432e-08
1350.0 4.4451e-08
1370.0 4.6535e-08
1390.0 4.8568e-08
1410.0 5.054e-08
1430.0 5.2602e-08
1450.0 5.4663e-08
1470.0 5.6656e-08
1490.0 5.867e-08
1510.0 6.0798e-08
1530.0 6.2814e-08
1550.0 6.4804e-08
1570.0 6.6862e-08
1590.0 6.8923e-08
1610.0 7.0893e-08
1630.0 7.2925e-08
1650.0 7.5011e-08
1670.0 7.703e-08
1690.0 7.9024e-08
1710.0 8.1096e-08
1730.0 8.3182e-08
1750.0 8.5145e-08
1770.0 8.7168e-08
1790.0 8.9234e-08
1810.0 9.1237e-08
1830.0 9.3207e-08
1850.0 9.5302e-08
1870.0 9.7345e-08
1890.0 9.9324e-08
1910.0 1.0135e-07
1930.0 1.0342e-07
1950.0 1.054e-07
1970.0 1.0737e-07
1990.0 1.0941e-07
2010.0 1.1143e-07
2030.0 1.1338e-07
2050.0 1.1539e-07
2070.0 1.1745e-07
2090.0 1.1941e-07
2110.0 1.2136e-07
2130.0 1.2338e-07
2150.0 1.2536e-07
2170.0 1.2726e-07
2190.0 1.2923e-07
2210.0 1.3122e-07
2230.0 1.3313e-07
2250.0 1.3504e-07
2270.0 1.3704e-07
2290.0 1.3897e-07
2310.0 1.4083e-07
2330.0 1.4277e-07
2350.0 1.4476e-07
2370.0 1.4674e-07
2390.0 1.4888e-07
2410.0 1.5142e-07
2430.0 1.5434e-07
2450.0 1.5784e-07
2470.0 1.6231e-07
2490.0 1.6795e-07
2510.0 1.7436e-07
2530.0 1.8208e-07
2550.0 1.9174e-07
2570.0 2.0376e-07
2590.0 2.1939e-07
2610.0 2.428e-07
2630.0 2.7621e-07
2650.0 3.1991e-07
2670.0 3.764e-07
2690.0 4.4582e-07
2710.0 5.1993e-07
2730.0 5.9315e-07
2750.0 6.6527e-07
2770.0 7.2801e-07
2790.0 7.7782e-07
2810.0 8.1736e-07
2830.0 8.4825e-07
2850.0 8.6933e-07
2870.0 8.8481e-07
2890.0 8.9706e-07
2910.0 9.0684e-07
2930.0 9.1483e-07
2950.0 9.2246e-07
2970.0 9.2991e-07
2990.0 9.3691e-07
3010.0 2.6482e-05
3030.0 2.668e-05
3050.0 2.6871e-05
3070.0 2.7035e-05
3090.0 2.7176e-05
3110.0 2.7264e-05
3130.0 2.726e-05
3150.0 2.7139e-05
3170.0 2.6849e-05
3190.0 2.6392e-05
3210.0 2.5813e-05
3230.0 2.515e-05
3250.0 2.4496e-05
3270.0 2.4019e-05
3290.0 2.3753e-05
3310.0 2.3796e-05
3330.0 2.4141e-05
3350.0 2.474e-05
3370.0 2.5597e-05
3390.0 2.6676e-05
3410.0 2.785e-05
3430.0 2.9169e-05
3450.0 3.0687e-05
3470.0 3.2344e-05
3490.0 3.4101e-05
3510.0 3.6087e-05
3530.0 3.8213e-05
3550.0 4.0366e-05
3570.0 4.2611e-05
3590.0 4.5054e-05
3610.0 4.757e-05
3630.0 5.0079e-05
3650.0 5.2682e-05
3670.0 5.5058e-05
3690.0 5.6834e-05
3710.0 5.7852e-05
3730.0 5.7886e-05
3750.0 5.708e-05
3770.0 5.6764e-05
3790.0 5.6426e-05
3810.0 5.504e-05
3830.0 5.6743e-05
3850.0 6.3446e-05
3870.0 6.7125e-05
3890.0 6.6819e-05
3910.0 6.7103e-05
3930.0 6.887e-05
3950.0 6.9957e-05
3970.0 6.3737e-05
3990.0 5.4843e-05
4010.0 0.00016437
4030.0 0.00019916
4050.0 0.00022833
4070.0 0.00019811
4090.0 0.00017943
4110.0 0.00015833
4130.0 0.00014573
4150.0 0.00015501
4170.0 0.00015269
4190.0 0.00016276
4210.0 0.00016127
4230.0 0.00017058
4250.0 0.0002018
4270.0 0.00020417
4290.0 0.00018814
4310.0 0.00019549
4330.0 0.00020794
4350.0 0.00023316
4370.0 0.00026533
4390.0 0.00024899
4410.0 0.00018396
4430.0 0.00015573
4450.0 0.0001431
4470.0 0.00010984
4490.0 0.00011853
4510.0 0.00017904
4530.0 0.00020648
4550.0 0.00020827
4570.0 0.00023436
4590.0 0.00026696
4610.0 0.00036006
4630.0 0.00046765
4650.0 0.00050716
4670.0 0.00046968
4690.0 0.00044815
4710.0 0.00047373
4730.0 0.00044707
4750.0 0.00033424
4770.0 0.00024518
4790.0 0.00022895
4810.0 0.00021822
4830.0 0.00019978
4850.0 0.00021923
4870.0 0.00028962
4890.0 0.00034154
4910.0 0.00029966
4930.0 0.00026516
4950.0 0.00029131
4970.0 0.00037359
4990.0 0.00050631
5010.0 0.00058244
5030.0 0.00051358
5050.0 0.00034747
5070.0 0.000229
5090.0 0.00018465
5110.0 0.0001899
5130.0 0.00021917
5150.0 0.00023745
5170.0 0.00023389
5190.0 0.00021856
5210.0 0.00022844
5230.0 0.00024014
5250.0 0.00025881
5270.0 0.00027924
5290.0 0.00030945
5310.0 0.00036019
5330.0 0.0003986
5350.0 0.00039606
5370.0 0.00041603
5390.0 0.0004774
5410.0 0.00047697
5430.0 0.00042181
5450.0 0.00038755
5470.0 0.00041151
5490.0 0.00050275
5510.0 0.00062862
5530.0 0.00072099
5550.0 0.00069685
5570.0 0.00063349
5590.0 0.00055083
5610.0 0.00050799
5630.0 0.00049259
5650.0 0.00046915
5670.0 0.00044456
5690.0 0.00039744
5710.0 0.00038751
5730.0 0.00035695
5750.0 0.00025167
5770.0 0.00019635
5790.0 0.0002225
5810.0 0.00025125
5830.0 0.00030832
5850.0 0.00036702
5870.0 0.00040721
5890.0 0.00041411
5910.0 0.00040627
5930.0 0.00038673
5950.0 0.00039407
5970.0 0.0004492
5990.0 0.00042237
6010.0 0.00035407
6030.0 0.00029914
6050.0 0.00026051
6070.0 0.00025909
6090.0 0.00028094
6110.0 0.00031413
6130.0 0.00031894
6150.0 0.00027442
6170.0 0.00024141
6190.0 0.00027167
6210.0 0.00035914
6230.0 0.0004713
6250.0 0.00051048
6270.0 0.00044609
6290.0 0.00037532
6310.0 0.000293
6330.0 0.0002245
6350.0 0.00020024
6370.0 0.00021058
6390.0 0.00024344
6410.0 0.00030017
6430.0 0.00035052
6450.0 0.00040108
6470.0 0.00045925
6490.0 0.00055474
6510.0 0.00062028
6530.0 0.00060853
6550.0 0.00055027
6570.0 0.00046713
6590.0 0.00042123
6610.0 0.0003632
6630.0 0.00032905
6650.0 0.00031105
6670.0 0.00030217
6690.0 0.00027303
6710.0 0.00024819
6730.0 0.00017877
6750.0 0.00017723
6770.0 0.00019264
6790.0 0.00022142
6810.0 0.0002026
6830.0 0.00020863
6850.0 0.00019513
6870.0 0.00017825
6890.0 0.00017115
6910.0 0.00018238
6930.0 0.00017083
6950.0 0.00017575
6970.0 0.00018486
6990.0 0.00020983
7010.0 0.00021162
7030.0 0.00021498
7050.0 0.00020502
7070.0 0.00019535
7090.0 0.00019592
7110.0 0.00020158
7130.0 0.00021693
7150.0 0.0002304
7170.0 0.00025423
7190.0 0.00027947
7210.0 0.00027462
7230.0 0.00028231
7250.0 0.00030339
7270.0 0.00033062
7290.0 0.00039241
7310.0 0.00042581
7330.0 0.00041158
7350.0 0.00037225
7370.0 0.00032389
7390.0 0.00031421
7410.0 0.00033391
7430.0 0.0003711
7450.0 0.0004042
7470.0 0.00040048
7490.0 0.00036516
7510.0 0.00041364
7530.0 0.00040911
7550.0 0.00036772
7570.0 0.00028726
7590.0 0.00019748
7610.0 0.0001695
7630.0 0.00019258
7650.0 0.0002277
7670.0 0.00028339
7690.0 0.00031184
7710.0 0.00032498
7730.0 0.00034151
7750.0 0.00038339
7770.0 0.00038941
7790.0 0.0003577
7810.0 0.00032638
7830.0 0.00033657
7850.0 0.00032717
7870.0 0.00029996
7890.0 0.00025203
7910.0 0.00020486
7930.0 0.00019561
7950.0 0.00017821
7970.0 0.00016496
7990.0 0.00016402
8010.0 1.2148e-05
8030.0 1.199e-05
8050.0 1.1828e-05
8070.0 1.1983e-05
8090.0 1.2876e-05
8110.0 1.2656e-05
8130.0 1.044e-05
8150.0 1.0167e-05
8170.0 8.7576e-06
8190.0 8.2997e-06
8210.0 1.0778e-05
8230.0 1.2e-05
8250.0 1.0815e-05
8270.0 9.4132e-06
8290.0 9.1762e-06
8310.0 7.0624e-06
8330.0 4.76e-06
8350.0 3.3781e-06
8370.0 2.1284e-06
8390.0 3.8906e-06
8410.0 4.5336e-06
8430.0 5.5884e-06
8450.0 6.5623e-06
8470.0 8.1565e-06
8490.0 8.099e-06
8510.0 7.9665e-06
8530.0 8.3142e-06
8550.0 1.1217e-05
8570.0 1.328e-05
8590.0 1.4329e-05
8610.0 1.81e-05
8630.0 2.1805e-05
8650.0 2.281e-05
8670.0 2.424e-05
8690.0 2.4376e-05
8710.0 2.2076e-05
8730.0 2.0534e-05
8750.0 1.8125e-05
8770.0 1.7198e-05
8790.0 1.6896e-05
8810.0 1.619e-05
8830.0 1.2946e-05
8850.0 9.4777e-06
8870.0 7.2569e-06
8890.0 7.0948e-06
8910.0 8.1308e-06
8930.0 9.2482e-06
8950.0 9.4253e-06
8970.0 9.4698e-06
8990.0 8.4459e-06
9010.0 8.8509e-05
9030.0 8.02e-05
9050.0 8.0587e-05
9070.0 8.1223e-05
9090.0 8.1781e-05
9110.0 8.247e-05
9130.0 8.3002e-05
9150.0 8.3415e-05
9170.0 8.3856e-05
9190.0 8.4326e-05
9210.0 8.4821e-05
9230.0 8.5344e-05
9250.0 8.5875e-05
9270.0 8.6426e-05
9290.0 8.6994e-05
9310.0 8.7565e-05
9330.0 8.8147e-05
9350.0 8.8752e-05
9370.0 8.9363e-05
9390.0 8.998e-05
9410.0 9.0615e-05
9430.0 9.127e-05
9450.0 9.1921e-05
9470.0 9.2587e-05
9490.0 9.3272e-05
9510.0 9.3964e-05
9530.0 9.466e-05
9550.0 9.5381e-05
9570.0 9.6113e-05
9590.0 9.6848e-05
9610.0 9.7596e-05
9630.0 9.8363e-05
9650.0 9.9137e-05
9670.0 9.9913e-05
9690.0 0.00010071
9710.0 0.00010152
9730.0 0.00010233
9750.0 0.00010315
9770.0 0.000104
9790.0 0.00010484
9810.0 0.00010569
9830.0 0.00010656
9850.0 0.00010744
9870.0 0.00010832
9890.0 0.0001092
9910.0 0.00011011
9930.0 0.00011102
9950.0 0.00011193
9970.0 0.00011286
9990.0 0.0001138
10010.0 9.8744e-05
10030.0 9.9555e-05
10050.0 0.00010038
10070.0 0.00010124
10090.0 0.00010204
10110.0 0.00010287
10130.0 0.0001037
10150.0 0.00010453
10170.0 0.00010536
10190.0 0.00010621
10210.0 0.00010706
10230.0 0.0001079
10250.0 0.00010875
10270.0 0.0001096
10290.0 0.00011044
10310.0 0.00011129
10330.0 0.00011215
10350.0 0.000113
10370.0 0.00011384
10390.0 0.00011469
10410.0 0.00011554
10430.0 0.00011637
10450.0 0.00011721
10470.0 0.00011806
10490.0 0.00011889
10510.0 0.00011971
10530.0 0.00012054
10550.0 0.00012137
10570.0 0.00012217
10590.0 0.00012298
10610.0 0.00012379
10630.0 0.00012458
10650.0 0.00012536
10670.0 0.00012615
10690.0 0.00012693
10710.0 0.00012768
10730.0 0.00012844
10750.0 0.00012921
10770.0 0.00012994
10790.0 0.00013066
10810.0 0.00013138
10830.0 0.00013208
10850.0 0.00013275
10870.0 0.00013339
10890.0 0.00013396
10910.0 0.0001344
10930.0 0.00013465
10950.0 0.00013459
10970.0 0.00013413
10990.0 0.00013324
11010.0 0.00013174
11030.0 0.00012964
11050.0 0.00012709
11070.0 0.00012404
11090.0 0.00012037
11110.0 0.00011657
11130.0 0.00011261
11150.0 0.00010835
11170.0 0.00010395
11190.0 9.969e-05
11210.0 9.5288e-05
11230.0 9.0774e-05
11250.0 8.646e-05
11270.0 8.2318e-05
11290.0 7.8168e-05
11310.0 7.4237e-05
11330.0 7.0775e-05
11350.0 6.7504e-05
11370.0 6.4482e-05
11390.0 6.1867e-05
11410.0 5.958e-05
11430.0 5.7455e-05
11450.0 5.5623e-05
11470.0 5.4039e-05
11490.0 5.2566e-05
11510.0 5.1146e-05
11530.0 4.9829e-05
11550.0 4.852e-05
11570.0 4.7124e-05
11590.0 4.5678e-05
11610.0 4.4206e-05
11630.0 4.2604e-05
11650.0 4.0889e-05
11670.0 3.9199e-05
11690.0 3.7485e-05
11710.0 3.5716e-05
11730.0 3.4003e-05
11750.0 3.2417e-05
11770.0 3.0862e-05
11790.0 2.9405e-05
11810.0 2.8122e-05
11830.0 2.6974e-05
11850.0 2.5917e-05
11870.0 2.5033e-05
11890.0 2.4298e-05
11910.0 2.3653e-05
11930.0 2.3098e-05
11950.0 2.2635e-05
11970.0 2.2222e-05
11990.0 2.1832e-05
12010.0 2.1471e-05
12030.0 2.1123e-05
12050.0 2.0763e-05
12070.0 2.0389e-05
12090.0 2.0028e-05
12110.0 1.9662e-05
12130.0 1.9295e-05
12150.0 1.8957e-05
12170.0 1.8661e-05
12190.0 1.8406e-05
12210.0 1.8228e-05
12230.0 1.8142e-05
12250.0 1.8155e-05
12270.0 1.8292e-05
12290.0 1.8551e-05
12310.0 1.8922e-05
12330.0 1.9442e-05
12350.0 2.009e-05
12370.0 2.0828e-05
12390.0 2.1679e-05
12410.0 2.2676e-05
12430.0 2.3689e-05
12450.0 2.4739e-05
12470.0 2.5854e-05
12490.0 2.6975e-05
12510.0 2.8026e-05
12530.0 2.9072e-05
12550.0 3.0081e-05
12570.0 3.0972e-05
12590.0 3.1754e-05
12610.0 3.2451e-05
12630.0 3.3006e-05
12650.0 3.339e-05
12670.0 3.3642e-05
12690.0 3.3743e-05
12710.0 3.3687e-05
12730.0 3.3492e-05
12750.0 3.3143e-05
12770.0 3.2665e-05
12790.0 3.2085e-05
12810.0 3.1393e-05
12830.0 3.0592e-05
12850.0 2.9754e-05
12870.0 2.8869e-05
12890.0 2.791e-05
12910.0 2.6936e-05
12930.0 2.5976e-05
12950.0 2.4974e-05
12970.0 2.3954e-05
12990.0 2.2989e-05
13010.0 2.2036e-05
13030.0 2.1073e-05
13050.0 2.0147e-05
13070.0 1.928e-05
13090.0 1.841e-05
13110.0 1.7569e-05
13130.0 1.6793e-05
13150.0 1.6058e-05
13170.0 1.5338e-05
13190.0 1.4698e-05
13210.0 1.4135e-05
13230.0 1.3619e-05
13250.0 1.3176e-05
13270.0 1.2826e-05
13290.0 1.2554e-05
13310.0 1.2366e-05
13330.0 1.2281e-05
13350.0 1.2291e-05
13370.0 1.2401e-05
13390.0 1.2618e-05
13410.0 1.291e-05
13430.0 1.3291e-05
13450.0 1.3761e-05
13470.0 1.4282e-05
13490.0 1.4835e-05
13510.0 1.5458e-05
13530.0 1.609e-05
13550.0 1.6694e-05
13570.0 1.7291e-05
13590.0 1.7872e-05
13610.0 1.8389e-05
13630.0 1.884e-05
13650.0 1.9252e-05
13670.0 1.9594e-05
13690.0 1.9858e-05
13710.0 2.0063e-05
13730.0 2.0209e-05
13750.0 2.0282e-05
13770.0 2.0299e-05
13790.0 2.0262e-05
13810.0 2.0172e-05
13830.0 2.004e-05
13850.0 1.9861e-05
13870.0 1.9635e-05
13890.0 1.9377e-05
13910.0 1.9086e-05
13930.0 1.8749e-05
13950.0 1.8381e-05
13970.0 1.8005e-05
13990.0 1.7596e-05
14010.0 1.716e-05
14030.0 1.6726e-05
14050.0 1.6288e-05
14070.0 1.5826e-05
14090.0 1.5383e-05
14110.0 1.4966e-05
14130.0 1.4563e-05
14150.0 1.4183e-05
14170.0 1.3859e-05
14190.0 1.3579e-05
14210.0 1.3341e-05
14230.0 1.3165e-05
14250.0 1.3051e-05
14270.0 1.2996e-05
14290.0 1.3008e-05
14310.0 1.308e-05
14330.0 1.3211e-05
14350.0 1.3402e-05
14370.0 1.3641e-05
14390.0 1.3912e-05
14410.0 1.4231e-05
14430.0 1.4582e-05
14450.0 1.494e-05
14470.0 1.5312e-05
14490.0 1.5707e-05
14510.0 1.6084e-05
14530.0 1.6443e-05
14550.0 1.6802e-05
14570.0 1.7146e-05
14590.0 1.746e-05
14610.0 1.7763e-05
14630.0 1.8063e-05
14650.0 1.8342e-05
14670.0 1.8612e-05
14690.0 1.8893e-05
14710.0 1.9189e-05
14730.0 1.9485e-05
14750.0 1.9813e-05
14770.0 2.0185e-05
14790.0 2.0588e-05
14810.0 2.1024e-05
14830.0 2.1542e-05
14850.0 2.2104e-05
14870.0 2.269e-05
14890.0 2.3323e-05
14910.0 2.3996e-05
14930.0 2.4642e-05
14950.0 2.5246e-05
14970.0 2.5818e-05
14990.0 2.6297e-05
15010.0 2.6664e-05
15030.0 2.6936e-05
15050.0 2.7115e-05
15070.0 2.7203e-05
15090.0 2.7234e-05
15110.0 2.7225e-05
15130.0 2.719e-05
15150.0 2.7145e-05
15170.0 2.709e-05
15190.0 2.7032e-05
15210.0 2.6974e-05
15230.0 2.6917e-05
15250.0 2.6858e-05
15270.0 2.6799e-05
15290.0 2.6743e-05
15310.0 2.6686e-05
15330.0 2.6628e-05
15350.0 2.6573e-05
15370.0 2.6518e-05
15390.0 2.646e-05
15410.0 2.6404e-05
15430.0 2.635e-05
15450.0 2.6294e-05
15470.0 2.6238e-05
15490.0 2.6185e-05
15510.0 2.6131e-05
15530.0 2.6076e-05
15550.0 2.6022e-05
15570.0 2.597e-05
15590.0 2.5915e-05
15610.0 2.586e-05
15630.0 2.5808e-05
15650.0 2.5756e-05
15670.0 2.5702e-05
15690.0 2.565e-05
15710.0 2.5599e-05
15730.0 2.5546e-05
15750.0 2.5493e-05
15770.0 2.5442e-05
15790.0 2.5391e-05
15810.0 2.5337e-05
15830.0 2.5285e-05
15850.0 2.5235e-05
15870.0 2.5183e-05
15890.0 2.5131e-05
15910.0 2.5082e-05
15930.0 2.5031e-05
15950.0 2.4978e-05
15970.0 2.4927e-05
15990.0 2.4877e-05
16010.0 2.4826e-05
16030.0 2.4773e-05
16050.0 2.4724e-05
16070.0 2.4674e-05
16090.0 2.4622e-05
16110.0 2.4572e-05
16130.0 2.4523e-05
16150.0 2.4471e-05
16170.0 2.4419e-05
16190.0 2.437e-05
16210.0 2.4319e-05
16230.0 2.4267e-05
16250.0 2.4217e-05
16270.0 2.4168e-05
16290.0 2.4117e-05
16310.0 2.4066e-05
16330.0 2.4016e-05
16350.0 2.3966e-05
16370.0 2.3912e-05
16390.0 2.3862e-05
16410.0 2.3813e-05
16430.0 2.3761e-05
16450.0 2.3709e-05
16470.0 2.366e-05
16490.0 2.3609e-05
16510.0 2.3556e-05
16530.0 2.3506e-05
16550.0 2.3455e-05
16570.0 2.3402e-05
16590.0 2.335e-05
16610.0 2.3301e-05
16630.0 2.3249e-05
16650.0 2.3196e-05
16670.0 2.3145e-05
16690.0 2.3095e-05
16710.0 2.304e-05
16730.0 2.2988e-05
16750.0 2.2937e-05
16770.0 2.2884e-05
16790.0 2.2831e-05
16810.0 2.2779e-05
16830.0 2.2728e-05
16850.0 2.2674e-05
16870.0 2.2621e-05
16890.0 2.2569e-05
16910.0 2.2515e-05
16930.0 2.246e-05
16950.0 2.2408e-05
16970.0 2.2355e-05
16990.0 2.23e-05
17010.0 2.2247e-05
17030.0 2.2194e-05
17050.0 2.2139e-05
17070.0 2.2084e-05
17090.0 2.2031e-05
17110.0 2.1977e-05
17130.0 2.192e-05
17150.0 2.1866e-05
17170.0 2.1812e-05
17190.0 2.1757e-05
17210.0 2.1701e-05
17230.0 2.1647e-05
17250.0 2.1592e-05
17270.0 2.1535e-05
17290.0 2.1479e-05
17310.0 2.1424e-05
17330.0 2.1367e-05
17350.0 2.131e-05
17370.0 2.1256e-05
17390.0 2.1199e-05
17410.0 2.1142e-05
17430.0 2.1086e-05
17450.0 2.103e-05
17470.0 2.0971e-05
17490.0 2.0913e-05
17510.0 2.0857e-05
17530.0 2.08e-05
17550.0 2.0741e-05
17570.0 2.0684e-05
17590.0 2.0628e-05
17610.0 2.0569e-05
17630.0 2.051e-05
17650.0 2.0453e-05
17670.0 2.0395e-05
17690.0 2.0334e-05
17710.0 2.0276e-05
17730.0 2.0218e-05
17750.0 2.0159e-05
17770.0 2.0099e-05
17790.0 2.0042e-05
17810.0 1.9982e-05
17830.0 1.9921e-05
17850.0 1.9863e-05
17870.0 1.9804e-05
17890.0 1.9743e-05
17910.0 1.9682e-05
17930.0 1.9624e-05
17950.0 1.9564e-05
17970.0 1.9503e-05
17990.0 1.9443e-05
18010.0 1.9384e-05
18030.0 1.9321e-05
18050.0 1.9261e-05
18070.0 1.9201e-05
18090.0 1.914e-05
18110.0 1.9077e-05
18130.0 1.9018e-05
18150.0 1.8958e-05
18170.0 1.8895e-05
18190.0 1.8834e-05
18210.0 1.8774e-05
18230.0 1.8711e-05
18250.0 1.8648e-05
18270.0 1.8588e-05
18290.0 1.8527e-05
18310.0 1.8464e-05
18330.0 1.8402e-05
18350.0 1.8342e-05
18370.0 1.8279e-05
18390.0 1.8216e-05
18410.0 1.8155e-05
18430.0 1.8093e-05
18450.0 1.8028e-05
18470.0 1.7966e-05
18490.0 1.7905e-05
18510.0 1.7842e-05
18530.0 1.7779e-05
18550.0 1.7718e-05
18570.0 1.7656e-05
18590.0 1.7591e-05
18610.0 1.7529e-05
18630.0 1.7467e-05
18650.0 1.7403e-05
18670.0 1.7339e-05
18690.0 1.7278e-05
18710.0 1.7215e-05
18730.0 1.7151e-05
18750.0 1.7089e-05
18770.0 1.7027e-05
18790.0 1.6962e-05
18810.0 1.6898e-05
18830.0 1.6836e-05
18850.0 1.6773e-05
18870.0 1.6708e-05
18890.0 1.6646e-05
18910.0 1.6584e-05
18930.0 1.6519e-05
18950.0 1.6456e-05
18970.0 1.6394e-05
18990.0 1.633e-05
19010.0 1.6264e-05
19030.0 1.6202e-05
19050.0 1.614e-05
19070.0 1.6075e-05
19090.0 1.6012e-05
19110.0 1.5951e-05
19130.0 1.5886e-05
19150.0 1.5821e-05
19170.0 1.5759e-05
19190.0 1.5696e-05
19210.0 1.5631e-05
19230.0 1.5567e-05
19250.0 1.5506e-05
19270.0 1.5442e-05
19290.0 1.5378e-05
19310.0 1.5316e-05
19330.0 1.5253e-05
19350.0 1.5187e-05
19370.0 1.5124e-05
19390.0 1.5062e-05
19410.0 1.4998e-05
19430.0 1.4933e-05
19450.0 1.4872e-05
19470.0 1.4809e-05
19490.0 1.4744e-05
19510.0 1.4682e-05
19530.0 1.462e-05
19550.0 1.4555e-05
19570.0 1.4491e-05
19590.0 1.4429e-05
19610.0 1.4366e-05
19630.0 1.4302e-05
19650.0 1.4239e-05
19670.0 1.4178e-05
19690.0 1.4114e-05
19710.0 1.405e-05
19730.0 1.3988e-05
19750.0 1.3925e-05
19770.0 1.386e-05
19790.0 1.3798e-05
19810.0 1.3737e-05
19830.0 1.3673e-05
19850.0 1.3608e-05
19870.0 1.3545e-05
19890.0 1.3478e-05
19910.0 1.3403e-05
19930.0 1.3324e-05
19950.0 1.3233e-05
19970.0 1.3121e-05
19990.0 1.2986e-05
20010.0 1.1554e-05
20030.0 1.1386e-05
20050.0 1.1191e-05
20070.0 1.0979e-05
20090.0 1.0751e-05
20110.0 1.0493e-05
20130.0 1.0231e-05
20150.0 9.9725e-06
20170.0 9.7041e-06
20190.0 9.4319e-06
20210.0 9.1748e-06
20230.0 8.924e-06
20250.0 8.6727e-06
20270.0 8.4394e-06
20290.0 8.2265e-06
20310.0 8.0241e-06
20330.0 7.835e-06
20350.0 7.678e-06
20370.0 7.5386e-06
20390.0 7.4164e-06
20410.0 7.3178e-06
20430.0 7.2417e-06
20450.0 7.1814e-06
20470.0 7.141e-06
20490.0 7.1193e-06
20510.0 7.1131e-06
20530.0 7.1219e-06
20550.0 7.1438e-06
20570.0 7.1758e-06
20590.0 7.2191e-06
20610.0 7.2716e-06
20630.0 7.3294e-06
20650.0 7.394e-06
20670.0 7.4679e-06
20690.0 7.5432e-06
20710.0 7.621e-06
20730.0 7.705e-06
20750.0 7.7927e-06
20770.0 7.8789e-06
20790.0 7.9695e-06
20810.0 8.0653e-06
20830.0 8.1606e-06
20850.0 8.2563e-06
20870.0 8.3588e-06
20890.0 8.4634e-06
20910.0 8.5642e-06
20930.0 8.6688e-06
20950.0 8.7772e-06
20970.0 8.8829e-06
20990.0 8.9872e-06
21010.0 9.0968e-06
21030.0 9.204e-06
21050.0 9.3063e-06
21070.0 9.4084e-06
21090.0 9.5109e-06
21110.0 9.6043e-06
21130.0 9.6921e-06
21150.0 9.7771e-06
21170.0 9.8541e-06
21190.0 9.9204e-06
21210.0 9.98e-06
21230.0 1.003e-05
21250.0 1.0065e-05
21270.0 1.0087e-05
21290.0 1.0096e-05
21310.0 1.0088e-05
21330.0 1.0064e-05
21350.0 1.0022e-05
21370.0 9.9606e-06
21390.0 9.8826e-06
21410.0 9.7871e-06
21430.0 9.6662e-06
21450.0 9.5304e-06
21470.0 9.3825e-06
21490.0 9.2153e-06
21510.0 9.0318e-06
21530.0 8.8454e-06
21550.0 8.6502e-06
21570.0 8.4419e-06
21590.0 8.2371e-06
21610.0 8.0392e-06
21630.0 7.8411e-06
21650.0 7.6476e-06
21670.0 7.4798e-06
21690.0 7.3251e-06
21710.0 7.1857e-06
21730.0 7.0716e-06
21750.0 6.9835e-06
21770.0 6.9165e-06
21790.0 6.8779e-06
21810.0 6.8672e-06
21830.0 6.8824e-06
21850.0 6.9254e-06
21870.0 6.9925e-06
21890.0 7.0792e-06
21910.0 7.1903e-06
21930.0 7.3207e-06
21950.0 7.462e-06
21970.0 7.6184e-06
21990.0 7.7941e-06
22010.0 7.9696e-06
22030.0 8.1478e-06
22050.0 8.3351e-06
22070.0 8.5233e-06
22090.0 8.7015e-06
22110.0 8.8812e-06
22130.0 9.0606e-06
22150.0 9.2282e-06
22170.0 9.3861e-06
22190.0 9.5426e-06
22210.0 9.6883e-06
22230.0 9.8165e-06
22250.0 9.9372e-06
22270.0 1.0048e-05
22290.0 1.0143e-05
22310.0 1.0225e-05
22330.0 1.0297e-05
22350.0 1.0352e-05
22370.0 1.0391e-05
22390.0 1.0416e-05
22410.0 1.0424e-05
22430.0 1.0414e-05
22450.0 1.0387e-05
22470.0 1.034e-05
22490.0 1.0275e-05
22510.0 1.0194e-05
22530.0 1.009e-05
22550.0 9.964e-06
22570.0 9.824e-06
22590.0 9.666e-06
22610.0 9.4842e-06
22630.0 9.2874e-06
