#lamb flux
1010.0 6.9825e-07
1030.0 7.2776e-07
1050.0 7.62e-07
1070.0 8.0064e-07
1090.0 8.4458e-07
1110.0 8.8987e-07
1130.0 9.3569e-07
1150.0 9.8395e-07
1170.0 1.034e-06
1190.0 1.0819e-06
1210.0 1.1308e-06
1230.0 1.1816e-06
1250.0 1.232e-06
1270.0 1.2813e-06
1290.0 1.3339e-06
1310.0 1.3869e-06
1330.0 1.4384e-06
1350.0 1.491e-06
1370.0 1.5458e-06
1390.0 1.6e-06
1410.0 1.6533e-06
1430.0 1.7095e-06
1450.0 1.7663e-06
1470.0 1.8221e-06
1490.0 1.879e-06
1510.0 1.9394e-06
1530.0 1.9976e-06
1550.0 2.0556e-06
1570.0 2.1159e-06
1590.0 2.1765e-06
1610.0 2.2352e-06
1630.0 2.2956e-06
1650.0 2.3575e-06
1670.0 2.4177e-06
1690.0 2.477e-06
1710.0 2.538e-06
1730.0 2.5989e-06
1750.0 2.6559e-06
1770.0 2.7137e-06
1790.0 2.7718e-06
1810.0 2.827e-06
1830.0 2.8802e-06
1850.0 2.9352e-06
1870.0 2.9874e-06
1890.0 3.0363e-06
1910.0 3.0846e-06
1930.0 3.1325e-06
1950.0 3.1762e-06
1970.0 3.2177e-06
1990.0 3.2594e-06
2010.0 3.2987e-06
2030.0 3.3347e-06
2050.0 3.3708e-06
2070.0 3.407e-06
2090.0 3.4393e-06
2110.0 3.4708e-06
2130.0 3.5033e-06
2150.0 3.5347e-06
2170.0 3.5643e-06
2190.0 3.5962e-06
2210.0 3.6293e-06
2230.0 3.6618e-06
2250.0 3.696e-06
2270.0 3.7343e-06
2290.0 3.7738e-06
2310.0 3.8144e-06
2330.0 3.8599e-06
2350.0 3.9098e-06
2370.0 3.962e-06
2390.0 4.0196e-06
2410.0 4.0845e-06
2430.0 4.1535e-06
2450.0 4.2272e-06
2470.0 4.3077e-06
2490.0 4.3944e-06
2510.0 4.4854e-06
2530.0 4.5895e-06
2550.0 4.7216e-06
2570.0 4.9014e-06
2590.0 5.1563e-06
2610.0 5.5491e-06
2630.0 6.1144e-06
2650.0 6.8471e-06
2670.0 7.7725e-06
2690.0 8.886e-06
2710.0 1.0078e-05
2730.0 1.1287e-05
2750.0 1.2536e-05
2770.0 1.374e-05
2790.0 1.4869e-05
2810.0 1.5979e-05
2830.0 1.7118e-05
2850.0 1.8233e-05
2870.0 1.938e-05
2890.0 2.0604e-05
2910.0 2.1886e-05
2930.0 2.3194e-05
2950.0 2.4591e-05
2970.0 2.6068e-05
2990.0 2.7574e-05
3010.0 5.0498e-05
3030.0 5.3315e-05
3050.0 5.6146e-05
3070.0 5.8781e-05
3090.0 6.1118e-05
3110.0 6.2661e-05
3130.0 6.2803e-05
3150.0 6.0866e-05
3170.0 5.5485e-05
3190.0 4.6446e-05
3210.0 3.3825e-05
3230.0 1.9477e-05
3250.0 3.4145e-05
3270.0 1.4759e-05
3290.0 4.9436e-05
3310.0 9.8382e-06
3330.0 1.0037e-05
3350.0 1.5389e-05
3370.0 2.1484e-05
3390.0 2.7948e-05
3410.0 3.4384e-05
3430.0 4.1107e-05
3450.0 4.7808e-05
3470.0 5.395e-05
3490.0 5.7975e-05
3510.0 7.2168e-05
3530.0 9.8845e-05
3550.0 9.9089e-05
3570.0 8.4141e-05
3590.0 0.00012058
3610.0 7.7723e-05
3630.0 0.0001253
3650.0 0.00014224
3670.0 0.00018284
3690.0 0.00017484
3710.0 0.00012477
3730.0 0.00016667
3750.0 0.0001733
3770.0 0.00017854
3790.0 0.00016152
3810.0 0.00014196
3830.0 0.00019628
3850.0 0.00021114
3870.0 0.00026222
3890.0 0.00024749
3910.0 0.00022469
3930.0 0.00024322
3950.0 0.00027374
3970.0 0.000357
3990.0 0.00028748
4010.0 0.00018996
4030.0 0.00025584
4050.0 0.00027983
4070.0 0.00031798
4090.0 0.00027907
4110.0 0.00019084
4130.0 0.00025159
4150.0 0.00023127
4170.0 0.00024508
4190.0 0.00024388
4210.0 0.00030289
4230.0 0.00021185
4250.0 0.00025313
4270.0 0.00025286
4290.0 0.00025565
4310.0 0.00031139
4330.0 0.00031934
4350.0 0.00024764
4370.0 0.00021444
4390.0 0.00026018
4410.0 0.00026503
4430.0 0.00020481
4450.0 0.00020606
4470.0 0.0002388
4490.0 0.00017821
4510.0 0.00021692
4530.0 0.00023425
4550.0 0.00031318
4570.0 0.00045859
4590.0 0.00044537
4610.0 0.00029801
4630.0 0.00047379
4650.0 0.00067796
4670.0 0.00062714
4690.0 0.00037266
4710.0 0.00040265
4730.0 0.00052021
4750.0 0.000465
4770.0 0.00035217
4790.0 0.00024351
4810.0 0.00035148
4830.0 0.00040542
4850.0 0.00036237
4870.0 0.0001314
4890.0 0.00038899
4910.0 0.00053932
4930.0 0.00057835
4950.0 0.00057047
4970.0 0.00036019
4990.0 0.00041323
5010.0 0.00048018
5030.0 0.00052169
5050.0 0.00051419
5070.0 0.000372
5090.0 0.00030535
5110.0 0.0002856
5130.0 0.00025474
5150.0 0.00029117
5170.0 0.00025383
5190.0 0.00031434
5210.0 0.00031451
5230.0 0.00034528
5250.0 0.00043932
5270.0 0.00037449
5290.0 0.00036905
5310.0 0.00054038
5330.0 0.00062802
5350.0 0.00053333
5370.0 0.00046765
5390.0 0.00053131
5410.0 0.00066636
5430.0 0.0007361
5450.0 0.00079217
5470.0 0.00080152
5490.0 0.00078926
5510.0 0.00092453
5530.0 0.0009621
5550.0 0.0010328
5570.0 0.0010985
5590.0 0.0010931
5610.0 0.0010403
5630.0 0.0010084
5650.0 0.0010313
5670.0 0.0010248
5690.0 0.00088024
5710.0 0.00084749
5730.0 0.00085994
5750.0 0.00094047
5770.0 0.0008208
5790.0 0.00075588
5810.0 0.00076967
5830.0 0.00081154
5850.0 0.00074596
5870.0 0.00075345
5890.0 0.00089746
5910.0 0.00086015
5930.0 0.00071103
5950.0 0.00062141
5970.0 0.00066659
5990.0 0.00061775
6010.0 0.0005838
6030.0 0.0005976
6050.0 0.00056064
6070.0 0.00042433
6090.0 0.00038169
6110.0 0.0004911
6130.0 0.00056575
6150.0 0.0005954
6170.0 0.00058084
6190.0 0.00054714
6210.0 0.00053614
6230.0 0.00061955
6250.0 0.00057269
6270.0 0.00052375
6290.0 0.00048125
6310.0 0.00045522
6330.0 0.00043316
6350.0 0.00037969
6370.0 0.00037725
6390.0 0.00044708
6410.0 0.00055526
6430.0 0.00063762
6450.0 0.0006013
6470.0 0.00059002
6490.0 0.00073462
6510.0 0.00084044
6530.0 0.00079624
6550.0 0.00076644
6570.0 0.00077824
6590.0 0.000754
6610.0 0.00081903
6630.0 0.00077121
6650.0 0.00068349
6670.0 0.00061608
6690.0 0.00059658
6710.0 0.00072852
6730.0 0.00066997
6750.0 0.00057682
6770.0 0.00052021
6790.0 0.00054519
6810.0 0.00060296
6830.0 0.00058855
6850.0 0.00053572
6870.0 0.00055327
6890.0 0.00054323
6910.0 0.00051286
6930.0 0.00058754
6950.0 0.00054515
6970.0 0.00051131
6990.0 0.00051076
7010.0 0.00048888
7030.0 0.00046043
7050.0 0.00044412
7070.0 0.0004798
7090.0 0.00045464
7110.0 0.00039452
7130.0 0.00031952
7150.0 0.00029005
7170.0 0.00038407
7190.0 0.00041853
7210.0 0.00040485
7230.0 0.00042134
7250.0 0.00039275
7270.0 0.00037414
7290.0 0.00041352
7310.0 0.00046065
7330.0 0.00045209
7350.0 0.00042444
7370.0 0.00040581
7390.0 0.00042515
7410.0 0.00049553
7430.0 0.00054193
7450.0 0.00057709
7470.0 0.00056745
7490.0 0.00058269
7510.0 0.00055865
7530.0 0.00055773
7550.0 0.00054922
7570.0 0.000483
7590.0 0.00047734
7610.0 0.0004629
7630.0 0.00043041
7650.0 0.00047144
7670.0 0.00051364
7690.0 0.00055662
7710.0 0.00061922
7730.0 0.00065851
7750.0 0.00068688
7770.0 0.00068569
7790.0 0.0007467
7810.0 0.00076928
7830.0 0.00071046
7850.0 0.00071419
7870.0 0.00067902
7890.0 0.00070755
7910.0 0.00066969
7930.0 0.00067331
7950.0 0.00059695
7970.0 0.00061115
7990.0 0.00058517
8010.0 0.00058398
8030.0 0.00058063
8050.0 0.00060753
8070.0 0.00058513
8090.0 0.00058569
8110.0 0.00056998
8130.0 0.00056877
8150.0 0.00054375
8170.0 0.00052793
8190.0 0.0005206
8210.0 0.00052366
8230.0 0.00046572
8250.0 0.00042588
8270.0 0.00037308
8290.0 0.00030962
8310.0 0.00026373
8330.0 0.00021004
8350.0 0.00017658
8370.0 0.0001819
8390.0 0.00018613
8410.0 0.0001973
8430.0 0.00023991
8450.0 0.00025619
8470.0 0.00027024
8490.0 0.00030895
8510.0 0.00033637
8530.0 0.00038696
8550.0 0.00045674
8570.0 0.00050843
8590.0 0.00054484
8610.0 0.00059358
8630.0 0.00065106
8650.0 0.0006606
8670.0 0.00066646
8690.0 0.00069107
8710.0 0.00068307
8730.0 0.00067553
8750.0 0.00063873
8770.0 0.00063819
8790.0 0.00062848
8810.0 0.00057938
8830.0 0.00057743
8850.0 0.00054149
8870.0 0.00051953
8890.0 0.0004753
8910.0 0.00050768
8930.0 0.00046445
8950.0 0.00045568
8970.0 0.00045592
8990.0 0.00044034
9010.0 0.00044706
9030.0 0.00042925
9050.0 0.00042689
9070.0 0.00042635
9090.0 0.00042574
9110.0 0.00042527
9130.0 0.00042452
9150.0 0.00042363
9170.0 0.00042173
9190.0 0.00041826
9210.0 0.00042299
9230.0 0.00042074
9250.0 0.00041911
9270.0 0.00041758
9290.0 0.00041611
9310.0 0.00041467
9330.0 0.00041324
9350.0 0.00041177
9370.0 0.00041028
9390.0 0.00040876
9410.0 0.0004072
9430.0 0.00040559
9450.0 0.00040393
9470.0 0.00040225
9490.0 0.00040057
9510.0 0.00039886
9530.0 0.00039712
9550.0 0.00039534
9570.0 0.00039355
9590.0 0.00039174
9610.0 0.00038991
9630.0 0.00038806
9650.0 0.00038621
9670.0 0.00038434
9690.0 0.00038247
9710.0 0.00038059
9730.0 0.00037871
9750.0 0.00037683
9770.0 0.00037494
9790.0 0.00037306
9810.0 0.00037119
9830.0 0.00036931
9850.0 0.00036745
9870.0 0.00036559
9890.0 0.00036374
9910.0 0.00036191
9930.0 0.00036007
9950.0 0.00035718
9970.0 0.0003557
9990.0 0.00035419
10010.0 0.00035266
10030.0 0.00035105
10050.0 0.00034932
10070.0 0.00034726
10090.0 0.00034577
10110.0 0.00034422
10130.0 0.00034268
10150.0 0.00034115
10170.0 0.00033959
10190.0 0.00033799
10210.0 0.00033647
10230.0 0.00033499
10250.0 0.00033348
10270.0 0.00033201
10290.0 0.00033061
10310.0 0.00032919
10330.0 0.00032776
10350.0 0.00032642
10370.0 0.00032511
10390.0 0.00032378
10410.0 0.00032249
10430.0 0.00032129
10450.0 0.00032006
10470.0 0.00031885
10490.0 0.0003177
10510.0 0.00031658
10530.0 0.00031543
10550.0 0.00031433
10570.0 0.00031331
10590.0 0.00031228
10610.0 0.00031125
10630.0 0.0003103
10650.0 0.00030937
10670.0 0.00030841
10690.0 0.00030751
10710.0 0.00030667
10730.0 0.00030581
10750.0 0.00030495
10770.0 0.00030418
10790.0 0.00030342
10810.0 0.00030265
10830.0 0.00030191
10850.0 0.00030122
10870.0 0.00030044
10890.0 0.00029959
10910.0 0.00029865
10930.0 0.00029747
10950.0 0.00029583
10970.0 0.00029371
10990.0 0.00029106
11010.0 0.00028581
11030.0 0.00028178
11050.0 0.00027713
11070.0 0.0002718
11090.0 0.00026564
11110.0 0.00025949
11130.0 0.00025332
11150.0 0.00024694
11170.0 0.00024063
11190.0 0.00023478
11210.0 0.00022899
11230.0 0.00022328
11250.0 0.00021804
11270.0 0.00021318
11290.0 0.00020841
11310.0 0.00020399
11330.0 0.00020014
11350.0 0.00019648
11370.0 0.00019302
11390.0 0.00018994
11410.0 0.00018711
11430.0 0.00018427
11450.0 0.00018161
11470.0 0.00017911
11490.0 0.00017656
11510.0 0.00017388
11530.0 0.00017126
11550.0 0.00016857
11570.0 0.00016561
11590.0 0.00016254
11610.0 0.00015944
11630.0 0.00015605
11650.0 0.00015241
11670.0 0.00014885
11690.0 0.00014521
11710.0 0.00014137
11730.0 0.00013757
11750.0 0.00013398
11770.0 0.0001303
11790.0 0.00012667
11810.0 0.00012332
11830.0 0.00012014
11850.0 0.00011694
11870.0 0.00011404
11890.0 0.00011144
11910.0 0.00010892
11930.0 0.00010654
11950.0 0.00010443
11970.0 0.00010243
11990.0 0.00010044
12010.0 9.8634e-05
12030.0 9.6965e-05
12050.0 9.5309e-05
12070.0 9.3684e-05
12090.0 9.2261e-05
12110.0 9.0882e-05
12130.0 8.9534e-05
12150.0 8.8328e-05
12170.0 8.7283e-05
12190.0 8.6286e-05
12210.0 8.5478e-05
12230.0 8.4911e-05
12250.0 8.4552e-05
12270.0 8.4433e-05
12290.0 8.4615e-05
12310.0 8.5091e-05
12330.0 8.5876e-05
12350.0 8.6983e-05
12370.0 8.8363e-05
12390.0 9.0028e-05
12410.0 9.2024e-05
12430.0 9.4152e-05
12450.0 9.6412e-05
12470.0 9.8838e-05
12490.0 0.00010132
12510.0 0.00010371
12530.0 0.00010611
12550.0 0.00010847
12570.0 0.00011064
12590.0 0.00011265
12610.0 0.00011454
12630.0 0.00011624
12650.0 0.00011769
12670.0 0.00011899
12690.0 0.0001201
12710.0 0.00012101
12730.0 0.00012176
12750.0 0.00012234
12770.0 0.00012276
12790.0 0.00012303
12810.0 0.00012315
12830.0 0.00012311
12850.0 0.00012296
12870.0 0.00012269
12890.0 0.00012226
12910.0 0.0001217
12930.0 0.00012106
12950.0 0.00012025
12970.0 0.00011927
12990.0 0.00011824
13010.0 0.0001171
13030.0 0.00011578
13050.0 0.00011438
13070.0 0.00011297
13090.0 0.00011139
13110.0 0.00010974
13130.0 0.00010812
13150.0 0.0001065
13170.0 0.00010479
13190.0 0.00010323
13210.0 0.00010182
13230.0 0.00010049
13250.0 9.9312e-05
13270.0 9.8388e-05
13290.0 9.765e-05
13310.0 9.7099e-05
13330.0 9.6795e-05
13350.0 9.6696e-05
13370.0 9.6758e-05
13390.0 9.696e-05
13410.0 9.7249e-05
13430.0 9.757e-05
13450.0 9.7874e-05
13470.0 9.8104e-05
13490.0 9.8225e-05
13510.0 9.8179e-05
13530.0 9.7945e-05
13550.0 9.7535e-05
13570.0 9.6926e-05
13590.0 9.6102e-05
13610.0 9.5146e-05
13630.0 9.4093e-05
13650.0 9.2889e-05
13670.0 9.1629e-05
13690.0 9.0388e-05
13710.0 8.9128e-05
13730.0 8.7833e-05
13750.0 8.6666e-05
13770.0 8.5566e-05
13790.0 8.4494e-05
13810.0 8.3495e-05
13830.0 8.2598e-05
13850.0 8.1722e-05
13870.0 8.0873e-05
13890.0 8.0087e-05
13910.0 7.9331e-05
13930.0 7.8563e-05
13950.0 7.7813e-05
13970.0 7.7111e-05
13990.0 7.6402e-05
14010.0 7.57e-05
14030.0 7.5044e-05
14050.0 7.4421e-05
14070.0 7.3806e-05
14090.0 7.3254e-05
14110.0 7.2766e-05
14130.0 7.2324e-05
14150.0 7.1938e-05
14170.0 7.1629e-05
14190.0 7.138e-05
14210.0 7.1193e-05
14230.0 7.1073e-05
14250.0 7.1014e-05
14270.0 7.1021e-05
14290.0 7.1097e-05
14310.0 7.122e-05
14330.0 7.1396e-05
14350.0 7.1632e-05
14370.0 7.19e-05
14390.0 7.2181e-05
14410.0 7.25e-05
14430.0 7.2828e-05
14450.0 7.3133e-05
14470.0 7.3423e-05
14490.0 7.3712e-05
14510.0 7.3949e-05
14530.0 7.4141e-05
14550.0 7.4316e-05
14570.0 7.4467e-05
14590.0 7.4586e-05
14610.0 7.4709e-05
14630.0 7.4859e-05
14650.0 7.5027e-05
14670.0 7.5234e-05
14690.0 7.5523e-05
14710.0 7.591e-05
14730.0 7.6351e-05
14750.0 7.6911e-05
14770.0 7.7614e-05
14790.0 7.8409e-05
14810.0 7.9287e-05
14830.0 8.0359e-05
14850.0 8.1514e-05
14870.0 8.2689e-05
14890.0 8.3935e-05
14910.0 8.5229e-05
14930.0 8.6415e-05
14950.0 8.7462e-05
14970.0 8.84e-05
14990.0 8.9099e-05
15010.0 8.9522e-05
15030.0 8.9717e-05
15050.0 8.9697e-05
15070.0 8.9468e-05
15090.0 8.9111e-05
15110.0 8.8663e-05
15130.0 8.8159e-05
15150.0 8.7629e-05
15170.0 8.7079e-05
15190.0 8.652e-05
15210.0 8.5962e-05
15230.0 8.5404e-05
15250.0 8.484e-05
15270.0 8.4277e-05
15290.0 8.3722e-05
15310.0 8.3163e-05
15330.0 8.2602e-05
15350.0 8.2047e-05
15370.0 8.1493e-05
15390.0 8.0933e-05
15410.0 8.0379e-05
15430.0 7.9829e-05
15450.0 7.9277e-05
15470.0 7.8724e-05
15490.0 7.8179e-05
15510.0 7.7636e-05
15530.0 7.7089e-05
15550.0 7.6547e-05
15570.0 7.6011e-05
15590.0 7.5471e-05
15610.0 7.4932e-05
15630.0 7.4402e-05
15650.0 7.3873e-05
15670.0 7.3342e-05
15690.0 7.2817e-05
15710.0 7.2299e-05
15730.0 7.1777e-05
15750.0 7.1258e-05
15770.0 7.0746e-05
15790.0 7.0236e-05
15810.0 6.9724e-05
15830.0 6.9219e-05
15850.0 6.872e-05
15870.0 6.8221e-05
15890.0 6.7724e-05
15910.0 6.7235e-05
15930.0 6.6747e-05
15950.0 6.6258e-05
15970.0 6.5776e-05
15990.0 6.53e-05
16010.0 6.4823e-05
16030.0 6.4348e-05
16050.0 6.3884e-05
16070.0 6.342e-05
16090.0 6.2957e-05
16110.0 6.2501e-05
16130.0 6.205e-05
16150.0 6.1597e-05
16170.0 6.1149e-05
16190.0 6.0709e-05
16210.0 6.027e-05
16230.0 5.9832e-05
16250.0 5.9402e-05
16270.0 5.8977e-05
16290.0 5.8551e-05
16310.0 5.813e-05
16330.0 5.7716e-05
16350.0 5.7304e-05
16370.0 5.689e-05
16390.0 5.6487e-05
16410.0 5.6087e-05
16430.0 5.5688e-05
16450.0 5.5294e-05
16470.0 5.4907e-05
16490.0 5.452e-05
16510.0 5.4135e-05
16530.0 5.3757e-05
16550.0 5.3383e-05
16570.0 5.3009e-05
16590.0 5.264e-05
16610.0 5.2279e-05
16630.0 5.1919e-05
16650.0 5.156e-05
16670.0 5.1209e-05
16690.0 5.0861e-05
16710.0 5.0512e-05
16730.0 5.0169e-05
16750.0 4.9832e-05
16770.0 4.9496e-05
16790.0 4.9162e-05
16810.0 4.8836e-05
16830.0 4.8513e-05
16850.0 4.819e-05
16870.0 4.7872e-05
16890.0 4.756e-05
16910.0 4.7248e-05
16930.0 4.6937e-05
16950.0 4.6635e-05
16970.0 4.6335e-05
16990.0 4.6035e-05
17010.0 4.5741e-05
17030.0 4.5453e-05
17050.0 4.5163e-05
17070.0 4.4877e-05
17090.0 4.4598e-05
17110.0 4.432e-05
17130.0 4.4041e-05
17150.0 4.3769e-05
17170.0 4.3502e-05
17190.0 4.3235e-05
17210.0 4.2971e-05
17230.0 4.2714e-05
17250.0 4.2457e-05
17270.0 4.22e-05
17290.0 4.1949e-05
17310.0 4.1702e-05
17330.0 4.1455e-05
17350.0 4.121e-05
17370.0 4.0973e-05
17390.0 4.0736e-05
17410.0 4.05e-05
17430.0 4.0269e-05
17450.0 4.0042e-05
17470.0 3.9812e-05
17490.0 3.9587e-05
17510.0 3.9368e-05
17530.0 3.9149e-05
17550.0 3.8931e-05
17570.0 3.8719e-05
17590.0 3.8509e-05
17610.0 3.8299e-05
17630.0 3.8092e-05
17650.0 3.789e-05
17670.0 3.7688e-05
17690.0 3.7485e-05
17710.0 3.729e-05
17730.0 3.7097e-05
17750.0 3.6903e-05
17770.0 3.6712e-05
17790.0 3.6528e-05
17810.0 3.6341e-05
17830.0 3.6155e-05
17850.0 3.5975e-05
17870.0 3.5797e-05
17890.0 3.5617e-05
17910.0 3.5441e-05
17930.0 3.5271e-05
17950.0 3.5099e-05
17970.0 3.4929e-05
17990.0 3.4763e-05
18010.0 3.4599e-05
18030.0 3.4432e-05
18050.0 3.4271e-05
18070.0 3.4113e-05
18090.0 3.3955e-05
18110.0 3.3797e-05
18130.0 3.3645e-05
18150.0 3.3493e-05
18170.0 3.3341e-05
18190.0 3.3192e-05
18210.0 3.3047e-05
18230.0 3.29e-05
18250.0 3.2754e-05
18270.0 3.2614e-05
18290.0 3.2474e-05
18310.0 3.2333e-05
18330.0 3.2196e-05
18350.0 3.2063e-05
18370.0 3.1927e-05
18390.0 3.1793e-05
18410.0 3.1663e-05
18430.0 3.1533e-05
18450.0 3.1402e-05
18470.0 3.1275e-05
18490.0 3.1152e-05
18510.0 3.1027e-05
18530.0 3.0903e-05
18550.0 3.0784e-05
18570.0 3.0664e-05
18590.0 3.0542e-05
18610.0 3.0425e-05
18630.0 3.031e-05
18650.0 3.0194e-05
18670.0 3.0079e-05
18690.0 2.9969e-05
18710.0 2.9858e-05
18730.0 2.9746e-05
18750.0 2.9638e-05
18770.0 2.9532e-05
18790.0 2.9422e-05
18810.0 2.9316e-05
18830.0 2.9213e-05
18850.0 2.911e-05
18870.0 2.9006e-05
18890.0 2.8906e-05
18910.0 2.8807e-05
18930.0 2.8706e-05
18950.0 2.8608e-05
18970.0 2.8512e-05
18990.0 2.8416e-05
19010.0 2.8317e-05
19030.0 2.8225e-05
19050.0 2.8133e-05
19070.0 2.8039e-05
19090.0 2.7947e-05
19110.0 2.7859e-05
19130.0 2.7768e-05
19150.0 2.7677e-05
19170.0 2.759e-05
19190.0 2.7504e-05
19210.0 2.7415e-05
19230.0 2.7329e-05
19250.0 2.7247e-05
19270.0 2.7162e-05
19290.0 2.7077e-05
19310.0 2.6996e-05
19330.0 2.6916e-05
19350.0 2.6831e-05
19370.0 2.6751e-05
19390.0 2.6673e-05
19410.0 2.6593e-05
19430.0 2.6513e-05
19450.0 2.6438e-05
19470.0 2.6361e-05
19490.0 2.6283e-05
19510.0 2.6208e-05
19530.0 2.6134e-05
19550.0 2.6058e-05
19570.0 2.5982e-05
19590.0 2.5911e-05
19610.0 2.5838e-05
19630.0 2.5764e-05
19650.0 2.5693e-05
19670.0 2.5624e-05
19690.0 2.5552e-05
19710.0 2.5481e-05
19730.0 2.5413e-05
19750.0 2.5344e-05
19770.0 2.5272e-05
19790.0 2.5205e-05
19810.0 2.5139e-05
19830.0 2.507e-05
19850.0 2.5e-05
19870.0 2.4933e-05
19890.0 2.4858e-05
19910.0 2.4773e-05
19930.0 2.4678e-05
19950.0 2.4564e-05
19970.0 2.4415e-05
19990.0 2.4227e-05
20010.0 2.4008e-05
20030.0 2.3738e-05
20050.0 2.3416e-05
20070.0 2.3068e-05
20090.0 2.2694e-05
20110.0 2.2271e-05
20130.0 2.1847e-05
20150.0 2.143e-05
20170.0 2.1002e-05
20190.0 2.057e-05
20210.0 2.0165e-05
20230.0 1.9772e-05
20250.0 1.938e-05
20270.0 1.9018e-05
20290.0 1.8691e-05
20310.0 1.8381e-05
20330.0 1.8095e-05
20350.0 1.7864e-05
20370.0 1.7664e-05
20390.0 1.7497e-05
20410.0 1.7375e-05
20430.0 1.7295e-05
20450.0 1.7251e-05
20470.0 1.725e-05
20490.0 1.7288e-05
20510.0 1.7362e-05
20530.0 1.7475e-05
20550.0 1.7619e-05
20570.0 1.7784e-05
20590.0 1.798e-05
20610.0 1.8197e-05
20630.0 1.842e-05
20650.0 1.8657e-05
20670.0 1.8909e-05
20690.0 1.9151e-05
20710.0 1.9385e-05
20730.0 1.9616e-05
20750.0 1.9833e-05
20770.0 2.0025e-05
20790.0 2.02e-05
20810.0 2.0358e-05
20830.0 2.0486e-05
20850.0 2.0589e-05
20870.0 2.0671e-05
20890.0 2.0726e-05
20910.0 2.0756e-05
20930.0 2.0765e-05
20950.0 2.0752e-05
20970.0 2.0722e-05
20990.0 2.0675e-05
21010.0 2.061e-05
21030.0 2.0531e-05
21050.0 2.0443e-05
21070.0 2.0343e-05
21090.0 2.0229e-05
21110.0 2.0114e-05
21130.0 1.9995e-05
21150.0 1.9868e-05
21170.0 1.974e-05
21190.0 1.9617e-05
21210.0 1.9492e-05
21230.0 1.9368e-05
21250.0 1.9257e-05
21270.0 1.9154e-05
21290.0 1.9059e-05
21310.0 1.8977e-05
21330.0 1.8913e-05
21350.0 1.8862e-05
21370.0 1.8826e-05
21390.0 1.8809e-05
21410.0 1.8809e-05
21430.0 1.8827e-05
21450.0 1.8862e-05
21470.0 1.8913e-05
21490.0 1.8981e-05
21510.0 1.9065e-05
21530.0 1.916e-05
21550.0 1.9267e-05
21570.0 1.9389e-05
21590.0 1.9519e-05
21610.0 1.9655e-05
21630.0 1.9802e-05
21650.0 1.9961e-05
21670.0 2.0115e-05
21690.0 2.0277e-05
21710.0 2.0448e-05
21730.0 2.062e-05
21750.0 2.0791e-05
21770.0 2.0976e-05
21790.0 2.1163e-05
21810.0 2.1348e-05
21830.0 2.1538e-05
21850.0 2.1738e-05
21870.0 2.1936e-05
21890.0 2.2131e-05
21910.0 2.2335e-05
21930.0 2.2541e-05
21950.0 2.274e-05
21970.0 2.2941e-05
21990.0 2.3148e-05
22010.0 2.3341e-05
22030.0 2.3526e-05
22050.0 2.3709e-05
22070.0 2.388e-05
22090.0 2.4032e-05
22110.0 2.4173e-05
22130.0 2.4298e-05
22150.0 2.44e-05
22170.0 2.4479e-05
22190.0 2.4537e-05
22210.0 2.4566e-05
22230.0 2.4567e-05
22250.0 2.4541e-05
22270.0 2.4482e-05
22290.0 2.4396e-05
22310.0 2.4282e-05
22330.0 2.4131e-05
22350.0 2.3953e-05
22370.0 2.3754e-05
22390.0 2.3524e-05
22410.0 2.326e-05
22430.0 2.2988e-05
22450.0 2.2699e-05
22470.0 2.2382e-05
22490.0 2.2056e-05
22510.0 2.173e-05
22530.0 2.1384e-05
22550.0 2.1026e-05
22570.0 2.0682e-05
22590.0 2.0341e-05
22610.0 1.9991e-05
22630.0 1.9654e-05
