#lamb flux
1010.0 2.0663e-07
1030.0 2.2539e-07
1050.0 2.4698e-07
1070.0 2.713e-07
1090.0 2.9891e-07
1110.0 3.2725e-07
1130.0 3.5578e-07
1150.0 3.8567e-07
1170.0 4.1652e-07
1190.0 4.4579e-07
1210.0 4.7547e-07
1230.0 5.0616e-07
1250.0 5.3624e-07
1270.0 5.6548e-07
1290.0 5.9639e-07
1310.0 6.273e-07
1330.0 6.5697e-07
1350.0 6.87e-07
1370.0 7.1802e-07
1390.0 7.4829e-07
1410.0 7.777e-07
1430.0 8.0846e-07
1450.0 8.3924e-07
1470.0 8.6902e-07
1490.0 8.9914e-07
1510.0 9.3097e-07
1530.0 9.6116e-07
1550.0 9.9096e-07
1570.0 1.0218e-06
1590.0 1.0527e-06
1610.0 1.0822e-06
1630.0 1.1126e-06
1650.0 1.1438e-06
1670.0 1.1739e-06
1690.0 1.2036e-06
1710.0 1.2345e-06
1730.0 1.2654e-06
1750.0 1.2945e-06
1770.0 1.3243e-06
1790.0 1.3546e-06
1810.0 1.3838e-06
1830.0 1.4124e-06
1850.0 1.4426e-06
1870.0 1.4719e-06
1890.0 1.4999e-06
1910.0 1.5283e-06
1930.0 1.5572e-06
1950.0 1.5845e-06
1970.0 1.6111e-06
1990.0 1.6385e-06
2010.0 1.6651e-06
2030.0 1.6902e-06
2050.0 1.7159e-06
2070.0 1.7418e-06
2090.0 1.7656e-06
2110.0 1.7888e-06
2130.0 1.8124e-06
2150.0 1.8349e-06
2170.0 1.8555e-06
2190.0 1.8766e-06
2210.0 1.8973e-06
2230.0 1.9161e-06
2250.0 1.9342e-06
2270.0 1.9528e-06
2290.0 1.9697e-06
2310.0 1.9847e-06
2330.0 1.9998e-06
2350.0 2.0143e-06
2370.0 2.0269e-06
2390.0 2.039e-06
2410.0 2.0517e-06
2430.0 2.0632e-06
2450.0 2.074e-06
2470.0 2.0864e-06
2490.0 2.1017e-06
2510.0 2.1205e-06
2530.0 2.1517e-06
2550.0 2.2092e-06
2570.0 2.3068e-06
2590.0 2.4604e-06
2610.0 2.7127e-06
2630.0 3.0715e-06
2650.0 3.5144e-06
2670.0 4.0438e-06
2690.0 4.637e-06
2710.0 5.2083e-06
2730.0 5.718e-06
2750.0 6.1751e-06
2770.0 6.5358e-06
2790.0 6.7986e-06
2810.0 6.9999e-06
2830.0 7.1667e-06
2850.0 7.2924e-06
2870.0 7.404e-06
2890.0 7.5181e-06
2910.0 7.6307e-06
2930.0 7.7348e-06
2950.0 7.8465e-06
2970.0 7.9631e-06
2990.0 8.0729e-06
3010.0 6.4263e-05
3030.0 6.516e-05
3050.0 6.6024e-05
3070.0 6.6725e-05
3090.0 6.7301e-05
3110.0 6.7568e-05
3130.0 6.7299e-05
3150.0 6.6334e-05
3170.0 6.4355e-05
3190.0 6.1362e-05
3210.0 5.753e-05
3230.0 5.3345e-05
3250.0 5.5341e-05
3270.0 5.1522e-05
3290.0 5.8516e-05
3310.0 5.1279e-05
3330.0 5.2091e-05
3350.0 5.4346e-05
3370.0 5.7238e-05
3390.0 6.0599e-05
3410.0 6.4045e-05
3430.0 6.7715e-05
3450.0 7.1589e-05
3470.0 7.5394e-05
3490.0 7.881e-05
3510.0 8.4427e-05
3530.0 9.2293e-05
3550.0 9.439e-05
3570.0 9.3399e-05
3590.0 0.00010307
3610.0 9.8151e-05
3630.0 0.00011192
3650.0 0.00011992
3670.0 0.00013078
3690.0 0.00012918
3710.0 0.00011722
3730.0 0.00012312
3750.0 0.00012345
3770.0 0.00013159
3790.0 0.00014013
3810.0 0.00015875
3830.0 0.00020903
3850.0 0.00025787
3870.0 0.00030234
3890.0 0.00032009
3910.0 0.00031763
3930.0 0.00032394
3950.0 0.00033704
3970.0 0.00030156
3990.0 0.00018971
4010.0 0.00014498
4030.0 0.00021979
4050.0 0.00029122
4070.0 0.00026576
4090.0 0.00015688
4110.0 0.00013824
4130.0 0.00021475
4150.0 0.0002443
4170.0 0.00020222
4190.0 0.00016911
4210.0 0.00023508
4230.0 0.00023272
4250.0 0.00022048
4270.0 0.00022052
4290.0 0.00019852
4310.0 0.0002322
4330.0 0.00027093
4350.0 0.00029721
4370.0 0.00028477
4390.0 0.00028689
4410.0 0.00026106
4430.0 0.00020016
4450.0 0.00015297
4470.0 0.00017496
4490.0 0.00017844
4510.0 0.00025279
4530.0 0.00026115
4550.0 0.00025834
4570.0 0.00030912
4590.0 0.00037961
4610.0 0.00049259
4630.0 0.00062494
4650.0 0.00065365
4670.0 0.00067125
4690.0 0.00069053
4710.0 0.0006782
4730.0 0.0005665
4750.0 0.00040801
4770.0 0.00033721
4790.0 0.00028179
4810.0 0.00028163
4830.0 0.00031676
4850.0 0.00033868
4870.0 0.00035699
4890.0 0.00042685
4910.0 0.0004045
4930.0 0.00043191
4950.0 0.0005262
4970.0 0.00060282
4990.0 0.0006869
5010.0 0.00069525
5030.0 0.0006119
5050.0 0.00046409
5070.0 0.00033753
5090.0 0.00028845
5110.0 0.00029526
5130.0 0.00031647
5150.0 0.00029676
5170.0 0.00029154
5190.0 0.00029735
5210.0 0.0003052
5230.0 0.00033356
5250.0 0.00034896
5270.0 0.00035636
5290.0 0.00042222
5310.0 0.00050066
5330.0 0.00053761
5350.0 0.00052829
5370.0 0.00055014
5390.0 0.00058236
5410.0 0.00055483
5430.0 0.00052056
5450.0 0.00053773
5470.0 0.00061794
5490.0 0.00076819
5510.0 0.00092118
5530.0 0.0009642
5550.0 0.00094719
5570.0 0.00091284
5590.0 0.0008649
5610.0 0.00082374
5630.0 0.00083507
5650.0 0.00086561
5670.0 0.00083657
5690.0 0.00077423
5710.0 0.00075986
5730.0 0.00068539
5750.0 0.00057641
5770.0 0.0005204
5790.0 0.00057203
5810.0 0.00062403
5830.0 0.00069281
5850.0 0.0006979
5870.0 0.00068003
5890.0 0.00066854
5910.0 0.000619
5930.0 0.00059623
5950.0 0.0006162
5970.0 0.00063519
5990.0 0.0005593
6010.0 0.00046246
6030.0 0.00038585
6050.0 0.00034873
6070.0 0.00035198
6090.0 0.00038776
6110.0 0.00041073
6130.0 0.00039671
6150.0 0.00039651
6170.0 0.0004283
6190.0 0.00048264
6210.0 0.00056857
6230.0 0.00065138
6250.0 0.0006117
6270.0 0.00053375
6290.0 0.00045252
6310.0 0.00036541
6330.0 0.00031495
6350.0 0.00030821
6370.0 0.00033443
6390.0 0.00036979
6410.0 0.00043755
6430.0 0.00054039
6450.0 0.00065073
6470.0 0.00074279
6490.0 0.00083762
6510.0 0.0008985
6530.0 0.00086927
6550.0 0.0008338
6570.0 0.00083974
6590.0 0.00083874
6610.0 0.00081365
6630.0 0.00076679
6650.0 0.00070299
6670.0 0.00068856
6690.0 0.00067258
6710.0 0.00064774
6730.0 0.00056446
6750.0 0.00049414
6770.0 0.00049912
6790.0 0.0005326
6810.0 0.00058727
6830.0 0.00059747
6850.0 0.00055519
6870.0 0.00054555
6890.0 0.00053637
6910.0 0.00050596
6930.0 0.00049892
6950.0 0.00049648
6970.0 0.00049925
6990.0 0.00052072
7010.0 0.00055843
7030.0 0.00054948
7050.0 0.00050034
7070.0 0.00046309
7090.0 0.00040188
7110.0 0.00035265
7130.0 0.00036085
7150.0 0.00038863
7170.0 0.00040758
7190.0 0.00040314
7210.0 0.00039538
7230.0 0.00043933
7250.0 0.00048837
7270.0 0.00051634
7290.0 0.00052251
7310.0 0.00050821
7330.0 0.0004726
7350.0 0.00043788
7370.0 0.0004112
7390.0 0.00040347
7410.0 0.00043619
7430.0 0.00050524
7450.0 0.00056017
7470.0 0.00062388
7490.0 0.00072155
7510.0 0.00070311
7530.0 0.00058479
7550.0 0.00049733
7570.0 0.00041412
7590.0 0.0003512
7610.0 0.00034114
7630.0 0.000349
7650.0 0.00038104
7670.0 0.00043573
7690.0 0.00047912
7710.0 0.00054361
7730.0 0.00056514
7750.0 0.00058456
7770.0 0.0006253
7790.0 0.00064037
7810.0 0.00062911
7830.0 0.00058642
7850.0 0.00057776
7870.0 0.00056192
7890.0 0.00052517
7910.0 0.00048272
7930.0 0.00044772
7950.0 0.0003784
7970.0 0.00036146
7990.0 0.00036867
8010.0 0.00043136
8030.0 0.00043306
8050.0 0.00045359
8070.0 0.00044396
8090.0 0.00044459
8110.0 0.00043534
8130.0 0.00041471
8150.0 0.00038487
8170.0 0.00038148
8190.0 0.00038585
8210.0 0.00038993
8230.0 0.00035829
8250.0 0.00033419
8270.0 0.00029439
8290.0 0.00024473
8310.0 0.00019962
8330.0 0.00014666
8350.0 0.00011226
8370.0 0.0001049
8390.0 0.00011113
8410.0 0.0001273
8430.0 0.00016138
8450.0 0.00017815
8470.0 0.00019183
8490.0 0.00021495
8510.0 0.00023189
8530.0 0.00025832
8550.0 0.00030554
8570.0 0.00034469
8590.0 0.00037256
8610.0 0.0004258
8630.0 0.0004918
8650.0 0.00051442
8670.0 0.00052395
8690.0 0.00052706
8710.0 0.00051156
8730.0 0.00049068
8750.0 0.00045663
8770.0 0.00045086
8790.0 0.00043791
8810.0 0.00040446
8830.0 0.0003879
8850.0 0.00034128
8870.0 0.00031626
8890.0 0.00028909
8910.0 0.00032041
8930.0 0.00029914
8950.0 0.00030395
8970.0 0.00031056
8990.0 0.00030679
9010.0 0.00031146
9030.0 0.00029866
9050.0 0.00029773
9070.0 0.00029805
9090.0 0.00029835
9110.0 0.00029882
9130.0 0.00029911
9150.0 0.00029933
9170.0 0.00029902
9190.0 0.00029798
9210.0 0.00030163
9230.0 0.00030111
9250.0 0.00030102
9270.0 0.00030104
9290.0 0.00030115
9310.0 0.00030131
9330.0 0.0003015
9350.0 0.00030172
9370.0 0.00030196
9390.0 0.00030219
9410.0 0.00030243
9430.0 0.00030269
9450.0 0.00030293
9470.0 0.00030319
9490.0 0.00030345
9510.0 0.00030372
9530.0 0.00030399
9550.0 0.00030428
9570.0 0.00030458
9590.0 0.00030488
9610.0 0.00030519
9630.0 0.00030552
9650.0 0.00030586
9670.0 0.00030619
9690.0 0.00030655
9710.0 0.00030693
9730.0 0.0003073
9750.0 0.00030769
9770.0 0.00030812
9790.0 0.00030854
9810.0 0.00030896
9830.0 0.00030942
9850.0 0.00030988
9870.0 0.00031034
9890.0 0.00031083
9910.0 0.00031134
9930.0 0.00031184
9950.0 0.0003121
9970.0 0.00031272
9990.0 0.00031334
10010.0 0.00031391
10030.0 0.0003145
10050.0 0.00031498
10070.0 0.00031481
10090.0 0.00031567
10110.0 0.00031651
10130.0 0.00031728
10150.0 0.00031802
10170.0 0.00031871
10190.0 0.00031935
10210.0 0.00032001
10230.0 0.00032067
10250.0 0.00032131
10270.0 0.00032195
10290.0 0.00032261
10310.0 0.00032325
10330.0 0.00032388
10350.0 0.00032453
10370.0 0.00032518
10390.0 0.00032581
10410.0 0.00032644
10430.0 0.00032709
10450.0 0.00032772
10470.0 0.00032832
10490.0 0.00032894
10510.0 0.00032956
10530.0 0.00033013
10550.0 0.00033071
10570.0 0.0003313
10590.0 0.00033186
10610.0 0.0003324
10630.0 0.00033295
10650.0 0.00033348
10670.0 0.00033397
10690.0 0.00033447
10710.0 0.00033496
10730.0 0.00033541
10750.0 0.00033584
10770.0 0.00033628
10790.0 0.0003367
10810.0 0.00033707
10830.0 0.00033742
10850.0 0.00033774
10870.0 0.00033793
10890.0 0.00033795
10910.0 0.00033772
10930.0 0.00033702
10950.0 0.00033556
10970.0 0.00033318
10990.0 0.00032981
11010.0 0.00033545
11030.0 0.0003286
11050.0 0.00032073
11070.0 0.0003117
11090.0 0.00030129
11110.0 0.00029096
11130.0 0.00028067
11150.0 0.00027016
11170.0 0.00026001
11190.0 0.00025085
11210.0 0.00024211
11230.0 0.00023393
11250.0 0.00022684
11270.0 0.00022067
11290.0 0.00021506
11310.0 0.00021023
11330.0 0.00020629
11350.0 0.00020274
11370.0 0.00019948
11390.0 0.00019654
11410.0 0.00019371
11430.0 0.00019066
11450.0 0.00018749
11470.0 0.00018418
11490.0 0.0001805
11510.0 0.00017637
11530.0 0.00017213
11550.0 0.00016767
11570.0 0.00016284
11590.0 0.00015793
11610.0 0.00015311
11630.0 0.00014815
11650.0 0.00014316
11670.0 0.00013853
11690.0 0.00013409
11710.0 0.00012974
11730.0 0.00012569
11750.0 0.00012201
11770.0 0.00011844
11790.0 0.00011505
11810.0 0.00011195
11830.0 0.00010902
11850.0 0.00010608
11870.0 0.00010331
11890.0 0.0001007
11910.0 9.8036e-05
11930.0 9.5359e-05
11950.0 9.2773e-05
11970.0 9.0151e-05
11990.0 8.741e-05
12010.0 8.4725e-05
12030.0 8.2099e-05
12050.0 7.9429e-05
12070.0 7.6769e-05
12090.0 7.4354e-05
12110.0 7.2041e-05
12130.0 6.9853e-05
12150.0 6.7941e-05
12170.0 6.6335e-05
12190.0 6.4962e-05
12210.0 6.3966e-05
12230.0 6.3371e-05
12250.0 6.3155e-05
12270.0 6.3362e-05
12290.0 6.3966e-05
12310.0 6.4908e-05
12330.0 6.6256e-05
12350.0 6.7926e-05
12370.0 6.9782e-05
12390.0 7.1856e-05
12410.0 7.4193e-05
12430.0 7.6446e-05
12450.0 7.8653e-05
12470.0 8.086e-05
12490.0 8.2919e-05
12510.0 8.4692e-05
12530.0 8.6304e-05
12550.0 8.7697e-05
12570.0 8.8759e-05
12590.0 8.9535e-05
12610.0 9.0069e-05
12630.0 9.0313e-05
12650.0 9.0278e-05
12670.0 9.002e-05
12690.0 8.9539e-05
12710.0 8.8871e-05
12730.0 8.8049e-05
12750.0 8.7044e-05
12770.0 8.5925e-05
12790.0 8.4729e-05
12810.0 8.3421e-05
12830.0 8.2e-05
12850.0 8.0556e-05
12870.0 7.9049e-05
12890.0 7.7417e-05
12910.0 7.5722e-05
12930.0 7.3993e-05
12950.0 7.2118e-05
12970.0 7.0111e-05
12990.0 6.8106e-05
13010.0 6.6026e-05
13030.0 6.3821e-05
13050.0 6.1611e-05
13070.0 5.947e-05
13090.0 5.7272e-05
13110.0 5.5117e-05
13130.0 5.3125e-05
13150.0 5.1257e-05
13170.0 4.9471e-05
13190.0 4.794e-05
13210.0 4.6656e-05
13230.0 4.5556e-05
13250.0 4.4686e-05
13270.0 4.4066e-05
13290.0 4.3647e-05
13310.0 4.3421e-05
13330.0 4.3374e-05
13350.0 4.3463e-05
13370.0 4.3667e-05
13390.0 4.3954e-05
13410.0 4.4255e-05
13430.0 4.4569e-05
13450.0 4.4873e-05
13470.0 4.5124e-05
13490.0 4.5311e-05
13510.0 4.5446e-05
13530.0 4.5505e-05
13550.0 4.5496e-05
13570.0 4.5433e-05
13590.0 4.5326e-05
13610.0 4.5191e-05
13630.0 4.5043e-05
13650.0 4.489e-05
13670.0 4.4746e-05
13690.0 4.4618e-05
13710.0 4.4509e-05
13730.0 4.4419e-05
13750.0 4.4345e-05
13770.0 4.428e-05
13790.0 4.4217e-05
13810.0 4.4145e-05
13830.0 4.4053e-05
13850.0 4.3933e-05
13870.0 4.3772e-05
13890.0 4.3569e-05
13910.0 4.3321e-05
13930.0 4.3017e-05
13950.0 4.2667e-05
13970.0 4.2296e-05
13990.0 4.1892e-05
14010.0 4.1467e-05
14030.0 4.1053e-05
14050.0 4.0653e-05
14070.0 4.0258e-05
14090.0 3.9905e-05
14110.0 3.9597e-05
14130.0 3.9324e-05
14150.0 3.9092e-05
14170.0 3.891e-05
14190.0 3.8767e-05
14210.0 3.866e-05
14230.0 3.8594e-05
14250.0 3.8566e-05
14270.0 3.8578e-05
14290.0 3.8638e-05
14310.0 3.8736e-05
14330.0 3.8879e-05
14350.0 3.9078e-05
14370.0 3.9319e-05
14390.0 3.9593e-05
14410.0 3.9921e-05
14430.0 4.0288e-05
14450.0 4.0673e-05
14470.0 4.1085e-05
14490.0 4.1547e-05
14510.0 4.2016e-05
14530.0 4.2497e-05
14550.0 4.303e-05
14570.0 4.3611e-05
14590.0 4.4218e-05
14610.0 4.4901e-05
14630.0 4.5694e-05
14650.0 4.6553e-05
14670.0 4.7492e-05
14690.0 4.857e-05
14710.0 4.9777e-05
14730.0 5.1009e-05
14750.0 5.2358e-05
14770.0 5.3822e-05
14790.0 5.5303e-05
14810.0 5.6777e-05
14830.0 5.8353e-05
14850.0 5.9875e-05
14870.0 6.1281e-05
14890.0 6.2624e-05
14910.0 6.3877e-05
14930.0 6.4936e-05
14950.0 6.581e-05
14970.0 6.6537e-05
14990.0 6.7062e-05
15010.0 6.7394e-05
15030.0 6.7578e-05
15050.0 6.763e-05
15070.0 6.7579e-05
15090.0 6.7463e-05
15110.0 6.7302e-05
15130.0 6.7116e-05
15150.0 6.6926e-05
15170.0 6.6723e-05
15190.0 6.6515e-05
15210.0 6.6314e-05
15230.0 6.6114e-05
15250.0 6.5908e-05
15270.0 6.5704e-05
15290.0 6.5511e-05
15310.0 6.5313e-05
15330.0 6.5113e-05
15350.0 6.4921e-05
15370.0 6.4731e-05
15390.0 6.4531e-05
15410.0 6.4338e-05
15430.0 6.415e-05
15450.0 6.3959e-05
15470.0 6.3764e-05
15490.0 6.3579e-05
15510.0 6.3395e-05
15530.0 6.3204e-05
15550.0 6.3018e-05
15570.0 6.2838e-05
15590.0 6.265e-05
15610.0 6.2461e-05
15630.0 6.2281e-05
15650.0 6.2101e-05
15670.0 6.1915e-05
15690.0 6.1733e-05
15710.0 6.1559e-05
15730.0 6.1376e-05
15750.0 6.1193e-05
15770.0 6.1017e-05
15790.0 6.0839e-05
15810.0 6.0654e-05
15830.0 6.0476e-05
15850.0 6.0303e-05
15870.0 6.0123e-05
15890.0 5.9944e-05
15910.0 5.9772e-05
15930.0 5.9596e-05
15950.0 5.9414e-05
15970.0 5.9238e-05
15990.0 5.9065e-05
16010.0 5.8886e-05
16030.0 5.8705e-05
16050.0 5.8535e-05
16070.0 5.836e-05
16090.0 5.8181e-05
16110.0 5.8007e-05
16130.0 5.7836e-05
16150.0 5.7653e-05
16170.0 5.7474e-05
16190.0 5.7303e-05
16210.0 5.7127e-05
16230.0 5.6945e-05
16250.0 5.6771e-05
16270.0 5.6599e-05
16290.0 5.6418e-05
16310.0 5.624e-05
16330.0 5.6067e-05
16350.0 5.5889e-05
16370.0 5.5702e-05
16390.0 5.5527e-05
16410.0 5.5352e-05
16430.0 5.517e-05
16450.0 5.4989e-05
16470.0 5.4816e-05
16490.0 5.4634e-05
16510.0 5.4449e-05
16530.0 5.4271e-05
16550.0 5.4092e-05
16570.0 5.3905e-05
16590.0 5.372e-05
16610.0 5.3543e-05
16630.0 5.3359e-05
16650.0 5.3172e-05
16670.0 5.2992e-05
16690.0 5.2811e-05
16710.0 5.2618e-05
16730.0 5.2432e-05
16750.0 5.225e-05
16770.0 5.2061e-05
16790.0 5.1869e-05
16810.0 5.1685e-05
16830.0 5.15e-05
16850.0 5.1306e-05
16870.0 5.1117e-05
16890.0 5.0932e-05
16910.0 5.0737e-05
16930.0 5.054e-05
16950.0 5.0352e-05
16970.0 5.0161e-05
16990.0 4.9963e-05
17010.0 4.977e-05
17030.0 4.9581e-05
17050.0 4.9383e-05
17070.0 4.9184e-05
17090.0 4.8991e-05
17110.0 4.8796e-05
17130.0 4.859e-05
17150.0 4.8393e-05
17170.0 4.8199e-05
17190.0 4.7997e-05
17210.0 4.7795e-05
17230.0 4.76e-05
17250.0 4.7399e-05
17270.0 4.719e-05
17290.0 4.6989e-05
17310.0 4.6789e-05
17330.0 4.6582e-05
17350.0 4.6373e-05
17370.0 4.6175e-05
17390.0 4.597e-05
17410.0 4.576e-05
17430.0 4.5556e-05
17450.0 4.5354e-05
17470.0 4.5139e-05
17490.0 4.4928e-05
17510.0 4.4724e-05
17530.0 4.4514e-05
17550.0 4.4299e-05
17570.0 4.4092e-05
17590.0 4.3886e-05
17610.0 4.367e-05
17630.0 4.3457e-05
17650.0 4.3249e-05
17670.0 4.3036e-05
17690.0 4.2814e-05
17710.0 4.2604e-05
17730.0 4.2394e-05
17750.0 4.2175e-05
17770.0 4.196e-05
17790.0 4.1751e-05
17810.0 4.1533e-05
17830.0 4.1312e-05
17850.0 4.1098e-05
17870.0 4.0884e-05
17890.0 4.0661e-05
17910.0 4.0441e-05
17930.0 4.023e-05
17950.0 4.001e-05
17970.0 3.9789e-05
17990.0 3.9574e-05
18010.0 3.9358e-05
18030.0 3.9131e-05
18050.0 3.8911e-05
18070.0 3.8696e-05
18090.0 3.8474e-05
18110.0 3.8249e-05
18130.0 3.8034e-05
18150.0 3.7815e-05
18170.0 3.759e-05
18190.0 3.737e-05
18210.0 3.7154e-05
18230.0 3.6928e-05
18250.0 3.6701e-05
18270.0 3.6485e-05
18290.0 3.6264e-05
18310.0 3.6039e-05
18330.0 3.5818e-05
18350.0 3.5602e-05
18370.0 3.5376e-05
18390.0 3.5152e-05
18410.0 3.4933e-05
18430.0 3.4712e-05
18450.0 3.4483e-05
18470.0 3.4263e-05
18490.0 3.4045e-05
18510.0 3.3821e-05
18530.0 3.3597e-05
18550.0 3.3381e-05
18570.0 3.3159e-05
18590.0 3.2931e-05
18610.0 3.2712e-05
18630.0 3.2493e-05
18650.0 3.2268e-05
18670.0 3.2043e-05
18690.0 3.1829e-05
18710.0 3.1608e-05
18730.0 3.1384e-05
18750.0 3.1165e-05
18770.0 3.095e-05
18790.0 3.0722e-05
18810.0 3.05e-05
18830.0 3.0285e-05
18850.0 3.0065e-05
18870.0 2.9841e-05
18890.0 2.9625e-05
18910.0 2.941e-05
18930.0 2.9187e-05
18950.0 2.8968e-05
18970.0 2.8754e-05
18990.0 2.8536e-05
19010.0 2.831e-05
19030.0 2.8097e-05
19050.0 2.7883e-05
19070.0 2.7663e-05
19090.0 2.7447e-05
19110.0 2.7237e-05
19130.0 2.7018e-05
19150.0 2.6799e-05
19170.0 2.6587e-05
19190.0 2.6374e-05
19210.0 2.6155e-05
19230.0 2.594e-05
19250.0 2.5732e-05
19270.0 2.5518e-05
19290.0 2.5302e-05
19310.0 2.5094e-05
19330.0 2.4885e-05
19350.0 2.4666e-05
19370.0 2.4455e-05
19390.0 2.4248e-05
19410.0 2.4036e-05
19430.0 2.3822e-05
19450.0 2.3618e-05
19470.0 2.3411e-05
19490.0 2.3198e-05
19510.0 2.2991e-05
19530.0 2.2788e-05
19550.0 2.2577e-05
19570.0 2.2365e-05
19590.0 2.2164e-05
19610.0 2.1959e-05
19630.0 2.175e-05
19650.0 2.1547e-05
19670.0 2.1348e-05
19690.0 2.114e-05
19710.0 2.0934e-05
19730.0 2.0735e-05
19750.0 2.0533e-05
19770.0 2.0324e-05
19790.0 2.0125e-05
19810.0 1.9928e-05
19830.0 1.9724e-05
19850.0 1.952e-05
19870.0 1.9321e-05
19890.0 1.9111e-05
19910.0 1.8885e-05
19930.0 1.8651e-05
19950.0 1.8394e-05
19970.0 1.8095e-05
19990.0 1.7754e-05
20010.0 1.7387e-05
20030.0 1.6968e-05
20050.0 1.6507e-05
20070.0 1.604e-05
20090.0 1.5571e-05
20110.0 1.5081e-05
20130.0 1.4627e-05
20150.0 1.4215e-05
20170.0 1.3826e-05
20190.0 1.347e-05
20210.0 1.3166e-05
20230.0 1.2899e-05
20250.0 1.2661e-05
20270.0 1.2465e-05
20290.0 1.2308e-05
20310.0 1.2179e-05
20330.0 1.2081e-05
20350.0 1.2017e-05
20370.0 1.1979e-05
20390.0 1.1968e-05
20410.0 1.1984e-05
20430.0 1.2023e-05
20450.0 1.209e-05
20470.0 1.2184e-05
20490.0 1.23e-05
20510.0 1.2441e-05
20530.0 1.2613e-05
20550.0 1.2805e-05
20570.0 1.3011e-05
20590.0 1.3244e-05
20610.0 1.3495e-05
20630.0 1.3749e-05
20650.0 1.4015e-05
20670.0 1.4299e-05
20690.0 1.4569e-05
20710.0 1.483e-05
20730.0 1.5091e-05
20750.0 1.5342e-05
20770.0 1.5569e-05
20790.0 1.5788e-05
20810.0 1.6e-05
20830.0 1.6194e-05
20850.0 1.6377e-05
20870.0 1.6563e-05
20890.0 1.6747e-05
20910.0 1.6922e-05
20930.0 1.7104e-05
20950.0 1.7297e-05
20970.0 1.7488e-05
20990.0 1.7679e-05
21010.0 1.7883e-05
21030.0 1.8081e-05
21050.0 1.8268e-05
21070.0 1.8447e-05
21090.0 1.8618e-05
21110.0 1.876e-05
21130.0 1.8878e-05
21150.0 1.8976e-05
21170.0 1.9044e-05
21190.0 1.9081e-05
21210.0 1.9092e-05
21230.0 1.9073e-05
21250.0 1.9027e-05
21270.0 1.8955e-05
21290.0 1.8857e-05
21310.0 1.8736e-05
21330.0 1.8602e-05
21350.0 1.8447e-05
21370.0 1.8274e-05
21390.0 1.8095e-05
21410.0 1.7907e-05
21430.0 1.7701e-05
21450.0 1.7497e-05
21470.0 1.7297e-05
21490.0 1.7093e-05
21510.0 1.6889e-05
21530.0 1.67e-05
21550.0 1.6517e-05
21570.0 1.6339e-05
21590.0 1.6178e-05
21610.0 1.6035e-05
21630.0 1.5907e-05
21650.0 1.5796e-05
21670.0 1.5712e-05
21690.0 1.5649e-05
21710.0 1.561e-05
21730.0 1.5596e-05
21750.0 1.5606e-05
21770.0 1.5643e-05
21790.0 1.5707e-05
21810.0 1.5793e-05
21830.0 1.5904e-05
21850.0 1.6044e-05
21870.0 1.6202e-05
21890.0 1.6374e-05
21910.0 1.6572e-05
21930.0 1.6788e-05
21950.0 1.701e-05
21970.0 1.7247e-05
21990.0 1.7506e-05
22010.0 1.776e-05
22030.0 1.8014e-05
22050.0 1.8278e-05
22070.0 1.8542e-05
22090.0 1.8788e-05
22110.0 1.9034e-05
22130.0 1.9276e-05
22150.0 1.9496e-05
22170.0 1.9697e-05
22190.0 1.9887e-05
22210.0 2.0051e-05
22230.0 2.0182e-05
22250.0 2.0289e-05
22270.0 2.0366e-05
22290.0 2.0407e-05
22310.0 2.0415e-05
22330.0 2.0386e-05
22350.0 2.0319e-05
22370.0 2.0216e-05
22390.0 2.0074e-05
22410.0 1.9888e-05
22430.0 1.9675e-05
22450.0 1.943e-05
22470.0 1.9143e-05
22490.0 1.8829e-05
22510.0 1.85e-05
22530.0 1.8133e-05
22550.0 1.7737e-05
22570.0 1.7341e-05
22590.0 1.6932e-05
22610.0 1.6499e-05
22630.0 1.6064e-05
