#lamb flux
1010.0 1.9898e-06
1030.0 2.1038e-06
1050.0 2.2356e-06
1070.0 2.3843e-06
1090.0 2.5534e-06
1110.0 2.7273e-06
1130.0 2.903e-06
1150.0 3.0876e-06
1170.0 3.2789e-06
1190.0 3.4613e-06
1210.0 3.6471e-06
1230.0 3.8399e-06
1250.0 4.0301e-06
1270.0 4.2162e-06
1290.0 4.4136e-06
1310.0 4.6123e-06
1330.0 4.8045e-06
1350.0 5.0003e-06
1370.0 5.2037e-06
1390.0 5.4038e-06
1410.0 5.6e-06
1430.0 5.8062e-06
1450.0 6.014e-06
1470.0 6.2171e-06
1490.0 6.4238e-06
1510.0 6.6426e-06
1530.0 6.8525e-06
1550.0 7.0611e-06
1570.0 7.2774e-06
1590.0 7.4947e-06
1610.0 7.7041e-06
1630.0 7.9197e-06
1650.0 8.1406e-06
1670.0 8.3548e-06
1690.0 8.5659e-06
1710.0 8.7835e-06
1730.0 9.0009e-06
1750.0 9.2045e-06
1770.0 9.4114e-06
1790.0 9.6197e-06
1810.0 9.8185e-06
1830.0 1.001e-05
1850.0 1.021e-05
1870.0 1.04e-05
1890.0 1.0579e-05
1910.0 1.0757e-05
1930.0 1.0934e-05
1950.0 1.1097e-05
1970.0 1.1251e-05
1990.0 1.1408e-05
2010.0 1.1556e-05
2030.0 1.1691e-05
2050.0 1.1827e-05
2070.0 1.1963e-05
2090.0 1.2082e-05
2110.0 1.2198e-05
2130.0 1.2315e-05
2150.0 1.2426e-05
2170.0 1.2526e-05
2190.0 1.2631e-05
2210.0 1.2737e-05
2230.0 1.2835e-05
2250.0 1.2933e-05
2270.0 1.3041e-05
2290.0 1.3146e-05
2310.0 1.3247e-05
2330.0 1.3357e-05
2350.0 1.3474e-05
2370.0 1.359e-05
2390.0 1.3715e-05
2410.0 1.3855e-05
2430.0 1.3998e-05
2450.0 1.4148e-05
2470.0 1.4313e-05
2490.0 1.4499e-05
2510.0 1.4707e-05
2530.0 1.4982e-05
2550.0 1.54e-05
2570.0 1.6047e-05
2590.0 1.7029e-05
2610.0 1.8606e-05
2630.0 2.0875e-05
2650.0 2.3755e-05
2670.0 2.7305e-05
2690.0 3.144e-05
2710.0 3.5664e-05
2730.0 3.9725e-05
2750.0 4.3691e-05
2770.0 4.7253e-05
2790.0 5.0345e-05
2810.0 5.32e-05
2830.0 5.6002e-05
2850.0 5.8629e-05
2870.0 6.1281e-05
2890.0 6.4102e-05
2910.0 6.7045e-05
2930.0 7.0025e-05
2950.0 7.3219e-05
2970.0 7.6604e-05
2990.0 8.0041e-05
3010.0 0.00022393
3030.0 0.00023387
3050.0 0.00024378
3070.0 0.00025282
3090.0 0.00026053
3110.0 0.0002649
3130.0 0.0002635
3150.0 0.00025367
3170.0 0.00023003
3190.0 0.00019205
3210.0 0.00014032
3230.0 8.2106e-05
3250.0 0.0001445
3270.0 7.6558e-05
3290.0 0.00022135
3310.0 6.4945e-05
3330.0 6.3677e-05
3350.0 8.2992e-05
3370.0 0.00010582
3390.0 0.00013056
3410.0 0.00015529
3430.0 0.0001813
3450.0 0.00020744
3470.0 0.00023142
3490.0 0.00024767
3510.0 0.000305
3530.0 0.00040808
3550.0 0.00039638
3570.0 0.00031889
3590.0 0.00044901
3610.0 0.00027171
3630.0 0.00047035
3650.0 0.00055225
3670.0 0.0007163
3690.0 0.00066334
3710.0 0.00043037
3730.0 0.00057519
3750.0 0.00059199
3770.0 0.00062909
3790.0 0.00059347
3810.0 0.00058401
3830.0 0.0009227
3850.0 0.0011086
3870.0 0.0013784
3890.0 0.0013173
3910.0 0.0011615
3930.0 0.0011882
3950.0 0.0013003
3970.0 0.0015186
3990.0 0.0010197
4010.0 0.00055186
4030.0 0.00094419
4050.0 0.0012056
4070.0 0.0013325
4090.0 0.00099267
4110.0 0.00061594
4130.0 0.00097211
4150.0 0.00095767
4170.0 0.00093129
4190.0 0.00087127
4210.0 0.0012021
4230.0 0.00084179
4250.0 0.00095021
4270.0 0.00094528
4290.0 0.0009146
4310.0 0.0011721
4330.0 0.001241
4350.0 0.00097961
4370.0 0.00081531
4390.0 0.0010277
4410.0 0.0010688
4430.0 0.00079023
4450.0 0.00074868
4470.0 0.00091869
4490.0 0.00067419
4510.0 0.00091349
4530.0 0.00095759
4550.0 0.0011941
4570.0 0.0017269
4590.0 0.001656
4610.0 0.0011602
4630.0 0.0019487
4650.0 0.0027357
4670.0 0.0025634
4690.0 0.0016367
4710.0 0.0017793
4730.0 0.0021802
4750.0 0.0018568
4770.0 0.0014006
4790.0 0.00092098
4810.0 0.0013269
4830.0 0.0015607
4850.0 0.0013418
4870.0 0.0004296
4890.0 0.0014899
4910.0 0.0020578
4930.0 0.0022269
4950.0 0.0022232
4970.0 0.0013982
4990.0 0.0016431
5010.0 0.0019757
5030.0 0.0021956
5050.0 0.0021249
5070.0 0.001501
5090.0 0.0012108
5110.0 0.0011531
5130.0 0.0010635
5150.0 0.0011483
5170.0 0.0010046
5190.0 0.0012353
5210.0 0.0012462
5230.0 0.0013783
5250.0 0.001684
5270.0 0.0013639
5290.0 0.0013732
5310.0 0.0020847
5330.0 0.0024201
5350.0 0.0019891
5370.0 0.0017372
5390.0 0.0020412
5410.0 0.0025388
5430.0 0.002757
5450.0 0.0029083
5470.0 0.0028804
5490.0 0.0028628
5510.0 0.0034167
5530.0 0.003548
5550.0 0.0037957
5570.0 0.0040359
5590.0 0.0039855
5610.0 0.0037281
5630.0 0.003611
5650.0 0.003722
5670.0 0.0036505
5690.0 0.00309
5710.0 0.0030445
5730.0 0.0030997
5750.0 0.0033245
5770.0 0.0028487
5790.0 0.0026513
5810.0 0.0026927
5830.0 0.0028838
5850.0 0.0026497
5870.0 0.0026788
5890.0 0.0032044
5910.0 0.0030049
5930.0 0.0024303
5950.0 0.0021371
5970.0 0.0023449
5990.0 0.0021484
6010.0 0.0020016
6030.0 0.0020152
6050.0 0.0018554
6070.0 0.001384
6090.0 0.0012743
6110.0 0.0016861
6130.0 0.0019362
6150.0 0.0020118
6170.0 0.001932
6190.0 0.001798
6210.0 0.0018207
6230.0 0.0022155
6250.0 0.0020465
6270.0 0.0018563
6290.0 0.0017068
6310.0 0.0015811
6330.0 0.0014844
6350.0 0.0013049
6370.0 0.0013058
6390.0 0.0015372
6410.0 0.0019206
6430.0 0.002242
6450.0 0.0021626
6470.0 0.0021351
6490.0 0.0026682
6510.0 0.0030977
6530.0 0.0029282
6550.0 0.0027772
6570.0 0.0028201
6590.0 0.0027613
6610.0 0.0029719
6630.0 0.0027675
6650.0 0.0023918
6670.0 0.0021777
6690.0 0.0021593
6710.0 0.002651
6730.0 0.0023782
6750.0 0.0019515
6770.0 0.0017304
6790.0 0.0018338
6810.0 0.0021061
6830.0 0.0020827
6850.0 0.0018627
6870.0 0.0019442
6890.0 0.0019321
6910.0 0.0018162
6930.0 0.0020624
6950.0 0.0018981
6970.0 0.0017486
6990.0 0.0017334
7010.0 0.001712
7030.0 0.0016495
7050.0 0.0015979
7070.0 0.0017573
7090.0 0.0016571
7110.0 0.0014044
7130.0 0.0011621
7150.0 0.0011074
7170.0 0.0014569
7190.0 0.0015672
7210.0 0.0014823
7230.0 0.001543
7250.0 0.0014559
7270.0 0.0013961
7290.0 0.0015417
7310.0 0.0017288
7330.0 0.0016969
7350.0 0.0015759
7370.0 0.0014634
7390.0 0.0014856
7410.0 0.0017255
7430.0 0.0019223
7450.0 0.0020333
7470.0 0.0020189
7490.0 0.0021959
7510.0 0.0021571
7530.0 0.0020254
7550.0 0.0019674
7570.0 0.0017169
7590.0 0.0016684
7610.0 0.0016107
7630.0 0.0014675
7650.0 0.001581
7670.0 0.0017395
7690.0 0.0018911
7710.0 0.002152
7730.0 0.0022701
7750.0 0.0023639
7770.0 0.0024257
7790.0 0.002655
7810.0 0.0026986
7830.0 0.0024246
7850.0 0.0024403
7870.0 0.0023403
7890.0 0.0024343
7910.0 0.0023013
7930.0 0.0023067
7950.0 0.001956
7970.0 0.0019824
7990.0 0.0019035
8010.0 0.0020195
8030.0 0.0020098
8050.0 0.0021326
8070.0 0.0020434
8090.0 0.0020523
8110.0 0.0020184
8130.0 0.0020076
8150.0 0.0018953
8170.0 0.001854
8190.0 0.001843
8210.0 0.0018602
8230.0 0.0016247
8250.0 0.0014831
8270.0 0.0013102
8290.0 0.0011117
8310.0 0.00098164
8330.0 0.00078389
8350.0 0.00064128
8370.0 0.00062844
8390.0 0.00061055
8410.0 0.00063553
8430.0 0.00081153
8450.0 0.00087977
8470.0 0.00094311
8490.0 0.0011029
8510.0 0.0012001
8530.0 0.0013704
8550.0 0.0016208
8570.0 0.0017812
8590.0 0.0018767
8610.0 0.0020726
8630.0 0.0023415
8650.0 0.002395
8670.0 0.0024399
8690.0 0.0025388
8710.0 0.0024927
8730.0 0.002425
8750.0 0.0022438
8770.0 0.0022466
8790.0 0.0022176
8810.0 0.0020393
8830.0 0.0020483
8850.0 0.001891
8870.0 0.0018089
8890.0 0.0016228
8910.0 0.0017955
8930.0 0.0016233
8950.0 0.0016196
8970.0 0.0016476
8990.0 0.0015961
9010.0 0.0016398
9030.0 0.0015588
9050.0 0.0015509
9070.0 0.001551
9090.0 0.0015508
9110.0 0.0015515
9130.0 0.0015508
9150.0 0.0015493
9170.0 0.0015435
9190.0 0.0015313
9210.0 0.0015548
9230.0 0.0015473
9250.0 0.0015427
9270.0 0.0015386
9290.0 0.0015349
9310.0 0.0015313
9330.0 0.0015278
9350.0 0.0015242
9370.0 0.0015205
9390.0 0.0015167
9410.0 0.0015128
9430.0 0.0015088
9450.0 0.0015045
9470.0 0.0015002
9490.0 0.0014958
9510.0 0.0014913
9530.0 0.0014866
9550.0 0.0014819
9570.0 0.0014772
9590.0 0.0014723
9610.0 0.0014674
9630.0 0.0014625
9650.0 0.0014576
9670.0 0.0014525
9690.0 0.0014476
9710.0 0.0014426
9730.0 0.0014375
9750.0 0.0014325
9770.0 0.0014276
9790.0 0.0014226
9810.0 0.0014177
9830.0 0.0014128
9850.0 0.001408
9870.0 0.0014031
9890.0 0.0013983
9910.0 0.0013937
9930.0 0.001389
9950.0 0.0013819
9970.0 0.0013782
9990.0 0.0013745
10010.0 0.0013706
10030.0 0.0013667
10050.0 0.0013623
10070.0 0.0013556
10090.0 0.0013526
10110.0 0.0013496
10130.0 0.0013464
10150.0 0.0013432
10170.0 0.0013398
10190.0 0.0013364
10210.0 0.0013332
10230.0 0.00133
10250.0 0.0013269
10270.0 0.0013238
10290.0 0.001321
10310.0 0.0013182
10330.0 0.0013154
10350.0 0.0013129
10370.0 0.0013105
10390.0 0.0013081
10410.0 0.0013058
10430.0 0.0013038
10450.0 0.0013017
10470.0 0.0012998
10490.0 0.001298
10510.0 0.0012964
10530.0 0.0012947
10550.0 0.0012932
10570.0 0.0012919
10590.0 0.0012907
10610.0 0.0012895
10630.0 0.0012885
10650.0 0.0012876
10670.0 0.0012867
10690.0 0.0012859
10710.0 0.0012853
10730.0 0.0012848
10750.0 0.0012842
10770.0 0.0012839
10790.0 0.0012837
10810.0 0.0012834
10830.0 0.0012833
10850.0 0.0012832
10870.0 0.0012828
10890.0 0.001282
10910.0 0.0012805
10930.0 0.0012776
10950.0 0.0012723
10970.0 0.0012641
10990.0 0.0012527
11010.0 0.0012673
11030.0 0.0012464
11050.0 0.0012217
11070.0 0.001193
11090.0 0.0011598
11110.0 0.0011266
11130.0 0.0010933
11150.0 0.0010591
11170.0 0.0010258
11190.0 0.00099538
11210.0 0.00096583
11230.0 0.00093751
11250.0 0.00091224
11270.0 0.00088946
11290.0 0.00086793
11310.0 0.00084855
11330.0 0.00083211
11350.0 0.0008168
11370.0 0.00080252
11390.0 0.00078972
11410.0 0.00077779
11430.0 0.00076551
11450.0 0.00075355
11470.0 0.00074181
11490.0 0.00072942
11510.0 0.00071607
11530.0 0.00070274
11550.0 0.00068893
11570.0 0.00067393
11590.0 0.00065853
11610.0 0.00064322
11630.0 0.00062695
11650.0 0.00060999
11670.0 0.00059375
11690.0 0.00057756
11710.0 0.00056093
11730.0 0.0005448
11750.0 0.00052973
11770.0 0.00051451
11790.0 0.00049965
11810.0 0.00048592
11830.0 0.00047283
11850.0 0.00045966
11870.0 0.00044757
11890.0 0.00043647
11910.0 0.00042553
11930.0 0.00041495
11950.0 0.00040526
11970.0 0.00039584
11990.0 0.00038632
12010.0 0.00037739
12030.0 0.00036895
12050.0 0.0003605
12070.0 0.00035216
12090.0 0.00034474
12110.0 0.00033757
12130.0 0.00033067
12150.0 0.00032453
12170.0 0.00031927
12190.0 0.00031445
12210.0 0.00031067
12230.0 0.00030814
12250.0 0.00030671
12270.0 0.00030654
12290.0 0.00030779
12310.0 0.00031035
12330.0 0.00031436
12350.0 0.00031973
12370.0 0.00032614
12390.0 0.00033364
12410.0 0.00034244
12430.0 0.00035147
12450.0 0.00036079
12470.0 0.00037055
12490.0 0.00038021
12510.0 0.00038923
12530.0 0.00039802
12550.0 0.00040636
12570.0 0.00041375
12590.0 0.00042029
12610.0 0.0004262
12630.0 0.0004312
12650.0 0.00043519
12670.0 0.0004385
12690.0 0.00044106
12710.0 0.00044289
12730.0 0.00044411
12750.0 0.00044469
12770.0 0.00044471
12790.0 0.00044428
12810.0 0.00044333
12830.0 0.0004418
12850.0 0.00043994
12870.0 0.00043764
12890.0 0.00043471
12910.0 0.00043132
12930.0 0.00042759
12950.0 0.00042312
12970.0 0.00041796
12990.0 0.00041259
13010.0 0.00040671
13030.0 0.00040012
13050.0 0.00039323
13070.0 0.00038634
13090.0 0.0003789
13110.0 0.00037126
13130.0 0.00036394
13150.0 0.00035676
13170.0 0.00034948
13190.0 0.00034295
13210.0 0.00033722
13230.0 0.00033195
13250.0 0.00032746
13270.0 0.00032401
13290.0 0.00032134
13310.0 0.00031942
13330.0 0.0003184
13350.0 0.00031809
13370.0 0.0003183
13390.0 0.00031893
13410.0 0.00031978
13430.0 0.00032065
13450.0 0.00032137
13470.0 0.00032179
13490.0 0.00032181
13510.0 0.00032125
13530.0 0.0003201
13550.0 0.00031845
13570.0 0.00031624
13590.0 0.00031346
13610.0 0.0003104
13630.0 0.00030718
13650.0 0.00030365
13670.0 0.00030009
13690.0 0.00029672
13710.0 0.00029341
13730.0 0.00029012
13750.0 0.00028724
13770.0 0.00028458
13790.0 0.00028203
13810.0 0.00027965
13830.0 0.00027749
13850.0 0.00027531
13870.0 0.00027312
13890.0 0.00027097
13910.0 0.00026878
13930.0 0.00026642
13950.0 0.00026399
13970.0 0.00026161
13990.0 0.00025913
14010.0 0.0002566
14030.0 0.00025419
14050.0 0.00025188
14070.0 0.0002496
14090.0 0.00024756
14110.0 0.00024578
14130.0 0.00024419
14150.0 0.00024285
14170.0 0.00024181
14190.0 0.00024102
14210.0 0.00024047
14230.0 0.0002402
14250.0 0.00024015
14270.0 0.00024038
14290.0 0.00024088
14310.0 0.00024156
14330.0 0.00024246
14350.0 0.00024363
14370.0 0.00024494
14390.0 0.00024633
14410.0 0.00024791
14430.0 0.00024957
14450.0 0.00025118
14470.0 0.00025279
14490.0 0.00025447
14510.0 0.000256
14530.0 0.00025742
14550.0 0.00025886
14570.0 0.0002603
14590.0 0.00026167
14610.0 0.00026316
14630.0 0.00026487
14650.0 0.00026671
14670.0 0.00026876
14690.0 0.00027123
14710.0 0.00027415
14730.0 0.00027724
14750.0 0.00028082
14770.0 0.00028495
14790.0 0.00028935
14810.0 0.00029396
14830.0 0.00029924
14850.0 0.00030464
14870.0 0.00030991
14890.0 0.00031525
14910.0 0.00032056
14930.0 0.00032525
14950.0 0.00032928
14970.0 0.00033277
14990.0 0.00033529
15010.0 0.00033679
15030.0 0.00033744
15050.0 0.00033732
15070.0 0.00033649
15090.0 0.00033523
15110.0 0.00033366
15130.0 0.0003319
15150.0 0.00033007
15170.0 0.00032817
15190.0 0.00032624
15210.0 0.00032432
15230.0 0.0003224
15250.0 0.00032046
15270.0 0.00031853
15290.0 0.00031663
15310.0 0.00031472
15330.0 0.00031279
15350.0 0.0003109
15370.0 0.00030901
15390.0 0.0003071
15410.0 0.0003052
15430.0 0.00030333
15450.0 0.00030145
15470.0 0.00029957
15490.0 0.00029772
15510.0 0.00029587
15530.0 0.00029401
15550.0 0.00029217
15570.0 0.00029035
15590.0 0.00028852
15610.0 0.00028668
15630.0 0.00028489
15650.0 0.0002831
15670.0 0.00028129
15690.0 0.00027952
15710.0 0.00027776
15730.0 0.00027599
15750.0 0.00027423
15770.0 0.0002725
15790.0 0.00027078
15810.0 0.00026903
15830.0 0.00026732
15850.0 0.00026564
15870.0 0.00026394
15890.0 0.00026226
15910.0 0.00026061
15930.0 0.00025895
15950.0 0.00025729
15970.0 0.00025566
15990.0 0.00025404
16010.0 0.00025242
16030.0 0.0002508
16050.0 0.00024923
16070.0 0.00024766
16090.0 0.00024608
16110.0 0.00024453
16130.0 0.000243
16150.0 0.00024144
16170.0 0.00023991
16190.0 0.00023842
16210.0 0.00023692
16230.0 0.00023541
16250.0 0.00023394
16270.0 0.00023249
16290.0 0.00023103
16310.0 0.00022958
16330.0 0.00022816
16350.0 0.00022674
16370.0 0.00022531
16390.0 0.00022392
16410.0 0.00022255
16430.0 0.00022116
16450.0 0.00021979
16470.0 0.00021846
16490.0 0.00021711
16510.0 0.00021577
16530.0 0.00021446
16550.0 0.00021315
16570.0 0.00021184
16590.0 0.00021054
16610.0 0.00020928
16630.0 0.00020802
16650.0 0.00020675
16670.0 0.00020551
16690.0 0.00020429
16710.0 0.00020304
16730.0 0.00020182
16750.0 0.00020063
16770.0 0.00019943
16790.0 0.00019823
16810.0 0.00019707
16830.0 0.00019591
16850.0 0.00019474
16870.0 0.00019359
16890.0 0.00019247
16910.0 0.00019133
16930.0 0.0001902
16950.0 0.0001891
16970.0 0.000188
16990.0 0.0001869
17010.0 0.00018582
17030.0 0.00018476
17050.0 0.00018369
17070.0 0.00018262
17090.0 0.00018158
17110.0 0.00018055
17130.0 0.0001795
17150.0 0.00017848
17170.0 0.00017748
17190.0 0.00017646
17210.0 0.00017546
17230.0 0.00017448
17250.0 0.0001735
17270.0 0.00017251
17290.0 0.00017154
17310.0 0.00017059
17330.0 0.00016963
17350.0 0.00016867
17370.0 0.00016775
17390.0 0.00016683
17410.0 0.00016589
17430.0 0.00016498
17450.0 0.00016409
17470.0 0.00016317
17490.0 0.00016226
17510.0 0.00016139
17530.0 0.00016051
17550.0 0.00015962
17570.0 0.00015876
17590.0 0.00015791
17610.0 0.00015704
17630.0 0.00015619
17650.0 0.00015536
17670.0 0.00015452
17690.0 0.00015366
17710.0 0.00015285
17730.0 0.00015204
17750.0 0.00015122
17770.0 0.00015041
17790.0 0.00014962
17810.0 0.00014882
17830.0 0.00014802
17850.0 0.00014724
17870.0 0.00014647
17890.0 0.00014568
17910.0 0.0001449
17930.0 0.00014416
17950.0 0.0001434
17970.0 0.00014264
17990.0 0.0001419
18010.0 0.00014117
18030.0 0.00014041
18050.0 0.00013968
18070.0 0.00013896
18090.0 0.00013823
18110.0 0.0001375
18130.0 0.0001368
18150.0 0.0001361
18170.0 0.00013538
18190.0 0.00013469
18210.0 0.00013401
18230.0 0.00013331
18250.0 0.0001326
18270.0 0.00013194
18290.0 0.00013126
18310.0 0.00013058
18330.0 0.00012992
18350.0 0.00012927
18370.0 0.0001286
18390.0 0.00012793
18410.0 0.00012729
18430.0 0.00012665
18450.0 0.00012598
18470.0 0.00012535
18490.0 0.00012473
18510.0 0.00012409
18530.0 0.00012345
18550.0 0.00012285
18570.0 0.00012223
18590.0 0.00012159
18610.0 0.00012098
18630.0 0.00012038
18650.0 0.00011977
18670.0 0.00011916
18690.0 0.00011857
18710.0 0.00011798
18730.0 0.00011738
18750.0 0.0001168
18770.0 0.00011623
18790.0 0.00011562
18810.0 0.00011504
18830.0 0.00011448
18850.0 0.00011391
18870.0 0.00011333
18890.0 0.00011277
18910.0 0.00011222
18930.0 0.00011165
18950.0 0.00011109
18970.0 0.00011055
18990.0 0.00011
19010.0 0.00010943
19030.0 0.0001089
19050.0 0.00010837
19070.0 0.00010782
19090.0 0.00010728
19110.0 0.00010677
19130.0 0.00010623
19150.0 0.00010569
19170.0 0.00010518
19190.0 0.00010466
19210.0 0.00010413
19230.0 0.00010361
19250.0 0.00010311
19270.0 0.0001026
19290.0 0.00010208
19310.0 0.00010159
19330.0 0.00010109
19350.0 0.00010057
19370.0 0.00010008
19390.0 9.9591e-05
19410.0 9.9093e-05
19430.0 9.8592e-05
19450.0 9.8117e-05
19470.0 9.7636e-05
19490.0 9.7141e-05
19510.0 9.6662e-05
19530.0 9.6195e-05
19550.0 9.5707e-05
19570.0 9.5219e-05
19590.0 9.4759e-05
19610.0 9.4291e-05
19630.0 9.3812e-05
19650.0 9.335e-05
19670.0 9.29e-05
19690.0 9.2426e-05
19710.0 9.196e-05
19730.0 9.1511e-05
19750.0 9.1056e-05
19770.0 9.0583e-05
19790.0 9.0136e-05
19810.0 8.9695e-05
19830.0 8.9237e-05
19850.0 8.8778e-05
19870.0 8.8331e-05
19890.0 8.7848e-05
19910.0 8.7315e-05
19930.0 8.6745e-05
19950.0 8.6092e-05
19970.0 8.5286e-05
19990.0 8.4321e-05
20010.0 8.3238e-05
20030.0 8.1945e-05
20050.0 8.0462e-05
20070.0 7.8901e-05
20090.0 7.7271e-05
20110.0 7.5489e-05
20130.0 7.3758e-05
20150.0 7.2111e-05
20170.0 7.0468e-05
20190.0 6.8868e-05
20210.0 6.7417e-05
20230.0 6.6055e-05
20250.0 6.474e-05
20270.0 6.3569e-05
20290.0 6.2546e-05
20310.0 6.1617e-05
20330.0 6.08e-05
20350.0 6.0177e-05
20370.0 5.9683e-05
20390.0 5.9322e-05
20410.0 5.9122e-05
20430.0 5.9072e-05
20450.0 5.9171e-05
20470.0 5.9431e-05
20490.0 5.9829e-05
20510.0 6.0368e-05
20530.0 6.1067e-05
20550.0 6.188e-05
20570.0 6.2772e-05
20590.0 6.3794e-05
20610.0 6.49e-05
20630.0 6.6026e-05
20650.0 6.7201e-05
20670.0 6.845e-05
20690.0 6.9638e-05
20710.0 7.0778e-05
20730.0 7.1906e-05
20750.0 7.2971e-05
20770.0 7.3912e-05
20790.0 7.4788e-05
20810.0 7.5591e-05
20830.0 7.6277e-05
20850.0 7.6864e-05
20870.0 7.7388e-05
20890.0 7.7829e-05
20910.0 7.8182e-05
20930.0 7.8483e-05
20950.0 7.8736e-05
20970.0 7.8937e-05
20990.0 7.9095e-05
21010.0 7.9219e-05
21030.0 7.9299e-05
21050.0 7.9336e-05
21070.0 7.933e-05
21090.0 7.9272e-05
21110.0 7.917e-05
21130.0 7.9021e-05
21150.0 7.8817e-05
21170.0 7.8568e-05
21190.0 7.829e-05
21210.0 7.7964e-05
21230.0 7.7601e-05
21250.0 7.7233e-05
21270.0 7.6857e-05
21290.0 7.6464e-05
21310.0 7.6082e-05
21330.0 7.5733e-05
21350.0 7.5393e-05
21370.0 7.5079e-05
21390.0 7.4812e-05
21410.0 7.4585e-05
21430.0 7.439e-05
21450.0 7.4253e-05
21470.0 7.4167e-05
21490.0 7.4128e-05
21510.0 7.4139e-05
21530.0 7.4198e-05
21550.0 7.4303e-05
21570.0 7.446e-05
21590.0 7.4661e-05
21610.0 7.4899e-05
21630.0 7.5188e-05
21650.0 7.5532e-05
21670.0 7.5896e-05
21690.0 7.6307e-05
21710.0 7.6773e-05
21730.0 7.7274e-05
21750.0 7.78e-05
21770.0 7.8402e-05
21790.0 7.9048e-05
21810.0 7.9715e-05
21830.0 8.0431e-05
21850.0 8.1216e-05
21870.0 8.2022e-05
21890.0 8.284e-05
21910.0 8.3725e-05
21930.0 8.464e-05
21950.0 8.5547e-05
21970.0 8.6484e-05
21990.0 8.7475e-05
22010.0 8.8421e-05
22030.0 8.9345e-05
22050.0 9.0279e-05
22070.0 9.1182e-05
22090.0 9.2004e-05
22110.0 9.2793e-05
22130.0 9.3534e-05
22150.0 9.4174e-05
22170.0 9.4719e-05
22190.0 9.5185e-05
22210.0 9.553e-05
22230.0 9.5742e-05
22250.0 9.5834e-05
22270.0 9.5788e-05
22290.0 9.5608e-05
22310.0 9.5295e-05
22330.0 9.4819e-05
22350.0 9.4204e-05
22370.0 9.3474e-05
22390.0 9.2597e-05
22410.0 9.1557e-05
22430.0 9.0452e-05
22450.0 8.9253e-05
22470.0 8.7913e-05
22490.0 8.6507e-05
22510.0 8.5087e-05
22530.0 8.3552e-05
22550.0 8.1948e-05
22570.0 8.0389e-05
22590.0 7.882e-05
22610.0 7.72e-05
22630.0 7.5617e-05
22650.0 7.4125e-05
22670.0 7.2611e-05
22690.0 7.1127e-05
22710.0 6.9745e-05
22730.0 6.8421e-05
22750.0 6.7087e-05
22770.0 6.5873e-05
22790.0 6.4762e-05
22810.0 6.3687e-05
22830.0 6.2678e-05
22850.0 6.1785e-05
22870.0 6.0956e-05
22890.0 6.0175e-05
22910.0 5.9495e-05
22930.0 5.8908e-05
22950.0 5.8383e-05
22970.0 5.7933e-05
22990.0 5.7596e-05
