#lamb flux
1010.0 4.0361e-05
1030.0 4.7132e-05
1050.0 5.3272e-05
1070.0 5.8341e-05
1090.0 6.2209e-05
1110.0 6.3616e-05
1130.0 6.2588e-05
1150.0 5.9686e-05
1170.0 5.4952e-05
1190.0 4.8272e-05
1210.0 4.0531e-05
1230.0 3.2108e-05
1250.0 2.3208e-05
1270.0 1.4289e-05
1290.0 5.8099e-06
1310.0 1e-99
1330.0 1e-99
1350.0 1e-99
1370.0 1e-99
1390.0 1e-99
1410.0 1e-99
1430.0 1e-99
1450.0 1e-99
1470.0 1e-99
1490.0 1e-99
1510.0 1e-99
1530.0 2.8047e-06
1550.0 1.1789e-05
1570.0 2.1769e-05
1590.0 3.2741e-05
1610.0 4.466e-05
1630.0 5.766e-05
1650.0 7.1883e-05
1670.0 8.7352e-05
1690.0 0.00010426
1710.0 0.00012299
1730.0 0.00014379
1750.0 0.00016724
1770.0 0.00019346
1790.0 0.00022278
1810.0 0.00025525
1830.0 0.00029125
1850.0 0.00033168
1870.0 0.00037632
1890.0 0.00042538
1910.0 0.00047961
1930.0 0.00053943
1950.0 0.00060429
1970.0 0.00067465
1990.0 0.00075134
2010.0 0.00083369
2030.0 0.00092121
2050.0 0.0010148
2070.0 0.0011144
2090.0 0.0012177
2110.0 0.0013254
2130.0 0.0014375
2150.0 0.0015522
2170.0 0.0016679
2190.0 0.0017857
2210.0 0.0019039
2230.0 0.00202
2250.0 0.0021339
2270.0 0.0022461
2290.0 0.002353
2310.0 0.0024533
2330.0 0.0025483
2350.0 0.0026363
2370.0 0.0027145
2390.0 0.0027838
2410.0 0.0028442
2430.0 0.0028913
2450.0 0.0029244
2470.0 0.0029434
2490.0 0.0029468
2510.0 0.0029349
2530.0 0.0029127
2550.0 0.002887
2570.0 0.0028689
2590.0 0.0028704
2610.0 0.0029147
2630.0 0.0030183
2650.0 0.0031841
2670.0 0.0034278
2690.0 0.0037604
2710.0 0.0041477
2730.0 0.0045672
2750.0 0.005031
2770.0 0.0054843
2790.0 0.0058829
2810.0 0.0062312
2830.0 0.0065268
2850.0 0.0067268
2870.0 0.006865
2890.0 0.0069652
2910.0 0.0070329
2930.0 0.0070774
2950.0 0.0071206
2970.0 0.0071664
2990.0 0.0072119
3010.0 0.0072625
3030.0 0.0073244
3050.0 0.0073934
3070.0 0.0074628
3090.0 0.0075422
3110.0 0.0076284
3130.0 0.007714
3150.0 0.0078828
3170.0 0.0080508
3190.0 0.0082446
3210.0 0.0084703
3230.0 0.0087335
3250.0 0.0089437
3270.0 0.0090914
3290.0 0.0094948
3310.0 0.010403
3330.0 0.011668
3350.0 0.013089
3370.0 0.014652
3390.0 0.016293
3410.0 0.017834
3430.0 0.019265
3450.0 0.02036
3470.0 0.020761
3490.0 0.021193
3510.0 0.021506
3530.0 0.01976
3550.0 0.018493
3570.0 0.015504
3590.0 0.016416
3610.0 0.017926
3630.0 0.019035
3650.0 0.018245
3670.0 0.016688
3690.0 0.015876
3710.0 0.016384
3730.0 0.018053
3750.0 0.018892
3770.0 0.019567
3790.0 0.020245
3810.0 0.019345
3830.0 0.017452
3850.0 0.015963
3870.0 0.015332
3890.0 0.016401
3910.0 0.01723
3930.0 0.017391
3950.0 0.017868
3970.0 0.01879
3990.0 0.019644
4010.0 0.019982
4030.0 0.019197
4050.0 0.018387
4070.0 0.018363
4090.0 0.018766
4110.0 0.019189
4130.0 0.018732
4150.0 0.018255
4170.0 0.018156
4190.0 0.018499
4210.0 0.017841
4230.0 0.01651
4250.0 0.014838
4270.0 0.013263
4290.0 0.012011
4310.0 0.011355
4330.0 0.011534
4350.0 0.012678
4370.0 0.013346
4390.0 0.014135
4410.0 0.014968
4430.0 0.015356
4450.0 0.014797
4470.0 0.014174
4490.0 0.014161
4510.0 0.01438
4530.0 0.014526
4550.0 0.014503
4570.0 0.014493
4590.0 0.014958
4610.0 0.015432
4630.0 0.015754
4650.0 0.015812
4670.0 0.015768
4690.0 0.014937
4710.0 0.013771
4730.0 0.013346
4750.0 0.013191
4770.0 0.012682
4790.0 0.012312
4810.0 0.012145
4830.0 0.0094971
4850.0 0.012139
4870.0 0.0089036
4890.0 0.010206
4910.0 0.011992
4930.0 0.011505
4950.0 0.009495
4970.0 0.0095319
4990.0 0.009029
5010.0 0.0084176
5030.0 0.0080931
5050.0 0.0094258
5070.0 0.0094397
5090.0 0.010331
5110.0 0.010577
5130.0 0.010463
5150.0 0.01087
5170.0 0.010459
5190.0 0.010135
5210.0 0.010666
5230.0 0.010472
5250.0 0.0105
5270.0 0.010241
5290.0 0.010031
5310.0 0.009239
5330.0 0.0088147
5350.0 0.0081589
5370.0 0.0081335
5390.0 0.0087808
5410.0 0.0081261
5430.0 0.0087552
5450.0 0.0085113
5470.0 0.0085664
5490.0 0.0085722
5510.0 0.0078495
5530.0 0.0080277
5550.0 0.0076823
5570.0 0.0077803
5590.0 0.0078949
5610.0 0.0081701
5630.0 0.0081608
5650.0 0.0083252
5670.0 0.0077026
5690.0 0.0079248
5710.0 0.0073455
5730.0 0.0076056
5750.0 0.0073483
5770.0 0.0068311
5790.0 0.0071344
5810.0 0.0070946
5830.0 0.0073624
5850.0 0.0075449
5870.0 0.0075264
5890.0 0.0074693
5910.0 0.0076432
5930.0 0.0073977
5950.0 0.0076215
5970.0 0.0072448
5990.0 0.0073682
6010.0 0.0071738
6030.0 0.007118
6050.0 0.007261
6070.0 0.0068014
6090.0 0.006712
6110.0 0.0069425
6130.0 0.0068859
6150.0 0.0067835
6170.0 0.0066501
6190.0 0.0062475
6210.0 0.0058252
6230.0 0.0058669
6250.0 0.0059695
6270.0 0.0058544
6290.0 0.0061534
6310.0 0.0066617
6330.0 0.0066961
6350.0 0.0065054
6370.0 0.0066081
6390.0 0.0066558
6410.0 0.0065273
6430.0 0.0062441
6450.0 0.006357
6470.0 0.0064218
6490.0 0.0062717
6510.0 0.0060783
6530.0 0.0059231
6550.0 0.0058884
6570.0 0.0057139
6590.0 0.0057545
6610.0 0.0057586
6630.0 0.0055109
6650.0 0.0051646
6670.0 0.0050798
6690.0 0.0052582
6710.0 0.0052087
6730.0 0.0050185
6750.0 0.0048852
6770.0 0.0047402
6790.0 0.0047793
6810.0 0.0047707
6830.0 0.0047015
6850.0 0.0043921
6870.0 0.0044311
6890.0 0.0044394
6910.0 0.0042269
6930.0 0.0042969
6950.0 0.0041251
6970.0 0.0040482
6990.0 0.003977
7010.0 0.0042005
7030.0 0.0041874
7050.0 0.0040546
7070.0 0.0039793
7090.0 0.004059
7110.0 0.0039602
7130.0 0.0039508
7150.0 0.0039936
7170.0 0.0039288
7190.0 0.0038528
7210.0 0.00386
7230.0 0.004067
7250.0 0.0038428
7270.0 0.0040652
7290.0 0.0038784
7310.0 0.0037116
7330.0 0.0034614
7350.0 0.0034237
7370.0 0.0034613
7390.0 0.0033824
7410.0 0.0031773
7430.0 0.0029454
7450.0 0.0030624
7470.0 0.0031139
7490.0 0.0034225
7510.0 0.0036005
7530.0 0.0034177
7550.0 0.0033233
7570.0 0.0026773
7590.0 0.0029643
7610.0 0.0027294
7630.0 0.0028865
7650.0 0.0028112
7670.0 0.0028945
7690.0 0.0025504
7710.0 0.0029829
7730.0 0.0029567
7750.0 0.0033932
7770.0 0.0034543
7790.0 0.0035438
7810.0 0.0037624
7830.0 0.0037148
7850.0 0.0040543
7870.0 0.0037713
7890.0 0.0038476
7910.0 0.0037742
7930.0 0.0035878
7950.0 0.0034648
7970.0 0.0034005
7990.0 0.0033445
8010.0 0.003209
8030.0 0.0031855
8050.0 0.0031188
8070.0 0.0030812
8090.0 0.0029332
8110.0 0.0029524
8130.0 0.0030453
8150.0 0.0031252
8170.0 0.0031161
8190.0 0.0031893
8210.0 0.0031456
8230.0 0.0030247
8250.0 0.0030012
8270.0 0.0029452
8290.0 0.0028883
8310.0 0.0027541
8330.0 0.0027722
8350.0 0.0027813
8370.0 0.0027962
8390.0 0.002827
8410.0 0.0027925
8430.0 0.0027948
8450.0 0.0028105
8470.0 0.0028624
8490.0 0.0029008
8510.0 0.0028265
8530.0 0.0027149
8550.0 0.0027271
8570.0 0.0027062
8590.0 0.002625
8610.0 0.0026768
8630.0 0.002643
8650.0 0.002601
8670.0 0.0025818
8690.0 0.0025662
8710.0 0.0024497
8730.0 0.0024863
8750.0 0.0024095
8770.0 0.0024109
8790.0 0.0023467
8810.0 0.0023068
8830.0 0.00232
8850.0 0.0022605
8870.0 0.0021543
8890.0 0.0021146
8910.0 0.0020119
8930.0 0.0018734
8950.0 0.0018622
8970.0 0.0017854
8990.0 0.0017662
9010.0 0.0017353
9030.0 0.0017209
9050.0 0.0017091
9070.0 0.0016974
9090.0 0.0016856
9110.0 0.0016736
9130.0 0.0016615
9150.0 0.0016497
9170.0 0.0016378
9190.0 0.0016258
9210.0 0.0016137
9230.0 0.0016016
9250.0 0.0015894
9270.0 0.0015773
9290.0 0.0015651
9310.0 0.0015529
9330.0 0.0015408
9350.0 0.0015287
9370.0 0.0015167
9390.0 0.0015046
9410.0 0.0014926
9430.0 0.0014805
9450.0 0.0014685
9470.0 0.0014576
9490.0 0.0014462
9510.0 0.0014338
9530.0 0.0014215
9550.0 0.0014095
9570.0 0.0013977
9590.0 0.0013859
9610.0 0.0013743
9630.0 0.0013629
9650.0 0.0013515
9670.0 0.0013401
9690.0 0.0013288
9710.0 0.0013177
9730.0 0.0013066
9750.0 0.0012955
9770.0 0.0012847
9790.0 0.0012739
9810.0 0.0012631
9830.0 0.0012524
9850.0 0.0012406
9870.0 0.0012294
9890.0 0.00122
9910.0 0.0012104
9930.0 0.0011987
9950.0 0.0011886
9970.0 0.0011796
9990.0 0.0011704
10010.0 0.0011612
10030.0 0.0011519
10050.0 0.0011424
10070.0 0.0011332
10090.0 0.0011241
10110.0 0.0011149
10130.0 0.0011058
10150.0 0.001097
10170.0 0.0010883
10190.0 0.0010796
10210.0 0.0010711
10230.0 0.0010628
10250.0 0.0010545
10270.0 0.0010463
10290.0 0.0010383
10310.0 0.0010304
10330.0 0.0010224
10350.0 0.0010148
10370.0 0.0010072
10390.0 0.00099968
10410.0 0.00099204
10430.0 0.00098458
10450.0 0.0009777
10470.0 0.00097073
10490.0 0.00096395
10510.0 0.00095727
10530.0 0.00095045
10550.0 0.00094384
10570.0 0.00093747
10590.0 0.00093108
10610.0 0.00092473
10630.0 0.00091864
10650.0 0.00091264
10670.0 0.00090657
10690.0 0.00090069
10710.0 0.000895
10730.0 0.0008893
10750.0 0.00088358
10770.0 0.0008782
10790.0 0.00087286
10810.0 0.0008675
10830.0 0.0008623
10850.0 0.00085732
10870.0 0.00085221
10890.0 0.00084721
10910.0 0.00084247
10930.0 0.00083781
10950.0 0.00083315
10970.0 0.00082872
10990.0 0.00082454
11010.0 0.00077062
11030.0 0.00076633
11050.0 0.00076244
11070.0 0.00075871
11090.0 0.00075489
11110.0 0.00075132
11130.0 0.00074781
11150.0 0.00074413
11170.0 0.00074039
11190.0 0.0007368
11210.0 0.00073308
11230.0 0.00072924
11250.0 0.00072558
11270.0 0.00072207
11290.0 0.00071849
11310.0 0.00071506
11330.0 0.00071207
11350.0 0.00070918
11370.0 0.00070643
11390.0 0.00070401
11410.0 0.00070185
11430.0 0.00069967
11450.0 0.0006977
11470.0 0.00069594
11490.0 0.00069417
11510.0 0.00069231
11530.0 0.00069061
11550.0 0.00068891
11570.0 0.00068701
11590.0 0.00068508
11610.0 0.00068323
11630.0 0.00068116
11650.0 0.00067893
11670.0 0.00067685
11690.0 0.00067476
11710.0 0.00067248
11730.0 0.00067026
11750.0 0.00066824
11770.0 0.00066607
11790.0 0.00066386
11810.0 0.00066187
11830.0 0.00065995
11850.0 0.00065786
11870.0 0.00065603
11890.0 0.00065447
11910.0 0.00065294
11930.0 0.00065157
11950.0 0.00065059
11970.0 0.00064984
11990.0 0.00064925
12010.0 0.00064911
12030.0 0.0006494
12050.0 0.00065
12070.0 0.00065098
12090.0 0.00065249
12110.0 0.00065438
12130.0 0.00065662
12150.0 0.00065924
12170.0 0.00066219
12190.0 0.0006654
12210.0 0.00066883
12230.0 0.00067242
12250.0 0.0006761
12270.0 0.0006798
12290.0 0.00068347
12310.0 0.00068704
12330.0 0.00069047
12350.0 0.0006937
12370.0 0.00069671
12390.0 0.00069946
12410.0 0.00070184
12430.0 0.00070395
12450.0 0.00070575
12470.0 0.00070712
12490.0 0.00070809
12510.0 0.00070882
12530.0 0.00070906
12550.0 0.0007088
12570.0 0.00070826
12590.0 0.00070739
12610.0 0.00070593
12630.0 0.00070407
12650.0 0.00070217
12670.0 0.00069979
12690.0 0.00069699
12710.0 0.00069414
12730.0 0.00069115
12750.0 0.00068761
12770.0 0.00068407
12790.0 0.00068065
12810.0 0.00067703
12830.0 0.00067322
12850.0 0.00066978
12870.0 0.00066645
12890.0 0.00066301
12910.0 0.00065985
12930.0 0.00065709
12950.0 0.00065435
12970.0 0.0006518
12990.0 0.00064982
13010.0 0.00064813
13030.0 0.00064663
13050.0 0.00064553
13070.0 0.00064486
13090.0 0.00064434
13110.0 0.00064407
13130.0 0.00064413
13150.0 0.00064437
13170.0 0.00064467
13190.0 0.00064516
13210.0 0.0006458
13230.0 0.00064643
13250.0 0.00064706
13270.0 0.00064774
13290.0 0.00064835
13310.0 0.00064882
13330.0 0.00064922
13350.0 0.00064949
13370.0 0.00064951
13390.0 0.00064926
13410.0 0.00064886
13430.0 0.00064814
13450.0 0.00064702
13470.0 0.00064564
13490.0 0.000644
13510.0 0.00064183
13530.0 0.00063935
13550.0 0.00063671
13570.0 0.00063373
13590.0 0.00063034
13610.0 0.00062684
13630.0 0.00062324
13650.0 0.00061921
13670.0 0.000615
13690.0 0.00061077
13710.0 0.00060628
13730.0 0.00060133
13750.0 0.00059654
13770.0 0.00059163
13790.0 0.00058641
13810.0 0.00058109
13830.0 0.00057594
13850.0 0.00057053
13870.0 0.00056497
13890.0 0.0005596
13910.0 0.0005543
13930.0 0.00054884
13950.0 0.00054348
13970.0 0.0005385
13990.0 0.00053346
14010.0 0.00052845
14030.0 0.00052373
14050.0 0.00051915
14070.0 0.00051443
14090.0 0.00050994
14110.0 0.00050563
14130.0 0.0005013
14150.0 0.00049692
14170.0 0.00049275
14190.0 0.0004886
14210.0 0.00048433
14230.0 0.00048012
14250.0 0.00047603
14270.0 0.00047181
14290.0 0.00046757
14310.0 0.00046352
14330.0 0.00045951
14350.0 0.00045547
14370.0 0.00045158
14390.0 0.00044787
14410.0 0.00044415
14430.0 0.00044051
14450.0 0.00043706
14470.0 0.00043368
14490.0 0.00043027
14510.0 0.000427
14530.0 0.00042382
14550.0 0.0004206
14570.0 0.00041736
14590.0 0.00041418
14610.0 0.00041094
14630.0 0.00040759
14650.0 0.00040426
14670.0 0.00040091
14690.0 0.00039745
14710.0 0.00039391
14730.0 0.00039044
14750.0 0.00038689
14770.0 0.00038324
14790.0 0.0003796
14810.0 0.00037597
14830.0 0.00037218
14850.0 0.00036838
14870.0 0.00036462
14890.0 0.00036081
14910.0 0.00035694
14930.0 0.00035317
14950.0 0.00034949
14970.0 0.00034583
14990.0 0.00034232
15010.0 0.00033901
15030.0 0.00033582
15050.0 0.00033272
15070.0 0.0003298
15090.0 0.00032697
15110.0 0.00032415
15130.0 0.00032138
15150.0 0.00031866
15170.0 0.00031591
15190.0 0.00031315
15210.0 0.00031042
15230.0 0.00030769
15250.0 0.00030493
15270.0 0.00030219
15290.0 0.00029947
15310.0 0.00029674
15330.0 0.000294
15350.0 0.00029129
15370.0 0.00028859
15390.0 0.00028585
15410.0 0.00028314
15430.0 0.00028045
15450.0 0.00027776
15470.0 0.00027506
15490.0 0.0002724
15510.0 0.00026975
15530.0 0.00026708
15550.0 0.00026444
15570.0 0.00026182
15590.0 0.00025919
15610.0 0.00025656
15630.0 0.00025398
15650.0 0.00025141
15670.0 0.00024883
15690.0 0.00024628
15710.0 0.00024376
15730.0 0.00024123
15750.0 0.00023871
15770.0 0.00023623
15790.0 0.00023376
15810.0 0.00023128
15830.0 0.00022884
15850.0 0.00022644
15870.0 0.00022402
15890.0 0.00022163
15910.0 0.00021928
15930.0 0.00021693
15950.0 0.00021458
15970.0 0.00021227
15990.0 0.00020999
16010.0 0.00020771
16030.0 0.00020544
16050.0 0.00020322
16070.0 0.00020101
16090.0 0.00019881
16110.0 0.00019664
16130.0 0.0001945
16150.0 0.00019235
16170.0 0.00019023
16190.0 0.00018815
16210.0 0.00018609
16230.0 0.00018402
16250.0 0.000182
16270.0 0.00018001
16290.0 0.00017801
16310.0 0.00017605
16330.0 0.00017411
16350.0 0.00017219
16370.0 0.00017027
16390.0 0.0001684
16410.0 0.00016655
16430.0 0.0001647
16450.0 0.00016288
16470.0 0.0001611
16490.0 0.00015932
16510.0 0.00015756
16530.0 0.00015583
16550.0 0.00015413
16570.0 0.00015242
16590.0 0.00015075
16610.0 0.00014911
16630.0 0.00014748
16650.0 0.00014586
16670.0 0.00014428
16690.0 0.00014272
16710.0 0.00014115
16730.0 0.00013962
16750.0 0.00013812
16770.0 0.00013663
16790.0 0.00013515
16810.0 0.00013371
16830.0 0.00013228
16850.0 0.00013086
16870.0 0.00012947
16890.0 0.0001281
16910.0 0.00012674
16930.0 0.00012539
16950.0 0.00012408
16970.0 0.00012278
16990.0 0.00012149
17010.0 0.00012022
17030.0 0.00011899
17050.0 0.00011775
17070.0 0.00011653
17090.0 0.00011534
17110.0 0.00011416
17130.0 0.00011299
17150.0 0.00011184
17170.0 0.00011072
17190.0 0.00010961
17210.0 0.0001085
17230.0 0.00010743
17250.0 0.00010637
17270.0 0.00010531
17290.0 0.00010428
17310.0 0.00010326
17330.0 0.00010225
17350.0 0.00010126
17370.0 0.00010029
17390.0 9.9336e-05
17410.0 9.8384e-05
17430.0 9.7457e-05
17450.0 9.6548e-05
17470.0 9.5633e-05
17490.0 9.474e-05
17510.0 9.3872e-05
17530.0 9.3009e-05
17550.0 9.2152e-05
17570.0 9.1321e-05
17590.0 9.0505e-05
17610.0 8.9688e-05
17630.0 8.8888e-05
17650.0 8.8109e-05
17670.0 8.7335e-05
17690.0 8.656e-05
17710.0 8.5818e-05
17730.0 8.5085e-05
17750.0 8.4354e-05
17770.0 8.3638e-05
17790.0 8.2945e-05
17810.0 8.2249e-05
17830.0 8.1561e-05
17850.0 8.0895e-05
17870.0 8.0239e-05
17890.0 7.9582e-05
17910.0 7.894e-05
17930.0 7.8321e-05
17950.0 7.7701e-05
17970.0 7.7089e-05
17990.0 7.6496e-05
18010.0 7.5912e-05
18030.0 7.5322e-05
18050.0 7.4752e-05
18070.0 7.4198e-05
18090.0 7.3644e-05
18110.0 7.3096e-05
18130.0 7.257e-05
18150.0 7.2049e-05
18170.0 7.1527e-05
18190.0 7.1021e-05
18210.0 7.0529e-05
18230.0 7.0034e-05
18250.0 6.9544e-05
18270.0 6.9076e-05
18290.0 6.8612e-05
18310.0 6.8149e-05
18330.0 6.77e-05
18350.0 6.7265e-05
18370.0 6.6825e-05
18390.0 6.6393e-05
18410.0 6.5978e-05
18430.0 6.5566e-05
18450.0 6.515e-05
18470.0 6.4753e-05
18490.0 6.4367e-05
18510.0 6.3978e-05
18530.0 6.3597e-05
18550.0 6.3233e-05
18570.0 6.2867e-05
18590.0 6.2499e-05
18610.0 6.2149e-05
18630.0 6.1807e-05
18650.0 6.1461e-05
18670.0 6.1122e-05
18690.0 6.0802e-05
18710.0 6.048e-05
18730.0 6.0159e-05
18750.0 5.9851e-05
18770.0 5.9552e-05
18790.0 5.9242e-05
18810.0 5.8945e-05
18830.0 5.8663e-05
18850.0 5.8379e-05
18870.0 5.8094e-05
18890.0 5.7826e-05
18910.0 5.7563e-05
18930.0 5.7294e-05
18950.0 5.7035e-05
18970.0 5.6788e-05
18990.0 5.6538e-05
19010.0 5.6283e-05
19030.0 5.605e-05
19050.0 5.582e-05
19070.0 5.5585e-05
19090.0 5.5359e-05
19110.0 5.5147e-05
19130.0 5.4926e-05
19150.0 5.4708e-05
19170.0 5.4503e-05
19190.0 5.4302e-05
19210.0 5.4094e-05
19230.0 5.3896e-05
19250.0 5.3712e-05
19270.0 5.3522e-05
19290.0 5.3334e-05
19310.0 5.3159e-05
19330.0 5.2985e-05
19350.0 5.2802e-05
19370.0 5.2632e-05
19390.0 5.2472e-05
19410.0 5.2306e-05
19430.0 5.2141e-05
19450.0 5.1993e-05
19470.0 5.1843e-05
19490.0 5.1687e-05
19510.0 5.1542e-05
19530.0 5.1406e-05
19550.0 5.126e-05
19570.0 5.1116e-05
19590.0 5.0989e-05
19610.0 5.086e-05
19630.0 5.0726e-05
19650.0 5.0604e-05
19670.0 5.0489e-05
19690.0 5.0363e-05
19710.0 5.0243e-05
19730.0 5.0134e-05
19750.0 5.0023e-05
19770.0 4.9904e-05
19790.0 4.9801e-05
19810.0 4.9703e-05
19830.0 4.9598e-05
19850.0 4.9497e-05
19870.0 4.941e-05
19890.0 4.9317e-05
19910.0 4.9223e-05
19930.0 4.9148e-05
19950.0 4.9087e-05
19970.0 4.9031e-05
19990.0 4.8997e-05
20010.0 4.8996e-05
20030.0 4.9012e-05
20050.0 4.905e-05
20070.0 4.9118e-05
20090.0 4.9208e-05
20110.0 4.931e-05
20130.0 4.9434e-05
20150.0 4.9575e-05
20170.0 4.9726e-05
20190.0 4.9888e-05
20210.0 5.0062e-05
20230.0 5.0246e-05
20250.0 5.0435e-05
20270.0 5.0632e-05
20290.0 5.0837e-05
20310.0 5.1046e-05
20330.0 5.1257e-05
20350.0 5.1476e-05
20370.0 5.1697e-05
20390.0 5.192e-05
20410.0 5.2146e-05
20430.0 5.2378e-05
20450.0 5.2609e-05
20470.0 5.2845e-05
20490.0 5.3087e-05
20510.0 5.3335e-05
20530.0 5.3587e-05
20550.0 5.385e-05
20570.0 5.4123e-05
20590.0 5.4404e-05
20610.0 5.4696e-05
20630.0 5.5002e-05
20650.0 5.5318e-05
20670.0 5.5645e-05
20690.0 5.5984e-05
20710.0 5.6335e-05
20730.0 5.6694e-05
20750.0 5.706e-05
20770.0 5.7433e-05
20790.0 5.7809e-05
20810.0 5.8187e-05
20830.0 5.8565e-05
20850.0 5.8942e-05
20870.0 5.9312e-05
20890.0 5.9676e-05
20910.0 6.0036e-05
20930.0 6.0387e-05
20950.0 6.0726e-05
20970.0 6.1059e-05
20990.0 6.1385e-05
21010.0 6.1696e-05
21030.0 6.1998e-05
21050.0 6.2298e-05
21070.0 6.2588e-05
21090.0 6.2863e-05
21110.0 6.3142e-05
21130.0 6.3418e-05
21150.0 6.3682e-05
21170.0 6.3944e-05
21190.0 6.4211e-05
21210.0 6.4465e-05
21230.0 6.471e-05
21250.0 6.4962e-05
21270.0 6.5212e-05
21290.0 6.5447e-05
21310.0 6.5679e-05
21330.0 6.592e-05
21350.0 6.6145e-05
21370.0 6.6357e-05
21390.0 6.6575e-05
21410.0 6.6787e-05
21430.0 6.697e-05
21450.0 6.7158e-05
21470.0 6.735e-05
21490.0 6.7524e-05
21510.0 6.7683e-05
21530.0 6.7854e-05
21550.0 6.8016e-05
21570.0 6.8153e-05
21590.0 6.8295e-05
21610.0 6.8443e-05
21630.0 6.8572e-05
21650.0 6.868e-05
21670.0 6.8817e-05
21690.0 6.8942e-05
21710.0 6.9048e-05
21730.0 6.9161e-05
21750.0 6.9288e-05
21770.0 6.9381e-05
21790.0 6.9474e-05
21810.0 6.9585e-05
21830.0 6.9689e-05
21850.0 6.9774e-05
21870.0 6.9874e-05
21890.0 6.9992e-05
21910.0 7.0091e-05
21930.0 7.0193e-05
21950.0 7.0318e-05
21970.0 7.0442e-05
21990.0 7.0546e-05
22010.0 7.0684e-05
22030.0 7.0838e-05
22050.0 7.0984e-05
22070.0 7.114e-05
22090.0 7.133e-05
22110.0 7.1518e-05
22130.0 7.1705e-05
22150.0 7.1917e-05
22170.0 7.2147e-05
22190.0 7.2365e-05
22210.0 7.2594e-05
22230.0 7.2856e-05
22250.0 7.3114e-05
22270.0 7.3368e-05
22290.0 7.3644e-05
22310.0 7.393e-05
22330.0 7.4197e-05
22350.0 7.4476e-05
22370.0 7.4772e-05
22390.0 7.5061e-05
22410.0 7.5339e-05
22430.0 7.5643e-05
22450.0 7.5954e-05
22470.0 7.6253e-05
22490.0 7.6562e-05
22510.0 7.6895e-05
22530.0 7.7216e-05
22550.0 7.7538e-05
22570.0 7.7889e-05
22590.0 7.825e-05
22610.0 7.8606e-05
22630.0 7.8979e-05
22650.0 7.9382e-05
22670.0 7.9779e-05
22690.0 8.0183e-05
22710.0 8.0612e-05
22730.0 8.1054e-05
22750.0 8.1485e-05
22770.0 8.1943e-05
22790.0 8.2426e-05
22810.0 8.2913e-05
22830.0 8.3412e-05
22850.0 8.3944e-05
22870.0 8.4493e-05
22890.0 8.5054e-05
22910.0 8.5649e-05
22930.0 8.6279e-05
22950.0 8.6933e-05
22970.0 8.7617e-05
22990.0 8.8355e-05
23010.0 8.9127e-05
23030.0 8.9939e-05
23050.0 9.0799e-05
23070.0 9.1707e-05
23090.0 9.266e-05
23110.0 9.3664e-05
23130.0 9.4717e-05
23150.0 9.5818e-05
23170.0 9.6973e-05
23190.0 9.8171e-05
23210.0 9.9409e-05
