#lamb flux
1010.0 1.3111e-07
1030.0 1.4501e-07
1050.0 1.61e-07
1070.0 1.7899e-07
1090.0 1.9943e-07
1110.0 2.204e-07
1130.0 2.415e-07
1150.0 2.636e-07
1170.0 2.864e-07
1190.0 3.0802e-07
1210.0 3.2993e-07
1230.0 3.5257e-07
1250.0 3.7476e-07
1270.0 3.963e-07
1290.0 4.1907e-07
1310.0 4.4181e-07
1330.0 4.6363e-07
1350.0 4.8569e-07
1370.0 5.0847e-07
1390.0 5.3068e-07
1410.0 5.5222e-07
1430.0 5.7475e-07
1450.0 5.9728e-07
1470.0 6.1905e-07
1490.0 6.4106e-07
1510.0 6.6431e-07
1530.0 6.8634e-07
1550.0 7.0808e-07
1570.0 7.3057e-07
1590.0 7.5309e-07
1610.0 7.7462e-07
1630.0 7.9682e-07
1650.0 8.1961e-07
1670.0 8.4167e-07
1690.0 8.6345e-07
1710.0 8.861e-07
1730.0 9.0889e-07
1750.0 9.3034e-07
1770.0 9.5244e-07
1790.0 9.7502e-07
1810.0 9.969e-07
1830.0 1.0184e-06
1850.0 1.0413e-06
1870.0 1.0636e-06
1890.0 1.0853e-06
1910.0 1.1074e-06
1930.0 1.13e-06
1950.0 1.1517e-06
1970.0 1.1732e-06
1990.0 1.1955e-06
2010.0 1.2175e-06
2030.0 1.2388e-06
2050.0 1.2608e-06
2070.0 1.2834e-06
2090.0 1.3047e-06
2110.0 1.3261e-06
2130.0 1.3481e-06
2150.0 1.3697e-06
2170.0 1.3905e-06
2190.0 1.412e-06
2210.0 1.4338e-06
2230.0 1.4547e-06
2250.0 1.4755e-06
2270.0 1.4973e-06
2290.0 1.5185e-06
2310.0 1.5388e-06
2330.0 1.56e-06
2350.0 1.5817e-06
2370.0 1.6033e-06
2390.0 1.6268e-06
2410.0 1.6545e-06
2430.0 1.6864e-06
2450.0 1.7246e-06
2470.0 1.7735e-06
2490.0 1.8351e-06
2510.0 1.9052e-06
2530.0 1.9895e-06
2550.0 2.0951e-06
2570.0 2.2264e-06
2590.0 2.3972e-06
2610.0 2.6529e-06
2630.0 3.0181e-06
2650.0 3.4955e-06
2670.0 4.1128e-06
2690.0 4.8713e-06
2710.0 5.681e-06
2730.0 6.4811e-06
2750.0 7.2691e-06
2770.0 7.9546e-06
2790.0 8.4989e-06
2810.0 8.9309e-06
2830.0 9.2684e-06
2850.0 9.4987e-06
2870.0 9.6679e-06
2890.0 9.8017e-06
2910.0 9.9086e-06
2930.0 9.9959e-06
2950.0 1.0079e-05
2970.0 1.0161e-05
2990.0 1.0237e-05
3010.0 0.00028936
3030.0 0.00029152
3050.0 0.00029361
3070.0 0.0002954
3090.0 0.00029694
3110.0 0.0002979
3130.0 0.00029786
3150.0 0.00029654
3170.0 0.00029336
3190.0 0.00028837
3210.0 0.00028205
3230.0 0.00027481
3250.0 0.00026766
3270.0 0.00026244
3290.0 0.00025954
3310.0 0.00026001
3330.0 0.00026377
3350.0 0.00027033
3370.0 0.00027968
3390.0 0.00029147
3410.0 0.00030431
3430.0 0.00031871
3450.0 0.0003353
3470.0 0.00035341
3490.0 0.00037261
3510.0 0.0003943
3530.0 0.00041753
3550.0 0.00044106
3570.0 0.00046559
3590.0 0.00049228
3610.0 0.00051977
3630.0 0.00054719
3650.0 0.00057563
3670.0 0.00060159
3690.0 0.000621
3710.0 0.00063212
3730.0 0.00063249
3750.0 0.00062369
3770.0 0.00062023
3790.0 0.00061654
3810.0 0.00060139
3830.0 0.00062001
3850.0 0.00069324
3870.0 0.00073344
3890.0 0.00073009
3910.0 0.00073321
3930.0 0.00075251
3950.0 0.00076439
3970.0 0.00069643
3990.0 0.00059925
4010.0 0.001796
4030.0 0.0021761
4050.0 0.0024948
4070.0 0.0021647
4090.0 0.0019605
4110.0 0.00173
4130.0 0.0015923
4150.0 0.0016937
4170.0 0.0016684
4190.0 0.0017784
4210.0 0.0017621
4230.0 0.0018638
4250.0 0.0022049
4270.0 0.0022309
4290.0 0.0020557
4310.0 0.002136
4330.0 0.0022721
4350.0 0.0025476
4370.0 0.0028992
4390.0 0.0027206
4410.0 0.00201
4430.0 0.0017016
4450.0 0.0015636
4470.0 0.0012001
4490.0 0.0012951
4510.0 0.0019562
4530.0 0.0022561
4550.0 0.0022757
4570.0 0.0025607
4590.0 0.0029169
4610.0 0.0039342
4630.0 0.0051098
4650.0 0.0055415
4670.0 0.0051319
4690.0 0.0048968
4710.0 0.0051762
4730.0 0.0048849
4750.0 0.0036521
4770.0 0.0026789
4790.0 0.0025016
4810.0 0.0023844
4830.0 0.0021829
4850.0 0.0023954
4870.0 0.0031645
4890.0 0.0037319
4910.0 0.0032743
4930.0 0.0028972
4950.0 0.0031831
4970.0 0.0040821
4990.0 0.0055322
5010.0 0.006364
5030.0 0.0056116
5050.0 0.0037966
5070.0 0.0025021
5090.0 0.0020176
5110.0 0.0020749
5130.0 0.0023948
5150.0 0.0025945
5170.0 0.0025556
5190.0 0.0023881
5210.0 0.0024961
5230.0 0.0026239
5250.0 0.0028279
5270.0 0.0030511
5290.0 0.0033812
5310.0 0.0039357
5330.0 0.0043553
5350.0 0.0043276
5370.0 0.0045457
5390.0 0.0052163
5410.0 0.0052116
5430.0 0.0046089
5450.0 0.0042346
5470.0 0.0044964
5490.0 0.0054933
5510.0 0.0068686
5530.0 0.0078779
5550.0 0.0076142
5570.0 0.0069218
5590.0 0.0060187
5610.0 0.0055506
5630.0 0.0053823
5650.0 0.0051262
5670.0 0.0048575
5690.0 0.0043426
5710.0 0.0042341
5730.0 0.0039003
5750.0 0.0027499
5770.0 0.0021454
5790.0 0.0024312
5810.0 0.0027453
5830.0 0.0033688
5850.0 0.0040102
5870.0 0.0044494
5890.0 0.0045248
5910.0 0.0044392
5930.0 0.0042256
5950.0 0.0043058
5970.0 0.0049082
5990.0 0.004615
6010.0 0.0038687
6030.0 0.0032685
6050.0 0.0028465
6070.0 0.0028309
6090.0 0.0030696
6110.0 0.0034324
6130.0 0.0034849
6150.0 0.0029985
6170.0 0.0026377
6190.0 0.0029684
6210.0 0.0039241
6230.0 0.0051496
6250.0 0.0055777
6270.0 0.0048742
6290.0 0.0041009
6310.0 0.0032015
6330.0 0.0024529
6350.0 0.002188
6370.0 0.0023009
6390.0 0.0026599
6410.0 0.0032798
6430.0 0.0038299
6450.0 0.0043824
6470.0 0.005018
6490.0 0.0060614
6510.0 0.0067774
6530.0 0.0066491
6550.0 0.0060126
6570.0 0.0051041
6590.0 0.0046025
6610.0 0.0039685
6630.0 0.0035953
6650.0 0.0033986
6670.0 0.0033017
6690.0 0.0029833
6710.0 0.0027119
6730.0 0.0019533
6750.0 0.0019365
6770.0 0.0021048
6790.0 0.0024193
6810.0 0.0022137
6830.0 0.0022795
6850.0 0.0021321
6870.0 0.0019477
6890.0 0.0018701
6910.0 0.0019928
6930.0 0.0018665
6950.0 0.0019204
6970.0 0.0020199
6990.0 0.0022927
7010.0 0.0023122
7030.0 0.002349
7050.0 0.0022401
7070.0 0.0021344
7090.0 0.0021407
7110.0 0.0022026
7130.0 0.0023703
7150.0 0.0025175
7170.0 0.0027779
7190.0 0.0030537
7210.0 0.0030006
7230.0 0.0030847
7250.0 0.003315
7270.0 0.0036125
7290.0 0.0042877
7310.0 0.0046526
7330.0 0.0044971
7350.0 0.0040674
7370.0 0.003539
7390.0 0.0034332
7410.0 0.0036485
7430.0 0.0040548
7450.0 0.0044165
7470.0 0.0043759
7490.0 0.00399
7510.0 0.0045196
7530.0 0.0044702
7550.0 0.0040179
7570.0 0.0031387
7590.0 0.0021577
7610.0 0.001852
7630.0 0.0021042
7650.0 0.0024879
7670.0 0.0030964
7690.0 0.0034074
7710.0 0.0035509
7730.0 0.0037315
7750.0 0.0041891
7770.0 0.0042549
7790.0 0.0039084
7810.0 0.0035661
7830.0 0.0036775
7850.0 0.0035748
7870.0 0.0032775
7890.0 0.0027538
7910.0 0.0022384
7930.0 0.0021374
7950.0 0.0019472
7970.0 0.0018025
7990.0 0.0017922
8010.0 0.00013274
8030.0 0.00013101
8050.0 0.00012924
8070.0 0.00013093
8090.0 0.00014069
8110.0 0.00013829
8130.0 0.00011407
8150.0 0.00011109
8170.0 9.569e-05
8190.0 9.0686e-05
8210.0 0.00011777
8230.0 0.00013112
8250.0 0.00011817
8270.0 0.00010285
8290.0 0.00010026
8310.0 7.7167e-05
8330.0 5.201e-05
8350.0 3.6911e-05
8370.0 2.3256e-05
8390.0 4.2511e-05
8410.0 4.9537e-05
8430.0 6.1061e-05
8450.0 7.1703e-05
8470.0 8.9122e-05
8490.0 8.8493e-05
8510.0 8.7047e-05
8530.0 9.0845e-05
8550.0 0.00012257
8570.0 0.0001451
8590.0 0.00015656
8610.0 0.00019777
8630.0 0.00023825
8650.0 0.00024923
8670.0 0.00026486
8690.0 0.00026634
8710.0 0.00024121
8730.0 0.00022436
8750.0 0.00019804
8770.0 0.00018791
8790.0 0.00018461
8810.0 0.0001769
8830.0 0.00014146
8850.0 0.00010356
8870.0 7.9293e-05
8890.0 7.7522e-05
8910.0 8.8841e-05
8930.0 0.00010105
8950.0 0.00010299
8970.0 0.00010347
8990.0 9.2285e-05
9010.0 0.0009671
9030.0 0.00087631
9050.0 0.00088054
9070.0 0.00088749
9090.0 0.00089359
9110.0 0.00090111
9130.0 0.00090692
9150.0 0.00091144
9170.0 0.00091625
9190.0 0.00092139
9210.0 0.0009268
9230.0 0.00093252
9250.0 0.00093832
9270.0 0.00094433
9290.0 0.00095054
9310.0 0.00095678
9330.0 0.00096315
9350.0 0.00096975
9370.0 0.00097643
9390.0 0.00098317
9410.0 0.00099011
9430.0 0.00099726
9450.0 0.0010044
9470.0 0.0010117
9490.0 0.0010191
9510.0 0.0010267
9530.0 0.0010343
9550.0 0.0010422
9570.0 0.0010502
9590.0 0.0010582
9610.0 0.0010664
9630.0 0.0010748
9650.0 0.0010832
9670.0 0.0010917
9690.0 0.0011004
9710.0 0.0011092
9730.0 0.0011181
9750.0 0.0011271
9770.0 0.0011363
9790.0 0.0011456
9810.0 0.0011549
9830.0 0.0011643
9850.0 0.0011739
9870.0 0.0011835
9890.0 0.0011932
9910.0 0.0012031
9930.0 0.001213
9950.0 0.001223
9970.0 0.0012331
9990.0 0.0012434
10010.0 0.0010789
10030.0 0.0010878
10050.0 0.0010968
10070.0 0.0011062
10090.0 0.001115
10110.0 0.001124
10130.0 0.0011331
10150.0 0.0011421
10170.0 0.0011513
10190.0 0.0011606
10210.0 0.0011697
10230.0 0.0011789
10250.0 0.0011882
10270.0 0.0011975
10290.0 0.0012067
10310.0 0.001216
10330.0 0.0012254
10350.0 0.0012347
10370.0 0.0012439
10390.0 0.0012532
10410.0 0.0012625
10430.0 0.0012716
10450.0 0.0012807
10470.0 0.00129
10490.0 0.001299
10510.0 0.001308
10530.0 0.0013171
10550.0 0.0013261
10570.0 0.0013349
10590.0 0.0013438
10610.0 0.0013526
10630.0 0.0013612
10650.0 0.0013698
10670.0 0.0013784
10690.0 0.0013869
10710.0 0.0013951
10730.0 0.0014034
10750.0 0.0014118
10770.0 0.0014197
10790.0 0.0014277
10810.0 0.0014356
10830.0 0.0014432
10850.0 0.0014505
10870.0 0.0014575
10890.0 0.0014637
10910.0 0.0014685
10930.0 0.0014712
10950.0 0.0014706
10970.0 0.0014656
10990.0 0.0014558
11010.0 0.0014395
11030.0 0.0014166
11050.0 0.0013887
11070.0 0.0013553
11090.0 0.0013152
11110.0 0.0012737
11130.0 0.0012304
11150.0 0.0011839
11170.0 0.0011358
11190.0 0.0010893
11210.0 0.0010412
11230.0 0.00099184
11250.0 0.00094471
11270.0 0.00089945
11290.0 0.00085411
11310.0 0.00081115
11330.0 0.00077332
11350.0 0.00073759
11370.0 0.00070457
11390.0 0.00067599
11410.0 0.000651
11430.0 0.00062778
11450.0 0.00060777
11470.0 0.00059046
11490.0 0.00057436
11510.0 0.00055885
11530.0 0.00054446
11550.0 0.00053016
11570.0 0.0005149
11590.0 0.0004991
11610.0 0.00048302
11630.0 0.00046551
11650.0 0.00044678
11670.0 0.00042831
11690.0 0.00040958
11710.0 0.00039026
11730.0 0.00037153
11750.0 0.00035421
11770.0 0.00033721
11790.0 0.00032129
11810.0 0.00030727
11830.0 0.00029473
11850.0 0.00028319
11870.0 0.00027353
11890.0 0.0002655
11910.0 0.00025844
11930.0 0.00025238
11950.0 0.00024733
11970.0 0.00024281
11990.0 0.00023855
12010.0 0.0002346
12030.0 0.0002308
12050.0 0.00022687
12070.0 0.00022278
12090.0 0.00021884
12110.0 0.00021484
12130.0 0.00021083
12150.0 0.00020713
12170.0 0.0002039
12190.0 0.00020111
12210.0 0.00019917
12230.0 0.00019822
12250.0 0.00019838
12270.0 0.00019987
12290.0 0.0002027
12310.0 0.00020676
12330.0 0.00021243
12350.0 0.00021951
12370.0 0.00022758
12390.0 0.00023687
12410.0 0.00024777
12430.0 0.00025884
12450.0 0.00027031
12470.0 0.0002825
12490.0 0.00029474
12510.0 0.00030623
12530.0 0.00031766
12550.0 0.00032868
12570.0 0.00033842
12590.0 0.00034696
12610.0 0.00035458
12630.0 0.00036065
12650.0 0.00036483
12670.0 0.00036759
12690.0 0.00036869
12710.0 0.00036808
12730.0 0.00036595
12750.0 0.00036214
12770.0 0.00035692
12790.0 0.00035058
12810.0 0.00034302
12830.0 0.00033427
12850.0 0.00032511
12870.0 0.00031543
12890.0 0.00030496
12910.0 0.00029432
12930.0 0.00028383
12950.0 0.00027288
12970.0 0.00026174
12990.0 0.00025119
13010.0 0.00024078
13030.0 0.00023025
13050.0 0.00022014
13070.0 0.00021067
13090.0 0.00020116
13110.0 0.00019197
13130.0 0.00018349
13150.0 0.00017546
13170.0 0.0001676
13190.0 0.0001606
13210.0 0.00015444
13230.0 0.00014881
13250.0 0.00014397
13270.0 0.00014014
13290.0 0.00013717
13310.0 0.00013512
13330.0 0.00013419
13350.0 0.0001343
13370.0 0.0001355
13390.0 0.00013787
13410.0 0.00014107
13430.0 0.00014522
13450.0 0.00015036
13470.0 0.00015606
13490.0 0.00016209
13510.0 0.0001689
13530.0 0.00017581
13550.0 0.00018241
13570.0 0.00018893
13590.0 0.00019528
13610.0 0.00020092
13630.0 0.00020586
13650.0 0.00021036
13670.0 0.00021409
13690.0 0.00021698
13710.0 0.00021922
13730.0 0.00022082
13750.0 0.00022161
13770.0 0.00022179
13790.0 0.00022139
13810.0 0.00022041
13830.0 0.00021897
13850.0 0.00021701
13870.0 0.00021455
13890.0 0.00021172
13910.0 0.00020854
13930.0 0.00020486
13950.0 0.00020084
13970.0 0.00019673
13990.0 0.00019226
14010.0 0.0001875
14030.0 0.00018275
14050.0 0.00017797
14070.0 0.00017292
14090.0 0.00016808
14110.0 0.00016353
14130.0 0.00015912
14150.0 0.00015497
14170.0 0.00015143
14190.0 0.00014837
14210.0 0.00014577
14230.0 0.00014385
14250.0 0.00014261
14270.0 0.000142
14290.0 0.00014213
14310.0 0.00014292
14330.0 0.00014435
14350.0 0.00014644
14370.0 0.00014905
14390.0 0.00015201
14410.0 0.0001555
14430.0 0.00015933
14450.0 0.00016324
14470.0 0.0001673
14490.0 0.00017162
14510.0 0.00017575
14530.0 0.00017967
14550.0 0.00018359
14570.0 0.00018735
14590.0 0.00019077
14610.0 0.00019409
14630.0 0.00019736
14650.0 0.00020042
14670.0 0.00020337
14690.0 0.00020644
14710.0 0.00020967
14730.0 0.0002129
14750.0 0.00021649
14770.0 0.00022055
14790.0 0.00022495
14810.0 0.00022972
14830.0 0.00023537
14850.0 0.00024152
14870.0 0.00024793
14890.0 0.00025484
14910.0 0.00026219
14930.0 0.00026925
14950.0 0.00027585
14970.0 0.0002821
14990.0 0.00028734
15010.0 0.00029134
15030.0 0.00029431
15050.0 0.00029628
15070.0 0.00029723
15090.0 0.00029757
15110.0 0.00029747
15130.0 0.0002971
15150.0 0.0002966
15170.0 0.000296
15190.0 0.00029536
15210.0 0.00029474
15230.0 0.00029411
15250.0 0.00029346
15270.0 0.00029282
15290.0 0.00029221
15310.0 0.00029159
15330.0 0.00029095
15350.0 0.00029035
15370.0 0.00028975
15390.0 0.00028911
15410.0 0.0002885
15430.0 0.00028791
15450.0 0.00028731
15470.0 0.00028669
15490.0 0.00028611
15510.0 0.00028552
15530.0 0.00028492
15550.0 0.00028433
15570.0 0.00028376
15590.0 0.00028317
15610.0 0.00028256
15630.0 0.000282
15650.0 0.00028142
15670.0 0.00028083
15690.0 0.00028026
15710.0 0.00027971
15730.0 0.00027913
15750.0 0.00027855
15770.0 0.00027799
15790.0 0.00027743
15810.0 0.00027684
15830.0 0.00027628
15850.0 0.00027573
15870.0 0.00027516
15890.0 0.0002746
15910.0 0.00027405
15930.0 0.0002735
15950.0 0.00027292
15970.0 0.00027237
15990.0 0.00027182
16010.0 0.00027126
16030.0 0.00027069
16050.0 0.00027015
16070.0 0.0002696
16090.0 0.00026904
16110.0 0.00026849
16130.0 0.00026795
16150.0 0.00026738
16170.0 0.00026682
16190.0 0.00026628
16210.0 0.00026573
16230.0 0.00026516
16250.0 0.00026461
16270.0 0.00026408
16290.0 0.00026351
16310.0 0.00026295
16330.0 0.00026241
16350.0 0.00026186
16370.0 0.00026128
16390.0 0.00026073
16410.0 0.00026019
16430.0 0.00025962
16450.0 0.00025906
16470.0 0.00025853
16490.0 0.00025796
16510.0 0.00025739
16530.0 0.00025684
16550.0 0.00025629
16570.0 0.00025571
16590.0 0.00025514
16610.0 0.00025459
16630.0 0.00025403
16650.0 0.00025345
16670.0 0.0002529
16690.0 0.00025234
16710.0 0.00025175
16730.0 0.00025118
16750.0 0.00025062
16770.0 0.00025005
16790.0 0.00024946
16810.0 0.0002489
16830.0 0.00024833
16850.0 0.00024774
16870.0 0.00024717
16890.0 0.0002466
16910.0 0.00024601
16930.0 0.00024541
16950.0 0.00024484
16970.0 0.00024426
16990.0 0.00024366
17010.0 0.00024308
17030.0 0.00024251
17050.0 0.00024191
17070.0 0.00024131
17090.0 0.00024072
17110.0 0.00024013
17130.0 0.00023951
17150.0 0.00023892
17170.0 0.00023833
17190.0 0.00023773
17210.0 0.00023712
17230.0 0.00023653
17250.0 0.00023593
17270.0 0.0002353
17290.0 0.00023469
17310.0 0.0002341
17330.0 0.00023347
17350.0 0.00023284
17370.0 0.00023225
17390.0 0.00023164
17410.0 0.000231
17430.0 0.00023039
17450.0 0.00022979
17470.0 0.00022914
17490.0 0.00022851
17510.0 0.0002279
17530.0 0.00022727
17550.0 0.00022663
17570.0 0.00022601
17590.0 0.00022539
17610.0 0.00022474
17630.0 0.0002241
17650.0 0.00022348
17670.0 0.00022284
17690.0 0.00022218
17710.0 0.00022155
17730.0 0.00022092
17750.0 0.00022026
17770.0 0.00021962
17790.0 0.00021899
17810.0 0.00021834
17830.0 0.00021767
17850.0 0.00021703
17870.0 0.00021639
17890.0 0.00021572
17910.0 0.00021506
17930.0 0.00021442
17950.0 0.00021376
17970.0 0.00021309
17990.0 0.00021245
18010.0 0.0002118
18030.0 0.00021111
18050.0 0.00021045
18070.0 0.0002098
18090.0 0.00020913
18110.0 0.00020845
18130.0 0.0002078
18150.0 0.00020714
18170.0 0.00020646
18190.0 0.00020579
18210.0 0.00020514
18230.0 0.00020445
18250.0 0.00020376
18270.0 0.0002031
18290.0 0.00020243
18310.0 0.00020174
18330.0 0.00020107
18350.0 0.00020041
18370.0 0.00019972
18390.0 0.00019904
18410.0 0.00019837
18430.0 0.00019769
18450.0 0.00019699
18470.0 0.00019631
18490.0 0.00019564
18510.0 0.00019495
18530.0 0.00019426
18550.0 0.0001936
18570.0 0.00019291
18590.0 0.00019221
18610.0 0.00019153
18630.0 0.00019085
18650.0 0.00019015
18670.0 0.00018945
18690.0 0.00018879
18710.0 0.0001881
18730.0 0.0001874
18750.0 0.00018672
18770.0 0.00018605
18790.0 0.00018533
18810.0 0.00018464
18830.0 0.00018396
18850.0 0.00018327
18870.0 0.00018256
18890.0 0.00018188
18910.0 0.00018121
18930.0 0.0001805
18950.0 0.0001798
18970.0 0.00017913
18990.0 0.00017843
19010.0 0.00017771
19030.0 0.00017704
19050.0 0.00017635
19070.0 0.00017565
19090.0 0.00017495
19110.0 0.00017428
19130.0 0.00017358
19150.0 0.00017287
19170.0 0.00017219
19190.0 0.0001715
19210.0 0.00017079
19230.0 0.0001701
19250.0 0.00016942
19270.0 0.00016873
19290.0 0.00016802
19310.0 0.00016735
19330.0 0.00016666
19350.0 0.00016594
19370.0 0.00016525
19390.0 0.00016457
19410.0 0.00016388
19430.0 0.00016317
19450.0 0.0001625
19470.0 0.00016181
19490.0 0.00016111
19510.0 0.00016042
19530.0 0.00015974
19550.0 0.00015904
19570.0 0.00015833
19590.0 0.00015766
19610.0 0.00015697
19630.0 0.00015627
19650.0 0.00015559
19670.0 0.00015492
19690.0 0.00015421
19710.0 0.00015352
19730.0 0.00015284
19750.0 0.00015216
19770.0 0.00015145
19790.0 0.00015076
19810.0 0.00015009
19830.0 0.00014939
19850.0 0.00014869
19870.0 0.000148
19890.0 0.00014727
19910.0 0.00014645
19930.0 0.00014558
19950.0 0.00014459
19970.0 0.00014337
19990.0 0.00014189
20010.0 0.00012624
20030.0 0.00012441
20050.0 0.00012228
20070.0 0.00011996
20090.0 0.00011747
20110.0 0.00011465
20130.0 0.00011179
20150.0 0.00010896
20170.0 0.00010603
20190.0 0.00010306
20210.0 0.00010025
20230.0 9.7508e-05
20250.0 9.4762e-05
20270.0 9.2213e-05
20290.0 8.9886e-05
20310.0 8.7675e-05
20330.0 8.5609e-05
20350.0 8.3894e-05
20370.0 8.2371e-05
20390.0 8.1036e-05
20410.0 7.9958e-05
20430.0 7.9126e-05
20450.0 7.8468e-05
20470.0 7.8026e-05
20490.0 7.7789e-05
20510.0 7.7721e-05
20530.0 7.7817e-05
20550.0 7.8057e-05
20570.0 7.8407e-05
20590.0 7.888e-05
20610.0 7.9453e-05
20630.0 8.0085e-05
20650.0 8.0791e-05
20670.0 8.1598e-05
20690.0 8.2421e-05
20710.0 8.3271e-05
20730.0 8.4189e-05
20750.0 8.5147e-05
20770.0 8.6089e-05
20790.0 8.7079e-05
20810.0 8.8125e-05
20830.0 8.9167e-05
20850.0 9.0213e-05
20870.0 9.1333e-05
20890.0 9.2475e-05
20910.0 9.3577e-05
20930.0 9.472e-05
20950.0 9.5904e-05
20970.0 9.7059e-05
20990.0 9.8199e-05
21010.0 9.9397e-05
21030.0 0.00010057
21050.0 0.00010169
21070.0 0.0001028
21090.0 0.00010392
21110.0 0.00010494
21130.0 0.0001059
21150.0 0.00010683
21170.0 0.00010767
21190.0 0.0001084
21210.0 0.00010905
21230.0 0.00010959
21250.0 0.00010997
21270.0 0.00011022
21290.0 0.00011031
21310.0 0.00011022
21330.0 0.00010996
21350.0 0.00010951
21370.0 0.00010883
21390.0 0.00010798
21410.0 0.00010694
21430.0 0.00010562
21450.0 0.00010413
21470.0 0.00010252
21490.0 0.00010069
21510.0 9.8686e-05
21530.0 9.665e-05
21550.0 9.4516e-05
21570.0 9.2241e-05
21590.0 9.0003e-05
21610.0 8.7841e-05
21630.0 8.5676e-05
21650.0 8.3561e-05
21670.0 8.1728e-05
21690.0 8.0038e-05
21710.0 7.8515e-05
21730.0 7.7268e-05
21750.0 7.6306e-05
21770.0 7.5573e-05
21790.0 7.5151e-05
21810.0 7.5035e-05
21830.0 7.5201e-05
21850.0 7.5671e-05
21870.0 7.6404e-05
21890.0 7.7351e-05
21910.0 7.8565e-05
21930.0 7.999e-05
21950.0 8.1534e-05
21970.0 8.3243e-05
21990.0 8.5162e-05
22010.0 8.708e-05
22030.0 8.9028e-05
22050.0 9.1073e-05
22070.0 9.313e-05
22090.0 9.5077e-05
22110.0 9.7041e-05
22130.0 9.9001e-05
22150.0 0.00010083
22170.0 0.00010256
22190.0 0.00010427
22210.0 0.00010586
22230.0 0.00010726
22250.0 0.00010858
22270.0 0.00010979
22290.0 0.00011083
22310.0 0.00011172
22330.0 0.00011251
22350.0 0.00011311
22370.0 0.00011354
22390.0 0.00011381
22410.0 0.00011389
22430.0 0.00011379
22450.0 0.00011349
22470.0 0.00011299
22490.0 0.00011227
22510.0 0.00011139
22530.0 0.00011025
22550.0 0.00010887
22570.0 0.00010734
22590.0 0.00010562
22610.0 0.00010363
22630.0 0.00010148
22650.0 9.9257e-05
22670.0 9.68e-05
22690.0 9.4177e-05
22710.0 9.1531e-05
22730.0 8.8803e-05
22750.0 8.5847e-05
22770.0 8.2957e-05
22790.0 8.0136e-05
22810.0 7.724e-05
22830.0 7.4351e-05
22850.0 7.1646e-05
22870.0 6.8995e-05
22890.0 6.6357e-05
22910.0 6.3927e-05
22930.0 6.17e-05
