#lamb flux
1010.0 4.4267e-05
1030.0 5.7595e-05
1050.0 7.4352e-05
1070.0 9.5065e-05
1090.0 0.00012082
1110.0 0.0001505
1130.0 0.00018403
1150.0 0.00022271
1170.0 0.00026632
1190.0 0.00031225
1210.0 0.00036087
1230.0 0.000413
1250.0 0.00046605
1270.0 0.00051843
1290.0 0.00057178
1310.0 0.00062281
1330.0 0.00066848
1350.0 0.0007094
1370.0 0.00074523
1390.0 0.00077286
1410.0 0.00079165
1430.0 0.00080408
1450.0 0.00080861
1470.0 0.00080465
1490.0 0.00079449
1510.0 0.00077834
1530.0 0.00075498
1550.0 0.00072787
1570.0 0.00069994
1590.0 0.00067069
1610.0 0.00064021
1630.0 0.00061097
1650.0 0.00058338
1670.0 0.00055695
1690.0 0.0005325
1710.0 0.00051102
1730.0 0.00049212
1750.0 0.00047499
1770.0 0.00046086
1790.0 0.00044953
1810.0 0.00044032
1830.0 0.00043335
1850.0 0.00042928
1870.0 0.00042711
1890.0 0.00042669
1910.0 0.00042844
1930.0 0.00043229
1950.0 0.00043753
1970.0 0.00044439
1990.0 0.00045324
2010.0 0.00046355
2030.0 0.00047508
2050.0 0.00048836
2070.0 0.0005033
2090.0 0.00051908
2110.0 0.00053614
2130.0 0.00055472
2150.0 0.0005743
2170.0 0.00059456
2190.0 0.00061618
2210.0 0.00063881
2230.0 0.00066188
2250.0 0.00068564
2270.0 0.00071051
2290.0 0.00073561
2310.0 0.00076069
2330.0 0.00078643
2350.0 0.00081246
2370.0 0.00083808
2390.0 0.00086372
2410.0 0.00088971
2430.0 0.00091505
2450.0 0.00093989
2470.0 0.00096514
2490.0 0.00099135
2510.0 0.0010185
2530.0 0.0010495
2550.0 0.001088
2570.0 0.001137
2590.0 0.0012001
2610.0 0.0012896
2630.0 0.0014098
2650.0 0.0015594
2670.0 0.0017475
2690.0 0.00198
2710.0 0.002239
2730.0 0.002514
2750.0 0.0028133
2770.0 0.0031085
2790.0 0.0033757
2810.0 0.0036172
2830.0 0.0038319
2850.0 0.0039929
2870.0 0.0041173
2890.0 0.0042179
2910.0 0.0042954
2930.0 0.0043522
2950.0 0.0044026
2970.0 0.0044479
2990.0 0.0044842
3010.0 0.0045155
3030.0 0.0045474
3050.0 0.0045765
3070.0 0.0045974
3090.0 0.0046191
3110.0 0.004642
3130.0 0.0046668
3150.0 0.0046506
3170.0 0.0046793
3190.0 0.0047476
3210.0 0.0048779
3230.0 0.0051157
3250.0 0.0055547
3270.0 0.0061209
3290.0 0.0067732
3310.0 0.0076122
3330.0 0.0078218
3350.0 0.0078701
3370.0 0.0079159
3390.0 0.0079568
3410.0 0.0079697
3430.0 0.0079597
3450.0 0.0079374
3470.0 0.0079117
3490.0 0.0078458
3510.0 0.0076156
3530.0 0.0070037
3550.0 0.0065338
3570.0 0.0069592
3590.0 0.0079032
3610.0 0.008697
3630.0 0.0097125
3650.0 0.0094819
3670.0 0.008281
3690.0 0.0071998
3710.0 0.0068094
3730.0 0.0069957
3750.0 0.0071355
3770.0 0.0073506
3790.0 0.0075955
3810.0 0.0077903
3830.0 0.0072198
3850.0 0.0065056
3870.0 0.0061501
3890.0 0.0064231
3910.0 0.006585
3930.0 0.0066162
3950.0 0.0069981
3970.0 0.0074445
3990.0 0.0075549
4010.0 0.0076259
4030.0 0.0073747
4050.0 0.0072021
4070.0 0.0070977
4090.0 0.0071524
4110.0 0.0072294
4130.0 0.0070581
4150.0 0.0068029
4170.0 0.0067267
4190.0 0.0066209
4210.0 0.0061739
4230.0 0.005705
4250.0 0.0051756
4270.0 0.0047295
4290.0 0.0045722
4310.0 0.0045289
4330.0 0.0046775
4350.0 0.0051103
4370.0 0.0053441
4390.0 0.0058738
4410.0 0.0063064
4430.0 0.0064432
4450.0 0.0059844
4470.0 0.0055021
4490.0 0.0053661
4510.0 0.0052846
4530.0 0.0052986
4550.0 0.0053054
4570.0 0.0054011
4590.0 0.005612
4610.0 0.005782
4630.0 0.0059318
4650.0 0.0060116
4670.0 0.0059782
4690.0 0.0056512
4710.0 0.0053332
4730.0 0.0050878
4750.0 0.0049624
4770.0 0.0048518
4790.0 0.0048799
4810.0 0.0047926
4830.0 0.0045029
4850.0 0.0048639
4870.0 0.0046077
4890.0 0.0047163
4910.0 0.0047909
4930.0 0.004538
4950.0 0.0039167
4970.0 0.003679
4990.0 0.0034614
5010.0 0.0032617
5030.0 0.0032779
5050.0 0.0035033
5070.0 0.0035688
5090.0 0.0037418
5110.0 0.0037667
5130.0 0.0037252
5150.0 0.0037779
5170.0 0.0036367
5190.0 0.0036166
5210.0 0.0036739
5230.0 0.0035221
5250.0 0.0035806
5270.0 0.003729
5290.0 0.0036659
5310.0 0.0034757
5330.0 0.0033723
5350.0 0.0031785
5370.0 0.0031181
5390.0 0.0030903
5410.0 0.0029868
5430.0 0.0030386
5450.0 0.0029386
5470.0 0.0029519
5490.0 0.0032232
5510.0 0.0032676
5530.0 0.0032837
5550.0 0.0032689
5570.0 0.0033135
5590.0 0.0033119
5610.0 0.0032811
5630.0 0.0032564
5650.0 0.0032205
5670.0 0.0031395
5690.0 0.0030806
5710.0 0.0030054
5730.0 0.0030689
5750.0 0.0029547
5770.0 0.002796
5790.0 0.0026814
5810.0 0.0024518
5830.0 0.0025844
5850.0 0.0027303
5870.0 0.0027437
5890.0 0.0027689
5910.0 0.0028768
5930.0 0.0028659
5950.0 0.0028764
5970.0 0.0028705
5990.0 0.0028948
6010.0 0.0028215
6030.0 0.0027768
6050.0 0.002758
6070.0 0.0027142
6090.0 0.0027405
6110.0 0.0027098
6130.0 0.0026266
6150.0 0.0025655
6170.0 0.0025112
6190.0 0.0023393
6210.0 0.0022976
6230.0 0.0023227
6250.0 0.0023016
6270.0 0.0022803
6290.0 0.0023297
6310.0 0.0023941
6330.0 0.0023805
6350.0 0.0023235
6370.0 0.0023245
6390.0 0.0022532
6410.0 0.0022362
6430.0 0.0021738
6450.0 0.0021653
6470.0 0.0021578
6490.0 0.0021541
6510.0 0.0020869
6530.0 0.0020638
6550.0 0.0020335
6570.0 0.0019881
6590.0 0.0020263
6610.0 0.0020282
6630.0 0.0019799
6650.0 0.0019089
6670.0 0.001881
6690.0 0.0018519
6710.0 0.0018027
6730.0 0.001779
6750.0 0.0017931
6770.0 0.0018557
6790.0 0.0019116
6810.0 0.0018719
6830.0 0.0017401
6850.0 0.0016428
6870.0 0.0016169
6890.0 0.0016087
6910.0 0.0016021
6930.0 0.0015888
6950.0 0.0015964
6970.0 0.0015475
6990.0 0.0015256
7010.0 0.001537
7030.0 0.0015526
7050.0 0.0015217
7070.0 0.0014449
7090.0 0.0013975
7110.0 0.0014004
7130.0 0.0014125
7150.0 0.0014161
7170.0 0.0014082
7190.0 0.0013827
7210.0 0.0014303
7230.0 0.0014736
7250.0 0.0014702
7270.0 0.0014761
7290.0 0.0014989
7310.0 0.0014723
7330.0 0.0014345
7350.0 0.0013817
7370.0 0.0013814
7390.0 0.0014019
7410.0 0.0013308
7430.0 0.0013376
7450.0 0.0013281
7470.0 0.0013673
7490.0 0.0013573
7510.0 0.0013023
7530.0 0.0013215
7550.0 0.0012392
7570.0 0.0011947
7590.0 0.0011859
7610.0 0.0012127
7630.0 0.0012299
7650.0 0.0012685
7670.0 0.0011929
7690.0 0.0011672
7710.0 0.0012243
7730.0 0.0012797
7750.0 0.0012759
7770.0 0.0013065
7790.0 0.0012962
7810.0 0.0013108
7830.0 0.0013815
7850.0 0.0013436
7870.0 0.0014018
7890.0 0.001368
7910.0 0.0013476
7930.0 0.0013025
7950.0 0.0013018
7970.0 0.0013239
7990.0 0.0012688
8010.0 0.0012263
8030.0 0.0012134
8050.0 0.0011894
8070.0 0.0011655
8090.0 0.0010741
8110.0 0.0010779
8130.0 0.0011497
8150.0 0.0011923
8170.0 0.0012017
8190.0 0.0012366
8210.0 0.0012132
8230.0 0.0011888
8250.0 0.0011861
8270.0 0.0011635
8290.0 0.0011397
8310.0 0.0010847
8330.0 0.0010858
8350.0 0.0011005
8370.0 0.0011075
8390.0 0.0011053
8410.0 0.0010899
8430.0 0.0010751
8450.0 0.0010742
8470.0 0.0011127
8490.0 0.0011253
8510.0 0.0010828
8530.0 0.0010434
8550.0 0.0010404
8570.0 0.0010151
8590.0 0.00099525
8610.0 0.0010138
8630.0 0.0010123
8650.0 0.0010029
8670.0 0.00099587
8690.0 0.00098483
8710.0 0.0009409
8730.0 0.00094309
8750.0 0.00092014
8770.0 0.00092314
8790.0 0.00091067
8810.0 0.00088775
8830.0 0.00089139
8850.0 0.00089167
8870.0 0.00084982
8890.0 0.00082022
8910.0 0.00079076
8930.0 0.00075085
8950.0 0.00073368
8970.0 0.00070257
8990.0 0.00069197
9010.0 0.00066971
9030.0 0.00066247
9050.0 0.00065832
9070.0 0.0006543
9090.0 0.00065024
9110.0 0.00064607
9130.0 0.00064192
9150.0 0.00063784
9170.0 0.00063371
9190.0 0.00062956
9210.0 0.00062536
9230.0 0.00062115
9250.0 0.00061693
9270.0 0.00061269
9290.0 0.00060843
9310.0 0.00060424
9330.0 0.00060012
9350.0 0.00059599
9370.0 0.00059186
9390.0 0.00058774
9410.0 0.0005836
9430.0 0.00057947
9450.0 0.00057535
9470.0 0.00057161
9490.0 0.00056768
9510.0 0.00056337
9530.0 0.00055912
9550.0 0.00055496
9570.0 0.00055085
9590.0 0.00054676
9610.0 0.00054278
9630.0 0.00053884
9650.0 0.00053492
9670.0 0.00053099
9690.0 0.00052711
9710.0 0.00052326
9730.0 0.00051941
9750.0 0.00051559
9770.0 0.00051183
9790.0 0.00050806
9810.0 0.00050432
9830.0 0.00050061
9850.0 0.00049659
9870.0 0.00049257
9890.0 0.00048927
9910.0 0.0004859
9930.0 0.00048185
9950.0 0.00047833
9970.0 0.00047513
9990.0 0.00047185
10010.0 0.0004686
10030.0 0.0004653
10050.0 0.00046196
10070.0 0.00045868
10090.0 0.00045545
10110.0 0.00045219
10130.0 0.00044898
10150.0 0.00044585
10170.0 0.00044274
10190.0 0.00043963
10210.0 0.0004366
10230.0 0.00043362
10250.0 0.00043065
10270.0 0.00042772
10290.0 0.00042486
10310.0 0.00042201
10330.0 0.00041917
10350.0 0.00041641
10370.0 0.00041369
10390.0 0.00041097
10410.0 0.00040811
10430.0 0.00040527
10450.0 0.0004029
10470.0 0.00040044
10490.0 0.00039802
10510.0 0.00039562
10530.0 0.00039317
10550.0 0.00039077
10570.0 0.00038846
10590.0 0.00038614
10610.0 0.00038383
10630.0 0.00038161
10650.0 0.00037943
10670.0 0.00037721
10690.0 0.00037507
10710.0 0.00037299
10730.0 0.0003709
10750.0 0.00036881
10770.0 0.00036684
10790.0 0.00036489
10810.0 0.00036292
10830.0 0.00036101
10850.0 0.00035918
10870.0 0.0003573
10890.0 0.00035545
10910.0 0.00035369
10930.0 0.00035193
10950.0 0.00035015
10970.0 0.00034842
10990.0 0.00034674
11010.0 0.00038623
11030.0 0.00038415
11050.0 0.00038193
11070.0 0.00037954
11090.0 0.00037689
11110.0 0.00037426
11130.0 0.00037158
11150.0 0.00036878
11170.0 0.00036594
11190.0 0.00036319
11210.0 0.00036037
11230.0 0.00035749
11250.0 0.00035471
11270.0 0.00035201
11290.0 0.00034927
11310.0 0.00034661
11330.0 0.00034418
11350.0 0.00034182
11370.0 0.00033953
11390.0 0.00033744
11410.0 0.0003355
11430.0 0.00033358
11450.0 0.0003318
11470.0 0.00033016
11490.0 0.00032856
11510.0 0.00032697
11530.0 0.00032547
11550.0 0.00032401
11570.0 0.00032249
11590.0 0.00032097
11610.0 0.00031949
11630.0 0.00031791
11650.0 0.00031625
11670.0 0.00031463
11690.0 0.00031297
11710.0 0.00031121
11730.0 0.00030943
11750.0 0.00030769
11770.0 0.00030586
11790.0 0.00030398
11810.0 0.00030216
11830.0 0.00030035
11850.0 0.00029844
11870.0 0.00029663
11890.0 0.00029493
11910.0 0.00029323
11930.0 0.00029158
11950.0 0.00029009
11970.0 0.00028868
11990.0 0.0002873
12010.0 0.00028609
12030.0 0.00028502
12050.0 0.00028404
12070.0 0.00028316
12090.0 0.00028247
12110.0 0.00028187
12130.0 0.00028137
12150.0 0.00028099
12170.0 0.0002807
12190.0 0.00028046
12210.0 0.00028028
12230.0 0.00028014
12250.0 0.00028
12270.0 0.00027983
12290.0 0.00027963
12310.0 0.00027938
12330.0 0.00027902
12350.0 0.00027855
12370.0 0.00027799
12390.0 0.00027728
12410.0 0.00027638
12430.0 0.00027538
12450.0 0.00027427
12470.0 0.00027295
12490.0 0.00027149
12510.0 0.00026998
12530.0 0.0002683
12550.0 0.00026645
12570.0 0.00026456
12590.0 0.0002626
12610.0 0.00026048
12630.0 0.00025828
12650.0 0.00025617
12670.0 0.00025397
12690.0 0.00025169
12710.0 0.0002495
12730.0 0.00024734
12750.0 0.00024508
12770.0 0.00024292
12790.0 0.00024088
12810.0 0.00023885
12830.0 0.00023685
12850.0 0.00023503
12870.0 0.00023331
12890.0 0.00023163
12910.0 0.00023009
12930.0 0.00022871
12950.0 0.0002274
12970.0 0.00022621
12990.0 0.00022523
13010.0 0.00022438
13030.0 0.00022365
13050.0 0.00022307
13070.0 0.00022265
13090.0 0.00022232
13110.0 0.0002221
13130.0 0.00022197
13150.0 0.00022189
13170.0 0.00022184
13190.0 0.0002218
13210.0 0.00022173
13230.0 0.00022162
13250.0 0.00022143
13270.0 0.00022117
13290.0 0.00022081
13310.0 0.00022031
13330.0 0.00021971
13350.0 0.00021901
13370.0 0.00021815
13390.0 0.00021715
13410.0 0.00021608
13430.0 0.00021487
13450.0 0.00021352
13470.0 0.00021208
13490.0 0.00021057
13510.0 0.00020888
13530.0 0.00020711
13550.0 0.00020532
13570.0 0.00020344
13590.0 0.00020145
13610.0 0.00019946
13630.0 0.00019748
13650.0 0.00019538
13670.0 0.00019327
13690.0 0.0001912
13710.0 0.00018908
13730.0 0.00018686
13750.0 0.00018475
13770.0 0.00018266
13790.0 0.00018051
13810.0 0.00017838
13830.0 0.00017636
13850.0 0.0001743
13870.0 0.00017224
13890.0 0.00017028
13910.0 0.00016837
13930.0 0.00016644
13950.0 0.00016457
13970.0 0.00016284
13990.0 0.00016112
14010.0 0.00015942
14030.0 0.00015783
14050.0 0.00015631
14070.0 0.00015478
14090.0 0.00015335
14110.0 0.00015201
14130.0 0.0001507
14150.0 0.00014942
14170.0 0.00014825
14190.0 0.00014712
14210.0 0.00014599
14230.0 0.00014492
14250.0 0.00014391
14270.0 0.0001429
14290.0 0.00014189
14310.0 0.00014095
14330.0 0.00014002
14350.0 0.00013909
14370.0 0.00013819
14390.0 0.00013733
14410.0 0.00013647
14430.0 0.00013561
14450.0 0.0001348
14470.0 0.000134
14490.0 0.00013318
14510.0 0.0001324
14530.0 0.00013164
14550.0 0.00013087
14570.0 0.0001301
14590.0 0.00012935
14610.0 0.0001286
14630.0 0.00012781
14650.0 0.00012705
14670.0 0.00012628
14690.0 0.0001255
14710.0 0.0001247
14730.0 0.00012392
14750.0 0.00012313
14770.0 0.00012231
14790.0 0.0001215
14810.0 0.00012069
14830.0 0.00011983
14850.0 0.00011897
14870.0 0.00011812
14890.0 0.00011726
14910.0 0.00011638
14930.0 0.00011553
14950.0 0.00011473
14970.0 0.00011393
14990.0 0.0001132
15010.0 0.00011253
15030.0 0.00011192
15050.0 0.00011134
15070.0 0.00011083
15090.0 0.00011035
15110.0 0.00010988
15130.0 0.00010942
15150.0 0.00010899
15170.0 0.00010855
15190.0 0.00010811
15210.0 0.00010768
15230.0 0.00010726
15250.0 0.00010682
15270.0 0.00010638
15290.0 0.00010596
15310.0 0.00010554
15330.0 0.0001051
15350.0 0.00010468
15370.0 0.00010426
15390.0 0.00010383
15410.0 0.00010341
15430.0 0.00010299
15450.0 0.00010257
15470.0 0.00010214
15490.0 0.00010173
15510.0 0.00010132
15530.0 0.00010089
15550.0 0.00010048
15570.0 0.00010007
15590.0 9.9653e-05
15610.0 9.9233e-05
15630.0 9.8826e-05
15650.0 9.8418e-05
15670.0 9.8003e-05
15690.0 9.7595e-05
15710.0 9.7196e-05
15730.0 9.6786e-05
15750.0 9.6376e-05
15770.0 9.5976e-05
15790.0 9.5575e-05
15810.0 9.5163e-05
15830.0 9.4763e-05
15850.0 9.4369e-05
15870.0 9.3968e-05
15890.0 9.3566e-05
15910.0 9.3177e-05
15930.0 9.2782e-05
15950.0 9.238e-05
15970.0 9.1988e-05
15990.0 9.16e-05
16010.0 9.1205e-05
16030.0 9.0808e-05
16050.0 9.0427e-05
16070.0 9.0041e-05
16090.0 8.965e-05
16110.0 8.9267e-05
16130.0 8.889e-05
16150.0 8.8499e-05
16170.0 8.8114e-05
16190.0 8.7739e-05
16210.0 8.736e-05
16230.0 8.6976e-05
16250.0 8.6603e-05
16270.0 8.6234e-05
16290.0 8.5855e-05
16310.0 8.5481e-05
16330.0 8.5115e-05
16350.0 8.4745e-05
16370.0 8.4366e-05
16390.0 8.4003e-05
16410.0 8.3642e-05
16430.0 8.3274e-05
16450.0 8.2909e-05
16470.0 8.2556e-05
16490.0 8.2193e-05
16510.0 8.1829e-05
16530.0 8.1475e-05
16550.0 8.1123e-05
16570.0 8.0762e-05
16590.0 8.0406e-05
16610.0 8.0063e-05
16630.0 7.9712e-05
16650.0 7.936e-05
16670.0 7.9018e-05
16690.0 7.8678e-05
16710.0 7.8325e-05
16730.0 7.7983e-05
16750.0 7.7647e-05
16770.0 7.7307e-05
16790.0 7.6964e-05
16810.0 7.6634e-05
16830.0 7.6303e-05
16850.0 7.5966e-05
16870.0 7.5636e-05
16890.0 7.5313e-05
16910.0 7.4981e-05
16930.0 7.4649e-05
16950.0 7.433e-05
16970.0 7.401e-05
16990.0 7.3684e-05
17010.0 7.3366e-05
17030.0 7.3055e-05
17050.0 7.2736e-05
17070.0 7.2418e-05
17090.0 7.211e-05
17110.0 7.1801e-05
17130.0 7.1483e-05
17150.0 7.1177e-05
17170.0 7.0877e-05
17190.0 7.0571e-05
17210.0 7.0266e-05
17230.0 6.9972e-05
17250.0 6.9674e-05
17270.0 6.937e-05
17290.0 6.9076e-05
17310.0 6.8786e-05
17330.0 6.849e-05
17350.0 6.8195e-05
17370.0 6.7913e-05
17390.0 6.7627e-05
17410.0 6.7338e-05
17430.0 6.7056e-05
17450.0 6.6781e-05
17470.0 6.6492e-05
17490.0 6.621e-05
17510.0 6.5939e-05
17530.0 6.5663e-05
17550.0 6.5384e-05
17570.0 6.5116e-05
17590.0 6.485e-05
17610.0 6.4577e-05
17630.0 6.4308e-05
17650.0 6.4048e-05
17670.0 6.3784e-05
17690.0 6.3511e-05
17710.0 6.3255e-05
17730.0 6.3e-05
17750.0 6.2738e-05
17770.0 6.2481e-05
17790.0 6.2234e-05
17810.0 6.1978e-05
17830.0 6.1721e-05
17850.0 6.1475e-05
17870.0 6.1229e-05
17890.0 6.0976e-05
17910.0 6.0728e-05
17930.0 6.0491e-05
17950.0 6.0247e-05
17970.0 6.0002e-05
17990.0 5.9767e-05
18010.0 5.9532e-05
18030.0 5.9286e-05
18050.0 5.9051e-05
18070.0 5.8821e-05
18090.0 5.8586e-05
18110.0 5.8349e-05
18130.0 5.8125e-05
18150.0 5.7899e-05
18170.0 5.7666e-05
18190.0 5.7441e-05
18210.0 5.7221e-05
18230.0 5.6993e-05
18250.0 5.6764e-05
18270.0 5.6548e-05
18290.0 5.6329e-05
18310.0 5.6106e-05
18330.0 5.5889e-05
18350.0 5.5679e-05
18370.0 5.5459e-05
18390.0 5.5242e-05
18410.0 5.5033e-05
18430.0 5.4821e-05
18450.0 5.4602e-05
18470.0 5.4394e-05
18490.0 5.419e-05
18510.0 5.3979e-05
18530.0 5.377e-05
18550.0 5.357e-05
18570.0 5.3365e-05
18590.0 5.3154e-05
18610.0 5.2953e-05
18630.0 5.2754e-05
18650.0 5.2549e-05
18670.0 5.2344e-05
18690.0 5.2151e-05
18710.0 5.1953e-05
18730.0 5.1751e-05
18750.0 5.1556e-05
18770.0 5.1365e-05
18790.0 5.1161e-05
18810.0 5.0964e-05
18830.0 5.0775e-05
18850.0 5.0581e-05
18870.0 5.0383e-05
18890.0 5.0195e-05
18910.0 5.0009e-05
18930.0 4.9813e-05
18950.0 4.9622e-05
18970.0 4.9437e-05
18990.0 4.9247e-05
19010.0 4.9049e-05
19030.0 4.8867e-05
19050.0 4.8683e-05
19070.0 4.8492e-05
19090.0 4.8305e-05
19110.0 4.8127e-05
19130.0 4.7938e-05
19150.0 4.7748e-05
19170.0 4.7567e-05
19190.0 4.7385e-05
19210.0 4.7195e-05
19230.0 4.7009e-05
19250.0 4.6834e-05
19270.0 4.6649e-05
19290.0 4.6463e-05
19310.0 4.6286e-05
19330.0 4.6107e-05
19350.0 4.5916e-05
19370.0 4.5735e-05
19390.0 4.5559e-05
19410.0 4.5375e-05
19430.0 4.5189e-05
19450.0 4.5015e-05
19470.0 4.4836e-05
19490.0 4.4651e-05
19510.0 4.4471e-05
19530.0 4.4297e-05
19550.0 4.4111e-05
19570.0 4.3925e-05
19590.0 4.375e-05
19610.0 4.3571e-05
19630.0 4.3386e-05
19650.0 4.3208e-05
19670.0 4.3034e-05
19690.0 4.2848e-05
19710.0 4.2665e-05
19730.0 4.2489e-05
19750.0 4.2308e-05
19770.0 4.2119e-05
19790.0 4.194e-05
19810.0 4.1764e-05
19830.0 4.158e-05
19850.0 4.1397e-05
19870.0 4.1224e-05
19890.0 4.1044e-05
19910.0 4.0863e-05
19930.0 4.0698e-05
19950.0 4.0545e-05
19970.0 4.04e-05
19990.0 4.0276e-05
20010.0 4.0181e-05
20030.0 4.0105e-05
20050.0 4.005e-05
20070.0 4.002e-05
20090.0 4.0006e-05
20110.0 4.0002e-05
20130.0 4.0009e-05
20150.0 4.0025e-05
20170.0 4.0043e-05
20190.0 4.0063e-05
20210.0 4.0086e-05
20230.0 4.0109e-05
20250.0 4.0129e-05
20270.0 4.015e-05
20290.0 4.0169e-05
20310.0 4.0185e-05
20330.0 4.0197e-05
20350.0 4.0208e-05
20370.0 4.0216e-05
20390.0 4.0218e-05
20410.0 4.0218e-05
20430.0 4.0216e-05
20450.0 4.0209e-05
20470.0 4.0199e-05
20490.0 4.019e-05
20510.0 4.0179e-05
20530.0 4.0165e-05
20550.0 4.0153e-05
20570.0 4.0144e-05
20590.0 4.0134e-05
20610.0 4.0125e-05
20630.0 4.012e-05
20650.0 4.0115e-05
20670.0 4.0108e-05
20690.0 4.0104e-05
20710.0 4.01e-05
20730.0 4.0092e-05
20750.0 4.0082e-05
20770.0 4.007e-05
20790.0 4.0052e-05
20810.0 4.0026e-05
20830.0 3.9995e-05
20850.0 3.9958e-05
20870.0 3.9908e-05
20890.0 3.9849e-05
20910.0 3.9787e-05
20930.0 3.9714e-05
20950.0 3.9631e-05
20970.0 3.9544e-05
20990.0 3.9454e-05
21010.0 3.9351e-05
21030.0 3.9246e-05
21050.0 3.9143e-05
21070.0 3.9034e-05
21090.0 3.8919e-05
21110.0 3.881e-05
21130.0 3.8703e-05
21150.0 3.859e-05
21170.0 3.8478e-05
21190.0 3.8371e-05
21210.0 3.8257e-05
21230.0 3.8139e-05
21250.0 3.8025e-05
21270.0 3.7909e-05
21290.0 3.7784e-05
21310.0 3.7656e-05
21330.0 3.753e-05
21350.0 3.7393e-05
21370.0 3.7247e-05
21390.0 3.7101e-05
21410.0 3.695e-05
21430.0 3.6781e-05
21450.0 3.6611e-05
21470.0 3.6441e-05
21490.0 3.6259e-05
21510.0 3.6068e-05
21530.0 3.588e-05
21550.0 3.5686e-05
21570.0 3.5479e-05
21590.0 3.5273e-05
21610.0 3.5067e-05
21630.0 3.4852e-05
21650.0 3.4628e-05
21670.0 3.4416e-05
21690.0 3.4198e-05
21710.0 3.3971e-05
21730.0 3.3747e-05
21750.0 3.3527e-05
21770.0 3.3293e-05
21790.0 3.3058e-05
21810.0 3.2829e-05
21830.0 3.2596e-05
21850.0 3.2352e-05
21870.0 3.2112e-05
21890.0 3.1877e-05
21910.0 3.1631e-05
21930.0 3.1384e-05
21950.0 3.1143e-05
21970.0 3.0899e-05
21990.0 3.0644e-05
22010.0 3.0401e-05
22030.0 3.0163e-05
22050.0 2.9921e-05
22070.0 2.9682e-05
22090.0 2.9456e-05
22110.0 2.923e-05
22130.0 2.9005e-05
22150.0 2.8791e-05
22170.0 2.8585e-05
22190.0 2.8378e-05
22210.0 2.8178e-05
22230.0 2.799e-05
22250.0 2.7804e-05
22270.0 2.762e-05
22290.0 2.7443e-05
22310.0 2.7271e-05
22330.0 2.7096e-05
22350.0 2.6924e-05
22370.0 2.6756e-05
22390.0 2.6586e-05
22410.0 2.6412e-05
22430.0 2.6241e-05
22450.0 2.6068e-05
22470.0 2.5891e-05
22490.0 2.5712e-05
22510.0 2.5533e-05
22530.0 2.5348e-05
22550.0 2.5159e-05
22570.0 2.4971e-05
22590.0 2.4781e-05
22610.0 2.4586e-05
22630.0 2.439e-05
22650.0 2.4196e-05
22670.0 2.3998e-05
22690.0 2.3799e-05
22710.0 2.3602e-05
22730.0 2.3405e-05
22750.0 2.3205e-05
22770.0 2.3009e-05
22790.0 2.2814e-05
22810.0 2.2619e-05
22830.0 2.2424e-05
22850.0 2.2232e-05
22870.0 2.204e-05
22890.0 2.1847e-05
22910.0 2.1655e-05
22930.0 2.1464e-05
