#lamb flux
1010.0 1.021e-08
1030.0 1.1292e-08
1050.0 1.2537e-08
1070.0 1.3938e-08
1090.0 1.553e-08
1110.0 1.7162e-08
1130.0 1.8805e-08
1150.0 2.0526e-08
1170.0 2.2302e-08
1190.0 2.3985e-08
1210.0 2.5692e-08
1230.0 2.7455e-08
1250.0 2.9182e-08
1270.0 3.086e-08
1290.0 3.2633e-08
1310.0 3.4404e-08
1330.0 3.6103e-08
1350.0 3.7821e-08
1370.0 3.9594e-08
1390.0 4.1324e-08
1410.0 4.3002e-08
1430.0 4.4756e-08
1450.0 4.651e-08
1470.0 4.8205e-08
1490.0 4.9919e-08
1510.0 5.173e-08
1530.0 5.3445e-08
1550.0 5.5138e-08
1570.0 5.689e-08
1590.0 5.8643e-08
1610.0 6.0319e-08
1630.0 6.2048e-08
1650.0 6.3823e-08
1670.0 6.554e-08
1690.0 6.7237e-08
1710.0 6.9e-08
1730.0 7.0775e-08
1750.0 7.2445e-08
1770.0 7.4167e-08
1790.0 7.5925e-08
1810.0 7.7628e-08
1830.0 7.9305e-08
1850.0 8.1087e-08
1870.0 8.2826e-08
1890.0 8.4509e-08
1910.0 8.6229e-08
1930.0 8.7994e-08
1950.0 8.9683e-08
1970.0 9.1355e-08
1990.0 9.3095e-08
2010.0 9.4809e-08
2030.0 9.6466e-08
2050.0 9.8177e-08
2070.0 9.9936e-08
2090.0 1.016e-07
2110.0 1.0326e-07
2130.0 1.0497e-07
2150.0 1.0666e-07
2170.0 1.0828e-07
2190.0 1.0996e-07
2210.0 1.1165e-07
2230.0 1.1328e-07
2250.0 1.149e-07
2270.0 1.166e-07
2290.0 1.1824e-07
2310.0 1.1983e-07
2330.0 1.2147e-07
2350.0 1.2317e-07
2370.0 1.2485e-07
2390.0 1.2667e-07
2410.0 1.2884e-07
2430.0 1.3132e-07
2450.0 1.3429e-07
2470.0 1.381e-07
2490.0 1.429e-07
2510.0 1.4836e-07
2530.0 1.5492e-07
2550.0 1.6314e-07
2570.0 1.7337e-07
2590.0 1.8667e-07
2610.0 2.0658e-07
2630.0 2.3502e-07
2650.0 2.7219e-07
2670.0 3.2026e-07
2690.0 3.7933e-07
2710.0 4.4238e-07
2730.0 5.0468e-07
2750.0 5.6605e-07
2770.0 6.1942e-07
2790.0 6.6181e-07
2810.0 6.9545e-07
2830.0 7.2173e-07
2850.0 7.3967e-07
2870.0 7.5283e-07
2890.0 7.6326e-07
2910.0 7.7158e-07
2930.0 7.7838e-07
2950.0 7.8487e-07
2970.0 7.9121e-07
2990.0 7.9716e-07
3010.0 2.2532e-05
3030.0 2.2701e-05
3050.0 2.2863e-05
3070.0 2.3003e-05
3090.0 2.3123e-05
3110.0 2.3197e-05
3130.0 2.3194e-05
3150.0 2.3091e-05
3170.0 2.2844e-05
3190.0 2.2455e-05
3210.0 2.1963e-05
3230.0 2.1399e-05
3250.0 2.0843e-05
3270.0 2.0436e-05
3290.0 2.021e-05
3310.0 2.0247e-05
3330.0 2.054e-05
3350.0 2.105e-05
3370.0 2.1779e-05
3390.0 2.2697e-05
3410.0 2.3696e-05
3430.0 2.4818e-05
3450.0 2.611e-05
3470.0 2.752e-05
3490.0 2.9015e-05
3510.0 3.0704e-05
3530.0 3.2513e-05
3550.0 3.4345e-05
3570.0 3.6256e-05
3590.0 3.8334e-05
3610.0 4.0475e-05
3630.0 4.2609e-05
3650.0 4.4824e-05
3670.0 4.6846e-05
3690.0 4.8357e-05
3710.0 4.9223e-05
3730.0 4.9252e-05
3750.0 4.8567e-05
3770.0 4.8297e-05
3790.0 4.801e-05
3810.0 4.683e-05
3830.0 4.828e-05
3850.0 5.3982e-05
3870.0 5.7113e-05
3890.0 5.6852e-05
3910.0 5.7095e-05
3930.0 5.8598e-05
3950.0 5.9523e-05
3970.0 5.4231e-05
3990.0 4.6663e-05
4010.0 0.00013986
4030.0 0.00016946
4050.0 0.00019427
4070.0 0.00016856
4090.0 0.00015267
4110.0 0.00013471
4130.0 0.00012399
4150.0 0.00013189
4170.0 0.00012991
4190.0 0.00013848
4210.0 0.00013721
4230.0 0.00014513
4250.0 0.0001717
4270.0 0.00017372
4290.0 0.00016008
4310.0 0.00016633
4330.0 0.00017693
4350.0 0.00019838
4370.0 0.00022576
4390.0 0.00021185
4410.0 0.00015652
4430.0 0.0001325
4450.0 0.00012176
4470.0 9.3453e-05
4490.0 0.00010085
4510.0 0.00015233
4530.0 0.00017568
4550.0 0.00017721
4570.0 0.0001994
4590.0 0.00022714
4610.0 0.00030636
4630.0 0.0003979
4650.0 0.00043151
4670.0 0.00039962
4690.0 0.00038131
4710.0 0.00040307
4730.0 0.00038039
4750.0 0.00028439
4770.0 0.00020861
4790.0 0.0001948
4810.0 0.00018567
4830.0 0.00016998
4850.0 0.00018653
4870.0 0.00024642
4890.0 0.0002906
4910.0 0.00025497
4930.0 0.00022561
4950.0 0.00024786
4970.0 0.00031787
4990.0 0.00043079
5010.0 0.00049557
5030.0 0.00043697
5050.0 0.00029564
5070.0 0.00019484
5090.0 0.00015711
5110.0 0.00016157
5130.0 0.00018648
5150.0 0.00020204
5170.0 0.00019901
5190.0 0.00018596
5210.0 0.00019437
5230.0 0.00020432
5250.0 0.00022021
5270.0 0.00023759
5290.0 0.0002633
5310.0 0.00030647
5330.0 0.00033915
5350.0 0.00033699
5370.0 0.00035397
5390.0 0.00040619
5410.0 0.00040583
5430.0 0.0003589
5450.0 0.00032974
5470.0 0.00035013
5490.0 0.00042776
5510.0 0.00053486
5530.0 0.00061346
5550.0 0.00059291
5570.0 0.000539
5590.0 0.00046867
5610.0 0.00043222
5630.0 0.00041912
5650.0 0.00039917
5670.0 0.00037825
5690.0 0.00033816
5710.0 0.00032971
5730.0 0.00030371
5750.0 0.00021414
5770.0 0.00016706
5790.0 0.00018932
5810.0 0.00021377
5830.0 0.00026233
5850.0 0.00031228
5870.0 0.00034647
5890.0 0.00035235
5910.0 0.00034568
5930.0 0.00032905
5950.0 0.00033529
5970.0 0.0003822
5990.0 0.00035937
6010.0 0.00030126
6030.0 0.00025452
6050.0 0.00022165
6070.0 0.00022044
6090.0 0.00023903
6110.0 0.00026728
6130.0 0.00027137
6150.0 0.00023349
6170.0 0.0002054
6190.0 0.00023115
6210.0 0.00030557
6230.0 0.000401
6250.0 0.00043434
6270.0 0.00037955
6290.0 0.00031934
6310.0 0.0002493
6330.0 0.00019101
6350.0 0.00017038
6370.0 0.00017917
6390.0 0.00020713
6410.0 0.0002554
6430.0 0.00029824
6450.0 0.00034126
6470.0 0.00039075
6490.0 0.000472
6510.0 0.00052776
6530.0 0.00051776
6550.0 0.0004682
6570.0 0.00039746
6590.0 0.0003584
6610.0 0.00030903
6630.0 0.00027997
6650.0 0.00026465
6670.0 0.0002571
6690.0 0.00023231
6710.0 0.00021117
6730.0 0.0001521
6750.0 0.0001508
6770.0 0.0001639
6790.0 0.00018839
6810.0 0.00017238
6830.0 0.00017751
6850.0 0.00016603
6870.0 0.00015167
6890.0 0.00014562
6910.0 0.00015518
6930.0 0.00014535
6950.0 0.00014954
6970.0 0.00015729
6990.0 0.00017853
7010.0 0.00018005
7030.0 0.00018291
7050.0 0.00017444
7070.0 0.00016621
7090.0 0.0001667
7110.0 0.00017152
7130.0 0.00018458
7150.0 0.00019604
7170.0 0.00021631
7190.0 0.00023779
7210.0 0.00023366
7230.0 0.00024021
7250.0 0.00025814
7270.0 0.00028131
7290.0 0.00033389
7310.0 0.0003623
7330.0 0.00035019
7350.0 0.00031673
7370.0 0.00027558
7390.0 0.00026735
7410.0 0.00028411
7430.0 0.00031575
7450.0 0.00034391
7470.0 0.00034075
7490.0 0.0003107
7510.0 0.00035195
7530.0 0.00034809
7550.0 0.00031287
7570.0 0.00024441
7590.0 0.00016802
7610.0 0.00014421
7630.0 0.00016385
7650.0 0.00019374
7670.0 0.00024112
7690.0 0.00026533
7710.0 0.00027651
7730.0 0.00029058
7750.0 0.0003262
7770.0 0.00033133
7790.0 0.00030434
7810.0 0.0002777
7830.0 0.00028637
7850.0 0.00027837
7870.0 0.00025522
7890.0 0.00021444
7910.0 0.00017431
7930.0 0.00016644
7950.0 0.00015163
7970.0 0.00014036
7990.0 0.00013956
8010.0 1.0336e-05
8030.0 1.0202e-05
8050.0 1.0064e-05
8070.0 1.0196e-05
8090.0 1.0955e-05
8110.0 1.0769e-05
8130.0 8.8827e-06
8150.0 8.6507e-06
8170.0 7.4514e-06
8190.0 7.0617e-06
8210.0 9.1704e-06
8230.0 1.021e-05
8250.0 9.2022e-06
8270.0 8.0092e-06
8290.0 7.8075e-06
8310.0 6.009e-06
8330.0 4.05e-06
8350.0 2.8743e-06
8370.0 1.8109e-06
8390.0 3.3103e-06
8410.0 3.8574e-06
8430.0 4.7548e-06
8450.0 5.5835e-06
8470.0 6.9399e-06
8490.0 6.891e-06
8510.0 6.7783e-06
8530.0 7.0741e-06
8550.0 9.5443e-06
8570.0 1.1299e-05
8590.0 1.2192e-05
8610.0 1.5401e-05
8630.0 1.8552e-05
8650.0 1.9408e-05
8670.0 2.0625e-05
8690.0 2.074e-05
8710.0 1.8783e-05
8730.0 1.7471e-05
8750.0 1.5422e-05
8770.0 1.4633e-05
8790.0 1.4376e-05
8810.0 1.3775e-05
8830.0 1.1015e-05
8850.0 8.0641e-06
8870.0 6.1745e-06
8890.0 6.0366e-06
8910.0 6.918e-06
8930.0 7.8688e-06
8950.0 8.0195e-06
8970.0 8.0574e-06
8990.0 7.1862e-06
9010.0 7.5308e-05
9030.0 6.8238e-05
9050.0 6.8567e-05
9070.0 6.9109e-05
9090.0 6.9583e-05
9110.0 7.0169e-05
9130.0 7.0622e-05
9150.0 7.0973e-05
9170.0 7.1348e-05
9190.0 7.1748e-05
9210.0 7.217e-05
9230.0 7.2615e-05
9250.0 7.3066e-05
9270.0 7.3535e-05
9290.0 7.4018e-05
9310.0 7.4504e-05
9330.0 7.5e-05
9350.0 7.5514e-05
9370.0 7.6034e-05
9390.0 7.6559e-05
9410.0 7.71e-05
9430.0 7.7656e-05
9450.0 7.8211e-05
9470.0 7.8777e-05
9490.0 7.936e-05
9510.0 7.9949e-05
9530.0 8.0541e-05
9550.0 8.1154e-05
9570.0 8.1778e-05
9590.0 8.2403e-05
9610.0 8.3039e-05
9630.0 8.3692e-05
9650.0 8.4351e-05
9670.0 8.501e-05
9690.0 8.5688e-05
9710.0 8.6376e-05
9730.0 8.7066e-05
9750.0 8.7765e-05
9770.0 8.8486e-05
9790.0 8.9205e-05
9810.0 8.9928e-05
9830.0 9.0666e-05
9850.0 9.1414e-05
9870.0 9.2159e-05
9890.0 9.2916e-05
9910.0 9.3688e-05
9930.0 9.4459e-05
9950.0 9.5234e-05
9970.0 9.6024e-05
9990.0 9.6822e-05
10010.0 8.4016e-05
10030.0 8.4706e-05
10050.0 8.541e-05
10070.0 8.6137e-05
10090.0 8.6823e-05
10110.0 8.7526e-05
10130.0 8.8232e-05
10150.0 8.8936e-05
10170.0 8.9648e-05
10190.0 9.0372e-05
10210.0 9.1088e-05
10230.0 9.1802e-05
10250.0 9.2528e-05
10270.0 9.3252e-05
10290.0 9.3968e-05
10310.0 9.4692e-05
10330.0 9.5425e-05
10350.0 9.6144e-05
10370.0 9.6861e-05
10390.0 9.7587e-05
10410.0 9.8309e-05
10430.0 9.9017e-05
10450.0 9.9732e-05
10470.0 0.00010045
10490.0 0.00010115
10510.0 0.00010185
10530.0 0.00010256
10550.0 0.00010326
10570.0 0.00010395
10590.0 0.00010464
10610.0 0.00010533
10630.0 0.000106
10650.0 0.00010666
10670.0 0.00010734
10690.0 0.00010799
10710.0 0.00010864
10730.0 0.00010929
10750.0 0.00010993
10770.0 0.00011056
10790.0 0.00011117
10810.0 0.00011179
10830.0 0.00011238
10850.0 0.00011295
10870.0 0.0001135
10890.0 0.00011398
10910.0 0.00011435
10930.0 0.00011456
10950.0 0.00011451
10970.0 0.00011413
10990.0 0.00011336
11010.0 0.00011209
11030.0 0.00011031
11050.0 0.00010813
11070.0 0.00010554
11090.0 0.00010241
11110.0 9.9183e-05
11130.0 9.5815e-05
11150.0 9.2187e-05
11170.0 8.8448e-05
11190.0 8.4821e-05
11210.0 8.1075e-05
11230.0 7.7234e-05
11250.0 7.3565e-05
11270.0 7.004e-05
11290.0 6.6509e-05
11310.0 6.3164e-05
11330.0 6.0219e-05
11350.0 5.7436e-05
11370.0 5.4864e-05
11390.0 5.264e-05
11410.0 5.0693e-05
11430.0 4.8885e-05
11450.0 4.7327e-05
11470.0 4.5979e-05
11490.0 4.4726e-05
11510.0 4.3518e-05
11530.0 4.2397e-05
11550.0 4.1283e-05
11570.0 4.0095e-05
11590.0 3.8865e-05
11610.0 3.7612e-05
11630.0 3.6249e-05
11650.0 3.479e-05
11670.0 3.3352e-05
11690.0 3.1894e-05
11710.0 3.0389e-05
11730.0 2.8931e-05
11750.0 2.7582e-05
11770.0 2.6259e-05
11790.0 2.5019e-05
11810.0 2.3927e-05
11830.0 2.2951e-05
11850.0 2.2052e-05
11870.0 2.1299e-05
11890.0 2.0674e-05
11910.0 2.0125e-05
11930.0 1.9652e-05
11950.0 1.9259e-05
11970.0 1.8908e-05
11990.0 1.8576e-05
12010.0 1.8268e-05
12030.0 1.7972e-05
12050.0 1.7666e-05
12070.0 1.7348e-05
12090.0 1.7041e-05
12110.0 1.6729e-05
12130.0 1.6417e-05
12150.0 1.6129e-05
12170.0 1.5878e-05
12190.0 1.5661e-05
12210.0 1.5509e-05
12230.0 1.5436e-05
12250.0 1.5447e-05
12270.0 1.5564e-05
12290.0 1.5784e-05
12310.0 1.61e-05
12330.0 1.6542e-05
12350.0 1.7093e-05
12370.0 1.7721e-05
12390.0 1.8445e-05
12410.0 1.9294e-05
12430.0 2.0156e-05
12450.0 2.1049e-05
12470.0 2.1998e-05
12490.0 2.2952e-05
12510.0 2.3846e-05
12530.0 2.4736e-05
12550.0 2.5595e-05
12570.0 2.6352e-05
12590.0 2.7018e-05
12610.0 2.7611e-05
12630.0 2.8083e-05
12650.0 2.8409e-05
12670.0 2.8624e-05
12690.0 2.871e-05
12710.0 2.8663e-05
12730.0 2.8496e-05
12750.0 2.82e-05
12770.0 2.7793e-05
12790.0 2.73e-05
12810.0 2.6711e-05
12830.0 2.6029e-05
12850.0 2.5316e-05
12870.0 2.4563e-05
12890.0 2.3747e-05
12910.0 2.2919e-05
12930.0 2.2102e-05
12950.0 2.1249e-05
12970.0 2.0381e-05
12990.0 1.956e-05
13010.0 1.875e-05
13030.0 1.793e-05
13050.0 1.7142e-05
13070.0 1.6405e-05
13090.0 1.5664e-05
13110.0 1.4948e-05
13130.0 1.4288e-05
13150.0 1.3663e-05
13170.0 1.3051e-05
13190.0 1.2506e-05
13210.0 1.2026e-05
13230.0 1.1588e-05
13250.0 1.1211e-05
13270.0 1.0913e-05
13290.0 1.0681e-05
13310.0 1.0522e-05
13330.0 1.0449e-05
13350.0 1.0458e-05
13370.0 1.0551e-05
13390.0 1.0736e-05
13410.0 1.0985e-05
13430.0 1.1308e-05
13450.0 1.1708e-05
13470.0 1.2152e-05
13490.0 1.2622e-05
13510.0 1.3152e-05
13530.0 1.369e-05
13550.0 1.4204e-05
13570.0 1.4712e-05
13590.0 1.5206e-05
13610.0 1.5646e-05
13630.0 1.603e-05
13650.0 1.638e-05
13670.0 1.6671e-05
13690.0 1.6896e-05
13710.0 1.707e-05
13730.0 1.7195e-05
13750.0 1.7257e-05
13770.0 1.7271e-05
13790.0 1.724e-05
13810.0 1.7164e-05
13830.0 1.7051e-05
13850.0 1.6899e-05
13870.0 1.6707e-05
13890.0 1.6487e-05
13910.0 1.6239e-05
13930.0 1.5953e-05
13950.0 1.564e-05
13970.0 1.532e-05
13990.0 1.4971e-05
14010.0 1.4601e-05
14030.0 1.4231e-05
14050.0 1.3858e-05
14070.0 1.3465e-05
14090.0 1.3088e-05
14110.0 1.2734e-05
14130.0 1.2391e-05
14150.0 1.2068e-05
14170.0 1.1792e-05
14190.0 1.1554e-05
14210.0 1.1351e-05
14230.0 1.1202e-05
14250.0 1.1105e-05
14270.0 1.1058e-05
14290.0 1.1068e-05
14310.0 1.1129e-05
14330.0 1.124e-05
14350.0 1.1403e-05
14370.0 1.1606e-05
14390.0 1.1837e-05
14410.0 1.2109e-05
14430.0 1.2407e-05
14450.0 1.2712e-05
14470.0 1.3028e-05
14490.0 1.3364e-05
14510.0 1.3685e-05
14530.0 1.3991e-05
14550.0 1.4296e-05
14570.0 1.4589e-05
14590.0 1.4856e-05
14610.0 1.5113e-05
14630.0 1.5369e-05
14650.0 1.5607e-05
14670.0 1.5836e-05
14690.0 1.6075e-05
14710.0 1.6327e-05
14730.0 1.6579e-05
14750.0 1.6858e-05
14770.0 1.7174e-05
14790.0 1.7517e-05
14810.0 1.7888e-05
14830.0 1.8329e-05
14850.0 1.8807e-05
14870.0 1.9306e-05
14890.0 1.9845e-05
14910.0 2.0417e-05
14930.0 2.0967e-05
14950.0 2.148e-05
14970.0 2.1967e-05
14990.0 2.2375e-05
15010.0 2.2687e-05
15030.0 2.2918e-05
15050.0 2.3071e-05
15070.0 2.3145e-05
15090.0 2.3172e-05
15110.0 2.3164e-05
15130.0 2.3135e-05
15150.0 2.3096e-05
15170.0 2.305e-05
15190.0 2.3e-05
15210.0 2.2951e-05
15230.0 2.2902e-05
15250.0 2.2852e-05
15270.0 2.2802e-05
15290.0 2.2754e-05
15310.0 2.2706e-05
15330.0 2.2657e-05
15350.0 2.2609e-05
15370.0 2.2563e-05
15390.0 2.2513e-05
15410.0 2.2466e-05
15430.0 2.242e-05
15450.0 2.2372e-05
15470.0 2.2324e-05
15490.0 2.2279e-05
15510.0 2.2234e-05
15530.0 2.2187e-05
15550.0 2.2141e-05
15570.0 2.2096e-05
15590.0 2.205e-05
15610.0 2.2003e-05
15630.0 2.1959e-05
15650.0 2.1914e-05
15670.0 2.1869e-05
15690.0 2.1824e-05
15710.0 2.1781e-05
15730.0 2.1736e-05
15750.0 2.169e-05
15770.0 2.1647e-05
15790.0 2.1603e-05
15810.0 2.1558e-05
15830.0 2.1514e-05
15850.0 2.1471e-05
15870.0 2.1427e-05
15890.0 2.1383e-05
15910.0 2.1341e-05
15930.0 2.1297e-05
15950.0 2.1252e-05
15970.0 2.1209e-05
15990.0 2.1167e-05
16010.0 2.1123e-05
16030.0 2.1078e-05
16050.0 2.1037e-05
16070.0 2.0994e-05
16090.0 2.095e-05
16110.0 2.0907e-05
16130.0 2.0865e-05
16150.0 2.0821e-05
16170.0 2.0777e-05
16190.0 2.0735e-05
16210.0 2.0692e-05
16230.0 2.0648e-05
16250.0 2.0605e-05
16270.0 2.0564e-05
16290.0 2.052e-05
16310.0 2.0476e-05
16330.0 2.0434e-05
16350.0 2.0391e-05
16370.0 2.0346e-05
16390.0 2.0303e-05
16410.0 2.0261e-05
16430.0 2.0217e-05
16450.0 2.0173e-05
16470.0 2.0131e-05
16490.0 2.0087e-05
16510.0 2.0043e-05
16530.0 2e-05
16550.0 1.9957e-05
16570.0 1.9912e-05
16590.0 1.9867e-05
16610.0 1.9825e-05
16630.0 1.9781e-05
16650.0 1.9736e-05
16670.0 1.9693e-05
16690.0 1.965e-05
16710.0 1.9604e-05
16730.0 1.9559e-05
16750.0 1.9516e-05
16770.0 1.9471e-05
16790.0 1.9425e-05
16810.0 1.9382e-05
16830.0 1.9338e-05
16850.0 1.9292e-05
16870.0 1.9247e-05
16890.0 1.9203e-05
16910.0 1.9157e-05
16930.0 1.911e-05
16950.0 1.9066e-05
16970.0 1.9021e-05
16990.0 1.8974e-05
17010.0 1.8928e-05
17030.0 1.8884e-05
17050.0 1.8837e-05
17070.0 1.879e-05
17090.0 1.8745e-05
17110.0 1.8699e-05
17130.0 1.8651e-05
17150.0 1.8604e-05
17170.0 1.8559e-05
17190.0 1.8512e-05
17210.0 1.8464e-05
17230.0 1.8419e-05
17250.0 1.8371e-05
17270.0 1.8323e-05
17290.0 1.8276e-05
17310.0 1.8229e-05
17330.0 1.818e-05
17350.0 1.8131e-05
17370.0 1.8085e-05
17390.0 1.8037e-05
17410.0 1.7988e-05
17430.0 1.7941e-05
17450.0 1.7894e-05
17470.0 1.7843e-05
17490.0 1.7794e-05
17510.0 1.7746e-05
17530.0 1.7698e-05
17550.0 1.7647e-05
17570.0 1.7599e-05
17590.0 1.7551e-05
17610.0 1.7501e-05
17630.0 1.7451e-05
17650.0 1.7403e-05
17670.0 1.7353e-05
17690.0 1.7301e-05
17710.0 1.7252e-05
17730.0 1.7203e-05
17750.0 1.7152e-05
17770.0 1.7101e-05
17790.0 1.7053e-05
17810.0 1.7002e-05
17830.0 1.695e-05
17850.0 1.69e-05
17870.0 1.685e-05
17890.0 1.6798e-05
17910.0 1.6746e-05
17930.0 1.6697e-05
17950.0 1.6646e-05
17970.0 1.6594e-05
17990.0 1.6543e-05
18010.0 1.6493e-05
18030.0 1.6439e-05
18050.0 1.6388e-05
18070.0 1.6337e-05
18090.0 1.6285e-05
18110.0 1.6232e-05
18130.0 1.6181e-05
18150.0 1.613e-05
18170.0 1.6077e-05
18190.0 1.6025e-05
18210.0 1.5974e-05
18230.0 1.5921e-05
18250.0 1.5867e-05
18270.0 1.5815e-05
18290.0 1.5763e-05
18310.0 1.571e-05
18330.0 1.5657e-05
18350.0 1.5606e-05
18370.0 1.5552e-05
18390.0 1.5499e-05
18410.0 1.5447e-05
18430.0 1.5394e-05
18450.0 1.5339e-05
18470.0 1.5287e-05
18490.0 1.5235e-05
18510.0 1.5181e-05
18530.0 1.5127e-05
18550.0 1.5076e-05
18570.0 1.5022e-05
18590.0 1.4967e-05
18610.0 1.4914e-05
18630.0 1.4862e-05
18650.0 1.4807e-05
18670.0 1.4753e-05
18690.0 1.4701e-05
18710.0 1.4647e-05
18730.0 1.4593e-05
18750.0 1.454e-05
18770.0 1.4487e-05
18790.0 1.4432e-05
18810.0 1.4378e-05
18830.0 1.4325e-05
18850.0 1.4271e-05
18870.0 1.4216e-05
18890.0 1.4163e-05
18910.0 1.411e-05
18930.0 1.4055e-05
18950.0 1.4001e-05
18970.0 1.3949e-05
18990.0 1.3895e-05
19010.0 1.3838e-05
19030.0 1.3786e-05
19050.0 1.3733e-05
19070.0 1.3678e-05
19090.0 1.3624e-05
19110.0 1.3571e-05
19130.0 1.3517e-05
19150.0 1.3462e-05
19170.0 1.3408e-05
19190.0 1.3355e-05
19210.0 1.33e-05
19230.0 1.3245e-05
19250.0 1.3193e-05
19270.0 1.3139e-05
19290.0 1.3084e-05
19310.0 1.3031e-05
19330.0 1.2978e-05
19350.0 1.2922e-05
19370.0 1.2868e-05
19390.0 1.2815e-05
19410.0 1.2761e-05
19430.0 1.2706e-05
19450.0 1.2654e-05
19470.0 1.26e-05
19490.0 1.2545e-05
19510.0 1.2492e-05
19530.0 1.2439e-05
19550.0 1.2384e-05
19570.0 1.2329e-05
19590.0 1.2277e-05
19610.0 1.2223e-05
19630.0 1.2169e-05
19650.0 1.2115e-05
19670.0 1.2063e-05
19690.0 1.2009e-05
19710.0 1.1954e-05
19730.0 1.1902e-05
19750.0 1.1848e-05
19770.0 1.1793e-05
19790.0 1.174e-05
19810.0 1.1688e-05
19830.0 1.1633e-05
19850.0 1.1579e-05
19870.0 1.1525e-05
19890.0 1.1468e-05
19910.0 1.1404e-05
19930.0 1.1337e-05
19950.0 1.1259e-05
19970.0 1.1164e-05
19990.0 1.1049e-05
20010.0 9.8304e-06
20030.0 9.6881e-06
20050.0 9.5216e-06
20070.0 9.3412e-06
20090.0 9.1471e-06
20110.0 8.9276e-06
20130.0 8.7053e-06
20150.0 8.4851e-06
20170.0 8.2567e-06
20190.0 8.0251e-06
20210.0 7.8063e-06
20230.0 7.5929e-06
20250.0 7.3791e-06
20270.0 7.1806e-06
20290.0 6.9994e-06
20310.0 6.8273e-06
20330.0 6.6664e-06
20350.0 6.5328e-06
20370.0 6.4142e-06
20390.0 6.3102e-06
20410.0 6.2263e-06
20430.0 6.1615e-06
20450.0 6.1103e-06
20470.0 6.0759e-06
20490.0 6.0574e-06
20510.0 6.0521e-06
20530.0 6.0596e-06
20550.0 6.0783e-06
20570.0 6.1055e-06
20590.0 6.1424e-06
20610.0 6.187e-06
20630.0 6.2362e-06
20650.0 6.2912e-06
20670.0 6.354e-06
20690.0 6.4181e-06
20710.0 6.4843e-06
20730.0 6.5558e-06
20750.0 6.6304e-06
20770.0 6.7037e-06
20790.0 6.7808e-06
20810.0 6.8623e-06
20830.0 6.9434e-06
20850.0 7.0249e-06
20870.0 7.1121e-06
20890.0 7.201e-06
20910.0 7.2868e-06
20930.0 7.3758e-06
20950.0 7.468e-06
20970.0 7.558e-06
20990.0 7.6467e-06
21010.0 7.74e-06
21030.0 7.8312e-06
21050.0 7.9182e-06
21070.0 8.0051e-06
21090.0 8.0923e-06
21110.0 8.1718e-06
21130.0 8.2465e-06
21150.0 8.3188e-06
21170.0 8.3843e-06
21190.0 8.4407e-06
21210.0 8.4914e-06
21230.0 8.5336e-06
21250.0 8.5636e-06
21270.0 8.5827e-06
21290.0 8.5898e-06
21310.0 8.583e-06
21330.0 8.5627e-06
21350.0 8.5272e-06
21370.0 8.475e-06
21390.0 8.4086e-06
21410.0 8.3274e-06
21430.0 8.2244e-06
21450.0 8.1089e-06
21470.0 7.9831e-06
21490.0 7.8408e-06
21510.0 7.6847e-06
21530.0 7.5261e-06
21550.0 7.36e-06
21570.0 7.1828e-06
21590.0 7.0085e-06
21610.0 6.8402e-06
21630.0 6.6716e-06
21650.0 6.5069e-06
21670.0 6.3642e-06
21690.0 6.2325e-06
21710.0 6.1139e-06
21730.0 6.0168e-06
21750.0 5.9419e-06
21770.0 5.8848e-06
21790.0 5.852e-06
21810.0 5.8429e-06
21830.0 5.8559e-06
21850.0 5.8925e-06
21870.0 5.9496e-06
21890.0 6.0233e-06
21910.0 6.1179e-06
21930.0 6.2288e-06
21950.0 6.349e-06
21970.0 6.4821e-06
21990.0 6.6316e-06
22010.0 6.7809e-06
22030.0 6.9326e-06
22050.0 7.0919e-06
22070.0 7.252e-06
22090.0 7.4037e-06
22110.0 7.5565e-06
22130.0 7.7092e-06
22150.0 7.8517e-06
22170.0 7.9861e-06
22190.0 8.1193e-06
22210.0 8.2433e-06
22230.0 8.3523e-06
22250.0 8.455e-06
22270.0 8.5496e-06
22290.0 8.6305e-06
22310.0 8.6998e-06
22330.0 8.7609e-06
22350.0 8.8081e-06
22370.0 8.8414e-06
22390.0 8.8623e-06
22410.0 8.8689e-06
22430.0 8.8604e-06
22450.0 8.8376e-06
22470.0 8.7981e-06
22490.0 8.7427e-06
22510.0 8.6737e-06
22530.0 8.5854e-06
22550.0 8.4779e-06
22570.0 8.3587e-06
22590.0 8.2242e-06
22610.0 8.0696e-06
22630.0 7.9021e-06
22650.0 7.7292e-06
