#lamb flux
1010.0 0.00013483
1030.0 0.00013539
1050.0 0.000136
1070.0 0.00013919
1090.0 0.00014795
1110.0 0.00015477
1130.0 0.00015963
1150.0 0.00016352
1170.0 0.00016637
1190.0 0.0001672
1210.0 0.00016739
1230.0 0.00016733
1250.0 0.00016662
1270.0 0.00016535
1290.0 0.00016452
1310.0 0.00016363
1330.0 0.00016247
1350.0 0.00016167
1370.0 0.00016148
1390.0 0.00016157
1410.0 0.00016208
1430.0 0.00016365
1450.0 0.00016612
1470.0 0.00016941
1490.0 0.000174
1510.0 0.00018033
1530.0 0.00018788
1550.0 0.00019714
1570.0 0.00020864
1590.0 0.00022243
1610.0 0.00023848
1630.0 0.00025773
1650.0 0.00028043
1670.0 0.00030648
1690.0 0.00033643
1710.0 0.00037117
1730.0 0.00041092
1750.0 0.00045538
1770.0 0.00050592
1790.0 0.00056299
1810.0 0.00062628
1830.0 0.0006962
1850.0 0.0007743
1870.0 0.00085937
1890.0 0.00095114
1910.0 0.0010504
1930.0 0.0011572
1950.0 0.0012692
1970.0 0.0013864
1990.0 0.0015093
2010.0 0.0016355
2030.0 0.0017628
2050.0 0.001892
2070.0 0.0020218
2090.0 0.0021475
2110.0 0.0022697
2130.0 0.0023881
2150.0 0.0024997
2170.0 0.0026021
2190.0 0.0026976
2210.0 0.0027843
2230.0 0.0028596
2250.0 0.0029247
2270.0 0.0029817
2290.0 0.0030272
2310.0 0.0030614
2330.0 0.0030877
2350.0 0.003106
2370.0 0.0031149
2390.0 0.0031178
2410.0 0.0031176
2430.0 0.0031125
2450.0 0.0031043
2470.0 0.0030972
2490.0 0.0030929
2510.0 0.00309
2530.0 0.0030975
2550.0 0.0031264
2570.0 0.0031854
2590.0 0.0032865
2610.0 0.0034645
2630.0 0.0037252
2650.0 0.0040544
2670.0 0.0044622
2690.0 0.004944
2710.0 0.0054446
2730.0 0.0059432
2750.0 0.0064669
2770.0 0.006982
2790.0 0.0074752
2810.0 0.0079801
2830.0 0.0085255
2850.0 0.009057
2870.0 0.0096036
2890.0 0.010192
2910.0 0.010803
2930.0 0.011411
2950.0 0.012066
2970.0 0.01276
2990.0 0.013461
3010.0 0.014185
3030.0 0.01496
3050.0 0.015759
3070.0 0.016538
3090.0 0.017333
3110.0 0.018105
3130.0 0.018796
3150.0 0.019387
3170.0 0.019858
3190.0 0.020188
3210.0 0.020424
3230.0 0.02062
3250.0 0.020851
3270.0 0.021203
3290.0 0.021723
3310.0 0.022453
3330.0 0.023373
3350.0 0.024423
3370.0 0.025585
3390.0 0.02678
3410.0 0.027995
3430.0 0.030454
3450.0 0.032273
3470.0 0.033879
3490.0 0.034398
3510.0 0.033947
3530.0 0.038466
3550.0 0.045759
3570.0 0.050309
3590.0 0.05376
3610.0 0.054213
3630.0 0.051425
3650.0 0.055269
3670.0 0.066111
3690.0 0.074288
3710.0 0.077566
3730.0 0.079403
3750.0 0.083534
3770.0 0.083725
3790.0 0.080246
3810.0 0.075527
3830.0 0.070448
3850.0 0.070251
3870.0 0.074543
3890.0 0.078751
3910.0 0.08201
3930.0 0.082995
3950.0 0.088566
3970.0 0.094617
3990.0 0.091153
4010.0 0.081423
4030.0 0.072313
4050.0 0.069611
4070.0 0.072468
4090.0 0.073054
4110.0 0.071003
4130.0 0.070106
4150.0 0.071965
4170.0 0.07944
4190.0 0.086026
4210.0 0.083331
4230.0 0.077784
4250.0 0.074795
4270.0 0.073095
4290.0 0.074393
4310.0 0.076621
4330.0 0.072969
4350.0 0.064189
4370.0 0.056822
4390.0 0.051766
4410.0 0.047787
4430.0 0.047805
4450.0 0.051999
4470.0 0.056227
4490.0 0.061192
4510.0 0.069224
4530.0 0.084686
4550.0 0.10221
4570.0 0.11274
4590.0 0.12056
4610.0 0.12963
4630.0 0.13402
4650.0 0.12484
4670.0 0.10473
4690.0 0.089022
4710.0 0.083625
4730.0 0.080836
4750.0 0.072437
4770.0 0.065727
4790.0 0.06826
4810.0 0.07418
4830.0 0.073861
4850.0 0.068089
4870.0 0.066693
4890.0 0.06958
4910.0 0.072792
4930.0 0.072709
4950.0 0.070695
4970.0 0.06734
4990.0 0.061895
5010.0 0.056847
5030.0 0.05398
5050.0 0.052654
5070.0 0.05176
5090.0 0.050931
5110.0 0.050856
5130.0 0.051639
5150.0 0.05454
5170.0 0.060228
5190.0 0.067136
5210.0 0.074384
5230.0 0.078812
5250.0 0.081116
5270.0 0.085283
5290.0 0.089338
5310.0 0.090312
5330.0 0.086947
5350.0 0.083034
5370.0 0.083044
5390.0 0.087526
5410.0 0.091859
5430.0 0.093361
5450.0 0.092823
5470.0 0.090122
5490.0 0.086802
5510.0 0.08512
5530.0 0.085486
5550.0 0.086763
5570.0 0.087612
5590.0 0.085014
5610.0 0.080164
5630.0 0.075406
5650.0 0.071668
5670.0 0.06938
5690.0 0.066574
5710.0 0.064427
5730.0 0.06537
5750.0 0.065229
5770.0 0.063865
5790.0 0.064428
5810.0 0.065913
5830.0 0.067305
5850.0 0.067803
5870.0 0.066399
5890.0 0.063557
5910.0 0.060308
5930.0 0.055693
5950.0 0.052389
5970.0 0.052311
5990.0 0.053955
6010.0 0.054554
6030.0 0.052626
6050.0 0.051837
6070.0 0.053836
6090.0 0.056503
6110.0 0.057496
6130.0 0.05553
6150.0 0.052294
6170.0 0.050166
6190.0 0.04806
6210.0 0.045809
6230.0 0.044097
6250.0 0.043572
6270.0 0.044699
6290.0 0.046722
6310.0 0.049323
6330.0 0.052178
6350.0 0.054548
6370.0 0.055609
6390.0 0.05572
6410.0 0.056303
6430.0 0.056994
6450.0 0.057185
6470.0 0.057919
6490.0 0.058806
6510.0 0.05905
6530.0 0.058418
6550.0 0.056765
6570.0 0.05468
6590.0 0.053086
6610.0 0.051906
6630.0 0.050872
6650.0 0.049122
6670.0 0.047046
6690.0 0.045494
6710.0 0.044531
6730.0 0.044235
6750.0 0.043693
6770.0 0.042816
6790.0 0.042151
6810.0 0.041621
6830.0 0.041511
6850.0 0.041543
6870.0 0.041222
6890.0 0.040963
6910.0 0.040105
6930.0 0.039169
6950.0 0.038952
6970.0 0.038295
6990.0 0.037101
7010.0 0.036532
7030.0 0.036074
7050.0 0.035262
7070.0 0.0343
7090.0 0.033616
7110.0 0.033969
7130.0 0.035291
7150.0 0.036801
7170.0 0.037774
7190.0 0.037491
7210.0 0.036764
7230.0 0.036287
7250.0 0.035807
7270.0 0.035496
7290.0 0.035038
7310.0 0.034813
7330.0 0.035417
7350.0 0.036111
7370.0 0.03648
7390.0 0.036122
7410.0 0.035239
7430.0 0.034811
7450.0 0.03442
7470.0 0.032745
7490.0 0.031524
7510.0 0.030199
7530.0 0.029222
7550.0 0.029091
7570.0 0.029427
7590.0 0.029247
7610.0 0.02895
7630.0 0.02882
7650.0 0.028695
7670.0 0.029234
7690.0 0.03029
7710.0 0.031541
7730.0 0.03249
7750.0 0.033417
7770.0 0.033874
7790.0 0.03378
7810.0 0.03326
7830.0 0.033605
7850.0 0.033547
7870.0 0.032451
7890.0 0.031275
7910.0 0.030274
7930.0 0.029258
7950.0 0.028547
7970.0 0.028431
7990.0 0.028777
8010.0 0.028454
8030.0 0.028117
8050.0 0.027628
8070.0 0.027091
8090.0 0.026532
8110.0 0.026558
8130.0 0.026754
8150.0 0.026701
8170.0 0.026498
8190.0 0.02594
8210.0 0.02462
8230.0 0.02295
8250.0 0.021919
8270.0 0.021262
8290.0 0.020847
8310.0 0.0209
8330.0 0.021227
8350.0 0.020762
8370.0 0.020273
8390.0 0.020634
8410.0 0.021568
8430.0 0.022939
8450.0 0.024268
8470.0 0.024801
8490.0 0.025217
8510.0 0.025324
8530.0 0.025456
8550.0 0.025745
8570.0 0.025871
8590.0 0.02599
8610.0 0.026698
8630.0 0.026979
8650.0 0.026405
8670.0 0.026382
8690.0 0.026577
8710.0 0.026526
8730.0 0.026292
8750.0 0.025544
8770.0 0.025205
8790.0 0.02501
8810.0 0.024702
8830.0 0.023304
8850.0 0.021437
8870.0 0.020071
8890.0 0.019295
8910.0 0.018153
8930.0 0.016895
8950.0 0.016254
8970.0 0.016165
8990.0 0.016245
9010.0 0.016163
9030.0 0.016049
9050.0 0.015944
9070.0 0.015846
9090.0 0.01575
9110.0 0.015655
9130.0 0.015559
9150.0 0.015464
9170.0 0.01537
9190.0 0.015275
9210.0 0.01518
9230.0 0.015087
9250.0 0.014994
9270.0 0.014901
9290.0 0.014809
9310.0 0.014717
9330.0 0.014625
9350.0 0.014534
9370.0 0.014443
9390.0 0.014353
9410.0 0.014263
9430.0 0.014173
9450.0 0.01408
9470.0 0.013989
9490.0 0.013905
9510.0 0.013818
9530.0 0.013732
9550.0 0.013645
9570.0 0.013559
9590.0 0.013474
9610.0 0.013388
9630.0 0.013303
9650.0 0.013218
9670.0 0.013135
9690.0 0.013051
9710.0 0.012967
9730.0 0.012885
9750.0 0.012803
9770.0 0.01272
9790.0 0.012639
9810.0 0.012558
9830.0 0.012476
9850.0 0.012384
9870.0 0.012307
9890.0 0.012231
9910.0 0.012155
9930.0 0.012076
9950.0 0.012
9970.0 0.011922
9990.0 0.011843
10010.0 0.011754
10030.0 0.011673
10050.0 0.011602
10070.0 0.01153
10090.0 0.011458
10110.0 0.01138
10130.0 0.011286
10150.0 0.011215
10170.0 0.011147
10190.0 0.011074
10210.0 0.011003
10230.0 0.010932
10250.0 0.010857
10270.0 0.010783
10290.0 0.010711
10310.0 0.010636
10330.0 0.01056
10350.0 0.010487
10370.0 0.010414
10390.0 0.010339
10410.0 0.010264
10430.0 0.010193
10450.0 0.010119
10470.0 0.010044
10490.0 0.0099715
10510.0 0.0098994
10530.0 0.0098229
10550.0 0.0097486
10570.0 0.009677
10590.0 0.009603
10610.0 0.0095277
10630.0 0.0094555
10650.0 0.009383
10670.0 0.0093069
10690.0 0.0092325
10710.0 0.00916
10730.0 0.0090851
10750.0 0.0090077
10770.0 0.0089352
10790.0 0.0088616
10810.0 0.0087853
10830.0 0.0087105
10850.0 0.0086381
10870.0 0.0085611
10890.0 0.0084844
10910.0 0.0084111
10930.0 0.0083377
10950.0 0.0082626
10970.0 0.0081907
10990.0 0.008123
11010.0 0.0082842
11030.0 0.0082222
11050.0 0.0081631
11070.0 0.0081035
11090.0 0.0080401
11110.0 0.0079793
11130.0 0.0079189
11150.0 0.0078561
11170.0 0.0077933
11190.0 0.0077339
11210.0 0.0076741
11230.0 0.0076145
11250.0 0.0075587
11270.0 0.0075059
11290.0 0.0074536
11310.0 0.0074038
11330.0 0.0073591
11350.0 0.0073154
11370.0 0.0072729
11390.0 0.0072333
11410.0 0.0071954
11430.0 0.0071562
11450.0 0.0071178
11470.0 0.0070802
11490.0 0.0070409
11510.0 0.0069991
11530.0 0.006957
11550.0 0.006913
11570.0 0.0068649
11590.0 0.0068144
11610.0 0.0067626
11630.0 0.0067061
11650.0 0.0066451
11670.0 0.0065841
11690.0 0.0065206
11710.0 0.006453
11730.0 0.0063844
11750.0 0.006317
11770.0 0.0062463
11790.0 0.0061743
11810.0 0.0061044
11830.0 0.0060348
11850.0 0.0059624
11870.0 0.0058927
11890.0 0.0058262
11910.0 0.0057591
11930.0 0.0056927
11950.0 0.0056303
11970.0 0.0055692
11990.0 0.0055077
12010.0 0.0054499
12030.0 0.0053954
12050.0 0.0053417
12070.0 0.0052897
12090.0 0.0052429
12110.0 0.0051982
12130.0 0.0051553
12150.0 0.0051164
12170.0 0.0050814
12190.0 0.0050483
12210.0 0.0050193
12230.0 0.0049949
12250.0 0.004974
12270.0 0.0049569
12290.0 0.0049441
12310.0 0.0049349
12330.0 0.0049293
12350.0 0.0049269
12370.0 0.004927
12390.0 0.0049295
12410.0 0.0049344
12430.0 0.0049397
12450.0 0.0049452
12470.0 0.0049511
12490.0 0.0049562
12510.0 0.0049592
12530.0 0.0049607
12550.0 0.0049597
12570.0 0.0049553
12590.0 0.0049474
12610.0 0.0049355
12630.0 0.0049192
12650.0 0.0048991
12670.0 0.0048744
12690.0 0.004845
12710.0 0.0048123
12730.0 0.0047764
12750.0 0.0047354
12770.0 0.0046921
12790.0 0.0046476
12810.0 0.0046003
12830.0 0.0045506
12850.0 0.0045018
12870.0 0.0044528
12890.0 0.0044021
12910.0 0.004352
12930.0 0.0043036
12950.0 0.0042541
12970.0 0.0042043
12990.0 0.0041571
13010.0 0.0041106
13030.0 0.0040634
13050.0 0.0040177
13070.0 0.0039742
13090.0 0.0039302
13110.0 0.003887
13130.0 0.0038462
13150.0 0.0038068
13170.0 0.0037672
13190.0 0.0037305
13210.0 0.0036964
13230.0 0.0036631
13250.0 0.0036314
13270.0 0.0036025
13290.0 0.0035747
13310.0 0.0035476
13330.0 0.0035223
13350.0 0.0034983
13370.0 0.0034744
13390.0 0.0034506
13410.0 0.0034281
13430.0 0.0034053
13450.0 0.0033818
13470.0 0.0033584
13490.0 0.0033352
13510.0 0.0033104
13530.0 0.0032853
13550.0 0.0032606
13570.0 0.0032352
13590.0 0.0032088
13610.0 0.0031827
13630.0 0.0031571
13650.0 0.0031304
13670.0 0.0031036
13690.0 0.0030777
13710.0 0.0030514
13730.0 0.003024
13750.0 0.0029979
13770.0 0.002972
13790.0 0.0029453
13810.0 0.0029187
13830.0 0.002893
13850.0 0.0028665
13870.0 0.0028393
13890.0 0.0028128
13910.0 0.0027863
13930.0 0.0027587
13950.0 0.002731
13970.0 0.0027046
13990.0 0.0026772
14010.0 0.0026492
14030.0 0.002622
14050.0 0.0025949
14070.0 0.0025663
14090.0 0.0025384
14110.0 0.0025114
14130.0 0.0024839
14150.0 0.0024562
14170.0 0.0024303
14190.0 0.002405
14210.0 0.0023795
14230.0 0.0023554
14250.0 0.0023331
14270.0 0.0023109
14290.0 0.0022897
14310.0 0.0022707
14330.0 0.0022528
14350.0 0.0022355
14370.0 0.0022197
14390.0 0.0022055
14410.0 0.0021915
14430.0 0.0021783
14450.0 0.0021663
14470.0 0.0021549
14490.0 0.0021434
14510.0 0.0021328
14530.0 0.0021229
14550.0 0.002113
14570.0 0.0021032
14590.0 0.0020941
14610.0 0.002085
14630.0 0.0020757
14650.0 0.0020671
14670.0 0.0020588
14690.0 0.0020507
14710.0 0.0020429
14730.0 0.0020364
14750.0 0.0020305
14770.0 0.0020256
14790.0 0.0020221
14810.0 0.0020202
14830.0 0.00202
14850.0 0.0020218
14870.0 0.0020258
14890.0 0.0020318
14910.0 0.0020399
14930.0 0.0020492
14950.0 0.0020592
14970.0 0.0020696
14990.0 0.0020793
15010.0 0.0020877
15030.0 0.0020946
15050.0 0.0021
15070.0 0.0021038
15090.0 0.0021066
15110.0 0.0021085
15130.0 0.00211
15150.0 0.0021114
15170.0 0.0021126
15190.0 0.0021137
15210.0 0.002115
15230.0 0.0021163
15250.0 0.0021176
15270.0 0.002119
15290.0 0.0021206
15310.0 0.0021221
15330.0 0.0021237
15350.0 0.0021254
15370.0 0.0021273
15390.0 0.002129
15410.0 0.0021309
15430.0 0.0021329
15450.0 0.0021349
15470.0 0.0021369
15490.0 0.0021391
15510.0 0.0021413
15530.0 0.0021435
15550.0 0.0021458
15570.0 0.0021483
15590.0 0.0021507
15610.0 0.0021531
15630.0 0.0021557
15650.0 0.0021583
15670.0 0.0021609
15690.0 0.0021636
15710.0 0.0021664
15730.0 0.0021692
15750.0 0.002172
15770.0 0.0021749
15790.0 0.0021779
15810.0 0.0021807
15830.0 0.0021838
15850.0 0.0021869
15870.0 0.00219
15890.0 0.0021931
15910.0 0.0021964
15930.0 0.0021996
15950.0 0.0022028
15970.0 0.0022061
15990.0 0.0022095
16010.0 0.0022128
16030.0 0.0022162
16050.0 0.0022197
16070.0 0.0022232
16090.0 0.0022266
16110.0 0.0022302
16130.0 0.0022338
16150.0 0.0022373
16170.0 0.0022408
16190.0 0.0022445
16210.0 0.0022481
16230.0 0.0022517
16250.0 0.0022554
16270.0 0.0022592
16290.0 0.0022628
16310.0 0.0022665
16330.0 0.0022703
16350.0 0.0022741
16370.0 0.0022777
16390.0 0.0022815
16410.0 0.0022853
16430.0 0.0022891
16450.0 0.0022928
16470.0 0.0022967
16490.0 0.0023004
16510.0 0.0023041
16530.0 0.0023079
16550.0 0.0023117
16570.0 0.0023154
16590.0 0.0023191
16610.0 0.002323
16630.0 0.0023267
16650.0 0.0023304
16670.0 0.0023341
16690.0 0.0023379
16710.0 0.0023414
16730.0 0.0023451
16750.0 0.0023488
16770.0 0.0023524
16790.0 0.0023559
16810.0 0.0023595
16830.0 0.0023631
16850.0 0.0023665
16870.0 0.00237
16890.0 0.0023735
16910.0 0.0023769
16930.0 0.0023801
16950.0 0.0023835
16970.0 0.0023869
16990.0 0.0023901
17010.0 0.0023933
17030.0 0.0023965
17050.0 0.0023996
17070.0 0.0024026
17090.0 0.0024057
17110.0 0.0024087
17130.0 0.0024115
17150.0 0.0024144
17170.0 0.0024173
17190.0 0.00242
17210.0 0.0024227
17230.0 0.0024254
17250.0 0.0024279
17270.0 0.0024304
17290.0 0.0024328
17310.0 0.0024352
17330.0 0.0024375
17350.0 0.0024397
17370.0 0.0024419
17390.0 0.002444
17410.0 0.002446
17430.0 0.0024479
17450.0 0.0024499
17470.0 0.0024516
17490.0 0.0024532
17510.0 0.0024549
17530.0 0.0024564
17550.0 0.0024578
17570.0 0.0024592
17590.0 0.0024606
17610.0 0.0024617
17630.0 0.0024628
17650.0 0.0024638
17670.0 0.0024647
17690.0 0.0024654
17710.0 0.0024662
17730.0 0.0024669
17750.0 0.0024673
17770.0 0.0024677
17790.0 0.0024682
17810.0 0.0024684
17830.0 0.0024684
17850.0 0.0024685
17870.0 0.0024684
17890.0 0.0024681
17910.0 0.0024678
17930.0 0.0024675
17950.0 0.0024669
17970.0 0.0024663
17990.0 0.0024656
18010.0 0.0024648
18030.0 0.0024637
18050.0 0.0024626
18070.0 0.0024615
18090.0 0.0024602
18110.0 0.0024587
18130.0 0.0024572
18150.0 0.0024556
18170.0 0.0024538
18190.0 0.0024519
18210.0 0.00245
18230.0 0.0024478
18250.0 0.0024455
18270.0 0.0024432
18290.0 0.0024407
18310.0 0.0024381
18330.0 0.0024354
18350.0 0.0024326
18370.0 0.0024296
18390.0 0.0024265
18410.0 0.0024233
18430.0 0.00242
18450.0 0.0024165
18470.0 0.0024129
18490.0 0.0024093
18510.0 0.0024055
18530.0 0.0024015
18550.0 0.0023976
18570.0 0.0023934
18590.0 0.002389
18610.0 0.0023847
18630.0 0.0023802
18650.0 0.0023755
18670.0 0.0023707
18690.0 0.0023659
18710.0 0.0023609
18730.0 0.0023557
18750.0 0.0023505
18770.0 0.0023452
18790.0 0.0023396
18810.0 0.002334
18830.0 0.0023284
18850.0 0.0023226
18870.0 0.0023166
18890.0 0.0023106
18910.0 0.0023045
18930.0 0.0022982
18950.0 0.0022918
18970.0 0.0022854
18990.0 0.0022788
19010.0 0.0022719
19030.0 0.0022652
19050.0 0.0022583
19070.0 0.0022513
19090.0 0.0022441
19110.0 0.002237
19130.0 0.0022296
19150.0 0.0022221
19170.0 0.0022147
19190.0 0.0022071
19210.0 0.0021993
19230.0 0.0021914
19250.0 0.0021836
19270.0 0.0021756
19290.0 0.0021674
19310.0 0.0021593
19330.0 0.0021511
19350.0 0.0021426
19370.0 0.0021341
19390.0 0.0021257
19410.0 0.002117
19430.0 0.0021082
19450.0 0.0020995
19470.0 0.0020907
19490.0 0.0020817
19510.0 0.0020727
19530.0 0.0020637
19550.0 0.0020544
19570.0 0.0020451
19590.0 0.0020359
19610.0 0.0020265
19630.0 0.002017
19650.0 0.0020075
19670.0 0.001998
19690.0 0.0019883
19710.0 0.0019786
19730.0 0.0019689
19750.0 0.0019591
19770.0 0.0019491
19790.0 0.0019392
19810.0 0.0019293
19830.0 0.0019192
19850.0 0.001909
19870.0 0.0018987
19890.0 0.0018881
19910.0 0.0018769
19930.0 0.001865
19950.0 0.001852
19970.0 0.0018372
19990.0 0.0018204
20010.0 0.0018018
20030.0 0.0017806
20050.0 0.0017568
20070.0 0.0017317
20090.0 0.0017054
20110.0 0.0016769
20130.0 0.0016484
20150.0 0.0016204
20170.0 0.0015919
20190.0 0.0015634
20210.0 0.0015362
20230.0 0.0015095
20250.0 0.0014827
20270.0 0.0014572
20290.0 0.001433
20310.0 0.0014093
20330.0 0.0013861
20350.0 0.0013651
20370.0 0.0013449
20390.0 0.0013253
20410.0 0.0013072
20430.0 0.0012904
20450.0 0.0012741
20470.0 0.001259
20490.0 0.0012451
20510.0 0.0012321
20530.0 0.0012199
20550.0 0.0012086
20570.0 0.0011982
20590.0 0.0011884
20610.0 0.0011792
20630.0 0.0011707
20650.0 0.0011627
20670.0 0.001155
20690.0 0.0011477
20710.0 0.0011407
20730.0 0.0011339
20750.0 0.0011271
20770.0 0.0011203
20790.0 0.0011134
20810.0 0.0011064
20830.0 0.0010991
20850.0 0.0010916
20870.0 0.0010836
20890.0 0.0010752
20910.0 0.0010664
20930.0 0.0010571
20950.0 0.0010473
20970.0 0.0010371
20990.0 0.0010265
21010.0 0.0010152
21030.0 0.0010035
21050.0 0.00099162
21070.0 0.00097929
21090.0 0.00096644
21110.0 0.00095366
21130.0 0.00094078
21150.0 0.00092753
21170.0 0.00091427
21190.0 0.00090127
21210.0 0.00088805
21230.0 0.00087476
21250.0 0.00086193
21270.0 0.0008493
21290.0 0.00083665
21310.0 0.00082433
21330.0 0.00081258
21350.0 0.00080088
21370.0 0.00078942
21390.0 0.00077846
21410.0 0.00076783
21430.0 0.0007572
21450.0 0.00074706
21470.0 0.00073734
21490.0 0.00072774
21510.0 0.00071833
21530.0 0.00070934
21550.0 0.00070051
21570.0 0.00069173
21590.0 0.00068322
21610.0 0.00067494
21630.0 0.00066671
21650.0 0.00065851
21670.0 0.00065066
21690.0 0.00064286
21710.0 0.00063506
21730.0 0.00062742
21750.0 0.00061995
21770.0 0.00061237
21790.0 0.00060487
21810.0 0.00059752
21830.0 0.00059018
21850.0 0.00058275
21870.0 0.00057543
21890.0 0.00056821
21910.0 0.00056087
21930.0 0.00055351
21950.0 0.00054627
21970.0 0.00053897
21990.0 0.0005315
22010.0 0.00052419
22030.0 0.00051693
22050.0 0.00050957
22070.0 0.00050223
22090.0 0.00049509
22110.0 0.00048791
22130.0 0.00048071
22150.0 0.00047369
22170.0 0.0004668
22190.0 0.00045986
22210.0 0.00045305
22230.0 0.00044652
22250.0 0.00044004
22270.0 0.00043361
22290.0 0.00042741
22310.0 0.00042136
22330.0 0.00041529
22350.0 0.00040938
22370.0 0.00040365
22390.0 0.00039796
22410.0 0.00039227
22430.0 0.00038678
22450.0 0.00038136
22470.0 0.00037589
22490.0 0.0003705
22510.0 0.00036522
22530.0 0.00035987
22550.0 0.00035449
22570.0 0.00034925
22590.0 0.00034403
22610.0 0.00033874
22630.0 0.00033353
22650.0 0.00032847
22670.0 0.00032336
22690.0 0.00031829
22710.0 0.00031339
22730.0 0.00030859
22750.0 0.00030375
22770.0 0.00029913
22790.0 0.00029471
22810.0 0.00029037
22830.0 0.00028617
22850.0 0.00028224
22870.0 0.00027847
22890.0 0.00027486
22910.0 0.00027151
22930.0 0.00026842
22950.0 0.00026554
22970.0 0.00026292
22990.0 0.00026058
23010.0 0.00025847
23030.0 0.00025661
23050.0 0.00025497
23070.0 0.00025351
23090.0 0.00025226
23110.0 0.00025114
23130.0 0.00025009
23150.0 0.00024911
23170.0 0.00024819
23190.0 0.00024724
23210.0 0.00024623
23230.0 0.00024521
23250.0 0.00024412
23270.0 0.00024292
23290.0 0.00024165
23310.0 0.00024031
23330.0 0.00023886
23350.0 0.00023732
23370.0 0.00023572
23390.0 0.00023404
23410.0 0.00023229
23430.0 0.0002305
23450.0 0.00022867
23470.0 0.00022682
23490.0 0.00022495
23510.0 0.00022305
23530.0 0.00022117
23550.0 0.00021931
23570.0 0.00021748
23590.0 0.0002157
23610.0 0.000214
23630.0 0.00021239
23650.0 0.00021092
23670.0 0.00020962
23690.0 0.00020853
23710.0 0.0002077
23730.0 0.00020719
23750.0 0.00020696
23770.0 0.00020705
23790.0 0.00020756
23810.0 0.00020839
23830.0 0.00020947
23850.0 0.00021096
23870.0 0.00021279
23890.0 0.00021468
23910.0 0.00021676
23930.0 0.00021907
23950.0 0.00022138
23970.0 0.00022355
23990.0 0.00022582
24010.0 0.00022803
24030.0 0.00022996
24050.0 0.00023173
