#lamb flux
1010.0 1.2299e-07
1030.0 1.2817e-07
1050.0 1.3417e-07
1070.0 1.4094e-07
1090.0 1.4864e-07
1110.0 1.5657e-07
1130.0 1.6459e-07
1150.0 1.7303e-07
1170.0 1.8177e-07
1190.0 1.9013e-07
1210.0 1.9865e-07
1230.0 2.075e-07
1250.0 2.1625e-07
1270.0 2.2483e-07
1290.0 2.3394e-07
1310.0 2.4312e-07
1330.0 2.5203e-07
1350.0 2.6111e-07
1370.0 2.7057e-07
1390.0 2.7989e-07
1410.0 2.8906e-07
1430.0 2.987e-07
1450.0 3.0845e-07
1470.0 3.1799e-07
1490.0 3.2773e-07
1510.0 3.3805e-07
1530.0 3.4797e-07
1550.0 3.5785e-07
1570.0 3.6811e-07
1590.0 3.7843e-07
1610.0 3.884e-07
1630.0 3.9867e-07
1650.0 4.092e-07
1670.0 4.1943e-07
1690.0 4.2952e-07
1710.0 4.3992e-07
1730.0 4.5032e-07
1750.0 4.6007e-07
1770.0 4.6998e-07
1790.0 4.7996e-07
1810.0 4.8949e-07
1830.0 4.9869e-07
1850.0 5.0827e-07
1870.0 5.174e-07
1890.0 5.2601e-07
1910.0 5.3458e-07
1930.0 5.4314e-07
1950.0 5.5105e-07
1970.0 5.5863e-07
1990.0 5.6632e-07
2010.0 5.7365e-07
2030.0 5.8048e-07
2050.0 5.8741e-07
2070.0 5.9442e-07
2090.0 6.0082e-07
2110.0 6.0713e-07
2130.0 6.1369e-07
2150.0 6.2012e-07
2170.0 6.2626e-07
2190.0 6.3287e-07
2210.0 6.3973e-07
2230.0 6.4653e-07
2250.0 6.5362e-07
2270.0 6.6148e-07
2290.0 6.6955e-07
2310.0 6.7781e-07
2330.0 6.8693e-07
2350.0 6.9681e-07
2370.0 7.0708e-07
2390.0 7.1826e-07
2410.0 7.3072e-07
2430.0 7.4385e-07
2450.0 7.577e-07
2470.0 7.7261e-07
2490.0 7.8833e-07
2510.0 8.0437e-07
2530.0 8.2206e-07
2550.0 8.4362e-07
2570.0 8.7227e-07
2590.0 9.1262e-07
2610.0 9.7494e-07
2630.0 1.0654e-06
2650.0 1.1839e-06
2670.0 1.3349e-06
2690.0 1.5182e-06
2710.0 1.7165e-06
2730.0 1.9196e-06
2750.0 2.1313e-06
2770.0 2.3374e-06
2790.0 2.5323e-06
2810.0 2.7249e-06
2830.0 2.9233e-06
2850.0 3.1175e-06
2870.0 3.3169e-06
2890.0 3.5294e-06
2910.0 3.7513e-06
2930.0 3.9769e-06
2950.0 4.2171e-06
2970.0 4.4706e-06
2990.0 4.728e-06
3010.0 8.497e-06
3030.0 8.9683e-06
3050.0 9.4425e-06
3070.0 9.8863e-06
3090.0 1.0288e-05
3110.0 1.0575e-05
3130.0 1.0652e-05
3150.0 1.0418e-05
3170.0 9.6696e-06
3190.0 8.3659e-06
3210.0 6.5141e-06
3230.0 4.395e-06
3250.0 6.3825e-06
3270.0 3.2252e-06
3290.0 8.0949e-06
3310.0 2.2542e-06
3330.0 2.3737e-06
3350.0 3.2615e-06
3370.0 4.2555e-06
3390.0 5.3012e-06
3410.0 6.342e-06
3430.0 7.4245e-06
3450.0 8.5018e-06
3470.0 9.4942e-06
3490.0 1.0152e-05
3510.0 1.2288e-05
3530.0 1.6382e-05
3550.0 1.6895e-05
3570.0 1.5354e-05
3590.0 2.1277e-05
3610.0 1.532e-05
3630.0 2.2141e-05
3650.0 2.4291e-05
3670.0 3.0253e-05
3690.0 2.9751e-05
3710.0 2.3416e-05
3730.0 3.0193e-05
3750.0 3.1445e-05
3770.0 3.2143e-05
3790.0 2.9254e-05
3810.0 2.5335e-05
3830.0 3.151e-05
3850.0 3.2068e-05
3870.0 3.9078e-05
3890.0 3.7803e-05
3910.0 3.6182e-05
3930.0 4.0166e-05
3950.0 4.5124e-05
3970.0 5.8483e-05
3990.0 5.0662e-05
4010.0 3.7519e-05
4030.0 4.5887e-05
4050.0 4.7276e-05
4070.0 5.2257e-05
4090.0 4.7855e-05
4110.0 3.5526e-05
4130.0 4.3788e-05
4150.0 4.0254e-05
4170.0 4.2661e-05
4190.0 4.2681e-05
4210.0 5.0776e-05
4230.0 3.7912e-05
4250.0 4.4624e-05
4270.0 4.4591e-05
4290.0 4.5283e-05
4310.0 5.3338e-05
4330.0 5.4855e-05
4350.0 4.4975e-05
4370.0 4.043e-05
4390.0 4.5998e-05
4410.0 4.5334e-05
4430.0 3.5812e-05
4450.0 3.5683e-05
4470.0 4.0113e-05
4490.0 3.1833e-05
4510.0 3.7549e-05
4530.0 4.0872e-05
4550.0 5.3784e-05
4570.0 7.7094e-05
4590.0 7.8415e-05
4610.0 5.9244e-05
4630.0 8.5488e-05
4650.0 0.00011558
4670.0 0.00010857
4690.0 7.1172e-05
4710.0 7.3685e-05
4730.0 8.8021e-05
4750.0 7.7957e-05
4770.0 6.0307e-05
4790.0 4.4417e-05
4810.0 6.0315e-05
4830.0 6.8855e-05
4850.0 6.4855e-05
4870.0 3.2564e-05
4890.0 6.9666e-05
4910.0 9.1121e-05
4930.0 9.7841e-05
4950.0 9.9689e-05
4970.0 7.2199e-05
4990.0 8.0546e-05
5010.0 8.7583e-05
5030.0 8.9357e-05
5050.0 8.5101e-05
5070.0 6.284e-05
5090.0 5.2662e-05
5110.0 4.9633e-05
5130.0 4.5031e-05
5150.0 5.0898e-05
5170.0 4.5391e-05
5190.0 5.4321e-05
5210.0 5.4552e-05
5230.0 5.9744e-05
5250.0 7.5429e-05
5270.0 6.8396e-05
5290.0 6.9072e-05
5310.0 9.5046e-05
5330.0 0.00010922
5350.0 9.7292e-05
5370.0 8.8483e-05
5390.0 9.6884e-05
5410.0 0.00011591
5430.0 0.00012667
5450.0 0.00013807
5470.0 0.00014469
5490.0 0.00014764
5510.0 0.00017127
5530.0 0.00017835
5550.0 0.00018878
5570.0 0.00019779
5590.0 0.00019683
5610.0 0.00018984
5630.0 0.00018588
5650.0 0.00018985
5670.0 0.00018937
5690.0 0.00016648
5710.0 0.00015852
5730.0 0.00015707
5750.0 0.00016776
5770.0 0.00014942
5790.0 0.00014071
5810.0 0.00014487
5830.0 0.00015238
5850.0 0.00014225
5870.0 0.00014228
5890.0 0.00016345
5910.0 0.00015804
5930.0 0.00013605
5950.0 0.00012226
5970.0 0.00012795
5990.0 0.00011797
6010.0 0.00010996
6030.0 0.00011038
6050.0 0.00010439
6070.0 8.3417e-05
6090.0 7.6709e-05
6110.0 9.3325e-05
6130.0 0.00010479
6150.0 0.0001106
6170.0 0.00011082
6190.0 0.00010822
6210.0 0.00010739
6230.0 0.00011954
6250.0 0.00011042
6270.0 0.00010034
6290.0 9.0876e-05
6310.0 8.485e-05
6330.0 8.0418e-05
6350.0 7.1882e-05
6370.0 7.2182e-05
6390.0 8.4648e-05
6410.0 0.00010389
6430.0 0.00011991
6450.0 0.00011737
6470.0 0.00011814
6490.0 0.0001419
6510.0 0.00015825
6530.0 0.00015144
6550.0 0.00014744
6570.0 0.00014954
6590.0 0.00014526
6610.0 0.00015544
6630.0 0.0001479
6650.0 0.00013421
6670.0 0.00012212
6690.0 0.00011632
6710.0 0.00013481
6730.0 0.0001251
6750.0 0.00011182
6770.0 0.00010416
6790.0 0.00010868
6810.0 0.00011731
6830.0 0.00011445
6850.0 0.00010571
6870.0 0.0001074
6890.0 0.00010458
6910.0 9.8993e-05
6930.0 0.00011087
6950.0 0.0001049
6970.0 0.00010098
6990.0 0.00010195
7010.0 9.8045e-05
7030.0 9.204e-05
7050.0 8.7127e-05
7070.0 8.9925e-05
7090.0 8.4123e-05
7110.0 7.4285e-05
7130.0 6.2278e-05
7150.0 5.7104e-05
7170.0 7.1568e-05
7190.0 7.714e-05
7210.0 7.6168e-05
7230.0 8.0361e-05
7250.0 7.7237e-05
7270.0 7.4885e-05
7290.0 8.0519e-05
7310.0 8.6552e-05
7330.0 8.4135e-05
7350.0 7.9558e-05
7370.0 7.7225e-05
7390.0 8.1349e-05
7410.0 9.3797e-05
7430.0 0.00010273
7450.0 0.00011086
7470.0 0.00011136
7490.0 0.0001137
7510.0 0.00010853
7530.0 0.00010704
7550.0 0.0001028
7570.0 8.9784e-05
7590.0 8.7686e-05
7610.0 8.5499e-05
7630.0 8.1816e-05
7650.0 9.0331e-05
7670.0 9.8626e-05
7690.0 0.00010687
7710.0 0.00011753
7730.0 0.00012478
7750.0 0.00013003
7770.0 0.00012966
7790.0 0.00013927
7810.0 0.00014326
7830.0 0.00013469
7850.0 0.00013506
7870.0 0.00012843
7890.0 0.00013158
7910.0 0.00012424
7930.0 0.00012393
7950.0 0.00011217
7970.0 0.0001144
7990.0 0.00011009
8010.0 0.00010838
8030.0 0.00010775
8050.0 0.00011196
8070.0 0.00010823
8090.0 0.00010809
8110.0 0.00010463
8130.0 0.0001041
8150.0 9.9772e-05
8170.0 9.665e-05
8190.0 9.5088e-05
8210.0 9.5469e-05
8230.0 8.5815e-05
8250.0 7.8652e-05
8270.0 6.8601e-05
8290.0 5.6338e-05
8310.0 4.6878e-05
8330.0 3.7012e-05
8350.0 3.1396e-05
8370.0 3.2939e-05
8390.0 3.4641e-05
8410.0 3.7126e-05
8430.0 4.4107e-05
8450.0 4.6835e-05
8470.0 4.9126e-05
8490.0 5.5544e-05
8510.0 6.0574e-05
8530.0 6.9744e-05
8550.0 8.2154e-05
8570.0 9.1904e-05
8590.0 9.9071e-05
8610.0 0.00010742
8630.0 0.00011635
8650.0 0.00011766
8670.0 0.00011822
8690.0 0.00012213
8710.0 0.00012117
8730.0 0.00012051
8750.0 0.00011483
8770.0 0.00011454
8790.0 0.00011254
8810.0 0.00010383
8830.0 0.00010275
8850.0 9.6533e-05
8870.0 9.2486e-05
8890.0 8.5385e-05
8910.0 8.9958e-05
8930.0 8.2768e-05
8950.0 8.0686e-05
8970.0 8.0207e-05
8990.0 7.746e-05
9010.0 7.8006e-05
9030.0 7.5201e-05
9050.0 7.4782e-05
9070.0 7.4655e-05
9090.0 7.4517e-05
9110.0 7.44e-05
9130.0 7.424e-05
9150.0 7.4062e-05
9170.0 7.3726e-05
9190.0 7.3145e-05
9210.0 7.3844e-05
9230.0 7.3451e-05
9250.0 7.3156e-05
9270.0 7.2877e-05
9290.0 7.2605e-05
9310.0 7.2341e-05
9330.0 7.2076e-05
9350.0 7.1807e-05
9370.0 7.1534e-05
9390.0 7.1257e-05
9410.0 7.0972e-05
9430.0 7.068e-05
9450.0 7.0377e-05
9470.0 7.0071e-05
9490.0 6.9772e-05
9510.0 6.9466e-05
9530.0 6.9156e-05
9550.0 6.8839e-05
9570.0 6.8518e-05
9590.0 6.8196e-05
9610.0 6.787e-05
9630.0 6.7541e-05
9650.0 6.721e-05
9670.0 6.6879e-05
9690.0 6.6546e-05
9710.0 6.6211e-05
9730.0 6.5877e-05
9750.0 6.5542e-05
9770.0 6.5206e-05
9790.0 6.4871e-05
9810.0 6.4537e-05
9830.0 6.4203e-05
9850.0 6.387e-05
9870.0 6.3538e-05
9890.0 6.3207e-05
9910.0 6.2878e-05
9930.0 6.2547e-05
9950.0 6.1993e-05
9970.0 6.1737e-05
9990.0 6.1472e-05
10010.0 6.1202e-05
10030.0 6.0915e-05
10050.0 6.0606e-05
10070.0 6.0252e-05
10090.0 5.9976e-05
10110.0 5.9685e-05
10130.0 5.9399e-05
10150.0 5.9115e-05
10170.0 5.8824e-05
10190.0 5.8525e-05
10210.0 5.8242e-05
10230.0 5.7966e-05
10250.0 5.7683e-05
10270.0 5.7405e-05
10290.0 5.7141e-05
10310.0 5.6872e-05
10330.0 5.6598e-05
10350.0 5.6341e-05
10370.0 5.6089e-05
10390.0 5.5831e-05
10410.0 5.5579e-05
10430.0 5.5343e-05
10450.0 5.5102e-05
10470.0 5.4859e-05
10490.0 5.463e-05
10510.0 5.4406e-05
10530.0 5.4171e-05
10550.0 5.3947e-05
10570.0 5.3736e-05
10590.0 5.3521e-05
10610.0 5.3306e-05
10630.0 5.3105e-05
10650.0 5.2906e-05
10670.0 5.27e-05
10690.0 5.2503e-05
10710.0 5.2317e-05
10730.0 5.2126e-05
10750.0 5.1931e-05
10770.0 5.1756e-05
10790.0 5.158e-05
10810.0 5.1399e-05
10830.0 5.1226e-05
10850.0 5.1061e-05
10870.0 5.0877e-05
10890.0 5.0683e-05
10910.0 5.048e-05
10930.0 5.0239e-05
10950.0 4.9928e-05
10970.0 4.9547e-05
10990.0 4.9092e-05
11010.0 4.7437e-05
11030.0 4.6797e-05
11050.0 4.6074e-05
11070.0 4.5257e-05
11090.0 4.4318e-05
11110.0 4.3389e-05
11130.0 4.2457e-05
11150.0 4.149e-05
11170.0 4.0532e-05
11190.0 3.9639e-05
11210.0 3.8746e-05
11230.0 3.7859e-05
11250.0 3.7036e-05
11270.0 3.6263e-05
11290.0 3.5498e-05
11310.0 3.4778e-05
11330.0 3.4147e-05
11350.0 3.3542e-05
11370.0 3.2967e-05
11390.0 3.2453e-05
11410.0 3.1982e-05
11430.0 3.1509e-05
11450.0 3.1069e-05
11470.0 3.0659e-05
11490.0 3.0244e-05
11510.0 2.9809e-05
11530.0 2.9387e-05
11550.0 2.8954e-05
11570.0 2.8477e-05
11590.0 2.798e-05
11610.0 2.7477e-05
11630.0 2.6923e-05
11650.0 2.6324e-05
11670.0 2.5735e-05
11690.0 2.513e-05
11710.0 2.4487e-05
11730.0 2.3849e-05
11750.0 2.3244e-05
11770.0 2.262e-05
11790.0 2.2005e-05
11810.0 2.1436e-05
11830.0 2.0895e-05
11850.0 2.0351e-05
11870.0 1.9861e-05
11890.0 1.9422e-05
11910.0 1.8997e-05
11930.0 1.8598e-05
11950.0 1.8246e-05
11970.0 1.7914e-05
11990.0 1.7587e-05
12010.0 1.7291e-05
12030.0 1.7019e-05
12050.0 1.6751e-05
12070.0 1.6489e-05
12090.0 1.6261e-05
12110.0 1.604e-05
12130.0 1.5824e-05
12150.0 1.5631e-05
12170.0 1.5464e-05
12190.0 1.5303e-05
12210.0 1.5172e-05
12230.0 1.508e-05
12250.0 1.5021e-05
12270.0 1.4999e-05
12290.0 1.5027e-05
12310.0 1.5103e-05
12330.0 1.5229e-05
12350.0 1.5409e-05
12370.0 1.5636e-05
12390.0 1.5911e-05
12410.0 1.6243e-05
12430.0 1.66e-05
12450.0 1.6982e-05
12470.0 1.7394e-05
12490.0 1.7819e-05
12510.0 1.8233e-05
12530.0 1.8651e-05
12550.0 1.9064e-05
12570.0 1.9448e-05
12590.0 1.9805e-05
12610.0 2.0145e-05
12630.0 2.0451e-05
12650.0 2.0715e-05
12670.0 2.0951e-05
12690.0 2.1155e-05
12710.0 2.1324e-05
12730.0 2.1462e-05
12750.0 2.157e-05
12770.0 2.1647e-05
12790.0 2.1698e-05
12810.0 2.1721e-05
12830.0 2.1715e-05
12850.0 2.1689e-05
12870.0 2.1642e-05
12890.0 2.1566e-05
12910.0 2.147e-05
12930.0 2.1361e-05
12950.0 2.1222e-05
12970.0 2.1057e-05
12990.0 2.0886e-05
13010.0 2.0695e-05
13030.0 2.0476e-05
13050.0 2.0245e-05
13070.0 2.001e-05
13090.0 1.9749e-05
13110.0 1.9474e-05
13130.0 1.9204e-05
13150.0 1.8931e-05
13170.0 1.8644e-05
13190.0 1.8378e-05
13210.0 1.8137e-05
13230.0 1.7908e-05
13250.0 1.7705e-05
13270.0 1.7543e-05
13290.0 1.7414e-05
13310.0 1.7316e-05
13330.0 1.7263e-05
13350.0 1.7246e-05
13370.0 1.7258e-05
13390.0 1.7297e-05
13410.0 1.7353e-05
13430.0 1.7417e-05
13450.0 1.748e-05
13470.0 1.753e-05
13490.0 1.7562e-05
13510.0 1.7565e-05
13530.0 1.7534e-05
13550.0 1.747e-05
13570.0 1.7369e-05
13590.0 1.7226e-05
13610.0 1.7057e-05
13630.0 1.6868e-05
13650.0 1.6648e-05
13670.0 1.6416e-05
13690.0 1.6184e-05
13710.0 1.5946e-05
13730.0 1.57e-05
13750.0 1.5476e-05
13770.0 1.5264e-05
13790.0 1.5057e-05
13810.0 1.4864e-05
13830.0 1.4691e-05
13850.0 1.4523e-05
13870.0 1.4363e-05
13890.0 1.4216e-05
13910.0 1.4078e-05
13930.0 1.394e-05
13950.0 1.3807e-05
13970.0 1.3685e-05
13990.0 1.3564e-05
14010.0 1.3445e-05
14030.0 1.3335e-05
14050.0 1.3231e-05
14070.0 1.3129e-05
14090.0 1.3037e-05
14110.0 1.2956e-05
14130.0 1.2881e-05
14150.0 1.2815e-05
14170.0 1.2761e-05
14190.0 1.2717e-05
14210.0 1.2681e-05
14230.0 1.2656e-05
14250.0 1.264e-05
14270.0 1.2635e-05
14290.0 1.264e-05
14310.0 1.2653e-05
14330.0 1.2675e-05
14350.0 1.2705e-05
14370.0 1.2742e-05
14390.0 1.278e-05
14410.0 1.2824e-05
14430.0 1.287e-05
14450.0 1.2912e-05
14470.0 1.2951e-05
14490.0 1.2989e-05
14510.0 1.3019e-05
14530.0 1.3041e-05
14550.0 1.306e-05
14570.0 1.3074e-05
14590.0 1.3082e-05
14610.0 1.309e-05
14630.0 1.3103e-05
14650.0 1.3117e-05
14670.0 1.3139e-05
14690.0 1.3173e-05
14710.0 1.3224e-05
14730.0 1.3284e-05
14750.0 1.3365e-05
14770.0 1.347e-05
14790.0 1.3591e-05
14810.0 1.3729e-05
14830.0 1.39e-05
14850.0 1.4088e-05
14870.0 1.4282e-05
14890.0 1.4491e-05
14910.0 1.4711e-05
14930.0 1.4915e-05
14950.0 1.5097e-05
14970.0 1.5263e-05
14990.0 1.5389e-05
15010.0 1.5467e-05
15030.0 1.5506e-05
15050.0 1.5507e-05
15070.0 1.5472e-05
15090.0 1.5413e-05
15110.0 1.5339e-05
15130.0 1.5255e-05
15150.0 1.5166e-05
15170.0 1.5073e-05
15190.0 1.4979e-05
15210.0 1.4885e-05
15230.0 1.479e-05
15250.0 1.4695e-05
15270.0 1.46e-05
15290.0 1.4506e-05
15310.0 1.4412e-05
15330.0 1.4317e-05
15350.0 1.4223e-05
15370.0 1.413e-05
15390.0 1.4035e-05
15410.0 1.3941e-05
15430.0 1.3848e-05
15450.0 1.3755e-05
15470.0 1.3661e-05
15490.0 1.3569e-05
15510.0 1.3476e-05
15530.0 1.3384e-05
15550.0 1.3292e-05
15570.0 1.3201e-05
15590.0 1.3109e-05
15610.0 1.3018e-05
15630.0 1.2928e-05
15650.0 1.2838e-05
15670.0 1.2748e-05
15690.0 1.2659e-05
15710.0 1.257e-05
15730.0 1.2482e-05
15750.0 1.2393e-05
15770.0 1.2306e-05
15790.0 1.222e-05
15810.0 1.2132e-05
15830.0 1.2046e-05
15850.0 1.1961e-05
15870.0 1.1876e-05
15890.0 1.1792e-05
15910.0 1.1708e-05
15930.0 1.1625e-05
15950.0 1.1542e-05
15970.0 1.146e-05
15990.0 1.1378e-05
16010.0 1.1297e-05
16030.0 1.1216e-05
16050.0 1.1137e-05
16070.0 1.1057e-05
16090.0 1.0978e-05
16110.0 1.09e-05
16130.0 1.0823e-05
16150.0 1.0746e-05
16170.0 1.0669e-05
16190.0 1.0594e-05
16210.0 1.0519e-05
16230.0 1.0444e-05
16250.0 1.0371e-05
16270.0 1.0298e-05
16290.0 1.0225e-05
16310.0 1.0153e-05
16330.0 1.0082e-05
16350.0 1.0011e-05
16370.0 9.9404e-06
16390.0 9.8713e-06
16410.0 9.8029e-06
16430.0 9.7344e-06
16450.0 9.6668e-06
16470.0 9.6005e-06
16490.0 9.5341e-06
16510.0 9.4681e-06
16530.0 9.4033e-06
16550.0 9.3392e-06
16570.0 9.2751e-06
16590.0 9.2117e-06
16610.0 9.1498e-06
16630.0 9.0879e-06
16650.0 9.0264e-06
16670.0 8.9661e-06
16690.0 8.9063e-06
16710.0 8.8464e-06
16730.0 8.7876e-06
16750.0 8.7297e-06
16770.0 8.6721e-06
16790.0 8.6147e-06
16810.0 8.5587e-06
16830.0 8.5032e-06
16850.0 8.4477e-06
16870.0 8.3932e-06
16890.0 8.3396e-06
16910.0 8.2859e-06
16930.0 8.2327e-06
16950.0 8.1807e-06
16970.0 8.1292e-06
16990.0 8.0778e-06
17010.0 8.0273e-06
17030.0 7.9778e-06
17050.0 7.9281e-06
17070.0 7.879e-06
17090.0 7.8309e-06
17110.0 7.7833e-06
17130.0 7.7355e-06
17150.0 7.6889e-06
17170.0 7.643e-06
17190.0 7.5972e-06
17210.0 7.5519e-06
17230.0 7.5077e-06
17250.0 7.4637e-06
17270.0 7.4197e-06
17290.0 7.3767e-06
17310.0 7.3343e-06
17330.0 7.292e-06
17350.0 7.2501e-06
17370.0 7.2094e-06
17390.0 7.1689e-06
17410.0 7.1284e-06
17430.0 7.0889e-06
17450.0 7.0501e-06
17470.0 7.0108e-06
17490.0 6.9724e-06
17510.0 6.9348e-06
17530.0 6.8974e-06
17550.0 6.8602e-06
17570.0 6.8239e-06
17590.0 6.7881e-06
17610.0 6.7522e-06
17630.0 6.7169e-06
17650.0 6.6824e-06
17670.0 6.648e-06
17690.0 6.6135e-06
17710.0 6.5802e-06
17730.0 6.5473e-06
17750.0 6.5143e-06
17770.0 6.4819e-06
17790.0 6.4504e-06
17810.0 6.4187e-06
17830.0 6.3872e-06
17850.0 6.3566e-06
17870.0 6.3263e-06
17890.0 6.2958e-06
17910.0 6.266e-06
17930.0 6.2371e-06
17950.0 6.208e-06
17970.0 6.1792e-06
17990.0 6.1511e-06
18010.0 6.1234e-06
18030.0 6.0953e-06
18050.0 6.068e-06
18070.0 6.0413e-06
18090.0 6.0146e-06
18110.0 5.988e-06
18130.0 5.9623e-06
18150.0 5.9368e-06
18170.0 5.9112e-06
18190.0 5.8862e-06
18210.0 5.8617e-06
18230.0 5.837e-06
18250.0 5.8125e-06
18270.0 5.7889e-06
18290.0 5.7655e-06
18310.0 5.7419e-06
18330.0 5.719e-06
18350.0 5.6966e-06
18370.0 5.6739e-06
18390.0 5.6515e-06
18410.0 5.6299e-06
18430.0 5.6082e-06
18450.0 5.5864e-06
18470.0 5.5653e-06
18490.0 5.5447e-06
18510.0 5.5239e-06
18530.0 5.5034e-06
18550.0 5.4836e-06
18570.0 5.4636e-06
18590.0 5.4436e-06
18610.0 5.4242e-06
18630.0 5.4051e-06
18650.0 5.3859e-06
18670.0 5.3669e-06
18690.0 5.3487e-06
18710.0 5.3304e-06
18730.0 5.312e-06
18750.0 5.2942e-06
18770.0 5.2768e-06
18790.0 5.2588e-06
18810.0 5.2413e-06
18830.0 5.2245e-06
18850.0 5.2075e-06
18870.0 5.1905e-06
18890.0 5.1742e-06
18910.0 5.158e-06
18930.0 5.1416e-06
18950.0 5.1255e-06
18970.0 5.1099e-06
18990.0 5.0942e-06
19010.0 5.0782e-06
19030.0 5.0632e-06
19050.0 5.0482e-06
19070.0 5.033e-06
19090.0 5.0182e-06
19110.0 5.0039e-06
19130.0 4.9892e-06
19150.0 4.9746e-06
19170.0 4.9605e-06
19190.0 4.9466e-06
19210.0 4.9324e-06
19230.0 4.9185e-06
19250.0 4.9052e-06
19270.0 4.8916e-06
19290.0 4.8781e-06
19310.0 4.8651e-06
19330.0 4.8522e-06
19350.0 4.8388e-06
19370.0 4.826e-06
19390.0 4.8135e-06
19410.0 4.8008e-06
19430.0 4.7881e-06
19450.0 4.776e-06
19470.0 4.7639e-06
19490.0 4.7515e-06
19510.0 4.7396e-06
19530.0 4.728e-06
19550.0 4.7159e-06
19570.0 4.7039e-06
19590.0 4.6926e-06
19610.0 4.6812e-06
19630.0 4.6696e-06
19650.0 4.6584e-06
19670.0 4.6476e-06
19690.0 4.6362e-06
19710.0 4.6251e-06
19730.0 4.6144e-06
19750.0 4.6036e-06
19770.0 4.5925e-06
19790.0 4.5819e-06
19810.0 4.5716e-06
19830.0 4.5608e-06
19850.0 4.55e-06
19870.0 4.5394e-06
19890.0 4.5277e-06
19910.0 4.5142e-06
19930.0 4.4988e-06
19950.0 4.48e-06
19970.0 4.4552e-06
19990.0 4.4237e-06
20010.0 4.3864e-06
20030.0 4.3399e-06
20050.0 4.2845e-06
20070.0 4.2239e-06
20090.0 4.1585e-06
20110.0 4.0843e-06
20130.0 4.0095e-06
20150.0 3.9356e-06
20170.0 3.8591e-06
20190.0 3.7817e-06
20210.0 3.7088e-06
20230.0 3.6377e-06
20250.0 3.5662e-06
20270.0 3.4999e-06
20290.0 3.4393e-06
20310.0 3.3816e-06
20330.0 3.3277e-06
20350.0 3.2832e-06
20370.0 3.2442e-06
20390.0 3.2106e-06
20410.0 3.1846e-06
20430.0 3.166e-06
20450.0 3.1534e-06
20470.0 3.1479e-06
20490.0 3.1493e-06
20510.0 3.1567e-06
20530.0 3.1706e-06
20550.0 3.1897e-06
20570.0 3.2126e-06
20590.0 3.2405e-06
20610.0 3.272e-06
20630.0 3.3049e-06
20650.0 3.34e-06
20670.0 3.3778e-06
20690.0 3.4143e-06
20710.0 3.4496e-06
20730.0 3.4846e-06
20750.0 3.5176e-06
20770.0 3.5467e-06
20790.0 3.5733e-06
20810.0 3.597e-06
20830.0 3.6161e-06
20850.0 3.6311e-06
20870.0 3.6424e-06
20890.0 3.6492e-06
20910.0 3.6518e-06
20930.0 3.6506e-06
20950.0 3.6455e-06
20970.0 3.6373e-06
20990.0 3.6262e-06
21010.0 3.6115e-06
21030.0 3.5945e-06
21050.0 3.5759e-06
21070.0 3.5552e-06
21090.0 3.5321e-06
21110.0 3.5092e-06
21130.0 3.4857e-06
21150.0 3.461e-06
21170.0 3.4365e-06
21190.0 3.4133e-06
21210.0 3.39e-06
21230.0 3.3672e-06
21250.0 3.347e-06
21270.0 3.3286e-06
21290.0 3.3118e-06
21310.0 3.2976e-06
21330.0 3.2867e-06
21350.0 3.2781e-06
21370.0 3.2725e-06
21390.0 3.2702e-06
21410.0 3.271e-06
21430.0 3.275e-06
21450.0 3.2822e-06
21470.0 3.292e-06
21490.0 3.3048e-06
21510.0 3.3204e-06
21530.0 3.3378e-06
21550.0 3.3574e-06
21570.0 3.3796e-06
21590.0 3.4031e-06
21610.0 3.4275e-06
21630.0 3.4538e-06
21650.0 3.482e-06
21670.0 3.5094e-06
21690.0 3.538e-06
21710.0 3.568e-06
21730.0 3.5981e-06
21750.0 3.6277e-06
21770.0 3.6595e-06
21790.0 3.6915e-06
21810.0 3.7228e-06
21830.0 3.7548e-06
21850.0 3.7881e-06
21870.0 3.8208e-06
21890.0 3.8526e-06
21910.0 3.8857e-06
21930.0 3.9188e-06
21950.0 3.9504e-06
21970.0 3.9821e-06
21990.0 4.0144e-06
22010.0 4.0444e-06
22030.0 4.0727e-06
22050.0 4.1002e-06
22070.0 4.1258e-06
22090.0 4.1481e-06
22110.0 4.1683e-06
22130.0 4.1859e-06
22150.0 4.1996e-06
22170.0 4.2096e-06
22190.0 4.2158e-06
22210.0 4.2175e-06
22230.0 4.2148e-06
22250.0 4.2075e-06
22270.0 4.1952e-06
22290.0 4.1785e-06
22310.0 4.1576e-06
22330.0 4.1307e-06
22350.0 4.0996e-06
22370.0 4.0653e-06
22390.0 4.0262e-06
22410.0 3.9819e-06
22430.0 3.9364e-06
22450.0 3.8885e-06
22470.0 3.8362e-06
22490.0 3.7825e-06
22510.0 3.7293e-06
22530.0 3.6727e-06
22550.0 3.6145e-06
22570.0 3.5587e-06
22590.0 3.5033e-06
22610.0 3.4468e-06
