#lamb flux
1010.0 1.9479e-06
1030.0 2.1398e-06
1050.0 2.3606e-06
1070.0 2.6091e-06
1090.0 2.8914e-06
1110.0 3.181e-06
1130.0 3.4724e-06
1150.0 3.7776e-06
1170.0 4.0925e-06
1190.0 4.391e-06
1210.0 4.6936e-06
1230.0 5.0063e-06
1250.0 5.3126e-06
1270.0 5.6101e-06
1290.0 5.9245e-06
1310.0 6.2386e-06
1330.0 6.5398e-06
1350.0 6.8444e-06
1370.0 7.1588e-06
1390.0 7.4654e-06
1410.0 7.7628e-06
1430.0 8.0738e-06
1450.0 8.3846e-06
1470.0 8.685e-06
1490.0 8.9886e-06
1510.0 9.3093e-06
1530.0 9.613e-06
1550.0 9.9126e-06
1570.0 1.0222e-05
1590.0 1.0533e-05
1610.0 1.0829e-05
1630.0 1.1134e-05
1650.0 1.1447e-05
1670.0 1.1749e-05
1690.0 1.2048e-05
1710.0 1.2358e-05
1730.0 1.2669e-05
1750.0 1.2961e-05
1770.0 1.3261e-05
1790.0 1.3568e-05
1810.0 1.3863e-05
1830.0 1.4152e-05
1850.0 1.4459e-05
1870.0 1.4757e-05
1890.0 1.5043e-05
1910.0 1.5334e-05
1930.0 1.5631e-05
1950.0 1.5912e-05
1970.0 1.6187e-05
1990.0 1.6471e-05
2010.0 1.6748e-05
2030.0 1.7011e-05
2050.0 1.728e-05
2070.0 1.7553e-05
2090.0 1.7804e-05
2110.0 1.8051e-05
2130.0 1.8301e-05
2150.0 1.8541e-05
2170.0 1.8762e-05
2190.0 1.8988e-05
2210.0 1.921e-05
2230.0 1.9412e-05
2250.0 1.9606e-05
2270.0 1.9805e-05
2290.0 1.9986e-05
2310.0 2.0147e-05
2330.0 2.0308e-05
2350.0 2.0462e-05
2370.0 2.0595e-05
2390.0 2.0725e-05
2410.0 2.0862e-05
2430.0 2.0992e-05
2450.0 2.1122e-05
2470.0 2.1279e-05
2490.0 2.1485e-05
2510.0 2.1743e-05
2530.0 2.2154e-05
2550.0 2.2866e-05
2570.0 2.4017e-05
2590.0 2.5766e-05
2610.0 2.856e-05
2630.0 3.2448e-05
2650.0 3.7161e-05
2670.0 4.2707e-05
2690.0 4.882e-05
2710.0 5.4601e-05
2730.0 5.965e-05
2750.0 6.4067e-05
2770.0 6.7426e-05
2790.0 6.974e-05
2810.0 7.1391e-05
2830.0 7.2648e-05
2850.0 7.348e-05
2870.0 7.4152e-05
2890.0 7.4819e-05
2910.0 7.5451e-05
2930.0 7.5991e-05
2950.0 7.6579e-05
2970.0 7.7189e-05
2990.0 7.7724e-05
3010.0 0.00077377
3030.0 0.00077913
3050.0 0.00078411
3070.0 0.00078755
3090.0 0.00079027
3110.0 0.00079114
3130.0 0.0007887
3150.0 0.00078253
3170.0 0.00077189
3190.0 0.00075704
3210.0 0.00073988
3230.0 0.00072225
3250.0 0.0007052
3270.0 0.00069633
3290.0 0.0006915
3310.0 0.00070066
3330.0 0.00071593
3350.0 0.00073754
3370.0 0.0007661
3390.0 0.00080037
3410.0 0.0008361
3430.0 0.00087458
3450.0 0.00091657
3470.0 0.00095972
3490.0 0.001003
3510.0 0.0010489
3530.0 0.0010959
3550.0 0.0011453
3570.0 0.0011987
3590.0 0.0012546
3610.0 0.0013174
3630.0 0.0013734
3650.0 0.0014295
3670.0 0.0014745
3690.0 0.0015071
3710.0 0.0015262
3730.0 0.001525
3750.0 0.0015249
3770.0 0.0015332
3790.0 0.0015782
3810.0 0.0016724
3830.0 0.0017986
3850.0 0.0019793
3870.0 0.0022208
3890.0 0.002493
3910.0 0.0027703
3930.0 0.0029963
3950.0 0.0031372
3970.0 0.0027965
3990.0 0.0021731
4010.0 0.0020962
4030.0 0.002544
4050.0 0.0029556
4070.0 0.0026092
4090.0 0.0018083
4110.0 0.0018819
4130.0 0.0023767
4150.0 0.002618
4170.0 0.0023248
4190.0 0.0020822
4210.0 0.0025081
4230.0 0.0027221
4250.0 0.002662
4270.0 0.0027094
4290.0 0.0025413
4310.0 0.0027381
4330.0 0.0031316
4350.0 0.0036751
4370.0 0.0038095
4390.0 0.0036403
4410.0 0.0031326
4430.0 0.0025592
4450.0 0.0019983
4470.0 0.0020398
4490.0 0.0022776
4510.0 0.0029582
4530.0 0.0031337
4550.0 0.003169
4570.0 0.0036553
4590.0 0.0046956
4610.0 0.0064613
4630.0 0.0077737
4650.0 0.0077498
4670.0 0.0079493
4690.0 0.008714
4710.0 0.0085885
4730.0 0.0068722
4750.0 0.0049496
4770.0 0.0041293
4790.0 0.0038018
4810.0 0.0035177
4830.0 0.0037129
4850.0 0.0043154
4870.0 0.0053548
4890.0 0.005665
4910.0 0.0048853
4930.0 0.0048963
4950.0 0.006049
4970.0 0.0078535
4990.0 0.0091788
5010.0 0.0091773
5030.0 0.0075599
5050.0 0.0052937
5070.0 0.0038952
5090.0 0.0033945
5110.0 0.0034602
5130.0 0.0037875
5150.0 0.0036541
5170.0 0.0036571
5190.0 0.003608
5210.0 0.0036181
5230.0 0.0038633
5250.0 0.0040087
5270.0 0.0044939
5290.0 0.0053853
5310.0 0.0059171
5330.0 0.0061728
5350.0 0.0064656
5370.0 0.0070087
5390.0 0.0072058
5410.0 0.0065439
5430.0 0.0058567
5450.0 0.0058915
5470.0 0.0070844
5490.0 0.0091857
5510.0 0.011082
5530.0 0.011759
5550.0 0.011356
5570.0 0.010589
5590.0 0.0097907
5610.0 0.0093795
5630.0 0.0095054
5650.0 0.0097498
5670.0 0.0094761
5690.0 0.0090111
5710.0 0.0087236
5730.0 0.0076467
5750.0 0.0059095
5770.0 0.0053691
5790.0 0.0060641
5810.0 0.0068826
5830.0 0.0077117
5850.0 0.0080548
5870.0 0.0078841
5890.0 0.0073136
5910.0 0.0068937
5930.0 0.007009
5950.0 0.0074557
5970.0 0.0075874
5990.0 0.0067761
6010.0 0.0054992
6030.0 0.004418
6050.0 0.0040145
6070.0 0.0043182
6090.0 0.0048703
6110.0 0.0049197
6130.0 0.0045432
6150.0 0.004475
6170.0 0.0049957
6190.0 0.0059498
6210.0 0.0071698
6230.0 0.0080057
6250.0 0.0077013
6270.0 0.0067666
6290.0 0.0055922
6310.0 0.004412
6330.0 0.0036949
6350.0 0.0036191
6370.0 0.0039883
6390.0 0.0044337
6410.0 0.0051506
6430.0 0.0062381
6450.0 0.0076747
6470.0 0.0092317
6490.0 0.01063
6510.0 0.011197
6530.0 0.010715
6550.0 0.010289
6570.0 0.010312
6590.0 0.010148
6610.0 0.0095126
6630.0 0.008924
6650.0 0.00841
6670.0 0.0083991
6690.0 0.0081911
6710.0 0.0073872
6730.0 0.0064326
6750.0 0.0058075
6770.0 0.0060563
6790.0 0.00647
6810.0 0.0069261
6830.0 0.0070586
6850.0 0.0067104
6870.0 0.0064486
6890.0 0.0063003
6910.0 0.0059649
6930.0 0.0057052
6950.0 0.005778
6970.0 0.0059584
6990.0 0.0063923
7010.0 0.006857
7030.0 0.0066706
7050.0 0.0060545
7070.0 0.0053341
7090.0 0.0045107
7110.0 0.0040843
7130.0 0.0043326
7150.0 0.0046704
7170.0 0.0046954
7190.0 0.0045608
7210.0 0.0045424
7230.0 0.0051319
7250.0 0.0059381
7270.0 0.0064988
7290.0 0.0066045
7310.0 0.0061889
7330.0 0.0056195
7350.0 0.0051795
7370.0 0.0049922
7390.0 0.0050167
7410.0 0.0053311
7430.0 0.006053
7450.0 0.0067753
7470.0 0.0076259
7490.0 0.0085046
7510.0 0.0078904
7530.0 0.0069093
7550.0 0.0058813
7570.0 0.0049262
7590.0 0.0040267
7610.0 0.0038731
7630.0 0.0041435
7650.0 0.0046405
7670.0 0.0053066
7690.0 0.0058519
7710.0 0.0065627
7730.0 0.0069441
7750.0 0.0072029
7770.0 0.0074533
7790.0 0.0074529
7810.0 0.0074248
7830.0 0.0071564
7850.0 0.0069398
7870.0 0.0066547
7890.0 0.0060842
7910.0 0.0055054
7930.0 0.0049318
7950.0 0.0043348
7970.0 0.0041471
7990.0 0.0043183
8010.0 0.004841
8030.0 0.0048836
8050.0 0.0050267
8070.0 0.0049637
8090.0 0.00496
8110.0 0.0048204
8130.0 0.0045244
8150.0 0.0042245
8170.0 0.004188
8190.0 0.0042517
8210.0 0.0042989
8230.0 0.0041091
8250.0 0.0038956
8270.0 0.0034319
8290.0 0.0027863
8310.0 0.0021417
8330.0 0.0014976
8350.0 0.0011059
8370.0 0.0010557
8390.0 0.0012127
8410.0 0.001472
8430.0 0.001829
8450.0 0.0020193
8470.0 0.0021522
8490.0 0.0023233
8510.0 0.0024761
8530.0 0.002742
8550.0 0.0032326
8570.0 0.0037341
8590.0 0.0041619
8610.0 0.0048185
8630.0 0.0055833
8650.0 0.0059338
8670.0 0.0059976
8690.0 0.0059091
8710.0 0.005674
8730.0 0.0054418
8750.0 0.0051468
8770.0 0.0050399
8790.0 0.0048593
8810.0 0.0045016
8830.0 0.004198
8850.0 0.0036314
8870.0 0.0032886
8890.0 0.0030462
8910.0 0.0032994
8930.0 0.0031652
8950.0 0.0032309
8970.0 0.0032831
8990.0 0.0032829
9010.0 0.0033236
9030.0 0.0032299
9050.0 0.0032236
9070.0 0.0032265
9090.0 0.0032296
9110.0 0.0032334
9130.0 0.0032368
9150.0 0.0032405
9170.0 0.0032406
9190.0 0.0032362
9210.0 0.0032641
9230.0 0.0032633
9250.0 0.0032657
9270.0 0.0032691
9290.0 0.0032733
9310.0 0.0032781
9330.0 0.0032834
9350.0 0.0032891
9370.0 0.0032951
9390.0 0.0033013
9410.0 0.0033077
9430.0 0.0033145
9450.0 0.0033214
9470.0 0.0033285
9490.0 0.0033359
9510.0 0.0033434
9530.0 0.0033512
9550.0 0.0033593
9570.0 0.0033676
9590.0 0.003376
9610.0 0.0033847
9630.0 0.0033937
9650.0 0.0034028
9670.0 0.0034121
9690.0 0.0034217
9710.0 0.0034314
9730.0 0.0034413
9750.0 0.0034515
9770.0 0.0034619
9790.0 0.0034723
9810.0 0.003483
9830.0 0.0034938
9850.0 0.0035049
9870.0 0.003516
9890.0 0.0035272
9910.0 0.0035387
9930.0 0.0035502
9950.0 0.0035601
9970.0 0.0035724
9990.0 0.0035847
10010.0 0.0035957
10030.0 0.0036079
10050.0 0.0036189
10070.0 0.003624
10090.0 0.0036386
10110.0 0.0036529
10130.0 0.0036665
10150.0 0.0036798
10170.0 0.0036925
10190.0 0.0037046
10210.0 0.0037169
10230.0 0.0037291
10250.0 0.0037409
10270.0 0.0037527
10290.0 0.0037647
10310.0 0.0037762
10330.0 0.0037874
10350.0 0.0037988
10370.0 0.0038101
10390.0 0.0038209
10410.0 0.0038316
10430.0 0.0038424
10450.0 0.0038528
10470.0 0.0038628
10490.0 0.0038728
10510.0 0.0038826
10530.0 0.0038916
10550.0 0.0039007
10570.0 0.0039097
10590.0 0.0039182
10610.0 0.0039262
10630.0 0.0039342
10650.0 0.0039419
10670.0 0.0039488
10690.0 0.0039556
10710.0 0.0039623
10730.0 0.0039683
10750.0 0.0039737
10770.0 0.0039793
10790.0 0.0039843
10810.0 0.0039886
10830.0 0.0039925
10850.0 0.0039959
10870.0 0.0039975
10890.0 0.0039969
10910.0 0.0039932
10930.0 0.0039839
10950.0 0.0039653
10970.0 0.0039359
10990.0 0.0038947
11010.0 0.0038591
11030.0 0.0037784
11050.0 0.0036862
11070.0 0.0035807
11090.0 0.0034588
11110.0 0.0033378
11130.0 0.0032166
11150.0 0.0030923
11170.0 0.0029715
11190.0 0.002862
11210.0 0.002757
11230.0 0.0026582
11250.0 0.0025723
11270.0 0.0024973
11290.0 0.0024292
11310.0 0.0023708
11330.0 0.0023235
11350.0 0.0022812
11370.0 0.0022431
11390.0 0.0022093
11410.0 0.0021773
11430.0 0.002143
11450.0 0.0021075
11470.0 0.0020702
11490.0 0.0020284
11510.0 0.0019812
11530.0 0.0019321
11550.0 0.0018801
11570.0 0.0018233
11590.0 0.001765
11610.0 0.0017077
11630.0 0.0016485
11650.0 0.001589
11670.0 0.0015341
11690.0 0.0014817
11710.0 0.0014309
11730.0 0.0013841
11750.0 0.0013425
11770.0 0.0013027
11790.0 0.0012658
11810.0 0.0012328
11830.0 0.0012022
11850.0 0.001172
11870.0 0.001144
11890.0 0.0011175
11910.0 0.0010905
11930.0 0.0010631
11950.0 0.0010363
11970.0 0.0010086
11990.0 0.00097926
12010.0 0.00094996
12030.0 0.00092085
12050.0 0.00089087
12070.0 0.00086068
12090.0 0.00083302
12110.0 0.00080642
12130.0 0.00078126
12150.0 0.00075931
12170.0 0.00074097
12190.0 0.00072556
12210.0 0.00071469
12230.0 0.00070859
12250.0 0.00070705
12270.0 0.00071056
12290.0 0.00071867
12310.0 0.00073061
12330.0 0.00074724
12350.0 0.00076744
12370.0 0.00078955
12390.0 0.000814
12410.0 0.00084129
12430.0 0.00086729
12450.0 0.0008925
12470.0 0.00091748
12490.0 0.00094047
12510.0 0.00095991
12530.0 0.00097724
12550.0 0.00099174
12570.0 0.0010021
12590.0 0.001009
12610.0 0.0010127
12630.0 0.0010127
12650.0 0.0010093
12670.0 0.001003
12690.0 0.00099385
12710.0 0.00098245
12730.0 0.00096915
12750.0 0.00095352
12770.0 0.00093663
12790.0 0.00091896
12810.0 0.00090007
12830.0 0.00087997
12850.0 0.00085996
12870.0 0.00083947
12890.0 0.00081777
12910.0 0.00079571
12930.0 0.00077365
12950.0 0.00075021
12970.0 0.00072565
12990.0 0.0007015
13010.0 0.00067684
13030.0 0.00065112
13050.0 0.00062568
13070.0 0.00060129
13090.0 0.00057658
13110.0 0.00055264
13130.0 0.00053072
13150.0 0.00051041
13170.0 0.00049129
13190.0 0.00047513
13210.0 0.00046179
13230.0 0.00045069
13250.0 0.00044226
13270.0 0.00043663
13290.0 0.00043334
13310.0 0.0004324
13330.0 0.00043351
13350.0 0.00043622
13370.0 0.00044045
13390.0 0.00044588
13410.0 0.00045151
13430.0 0.00045758
13450.0 0.0004639
13470.0 0.00046978
13490.0 0.00047505
13510.0 0.00048018
13530.0 0.00048455
13550.0 0.00048803
13570.0 0.00049095
13590.0 0.00049341
13610.0 0.00049522
13630.0 0.00049655
13650.0 0.00049767
13670.0 0.00049849
13690.0 0.00049902
13710.0 0.0004994
13730.0 0.00049969
13750.0 0.00049966
13770.0 0.00049939
13790.0 0.00049888
13810.0 0.00049799
13830.0 0.00049668
13850.0 0.00049489
13870.0 0.00049253
13890.0 0.00048962
13910.0 0.00048617
13930.0 0.00048205
13950.0 0.00047741
13970.0 0.00047256
13990.0 0.00046731
14010.0 0.00046182
14030.0 0.00045646
14050.0 0.00045125
14070.0 0.00044604
14090.0 0.00044132
14110.0 0.00043713
14130.0 0.00043334
14150.0 0.00043003
14170.0 0.00042737
14190.0 0.00042524
14210.0 0.00042361
14230.0 0.00042256
14250.0 0.00042205
14270.0 0.00042212
14290.0 0.00042284
14310.0 0.00042408
14330.0 0.0004259
14350.0 0.00042841
14370.0 0.00043141
14390.0 0.00043477
14410.0 0.00043875
14430.0 0.00044315
14450.0 0.00044771
14470.0 0.00045256
14490.0 0.00045797
14510.0 0.00046344
14530.0 0.00046908
14550.0 0.00047534
14570.0 0.0004822
14590.0 0.00048943
14610.0 0.00049761
14630.0 0.00050717
14650.0 0.00051758
14670.0 0.00052899
14690.0 0.00054211
14710.0 0.00055678
14730.0 0.00057175
14750.0 0.00058807
14770.0 0.0006057
14790.0 0.00062343
14810.0 0.00064097
14830.0 0.00065954
14850.0 0.0006773
14870.0 0.00069353
14890.0 0.00070882
14910.0 0.00072289
14930.0 0.00073461
14950.0 0.00074414
14970.0 0.00075194
14990.0 0.00075747
15010.0 0.00076092
15030.0 0.00076278
15050.0 0.00076326
15070.0 0.00076271
15090.0 0.00076152
15110.0 0.00075987
15130.0 0.00075798
15150.0 0.00075608
15170.0 0.00075404
15190.0 0.00075195
15210.0 0.00074994
15230.0 0.00074796
15250.0 0.0007459
15270.0 0.00074388
15290.0 0.00074198
15310.0 0.00074002
15330.0 0.00073804
15350.0 0.00073615
15370.0 0.00073428
15390.0 0.0007323
15410.0 0.0007304
15430.0 0.00072857
15450.0 0.00072668
15470.0 0.00072476
15490.0 0.00072296
15510.0 0.00072116
15530.0 0.00071928
15550.0 0.00071746
15570.0 0.0007157
15590.0 0.00071385
15610.0 0.00071198
15630.0 0.00071022
15650.0 0.00070845
15670.0 0.00070662
15690.0 0.00070483
15710.0 0.00070312
15730.0 0.00070131
15750.0 0.0006995
15770.0 0.00069776
15790.0 0.00069601
15810.0 0.00069415
15830.0 0.00069239
15850.0 0.00069068
15870.0 0.00068888
15890.0 0.00068708
15910.0 0.00068538
15930.0 0.00068361
15950.0 0.00068177
15970.0 0.00068
15990.0 0.00067827
16010.0 0.00067645
16030.0 0.00067461
16050.0 0.00067289
16070.0 0.00067112
16090.0 0.00066928
16110.0 0.0006675
16130.0 0.00066576
16150.0 0.00066387
16170.0 0.00066202
16190.0 0.00066026
16210.0 0.00065843
16230.0 0.00065654
16250.0 0.00065473
16270.0 0.00065295
16290.0 0.00065105
16310.0 0.00064918
16330.0 0.00064737
16350.0 0.00064549
16370.0 0.00064351
16390.0 0.00064166
16410.0 0.00063981
16430.0 0.00063786
16450.0 0.00063594
16470.0 0.00063409
16490.0 0.00063214
16510.0 0.00063015
16530.0 0.00062823
16550.0 0.0006263
16570.0 0.00062427
16590.0 0.00062226
16610.0 0.00062035
16630.0 0.00061835
16650.0 0.00061631
16670.0 0.00061434
16690.0 0.00061235
16710.0 0.00061023
16730.0 0.00060818
16750.0 0.00060617
16770.0 0.00060409
16790.0 0.00060195
16810.0 0.00059992
16830.0 0.00059786
16850.0 0.00059571
16870.0 0.00059359
16890.0 0.00059153
16910.0 0.00058935
16930.0 0.00058713
16950.0 0.00058502
16970.0 0.00058287
16990.0 0.00058064
17010.0 0.00057846
17030.0 0.00057633
17050.0 0.00057408
17070.0 0.00057182
17090.0 0.00056964
17110.0 0.00056741
17130.0 0.00056507
17150.0 0.00056282
17170.0 0.00056061
17190.0 0.0005583
17210.0 0.00055598
17230.0 0.00055375
17250.0 0.00055144
17270.0 0.00054904
17290.0 0.00054673
17310.0 0.00054443
17330.0 0.00054204
17350.0 0.00053962
17370.0 0.00053733
17390.0 0.00053497
17410.0 0.00053253
17430.0 0.00053016
17450.0 0.00052782
17470.0 0.00052532
17490.0 0.00052287
17510.0 0.0005205
17530.0 0.00051806
17550.0 0.00051555
17570.0 0.00051313
17590.0 0.00051073
17610.0 0.00050821
17630.0 0.00050571
17650.0 0.00050328
17670.0 0.00050079
17690.0 0.00049818
17710.0 0.00049572
17730.0 0.00049325
17750.0 0.00049069
17770.0 0.00048815
17790.0 0.0004857
17810.0 0.00048313
17830.0 0.00048053
17850.0 0.00047801
17870.0 0.00047548
17890.0 0.00047285
17910.0 0.00047026
17930.0 0.00046776
17950.0 0.00046517
17970.0 0.00046255
17990.0 0.00046001
18010.0 0.00045745
18030.0 0.00045476
18050.0 0.00045216
18070.0 0.0004496
18090.0 0.00044697
18110.0 0.0004443
18130.0 0.00044174
18150.0 0.00043915
18170.0 0.00043647
18190.0 0.00043385
18210.0 0.00043128
18230.0 0.00042859
18250.0 0.00042589
18270.0 0.00042331
18290.0 0.00042068
18310.0 0.00041799
18330.0 0.00041536
18350.0 0.00041278
18370.0 0.00041008
18390.0 0.0004074
18410.0 0.00040479
18430.0 0.00040215
18450.0 0.00039941
18470.0 0.00039677
18490.0 0.00039417
18510.0 0.00039148
18530.0 0.0003888
18550.0 0.00038621
18570.0 0.00038355
18590.0 0.00038082
18610.0 0.00037818
18630.0 0.00037556
18650.0 0.00037286
18670.0 0.00037016
18690.0 0.00036758
18710.0 0.00036492
18730.0 0.00036222
18750.0 0.0003596
18770.0 0.000357
18790.0 0.00035426
18810.0 0.00035159
18830.0 0.00034899
18850.0 0.00034634
18870.0 0.00034364
18890.0 0.00034104
18910.0 0.00033845
18930.0 0.00033576
18950.0 0.00033311
18970.0 0.00033053
18990.0 0.00032789
19010.0 0.00032516
19030.0 0.00032258
19050.0 0.00031999
19070.0 0.00031733
19090.0 0.00031471
19110.0 0.00031217
19130.0 0.00030952
19150.0 0.00030686
19170.0 0.00030429
19190.0 0.00030171
19210.0 0.00029905
19230.0 0.00029644
19250.0 0.00029392
19270.0 0.00029132
19290.0 0.0002887
19310.0 0.00028617
19330.0 0.00028362
19350.0 0.00028096
19370.0 0.0002784
19390.0 0.00027588
19410.0 0.00027329
19430.0 0.00027069
19450.0 0.0002682
19470.0 0.00026568
19490.0 0.00026309
19510.0 0.00026056
19530.0 0.00025808
19550.0 0.0002555
19570.0 0.00025292
19590.0 0.00025046
19610.0 0.00024795
19630.0 0.0002454
19650.0 0.00024291
19670.0 0.00024048
19690.0 0.00023793
19710.0 0.00023541
19730.0 0.00023297
19750.0 0.0002305
19770.0 0.00022794
19790.0 0.0002255
19810.0 0.00022308
19830.0 0.00022058
19850.0 0.00021809
19870.0 0.00021566
19890.0 0.00021309
19910.0 0.00021037
19930.0 0.00020757
19950.0 0.00020455
19970.0 0.00020109
19990.0 0.00019721
20010.0 0.00019309
20030.0 0.00018844
20050.0 0.00018338
20070.0 0.00017827
20090.0 0.00017316
20110.0 0.00016784
20130.0 0.00016291
20150.0 0.00015844
20170.0 0.00015423
20190.0 0.00015037
20210.0 0.00014708
20230.0 0.0001442
20250.0 0.00014162
20270.0 0.00013951
20290.0 0.00013782
20310.0 0.00013645
20330.0 0.0001354
20350.0 0.00013473
20370.0 0.00013434
20390.0 0.00013424
20410.0 0.00013442
20430.0 0.00013485
20450.0 0.00013557
20470.0 0.00013657
20490.0 0.00013777
20510.0 0.00013924
20530.0 0.00014101
20550.0 0.00014298
20570.0 0.00014508
20590.0 0.00014745
20610.0 0.00015
20630.0 0.00015257
20650.0 0.00015526
20670.0 0.00015814
20690.0 0.0001609
20710.0 0.00016357
20730.0 0.00016627
20750.0 0.0001689
20770.0 0.0001713
20790.0 0.00017365
20810.0 0.00017599
20830.0 0.00017818
20850.0 0.0001803
20870.0 0.00018251
20890.0 0.00018474
20910.0 0.00018691
20930.0 0.0001892
20950.0 0.00019164
20970.0 0.00019408
20990.0 0.00019654
21010.0 0.00019917
21030.0 0.00020177
21050.0 0.00020422
21070.0 0.00020662
21090.0 0.00020894
21110.0 0.00021092
21130.0 0.00021264
21150.0 0.00021413
21170.0 0.00021527
21190.0 0.00021604
21210.0 0.0002165
21230.0 0.00021659
21250.0 0.00021631
21270.0 0.00021571
21290.0 0.00021475
21310.0 0.00021347
21330.0 0.00021197
21350.0 0.00021016
21370.0 0.00020808
21390.0 0.00020586
21410.0 0.00020347
21430.0 0.00020079
21450.0 0.00019808
21470.0 0.00019536
21490.0 0.00019254
21510.0 0.00018966
21530.0 0.00018694
21550.0 0.00018427
21570.0 0.00018161
21590.0 0.00017916
21610.0 0.00017695
21630.0 0.00017488
21650.0 0.00017302
21670.0 0.00017155
21690.0 0.00017034
21710.0 0.00016941
21730.0 0.00016883
21750.0 0.00016858
21770.0 0.00016866
21790.0 0.0001691
21810.0 0.00016985
21830.0 0.00017091
21850.0 0.00017233
21870.0 0.00017401
21890.0 0.00017588
21910.0 0.00017808
21930.0 0.00018051
21950.0 0.00018304
21970.0 0.00018576
21990.0 0.00018877
22010.0 0.00019175
22030.0 0.00019475
22050.0 0.0001979
22070.0 0.00020106
22090.0 0.00020405
22110.0 0.00020706
22130.0 0.00021006
22150.0 0.00021283
22170.0 0.0002154
22190.0 0.00021789
22210.0 0.00022011
22230.0 0.00022196
22250.0 0.00022355
22270.0 0.00022483
22290.0 0.00022571
22310.0 0.0002262
22330.0 0.00022631
22350.0 0.00022596
22370.0 0.0002252
22390.0 0.00022399
22410.0 0.00022228
22430.0 0.00022021
22450.0 0.00021775
22470.0 0.00021479
22490.0 0.00021149
22510.0 0.00020796
22530.0 0.00020397
22550.0 0.00019961
22570.0 0.00019519
22590.0 0.00019057
22610.0 0.00018563
22630.0 0.00018063
22650.0 0.00017576
22670.0 0.00017067
22690.0 0.00016553
22710.0 0.0001606
22730.0 0.00015576
22750.0 0.00015076
22770.0 0.0001461
22790.0 0.00014177
22810.0 0.00013751
22830.0 0.00013348
22850.0 0.00012989
22870.0 0.00012656
22890.0 0.00012345
22910.0 0.00012081
22930.0 0.00011859
22950.0 0.00011672
22970.0 0.00011527
22990.0 0.00011435
23010.0 0.00011384
23030.0 0.00011379
23050.0 0.0001142
23070.0 0.00011502
23090.0 0.00011634
