#lamb flux
1010.0 5.8031e-06
1030.0 6.3129e-06
1050.0 6.9147e-06
1070.0 7.5921e-06
1090.0 8.3571e-06
1110.0 9.1428e-06
1130.0 9.9341e-06
1150.0 1.0763e-05
1170.0 1.1619e-05
1190.0 1.2429e-05
1210.0 1.3248e-05
1230.0 1.4093e-05
1250.0 1.4919e-05
1270.0 1.5717e-05
1290.0 1.6557e-05
1310.0 1.7393e-05
1330.0 1.819e-05
1350.0 1.8992e-05
1370.0 1.9818e-05
1390.0 2.0621e-05
1410.0 2.1397e-05
1430.0 2.2209e-05
1450.0 2.3021e-05
1470.0 2.3806e-05
1490.0 2.4602e-05
1510.0 2.5446e-05
1530.0 2.6249e-05
1550.0 2.7044e-05
1570.0 2.7872e-05
1590.0 2.8704e-05
1610.0 2.9505e-05
1630.0 3.0338e-05
1650.0 3.1196e-05
1670.0 3.2033e-05
1690.0 3.2863e-05
1710.0 3.3728e-05
1730.0 3.4602e-05
1750.0 3.5427e-05
1770.0 3.6276e-05
1790.0 3.7142e-05
1810.0 3.7978e-05
1830.0 3.8796e-05
1850.0 3.9657e-05
1870.0 4.0488e-05
1890.0 4.1281e-05
1910.0 4.2077e-05
1930.0 4.2879e-05
1950.0 4.3626e-05
1970.0 4.4345e-05
1990.0 4.5076e-05
2010.0 4.5772e-05
2030.0 4.6419e-05
2050.0 4.7069e-05
2070.0 4.7718e-05
2090.0 4.83e-05
2110.0 4.886e-05
2130.0 4.9426e-05
2150.0 4.996e-05
2170.0 5.0446e-05
2190.0 5.0946e-05
2210.0 5.144e-05
2230.0 5.1894e-05
2250.0 5.2336e-05
2270.0 5.2806e-05
2290.0 5.3246e-05
2310.0 5.3653e-05
2330.0 5.408e-05
2350.0 5.4514e-05
2370.0 5.4919e-05
2390.0 5.5336e-05
2410.0 5.5797e-05
2430.0 5.625e-05
2450.0 5.6706e-05
2470.0 5.7214e-05
2490.0 5.778e-05
2510.0 5.8382e-05
2530.0 5.9177e-05
2550.0 6.0398e-05
2570.0 6.2287e-05
2590.0 6.5168e-05
2610.0 6.9867e-05
2630.0 7.6653e-05
2650.0 8.5246e-05
2670.0 9.5805e-05
2690.0 0.00010798
2710.0 0.00012004
2730.0 0.00013097
2750.0 0.00014053
2770.0 0.0001473
2790.0 0.00015091
2810.0 0.00015169
2830.0 0.00014971
2850.0 0.00014574
2870.0 0.00014046
2890.0 0.00013408
2910.0 0.00012717
2930.0 0.00012033
2950.0 0.00011315
2970.0 0.00010579
2990.0 9.8728e-05
3010.0 0.00013354
3030.0 0.00012311
3050.0 0.0001128
3070.0 0.00010332
3090.0 9.3837e-05
3110.0 8.4781e-05
3130.0 7.6976e-05
3150.0 7.1711e-05
3170.0 6.7508e-05
3190.0 0.00011143
3210.0 0.00031361
3230.0 0.00064114
3250.0 0.00081354
3270.0 0.00071838
3290.0 0.00055141
3310.0 0.00045633
3330.0 0.00042756
3350.0 0.00043903
3370.0 0.00046233
3390.0 0.0004871
3410.0 0.00051212
3430.0 0.00053554
3450.0 0.00056092
3470.0 0.00058853
3490.0 0.00060735
3510.0 0.00058801
3530.0 0.0006006
3550.0 0.00075327
3570.0 0.00094593
3590.0 0.0010446
3610.0 0.0010773
3630.0 0.0011039
3650.0 0.0011024
3670.0 0.0011686
3690.0 0.0013984
3710.0 0.0016571
3730.0 0.0018263
3750.0 0.0019464
3770.0 0.0019702
3790.0 0.001894
3810.0 0.0017508
3830.0 0.0015307
3850.0 0.0012976
3870.0 0.0011773
3890.0 0.001317
3910.0 0.0016659
3930.0 0.0020149
3950.0 0.0022222
3970.0 0.00231
3990.0 0.0024063
4010.0 0.002462
4030.0 0.0022213
4050.0 0.001753
4070.0 0.0015127
4090.0 0.0015945
4110.0 0.0017554
4130.0 0.0018458
4150.0 0.0018557
4170.0 0.0018134
4190.0 0.0017825
4210.0 0.0018277
4230.0 0.0019343
4250.0 0.002021
4270.0 0.0020532
4290.0 0.0020249
4310.0 0.0020379
4330.0 0.0021617
4350.0 0.002308
4370.0 0.0022973
4390.0 0.0021307
4410.0 0.0018806
4430.0 0.0015744
4450.0 0.0013582
4470.0 0.0013511
4490.0 0.0014759
4510.0 0.0016354
4530.0 0.0018079
4550.0 0.0020779
4570.0 0.0025967
4590.0 0.0033363
4610.0 0.0039408
4630.0 0.0042455
4650.0 0.0044963
4670.0 0.0047399
4690.0 0.0046359
4710.0 0.0040429
4730.0 0.0032586
4750.0 0.0026267
4770.0 0.0022454
4790.0 0.002105
4810.0 0.0021045
4830.0 0.0022517
4850.0 0.0025459
4870.0 0.0028093
4890.0 0.0028952
4910.0 0.0029632
4930.0 0.0032414
4950.0 0.0036166
4970.0 0.0038102
4990.0 0.0037049
5010.0 0.0033183
5030.0 0.0027791
5050.0 0.0023228
5070.0 0.0020436
5090.0 0.0019291
5110.0 0.0019292
5130.0 0.0019478
5150.0 0.0019305
5170.0 0.0018879
5190.0 0.0019087
5210.0 0.002048
5230.0 0.0022996
5250.0 0.0026779
5270.0 0.003071
5290.0 0.0033349
5310.0 0.0035432
5330.0 0.0038075
5350.0 0.0039997
5370.0 0.0039435
5390.0 0.0037211
5410.0 0.0035553
5430.0 0.0036573
5450.0 0.004078
5470.0 0.0045962
5490.0 0.0049475
5510.0 0.005042
5530.0 0.0049569
5550.0 0.0047754
5570.0 0.0045598
5590.0 0.0043572
5610.0 0.0042046
5630.0 0.0041257
5650.0 0.0040186
5670.0 0.0037471
5690.0 0.0033708
5710.0 0.0030344
5730.0 0.0027905
5750.0 0.0026929
5770.0 0.0027304
5790.0 0.0027776
5810.0 0.0027762
5830.0 0.0027497
5850.0 0.0026709
5870.0 0.0025609
5890.0 0.0025135
5910.0 0.0025195
5930.0 0.0024536
5950.0 0.0022612
5970.0 0.0019748
5990.0 0.00166
6010.0 0.0014375
6030.0 0.0013769
6050.0 0.0014518
6070.0 0.0015217
6090.0 0.0014706
6110.0 0.0013874
6130.0 0.0014157
6150.0 0.0015352
6170.0 0.0016449
6190.0 0.0017077
6210.0 0.0017271
6230.0 0.00168
6250.0 0.0015308
6270.0 0.0013175
6290.0 0.0011421
6310.0 0.00108
6330.0 0.0011128
6350.0 0.0011699
6370.0 0.0012434
6390.0 0.0014006
6410.0 0.0016368
6430.0 0.0018334
6450.0 0.0019313
6470.0 0.0019856
6490.0 0.0020253
6510.0 0.0020417
6530.0 0.0020526
6550.0 0.0020803
6570.0 0.0021149
6590.0 0.0021385
6610.0 0.0021129
6630.0 0.0020182
6650.0 0.0018747
6670.0 0.0017381
6690.0 0.00165
6710.0 0.0015834
6730.0 0.0015128
6750.0 0.001479
6770.0 0.001513
6790.0 0.0015616
6810.0 0.0015766
6830.0 0.0015516
6850.0 0.0014908
6870.0 0.001429
6890.0 0.0013943
6910.0 0.0013981
6930.0 0.0014218
6950.0 0.0014406
6970.0 0.001457
6990.0 0.0014524
7010.0 0.0014064
7030.0 0.0013109
7050.0 0.0011866
7070.0 0.0010995
7090.0 0.001088
7110.0 0.0011058
7130.0 0.0010678
7150.0 0.0009917
7170.0 0.00098198
7190.0 0.0010697
7210.0 0.0011926
7230.0 0.0012923
7250.0 0.001333
7270.0 0.0013041
7290.0 0.0012369
7310.0 0.0011856
7330.0 0.0011875
7350.0 0.0012161
7370.0 0.0012393
7390.0 0.0012926
7410.0 0.0013994
7430.0 0.0015217
7450.0 0.0016166
7470.0 0.0016442
7490.0 0.0015654
7510.0 0.0014588
7530.0 0.0014065
7550.0 0.0013434
7570.0 0.0012752
7590.0 0.001245
7610.0 0.0012541
7630.0 0.0013056
7650.0 0.0014047
7670.0 0.0015301
7690.0 0.001646
7710.0 0.0017328
7730.0 0.0018079
7750.0 0.0018719
7770.0 0.0019064
7790.0 0.0019444
7810.0 0.0019562
7830.0 0.0019046
7850.0 0.0018456
7870.0 0.0018155
7890.0 0.0018234
7910.0 0.0018341
7930.0 0.0018001
7950.0 0.0017481
7970.0 0.0016927
7990.0 0.0016454
8010.0 0.0015747
8030.0 0.001584
8050.0 0.0015878
8070.0 0.001573
8090.0 0.0015638
8110.0 0.0015456
8130.0 0.0015526
8150.0 0.0015468
8170.0 0.0015251
8190.0 0.0014877
8210.0 0.001444
8230.0 0.0014025
8250.0 0.0013909
8270.0 0.001315
8290.0 0.0011456
8310.0 0.00095484
8330.0 0.000825
8350.0 0.00079407
8370.0 0.00088254
8390.0 0.001011
8410.0 0.0010822
8430.0 0.0011265
8450.0 0.0012072
8470.0 0.0013068
8490.0 0.0014416
8510.0 0.0015982
8530.0 0.0017622
8550.0 0.0018941
8570.0 0.0019936
8590.0 0.0020697
8610.0 0.0021156
8630.0 0.0021144
8650.0 0.0020839
8670.0 0.0020922
8690.0 0.0022049
8710.0 0.0023565
8730.0 0.0024324
8750.0 0.0024209
8770.0 0.0024516
8790.0 0.0024582
8810.0 0.0023561
8830.0 0.0021916
8850.0 0.0019829
8870.0 0.0018244
8890.0 0.0017784
8910.0 0.0017517
8930.0 0.0016439
8950.0 0.0015251
8970.0 0.0014782
8990.0 0.0014859
9010.0 0.0014614
9030.0 0.0014354
9050.0 0.0014221
9070.0 0.0014151
9090.0 0.0014089
9110.0 0.0014029
9130.0 0.0013969
9150.0 0.001391
9170.0 0.0013849
9190.0 0.00138
9210.0 0.001377
9230.0 0.0013701
9250.0 0.0013638
9270.0 0.001358
9290.0 0.0013524
9310.0 0.001347
9330.0 0.0013417
9350.0 0.0013366
9370.0 0.0013316
9390.0 0.0013265
9410.0 0.0013216
9430.0 0.0013165
9450.0 0.0013097
9470.0 0.0013035
9490.0 0.0013007
9510.0 0.001297
9530.0 0.0012931
9550.0 0.001289
9570.0 0.0012847
9590.0 0.0012805
9610.0 0.0012762
9630.0 0.0012719
9650.0 0.0012677
9670.0 0.0012636
9690.0 0.0012595
9710.0 0.0012553
9730.0 0.0012513
9750.0 0.0012473
9770.0 0.0012432
9790.0 0.0012392
9810.0 0.0012353
9830.0 0.0012313
9850.0 0.0012273
9870.0 0.0012234
9890.0 0.0012195
9910.0 0.0012155
9930.0 0.0012115
9950.0 0.0012031
9970.0 0.0012004
9990.0 0.0011975
10010.0 0.0011945
10030.0 0.001191
10050.0 0.0011872
10070.0 0.0011834
10090.0 0.0011796
10110.0 0.0011751
10130.0 0.0011696
10150.0 0.0011657
10170.0 0.0011619
10190.0 0.0011576
10210.0 0.0011535
10230.0 0.0011495
10250.0 0.0011449
10270.0 0.0011402
10290.0 0.0011359
10310.0 0.0011311
10330.0 0.001126
10350.0 0.0011212
10370.0 0.0011164
10390.0 0.0011111
10410.0 0.0011058
10430.0 0.0011009
10450.0 0.0010955
10470.0 0.0010898
10490.0 0.0010843
10510.0 0.0010789
10530.0 0.0010726
10550.0 0.0010666
10570.0 0.0010608
10590.0 0.0010546
10610.0 0.0010481
10630.0 0.0010419
10650.0 0.0010355
10670.0 0.0010285
10690.0 0.0010217
10710.0 0.001015
10730.0 0.0010078
10750.0 0.0010001
10770.0 0.00099298
10790.0 0.0009856
10810.0 0.00097771
10830.0 0.00096989
10850.0 0.00096231
10870.0 0.00095389
10890.0 0.00094534
10910.0 0.00093708
10930.0 0.00092853
10950.0 0.00091938
10970.0 0.00091033
10990.0 0.00090153
11010.0 0.00096562
11030.0 0.00095582
11050.0 0.0009464
11070.0 0.00093682
11090.0 0.00092656
11110.0 0.000917
11130.0 0.00090765
11150.0 0.00089796
11170.0 0.00088831
11190.0 0.00087924
11210.0 0.00086997
11230.0 0.0008605
11250.0 0.0008515
11270.0 0.00084281
11290.0 0.00083385
11310.0 0.00082507
11330.0 0.00081698
11350.0 0.00080877
11370.0 0.00080044
11390.0 0.00079239
11410.0 0.0007844
11430.0 0.00077573
11450.0 0.00076694
11470.0 0.00075805
11490.0 0.00074851
11510.0 0.00073811
11530.0 0.00072758
11550.0 0.00071659
11570.0 0.00070459
11590.0 0.00069218
11610.0 0.00067972
11630.0 0.00066643
11650.0 0.00065251
11670.0 0.00063899
11690.0 0.00062536
11710.0 0.00061125
11730.0 0.0005973
11750.0 0.00058394
11770.0 0.00057019
11790.0 0.00055641
11810.0 0.00054318
11830.0 0.00053012
11850.0 0.0005166
11870.0 0.00050362
11890.0 0.0004912
11910.0 0.00047866
11930.0 0.00046623
11950.0 0.00045452
11970.0 0.00044304
11990.0 0.00043151
12010.0 0.00042069
12030.0 0.00041052
12050.0 0.0004006
12070.0 0.0003911
12090.0 0.00038267
12110.0 0.00037475
12130.0 0.00036734
12150.0 0.0003608
12170.0 0.00035512
12190.0 0.00034999
12210.0 0.00034576
12230.0 0.00034244
12250.0 0.00033992
12270.0 0.00033823
12290.0 0.00033737
12310.0 0.0003372
12330.0 0.00033781
12350.0 0.00033908
12370.0 0.00034079
12390.0 0.00034299
12410.0 0.00034582
12430.0 0.00034868
12450.0 0.00035166
12470.0 0.00035491
12490.0 0.00035816
12510.0 0.00036111
12530.0 0.00036407
12550.0 0.00036692
12570.0 0.00036932
12590.0 0.00037132
12610.0 0.00037305
12630.0 0.00037424
12650.0 0.0003747
12670.0 0.00037463
12690.0 0.00037394
12710.0 0.00037252
12730.0 0.00037043
12750.0 0.00036763
12770.0 0.00036416
12790.0 0.00036011
12810.0 0.00035548
12830.0 0.00035026
12850.0 0.00034479
12870.0 0.00033905
12890.0 0.00033295
12910.0 0.00032677
12930.0 0.00032069
12950.0 0.00031446
12970.0 0.00030824
12990.0 0.00030235
13010.0 0.0002966
13030.0 0.00029091
13050.0 0.00028546
13070.0 0.00028033
13090.0 0.00027525
13110.0 0.00027031
13130.0 0.00026566
13150.0 0.00026117
13170.0 0.00025669
13190.0 0.00025248
13210.0 0.0002485
13230.0 0.00024459
13250.0 0.00024081
13270.0 0.00023729
13290.0 0.00023387
13310.0 0.00023052
13330.0 0.00022737
13350.0 0.00022441
13370.0 0.00022152
13390.0 0.00021874
13410.0 0.00021619
13430.0 0.00021373
13450.0 0.00021135
13470.0 0.00020911
13490.0 0.000207
13510.0 0.0002049
13530.0 0.00020288
13550.0 0.00020095
13570.0 0.00019904
13590.0 0.00019713
13610.0 0.00019526
13630.0 0.00019342
13650.0 0.00019153
13670.0 0.00018965
13690.0 0.00018781
13710.0 0.00018595
13730.0 0.00018404
13750.0 0.00018222
13770.0 0.00018043
13790.0 0.00017864
13810.0 0.00017689
13830.0 0.00017524
13850.0 0.0001736
13870.0 0.000172
13890.0 0.00017049
13910.0 0.00016905
13930.0 0.00016761
13950.0 0.00016623
13970.0 0.00016493
13990.0 0.00016363
14010.0 0.00016233
14030.0 0.00016106
14050.0 0.0001598
14070.0 0.00015847
14090.0 0.00015714
14110.0 0.00015582
14130.0 0.00015444
14150.0 0.00015302
14170.0 0.00015164
14190.0 0.00015027
14210.0 0.00014887
14230.0 0.00014753
14250.0 0.00014628
14270.0 0.00014505
14290.0 0.0001439
14310.0 0.0001429
14330.0 0.000142
14350.0 0.00014119
14370.0 0.00014052
14390.0 0.00013997
14410.0 0.0001395
14430.0 0.00013912
14450.0 0.00013882
14470.0 0.00013859
14490.0 0.00013839
14510.0 0.00013823
14530.0 0.00013811
14550.0 0.000138
14570.0 0.00013791
14590.0 0.00013786
14610.0 0.00013785
14630.0 0.0001379
14650.0 0.00013804
14670.0 0.0001383
14690.0 0.00013871
14710.0 0.00013932
14730.0 0.00014011
14750.0 0.00014116
14770.0 0.00014252
14790.0 0.00014416
14810.0 0.0001461
14830.0 0.00014851
14850.0 0.00015128
14870.0 0.00015432
14890.0 0.00015773
14910.0 0.00016148
14930.0 0.00016526
14950.0 0.00016897
14970.0 0.00017265
14990.0 0.00017595
15010.0 0.00017873
15030.0 0.00018108
15050.0 0.00018298
15070.0 0.00018439
15090.0 0.00018551
15110.0 0.00018643
15130.0 0.00018722
15150.0 0.00018795
15170.0 0.00018865
15190.0 0.00018934
15210.0 0.00019005
15230.0 0.00019077
15250.0 0.0001915
15270.0 0.00019224
15290.0 0.000193
15310.0 0.00019377
15330.0 0.00019456
15350.0 0.00019536
15370.0 0.00019618
15390.0 0.00019701
15410.0 0.00019785
15430.0 0.0001987
15450.0 0.00019957
15470.0 0.00020045
15490.0 0.00020135
15510.0 0.00020225
15530.0 0.00020317
15550.0 0.0002041
15570.0 0.00020504
15590.0 0.000206
15610.0 0.00020696
15630.0 0.00020793
15650.0 0.00020892
15670.0 0.00020992
15690.0 0.00021092
15710.0 0.00021194
15730.0 0.00021296
15750.0 0.000214
15770.0 0.00021504
15790.0 0.00021609
15810.0 0.00021715
15830.0 0.00021822
15850.0 0.0002193
15870.0 0.00022038
15890.0 0.00022147
15910.0 0.00022257
15930.0 0.00022368
15950.0 0.00022478
15970.0 0.0002259
15990.0 0.00022702
16010.0 0.00022815
16030.0 0.00022928
16050.0 0.00023041
16070.0 0.00023155
16090.0 0.0002327
16110.0 0.00023384
16130.0 0.00023499
16150.0 0.00023614
16170.0 0.00023729
16190.0 0.00023845
16210.0 0.0002396
16230.0 0.00024076
16250.0 0.00024192
16270.0 0.00024307
16290.0 0.00024423
16310.0 0.00024538
16330.0 0.00024654
16350.0 0.00024769
16370.0 0.00024884
16390.0 0.00024998
16410.0 0.00025113
16430.0 0.00025227
16450.0 0.0002534
16470.0 0.00025454
16490.0 0.00025566
16510.0 0.00025678
16530.0 0.0002579
16550.0 0.00025901
16570.0 0.00026011
16590.0 0.0002612
16610.0 0.00026229
16630.0 0.00026337
16650.0 0.00026444
16670.0 0.0002655
16690.0 0.00026656
16710.0 0.0002676
16730.0 0.00026863
16750.0 0.00026965
16770.0 0.00027066
16790.0 0.00027166
16810.0 0.00027265
16830.0 0.00027362
16850.0 0.00027458
16870.0 0.00027553
16890.0 0.00027646
16910.0 0.00027738
16930.0 0.00027829
16950.0 0.00027918
16970.0 0.00028005
16990.0 0.00028091
17010.0 0.00028175
17030.0 0.00028258
17050.0 0.00028338
17070.0 0.00028417
17090.0 0.00028495
17110.0 0.0002857
17130.0 0.00028644
17150.0 0.00028715
17170.0 0.00028785
17190.0 0.00028853
17210.0 0.00028919
17230.0 0.00028983
17250.0 0.00029045
17270.0 0.00029104
17290.0 0.00029162
17310.0 0.00029217
17330.0 0.0002927
17350.0 0.00029321
17370.0 0.0002937
17390.0 0.00029417
17410.0 0.00029461
17430.0 0.00029503
17450.0 0.00029543
17470.0 0.00029581
17490.0 0.00029616
17510.0 0.00029648
17530.0 0.00029679
17550.0 0.00029707
17570.0 0.00029732
17590.0 0.00029755
17610.0 0.00029776
17630.0 0.00029794
17650.0 0.0002981
17670.0 0.00029823
17690.0 0.00029834
17710.0 0.00029842
17730.0 0.00029848
17750.0 0.00029852
17770.0 0.00029852
17790.0 0.00029851
17810.0 0.00029847
17830.0 0.0002984
17850.0 0.00029831
17870.0 0.00029819
17890.0 0.00029805
17910.0 0.00029789
17930.0 0.0002977
17950.0 0.00029748
17970.0 0.00029724
17990.0 0.00029698
18010.0 0.00029669
18030.0 0.00029638
18050.0 0.00029604
18070.0 0.00029568
18090.0 0.0002953
18110.0 0.00029489
18130.0 0.00029446
18150.0 0.000294
18170.0 0.00029352
18190.0 0.00029302
18210.0 0.0002925
18230.0 0.00029195
18250.0 0.00029138
18270.0 0.00029079
18290.0 0.00029018
18310.0 0.00028954
18330.0 0.00028889
18350.0 0.00028821
18370.0 0.00028751
18390.0 0.00028679
18410.0 0.00028606
18430.0 0.0002853
18450.0 0.00028452
18470.0 0.00028372
18490.0 0.0002829
18510.0 0.00028207
18530.0 0.00028121
18550.0 0.00028034
18570.0 0.00027945
18590.0 0.00027854
18610.0 0.00027762
18630.0 0.00027668
18650.0 0.00027572
18670.0 0.00027475
18690.0 0.00027376
18710.0 0.00027275
18730.0 0.00027173
18750.0 0.0002707
18770.0 0.00026965
18790.0 0.00026858
18810.0 0.0002675
18830.0 0.00026641
18850.0 0.00026531
18870.0 0.00026419
18890.0 0.00026307
18910.0 0.00026193
18930.0 0.00026077
18950.0 0.00025961
18970.0 0.00025844
18990.0 0.00025726
19010.0 0.00025606
19030.0 0.00025486
19050.0 0.00025365
19070.0 0.00025242
19090.0 0.00025119
19110.0 0.00024996
19130.0 0.00024871
19150.0 0.00024746
19170.0 0.0002462
19190.0 0.00024493
19210.0 0.00024365
19230.0 0.00024237
19250.0 0.00024109
19270.0 0.0002398
19290.0 0.0002385
19310.0 0.0002372
19330.0 0.00023589
19350.0 0.00023458
19370.0 0.00023327
19390.0 0.00023195
19410.0 0.00023063
19430.0 0.00022931
19450.0 0.00022799
19470.0 0.00022666
19490.0 0.00022533
19510.0 0.000224
19530.0 0.00022267
19550.0 0.00022133
19570.0 0.00022
19590.0 0.00021866
19610.0 0.00021733
19630.0 0.00021599
19650.0 0.00021466
19670.0 0.00021333
19690.0 0.00021199
19710.0 0.00021066
19730.0 0.00020933
19750.0 0.000208
19770.0 0.00020667
19790.0 0.00020535
19810.0 0.00020403
19830.0 0.0002027
19850.0 0.00020137
19870.0 0.00020002
19890.0 0.00019864
19910.0 0.00019718
19930.0 0.00019561
19950.0 0.00019388
19970.0 0.00019189
19990.0 0.00018959
20010.0 0.00018703
20030.0 0.00018409
20050.0 0.0001808
20070.0 0.00017733
20090.0 0.00017371
20110.0 0.00016982
20130.0 0.00016597
20150.0 0.00016222
20170.0 0.00015845
20190.0 0.00015472
20210.0 0.00015119
20230.0 0.00014778
20250.0 0.00014439
20270.0 0.0001412
20290.0 0.00013821
20310.0 0.00013532
20330.0 0.00013252
20350.0 0.00013001
20370.0 0.00012763
20390.0 0.00012537
20410.0 0.0001233
20430.0 0.00012141
20450.0 0.00011961
20470.0 0.00011797
20490.0 0.00011648
20510.0 0.00011511
20530.0 0.00011384
20550.0 0.00011268
20570.0 0.00011163
20590.0 0.00011064
20610.0 0.00010973
20630.0 0.00010887
20650.0 0.00010806
20670.0 0.00010728
20690.0 0.00010653
20710.0 0.00010579
20730.0 0.00010506
20750.0 0.00010431
20770.0 0.00010356
20790.0 0.00010278
20810.0 0.00010198
20830.0 0.00010114
20850.0 0.00010028
20870.0 9.9365e-05
20890.0 9.8413e-05
20910.0 9.7439e-05
20930.0 9.6425e-05
20950.0 9.5369e-05
20970.0 9.4298e-05
20990.0 9.321e-05
21010.0 9.2079e-05
21030.0 9.0939e-05
21050.0 8.9806e-05
21070.0 8.8658e-05
21090.0 8.749e-05
21110.0 8.6354e-05
21130.0 8.5232e-05
21150.0 8.4101e-05
21170.0 8.2991e-05
21190.0 8.1919e-05
21210.0 8.0846e-05
21230.0 7.9786e-05
21250.0 7.8772e-05
21270.0 7.7785e-05
21290.0 7.6809e-05
21310.0 7.5867e-05
21330.0 7.4974e-05
21350.0 7.4097e-05
21370.0 7.3247e-05
21390.0 7.2441e-05
21410.0 7.167e-05
21430.0 7.0915e-05
21450.0 7.0206e-05
21470.0 6.9537e-05
21490.0 6.8895e-05
21510.0 6.8283e-05
21530.0 6.7709e-05
21550.0 6.7163e-05
21570.0 6.664e-05
21590.0 6.6146e-05
21610.0 6.5676e-05
21630.0 6.5225e-05
21650.0 6.4792e-05
21670.0 6.4378e-05
21690.0 6.3976e-05
21710.0 6.3587e-05
21730.0 6.3208e-05
21750.0 6.2838e-05
21770.0 6.2476e-05
21790.0 6.2121e-05
21810.0 6.1772e-05
21830.0 6.1428e-05
21850.0 6.109e-05
21870.0 6.0755e-05
21890.0 6.0424e-05
21910.0 6.0097e-05
21930.0 5.9773e-05
21950.0 5.9449e-05
21970.0 5.9127e-05
21990.0 5.8805e-05
22010.0 5.848e-05
22030.0 5.8153e-05
22050.0 5.7822e-05
22070.0 5.7486e-05
22090.0 5.7144e-05
22110.0 5.6796e-05
22130.0 5.644e-05
22150.0 5.6077e-05
22170.0 5.5707e-05
22190.0 5.5325e-05
22210.0 5.4934e-05
22230.0 5.454e-05
22250.0 5.4135e-05
22270.0 5.3717e-05
22290.0 5.3294e-05
22310.0 5.2864e-05
22330.0 5.2413e-05
22350.0 5.1952e-05
22370.0 5.1484e-05
22390.0 5.0997e-05
22410.0 5.0484e-05
22430.0 4.9966e-05
22450.0 4.9432e-05
22470.0 4.8867e-05
22490.0 4.8286e-05
22510.0 4.7698e-05
22530.0 4.7075e-05
22550.0 4.6425e-05
22570.0 4.5778e-05
22590.0 4.5117e-05
22610.0 4.4429e-05
22630.0 4.3738e-05
22650.0 4.3065e-05
22670.0 4.2374e-05
22690.0 4.168e-05
22710.0 4.1011e-05
22730.0 4.0355e-05
22750.0 3.9686e-05
22770.0 3.9054e-05
22790.0 3.8456e-05
22810.0 3.7869e-05
22830.0 3.7302e-05
22850.0 3.6779e-05
22870.0 3.6277e-05
22890.0 3.579e-05
22910.0 3.5339e-05
22930.0 3.4919e-05
22950.0 3.4515e-05
22970.0 3.4129e-05
22990.0 3.378e-05
23010.0 3.3444e-05
23030.0 3.312e-05
