#lamb flux
1010.0 4.2184e-09
1030.0 4.6185e-09
1050.0 5.0788e-09
1070.0 5.5969e-09
1090.0 6.1855e-09
1110.0 6.7891e-09
1130.0 7.3966e-09
1150.0 8.033e-09
1170.0 8.6895e-09
1190.0 9.3119e-09
1210.0 9.9428e-09
1230.0 1.0595e-08
1250.0 1.1233e-08
1270.0 1.1854e-08
1290.0 1.2509e-08
1310.0 1.3164e-08
1330.0 1.3792e-08
1350.0 1.4427e-08
1370.0 1.5083e-08
1390.0 1.5722e-08
1410.0 1.6342e-08
1430.0 1.6991e-08
1450.0 1.7639e-08
1470.0 1.8265e-08
1490.0 1.8899e-08
1510.0 1.9567e-08
1530.0 2.0201e-08
1550.0 2.0826e-08
1570.0 2.1473e-08
1590.0 2.212e-08
1610.0 2.2738e-08
1630.0 2.3375e-08
1650.0 2.4029e-08
1670.0 2.4662e-08
1690.0 2.5286e-08
1710.0 2.5934e-08
1730.0 2.6585e-08
1750.0 2.7197e-08
1770.0 2.7827e-08
1790.0 2.8469e-08
1810.0 2.909e-08
1830.0 2.97e-08
1850.0 3.0346e-08
1870.0 3.0975e-08
1890.0 3.1581e-08
1910.0 3.2198e-08
1930.0 3.2829e-08
1950.0 3.3428e-08
1970.0 3.4018e-08
1990.0 3.4629e-08
2010.0 3.5227e-08
2030.0 3.5798e-08
2050.0 3.6385e-08
2070.0 3.6984e-08
2090.0 3.7541e-08
2110.0 3.8092e-08
2130.0 3.8656e-08
2150.0 3.9201e-08
2170.0 3.9714e-08
2190.0 4.0241e-08
2210.0 4.0764e-08
2230.0 4.1255e-08
2250.0 4.1734e-08
2270.0 4.223e-08
2290.0 4.2697e-08
2310.0 4.313e-08
2330.0 4.3576e-08
2350.0 4.4028e-08
2370.0 4.4467e-08
2390.0 4.4949e-08
2410.0 4.5547e-08
2430.0 4.6259e-08
2450.0 4.7147e-08
2470.0 4.8339e-08
2490.0 4.9895e-08
2510.0 5.169e-08
2530.0 5.3894e-08
2550.0 5.6705e-08
2570.0 6.024e-08
2590.0 6.4857e-08
2610.0 7.1792e-08
2630.0 8.1622e-08
2650.0 9.4317e-08
2670.0 1.1054e-07
2690.0 1.302e-07
2710.0 1.5084e-07
2730.0 1.7085e-07
2750.0 1.9019e-07
2770.0 2.0653e-07
2790.0 2.1899e-07
2810.0 2.2837e-07
2830.0 2.352e-07
2850.0 2.3925e-07
2870.0 2.4173e-07
2890.0 2.433e-07
2910.0 2.442e-07
2930.0 2.4465e-07
2950.0 2.4502e-07
2970.0 2.4536e-07
2990.0 2.4562e-07
3010.0 7.629e-06
3030.0 7.6366e-06
3050.0 7.6437e-06
3070.0 7.6449e-06
3090.0 7.6409e-06
3110.0 7.6235e-06
3130.0 7.5827e-06
3150.0 7.5112e-06
3170.0 7.3941e-06
3190.0 7.2333e-06
3210.0 7.0408e-06
3230.0 6.8259e-06
3250.0 6.6069e-06
3270.0 6.4438e-06
3290.0 6.3283e-06
3310.0 6.3119e-06
3330.0 6.3704e-06
3350.0 6.4987e-06
3370.0 6.6961e-06
3390.0 6.9534e-06
3410.0 7.2382e-06
3430.0 7.5613e-06
3450.0 7.9359e-06
3470.0 8.3477e-06
3490.0 8.7879e-06
3510.0 9.2882e-06
3530.0 9.8306e-06
3550.0 1.04e-05
3570.0 1.1015e-05
3590.0 1.1693e-05
3610.0 1.2428e-05
3630.0 1.3155e-05
3650.0 1.392e-05
3670.0 1.4609e-05
3690.0 1.512e-05
3710.0 1.5387e-05
3730.0 1.5286e-05
3750.0 1.4844e-05
3770.0 1.5092e-05
3790.0 1.4921e-05
3810.0 1.2669e-05
3830.0 1.2674e-05
3850.0 1.6978e-05
3870.0 1.7341e-05
3890.0 1.4585e-05
3910.0 1.3879e-05
3930.0 1.5876e-05
3950.0 1.7951e-05
3970.0 1.8643e-05
3990.0 1.3361e-05
4010.0 3.1908e-05
4030.0 3.4917e-05
4050.0 3.9399e-05
4070.0 3.9033e-05
4090.0 3.611e-05
4110.0 3.097e-05
4130.0 3.3628e-05
4150.0 4.2009e-05
4170.0 3.5667e-05
4190.0 3.3917e-05
4210.0 3.6426e-05
4230.0 4.2497e-05
4250.0 5.1008e-05
4270.0 5.4183e-05
4290.0 4.8284e-05
4310.0 4.649e-05
4330.0 4.7e-05
4350.0 5.7332e-05
4370.0 6.836e-05
4390.0 5.7342e-05
4410.0 3.5195e-05
4430.0 2.6891e-05
4450.0 2.5133e-05
4470.0 1.6546e-05
4490.0 2.3649e-05
4510.0 4.6753e-05
4530.0 5.6231e-05
4550.0 5.34e-05
4570.0 5.1276e-05
4590.0 5.5778e-05
4610.0 9.8439e-05
4630.0 0.00013588
4650.0 0.00013392
4670.0 0.00011941
4690.0 0.00011873
4710.0 0.0001243
4730.0 0.00010708
4750.0 7.3157e-05
4770.0 5.0827e-05
4790.0 5.3054e-05
4810.0 5.4391e-05
4830.0 5.2554e-05
4850.0 5.7081e-05
4870.0 7.5553e-05
4890.0 8.7915e-05
4910.0 7.1112e-05
4930.0 6.7322e-05
4950.0 7.6533e-05
4970.0 0.00010049
4990.0 0.00013596
5010.0 0.0001575
5030.0 0.00012988
5050.0 8.2368e-05
5070.0 5.7102e-05
5090.0 4.3848e-05
5110.0 4.2159e-05
5130.0 5.0296e-05
5150.0 5.0649e-05
5170.0 4.8298e-05
5190.0 4.3508e-05
5210.0 4.7742e-05
5230.0 5.6284e-05
5250.0 6.4171e-05
5270.0 6.2086e-05
5290.0 6.7338e-05
5310.0 8.6784e-05
5330.0 9.4451e-05
5350.0 9.333e-05
5370.0 0.00010262
5390.0 0.00012523
5410.0 0.00011232
5430.0 9.0444e-05
5450.0 8.8584e-05
5470.0 0.00010002
5490.0 0.00012398
5510.0 0.00015176
5530.0 0.00017561
5550.0 0.00016197
5570.0 0.000146
5590.0 0.00012205
5610.0 0.0001202
5630.0 0.00012966
5650.0 0.00012015
5670.0 0.00011128
5690.0 9.2485e-05
5710.0 9.3763e-05
5730.0 8.9699e-05
5750.0 5.2931e-05
5770.0 3.8702e-05
5790.0 4.6564e-05
5810.0 4.9931e-05
5830.0 7.2514e-05
5850.0 9.2586e-05
5870.0 0.00010072
5890.0 9.8066e-05
5910.0 9.578e-05
5930.0 9.1665e-05
5950.0 9.4142e-05
5970.0 0.00011434
5990.0 9.7619e-05
6010.0 7.7165e-05
6030.0 6.3718e-05
6050.0 5.6475e-05
6070.0 6.3796e-05
6090.0 7.0869e-05
6110.0 7.4149e-05
6130.0 7.0542e-05
6150.0 5.7003e-05
6170.0 4.5621e-05
6190.0 5.3882e-05
6210.0 8.1105e-05
6230.0 0.00011654
6250.0 0.00012618
6270.0 0.00010013
6290.0 8.5392e-05
6310.0 6.5552e-05
6330.0 4.8437e-05
6350.0 4.6299e-05
6370.0 4.8619e-05
6390.0 5.7486e-05
6410.0 7.3612e-05
6430.0 8.7926e-05
6450.0 0.00010591
6470.0 0.00011392
6490.0 0.00013655
6510.0 0.00015299
6530.0 0.00015502
6550.0 0.00014201
6570.0 0.00011492
6590.0 0.00010755
6610.0 8.9937e-05
6630.0 9.0492e-05
6650.0 8.7581e-05
6670.0 7.8119e-05
6690.0 6.2551e-05
6710.0 6.0087e-05
6730.0 2.9723e-05
6750.0 3.6842e-05
6770.0 5.3491e-05
6790.0 6.8878e-05
6810.0 5.1432e-05
6830.0 5.2601e-05
6850.0 4.4858e-05
6870.0 4.1633e-05
6890.0 3.6242e-05
6910.0 4.2918e-05
6930.0 4.0388e-05
6950.0 4.6708e-05
6970.0 4.879e-05
6990.0 5.4438e-05
7010.0 5.2884e-05
7030.0 5.9333e-05
7050.0 5.2472e-05
7070.0 4.4988e-05
7090.0 4.7651e-05
7110.0 5.0421e-05
7130.0 5.7301e-05
7150.0 6.4029e-05
7170.0 7.1633e-05
7190.0 7.7177e-05
7210.0 7.0315e-05
7230.0 7.1479e-05
7250.0 7.6492e-05
7270.0 8.2127e-05
7290.0 0.00010063
7310.0 0.00010738
7330.0 0.00010153
7350.0 9.1198e-05
7370.0 7.0267e-05
7390.0 7.121e-05
7410.0 8.4275e-05
7430.0 9.5583e-05
7450.0 0.00010325
7470.0 9.59e-05
7490.0 7.8275e-05
7510.0 0.00011677
7530.0 0.00010852
7550.0 0.00010171
7570.0 7.1285e-05
7590.0 3.5517e-05
7610.0 2.6716e-05
7630.0 3.7055e-05
7650.0 4.8142e-05
7670.0 7.2322e-05
7690.0 8.0245e-05
7710.0 7.493e-05
7730.0 7.5561e-05
7750.0 9.5738e-05
7770.0 9.8225e-05
7790.0 8.9814e-05
7810.0 7.4504e-05
7830.0 7.9918e-05
7850.0 8.5406e-05
7870.0 8.2402e-05
7890.0 6.5313e-05
7910.0 4.5893e-05
7930.0 4.6754e-05
7950.0 4.2354e-05
7970.0 3.6477e-05
7990.0 3.3801e-05
8010.0 1.2955e-05
8030.0 1.174e-05
8050.0 1.2771e-05
8070.0 1.465e-05
8090.0 1.8213e-05
8110.0 1.713e-05
8130.0 9.7802e-06
8150.0 1.033e-05
8170.0 5.3736e-06
8190.0 2.8803e-06
8210.0 9.2036e-06
8230.0 1.1275e-05
8250.0 3.8471e-06
8270.0 2.8995e-06
8290.0 6.664e-06
8310.0 6.0559e-06
8330.0 3.7081e-06
8350.0 2.9839e-06
8370.0 5.1825e-07
8390.0 3.1888e-06
8410.0 3.6408e-06
8430.0 4.5147e-06
8450.0 5.0999e-06
8470.0 8.8568e-06
8490.0 7.1513e-06
8510.0 5.3727e-06
8530.0 2.4309e-06
8550.0 9.9276e-06
8570.0 1.559e-05
8590.0 1.0509e-05
8610.0 1.6087e-05
8630.0 1.7468e-05
8650.0 8.8629e-06
8670.0 1.3645e-05
8690.0 2.1839e-05
8710.0 1.8578e-05
8730.0 2.0096e-05
8750.0 1.5605e-05
8770.0 1.3777e-05
8790.0 1.5391e-05
8810.0 1.6842e-05
8830.0 9.0338e-06
8850.0 3.469e-06
8870.0 2.3512e-06
8890.0 6.9327e-06
8910.0 1.1323e-05
8930.0 1.5204e-05
8950.0 1.6859e-05
8970.0 1.6167e-05
8990.0 1.1813e-05
9010.0 1.5133e-05
9030.0 1.173e-05
9050.0 1.2097e-05
9070.0 1.2497e-05
9090.0 1.2826e-05
9110.0 1.3228e-05
9130.0 1.3519e-05
9150.0 1.3727e-05
9170.0 1.3948e-05
9190.0 1.4185e-05
9210.0 1.4433e-05
9230.0 1.4696e-05
9250.0 1.496e-05
9270.0 1.5234e-05
9290.0 1.5514e-05
9310.0 1.5794e-05
9330.0 1.6077e-05
9350.0 1.637e-05
9370.0 1.6664e-05
9390.0 1.6958e-05
9410.0 1.7261e-05
9430.0 1.7571e-05
9450.0 1.7878e-05
9470.0 1.819e-05
9490.0 1.851e-05
9510.0 1.8833e-05
9530.0 1.9155e-05
9550.0 1.9488e-05
9570.0 1.9827e-05
9590.0 2.0164e-05
9610.0 2.0507e-05
9630.0 2.0859e-05
9650.0 2.1213e-05
9670.0 2.1565e-05
9690.0 2.1928e-05
9710.0 2.2296e-05
9730.0 2.2663e-05
9750.0 2.3035e-05
9770.0 2.342e-05
9790.0 2.3802e-05
9810.0 2.4185e-05
9830.0 2.4577e-05
9850.0 2.4974e-05
9870.0 2.5368e-05
9890.0 2.5769e-05
9910.0 2.6177e-05
9930.0 2.6585e-05
9950.0 2.6994e-05
9970.0 2.7413e-05
9990.0 2.7835e-05
10010.0 2.4578e-05
10030.0 2.4946e-05
10050.0 2.532e-05
10070.0 2.5691e-05
10090.0 2.6062e-05
10110.0 2.6442e-05
10130.0 2.6823e-05
10150.0 2.72e-05
10170.0 2.7581e-05
10190.0 2.7967e-05
10210.0 2.8349e-05
10230.0 2.8729e-05
10250.0 2.9116e-05
10270.0 2.9501e-05
10290.0 2.9882e-05
10310.0 3.0267e-05
10330.0 3.0656e-05
10350.0 3.1038e-05
10370.0 3.1419e-05
10390.0 3.1804e-05
10410.0 3.2187e-05
10430.0 3.2561e-05
10450.0 3.294e-05
10470.0 3.3319e-05
10490.0 3.3691e-05
10510.0 3.406e-05
10530.0 3.4435e-05
10550.0 3.4803e-05
10570.0 3.5162e-05
10590.0 3.5523e-05
10610.0 3.5884e-05
10630.0 3.6234e-05
10650.0 3.6581e-05
10670.0 3.6931e-05
10690.0 3.7273e-05
10710.0 3.7607e-05
10730.0 3.7941e-05
10750.0 3.8275e-05
10770.0 3.8594e-05
10790.0 3.8909e-05
10810.0 3.9223e-05
10830.0 3.9527e-05
10850.0 3.9816e-05
10870.0 4.0099e-05
10890.0 4.0355e-05
10910.0 4.0563e-05
10930.0 4.071e-05
10950.0 4.0757e-05
10970.0 4.0673e-05
10990.0 4.0444e-05
11010.0 3.9082e-05
11030.0 3.848e-05
11050.0 3.7728e-05
11070.0 3.6819e-05
11090.0 3.572e-05
11110.0 3.458e-05
11130.0 3.3392e-05
11150.0 3.2116e-05
11170.0 3.0806e-05
11190.0 2.9539e-05
11210.0 2.8237e-05
11230.0 2.6909e-05
11250.0 2.5645e-05
11270.0 2.4435e-05
11290.0 2.3228e-05
11310.0 2.2087e-05
11330.0 2.108e-05
11350.0 2.0128e-05
11370.0 1.9246e-05
11390.0 1.8477e-05
11410.0 1.7797e-05
11430.0 1.716e-05
11450.0 1.6602e-05
11470.0 1.611e-05
11490.0 1.5647e-05
11510.0 1.5195e-05
11530.0 1.4773e-05
11550.0 1.4352e-05
11570.0 1.3906e-05
11590.0 1.3449e-05
11610.0 1.2986e-05
11630.0 1.2489e-05
11650.0 1.1963e-05
11670.0 1.1447e-05
11690.0 1.0927e-05
11710.0 1.0394e-05
11730.0 9.8777e-06
11750.0 9.3993e-06
11770.0 8.9301e-06
11790.0 8.4888e-06
11810.0 8.0969e-06
11830.0 7.743e-06
11850.0 7.414e-06
11870.0 7.1335e-06
11890.0 6.8952e-06
11910.0 6.6817e-06
11930.0 6.4938e-06
11950.0 6.333e-06
11970.0 6.1866e-06
11990.0 6.0471e-06
12010.0 5.9171e-06
12030.0 5.7921e-06
12050.0 5.6646e-06
12070.0 5.5339e-06
12090.0 5.4081e-06
12110.0 5.281e-06
12130.0 5.1535e-06
12150.0 5.0339e-06
12170.0 4.9256e-06
12190.0 4.8265e-06
12210.0 4.747e-06
12230.0 4.6914e-06
12250.0 4.6608e-06
12270.0 4.6605e-06
12290.0 4.6913e-06
12310.0 4.7508e-06
12330.0 4.8465e-06
12350.0 4.9743e-06
12370.0 5.125e-06
12390.0 5.3033e-06
12410.0 5.5169e-06
12430.0 5.7351e-06
12450.0 5.9622e-06
12470.0 6.205e-06
12490.0 6.4491e-06
12510.0 6.6768e-06
12530.0 6.9031e-06
12550.0 7.1207e-06
12570.0 7.3105e-06
12590.0 7.4749e-06
12610.0 7.6196e-06
12630.0 7.7316e-06
12650.0 7.8034e-06
12670.0 7.8451e-06
12690.0 7.8522e-06
12710.0 7.8231e-06
12730.0 7.7619e-06
12750.0 7.666e-06
12770.0 7.5404e-06
12790.0 7.3917e-06
12810.0 7.2177e-06
12830.0 7.0196e-06
12850.0 6.8137e-06
12870.0 6.5977e-06
12890.0 6.3662e-06
12910.0 6.1323e-06
12930.0 5.9026e-06
12950.0 5.6649e-06
12970.0 5.4243e-06
12990.0 5.197e-06
13010.0 4.9734e-06
13030.0 4.7482e-06
13050.0 4.5321e-06
13070.0 4.3294e-06
13090.0 4.1263e-06
13110.0 3.9295e-06
13130.0 3.7472e-06
13150.0 3.5738e-06
13170.0 3.4034e-06
13190.0 3.2503e-06
13210.0 3.1138e-06
13230.0 2.9875e-06
13250.0 2.8764e-06
13270.0 2.7859e-06
13290.0 2.712e-06
13310.0 2.6561e-06
13330.0 2.6227e-06
13350.0 2.6104e-06
13370.0 2.6199e-06
13390.0 2.653e-06
13410.0 2.7039e-06
13430.0 2.7747e-06
13450.0 2.8661e-06
13470.0 2.9704e-06
13490.0 3.0832e-06
13510.0 3.2132e-06
13530.0 3.347e-06
13550.0 3.4769e-06
13570.0 3.6069e-06
13590.0 3.7354e-06
13610.0 3.8514e-06
13630.0 3.9539e-06
13650.0 4.0492e-06
13670.0 4.1297e-06
13690.0 4.1933e-06
13710.0 4.2439e-06
13730.0 4.2819e-06
13750.0 4.3029e-06
13770.0 4.3109e-06
13790.0 4.3068e-06
13810.0 4.2905e-06
13830.0 4.264e-06
13850.0 4.2269e-06
13870.0 4.1792e-06
13890.0 4.124e-06
13910.0 4.0613e-06
13930.0 3.9887e-06
13950.0 3.9095e-06
13970.0 3.8284e-06
13990.0 3.7403e-06
14010.0 3.6469e-06
14030.0 3.5539e-06
14050.0 3.4604e-06
14070.0 3.3619e-06
14090.0 3.2676e-06
14110.0 3.1789e-06
14130.0 3.0929e-06
14150.0 3.0118e-06
14170.0 2.9423e-06
14190.0 2.8817e-06
14210.0 2.8297e-06
14230.0 2.7905e-06
14250.0 2.7642e-06
14270.0 2.7499e-06
14290.0 2.7495e-06
14310.0 2.762e-06
14330.0 2.7868e-06
14350.0 2.8248e-06
14370.0 2.8732e-06
14390.0 2.9292e-06
14410.0 2.996e-06
14430.0 3.0703e-06
14450.0 3.1472e-06
14470.0 3.228e-06
14490.0 3.3148e-06
14510.0 3.399e-06
14530.0 3.4799e-06
14550.0 3.5616e-06
14570.0 3.641e-06
14590.0 3.714e-06
14610.0 3.7852e-06
14630.0 3.8561e-06
14650.0 3.9226e-06
14670.0 3.9868e-06
14690.0 4.0537e-06
14710.0 4.1236e-06
14730.0 4.1934e-06
14750.0 4.2704e-06
14770.0 4.3571e-06
14790.0 4.4509e-06
14810.0 4.5525e-06
14830.0 4.6723e-06
14850.0 4.8026e-06
14870.0 4.9388e-06
14890.0 5.0858e-06
14910.0 5.242e-06
14930.0 5.3928e-06
14950.0 5.5344e-06
14970.0 5.669e-06
14990.0 5.7831e-06
15010.0 5.8717e-06
15030.0 5.9391e-06
15050.0 5.9858e-06
15070.0 6.0117e-06
15090.0 6.0248e-06
15110.0 6.029e-06
15130.0 6.0275e-06
15150.0 6.0235e-06
15170.0 6.0175e-06
15190.0 6.0107e-06
15210.0 6.0042e-06
15230.0 5.9977e-06
15250.0 5.9908e-06
15270.0 5.9841e-06
15290.0 5.9781e-06
15310.0 5.9718e-06
15330.0 5.9654e-06
15350.0 5.9596e-06
15370.0 5.9538e-06
15390.0 5.9475e-06
15410.0 5.9416e-06
15430.0 5.9361e-06
15450.0 5.9303e-06
15470.0 5.9244e-06
15490.0 5.9191e-06
15510.0 5.9138e-06
15530.0 5.9081e-06
15550.0 5.9027e-06
15570.0 5.8978e-06
15590.0 5.8922e-06
15610.0 5.8865e-06
15630.0 5.8816e-06
15650.0 5.8765e-06
15670.0 5.871e-06
15690.0 5.8659e-06
15710.0 5.8611e-06
15730.0 5.8558e-06
15750.0 5.8504e-06
15770.0 5.8456e-06
15790.0 5.8406e-06
15810.0 5.8349e-06
15830.0 5.8298e-06
15850.0 5.8249e-06
15870.0 5.8196e-06
15890.0 5.8143e-06
15910.0 5.8094e-06
15930.0 5.8042e-06
15950.0 5.7985e-06
15970.0 5.7933e-06
15990.0 5.7882e-06
16010.0 5.7825e-06
16030.0 5.7767e-06
16050.0 5.7717e-06
16070.0 5.7662e-06
16090.0 5.7603e-06
16110.0 5.7548e-06
16130.0 5.7495e-06
16150.0 5.7432e-06
16170.0 5.7372e-06
16190.0 5.7316e-06
16210.0 5.7256e-06
16230.0 5.7192e-06
16250.0 5.7132e-06
16270.0 5.7073e-06
16290.0 5.7007e-06
16310.0 5.6942e-06
16330.0 5.6881e-06
16350.0 5.6815e-06
16370.0 5.6741e-06
16390.0 5.6676e-06
16410.0 5.661e-06
16430.0 5.6538e-06
16450.0 5.6466e-06
16470.0 5.64e-06
16490.0 5.6325e-06
16510.0 5.6248e-06
16530.0 5.6175e-06
16550.0 5.6101e-06
16570.0 5.6019e-06
16590.0 5.5939e-06
16610.0 5.5864e-06
16630.0 5.5782e-06
16650.0 5.5698e-06
16670.0 5.5617e-06
16690.0 5.5536e-06
16710.0 5.5444e-06
16730.0 5.5357e-06
16750.0 5.5272e-06
16770.0 5.5181e-06
16790.0 5.5086e-06
16810.0 5.4998e-06
16830.0 5.4907e-06
16850.0 5.4809e-06
16870.0 5.4713e-06
16890.0 5.462e-06
16910.0 5.4518e-06
16930.0 5.4413e-06
16950.0 5.4315e-06
16970.0 5.4214e-06
16990.0 5.4107e-06
17010.0 5.4002e-06
17030.0 5.39e-06
17050.0 5.3789e-06
17070.0 5.3677e-06
17090.0 5.3569e-06
17110.0 5.3458e-06
17130.0 5.3338e-06
17150.0 5.3224e-06
17170.0 5.3112e-06
17190.0 5.2993e-06
17210.0 5.2872e-06
17230.0 5.2756e-06
17250.0 5.2635e-06
17270.0 5.2507e-06
17290.0 5.2383e-06
17310.0 5.2261e-06
17330.0 5.2131e-06
17350.0 5.1999e-06
17370.0 5.1875e-06
17390.0 5.1744e-06
17410.0 5.1609e-06
17430.0 5.1478e-06
17450.0 5.1347e-06
17470.0 5.1206e-06
17490.0 5.1066e-06
17510.0 5.0932e-06
17530.0 5.0792e-06
17550.0 5.0647e-06
17570.0 5.0508e-06
17590.0 5.0368e-06
17610.0 5.0221e-06
17630.0 5.0074e-06
17650.0 4.9931e-06
17670.0 4.9783e-06
17690.0 4.9627e-06
17710.0 4.948e-06
17730.0 4.9332e-06
17750.0 4.9177e-06
17770.0 4.9023e-06
17790.0 4.8874e-06
17810.0 4.8716e-06
17830.0 4.8556e-06
17850.0 4.8401e-06
17870.0 4.8245e-06
17890.0 4.8081e-06
17910.0 4.7919e-06
17930.0 4.7763e-06
17950.0 4.76e-06
17970.0 4.7435e-06
17990.0 4.7274e-06
18010.0 4.7111e-06
18030.0 4.694e-06
18050.0 4.6773e-06
18070.0 4.6609e-06
18090.0 4.6439e-06
18110.0 4.6267e-06
18130.0 4.6101e-06
18150.0 4.5933e-06
18170.0 4.5758e-06
18190.0 4.5587e-06
18210.0 4.5418e-06
18230.0 4.5242e-06
18250.0 4.5063e-06
18270.0 4.4893e-06
18290.0 4.4719e-06
18310.0 4.454e-06
18330.0 4.4364e-06
18350.0 4.4192e-06
18370.0 4.4011e-06
18390.0 4.3831e-06
18410.0 4.3656e-06
18430.0 4.3478e-06
18450.0 4.3292e-06
18470.0 4.3113e-06
18490.0 4.2937e-06
18510.0 4.2754e-06
18530.0 4.2571e-06
18550.0 4.2394e-06
18570.0 4.2212e-06
18590.0 4.2025e-06
18610.0 4.1843e-06
18630.0 4.1663e-06
18650.0 4.1477e-06
18670.0 4.129e-06
18690.0 4.1111e-06
18710.0 4.0927e-06
18730.0 4.074e-06
18750.0 4.0557e-06
18770.0 4.0376e-06
18790.0 4.0185e-06
18810.0 3.9998e-06
18830.0 3.9817e-06
18850.0 3.9631e-06
18870.0 3.9441e-06
18890.0 3.9258e-06
18910.0 3.9076e-06
18930.0 3.8886e-06
18950.0 3.8699e-06
18970.0 3.8517e-06
18990.0 3.833e-06
19010.0 3.8137e-06
19030.0 3.7954e-06
19050.0 3.777e-06
19070.0 3.7581e-06
19090.0 3.7394e-06
19110.0 3.7213e-06
19130.0 3.7025e-06
19150.0 3.6835e-06
19170.0 3.6651e-06
19190.0 3.6467e-06
19210.0 3.6276e-06
19230.0 3.6089e-06
19250.0 3.5909e-06
19270.0 3.5722e-06
19290.0 3.5534e-06
19310.0 3.5352e-06
19330.0 3.5169e-06
19350.0 3.4977e-06
19370.0 3.4793e-06
19390.0 3.4611e-06
19410.0 3.4425e-06
19430.0 3.4238e-06
19450.0 3.4057e-06
19470.0 3.3875e-06
19490.0 3.3688e-06
19510.0 3.3505e-06
19530.0 3.3326e-06
19550.0 3.3139e-06
19570.0 3.2952e-06
19590.0 3.2774e-06
19610.0 3.2593e-06
19630.0 3.2407e-06
19650.0 3.2227e-06
19670.0 3.205e-06
19690.0 3.1866e-06
19710.0 3.1683e-06
19730.0 3.1506e-06
19750.0 3.1326e-06
19770.0 3.1141e-06
19790.0 3.0963e-06
19810.0 3.0787e-06
19830.0 3.0605e-06
19850.0 3.0423e-06
19870.0 3.0245e-06
19890.0 3.0056e-06
19910.0 2.9853e-06
19930.0 2.9639e-06
19950.0 2.94e-06
19970.0 2.9116e-06
19990.0 2.8782e-06
20010.0 2.617e-06
20030.0 2.5762e-06
20050.0 2.5291e-06
20070.0 2.4786e-06
20090.0 2.4247e-06
20110.0 2.3644e-06
20130.0 2.3037e-06
20150.0 2.2438e-06
20170.0 2.182e-06
20190.0 2.1197e-06
20210.0 2.0609e-06
20230.0 2.0037e-06
20250.0 1.9466e-06
20270.0 1.8935e-06
20290.0 1.845e-06
20310.0 1.7988e-06
20330.0 1.7556e-06
20350.0 1.7194e-06
20370.0 1.687e-06
20390.0 1.6583e-06
20410.0 1.6347e-06
20430.0 1.616e-06
20450.0 1.6008e-06
20470.0 1.5899e-06
20490.0 1.5832e-06
20510.0 1.5799e-06
20530.0 1.5801e-06
20550.0 1.5833e-06
20570.0 1.5889e-06
20590.0 1.5972e-06
20610.0 1.6077e-06
20630.0 1.6196e-06
20650.0 1.6333e-06
20670.0 1.6491e-06
20690.0 1.6655e-06
20710.0 1.6825e-06
20730.0 1.7009e-06
20750.0 1.7202e-06
20770.0 1.7391e-06
20790.0 1.759e-06
20810.0 1.7799e-06
20830.0 1.8005e-06
20850.0 1.8211e-06
20870.0 1.843e-06
20890.0 1.8652e-06
20910.0 1.8864e-06
20930.0 1.9083e-06
20950.0 1.9309e-06
20970.0 1.9527e-06
20990.0 1.9741e-06
21010.0 1.9966e-06
21030.0 2.0185e-06
21050.0 2.0392e-06
21070.0 2.0598e-06
21090.0 2.0805e-06
21110.0 2.0993e-06
21130.0 2.1168e-06
21150.0 2.1337e-06
21170.0 2.149e-06
21190.0 2.1621e-06
21210.0 2.1738e-06
21230.0 2.1835e-06
21250.0 2.1903e-06
21270.0 2.1945e-06
21290.0 2.1958e-06
21310.0 2.1937e-06
21330.0 2.1883e-06
21350.0 2.1793e-06
21370.0 2.1662e-06
21390.0 2.1495e-06
21410.0 2.1292e-06
21430.0 2.1036e-06
21450.0 2.0748e-06
21470.0 2.0434e-06
21490.0 2.0078e-06
21510.0 1.9688e-06
21530.0 1.9291e-06
21550.0 1.8874e-06
21570.0 1.8429e-06
21590.0 1.799e-06
21610.0 1.7565e-06
21630.0 1.7139e-06
21650.0 1.6722e-06
21670.0 1.6357e-06
21690.0 1.602e-06
21710.0 1.5714e-06
21730.0 1.546e-06
21750.0 1.526e-06
21770.0 1.5103e-06
21790.0 1.5005e-06
21810.0 1.4965e-06
21830.0 1.4978e-06
21850.0 1.5049e-06
21870.0 1.517e-06
21890.0 1.5331e-06
21910.0 1.5543e-06
21930.0 1.5795e-06
21950.0 1.6071e-06
21970.0 1.6379e-06
21990.0 1.6727e-06
22010.0 1.7076e-06
22030.0 1.7432e-06
22050.0 1.7807e-06
22070.0 1.8186e-06
22090.0 1.8546e-06
22110.0 1.891e-06
22130.0 1.9275e-06
22150.0 1.9617e-06
22170.0 1.994e-06
22190.0 2.0261e-06
22210.0 2.056e-06
22230.0 2.0824e-06
22250.0 2.1072e-06
22270.0 2.1301e-06
22290.0 2.1496e-06
22310.0 2.1663e-06
22330.0 2.181e-06
22350.0 2.1923e-06
22370.0 2.2002e-06
22390.0 2.2049e-06
22410.0 2.2062e-06
22430.0 2.2038e-06
22450.0 2.1978e-06
22470.0 2.1879e-06
22490.0 2.174e-06
22510.0 2.1567e-06
22530.0 2.1348e-06
22550.0 2.1083e-06
22570.0 2.0789e-06
22590.0 2.0458e-06
22610.0 2.0079e-06
22630.0 1.9668e-06
