#lamb flux
1010.0 3.4949e-07
1030.0 3.7208e-07
1050.0 3.9818e-07
1070.0 4.2759e-07
1090.0 4.6102e-07
1110.0 4.9539e-07
1130.0 5.3007e-07
1150.0 5.665e-07
1170.0 6.0418e-07
1190.0 6.4007e-07
1210.0 6.7658e-07
1230.0 7.1444e-07
1250.0 7.5171e-07
1270.0 7.8811e-07
1290.0 8.267e-07
1310.0 8.6545e-07
1330.0 9.0287e-07
1350.0 9.4092e-07
1370.0 9.8037e-07
1390.0 1.0191e-06
1410.0 1.057e-06
1430.0 1.0968e-06
1450.0 1.1368e-06
1470.0 1.1758e-06
1490.0 1.2154e-06
1510.0 1.2573e-06
1530.0 1.2974e-06
1550.0 1.3372e-06
1570.0 1.3784e-06
1590.0 1.4198e-06
1610.0 1.4596e-06
1630.0 1.5005e-06
1650.0 1.5425e-06
1670.0 1.5832e-06
1690.0 1.6233e-06
1710.0 1.6647e-06
1730.0 1.7061e-06
1750.0 1.7449e-06
1770.0 1.7844e-06
1790.0 1.8242e-06
1810.0 1.8624e-06
1830.0 1.8993e-06
1850.0 1.9379e-06
1870.0 1.9748e-06
1890.0 2.0097e-06
1910.0 2.0445e-06
1930.0 2.0794e-06
1950.0 2.1117e-06
1970.0 2.1427e-06
1990.0 2.1741e-06
2010.0 2.2039e-06
2030.0 2.2315e-06
2050.0 2.2593e-06
2070.0 2.2872e-06
2090.0 2.3121e-06
2110.0 2.3361e-06
2130.0 2.3604e-06
2150.0 2.3834e-06
2170.0 2.4042e-06
2190.0 2.4259e-06
2210.0 2.4474e-06
2230.0 2.4672e-06
2250.0 2.4867e-06
2270.0 2.5076e-06
2290.0 2.5274e-06
2310.0 2.5461e-06
2330.0 2.566e-06
2350.0 2.5866e-06
2370.0 2.6063e-06
2390.0 2.627e-06
2410.0 2.6498e-06
2430.0 2.6725e-06
2450.0 2.6955e-06
2470.0 2.7209e-06
2490.0 2.7499e-06
2510.0 2.7828e-06
2530.0 2.8292e-06
2550.0 2.9046e-06
2570.0 3.026e-06
2590.0 3.2142e-06
2610.0 3.5206e-06
2630.0 3.962e-06
2650.0 4.5193e-06
2670.0 5.2017e-06
2690.0 5.9896e-06
2710.0 6.7829e-06
2730.0 7.5317e-06
2750.0 8.2484e-06
2770.0 8.8739e-06
2790.0 9.3983e-06
2810.0 9.867e-06
2830.0 1.0316e-05
2850.0 1.0725e-05
2870.0 1.1132e-05
2890.0 1.1563e-05
2910.0 1.201e-05
2930.0 1.246e-05
2950.0 1.2942e-05
2970.0 1.3452e-05
2990.0 1.3966e-05
3010.0 4.9419e-05
3030.0 5.1307e-05
3050.0 5.3184e-05
3070.0 5.4878e-05
3090.0 5.6313e-05
3110.0 5.7094e-05
3130.0 5.6756e-05
3150.0 5.4795e-05
3170.0 5.0199e-05
3190.0 4.288e-05
3210.0 3.2976e-05
3230.0 2.1862e-05
3250.0 3.3516e-05
3270.0 2.096e-05
3290.0 4.8247e-05
3310.0 1.9019e-05
3330.0 1.8828e-05
3350.0 2.2549e-05
3370.0 2.7e-05
3390.0 3.1867e-05
3410.0 3.6744e-05
3430.0 4.1884e-05
3450.0 4.7071e-05
3470.0 5.1857e-05
3490.0 5.5208e-05
3510.0 6.6294e-05
3530.0 8.5846e-05
3550.0 8.3625e-05
3570.0 6.8957e-05
3590.0 9.3342e-05
3610.0 6.041e-05
3630.0 9.8375e-05
3650.0 0.00011459
3670.0 0.0001457
3690.0 0.00013528
3710.0 9.0588e-05
3730.0 0.00011691
3750.0 0.00011971
3770.0 0.00012848
3790.0 0.00012468
3810.0 0.00012835
3830.0 0.00020172
3850.0 0.00024762
3870.0 0.00030535
3890.0 0.00029675
3910.0 0.00026522
3930.0 0.00026864
3950.0 0.00029017
3970.0 0.00031995
3990.0 0.00020515
4010.0 0.00011105
4030.0 0.00019748
4050.0 0.00026121
4070.0 0.00027944
4090.0 0.00019546
4110.0 0.00012372
4130.0 0.00020348
4150.0 0.00020774
4170.0 0.00019337
4190.0 0.00017546
4210.0 0.00024835
4230.0 0.00018297
4250.0 0.00019823
4270.0 0.00019694
4290.0 0.00018658
4310.0 0.00023919
4330.0 0.00025846
4350.0 0.00021534
4370.0 0.00018179
4390.0 0.00022156
4410.0 0.00022691
4430.0 0.00016684
4450.0 0.00015138
4470.0 0.00018709
4490.0 0.00014314
4510.0 0.0001998
4530.0 0.00020765
4550.0 0.00024643
4570.0 0.00034741
4590.0 0.00034357
4610.0 0.00027241
4630.0 0.00043474
4650.0 0.00057935
4670.0 0.0005525
4690.0 0.0003907
4710.0 0.00041431
4730.0 0.00046929
4750.0 0.0003866
4770.0 0.00029555
4790.0 0.00019947
4810.0 0.00027227
4830.0 0.00032066
4850.0 0.00028186
4870.0 0.00011849
4890.0 0.00031984
4910.0 0.00041933
4930.0 0.00045575
4950.0 0.00046961
4970.0 0.00032987
4990.0 0.00038388
5010.0 0.00044588
5030.0 0.00047793
5050.0 0.00044617
5070.0 0.0003155
5090.0 0.00025598
5110.0 0.00024746
5130.0 0.00023512
5150.0 0.00024491
5170.0 0.00021854
5190.0 0.00026055
5210.0 0.00026464
5230.0 0.0002933
5250.0 0.00034846
5270.0 0.00028907
5290.0 0.00030078
5310.0 0.00044235
5330.0 0.0005088
5350.0 0.00042726
5370.0 0.00038437
5390.0 0.00044622
5410.0 0.00053279
5430.0 0.00056791
5450.0 0.00059772
5470.0 0.00060209
5490.0 0.0006204
5510.0 0.00074303
5530.0 0.00077226
5550.0 0.00081589
5570.0 0.00085715
5590.0 0.00084293
5610.0 0.00078965
5630.0 0.00077137
5650.0 0.00079823
5670.0 0.00078038
5690.0 0.0006685
5710.0 0.00066166
5730.0 0.00066307
5750.0 0.00068989
5770.0 0.00059455
5790.0 0.00056752
5810.0 0.00058177
5830.0 0.00062825
5850.0 0.00058528
5870.0 0.00058847
5890.0 0.00068668
5910.0 0.00064106
5930.0 0.00052974
5950.0 0.00047884
5970.0 0.00052219
5990.0 0.00047446
6010.0 0.00043386
6030.0 0.00042546
6050.0 0.00038968
6070.0 0.00030194
6090.0 0.00028715
6110.0 0.00036838
6130.0 0.0004134
6150.0 0.000427
6170.0 0.00041527
6190.0 0.00039607
6210.0 0.00041297
6230.0 0.00050115
6250.0 0.00046307
6270.0 0.00041635
6290.0 0.00037846
6310.0 0.00034279
6330.0 0.00031799
6350.0 0.00028421
6370.0 0.00028806
6390.0 0.0003352
6410.0 0.0004162
6430.0 0.00049196
6450.0 0.00049386
6470.0 0.00049936
6490.0 0.00060987
6510.0 0.00070018
6530.0 0.00066535
6550.0 0.00063131
6570.0 0.00064041
6590.0 0.00063119
6610.0 0.00066807
6630.0 0.00062299
6650.0 0.00054128
6670.0 0.00049931
6690.0 0.00049499
6710.0 0.00058591
6730.0 0.0005217
6750.0 0.0004291
6770.0 0.00038735
6790.0 0.00041153
6810.0 0.0004726
6830.0 0.00047039
6850.0 0.00042188
6870.0 0.00043696
6890.0 0.00043427
6910.0 0.00040812
6930.0 0.00045312
6950.0 0.0004215
6970.0 0.00039266
6990.0 0.00039143
7010.0 0.0003943
7030.0 0.000383
7050.0 0.00036673
7070.0 0.00039333
7090.0 0.00036635
7110.0 0.00031062
7130.0 0.0002668
7150.0 0.000262
7170.0 0.00033081
7190.0 0.00035072
7210.0 0.00033255
7230.0 0.00034973
7250.0 0.00033968
7270.0 0.00033135
7290.0 0.00035895
7310.0 0.00039348
7330.0 0.00038337
7350.0 0.00035567
7370.0 0.00032902
7390.0 0.00033001
7410.0 0.00037917
7430.0 0.00042693
7450.0 0.00045455
7470.0 0.00046106
7490.0 0.00051289
7510.0 0.00050678
7530.0 0.00045884
7550.0 0.00043433
7570.0 0.00037532
7590.0 0.0003573
7610.0 0.0003451
7630.0 0.00031787
7650.0 0.00034146
7670.0 0.00037826
7690.0 0.00041178
7710.0 0.00046982
7730.0 0.00049274
7750.0 0.00051192
7770.0 0.00053208
7790.0 0.00057712
7810.0 0.00058134
7830.0 0.00052168
7850.0 0.00052376
7870.0 0.00050428
7890.0 0.00051628
7910.0 0.00048621
7930.0 0.00048264
7950.0 0.00040524
7970.0 0.00040652
7990.0 0.00039283
8010.0 0.00042674
8030.0 0.00042487
8050.0 0.00045122
8070.0 0.00043279
8090.0 0.00043446
8110.0 0.00042759
8130.0 0.00042257
8150.0 0.00039662
8170.0 0.00038892
8190.0 0.00038771
8210.0 0.00039129
8230.0 0.00034208
8250.0 0.00031259
8270.0 0.00027612
8290.0 0.00023464
8310.0 0.00020658
8330.0 0.00016355
8350.0 0.00013234
8370.0 0.0001277
8390.0 0.00012374
8410.0 0.00012943
8430.0 0.00016638
8450.0 0.0001811
8470.0 0.00019481
8490.0 0.00022785
8510.0 0.00024781
8530.0 0.00028163
8550.0 0.00033296
8570.0 0.00036553
8590.0 0.00038422
8610.0 0.00042649
8630.0 0.00048491
8650.0 0.00049716
8670.0 0.00050723
8690.0 0.00052604
8710.0 0.00051552
8730.0 0.00049896
8750.0 0.00045949
8770.0 0.00045936
8790.0 0.00045257
8810.0 0.00041594
8830.0 0.00041619
8850.0 0.00038093
8870.0 0.000363
8890.0 0.00032501
8910.0 0.00036207
8930.0 0.00032731
8950.0 0.00032795
8970.0 0.00033468
8990.0 0.00032483
9010.0 0.00033351
9030.0 0.00031659
9050.0 0.00031506
9070.0 0.00031519
9090.0 0.00031527
9110.0 0.00031555
9130.0 0.00031554
9150.0 0.00031536
9170.0 0.00031432
9190.0 0.00031202
9210.0 0.00031696
9230.0 0.00031556
9250.0 0.00031475
9270.0 0.00031407
9290.0 0.00031347
9310.0 0.0003129
9330.0 0.00031235
9350.0 0.0003118
9370.0 0.00031124
9390.0 0.00031064
9410.0 0.00031003
9430.0 0.0003094
9450.0 0.00030873
9470.0 0.00030804
9490.0 0.00030734
9510.0 0.00030662
9530.0 0.00030587
9550.0 0.00030513
9570.0 0.00030437
9590.0 0.0003036
9610.0 0.00030281
9630.0 0.00030204
9650.0 0.00030125
9670.0 0.00030044
9690.0 0.00029965
9710.0 0.00029887
9730.0 0.00029807
9750.0 0.00029727
9770.0 0.00029651
9790.0 0.00029573
9810.0 0.00029495
9830.0 0.00029419
9850.0 0.00029345
9870.0 0.00029269
9890.0 0.00029196
9910.0 0.00029126
9930.0 0.00029055
9950.0 0.00028939
9970.0 0.00028886
9990.0 0.00028833
10010.0 0.00028777
10030.0 0.0002872
10050.0 0.00028653
10070.0 0.00028531
10090.0 0.00028497
10110.0 0.00028462
10130.0 0.00028423
10150.0 0.00028382
10170.0 0.00028338
10190.0 0.00028293
10210.0 0.0002825
10230.0 0.00028209
10250.0 0.00028168
10270.0 0.00028129
10290.0 0.00028094
10310.0 0.00028059
10330.0 0.00028025
10350.0 0.00027995
10370.0 0.00027967
10390.0 0.0002794
10410.0 0.00027915
10430.0 0.00027894
10450.0 0.00027874
10470.0 0.00027854
10490.0 0.00027838
10510.0 0.00027825
10530.0 0.0002781
10550.0 0.00027799
10570.0 0.00027791
10590.0 0.00027784
10610.0 0.00027777
10630.0 0.00027774
10650.0 0.00027773
10670.0 0.00027772
10690.0 0.00027773
10710.0 0.00027776
10730.0 0.0002778
10750.0 0.00027785
10770.0 0.00027793
10790.0 0.00027802
10810.0 0.00027812
10830.0 0.00027822
10850.0 0.00027832
10870.0 0.00027836
10890.0 0.0002783
10910.0 0.00027807
10930.0 0.00027751
10950.0 0.0002764
10970.0 0.00027461
10990.0 0.0002721
11010.0 0.00027681
11030.0 0.00027198
11050.0 0.00026631
11070.0 0.00025974
11090.0 0.00025212
11110.0 0.00024452
11130.0 0.00023692
11150.0 0.00022914
11170.0 0.00022157
11190.0 0.00021469
11210.0 0.00020805
11230.0 0.00020173
11250.0 0.00019613
11270.0 0.00019114
11290.0 0.00018647
11310.0 0.00018231
11330.0 0.00017881
11350.0 0.00017557
11370.0 0.00017256
11390.0 0.00016985
11410.0 0.0001673
11430.0 0.00016465
11450.0 0.00016203
11470.0 0.00015941
11490.0 0.00015662
11510.0 0.00015358
11530.0 0.00015052
11550.0 0.00014735
11570.0 0.00014391
11590.0 0.0001404
11610.0 0.00013692
11630.0 0.00013325
11650.0 0.00012947
11670.0 0.00012587
11690.0 0.00012232
11710.0 0.00011871
11730.0 0.00011524
11750.0 0.00011201
11770.0 0.00010877
11790.0 0.00010562
11810.0 0.0001027
11830.0 9.9925e-05
11850.0 9.7126e-05
11870.0 9.4539e-05
11890.0 9.2146e-05
11910.0 8.9771e-05
11930.0 8.7454e-05
11950.0 8.5306e-05
11970.0 8.3198e-05
11990.0 8.1054e-05
12010.0 7.9023e-05
12030.0 7.709e-05
12050.0 7.515e-05
12070.0 7.3233e-05
12090.0 7.1517e-05
12110.0 6.9867e-05
12130.0 6.8285e-05
12150.0 6.6884e-05
12170.0 6.5687e-05
12190.0 6.4608e-05
12210.0 6.3775e-05
12230.0 6.3227e-05
12250.0 6.2936e-05
12270.0 6.2937e-05
12290.0 6.3253e-05
12310.0 6.3854e-05
12330.0 6.4776e-05
12350.0 6.5989e-05
12370.0 6.7413e-05
12390.0 6.9065e-05
12410.0 7.0983e-05
12430.0 7.2926e-05
12450.0 7.4909e-05
12470.0 7.6964e-05
12490.0 7.8976e-05
12510.0 8.0825e-05
12530.0 8.2606e-05
12550.0 8.427e-05
12570.0 8.5712e-05
12590.0 8.6961e-05
12610.0 8.8059e-05
12630.0 8.8953e-05
12650.0 8.963e-05
12670.0 9.0151e-05
12690.0 9.051e-05
12710.0 9.0714e-05
12730.0 9.0789e-05
12750.0 9.0727e-05
12770.0 9.0552e-05
12790.0 9.0287e-05
12810.0 8.9914e-05
12830.0 8.9424e-05
12850.0 8.8872e-05
12870.0 8.8234e-05
12890.0 8.7463e-05
12910.0 8.6599e-05
12930.0 8.5669e-05
12950.0 8.4584e-05
12970.0 8.3352e-05
12990.0 8.208e-05
13010.0 8.0704e-05
13030.0 7.9181e-05
13050.0 7.7603e-05
13070.0 7.6036e-05
13090.0 7.4361e-05
13110.0 7.266e-05
13130.0 7.1042e-05
13150.0 6.9471e-05
13170.0 6.7898e-05
13190.0 6.65e-05
13210.0 6.5283e-05
13230.0 6.4181e-05
13250.0 6.3251e-05
13270.0 6.2545e-05
13290.0 6.2007e-05
13310.0 6.163e-05
13330.0 6.1437e-05
13350.0 6.1385e-05
13370.0 6.1439e-05
13390.0 6.1574e-05
13410.0 6.1744e-05
13430.0 6.1917e-05
13450.0 6.2059e-05
13470.0 6.2137e-05
13490.0 6.2135e-05
13510.0 6.2023e-05
13530.0 6.1798e-05
13550.0 6.1479e-05
13570.0 6.106e-05
13590.0 6.054e-05
13610.0 5.9975e-05
13630.0 5.9388e-05
13650.0 5.8752e-05
13670.0 5.8122e-05
13690.0 5.7533e-05
13710.0 5.6962e-05
13730.0 5.6405e-05
13750.0 5.5924e-05
13770.0 5.5484e-05
13790.0 5.5065e-05
13810.0 5.4675e-05
13830.0 5.4317e-05
13850.0 5.3951e-05
13870.0 5.3572e-05
13890.0 5.3191e-05
13910.0 5.2792e-05
13930.0 5.2353e-05
13950.0 5.189e-05
13970.0 5.1431e-05
13990.0 5.0944e-05
14010.0 5.0446e-05
14030.0 4.9969e-05
14050.0 4.9511e-05
14070.0 4.9059e-05
14090.0 4.8656e-05
14110.0 4.8304e-05
14130.0 4.7993e-05
14150.0 4.773e-05
14170.0 4.7528e-05
14190.0 4.7376e-05
14210.0 4.7272e-05
14230.0 4.722e-05
14250.0 4.7214e-05
14270.0 4.7261e-05
14290.0 4.7362e-05
14310.0 4.75e-05
14330.0 4.7685e-05
14350.0 4.7923e-05
14370.0 4.8195e-05
14390.0 4.8485e-05
14410.0 4.8818e-05
14430.0 4.9173e-05
14450.0 4.9523e-05
14470.0 4.9878e-05
14490.0 5.0256e-05
14510.0 5.0611e-05
14530.0 5.0947e-05
14550.0 5.1299e-05
14570.0 5.1659e-05
14590.0 5.2011e-05
14610.0 5.2397e-05
14630.0 5.2843e-05
14650.0 5.3321e-05
14670.0 5.3848e-05
14690.0 5.4473e-05
14710.0 5.5196e-05
14730.0 5.5953e-05
14750.0 5.6813e-05
14770.0 5.7788e-05
14790.0 5.8811e-05
14810.0 5.9867e-05
14830.0 6.1055e-05
14850.0 6.2253e-05
14870.0 6.3406e-05
14890.0 6.4558e-05
14910.0 6.5688e-05
14930.0 6.6678e-05
14950.0 6.7518e-05
14970.0 6.824e-05
14990.0 6.8762e-05
15010.0 6.9073e-05
15030.0 6.9214e-05
15050.0 6.9201e-05
15070.0 6.905e-05
15090.0 6.8813e-05
15110.0 6.8516e-05
15130.0 6.8184e-05
15150.0 6.7838e-05
15170.0 6.7478e-05
15190.0 6.7111e-05
15210.0 6.6748e-05
15230.0 6.6386e-05
15250.0 6.6018e-05
15270.0 6.5652e-05
15290.0 6.5295e-05
15310.0 6.4933e-05
15330.0 6.457e-05
15350.0 6.4213e-05
15370.0 6.3858e-05
15390.0 6.3495e-05
15410.0 6.3139e-05
15430.0 6.2787e-05
15450.0 6.2433e-05
15470.0 6.2076e-05
15490.0 6.1729e-05
15510.0 6.1382e-05
15530.0 6.1031e-05
15550.0 6.0684e-05
15570.0 6.0343e-05
15590.0 5.9997e-05
15610.0 5.9651e-05
15630.0 5.9314e-05
15650.0 5.8977e-05
15670.0 5.8637e-05
15690.0 5.8302e-05
15710.0 5.7973e-05
15730.0 5.7639e-05
15750.0 5.7307e-05
15770.0 5.6981e-05
15790.0 5.6656e-05
15810.0 5.6326e-05
15830.0 5.6004e-05
15850.0 5.5687e-05
15870.0 5.5367e-05
15890.0 5.5048e-05
15910.0 5.4737e-05
15930.0 5.4424e-05
15950.0 5.4109e-05
15970.0 5.38e-05
15990.0 5.3496e-05
16010.0 5.3188e-05
16030.0 5.2881e-05
16050.0 5.2584e-05
16070.0 5.2285e-05
16090.0 5.1985e-05
16110.0 5.1691e-05
16130.0 5.1401e-05
16150.0 5.1104e-05
16170.0 5.0813e-05
16190.0 5.0528e-05
16210.0 5.0242e-05
16230.0 4.9955e-05
16250.0 4.9674e-05
16270.0 4.9398e-05
16290.0 4.9117e-05
16310.0 4.8839e-05
16330.0 4.8568e-05
16350.0 4.8296e-05
16370.0 4.8019e-05
16390.0 4.7753e-05
16410.0 4.7488e-05
16430.0 4.7221e-05
16450.0 4.6957e-05
16470.0 4.67e-05
16490.0 4.6439e-05
16510.0 4.6178e-05
16530.0 4.5924e-05
16550.0 4.5671e-05
16570.0 4.5415e-05
16590.0 4.5163e-05
16610.0 4.4918e-05
16630.0 4.467e-05
16650.0 4.4422e-05
16670.0 4.4181e-05
16690.0 4.3941e-05
16710.0 4.3695e-05
16730.0 4.3456e-05
16750.0 4.3221e-05
16770.0 4.2984e-05
16790.0 4.2746e-05
16810.0 4.2517e-05
16830.0 4.2288e-05
16850.0 4.2055e-05
16870.0 4.1827e-05
16890.0 4.1604e-05
16910.0 4.1377e-05
16930.0 4.1149e-05
16950.0 4.093e-05
16970.0 4.071e-05
16990.0 4.0488e-05
17010.0 4.027e-05
17030.0 4.0058e-05
17050.0 3.984e-05
17070.0 3.9624e-05
17090.0 3.9414e-05
17110.0 3.9204e-05
17130.0 3.8989e-05
17150.0 3.8781e-05
17170.0 3.8577e-05
17190.0 3.8369e-05
17210.0 3.8163e-05
17230.0 3.7963e-05
17250.0 3.7761e-05
17270.0 3.7556e-05
17290.0 3.7356e-05
17310.0 3.716e-05
17330.0 3.696e-05
17350.0 3.676e-05
17370.0 3.6569e-05
17390.0 3.6375e-05
17410.0 3.618e-05
17430.0 3.5989e-05
17450.0 3.5801e-05
17470.0 3.5606e-05
17490.0 3.5416e-05
17510.0 3.5231e-05
17530.0 3.5044e-05
17550.0 3.4855e-05
17570.0 3.4672e-05
17590.0 3.4491e-05
17610.0 3.4306e-05
17630.0 3.4123e-05
17650.0 3.3945e-05
17670.0 3.3765e-05
17690.0 3.358e-05
17710.0 3.3405e-05
17730.0 3.323e-05
17750.0 3.3051e-05
17770.0 3.2875e-05
17790.0 3.2705e-05
17810.0 3.253e-05
17830.0 3.2354e-05
17850.0 3.2184e-05
17870.0 3.2015e-05
17890.0 3.1841e-05
17910.0 3.167e-05
17930.0 3.1506e-05
17950.0 3.1337e-05
17970.0 3.1168e-05
17990.0 3.1005e-05
18010.0 3.0842e-05
18030.0 3.0672e-05
18050.0 3.0509e-05
18070.0 3.0348e-05
18090.0 3.0185e-05
18110.0 3.0021e-05
18130.0 2.9863e-05
18150.0 2.9705e-05
18170.0 2.9543e-05
18190.0 2.9385e-05
18210.0 2.9231e-05
18230.0 2.9071e-05
18250.0 2.8912e-05
18270.0 2.8759e-05
18290.0 2.8605e-05
18310.0 2.8449e-05
18330.0 2.8296e-05
18350.0 2.8147e-05
18370.0 2.7993e-05
18390.0 2.784e-05
18410.0 2.7692e-05
18430.0 2.7542e-05
18450.0 2.7388e-05
18470.0 2.7241e-05
18490.0 2.7096e-05
18510.0 2.6947e-05
18530.0 2.6799e-05
18550.0 2.6657e-05
18570.0 2.6511e-05
18590.0 2.6363e-05
18610.0 2.622e-05
18630.0 2.6078e-05
18650.0 2.5933e-05
18670.0 2.5789e-05
18690.0 2.5651e-05
18710.0 2.5511e-05
18730.0 2.5368e-05
18750.0 2.523e-05
18770.0 2.5094e-05
18790.0 2.495e-05
18810.0 2.4811e-05
18830.0 2.4677e-05
18850.0 2.454e-05
18870.0 2.4401e-05
18890.0 2.4267e-05
18910.0 2.4135e-05
18930.0 2.3998e-05
18950.0 2.3863e-05
18970.0 2.3733e-05
18990.0 2.36e-05
19010.0 2.3462e-05
19030.0 2.3333e-05
19050.0 2.3204e-05
19070.0 2.3072e-05
19090.0 2.2941e-05
19110.0 2.2816e-05
19130.0 2.2685e-05
19150.0 2.2554e-05
19170.0 2.2428e-05
19190.0 2.2302e-05
19210.0 2.2172e-05
19230.0 2.2045e-05
19250.0 2.1923e-05
19270.0 2.1796e-05
19290.0 2.167e-05
19310.0 2.1548e-05
19330.0 2.1426e-05
19350.0 2.1298e-05
19370.0 2.1175e-05
19390.0 2.1056e-05
19410.0 2.0933e-05
19430.0 2.0809e-05
19450.0 2.0691e-05
19470.0 2.0572e-05
19490.0 2.0449e-05
19510.0 2.033e-05
19530.0 2.0214e-05
19550.0 2.0093e-05
19570.0 1.9972e-05
19590.0 1.9857e-05
19610.0 1.9741e-05
19630.0 1.9621e-05
19650.0 1.9506e-05
19670.0 1.9394e-05
19690.0 1.9275e-05
19710.0 1.9159e-05
19730.0 1.9047e-05
19750.0 1.8933e-05
19770.0 1.8815e-05
19790.0 1.8702e-05
19810.0 1.8592e-05
19830.0 1.8477e-05
19850.0 1.8362e-05
19870.0 1.825e-05
19890.0 1.813e-05
19910.0 1.7998e-05
19930.0 1.7859e-05
19950.0 1.7701e-05
19970.0 1.7509e-05
19990.0 1.7282e-05
20010.0 1.703e-05
20030.0 1.6732e-05
20050.0 1.6395e-05
20070.0 1.6044e-05
20090.0 1.5681e-05
20110.0 1.5288e-05
20130.0 1.4912e-05
20150.0 1.4558e-05
20170.0 1.421e-05
20190.0 1.3875e-05
20210.0 1.3576e-05
20230.0 1.33e-05
20250.0 1.3037e-05
20270.0 1.2807e-05
20290.0 1.2609e-05
20310.0 1.2433e-05
20330.0 1.2281e-05
20350.0 1.2169e-05
20370.0 1.2083e-05
20390.0 1.2025e-05
20410.0 1.1999e-05
20430.0 1.2003e-05
20450.0 1.2037e-05
20470.0 1.2104e-05
20490.0 1.2198e-05
20510.0 1.2321e-05
20530.0 1.2478e-05
20550.0 1.2657e-05
20570.0 1.2853e-05
20590.0 1.3076e-05
20610.0 1.3317e-05
20630.0 1.3562e-05
20650.0 1.3817e-05
20670.0 1.4088e-05
20690.0 1.4346e-05
20710.0 1.4593e-05
20730.0 1.4838e-05
20750.0 1.507e-05
20770.0 1.5276e-05
20790.0 1.5468e-05
20810.0 1.5647e-05
20830.0 1.5801e-05
20850.0 1.5936e-05
20870.0 1.6061e-05
20890.0 1.6171e-05
20910.0 1.6264e-05
20930.0 1.6349e-05
20950.0 1.6429e-05
20970.0 1.6499e-05
20990.0 1.6562e-05
21010.0 1.6622e-05
21030.0 1.6673e-05
21050.0 1.6715e-05
21070.0 1.6748e-05
21090.0 1.6771e-05
21110.0 1.678e-05
21130.0 1.6777e-05
21150.0 1.6761e-05
21170.0 1.6731e-05
21190.0 1.669e-05
21210.0 1.6636e-05
21230.0 1.657e-05
21250.0 1.6499e-05
21270.0 1.6421e-05
21290.0 1.6335e-05
21310.0 1.6248e-05
21330.0 1.6163e-05
21350.0 1.6077e-05
21370.0 1.5992e-05
21390.0 1.5914e-05
21410.0 1.5842e-05
21430.0 1.5773e-05
21450.0 1.5713e-05
21470.0 1.5664e-05
21490.0 1.5622e-05
21510.0 1.5589e-05
21530.0 1.5567e-05
21550.0 1.5555e-05
21570.0 1.5552e-05
21590.0 1.5559e-05
21610.0 1.5577e-05
21630.0 1.5605e-05
21650.0 1.5646e-05
21670.0 1.5695e-05
21690.0 1.5756e-05
21710.0 1.583e-05
21730.0 1.5914e-05
21750.0 1.6007e-05
21770.0 1.6118e-05
21790.0 1.6241e-05
21810.0 1.6372e-05
21830.0 1.6515e-05
21850.0 1.6675e-05
21870.0 1.6842e-05
21890.0 1.7014e-05
21910.0 1.7202e-05
21930.0 1.7398e-05
21950.0 1.7594e-05
21970.0 1.7798e-05
21990.0 1.8016e-05
22010.0 1.8224e-05
22030.0 1.8429e-05
22050.0 1.8638e-05
22070.0 1.8841e-05
22090.0 1.9027e-05
22110.0 1.9207e-05
22130.0 1.9378e-05
22150.0 1.9528e-05
22170.0 1.9658e-05
22190.0 1.9772e-05
22210.0 1.986e-05
22230.0 1.992e-05
22250.0 1.9955e-05
22270.0 1.996e-05
22290.0 1.9935e-05
22310.0 1.9882e-05
22330.0 1.9793e-05
22350.0 1.9674e-05
22370.0 1.9529e-05
22390.0 1.9351e-05
22410.0 1.9137e-05
22430.0 1.8907e-05
22450.0 1.8655e-05
22470.0 1.8372e-05
22490.0 1.8072e-05
22510.0 1.7768e-05
22530.0 1.7437e-05
22550.0 1.7089e-05
22570.0 1.6749e-05
22590.0 1.6406e-05
22610.0 1.6049e-05
22630.0 1.5699e-05
