#lamb flux
1010.0 0.00021439
1030.0 0.00023632
1050.0 0.00026703
1070.0 0.00031443
1090.0 0.00037368
1110.0 0.0004362
1130.0 0.00050071
1150.0 0.00056934
1170.0 0.00064011
1190.0 0.00070575
1210.0 0.00076897
1230.0 0.00082901
1250.0 0.0008871
1270.0 0.00093471
1290.0 0.00097468
1310.0 0.0010027
1330.0 0.0010164
1350.0 0.0010188
1370.0 0.0010115
1390.0 0.00099301
1410.0 0.00096507
1430.0 0.00093222
1450.0 0.0008943
1470.0 0.00085208
1490.0 0.00080858
1510.0 0.00076598
1530.0 0.00072262
1550.0 0.0006806
1570.0 0.00064132
1590.0 0.00060457
1610.0 0.0005725
1630.0 0.00055498
1650.0 0.00054262
1670.0 0.00053519
1690.0 0.00053336
1710.0 0.00053814
1730.0 0.00054933
1750.0 0.00056633
1770.0 0.00059084
1790.0 0.0006232
1810.0 0.00066309
1830.0 0.00071118
1850.0 0.00076925
1870.0 0.00083637
1890.0 0.00091269
1910.0 0.0009995
1930.0 0.0010972
1950.0 0.0012042
1970.0 0.0013211
1990.0 0.0014486
2010.0 0.001585
2030.0 0.0017287
2050.0 0.0018807
2070.0 0.00204
2090.0 0.0022021
2110.0 0.0023674
2130.0 0.0025358
2150.0 0.002704
2170.0 0.002869
2190.0 0.0030332
2210.0 0.0031942
2230.0 0.0033485
2250.0 0.0034972
2270.0 0.0036423
2290.0 0.0037795
2310.0 0.0039082
2330.0 0.004033
2350.0 0.0041533
2370.0 0.0042675
2390.0 0.0043808
2410.0 0.0044995
2430.0 0.0046226
2450.0 0.0047552
2470.0 0.0049081
2490.0 0.0050871
2510.0 0.0052851
2530.0 0.0055181
2550.0 0.0058028
2570.0 0.006144
2590.0 0.0065586
2610.0 0.0071153
2630.0 0.0078231
2650.0 0.0086594
2670.0 0.0096502
2690.0 0.010784
2710.0 0.011942
2730.0 0.013075
2750.0 0.014214
2770.0 0.015295
2790.0 0.016311
2810.0 0.017336
2830.0 0.018444
2850.0 0.019573
2870.0 0.020773
2890.0 0.022093
2910.0 0.023491
2930.0 0.024913
2950.0 0.026438
2970.0 0.02805
2990.0 0.029681
3010.0 0.031357
3030.0 0.033136
3050.0 0.034963
3070.0 0.036749
3090.0 0.038569
3110.0 0.040349
3130.0 0.041967
3150.0 0.043382
3170.0 0.044541
3190.0 0.045366
3210.0 0.045917
3230.0 0.046238
3250.0 0.046366
3270.0 0.04644
3290.0 0.046523
3310.0 0.046642
3330.0 0.046834
3350.0 0.047082
3370.0 0.04736
3390.0 0.047182
3410.0 0.04711
3430.0 0.047521
3450.0 0.047819
3470.0 0.04764
3490.0 0.050202
3510.0 0.059989
3530.0 0.074207
3550.0 0.083799
3570.0 0.092483
3590.0 0.1041
3610.0 0.10402
3630.0 0.095715
3650.0 0.098457
3670.0 0.11432
3690.0 0.12881
3710.0 0.13407
3730.0 0.13482
3750.0 0.14233
3770.0 0.14286
3790.0 0.13664
3810.0 0.12919
3830.0 0.12236
3850.0 0.12264
3870.0 0.12797
3890.0 0.13167
3910.0 0.13277
3930.0 0.13277
3950.0 0.14225
3970.0 0.15316
3990.0 0.14961
4010.0 0.13394
4030.0 0.12115
4050.0 0.12107
4070.0 0.12641
4090.0 0.12511
4110.0 0.12071
4130.0 0.12027
4150.0 0.12607
4170.0 0.13828
4190.0 0.14332
4210.0 0.13394
4230.0 0.12247
4250.0 0.11479
4270.0 0.11006
4290.0 0.11007
4310.0 0.11238
4330.0 0.10752
4350.0 0.096429
4370.0 0.087036
4390.0 0.080587
4410.0 0.077455
4430.0 0.080154
4450.0 0.088053
4470.0 0.096579
4490.0 0.10272
4510.0 0.11223
4530.0 0.12895
4550.0 0.14614
4570.0 0.15699
4590.0 0.16642
4610.0 0.17378
4630.0 0.17384
4650.0 0.16202
4670.0 0.14361
4690.0 0.12889
4710.0 0.12355
4730.0 0.11768
4750.0 0.10364
4770.0 0.092918
4790.0 0.09524
4810.0 0.10239
4830.0 0.099958
4850.0 0.089202
4870.0 0.090047
4890.0 0.091881
4910.0 0.092725
4930.0 0.090971
4950.0 0.089041
4970.0 0.084844
4990.0 0.078563
5010.0 0.074687
5030.0 0.074344
5050.0 0.074848
5070.0 0.07547
5090.0 0.075888
5110.0 0.076162
5130.0 0.077826
5150.0 0.08131
5170.0 0.087719
5190.0 0.096158
5210.0 0.10251
5230.0 0.10626
5250.0 0.10847
5270.0 0.11091
5290.0 0.11227
5310.0 0.11081
5330.0 0.10702
5350.0 0.10351
5370.0 0.10348
5390.0 0.10508
5410.0 0.10582
5430.0 0.10434
5450.0 0.10271
5470.0 0.101
5490.0 0.0995
5510.0 0.098956
5530.0 0.099168
5550.0 0.099697
5570.0 0.0997
5590.0 0.097583
5610.0 0.093688
5630.0 0.089631
5650.0 0.085321
5670.0 0.081993
5690.0 0.079094
5710.0 0.077788
5730.0 0.077622
5750.0 0.07635
5770.0 0.075038
5790.0 0.075878
5810.0 0.078009
5830.0 0.079668
5850.0 0.080151
5870.0 0.078234
5890.0 0.07536
5910.0 0.0732
5930.0 0.070308
5950.0 0.067622
5970.0 0.067901
5990.0 0.069234
6010.0 0.068959
6030.0 0.066933
6050.0 0.066559
6070.0 0.06843
6090.0 0.070383
6110.0 0.069885
6130.0 0.066078
6150.0 0.061275
6170.0 0.058654
6190.0 0.057733
6210.0 0.057038
6230.0 0.056151
6250.0 0.056285
6270.0 0.057929
6290.0 0.060085
6310.0 0.062501
6330.0 0.064981
6350.0 0.066247
6370.0 0.066153
6390.0 0.065605
6410.0 0.065863
6430.0 0.066471
6450.0 0.066346
6470.0 0.066172
6490.0 0.066222
6510.0 0.066127
6530.0 0.065465
6550.0 0.064147
6570.0 0.062241
6590.0 0.060274
6610.0 0.058746
6630.0 0.057537
6650.0 0.055759
6670.0 0.053856
6690.0 0.052364
6710.0 0.051495
6730.0 0.050832
6750.0 0.050365
6770.0 0.049843
6790.0 0.048929
6810.0 0.047839
6830.0 0.047296
6850.0 0.047048
6870.0 0.046837
6890.0 0.046804
6910.0 0.046368
6930.0 0.045814
6950.0 0.045604
6970.0 0.045191
6990.0 0.044493
7010.0 0.043763
7030.0 0.042972
7050.0 0.042149
7070.0 0.041123
7090.0 0.0403
7110.0 0.040962
7130.0 0.042001
7150.0 0.042589
7170.0 0.042942
7190.0 0.042935
7210.0 0.042373
7230.0 0.041567
7250.0 0.04123
7270.0 0.040456
7290.0 0.03985
7310.0 0.039547
7330.0 0.039761
7350.0 0.039693
7370.0 0.039403
7390.0 0.03907
7410.0 0.03862
7430.0 0.038077
7450.0 0.037472
7470.0 0.036839
7490.0 0.035868
7510.0 0.034541
7530.0 0.033325
7550.0 0.032545
7570.0 0.032778
7590.0 0.032661
7610.0 0.032283
7630.0 0.031899
7650.0 0.032224
7670.0 0.033005
7690.0 0.034181
7710.0 0.03488
7730.0 0.036191
7750.0 0.037082
7770.0 0.037906
7790.0 0.038246
7810.0 0.037723
7830.0 0.037604
7850.0 0.037085
7870.0 0.036196
7890.0 0.034985
7910.0 0.034014
7930.0 0.033452
7950.0 0.033107
7970.0 0.033139
7990.0 0.033237
8010.0 0.03295
8030.0 0.032633
8050.0 0.032029
8070.0 0.031489
8090.0 0.030858
8110.0 0.031012
8130.0 0.03128
8150.0 0.031397
8170.0 0.031104
8190.0 0.030823
8210.0 0.029799
8230.0 0.027936
8250.0 0.026826
8270.0 0.026197
8290.0 0.025888
8310.0 0.025897
8330.0 0.026488
8350.0 0.026075
8370.0 0.025591
8390.0 0.025951
8410.0 0.026584
8430.0 0.027772
8450.0 0.028836
8470.0 0.029058
8490.0 0.02928
8510.0 0.029037
8530.0 0.028716
8550.0 0.028918
8570.0 0.028938
8590.0 0.028716
8610.0 0.029486
8630.0 0.029618
8650.0 0.02897
8670.0 0.028888
8690.0 0.02897
8710.0 0.028426
8730.0 0.028245
8750.0 0.027358
8770.0 0.027009
8790.0 0.026655
8810.0 0.026402
8830.0 0.025442
8850.0 0.023708
8870.0 0.022317
8890.0 0.021607
8910.0 0.020276
8930.0 0.018858
8950.0 0.018467
8970.0 0.018275
8990.0 0.018265
9010.0 0.01812
9030.0 0.017991
9050.0 0.01787
9070.0 0.01775
9090.0 0.017631
9110.0 0.017511
9130.0 0.017392
9150.0 0.017273
9170.0 0.017153
9190.0 0.017034
9210.0 0.016915
9230.0 0.016796
9250.0 0.016678
9270.0 0.01656
9290.0 0.016442
9310.0 0.016324
9330.0 0.016207
9350.0 0.01609
9370.0 0.015973
9390.0 0.015857
9410.0 0.015741
9430.0 0.015625
9450.0 0.015509
9470.0 0.015397
9490.0 0.015286
9510.0 0.015171
9530.0 0.015057
9550.0 0.014944
9570.0 0.014833
9590.0 0.014721
9610.0 0.014611
9630.0 0.014501
9650.0 0.014391
9670.0 0.014283
9690.0 0.014175
9710.0 0.014068
9730.0 0.013961
9750.0 0.013855
9770.0 0.01375
9790.0 0.013646
9810.0 0.013542
9830.0 0.013436
9850.0 0.013314
9870.0 0.013215
9890.0 0.013122
9910.0 0.013027
9930.0 0.012923
9950.0 0.012827
9970.0 0.012732
9990.0 0.012635
10010.0 0.012529
10030.0 0.01243
10050.0 0.012341
10070.0 0.012251
10090.0 0.012162
10110.0 0.012068
10130.0 0.011967
10150.0 0.011879
10170.0 0.011791
10190.0 0.011701
10210.0 0.011613
10230.0 0.011526
10250.0 0.011437
10270.0 0.011349
10290.0 0.011264
10310.0 0.011177
10330.0 0.011089
10350.0 0.011005
10370.0 0.010921
10390.0 0.010836
10410.0 0.010751
10430.0 0.010671
10450.0 0.010588
10470.0 0.010505
10490.0 0.010425
10510.0 0.010345
10530.0 0.010262
10550.0 0.010182
10570.0 0.010104
10590.0 0.010025
10610.0 0.0099457
10630.0 0.0098693
10650.0 0.0097931
10670.0 0.0097142
10690.0 0.0096375
10710.0 0.0095628
10730.0 0.0094865
10750.0 0.0094087
10770.0 0.0093355
10790.0 0.0092619
10810.0 0.0091865
10830.0 0.0091128
10850.0 0.0090417
10870.0 0.0089672
10890.0 0.0088936
10910.0 0.0088236
10930.0 0.0087542
10950.0 0.0086843
10970.0 0.0086182
10990.0 0.0085567
11010.0 0.0082395
11030.0 0.0081851
11050.0 0.008135
11070.0 0.0080865
11090.0 0.0080368
11110.0 0.0079899
11130.0 0.0079433
11150.0 0.0078948
11170.0 0.0078453
11190.0 0.0077971
11210.0 0.0077471
11230.0 0.0076954
11250.0 0.0076452
11270.0 0.007596
11290.0 0.0075455
11310.0 0.0074961
11330.0 0.0074507
11350.0 0.0074059
11370.0 0.007362
11390.0 0.0073213
11410.0 0.0072829
11430.0 0.007244
11450.0 0.0072072
11470.0 0.0071727
11490.0 0.007138
11510.0 0.0071024
11530.0 0.0070684
11550.0 0.0070343
11570.0 0.006998
11590.0 0.0069611
11610.0 0.0069245
11630.0 0.0068854
11650.0 0.006844
11670.0 0.0068038
11690.0 0.006763
11710.0 0.0067201
11730.0 0.0066777
11750.0 0.0066374
11770.0 0.0065958
11790.0 0.0065544
11810.0 0.0065154
11830.0 0.0064776
11850.0 0.0064388
11870.0 0.0064028
11890.0 0.0063696
11910.0 0.0063368
11930.0 0.0063053
11950.0 0.0062773
11970.0 0.006251
11990.0 0.0062258
12010.0 0.0062041
12030.0 0.0061859
12050.0 0.0061701
12070.0 0.0061574
12090.0 0.0061496
12110.0 0.0061452
12130.0 0.0061444
12150.0 0.0061477
12170.0 0.006155
12190.0 0.0061659
12210.0 0.0061807
12230.0 0.0061985
12250.0 0.0062194
12270.0 0.0062433
12290.0 0.006269
12310.0 0.0062958
12330.0 0.0063246
12350.0 0.0063539
12370.0 0.0063825
12390.0 0.0064109
12410.0 0.0064388
12430.0 0.0064639
12450.0 0.0064865
12470.0 0.0065064
12490.0 0.0065224
12510.0 0.0065343
12530.0 0.0065417
12550.0 0.0065437
12570.0 0.0065407
12590.0 0.0065325
12610.0 0.0065176
12630.0 0.0064968
12650.0 0.0064723
12670.0 0.0064418
12690.0 0.0064054
12710.0 0.0063662
12730.0 0.006324
12750.0 0.0062752
12770.0 0.0062251
12790.0 0.0061748
12810.0 0.0061217
12830.0 0.0060661
12850.0 0.0060133
12870.0 0.005961
12890.0 0.0059068
12910.0 0.0058545
12930.0 0.0058053
12950.0 0.0057551
12970.0 0.005705
12990.0 0.0056593
13010.0 0.0056149
13030.0 0.0055702
13050.0 0.005528
13070.0 0.0054893
13090.0 0.0054504
13110.0 0.0054131
13130.0 0.0053793
13150.0 0.0053474
13170.0 0.0053158
13190.0 0.0052878
13210.0 0.0052629
13230.0 0.005239
13250.0 0.0052167
13270.0 0.0051971
13290.0 0.0051784
13310.0 0.0051596
13330.0 0.0051421
13350.0 0.0051254
13370.0 0.0051077
13390.0 0.005089
13410.0 0.0050712
13430.0 0.005052
13450.0 0.005031
13470.0 0.0050094
13490.0 0.0049873
13510.0 0.0049621
13530.0 0.0049359
13550.0 0.0049098
13570.0 0.004882
13590.0 0.0048521
13610.0 0.0048223
13630.0 0.0047926
13650.0 0.0047606
13670.0 0.004728
13690.0 0.0046962
13710.0 0.0046633
13730.0 0.0046279
13750.0 0.0045944
13770.0 0.0045608
13790.0 0.0045256
13810.0 0.0044901
13830.0 0.0044558
13850.0 0.0044198
13870.0 0.0043824
13890.0 0.0043457
13910.0 0.0043087
13930.0 0.0042693
13950.0 0.0042293
13970.0 0.0041907
13990.0 0.0041502
14010.0 0.0041083
14030.0 0.0040674
14050.0 0.0040264
14070.0 0.0039829
14090.0 0.0039407
14110.0 0.0039001
14130.0 0.0038592
14150.0 0.0038181
14170.0 0.0037802
14190.0 0.0037436
14210.0 0.0037069
14230.0 0.0036723
14250.0 0.0036399
14270.0 0.0036074
14290.0 0.0035753
14310.0 0.0035456
14330.0 0.0035162
14350.0 0.0034861
14370.0 0.0034568
14390.0 0.0034286
14410.0 0.0033992
14430.0 0.0033698
14450.0 0.0033417
14470.0 0.0033138
14490.0 0.0032852
14510.0 0.0032584
14530.0 0.0032332
14550.0 0.0032081
14570.0 0.0031839
14590.0 0.0031616
14610.0 0.0031399
14630.0 0.0031184
14650.0 0.0030983
14670.0 0.0030792
14690.0 0.0030603
14710.0 0.0030417
14730.0 0.0030248
14750.0 0.0030081
14770.0 0.0029917
14790.0 0.0029764
14810.0 0.0029624
14830.0 0.0029486
14850.0 0.0029361
14870.0 0.0029252
14890.0 0.0029154
14910.0 0.0029066
14930.0 0.0028991
14950.0 0.0028924
14970.0 0.0028861
14990.0 0.00288
15010.0 0.0028739
15030.0 0.0028675
15050.0 0.0028605
15070.0 0.0028533
15090.0 0.0028458
15110.0 0.0028378
15130.0 0.0028296
15150.0 0.0028214
15170.0 0.002813
15190.0 0.0028044
15210.0 0.0027959
15230.0 0.0027874
15250.0 0.0027786
15270.0 0.0027698
15290.0 0.0027611
15310.0 0.0027523
15330.0 0.0027433
15350.0 0.0027345
15370.0 0.0027256
15390.0 0.0027164
15410.0 0.0027074
15430.0 0.0026984
15450.0 0.0026892
15470.0 0.0026799
15490.0 0.0026708
15510.0 0.0026617
15530.0 0.0026523
15550.0 0.0026431
15570.0 0.0026339
15590.0 0.0026245
15610.0 0.002615
15630.0 0.0026057
15650.0 0.0025964
15670.0 0.0025869
15690.0 0.0025774
15710.0 0.0025682
15730.0 0.0025586
15750.0 0.0025491
15770.0 0.0025397
15790.0 0.0025303
15810.0 0.0025207
15830.0 0.0025112
15850.0 0.0025019
15870.0 0.0024924
15890.0 0.0024829
15910.0 0.0024735
15930.0 0.0024641
15950.0 0.0024545
15970.0 0.0024451
15990.0 0.0024357
16010.0 0.0024262
16030.0 0.0024167
16050.0 0.0024075
16070.0 0.0023981
16090.0 0.0023887
16110.0 0.0023794
16130.0 0.0023702
16150.0 0.0023607
16170.0 0.0023514
16190.0 0.0023423
16210.0 0.002333
16230.0 0.0023237
16250.0 0.0023146
16270.0 0.0023056
16290.0 0.0022964
16310.0 0.0022872
16330.0 0.0022783
16350.0 0.0022692
16370.0 0.0022601
16390.0 0.0022512
16410.0 0.0022423
16430.0 0.0022334
16450.0 0.0022245
16470.0 0.0022158
16490.0 0.002207
16510.0 0.0021981
16530.0 0.0021895
16550.0 0.0021809
16570.0 0.0021721
16590.0 0.0021635
16610.0 0.0021551
16630.0 0.0021465
16650.0 0.002138
16670.0 0.0021297
16690.0 0.0021213
16710.0 0.0021129
16730.0 0.0021046
16750.0 0.0020964
16770.0 0.0020881
16790.0 0.0020799
16810.0 0.0020719
16830.0 0.0020638
16850.0 0.0020557
16870.0 0.0020477
16890.0 0.0020399
16910.0 0.0020319
16930.0 0.002024
16950.0 0.0020163
16970.0 0.0020085
16990.0 0.0020007
17010.0 0.0019931
17030.0 0.0019856
17050.0 0.0019779
17070.0 0.0019703
17090.0 0.0019629
17110.0 0.0019555
17130.0 0.001948
17150.0 0.0019406
17170.0 0.0019334
17190.0 0.0019261
17210.0 0.0019189
17230.0 0.0019118
17250.0 0.0019047
17270.0 0.0018975
17290.0 0.0018905
17310.0 0.0018835
17330.0 0.0018765
17350.0 0.0018695
17370.0 0.0018628
17390.0 0.001856
17410.0 0.0018491
17430.0 0.0018424
17450.0 0.0018358
17470.0 0.001829
17490.0 0.0018224
17510.0 0.0018159
17530.0 0.0018093
17550.0 0.0018028
17570.0 0.0017963
17590.0 0.00179
17610.0 0.0017836
17630.0 0.0017772
17650.0 0.001771
17670.0 0.0017647
17690.0 0.0017583
17710.0 0.0017522
17730.0 0.0017461
17750.0 0.0017399
17770.0 0.0017338
17790.0 0.0017279
17810.0 0.0017218
17830.0 0.0017158
17850.0 0.0017099
17870.0 0.001704
17890.0 0.001698
17910.0 0.0016922
17930.0 0.0016864
17950.0 0.0016806
17970.0 0.0016748
17990.0 0.0016692
18010.0 0.0016635
18030.0 0.0016578
18050.0 0.0016521
18070.0 0.0016466
18090.0 0.001641
18110.0 0.0016354
18130.0 0.0016299
18150.0 0.0016245
18170.0 0.001619
18190.0 0.0016135
18210.0 0.0016082
18230.0 0.0016028
18250.0 0.0015973
18270.0 0.0015921
18290.0 0.0015868
18310.0 0.0015814
18330.0 0.0015762
18350.0 0.001571
18370.0 0.0015658
18390.0 0.0015605
18410.0 0.0015554
18430.0 0.0015503
18450.0 0.0015451
18470.0 0.00154
18490.0 0.001535
18510.0 0.0015299
18530.0 0.0015249
18550.0 0.0015199
18570.0 0.001515
18590.0 0.0015099
18610.0 0.001505
18630.0 0.0015001
18650.0 0.0014951
18670.0 0.0014902
18690.0 0.0014854
18710.0 0.0014806
18730.0 0.0014757
18750.0 0.0014709
18770.0 0.0014662
18790.0 0.0014613
18810.0 0.0014565
18830.0 0.0014518
18850.0 0.0014471
18870.0 0.0014424
18890.0 0.0014377
18910.0 0.0014331
18930.0 0.0014284
18950.0 0.0014238
18970.0 0.0014192
18990.0 0.0014146
19010.0 0.0014099
19030.0 0.0014054
19050.0 0.0014009
19070.0 0.0013964
19090.0 0.0013919
19110.0 0.0013875
19130.0 0.0013829
19150.0 0.0013784
19170.0 0.001374
19190.0 0.0013697
19210.0 0.0013652
19230.0 0.0013608
19250.0 0.0013565
19270.0 0.0013521
19290.0 0.0013478
19310.0 0.0013435
19330.0 0.0013392
19350.0 0.0013349
19370.0 0.0013306
19390.0 0.0013264
19410.0 0.0013222
19430.0 0.0013179
19450.0 0.0013138
19470.0 0.0013097
19490.0 0.0013054
19510.0 0.0013013
19530.0 0.0012973
19550.0 0.0012931
19570.0 0.001289
19590.0 0.001285
19610.0 0.001281
19630.0 0.0012769
19650.0 0.0012729
19670.0 0.001269
19690.0 0.001265
19710.0 0.001261
19730.0 0.0012572
19750.0 0.0012533
19770.0 0.0012493
19790.0 0.0012455
19810.0 0.0012417
19830.0 0.0012379
19850.0 0.001234
19870.0 0.0012303
19890.0 0.0012263
19910.0 0.0012221
19930.0 0.0012178
19950.0 0.001213
19970.0 0.0012074
19990.0 0.0012009
20010.0 0.0011938
20030.0 0.0011856
20050.0 0.0011761
20070.0 0.0011661
20090.0 0.0011555
20110.0 0.0011438
20130.0 0.0011321
20150.0 0.0011207
20170.0 0.0011089
20190.0 0.0010972
20210.0 0.0010861
20230.0 0.0010753
20250.0 0.0010645
20270.0 0.0010542
20290.0 0.0010447
20310.0 0.0010354
20330.0 0.0010263
20350.0 0.0010183
20370.0 0.0010107
20390.0 0.0010033
20410.0 0.00099662
20430.0 0.00099057
20450.0 0.00098465
20470.0 0.00097921
20490.0 0.00097441
20510.0 0.00096999
20530.0 0.00096584
20550.0 0.00096222
20570.0 0.00095911
20590.0 0.00095623
20610.0 0.00095373
20630.0 0.00095165
20650.0 0.00094985
20670.0 0.00094824
20690.0 0.00094697
20710.0 0.00094593
20730.0 0.00094498
20750.0 0.00094413
20770.0 0.00094337
20790.0 0.00094256
20810.0 0.00094162
20830.0 0.00094056
20850.0 0.00093933
20870.0 0.00093774
20890.0 0.0009358
20910.0 0.00093366
20930.0 0.00093107
20950.0 0.000928
20970.0 0.00092465
20990.0 0.000921
21010.0 0.00091674
21030.0 0.00091219
21050.0 0.00090752
21070.0 0.00090248
21090.0 0.000897
21110.0 0.00089165
21130.0 0.00088624
21150.0 0.00088051
21170.0 0.00087479
21190.0 0.00086932
21210.0 0.00086362
21230.0 0.00085783
21250.0 0.00085241
21270.0 0.00084712
21290.0 0.00084173
21310.0 0.00083655
21330.0 0.0008318
21350.0 0.000827
21370.0 0.00082227
21390.0 0.0008179
21410.0 0.00081371
21430.0 0.00080935
21450.0 0.00080532
21470.0 0.00080159
21490.0 0.00079781
21510.0 0.00079406
21530.0 0.00079062
21550.0 0.00078722
21570.0 0.00078367
21590.0 0.00078029
21610.0 0.00077706
21630.0 0.00077371
21650.0 0.00077022
21670.0 0.00076708
21690.0 0.00076385
21710.0 0.00076046
21730.0 0.00075717
21750.0 0.00075402
21770.0 0.00075054
21790.0 0.00074705
21810.0 0.00074373
21830.0 0.00074032
21850.0 0.00073668
21870.0 0.00073315
21890.0 0.00072976
21910.0 0.0007261
21930.0 0.00072241
21950.0 0.00071888
21970.0 0.00071525
21990.0 0.00071131
22010.0 0.00070763
22030.0 0.00070402
22050.0 0.00070022
22070.0 0.00069642
22090.0 0.00069292
22110.0 0.0006893
22130.0 0.00068559
22150.0 0.00068212
22170.0 0.00067882
22190.0 0.00067537
22210.0 0.00067207
22230.0 0.00066918
22250.0 0.00066631
22270.0 0.00066349
22290.0 0.00066102
22310.0 0.00065877
22330.0 0.00065646
22350.0 0.00065442
22370.0 0.00065268
22390.0 0.00065102
22410.0 0.0006494
22430.0 0.00064813
22450.0 0.00064701
22470.0 0.0006459
22490.0 0.00064497
22510.0 0.00064427
22530.0 0.00064354
22550.0 0.00064288
22570.0 0.00064247
22590.0 0.00064217
22610.0 0.00064187
22630.0 0.00064173
22650.0 0.00064182
22670.0 0.00064193
22690.0 0.00064213
22710.0 0.00064255
22730.0 0.0006431
22750.0 0.00064366
22770.0 0.00064446
22790.0 0.00064547
22810.0 0.00064657
22830.0 0.00064784
22850.0 0.00064934
22870.0 0.00065102
22890.0 0.00065286
22910.0 0.00065496
22930.0 0.00065732
22950.0 0.00065991
22970.0 0.00066278
22990.0 0.00066597
23010.0 0.00066946
23030.0 0.0006733
23050.0 0.00067747
23070.0 0.00068193
23090.0 0.00068684
23110.0 0.00069209
23130.0 0.00069763
23150.0 0.00070352
23170.0 0.00070984
23190.0 0.00071639
23210.0 0.00072315
23230.0 0.00073032
23250.0 0.00073773
23270.0 0.00074525
23290.0 0.00075302
23310.0 0.00076116
23330.0 0.00076924
23350.0 0.00077738
23370.0 0.00078576
23390.0 0.00079419
23410.0 0.00080249
23430.0 0.00081093
23450.0 0.00081967
23470.0 0.00082833
23490.0 0.00083698
23510.0 0.00084584
23530.0 0.00085469
23550.0 0.00086338
23570.0 0.00087221
23590.0 0.00088115
23610.0 0.00089
23630.0 0.00089886
23650.0 0.00090796
23670.0 0.00091702
23690.0 0.00092603
23710.0 0.00093519
23730.0 0.00094451
23750.0 0.00095371
23770.0 0.00096299
23790.0 0.00097248
23810.0 0.00098202
23830.0 0.00099153
23850.0 0.0010013
23870.0 0.0010114
23890.0 0.0010213
23910.0 0.0010315
23930.0 0.0010419
23950.0 0.0010524
23970.0 0.0010629
23990.0 0.0010736
24010.0 0.0010845
24030.0 0.0010952
24050.0 0.0011059
24070.0 0.0011167
24090.0 0.0011272
24110.0 0.0011374
