#lamb flux
1010.0 1.2807e-06
1030.0 1.3387e-06
1050.0 1.406e-06
1070.0 1.482e-06
1090.0 1.5683e-06
1110.0 1.6574e-06
1130.0 1.7474e-06
1150.0 1.8422e-06
1170.0 1.9406e-06
1190.0 2.0347e-06
1210.0 2.1307e-06
1230.0 2.2306e-06
1250.0 2.3294e-06
1270.0 2.4263e-06
1290.0 2.5294e-06
1310.0 2.6334e-06
1330.0 2.7345e-06
1350.0 2.8377e-06
1370.0 2.9451e-06
1390.0 3.0513e-06
1410.0 3.1559e-06
1430.0 3.2659e-06
1450.0 3.3773e-06
1470.0 3.4865e-06
1490.0 3.598e-06
1510.0 3.7163e-06
1530.0 3.8302e-06
1550.0 3.9437e-06
1570.0 4.0615e-06
1590.0 4.1802e-06
1610.0 4.2948e-06
1630.0 4.4129e-06
1650.0 4.5339e-06
1670.0 4.6514e-06
1690.0 4.7672e-06
1710.0 4.8863e-06
1730.0 5.0051e-06
1750.0 5.1164e-06
1770.0 5.2291e-06
1790.0 5.3421e-06
1810.0 5.4497e-06
1830.0 5.553e-06
1850.0 5.66e-06
1870.0 5.7613e-06
1890.0 5.8559e-06
1910.0 5.9493e-06
1930.0 6.0418e-06
1950.0 6.126e-06
1970.0 6.2054e-06
1990.0 6.2852e-06
2010.0 6.3598e-06
2030.0 6.4276e-06
2050.0 6.4954e-06
2070.0 6.563e-06
2090.0 6.6225e-06
2110.0 6.6799e-06
2130.0 6.7387e-06
2150.0 6.7948e-06
2170.0 6.8466e-06
2190.0 6.9022e-06
2210.0 6.9595e-06
2230.0 7.0149e-06
2250.0 7.0725e-06
2270.0 7.1374e-06
2290.0 7.2035e-06
2310.0 7.2708e-06
2330.0 7.3466e-06
2350.0 7.4296e-06
2370.0 7.5161e-06
2390.0 7.6115e-06
2410.0 7.7199e-06
2430.0 7.835e-06
2450.0 7.9578e-06
2470.0 8.0935e-06
2490.0 8.242e-06
2510.0 8.4015e-06
2530.0 8.5919e-06
2550.0 8.8463e-06
2570.0 9.206e-06
2590.0 9.7258e-06
2610.0 1.0535e-05
2630.0 1.1697e-05
2650.0 1.319e-05
2670.0 1.5058e-05
2690.0 1.7282e-05
2710.0 1.9628e-05
2730.0 2.197e-05
2750.0 2.4351e-05
2770.0 2.6604e-05
2790.0 2.8678e-05
2810.0 3.0688e-05
2830.0 3.2732e-05
2850.0 3.4718e-05
2870.0 3.6754e-05
2890.0 3.8929e-05
2910.0 4.1208e-05
2930.0 4.3534e-05
2950.0 4.6022e-05
2970.0 4.8659e-05
2990.0 5.1348e-05
3010.0 0.00010199
3030.0 0.00010747
3050.0 0.00011296
3070.0 0.00011804
3090.0 0.00012248
3110.0 0.00012523
3130.0 0.00012506
3150.0 0.00012056
3170.0 0.00010889
3190.0 8.9694e-05
3210.0 6.317e-05
3230.0 3.3142e-05
3250.0 6.5026e-05
3270.0 2.6951e-05
3290.0 0.0001012
3310.0 1.8672e-05
3330.0 1.8429e-05
3350.0 2.8905e-05
3370.0 4.0996e-05
3390.0 5.3911e-05
3410.0 6.6782e-05
3430.0 8.0268e-05
3450.0 9.3735e-05
3470.0 0.00010605
3490.0 0.00011413
3510.0 0.00014359
3530.0 0.00019815
3550.0 0.00019502
3570.0 0.00015875
3590.0 0.00023058
3610.0 0.00013866
3630.0 0.0002398
3650.0 0.00027824
3670.0 0.00036333
3690.0 0.00034117
3710.0 0.00022817
3730.0 0.00031051
3750.0 0.00032208
3770.0 0.00033498
3790.0 0.00030447
3810.0 0.00027545
3830.0 0.0004099
3850.0 0.00046141
3870.0 0.00057703
3890.0 0.00054144
3910.0 0.00047867
3930.0 0.00050636
3950.0 0.00056679
3970.0 0.00072427
3990.0 0.00054561
4010.0 0.00032813
4030.0 0.00048486
4050.0 0.00056166
4070.0 0.0006422
4090.0 0.00053661
4110.0 0.00034654
4130.0 0.00048778
4150.0 0.00045443
4170.0 0.00047355
4190.0 0.00046475
4210.0 0.00060014
4230.0 0.00040743
4250.0 0.00048503
4270.0 0.00048399
4290.0 0.00048441
4310.0 0.00060496
4330.0 0.00062329
4350.0 0.00047226
4370.0 0.00039796
4390.0 0.00050231
4410.0 0.00052174
4430.0 0.00039571
4450.0 0.00039562
4470.0 0.00046982
4490.0 0.00033966
4510.0 0.0004284
4530.0 0.00045822
4550.0 0.00060898
4570.0 0.00089843
4590.0 0.00085226
4610.0 0.00053996
4630.0 0.00091316
4650.0 0.0013368
4670.0 0.0012312
4690.0 0.0007075
4710.0 0.00078185
4730.0 0.0010364
4750.0 0.00092167
4770.0 0.00069099
4790.0 0.00045912
4810.0 0.00068239
4830.0 0.00079386
4850.0 0.00068736
4870.0 0.00019661
4890.0 0.00074182
4910.0 0.0010566
4930.0 0.0011347
4950.0 0.0011055
4970.0 0.00064927
4990.0 0.00075982
5010.0 0.00092001
5030.0 0.0010345
5050.0 0.0010318
5070.0 0.00073661
5090.0 0.00059709
5110.0 0.00055848
5130.0 0.00049738
5150.0 0.00056508
5170.0 0.00048767
5190.0 0.00061294
5210.0 0.00061335
5230.0 0.0006753
5250.0 0.00085591
5270.0 0.00070199
5290.0 0.00068616
5310.0 0.0010431
5330.0 0.0012186
5350.0 0.0010059
5370.0 0.0008655
5390.0 0.0010082
5410.0 0.0012908
5430.0 0.0014287
5450.0 0.0015238
5470.0 0.0015116
5490.0 0.0014659
5510.0 0.0017315
5530.0 0.0018007
5550.0 0.0019453
5570.0 0.0020842
5590.0 0.0020716
5610.0 0.0019537
5630.0 0.0018848
5650.0 0.0019321
5670.0 0.0019122
5690.0 0.0016203
5710.0 0.0015754
5730.0 0.0016175
5750.0 0.001782
5770.0 0.0015364
5790.0 0.0014035
5810.0 0.0014211
5830.0 0.0015045
5850.0 0.0013729
5870.0 0.0013934
5890.0 0.0016889
5910.0 0.0016059
5930.0 0.0012979
5950.0 0.0011205
5970.0 0.0012216
5990.0 0.0011325
6010.0 0.0010744
6030.0 0.0011063
6050.0 0.0010307
6070.0 0.00075839
6090.0 0.00067748
6110.0 0.00090031
6130.0 0.0010488
6150.0 0.0010999
6170.0 0.001057
6190.0 0.00097623
6210.0 0.00095619
6230.0 0.0011362
6250.0 0.0010502
6270.0 0.00096181
6290.0 0.0008899
6310.0 0.00084356
6330.0 0.00080228
6350.0 0.00069747
6370.0 0.00069047
6390.0 0.00082119
6410.0 0.0010266
6430.0 0.0011799
6450.0 0.0010984
6470.0 0.0010654
6490.0 0.0013501
6510.0 0.0015673
6530.0 0.0014777
6550.0 0.001411
6570.0 0.0014336
6590.0 0.0013903
6610.0 0.0015183
6630.0 0.0014199
6650.0 0.0012383
6670.0 0.0011131
6690.0 0.0010913
6710.0 0.0013667
6730.0 0.001246
6750.0 0.001045
6770.0 0.00092474
6790.0 0.00097323
6810.0 0.001097
6830.0 0.0010736
6850.0 0.00096707
6870.0 0.0010087
6890.0 0.00099662
6910.0 0.00093895
6930.0 0.0010853
6950.0 0.0009964
6970.0 0.00091989
6990.0 0.00091259
7010.0 0.00087661
7030.0 0.00083062
7050.0 0.00080919
7070.0 0.00089611
7090.0 0.00085324
7110.0 0.00073132
7130.0 0.00058521
7150.0 0.00053384
7170.0 0.00072405
7190.0 0.00079087
7210.0 0.00075481
7230.0 0.00078069
7250.0 0.00071891
7270.0 0.00067969
7290.0 0.00076101
7310.0 0.00086308
7330.0 0.00085082
7350.0 0.00079462
7370.0 0.00075024
7390.0 0.00077925
7410.0 0.00091229
7430.0 0.0010006
7450.0 0.0010577
7470.0 0.0010314
7490.0 0.0010743
7510.0 0.0010376
7530.0 0.0010286
7550.0 0.0010217
7570.0 0.0008999
7590.0 0.00089139
7610.0 0.00086165
7630.0 0.00078766
7650.0 0.00085678
7670.0 0.0009341
7690.0 0.0010128
7710.0 0.0011375
7730.0 0.0012086
7750.0 0.0012607
7770.0 0.0012657
7790.0 0.0013885
7810.0 0.0014277
7830.0 0.0013008
7850.0 0.0013095
7870.0 0.0012469
7890.0 0.0013091
7910.0 0.0012402
7930.0 0.0012509
7950.0 0.0010896
7970.0 0.0011155
7990.0 0.0010658
8010.0 0.0010826
8030.0 0.0010764
8050.0 0.0011329
8070.0 0.0010877
8090.0 0.0010905
8110.0 0.001066
8130.0 0.0010649
8150.0 0.0010145
8170.0 0.00098719
8190.0 0.00097572
8210.0 0.00098285
8230.0 0.00086617
8250.0 0.00079084
8270.0 0.00069541
8290.0 0.00058256
8310.0 0.00050544
8330.0 0.00040455
8350.0 0.0003371
8370.0 0.00034122
8390.0 0.00034103
8410.0 0.00035788
8430.0 0.00044406
8450.0 0.00047666
8470.0 0.00050565
8490.0 0.00058388
8510.0 0.00063518
8530.0 0.00072948
8550.0 0.00086195
8570.0 0.00095434
8590.0 0.0010159
8610.0 0.0011115
8630.0 0.0012329
8650.0 0.0012544
8670.0 0.0012701
8690.0 0.0013206
8710.0 0.0013014
8730.0 0.0012796
8750.0 0.0012002
8770.0 0.0012008
8790.0 0.0011844
8810.0 0.0010907
8830.0 0.0010925
8850.0 0.0010207
8870.0 0.00097937
8890.0 0.00088845
8910.0 0.0009615
8930.0 0.00087485
8950.0 0.00086337
8970.0 0.00086912
8990.0 0.00083973
9010.0 0.00085778
9030.0 0.0008204
9050.0 0.00081597
9070.0 0.00081531
9090.0 0.00081449
9110.0 0.00081402
9130.0 0.00081292
9150.0 0.0008115
9170.0 0.000808
9190.0 0.00080125
9210.0 0.00081164
9230.0 0.00080737
9250.0 0.00080442
9270.0 0.00080169
9290.0 0.00079907
9310.0 0.00079655
9330.0 0.00079403
9350.0 0.00079145
9370.0 0.00078883
9390.0 0.00078614
9410.0 0.00078336
9430.0 0.0007805
9450.0 0.00077755
9470.0 0.00077455
9490.0 0.00077152
9510.0 0.00076842
9530.0 0.00076528
9550.0 0.00076207
9570.0 0.00075883
9590.0 0.00075555
9610.0 0.00075223
9630.0 0.00074889
9650.0 0.00074553
9670.0 0.00074214
9690.0 0.00073874
9710.0 0.00073534
9730.0 0.00073193
9750.0 0.00072851
9770.0 0.00072511
9790.0 0.0007217
9810.0 0.0007183
9830.0 0.00071492
9850.0 0.00071156
9870.0 0.00070821
9890.0 0.00070488
9910.0 0.00070159
9930.0 0.00069829
9950.0 0.00069331
9970.0 0.00069062
9990.0 0.00068789
10010.0 0.00068511
10030.0 0.00068223
10050.0 0.00067913
10070.0 0.00067521
10090.0 0.00067266
10110.0 0.00067003
10130.0 0.00066738
10150.0 0.00066474
10170.0 0.00066206
10190.0 0.00065931
10210.0 0.0006567
10230.0 0.00065416
10250.0 0.00065158
10270.0 0.00064907
10290.0 0.0006467
10310.0 0.00064431
10330.0 0.00064192
10350.0 0.00063968
10370.0 0.00063751
10390.0 0.00063532
10410.0 0.00063321
10430.0 0.00063125
10450.0 0.00062927
10470.0 0.00062733
10490.0 0.0006255
10510.0 0.00062374
10530.0 0.00062194
10550.0 0.00062025
10570.0 0.00061868
10590.0 0.00061711
10610.0 0.00061557
10630.0 0.00061417
10650.0 0.00061281
10670.0 0.00061143
10690.0 0.00061014
10710.0 0.00060896
10730.0 0.00060778
10750.0 0.0006066
10770.0 0.00060558
10790.0 0.0006046
10810.0 0.0006036
10830.0 0.00060267
10850.0 0.00060181
10870.0 0.00060079
10890.0 0.00059963
10910.0 0.00059823
10930.0 0.00059629
10950.0 0.00059336
10970.0 0.00058931
10990.0 0.00058405
11010.0 0.0005808
11030.0 0.00057219
11050.0 0.00056211
11070.0 0.00055048
11090.0 0.00053698
11110.0 0.00052349
11130.0 0.00050994
11150.0 0.00049595
11170.0 0.0004822
11190.0 0.0004695
11210.0 0.00045702
11230.0 0.00044485
11250.0 0.00043378
11270.0 0.0004236
11290.0 0.00041377
11310.0 0.00040472
11330.0 0.00039691
11350.0 0.00038955
11370.0 0.00038264
11390.0 0.00037647
11410.0 0.00037079
11430.0 0.00036505
11450.0 0.00035963
11470.0 0.00035446
11490.0 0.00034914
11510.0 0.0003435
11530.0 0.00033795
11550.0 0.00033223
11570.0 0.00032598
11590.0 0.00031951
11610.0 0.000313
11630.0 0.00030596
11650.0 0.00029847
11670.0 0.00029118
11690.0 0.00028379
11710.0 0.00027606
11730.0 0.00026845
11750.0 0.00026127
11770.0 0.00025395
11790.0 0.00024676
11810.0 0.00024012
11830.0 0.0002338
11850.0 0.00022745
11870.0 0.00022169
11890.0 0.00021648
11910.0 0.00021141
11930.0 0.00020658
11950.0 0.00020226
11970.0 0.00019814
11990.0 0.00019402
12010.0 0.00019024
12030.0 0.00018672
12050.0 0.00018322
12070.0 0.00017977
12090.0 0.00017673
12110.0 0.00017379
12130.0 0.00017093
12150.0 0.00016837
12170.0 0.00016616
12190.0 0.00016407
12210.0 0.00016239
12230.0 0.00016123
12250.0 0.00016051
12270.0 0.00016031
12290.0 0.00016073
12310.0 0.00016175
12330.0 0.00016342
12350.0 0.00016573
12370.0 0.00016857
12390.0 0.00017197
12410.0 0.00017602
12430.0 0.00018028
12450.0 0.00018478
12470.0 0.00018956
12490.0 0.00019441
12510.0 0.00019904
12530.0 0.00020366
12550.0 0.00020814
12570.0 0.00021223
12590.0 0.00021598
12610.0 0.00021947
12630.0 0.00022256
12650.0 0.00022518
12670.0 0.00022747
12690.0 0.00022942
12710.0 0.00023099
12730.0 0.00023225
12750.0 0.00023319
12770.0 0.00023383
12790.0 0.00023421
12810.0 0.0002343
12830.0 0.0002341
12850.0 0.0002337
12870.0 0.00023306
12890.0 0.0002321
12910.0 0.00023091
12930.0 0.00022955
12950.0 0.00022783
12970.0 0.00022579
12990.0 0.00022363
13010.0 0.00022124
13030.0 0.00021849
13050.0 0.00021558
13070.0 0.00021264
13090.0 0.0002094
13110.0 0.00020601
13130.0 0.00020272
13150.0 0.00019943
13170.0 0.00019602
13190.0 0.00019291
13210.0 0.00019013
13230.0 0.00018752
13250.0 0.00018524
13270.0 0.00018346
13290.0 0.00018205
13310.0 0.000181
13330.0 0.00018043
13350.0 0.00018024
13370.0 0.00018035
13390.0 0.0001807
13410.0 0.00018121
13430.0 0.00018175
13450.0 0.00018225
13470.0 0.00018259
13490.0 0.00018273
13510.0 0.00018254
13530.0 0.00018201
13550.0 0.00018117
13570.0 0.00017998
13590.0 0.0001784
13610.0 0.00017662
13630.0 0.00017468
13650.0 0.0001725
13670.0 0.00017025
13690.0 0.00016805
13710.0 0.00016585
13730.0 0.0001636
13750.0 0.00016159
13770.0 0.00015971
13790.0 0.00015788
13810.0 0.00015618
13830.0 0.00015465
13850.0 0.00015314
13870.0 0.00015166
13890.0 0.00015027
13910.0 0.00014891
13930.0 0.0001475
13950.0 0.0001461
13970.0 0.00014477
13990.0 0.00014341
14010.0 0.00014205
14030.0 0.00014077
14050.0 0.00013955
14070.0 0.00013834
14090.0 0.00013726
14110.0 0.00013631
14130.0 0.00013545
14150.0 0.00013471
14170.0 0.00013413
14190.0 0.00013367
14210.0 0.00013334
14230.0 0.00013314
14250.0 0.00013307
14270.0 0.00013314
14290.0 0.00013335
14310.0 0.00013365
14330.0 0.00013405
14350.0 0.00013459
14370.0 0.00013519
14390.0 0.00013581
14410.0 0.00013652
14430.0 0.00013725
14450.0 0.00013794
14470.0 0.0001386
14490.0 0.00013927
14510.0 0.00013985
14530.0 0.00014034
14550.0 0.00014081
14570.0 0.00014125
14590.0 0.00014163
14610.0 0.00014202
14630.0 0.00014249
14650.0 0.000143
14670.0 0.00014359
14690.0 0.00014435
14710.0 0.00014532
14730.0 0.00014638
14750.0 0.00014769
14770.0 0.00014927
14790.0 0.00015102
14810.0 0.00015291
14830.0 0.00015517
14850.0 0.00015756
14870.0 0.00015996
14890.0 0.00016246
14910.0 0.00016503
14930.0 0.00016735
14950.0 0.00016938
14970.0 0.00017117
14990.0 0.00017249
15010.0 0.00017327
15030.0 0.00017362
15050.0 0.00017355
15070.0 0.00017309
15090.0 0.00017239
15110.0 0.00017151
15130.0 0.00017054
15150.0 0.00016951
15170.0 0.00016845
15190.0 0.00016737
15210.0 0.0001663
15230.0 0.00016522
15250.0 0.00016414
15270.0 0.00016305
15290.0 0.00016199
15310.0 0.00016091
15330.0 0.00015983
15350.0 0.00015876
15370.0 0.0001577
15390.0 0.00015662
15410.0 0.00015556
15430.0 0.0001545
15450.0 0.00015344
15470.0 0.00015238
15490.0 0.00015134
15510.0 0.00015029
15530.0 0.00014924
15550.0 0.0001482
15570.0 0.00014718
15590.0 0.00014614
15610.0 0.00014511
15630.0 0.00014409
15650.0 0.00014308
15670.0 0.00014206
15690.0 0.00014105
15710.0 0.00014006
15730.0 0.00013906
15750.0 0.00013807
15770.0 0.00013709
15790.0 0.00013611
15810.0 0.00013513
15830.0 0.00013416
15850.0 0.00013321
15870.0 0.00013225
15890.0 0.0001313
15910.0 0.00013037
15930.0 0.00012943
15950.0 0.0001285
15970.0 0.00012758
15990.0 0.00012666
16010.0 0.00012575
16030.0 0.00012484
16050.0 0.00012396
16070.0 0.00012307
16090.0 0.00012218
16110.0 0.00012131
16130.0 0.00012045
16150.0 0.00011958
16170.0 0.00011872
16190.0 0.00011788
16210.0 0.00011704
16230.0 0.00011621
16250.0 0.00011538
16270.0 0.00011457
16290.0 0.00011376
16310.0 0.00011295
16330.0 0.00011216
16350.0 0.00011137
16370.0 0.00011058
16390.0 0.00010981
16410.0 0.00010904
16430.0 0.00010828
16450.0 0.00010752
16470.0 0.00010678
16490.0 0.00010604
16510.0 0.0001053
16530.0 0.00010458
16550.0 0.00010386
16570.0 0.00010314
16590.0 0.00010243
16610.0 0.00010174
16630.0 0.00010105
16650.0 0.00010036
16670.0 9.9689e-05
16690.0 9.9022e-05
16710.0 9.8349e-05
16730.0 9.7691e-05
16750.0 9.7044e-05
16770.0 9.6398e-05
16790.0 9.5754e-05
16810.0 9.5128e-05
16830.0 9.4506e-05
16850.0 9.3883e-05
16870.0 9.3271e-05
16890.0 9.2671e-05
16910.0 9.2067e-05
16930.0 9.1467e-05
16950.0 9.0884e-05
16970.0 9.0305e-05
16990.0 8.9725e-05
17010.0 8.9157e-05
17030.0 8.86e-05
17050.0 8.804e-05
17070.0 8.7485e-05
17090.0 8.6944e-05
17110.0 8.6405e-05
17130.0 8.5863e-05
17150.0 8.5336e-05
17170.0 8.4819e-05
17190.0 8.4299e-05
17210.0 8.3785e-05
17230.0 8.3285e-05
17250.0 8.2784e-05
17270.0 8.2282e-05
17290.0 8.1793e-05
17310.0 8.1312e-05
17330.0 8.0829e-05
17350.0 8.0349e-05
17370.0 7.9887e-05
17390.0 7.9423e-05
17410.0 7.8959e-05
17430.0 7.8507e-05
17450.0 7.8063e-05
17470.0 7.761e-05
17490.0 7.7167e-05
17510.0 7.6737e-05
17530.0 7.6306e-05
17550.0 7.5875e-05
17570.0 7.5456e-05
17590.0 7.5044e-05
17610.0 7.4626e-05
17630.0 7.4217e-05
17650.0 7.3818e-05
17670.0 7.3417e-05
17690.0 7.3013e-05
17710.0 7.2626e-05
17730.0 7.2242e-05
17750.0 7.1856e-05
17770.0 7.1476e-05
17790.0 7.1108e-05
17810.0 7.0734e-05
17830.0 7.0363e-05
17850.0 7.0002e-05
17870.0 6.9645e-05
17890.0 6.9284e-05
17910.0 6.893e-05
17930.0 6.8588e-05
17950.0 6.8243e-05
17970.0 6.7899e-05
17990.0 6.7565e-05
18010.0 6.7234e-05
18030.0 6.6896e-05
18050.0 6.6569e-05
18070.0 6.6249e-05
18090.0 6.5927e-05
18110.0 6.5606e-05
18130.0 6.5297e-05
18150.0 6.4988e-05
18170.0 6.4677e-05
18190.0 6.4373e-05
18210.0 6.4077e-05
18230.0 6.3774e-05
18250.0 6.3474e-05
18270.0 6.3186e-05
18290.0 6.2898e-05
18310.0 6.2608e-05
18330.0 6.2325e-05
18350.0 6.205e-05
18370.0 6.1768e-05
18390.0 6.149e-05
18410.0 6.1222e-05
18430.0 6.0953e-05
18450.0 6.0678e-05
18470.0 6.0415e-05
18490.0 6.0158e-05
18510.0 5.9896e-05
18530.0 5.9637e-05
18550.0 5.9388e-05
18570.0 5.9135e-05
18590.0 5.8879e-05
18610.0 5.8634e-05
18630.0 5.8392e-05
18650.0 5.8145e-05
18670.0 5.7901e-05
18690.0 5.7669e-05
18710.0 5.7433e-05
18730.0 5.7196e-05
18750.0 5.6966e-05
18770.0 5.6741e-05
18790.0 5.6507e-05
18810.0 5.6279e-05
18830.0 5.606e-05
18850.0 5.5838e-05
18870.0 5.5614e-05
18890.0 5.54e-05
18910.0 5.5188e-05
18930.0 5.497e-05
18950.0 5.4757e-05
18970.0 5.4552e-05
18990.0 5.4342e-05
19010.0 5.4128e-05
19030.0 5.3927e-05
19050.0 5.3727e-05
19070.0 5.3522e-05
19090.0 5.3322e-05
19110.0 5.3131e-05
19130.0 5.2931e-05
19150.0 5.2732e-05
19170.0 5.2542e-05
19190.0 5.2352e-05
19210.0 5.2156e-05
19230.0 5.1966e-05
19250.0 5.1785e-05
19270.0 5.1598e-05
19290.0 5.1411e-05
19310.0 5.1232e-05
19330.0 5.1052e-05
19350.0 5.0865e-05
19370.0 5.0686e-05
19390.0 5.0513e-05
19410.0 5.0334e-05
19430.0 5.0155e-05
19450.0 4.9986e-05
19470.0 4.9816e-05
19490.0 4.964e-05
19510.0 4.9471e-05
19530.0 4.9306e-05
19550.0 4.9134e-05
19570.0 4.8963e-05
19590.0 4.8802e-05
19610.0 4.8638e-05
19630.0 4.8471e-05
19650.0 4.831e-05
19670.0 4.8153e-05
19690.0 4.7989e-05
19710.0 4.7827e-05
19730.0 4.7672e-05
19750.0 4.7515e-05
19770.0 4.7352e-05
19790.0 4.7198e-05
19810.0 4.7047e-05
19830.0 4.6889e-05
19850.0 4.6731e-05
19870.0 4.6577e-05
19890.0 4.6408e-05
19910.0 4.6218e-05
19930.0 4.6009e-05
19950.0 4.5762e-05
19970.0 4.5446e-05
19990.0 4.5055e-05
20010.0 4.4605e-05
20030.0 4.4054e-05
20050.0 4.3406e-05
20070.0 4.271e-05
20090.0 4.1968e-05
20110.0 4.1138e-05
20130.0 4.0312e-05
20150.0 3.9509e-05
20170.0 3.8687e-05
20190.0 3.7867e-05
20210.0 3.7106e-05
20230.0 3.6373e-05
20250.0 3.5648e-05
20270.0 3.4985e-05
20290.0 3.439e-05
20310.0 3.3834e-05
20330.0 3.3328e-05
20350.0 3.2925e-05
20370.0 3.2585e-05
20390.0 3.2311e-05
20410.0 3.2123e-05
20430.0 3.2016e-05
20450.0 3.1982e-05
20470.0 3.2031e-05
20490.0 3.2155e-05
20510.0 3.235e-05
20530.0 3.2624e-05
20550.0 3.2956e-05
20570.0 3.333e-05
20590.0 3.3765e-05
20610.0 3.4242e-05
20630.0 3.4731e-05
20650.0 3.5244e-05
20670.0 3.5791e-05
20690.0 3.6313e-05
20710.0 3.6816e-05
20730.0 3.7312e-05
20750.0 3.7779e-05
20770.0 3.8191e-05
20790.0 3.857e-05
20810.0 3.8911e-05
20830.0 3.9195e-05
20850.0 3.9427e-05
20870.0 3.9619e-05
20890.0 3.9761e-05
20910.0 3.9854e-05
20930.0 3.991e-05
20950.0 3.9928e-05
20970.0 3.9912e-05
20990.0 3.9869e-05
21010.0 3.9793e-05
21030.0 3.9693e-05
21050.0 3.9574e-05
21070.0 3.9431e-05
21090.0 3.9262e-05
21110.0 3.9086e-05
21130.0 3.8897e-05
21150.0 3.8689e-05
21170.0 3.8475e-05
21190.0 3.8264e-05
21210.0 3.8043e-05
21230.0 3.782e-05
21250.0 3.7614e-05
21270.0 3.7419e-05
21290.0 3.7233e-05
21310.0 3.7068e-05
21330.0 3.6934e-05
21350.0 3.6819e-05
21370.0 3.6731e-05
21390.0 3.6676e-05
21410.0 3.665e-05
21430.0 3.6656e-05
21450.0 3.6696e-05
21470.0 3.6764e-05
21490.0 3.6863e-05
21510.0 3.6993e-05
21530.0 3.7144e-05
21550.0 3.7319e-05
21570.0 3.7523e-05
21590.0 3.7743e-05
21610.0 3.7976e-05
21630.0 3.8233e-05
21650.0 3.8512e-05
21670.0 3.8788e-05
21690.0 3.908e-05
21710.0 3.9394e-05
21730.0 3.9712e-05
21750.0 4.0032e-05
21770.0 4.0382e-05
21790.0 4.0742e-05
21810.0 4.11e-05
21830.0 4.1473e-05
21850.0 4.187e-05
21870.0 4.2267e-05
21890.0 4.266e-05
21910.0 4.3078e-05
21930.0 4.3502e-05
21950.0 4.3915e-05
21970.0 4.4336e-05
21990.0 4.4774e-05
22010.0 4.5186e-05
22030.0 4.5584e-05
22050.0 4.598e-05
22070.0 4.6356e-05
22090.0 4.6693e-05
22110.0 4.701e-05
22130.0 4.7298e-05
22150.0 4.7539e-05
22170.0 4.7734e-05
22190.0 4.7886e-05
22210.0 4.7981e-05
22230.0 4.8017e-05
22250.0 4.7996e-05
22270.0 4.791e-05
22290.0 4.7765e-05
22310.0 4.7562e-05
22330.0 4.7282e-05
22350.0 4.6944e-05
22370.0 4.6558e-05
22390.0 4.6108e-05
22410.0 4.5587e-05
22430.0 4.5044e-05
22450.0 4.4464e-05
22470.0 4.3824e-05
22490.0 4.3161e-05
22510.0 4.2498e-05
22530.0 4.1788e-05
22550.0 4.1054e-05
22570.0 4.0346e-05
22590.0 3.964e-05
22610.0 3.8916e-05
22630.0 3.8214e-05
22650.0 3.7559e-05
22670.0 3.6898e-05
22690.0 3.6255e-05
22710.0 3.5661e-05
22730.0 3.5096e-05
