#lamb flux
1010.0 1.3668e-08
1030.0 1.5117e-08
1050.0 1.6783e-08
1070.0 1.8659e-08
1090.0 2.079e-08
1110.0 2.2976e-08
1130.0 2.5176e-08
1150.0 2.748e-08
1170.0 2.9857e-08
1190.0 3.211e-08
1210.0 3.4395e-08
1230.0 3.6755e-08
1250.0 3.9068e-08
1270.0 4.1314e-08
1290.0 4.3687e-08
1310.0 4.6058e-08
1330.0 4.8332e-08
1350.0 5.0632e-08
1370.0 5.3007e-08
1390.0 5.5322e-08
1410.0 5.7568e-08
1430.0 5.9917e-08
1450.0 6.2265e-08
1470.0 6.4535e-08
1490.0 6.6829e-08
1510.0 6.9253e-08
1530.0 7.155e-08
1550.0 7.3816e-08
1570.0 7.6161e-08
1590.0 7.8508e-08
1610.0 8.0752e-08
1630.0 8.3066e-08
1650.0 8.5442e-08
1670.0 8.7742e-08
1690.0 9.0013e-08
1710.0 9.2374e-08
1730.0 9.475e-08
1750.0 9.6986e-08
1770.0 9.929e-08
1790.0 1.0164e-07
1810.0 1.0392e-07
1830.0 1.0617e-07
1850.0 1.0855e-07
1870.0 1.1088e-07
1890.0 1.1314e-07
1910.0 1.1544e-07
1930.0 1.178e-07
1950.0 1.2006e-07
1970.0 1.223e-07
1990.0 1.2463e-07
2010.0 1.2693e-07
2030.0 1.2914e-07
2050.0 1.3143e-07
2070.0 1.3379e-07
2090.0 1.3601e-07
2110.0 1.3824e-07
2130.0 1.4053e-07
2150.0 1.4279e-07
2170.0 1.4495e-07
2190.0 1.472e-07
2210.0 1.4947e-07
2230.0 1.5165e-07
2250.0 1.5382e-07
2270.0 1.5609e-07
2290.0 1.583e-07
2310.0 1.6042e-07
2330.0 1.6262e-07
2350.0 1.6489e-07
2370.0 1.6714e-07
2390.0 1.6959e-07
2410.0 1.7248e-07
2430.0 1.7581e-07
2450.0 1.7979e-07
2470.0 1.8488e-07
2490.0 1.9131e-07
2510.0 1.9861e-07
2530.0 2.074e-07
2550.0 2.1841e-07
2570.0 2.321e-07
2590.0 2.499e-07
2610.0 2.7656e-07
2630.0 3.1463e-07
2650.0 3.644e-07
2670.0 4.2875e-07
2690.0 5.0782e-07
2710.0 5.9223e-07
2730.0 6.7564e-07
2750.0 7.5779e-07
2770.0 8.2925e-07
2790.0 8.8599e-07
2810.0 9.3103e-07
2830.0 9.6621e-07
2850.0 9.9022e-07
2870.0 1.0079e-06
2890.0 1.0218e-06
2910.0 1.0329e-06
2930.0 1.042e-06
2950.0 1.0507e-06
2970.0 1.0592e-06
2990.0 1.0672e-06
3010.0 3.0165e-05
3030.0 3.039e-05
3050.0 3.0608e-05
3070.0 3.0795e-05
3090.0 3.0956e-05
3110.0 3.1055e-05
3130.0 3.1051e-05
3150.0 3.0913e-05
3170.0 3.0582e-05
3190.0 3.0062e-05
3210.0 2.9403e-05
3230.0 2.8648e-05
3250.0 2.7903e-05
3270.0 2.7359e-05
3290.0 2.7056e-05
3310.0 2.7105e-05
3330.0 2.7498e-05
3350.0 2.8181e-05
3370.0 2.9156e-05
3390.0 3.0386e-05
3410.0 3.1723e-05
3430.0 3.3225e-05
3450.0 3.4954e-05
3470.0 3.6842e-05
3490.0 3.8843e-05
3510.0 4.1105e-05
3530.0 4.3527e-05
3550.0 4.5979e-05
3570.0 4.8537e-05
3590.0 5.1319e-05
3610.0 5.4185e-05
3630.0 5.7043e-05
3650.0 6.0008e-05
3670.0 6.2715e-05
3690.0 6.4738e-05
3710.0 6.5898e-05
3730.0 6.5936e-05
3750.0 6.5018e-05
3770.0 6.4658e-05
3790.0 6.4273e-05
3810.0 6.2694e-05
3830.0 6.4634e-05
3850.0 7.2269e-05
3870.0 7.646e-05
3890.0 7.6111e-05
3910.0 7.6435e-05
3930.0 7.8447e-05
3950.0 7.9686e-05
3970.0 7.2601e-05
3990.0 6.247e-05
4010.0 0.00018723
4030.0 0.00022686
4050.0 0.00026008
4070.0 0.00022566
4090.0 0.00020438
4110.0 0.00018035
4130.0 0.00016599
4150.0 0.00017656
4170.0 0.00017392
4190.0 0.00018539
4210.0 0.00018369
4230.0 0.0001943
4250.0 0.00022986
4270.0 0.00023256
4290.0 0.0002143
4310.0 0.00022268
4330.0 0.00023686
4350.0 0.00026558
4370.0 0.00030223
4390.0 0.00028361
4410.0 0.00020954
4430.0 0.00017739
4450.0 0.000163
4470.0 0.00012511
4490.0 0.00013501
4510.0 0.00020393
4530.0 0.0002352
4550.0 0.00023724
4570.0 0.00026695
4590.0 0.00030408
4610.0 0.00041014
4630.0 0.00053268
4650.0 0.00057769
4670.0 0.00053499
4690.0 0.00051048
4710.0 0.00053961
4730.0 0.00050924
4750.0 0.00038072
4770.0 0.00027927
4790.0 0.00026079
4810.0 0.00024857
4830.0 0.00022756
4850.0 0.00024971
4870.0 0.0003299
4890.0 0.00038904
4910.0 0.00034133
4930.0 0.00030203
4950.0 0.00033183
4970.0 0.00042555
4990.0 0.00057672
5010.0 0.00066344
5030.0 0.000585
5050.0 0.00039579
5070.0 0.00026084
5090.0 0.00021033
5110.0 0.0002163
5130.0 0.00024965
5150.0 0.00027048
5170.0 0.00026642
5190.0 0.00024895
5210.0 0.00026021
5230.0 0.00027353
5250.0 0.00029479
5270.0 0.00031806
5290.0 0.00035247
5310.0 0.00041026
5330.0 0.000454
5350.0 0.0004511
5370.0 0.00047383
5390.0 0.00054373
5410.0 0.00054324
5430.0 0.00048041
5450.0 0.00044138
5470.0 0.00046866
5490.0 0.00057257
5510.0 0.00071591
5530.0 0.0008211
5550.0 0.0007936
5570.0 0.00072143
5590.0 0.00062729
5610.0 0.0005785
5630.0 0.00056096
5650.0 0.00053425
5670.0 0.00050624
5690.0 0.00045258
5710.0 0.00044127
5730.0 0.00040647
5750.0 0.00028658
5770.0 0.00022358
5790.0 0.00025336
5810.0 0.00028609
5830.0 0.00035107
5850.0 0.0004179
5870.0 0.00046366
5890.0 0.00047151
5910.0 0.00046258
5930.0 0.00044032
5950.0 0.00044868
5970.0 0.00051144
5990.0 0.00048088
6010.0 0.00040312
6030.0 0.00034058
6050.0 0.0002966
6070.0 0.00029498
6090.0 0.00031986
6110.0 0.00035765
6130.0 0.00036313
6150.0 0.00031244
6170.0 0.00027485
6190.0 0.00030931
6210.0 0.0004089
6230.0 0.00053659
6250.0 0.0005812
6270.0 0.00050789
6290.0 0.00042731
6310.0 0.00033359
6330.0 0.0002556
6350.0 0.00022798
6370.0 0.00023975
6390.0 0.00027717
6410.0 0.00034176
6430.0 0.00039908
6450.0 0.00045665
6470.0 0.00052287
6490.0 0.0006316
6510.0 0.00070621
6530.0 0.00069283
6550.0 0.00062651
6570.0 0.00053185
6590.0 0.00047958
6610.0 0.00041352
6630.0 0.00037463
6650.0 0.00035414
6670.0 0.00034404
6690.0 0.00031086
6710.0 0.00028257
6730.0 0.00020353
6750.0 0.00020178
6770.0 0.00021932
6790.0 0.0002521
6810.0 0.00023067
6830.0 0.00023753
6850.0 0.00022217
6870.0 0.00020295
6890.0 0.00019486
6910.0 0.00020765
6930.0 0.00019449
6950.0 0.0002001
6970.0 0.00021047
6990.0 0.0002389
7010.0 0.00024094
7030.0 0.00024476
7050.0 0.00023342
7070.0 0.00022241
7090.0 0.00022306
7110.0 0.00022951
7130.0 0.00024699
7150.0 0.00026232
7170.0 0.00028945
7190.0 0.00031819
7210.0 0.00031267
7230.0 0.00032143
7250.0 0.00034542
7270.0 0.00037643
7290.0 0.00044678
7310.0 0.0004848
7330.0 0.0004686
7350.0 0.00042382
7370.0 0.00036876
7390.0 0.00035774
7410.0 0.00038017
7430.0 0.00042251
7450.0 0.00046019
7470.0 0.00045597
7490.0 0.00041575
7510.0 0.00047095
7530.0 0.00046579
7550.0 0.00041867
7570.0 0.00032706
7590.0 0.00022484
7610.0 0.00019298
7630.0 0.00021927
7650.0 0.00025925
7670.0 0.00032266
7690.0 0.00035507
7710.0 0.00037003
7730.0 0.00038885
7750.0 0.00043653
7770.0 0.0004434
7790.0 0.00040729
7810.0 0.00037163
7830.0 0.00038323
7850.0 0.00037254
7870.0 0.00034156
7890.0 0.00028698
7910.0 0.00023327
7930.0 0.00022274
7950.0 0.00020293
7970.0 0.00018785
7990.0 0.00018677
8010.0 1.3839e-05
8030.0 1.3659e-05
8050.0 1.3475e-05
8070.0 1.3653e-05
8090.0 1.4671e-05
8110.0 1.4421e-05
8130.0 1.1893e-05
8150.0 1.1583e-05
8170.0 9.975e-06
8190.0 9.4517e-06
8210.0 1.2278e-05
8230.0 1.3671e-05
8250.0 1.2318e-05
8270.0 1.072e-05
8290.0 1.0453e-05
8310.0 8.046e-06
8330.0 5.4228e-06
8350.0 3.8487e-06
8370.0 2.4235e-06
8390.0 4.4325e-06
8410.0 5.1651e-06
8430.0 6.3667e-06
8450.0 7.4762e-06
8470.0 9.2942e-06
8490.0 9.2278e-06
8510.0 9.0759e-06
8530.0 9.4699e-06
8550.0 1.2781e-05
8570.0 1.5134e-05
8590.0 1.6325e-05
8610.0 2.0624e-05
8630.0 2.4844e-05
8650.0 2.5984e-05
8670.0 2.7616e-05
8690.0 2.7776e-05
8710.0 2.5154e-05
8730.0 2.3399e-05
8750.0 2.0653e-05
8770.0 1.9596e-05
8790.0 1.9253e-05
8810.0 1.845e-05
8830.0 1.4751e-05
8850.0 1.0797e-05
8870.0 8.2665e-06
8890.0 8.0848e-06
8910.0 9.2675e-06
8930.0 1.0543e-05
8950.0 1.0745e-05
8970.0 1.0796e-05
8990.0 9.6266e-06
9010.0 0.00010081
9030.0 9.1345e-05
9050.0 9.1786e-05
9070.0 9.2511e-05
9090.0 9.3147e-05
9110.0 9.3932e-05
9130.0 9.4538e-05
9150.0 9.5009e-05
9170.0 9.5511e-05
9190.0 9.6046e-05
9210.0 9.6611e-05
9230.0 9.7206e-05
9250.0 9.7811e-05
9270.0 9.8439e-05
9290.0 9.9086e-05
9310.0 9.9737e-05
9330.0 0.0001004
9350.0 0.00010109
9370.0 0.00010179
9390.0 0.00010249
9410.0 0.00010321
9430.0 0.00010396
9450.0 0.0001047
9470.0 0.00010546
9490.0 0.00010624
9510.0 0.00010703
9530.0 0.00010782
9550.0 0.00010864
9570.0 0.00010948
9590.0 0.00011031
9610.0 0.00011116
9630.0 0.00011204
9650.0 0.00011292
9670.0 0.0001138
9690.0 0.00011471
9710.0 0.00011563
9730.0 0.00011656
9750.0 0.00011749
9770.0 0.00011846
9790.0 0.00011942
9810.0 0.00012039
9830.0 0.00012138
9850.0 0.00012238
9870.0 0.00012338
9890.0 0.00012439
9910.0 0.00012542
9930.0 0.00012646
9950.0 0.00012749
9970.0 0.00012855
9990.0 0.00012962
10010.0 0.00011248
10030.0 0.0001134
10050.0 0.00011434
10070.0 0.00011532
10090.0 0.00011624
10110.0 0.00011718
10130.0 0.00011812
10150.0 0.00011906
10170.0 0.00012002
10190.0 0.00012099
10210.0 0.00012195
10230.0 0.0001229
10250.0 0.00012387
10270.0 0.00012484
10290.0 0.0001258
10310.0 0.00012677
10330.0 0.00012775
10350.0 0.00012872
10370.0 0.00012968
10390.0 0.00013065
10410.0 0.00013161
10430.0 0.00013256
10450.0 0.00013352
10470.0 0.00013448
10490.0 0.00013542
10510.0 0.00013636
10530.0 0.00013731
10550.0 0.00013825
10570.0 0.00013917
10590.0 0.00014009
10610.0 0.00014101
10630.0 0.00014191
10650.0 0.0001428
10670.0 0.0001437
10690.0 0.00014458
10710.0 0.00014545
10730.0 0.00014631
10750.0 0.00014718
10770.0 0.00014801
10790.0 0.00014884
10810.0 0.00014966
10830.0 0.00015046
10850.0 0.00015122
10870.0 0.00015195
10890.0 0.0001526
10910.0 0.0001531
10930.0 0.00015338
10950.0 0.00015331
10970.0 0.00015279
10990.0 0.00015177
11010.0 0.00015006
11030.0 0.00014767
11050.0 0.00014476
11070.0 0.00014129
11090.0 0.00013711
11110.0 0.00013278
11130.0 0.00012827
11150.0 0.00012342
11170.0 0.00011841
11190.0 0.00011355
11210.0 0.00010854
11230.0 0.0001034
11250.0 9.8484e-05
11270.0 9.3766e-05
11290.0 8.9039e-05
11310.0 8.4561e-05
11330.0 8.0617e-05
11350.0 7.6892e-05
11370.0 7.3449e-05
11390.0 7.0471e-05
11410.0 6.7866e-05
11430.0 6.5445e-05
11450.0 6.3359e-05
11470.0 6.1554e-05
11490.0 5.9876e-05
11510.0 5.8259e-05
11530.0 5.6758e-05
11550.0 5.5268e-05
11570.0 5.3677e-05
11590.0 5.203e-05
11610.0 5.0354e-05
11630.0 4.8529e-05
11650.0 4.6575e-05
11670.0 4.465e-05
11690.0 4.2697e-05
11710.0 4.0683e-05
11730.0 3.8732e-05
11750.0 3.6925e-05
11770.0 3.5154e-05
11790.0 3.3494e-05
11810.0 3.2032e-05
11830.0 3.0725e-05
11850.0 2.9522e-05
11870.0 2.8515e-05
11890.0 2.7678e-05
11910.0 2.6942e-05
11930.0 2.631e-05
11950.0 2.5783e-05
11970.0 2.5313e-05
11990.0 2.4868e-05
12010.0 2.4457e-05
12030.0 2.406e-05
12050.0 2.3651e-05
12070.0 2.3224e-05
12090.0 2.2813e-05
12110.0 2.2396e-05
12130.0 2.1978e-05
12150.0 2.1593e-05
12170.0 2.1256e-05
12190.0 2.0966e-05
12210.0 2.0763e-05
12230.0 2.0664e-05
12250.0 2.068e-05
12270.0 2.0836e-05
12290.0 2.1131e-05
12310.0 2.1554e-05
12330.0 2.2145e-05
12350.0 2.2884e-05
12370.0 2.3724e-05
12390.0 2.4694e-05
12410.0 2.5829e-05
12430.0 2.6984e-05
12450.0 2.8179e-05
12470.0 2.945e-05
12490.0 3.0726e-05
12510.0 3.1924e-05
12530.0 3.3115e-05
12550.0 3.4265e-05
12570.0 3.5279e-05
12590.0 3.617e-05
12610.0 3.6964e-05
12630.0 3.7596e-05
12650.0 3.8033e-05
12670.0 3.832e-05
12690.0 3.8435e-05
12710.0 3.8372e-05
12730.0 3.8149e-05
12750.0 3.7752e-05
12770.0 3.7208e-05
12790.0 3.6547e-05
12810.0 3.5759e-05
12830.0 3.4847e-05
12850.0 3.3892e-05
12870.0 3.2883e-05
12890.0 3.1792e-05
12910.0 3.0682e-05
12930.0 2.9588e-05
12950.0 2.8447e-05
12970.0 2.7285e-05
12990.0 2.6186e-05
13010.0 2.5101e-05
13030.0 2.4003e-05
13050.0 2.2949e-05
13070.0 2.1962e-05
13090.0 2.0971e-05
13110.0 2.0012e-05
13130.0 1.9128e-05
13150.0 1.8291e-05
13170.0 1.7471e-05
13190.0 1.6742e-05
13210.0 1.61e-05
13230.0 1.5513e-05
13250.0 1.5008e-05
13270.0 1.461e-05
13290.0 1.43e-05
13310.0 1.4086e-05
13330.0 1.3989e-05
13350.0 1.4e-05
13370.0 1.4126e-05
13390.0 1.4372e-05
13410.0 1.4706e-05
13430.0 1.5139e-05
13450.0 1.5674e-05
13470.0 1.6269e-05
13490.0 1.6898e-05
13510.0 1.7608e-05
13530.0 1.8327e-05
13550.0 1.9016e-05
13570.0 1.9695e-05
13590.0 2.0357e-05
13610.0 2.0946e-05
13630.0 2.146e-05
13650.0 2.1929e-05
13670.0 2.2319e-05
13690.0 2.262e-05
13710.0 2.2853e-05
13730.0 2.3019e-05
13750.0 2.3103e-05
13770.0 2.3122e-05
13790.0 2.308e-05
13810.0 2.2978e-05
13830.0 2.2827e-05
13850.0 2.2623e-05
13870.0 2.2366e-05
13890.0 2.2072e-05
13910.0 2.174e-05
13930.0 2.1357e-05
13950.0 2.0938e-05
13970.0 2.0509e-05
13990.0 2.0043e-05
14010.0 1.9547e-05
14030.0 1.9052e-05
14050.0 1.8553e-05
14070.0 1.8026e-05
14090.0 1.7522e-05
14110.0 1.7048e-05
14130.0 1.6588e-05
14150.0 1.6156e-05
14170.0 1.5787e-05
14190.0 1.5467e-05
14210.0 1.5197e-05
14230.0 1.4996e-05
14250.0 1.4866e-05
14270.0 1.4804e-05
14290.0 1.4817e-05
14310.0 1.49e-05
14330.0 1.5048e-05
14350.0 1.5266e-05
14370.0 1.5538e-05
14390.0 1.5847e-05
14410.0 1.621e-05
14430.0 1.661e-05
14450.0 1.7018e-05
14470.0 1.7441e-05
14490.0 1.7891e-05
14510.0 1.8321e-05
14530.0 1.873e-05
14550.0 1.9138e-05
14570.0 1.9531e-05
14590.0 1.9888e-05
14610.0 2.0233e-05
14630.0 2.0575e-05
14650.0 2.0893e-05
14670.0 2.12e-05
14690.0 2.1521e-05
14710.0 2.1858e-05
14730.0 2.2195e-05
14750.0 2.2568e-05
14770.0 2.2992e-05
14790.0 2.3451e-05
14810.0 2.3948e-05
14830.0 2.4537e-05
14850.0 2.5178e-05
14870.0 2.5846e-05
14890.0 2.6567e-05
14910.0 2.7333e-05
14930.0 2.8069e-05
14950.0 2.8757e-05
14970.0 2.9408e-05
14990.0 2.9954e-05
15010.0 3.0372e-05
15030.0 3.0681e-05
15050.0 3.0886e-05
15070.0 3.0986e-05
15090.0 3.1021e-05
15110.0 3.1011e-05
15130.0 3.0972e-05
15150.0 3.0919e-05
15170.0 3.0858e-05
15190.0 3.0791e-05
15210.0 3.0726e-05
15230.0 3.066e-05
15250.0 3.0593e-05
15270.0 3.0526e-05
15290.0 3.0462e-05
15310.0 3.0397e-05
15330.0 3.0331e-05
15350.0 3.0268e-05
15370.0 3.0205e-05
15390.0 3.0139e-05
15410.0 3.0076e-05
15430.0 3.0014e-05
15450.0 2.9951e-05
15470.0 2.9887e-05
15490.0 2.9826e-05
15510.0 2.9765e-05
15530.0 2.9702e-05
15550.0 2.9641e-05
15570.0 2.9581e-05
15590.0 2.9519e-05
15610.0 2.9457e-05
15630.0 2.9397e-05
15650.0 2.9338e-05
15670.0 2.9276e-05
15690.0 2.9217e-05
15710.0 2.9159e-05
15730.0 2.9098e-05
15750.0 2.9038e-05
15770.0 2.898e-05
15790.0 2.8922e-05
15810.0 2.886e-05
15830.0 2.8801e-05
15850.0 2.8744e-05
15870.0 2.8685e-05
15890.0 2.8626e-05
15910.0 2.857e-05
15930.0 2.8512e-05
15950.0 2.8451e-05
15970.0 2.8394e-05
15990.0 2.8337e-05
16010.0 2.8278e-05
16030.0 2.8218e-05
16050.0 2.8163e-05
16070.0 2.8105e-05
16090.0 2.8046e-05
16110.0 2.7989e-05
16130.0 2.7934e-05
16150.0 2.7874e-05
16170.0 2.7815e-05
16190.0 2.7759e-05
16210.0 2.7701e-05
16230.0 2.7642e-05
16250.0 2.7585e-05
16270.0 2.7529e-05
16290.0 2.747e-05
16310.0 2.7412e-05
16330.0 2.7356e-05
16350.0 2.7298e-05
16370.0 2.7238e-05
16390.0 2.7181e-05
16410.0 2.7124e-05
16430.0 2.7065e-05
16450.0 2.7007e-05
16470.0 2.6951e-05
16490.0 2.6892e-05
16510.0 2.6832e-05
16530.0 2.6775e-05
16550.0 2.6717e-05
16570.0 2.6657e-05
16590.0 2.6597e-05
16610.0 2.6541e-05
16630.0 2.6482e-05
16650.0 2.6422e-05
16670.0 2.6364e-05
16690.0 2.6306e-05
16710.0 2.6245e-05
16730.0 2.6185e-05
16750.0 2.6127e-05
16770.0 2.6067e-05
16790.0 2.6005e-05
16810.0 2.5947e-05
16830.0 2.5888e-05
16850.0 2.5827e-05
16870.0 2.5767e-05
16890.0 2.5708e-05
16910.0 2.5646e-05
16930.0 2.5584e-05
16950.0 2.5524e-05
16970.0 2.5464e-05
16990.0 2.5401e-05
17010.0 2.534e-05
17030.0 2.5281e-05
17050.0 2.5218e-05
17070.0 2.5156e-05
17090.0 2.5095e-05
17110.0 2.5033e-05
17130.0 2.4969e-05
17150.0 2.4907e-05
17170.0 2.4846e-05
17190.0 2.4782e-05
17210.0 2.4719e-05
17230.0 2.4658e-05
17250.0 2.4595e-05
17270.0 2.4529e-05
17290.0 2.4466e-05
17310.0 2.4404e-05
17330.0 2.4339e-05
17350.0 2.4273e-05
17370.0 2.4211e-05
17390.0 2.4147e-05
17410.0 2.4082e-05
17430.0 2.4018e-05
17450.0 2.3955e-05
17470.0 2.3888e-05
17490.0 2.3822e-05
17510.0 2.3758e-05
17530.0 2.3693e-05
17550.0 2.3625e-05
17570.0 2.3561e-05
17590.0 2.3496e-05
17610.0 2.3429e-05
17630.0 2.3362e-05
17650.0 2.3298e-05
17670.0 2.3231e-05
17690.0 2.3161e-05
17710.0 2.3096e-05
17730.0 2.303e-05
17750.0 2.2962e-05
17770.0 2.2894e-05
17790.0 2.2829e-05
17810.0 2.2761e-05
17830.0 2.2692e-05
17850.0 2.2625e-05
17870.0 2.2558e-05
17890.0 2.2488e-05
17910.0 2.2419e-05
17930.0 2.2353e-05
17950.0 2.2284e-05
17970.0 2.2215e-05
17990.0 2.2147e-05
18010.0 2.208e-05
18030.0 2.2008e-05
18050.0 2.1939e-05
18070.0 2.1871e-05
18090.0 2.1801e-05
18110.0 2.173e-05
18130.0 2.1663e-05
18150.0 2.1594e-05
18170.0 2.1523e-05
18190.0 2.1453e-05
18210.0 2.1385e-05
18230.0 2.1314e-05
18250.0 2.1241e-05
18270.0 2.1173e-05
18290.0 2.1103e-05
18310.0 2.1031e-05
18330.0 2.0961e-05
18350.0 2.0893e-05
18370.0 2.0821e-05
18390.0 2.0749e-05
18410.0 2.068e-05
18430.0 2.0609e-05
18450.0 2.0535e-05
18470.0 2.0465e-05
18490.0 2.0396e-05
18510.0 2.0323e-05
18530.0 2.0252e-05
18550.0 2.0182e-05
18570.0 2.0111e-05
18590.0 2.0037e-05
18610.0 1.9966e-05
18630.0 1.9896e-05
18650.0 1.9823e-05
18670.0 1.975e-05
18690.0 1.9681e-05
18710.0 1.9609e-05
18730.0 1.9536e-05
18750.0 1.9465e-05
18770.0 1.9395e-05
18790.0 1.932e-05
18810.0 1.9248e-05
18830.0 1.9177e-05
18850.0 1.9105e-05
18870.0 1.9032e-05
18890.0 1.8961e-05
18910.0 1.889e-05
18930.0 1.8817e-05
18950.0 1.8744e-05
18970.0 1.8674e-05
18990.0 1.8601e-05
19010.0 1.8526e-05
19030.0 1.8456e-05
19050.0 1.8384e-05
19070.0 1.8311e-05
19090.0 1.8239e-05
19110.0 1.8169e-05
19130.0 1.8095e-05
19150.0 1.8022e-05
19170.0 1.795e-05
19190.0 1.7879e-05
19210.0 1.7805e-05
19230.0 1.7732e-05
19250.0 1.7662e-05
19270.0 1.7589e-05
19290.0 1.7516e-05
19310.0 1.7445e-05
19330.0 1.7374e-05
19350.0 1.7299e-05
19370.0 1.7227e-05
19390.0 1.7157e-05
19410.0 1.7084e-05
19430.0 1.701e-05
19450.0 1.694e-05
19470.0 1.6868e-05
19490.0 1.6795e-05
19510.0 1.6723e-05
19530.0 1.6653e-05
19550.0 1.6579e-05
19570.0 1.6506e-05
19590.0 1.6435e-05
19610.0 1.6364e-05
19630.0 1.6291e-05
19650.0 1.6219e-05
19670.0 1.615e-05
19690.0 1.6076e-05
19710.0 1.6004e-05
19730.0 1.5933e-05
19750.0 1.5862e-05
19770.0 1.5788e-05
19790.0 1.5717e-05
19810.0 1.5647e-05
19830.0 1.5574e-05
19850.0 1.5501e-05
19870.0 1.5429e-05
19890.0 1.5352e-05
19910.0 1.5267e-05
19930.0 1.5177e-05
19950.0 1.5073e-05
19970.0 1.4946e-05
19990.0 1.4792e-05
20010.0 1.316e-05
20030.0 1.297e-05
20050.0 1.2747e-05
20070.0 1.2506e-05
20090.0 1.2246e-05
20110.0 1.1952e-05
20130.0 1.1654e-05
20150.0 1.1359e-05
20170.0 1.1054e-05
20190.0 1.0744e-05
20210.0 1.0451e-05
20230.0 1.0165e-05
20250.0 9.8787e-06
20270.0 9.613e-06
20290.0 9.3705e-06
20310.0 9.14e-06
20330.0 8.9246e-06
20350.0 8.7457e-06
20370.0 8.587e-06
20390.0 8.4478e-06
20410.0 8.3354e-06
20430.0 8.2487e-06
20450.0 8.1801e-06
20470.0 8.1341e-06
20490.0 8.1094e-06
20510.0 8.1022e-06
20530.0 8.1123e-06
20550.0 8.1373e-06
20570.0 8.1737e-06
20590.0 8.2231e-06
20610.0 8.2828e-06
20630.0 8.3486e-06
20650.0 8.4222e-06
20670.0 8.5064e-06
20690.0 8.5922e-06
20710.0 8.6809e-06
20730.0 8.7765e-06
20750.0 8.8764e-06
20770.0 8.9746e-06
20790.0 9.0778e-06
20810.0 9.1869e-06
20830.0 9.2954e-06
20850.0 9.4045e-06
20870.0 9.5213e-06
20890.0 9.6403e-06
20910.0 9.7552e-06
20930.0 9.8743e-06
20950.0 9.9978e-06
20970.0 1.0118e-05
20990.0 1.0237e-05
21010.0 1.0362e-05
21030.0 1.0484e-05
21050.0 1.06e-05
21070.0 1.0717e-05
21090.0 1.0834e-05
21110.0 1.094e-05
21130.0 1.104e-05
21150.0 1.1137e-05
21170.0 1.1224e-05
21190.0 1.13e-05
21210.0 1.1368e-05
21230.0 1.1424e-05
21250.0 1.1465e-05
21270.0 1.149e-05
21290.0 1.15e-05
21310.0 1.149e-05
21330.0 1.1463e-05
21350.0 1.1416e-05
21370.0 1.1346e-05
21390.0 1.1257e-05
21410.0 1.1148e-05
21430.0 1.101e-05
21450.0 1.0856e-05
21470.0 1.0687e-05
21490.0 1.0497e-05
21510.0 1.0288e-05
21530.0 1.0076e-05
21550.0 9.8531e-06
21570.0 9.6159e-06
21590.0 9.3826e-06
21610.0 9.1572e-06
21630.0 8.9316e-06
21650.0 8.7111e-06
21670.0 8.52e-06
21690.0 8.3437e-06
21710.0 8.185e-06
21730.0 8.055e-06
21750.0 7.9547e-06
21770.0 7.8783e-06
21790.0 7.8344e-06
21810.0 7.8222e-06
21830.0 7.8395e-06
21850.0 7.8885e-06
21870.0 7.9649e-06
21890.0 8.0637e-06
21910.0 8.1903e-06
21930.0 8.3388e-06
21950.0 8.4997e-06
21970.0 8.6779e-06
21990.0 8.878e-06
22010.0 9.0779e-06
22030.0 9.2809e-06
22050.0 9.4942e-06
22070.0 9.7086e-06
22090.0 9.9116e-06
22110.0 1.0116e-05
22130.0 1.0321e-05
22150.0 1.0511e-05
22170.0 1.0691e-05
22190.0 1.087e-05
22210.0 1.1036e-05
22230.0 1.1182e-05
22250.0 1.1319e-05
22270.0 1.1446e-05
22290.0 1.1554e-05
22310.0 1.1647e-05
22330.0 1.1729e-05
22350.0 1.1792e-05
22370.0 1.1836e-05
22390.0 1.1864e-05
22410.0 1.1873e-05
22430.0 1.1862e-05
22450.0 1.1831e-05
22470.0 1.1778e-05
22490.0 1.1704e-05
22510.0 1.1612e-05
22530.0 1.1494e-05
22550.0 1.135e-05
22570.0 1.119e-05
22590.0 1.101e-05
22610.0 1.0803e-05
22630.0 1.0579e-05
