#lamb flux
1010.0 3.4778e-05
1030.0 3.7064e-05
1050.0 4.1667e-05
1070.0 4.6829e-05
1090.0 5.2226e-05
1110.0 5.7776e-05
1130.0 6.3355e-05
1150.0 6.9189e-05
1170.0 7.5155e-05
1190.0 8.0671e-05
1210.0 8.6111e-05
1230.0 9.1542e-05
1250.0 9.6693e-05
1270.0 0.00010138
1290.0 0.00010608
1310.0 0.00011046
1330.0 0.0001143
1350.0 0.00011795
1370.0 0.00012161
1390.0 0.00012502
1410.0 0.00012828
1430.0 0.00013188
1450.0 0.00013568
1470.0 0.00013963
1490.0 0.00014405
1510.0 0.00014927
1530.0 0.00015481
1550.0 0.00016097
1570.0 0.00016804
1590.0 0.00017592
1610.0 0.00018444
1630.0 0.00019417
1650.0 0.00020495
1670.0 0.00021647
1690.0 0.00022879
1710.0 0.00024219
1730.0 0.00025642
1750.0 0.00027093
1770.0 0.00028617
1790.0 0.00030196
1810.0 0.00031775
1830.0 0.00033342
1850.0 0.00034933
1870.0 0.00036461
1890.0 0.00037895
1910.0 0.0003925
1930.0 0.0004051
1950.0 0.00041595
1970.0 0.00042516
1990.0 0.00043296
2010.0 0.00043881
2030.0 0.00044252
2050.0 0.0004446
2070.0 0.00044503
2090.0 0.00044326
2110.0 0.00043986
2130.0 0.00043522
2150.0 0.00042918
2170.0 0.00042181
2190.0 0.00041387
2210.0 0.00040538
2230.0 0.00039628
2250.0 0.00038703
2270.0 0.00037809
2290.0 0.00036922
2310.0 0.00036056
2330.0 0.00035264
2350.0 0.00034546
2370.0 0.00033891
2390.0 0.00033336
2410.0 0.00032912
2430.0 0.00032598
2450.0 0.00032413
2470.0 0.00032401
2490.0 0.00032582
2510.0 0.00032927
2530.0 0.00033542
2550.0 0.00034565
2570.0 0.00036108
2590.0 0.00038344
2610.0 0.00041802
2630.0 0.00046618
2650.0 0.00052622
2670.0 0.00059977
2690.0 0.0006855
2710.0 0.00077359
2730.0 0.00085906
2750.0 0.00094319
2770.0 0.0010195
2790.0 0.0010867
2810.0 0.0011497
2830.0 0.0012127
2850.0 0.0012742
2870.0 0.0013387
2890.0 0.0014094
2910.0 0.0014855
2930.0 0.0015654
2950.0 0.0016527
2970.0 0.0017471
2990.0 0.0018456
3010.0 0.002209
3030.0 0.0023354
3050.0 0.0024673
3070.0 0.0025987
3090.0 0.0027316
3110.0 0.0028588
3130.0 0.0029699
3150.0 0.0030609
3170.0 0.0031187
3190.0 0.0032176
3210.0 0.0035489
3230.0 0.0040613
3250.0 0.0042743
3270.0 0.00405
3290.0 0.003694
3310.0 0.0035082
3330.0 0.0034323
3350.0 0.0034266
3370.0 0.0034447
3390.0 0.0034869
3410.0 0.003509
3430.0 0.0033994
3450.0 0.0033602
3470.0 0.0033494
3490.0 0.0037501
3510.0 0.0049377
3530.0 0.0061261
3550.0 0.0069805
3570.0 0.0077914
3590.0 0.0082597
3610.0 0.0082059
3630.0 0.0080583
3650.0 0.0084713
3670.0 0.0096682
3690.0 0.011128
3710.0 0.012416
3730.0 0.013489
3750.0 0.014444
3770.0 0.014271
3790.0 0.013281
3810.0 0.01229
3830.0 0.011329
3850.0 0.01094
3870.0 0.011461
3890.0 0.012587
3910.0 0.01374
3930.0 0.01499
3950.0 0.016812
3970.0 0.018129
3990.0 0.01757
4010.0 0.015947
4030.0 0.014012
4050.0 0.012833
4070.0 0.012326
4090.0 0.012079
4110.0 0.012246
4130.0 0.012259
4150.0 0.012314
4170.0 0.012826
4190.0 0.01369
4210.0 0.013676
4230.0 0.013477
4250.0 0.013512
4270.0 0.013903
4290.0 0.01463
4310.0 0.015318
4330.0 0.014914
4350.0 0.013601
4370.0 0.012313
4390.0 0.011031
4410.0 0.0097532
4430.0 0.0092476
4450.0 0.0094347
4470.0 0.0098337
4490.0 0.010515
4510.0 0.011999
4530.0 0.015075
4550.0 0.019643
4570.0 0.022958
4590.0 0.025334
4610.0 0.028808
4630.0 0.031471
4650.0 0.030466
4670.0 0.026631
4690.0 0.022603
4710.0 0.019823
4730.0 0.018015
4750.0 0.016247
4770.0 0.014926
4790.0 0.01537
4810.0 0.016585
4830.0 0.017069
4850.0 0.016695
4870.0 0.017104
4890.0 0.018283
4910.0 0.019358
4930.0 0.020053
4950.0 0.020173
4970.0 0.019362
4990.0 0.017673
5010.0 0.015819
5030.0 0.01427
5050.0 0.013242
5070.0 0.012545
5090.0 0.012005
5110.0 0.011841
5130.0 0.011836
5150.0 0.012033
5170.0 0.01292
5190.0 0.014353
5210.0 0.016155
5230.0 0.017666
5250.0 0.018907
5270.0 0.020295
5290.0 0.021727
5310.0 0.022527
5330.0 0.022414
5350.0 0.021718
5370.0 0.021439
5390.0 0.022091
5410.0 0.02346
5430.0 0.024874
5450.0 0.026016
5470.0 0.026653
5490.0 0.026536
5510.0 0.026059
5530.0 0.025566
5550.0 0.025079
5570.0 0.024417
5590.0 0.023663
5610.0 0.022781
5630.0 0.021523
5650.0 0.019857
5670.0 0.01834
5690.0 0.017401
5710.0 0.016826
5730.0 0.016172
5750.0 0.015692
5770.0 0.015517
5790.0 0.015514
5810.0 0.015359
5830.0 0.015229
5850.0 0.015099
5870.0 0.014635
5890.0 0.014104
5910.0 0.013483
5930.0 0.012352
5950.0 0.011063
5970.0 0.01013
5990.0 0.0096335
6010.0 0.0093546
6030.0 0.0090416
6050.0 0.0088838
6070.0 0.0092396
6090.0 0.0097629
6110.0 0.010018
6130.0 0.0099332
6150.0 0.0097404
6170.0 0.0096358
6190.0 0.0095212
6210.0 0.0091951
6230.0 0.0085755
6250.0 0.0079748
6270.0 0.0076169
6290.0 0.0073854
6310.0 0.0075505
6330.0 0.0081869
6350.0 0.0089867
6370.0 0.0095618
6390.0 0.010027
6410.0 0.010581
6430.0 0.011006
6450.0 0.011304
6470.0 0.011594
6490.0 0.011879
6510.0 0.01208
6530.0 0.012161
6550.0 0.012231
6570.0 0.012063
6590.0 0.011621
6610.0 0.011193
6630.0 0.010821
6650.0 0.010338
6670.0 0.0097669
6690.0 0.0093218
6710.0 0.0090566
6730.0 0.0087908
6750.0 0.0085958
6770.0 0.0085891
6790.0 0.0085954
6810.0 0.0084491
6830.0 0.0082798
6850.0 0.0083305
6870.0 0.0083751
6890.0 0.0082307
6910.0 0.0081544
6930.0 0.0081079
6950.0 0.0079609
6970.0 0.0077474
6990.0 0.0075286
7010.0 0.0073409
7030.0 0.0071074
7050.0 0.0066985
7070.0 0.0062592
7090.0 0.0061763
7110.0 0.0064021
7130.0 0.0066491
7150.0 0.0068272
7170.0 0.0070293
7190.0 0.0071989
7210.0 0.0071718
7230.0 0.0071625
7250.0 0.007293
7270.0 0.0072298
7290.0 0.0070847
7310.0 0.0070891
7330.0 0.0073003
7350.0 0.0076158
7370.0 0.0078185
7390.0 0.0079584
7410.0 0.0081005
7430.0 0.0081033
7450.0 0.0079847
7470.0 0.0078368
7490.0 0.0075188
7510.0 0.0072196
7530.0 0.0071685
7550.0 0.0071208
7570.0 0.0070764
7590.0 0.0071336
7610.0 0.0071713
7630.0 0.0072484
7650.0 0.0075637
7670.0 0.0079913
7690.0 0.0084033
7710.0 0.0087185
7730.0 0.0090091
7750.0 0.0093034
7770.0 0.0095866
7790.0 0.0098457
7810.0 0.0099618
7830.0 0.0097815
7850.0 0.0094706
7870.0 0.0091474
7890.0 0.0088608
7910.0 0.0087685
7930.0 0.0086629
7950.0 0.0085031
7970.0 0.0083133
7990.0 0.0082315
8010.0 0.0077627
8030.0 0.00775
8050.0 0.0077221
8070.0 0.0076429
8090.0 0.0075733
8110.0 0.0075631
8130.0 0.0076034
8150.0 0.0075845
8170.0 0.0075235
8190.0 0.0073264
8210.0 0.0069607
8230.0 0.0066182
8250.0 0.0064687
8270.0 0.0062264
8290.0 0.0057555
8310.0 0.0052906
8330.0 0.0049944
8350.0 0.0048527
8370.0 0.0050176
8390.0 0.0054213
8410.0 0.0058021
8430.0 0.006182
8450.0 0.0066696
8470.0 0.0071057
8490.0 0.0075845
8510.0 0.0080636
8530.0 0.0085357
8550.0 0.0089206
8570.0 0.0092108
8590.0 0.0094427
8610.0 0.0096738
8630.0 0.0097394
8650.0 0.0095851
8670.0 0.0096243
8690.0 0.0099852
8710.0 0.010448
8730.0 0.010612
8750.0 0.010473
8770.0 0.010498
8790.0 0.010509
8810.0 0.010236
8830.0 0.0095152
8850.0 0.008619
8870.0 0.0079681
8890.0 0.0077313
8910.0 0.0074625
8930.0 0.0069635
8950.0 0.0065295
8970.0 0.0063989
8990.0 0.006479
9010.0 0.006472
9030.0 0.0063999
9050.0 0.0063478
9070.0 0.006313
9090.0 0.0062807
9110.0 0.0062492
9130.0 0.0062177
9150.0 0.0061867
9170.0 0.0061556
9190.0 0.006126
9210.0 0.0060989
9230.0 0.0060674
9250.0 0.0060369
9270.0 0.006007
9290.0 0.0059777
9310.0 0.0059487
9330.0 0.0059201
9350.0 0.005892
9370.0 0.0058641
9390.0 0.0058364
9410.0 0.005809
9430.0 0.0057808
9450.0 0.0057475
9470.0 0.0057163
9490.0 0.0056957
9510.0 0.0056722
9530.0 0.0056486
9550.0 0.0056238
9570.0 0.0055987
9590.0 0.005574
9610.0 0.0055493
9630.0 0.0055243
9650.0 0.0054996
9670.0 0.0054756
9690.0 0.0054513
9710.0 0.005427
9730.0 0.0054033
9750.0 0.0053797
9770.0 0.0053555
9790.0 0.005332
9810.0 0.0053088
9830.0 0.0052852
9850.0 0.0052609
9870.0 0.0052383
9890.0 0.0052155
9910.0 0.0051923
9930.0 0.0051694
9950.0 0.0051416
9970.0 0.0051198
9990.0 0.0050975
10010.0 0.0050747
10030.0 0.0050518
10050.0 0.0050295
10070.0 0.0050072
10090.0 0.004985
10110.0 0.00496
10130.0 0.0049261
10150.0 0.0049047
10170.0 0.0048851
10190.0 0.0048629
10210.0 0.0048411
10230.0 0.004819
10250.0 0.0047947
10270.0 0.0047703
10290.0 0.004747
10310.0 0.0047221
10330.0 0.0046957
10350.0 0.0046709
10370.0 0.0046461
10390.0 0.0046195
10410.0 0.004593
10430.0 0.004568
10450.0 0.0045413
10470.0 0.0045136
10490.0 0.0044869
10510.0 0.0044601
10530.0 0.0044307
10550.0 0.004402
10570.0 0.0043745
10590.0 0.0043454
10610.0 0.0043152
10630.0 0.0042864
10650.0 0.004257
10670.0 0.0042253
10690.0 0.0041942
10710.0 0.0041638
10730.0 0.0041317
10750.0 0.0040978
10770.0 0.0040663
10790.0 0.0040339
10810.0 0.0039995
10830.0 0.0039656
10850.0 0.0039328
10870.0 0.0038968
10890.0 0.0038606
10910.0 0.0038258
10930.0 0.0037901
10950.0 0.0037526
10970.0 0.003716
10990.0 0.0036809
11010.0 0.0036206
11030.0 0.0035812
11050.0 0.0035443
11070.0 0.0035079
11090.0 0.0034704
11110.0 0.0034364
11130.0 0.0034041
11150.0 0.0033719
11170.0 0.0033411
11190.0 0.0033133
11210.0 0.0032862
11230.0 0.00326
11250.0 0.0032363
11270.0 0.0032146
11290.0 0.0031934
11310.0 0.0031738
11330.0 0.0031567
11350.0 0.00314
11370.0 0.0031239
11390.0 0.0031087
11410.0 0.003094
11430.0 0.0030781
11450.0 0.003062
11470.0 0.0030456
11490.0 0.0030276
11510.0 0.0030075
11530.0 0.0029866
11550.0 0.0029641
11570.0 0.0029389
11590.0 0.002912
11610.0 0.0028841
11630.0 0.0028533
11650.0 0.0028198
11670.0 0.002786
11690.0 0.0027503
11710.0 0.0027117
11730.0 0.0026717
11750.0 0.0026315
11770.0 0.0025881
11790.0 0.0025423
11810.0 0.0024964
11830.0 0.0024491
11850.0 0.002398
11870.0 0.0023472
11890.0 0.0022973
11910.0 0.0022456
11930.0 0.0021932
11950.0 0.0021433
11970.0 0.0020937
11990.0 0.0020434
12010.0 0.0019959
12030.0 0.0019512
12050.0 0.0019073
12070.0 0.0018648
12090.0 0.001827
12110.0 0.0017912
12130.0 0.001757
12150.0 0.0017263
12170.0 0.001699
12190.0 0.0016732
12210.0 0.0016507
12230.0 0.001632
12250.0 0.0016162
12270.0 0.0016032
12290.0 0.0015936
12310.0 0.001587
12330.0 0.001583
12350.0 0.0015816
12370.0 0.0015822
12390.0 0.0015848
12410.0 0.0015894
12430.0 0.0015948
12450.0 0.0016009
12470.0 0.001608
12490.0 0.0016155
12510.0 0.0016225
12530.0 0.0016297
12550.0 0.0016369
12570.0 0.0016432
12590.0 0.0016487
12610.0 0.0016535
12630.0 0.0016571
12650.0 0.0016587
12670.0 0.0016589
12690.0 0.0016571
12710.0 0.0016532
12730.0 0.0016471
12750.0 0.0016386
12770.0 0.0016277
12790.0 0.0016148
12810.0 0.0015997
12830.0 0.0015823
12850.0 0.0015641
12870.0 0.0015447
12890.0 0.0015239
12910.0 0.0015028
12930.0 0.0014821
12950.0 0.0014609
12970.0 0.0014396
12990.0 0.0014198
13010.0 0.0014005
13030.0 0.0013816
13050.0 0.0013637
13070.0 0.0013471
13090.0 0.0013307
13110.0 0.0013151
13130.0 0.0013005
13150.0 0.0012867
13170.0 0.001273
13190.0 0.0012603
13210.0 0.0012485
13230.0 0.0012371
13250.0 0.0012261
13270.0 0.001216
13290.0 0.0012063
13310.0 0.0011967
13330.0 0.0011876
13350.0 0.0011789
13370.0 0.0011702
13390.0 0.0011614
13410.0 0.001153
13430.0 0.0011443
13450.0 0.0011352
13470.0 0.001126
13490.0 0.0011167
13510.0 0.0011067
13530.0 0.0010963
13550.0 0.0010858
13570.0 0.001075
13590.0 0.0010635
13610.0 0.0010521
13630.0 0.0010408
13650.0 0.0010289
13670.0 0.001017
13690.0 0.0010054
13710.0 0.00099366
13730.0 0.00098151
13750.0 0.00097006
13770.0 0.00095882
13790.0 0.00094741
13810.0 0.00093623
13830.0 0.00092568
13850.0 0.00091505
13870.0 0.00090452
13890.0 0.00089463
13910.0 0.00088517
13930.0 0.00087579
13950.0 0.00086692
13970.0 0.00085892
13990.0 0.00085118
14010.0 0.00084383
14030.0 0.00083718
14050.0 0.00083101
14070.0 0.00082499
14090.0 0.00081951
14110.0 0.0008145
14130.0 0.00080968
14150.0 0.00080502
14170.0 0.00080078
14190.0 0.00079673
14210.0 0.0007927
14230.0 0.00078887
14250.0 0.00078526
14270.0 0.00078163
14290.0 0.00077803
14310.0 0.00077467
14330.0 0.00077137
14350.0 0.00076803
14370.0 0.0007648
14390.0 0.00076173
14410.0 0.00075857
14430.0 0.00075545
14450.0 0.00075249
14470.0 0.00074956
14490.0 0.00074653
14510.0 0.00074365
14530.0 0.00074088
14550.0 0.00073799
14570.0 0.00073506
14590.0 0.00073223
14610.0 0.00072928
14630.0 0.00072614
14650.0 0.00072311
14670.0 0.0007202
14690.0 0.00071734
14710.0 0.00071478
14730.0 0.00071291
14750.0 0.00071171
14770.0 0.00071148
14790.0 0.00071253
14810.0 0.00071499
14830.0 0.00071933
14850.0 0.00072561
14870.0 0.00073359
14890.0 0.00074351
14910.0 0.00075532
14930.0 0.00076788
14950.0 0.00078062
14970.0 0.00079359
14990.0 0.00080542
15010.0 0.00081542
15030.0 0.00082378
15050.0 0.00083047
15070.0 0.00083524
15090.0 0.00083883
15110.0 0.00084164
15130.0 0.00084391
15150.0 0.0008459
15170.0 0.00084778
15190.0 0.00084962
15210.0 0.00085147
15230.0 0.00085336
15250.0 0.00085527
15270.0 0.00085722
15290.0 0.00085923
15310.0 0.00086126
15330.0 0.00086334
15350.0 0.00086546
15370.0 0.00086761
15390.0 0.0008698
15410.0 0.00087203
15430.0 0.0008743
15450.0 0.00087661
15470.0 0.00087894
15490.0 0.00088132
15510.0 0.00088374
15530.0 0.00088618
15550.0 0.00088866
15570.0 0.00089118
15590.0 0.00089373
15610.0 0.0008963
15630.0 0.00089892
15650.0 0.00090156
15670.0 0.00090423
15690.0 0.00090693
15710.0 0.00090967
15730.0 0.00091243
15750.0 0.00091522
15770.0 0.00091804
15790.0 0.00092088
15810.0 0.00092374
15830.0 0.00092663
15850.0 0.00092955
15870.0 0.00093249
15890.0 0.00093545
15910.0 0.00093844
15930.0 0.00094145
15950.0 0.00094447
15970.0 0.00094751
15990.0 0.00095057
16010.0 0.00095365
16030.0 0.00095674
16050.0 0.00095986
16070.0 0.00096298
16090.0 0.00096612
16110.0 0.00096927
16130.0 0.00097243
16150.0 0.0009756
16170.0 0.00097878
16190.0 0.00098198
16210.0 0.00098517
16230.0 0.00098838
16250.0 0.00099159
16270.0 0.0009948
16290.0 0.00099802
16310.0 0.0010012
16330.0 0.0010045
16350.0 0.0010077
16370.0 0.0010109
16390.0 0.0010141
16410.0 0.0010173
16430.0 0.0010205
16450.0 0.0010237
16470.0 0.0010269
16490.0 0.0010301
16510.0 0.0010333
16530.0 0.0010365
16550.0 0.0010396
16570.0 0.0010427
16590.0 0.0010459
16610.0 0.001049
16630.0 0.0010521
16650.0 0.0010552
16670.0 0.0010582
16690.0 0.0010613
16710.0 0.0010643
16730.0 0.0010673
16750.0 0.0010702
16770.0 0.0010732
16790.0 0.0010761
16810.0 0.001079
16830.0 0.0010819
16850.0 0.0010847
16870.0 0.0010875
16890.0 0.0010903
16910.0 0.001093
16930.0 0.0010957
16950.0 0.0010983
16970.0 0.001101
16990.0 0.0011036
17010.0 0.0011061
17030.0 0.0011086
17050.0 0.0011111
17070.0 0.0011135
17090.0 0.0011159
17110.0 0.0011182
17130.0 0.0011205
17150.0 0.0011228
17170.0 0.0011249
17190.0 0.0011271
17210.0 0.0011292
17230.0 0.0011312
17250.0 0.0011332
17270.0 0.0011352
17290.0 0.001137
17310.0 0.0011389
17330.0 0.0011406
17350.0 0.0011424
17370.0 0.001144
17390.0 0.0011456
17410.0 0.0011471
17430.0 0.0011486
17450.0 0.0011501
17470.0 0.0011514
17490.0 0.0011527
17510.0 0.0011539
17530.0 0.0011551
17550.0 0.0011562
17570.0 0.0011572
17590.0 0.0011582
17610.0 0.0011591
17630.0 0.0011599
17650.0 0.0011607
17670.0 0.0011614
17690.0 0.001162
17710.0 0.0011626
17730.0 0.0011631
17750.0 0.0011635
17770.0 0.0011639
17790.0 0.0011642
17810.0 0.0011644
17830.0 0.0011645
17850.0 0.0011646
17870.0 0.0011646
17890.0 0.0011645
17910.0 0.0011643
17930.0 0.0011641
17950.0 0.0011638
17970.0 0.0011635
17990.0 0.001163
18010.0 0.0011625
18030.0 0.0011619
18050.0 0.0011613
18070.0 0.0011605
18090.0 0.0011597
18110.0 0.0011589
18130.0 0.0011579
18150.0 0.0011569
18170.0 0.0011558
18190.0 0.0011546
18210.0 0.0011534
18230.0 0.0011521
18250.0 0.0011507
18270.0 0.0011492
18290.0 0.0011477
18310.0 0.0011461
18330.0 0.0011445
18350.0 0.0011427
18370.0 0.0011409
18390.0 0.001139
18410.0 0.0011371
18430.0 0.0011351
18450.0 0.001133
18470.0 0.0011309
18490.0 0.0011286
18510.0 0.0011264
18530.0 0.001124
18550.0 0.0011216
18570.0 0.0011191
18590.0 0.0011166
18610.0 0.001114
18630.0 0.0011113
18650.0 0.0011086
18670.0 0.0011058
18690.0 0.001103
18710.0 0.0011001
18730.0 0.0010971
18750.0 0.0010941
18770.0 0.001091
18790.0 0.0010878
18810.0 0.0010846
18830.0 0.0010814
18850.0 0.0010781
18870.0 0.0010747
18890.0 0.0010713
18910.0 0.0010678
18930.0 0.0010643
18950.0 0.0010608
18970.0 0.0010571
18990.0 0.0010535
19010.0 0.0010498
19030.0 0.001046
19050.0 0.0010422
19070.0 0.0010383
19090.0 0.0010345
19110.0 0.0010305
19130.0 0.0010265
19150.0 0.0010225
19170.0 0.0010185
19190.0 0.0010144
19210.0 0.0010102
19230.0 0.001006
19250.0 0.0010018
19270.0 0.00099758
19290.0 0.0009933
19310.0 0.00098898
19330.0 0.00098463
19350.0 0.00098025
19370.0 0.00097583
19390.0 0.00097139
19410.0 0.00096692
19430.0 0.00096242
19450.0 0.00095789
19470.0 0.00095334
19490.0 0.00094876
19510.0 0.00094416
19530.0 0.00093953
19550.0 0.00093488
19570.0 0.00093021
19590.0 0.00092552
19610.0 0.00092081
19630.0 0.00091608
19650.0 0.00091133
19670.0 0.00090656
19690.0 0.00090178
19710.0 0.00089698
19730.0 0.00089217
19750.0 0.00088735
19770.0 0.00088251
19790.0 0.00087766
19810.0 0.00087279
19830.0 0.0008679
19850.0 0.00086296
19870.0 0.00085795
19890.0 0.00085277
19910.0 0.0008473
19930.0 0.00084139
19950.0 0.00083482
19970.0 0.00082723
19990.0 0.00081845
20010.0 0.00080861
20030.0 0.00079733
20050.0 0.00078469
20070.0 0.00077131
20090.0 0.00075733
20110.0 0.00074229
20130.0 0.00072735
20150.0 0.00071276
20170.0 0.00069803
20190.0 0.00068337
20210.0 0.00066943
20230.0 0.00065582
20250.0 0.00064223
20270.0 0.00062928
20290.0 0.00061703
20310.0 0.00060504
20330.0 0.00059335
20350.0 0.00058273
20370.0 0.00057257
20390.0 0.0005628
20410.0 0.00055375
20430.0 0.00054544
20450.0 0.00053745
20470.0 0.00053007
20490.0 0.00052338
20510.0 0.00051718
20530.0 0.00051141
20550.0 0.00050617
20570.0 0.0005014
20590.0 0.00049696
20610.0 0.00049287
20630.0 0.00048909
20650.0 0.00048555
20670.0 0.00048221
20690.0 0.00047902
20710.0 0.00047593
20730.0 0.0004729
20750.0 0.00046988
20770.0 0.00046683
20790.0 0.00046371
20810.0 0.00046049
20830.0 0.00045715
20850.0 0.00045366
20870.0 0.00044999
20890.0 0.00044612
20910.0 0.00044211
20930.0 0.00043789
20950.0 0.00043346
20970.0 0.0004289
20990.0 0.00042421
21010.0 0.00041928
21030.0 0.00041424
21050.0 0.00040916
21070.0 0.00040395
21090.0 0.00039858
21110.0 0.00039329
21130.0 0.00038799
21150.0 0.00038259
21170.0 0.00037722
21190.0 0.00037197
21210.0 0.00036666
21230.0 0.00036135
21250.0 0.00035622
21270.0 0.00035117
21290.0 0.00034612
21310.0 0.00034119
21330.0 0.00033647
21350.0 0.00033179
21370.0 0.0003272
21390.0 0.00032282
21410.0 0.00031859
21430.0 0.0003144
21450.0 0.00031043
21470.0 0.00030668
21490.0 0.00030304
21510.0 0.00029955
21530.0 0.00029628
21550.0 0.00029315
21570.0 0.00029015
21590.0 0.00028731
21610.0 0.00028462
21630.0 0.00028203
21650.0 0.00027954
21670.0 0.00027718
21690.0 0.00027488
21710.0 0.00027265
21730.0 0.00027047
21750.0 0.00026835
21770.0 0.00026624
21790.0 0.00026416
21810.0 0.00026211
21830.0 0.00026006
21850.0 0.00025801
21870.0 0.00025596
21890.0 0.00025392
21910.0 0.00025188
21930.0 0.00024982
21950.0 0.00024777
21970.0 0.0002457
21990.0 0.00024361
22010.0 0.00024151
22030.0 0.0002394
22050.0 0.00023725
22070.0 0.00023507
22090.0 0.00023288
22110.0 0.00023065
22130.0 0.00022835
22150.0 0.00022603
22170.0 0.00022368
22190.0 0.00022124
22210.0 0.00021875
22230.0 0.00021627
22250.0 0.00021371
22270.0 0.00021108
22290.0 0.00020845
22310.0 0.00020579
22330.0 0.00020303
22350.0 0.00020025
22370.0 0.00019749
22390.0 0.00019466
22410.0 0.00019175
22430.0 0.0001889
22450.0 0.00018605
22470.0 0.00018311
22490.0 0.00018019
22510.0 0.00017733
22530.0 0.0001744
22550.0 0.00017144
22570.0 0.00016859
22590.0 0.00016576
22610.0 0.00016291
22630.0 0.00016012
22650.0 0.00015747
22670.0 0.00015481
22690.0 0.00015221
22710.0 0.00014975
22730.0 0.00014737
22750.0 0.00014501
22770.0 0.00014279
22790.0 0.00014072
22810.0 0.0001387
22830.0 0.00013677
22850.0 0.00013499
22870.0 0.00013328
22890.0 0.00013164
22910.0 0.0001301
22930.0 0.00012866
22950.0 0.00012727
22970.0 0.00012593
22990.0 0.00012469
23010.0 0.00012348
23030.0 0.00012231
23050.0 0.00012119
23070.0 0.00012012
23090.0 0.00011904
23110.0 0.000118
23130.0 0.000117
23150.0 0.00011601
23170.0 0.00011502
23190.0 0.00011405
23210.0 0.00011311
23230.0 0.00011216
23250.0 0.00011121
23270.0 0.00011027
23290.0 0.00010932
23310.0 0.00010835
23330.0 0.00010739
23350.0 0.00010643
23370.0 0.00010544
23390.0 0.00010445
23410.0 0.00010348
23430.0 0.00010249
23450.0 0.0001015
23470.0 0.00010055
23490.0 9.9617e-05
