#lamb flux
1010.0 6.4255e-05
1030.0 6.9578e-05
1050.0 7.7091e-05
1070.0 8.5549e-05
1090.0 9.4773e-05
1110.0 0.00010431
1130.0 0.00011397
1150.0 0.00012412
1170.0 0.00013457
1190.0 0.00014441
1210.0 0.00015426
1230.0 0.00016426
1250.0 0.00017391
1270.0 0.00018299
1290.0 0.00019231
1310.0 0.0002013
1330.0 0.00020956
1350.0 0.00021764
1370.0 0.0002258
1390.0 0.00023354
1410.0 0.0002409
1430.0 0.00024866
1450.0 0.00025649
1470.0 0.00026416
1490.0 0.00027215
1510.0 0.00028096
1530.0 0.00028963
1550.0 0.0002986
1570.0 0.00030835
1590.0 0.00031862
1610.0 0.00032904
1630.0 0.00034045
1650.0 0.00035268
1670.0 0.00036517
1690.0 0.0003781
1710.0 0.00039192
1730.0 0.00040626
1750.0 0.0004204
1770.0 0.00043512
1790.0 0.00045023
1810.0 0.00046508
1830.0 0.00047967
1850.0 0.00049464
1870.0 0.00050894
1890.0 0.00052232
1910.0 0.00053518
1930.0 0.00054741
1950.0 0.00055814
1970.0 0.00056761
1990.0 0.00057626
2010.0 0.00058345
2030.0 0.00058899
2050.0 0.00059355
2070.0 0.00059713
2090.0 0.00059897
2110.0 0.00059974
2130.0 0.00059989
2150.0 0.0005991
2170.0 0.00059731
2190.0 0.00059544
2210.0 0.00059336
2230.0 0.00059083
2250.0 0.00058832
2270.0 0.00058638
2290.0 0.0005845
2310.0 0.00058271
2330.0 0.00058171
2350.0 0.00058138
2370.0 0.00058143
2390.0 0.00058233
2410.0 0.00058451
2430.0 0.00058747
2450.0 0.00059141
2470.0 0.00059692
2490.0 0.00060418
2510.0 0.00061284
2530.0 0.00062462
2550.0 0.00064206
2570.0 0.00066757
2590.0 0.00070455
2610.0 0.00076238
2630.0 0.00084392
2650.0 0.00094616
2670.0 0.0010713
2690.0 0.0012158
2710.0 0.0013608
2730.0 0.0014954
2750.0 0.0016179
2770.0 0.0017137
2790.0 0.0017794
2810.0 0.0018201
2830.0 0.0018385
2850.0 0.0018409
2870.0 0.0018346
2890.0 0.0018232
2910.0 0.0018109
2930.0 0.0018015
2950.0 0.0017935
2970.0 0.0017881
2990.0 0.0017873
3010.0 0.0023968
3030.0 0.0024041
3050.0 0.002416
3070.0 0.0024338
3090.0 0.0024527
3110.0 0.0024712
3130.0 0.0024889
3150.0 0.0025126
3170.0 0.0025228
3190.0 0.0029148
3210.0 0.0046256
3230.0 0.007377
3250.0 0.0087438
3270.0 0.0078563
3290.0 0.0063142
3310.0 0.0054859
3330.0 0.0051944
3350.0 0.0052386
3370.0 0.0053798
3390.0 0.0055439
3410.0 0.005694
3430.0 0.005706
3450.0 0.0057968
3470.0 0.005923
3490.0 0.0063287
3510.0 0.0070925
3530.0 0.0079909
3550.0 0.0095989
3570.0 0.011556
3590.0 0.01259
3610.0 0.012806
3630.0 0.012842
3650.0 0.012997
3670.0 0.014131
3690.0 0.016802
3710.0 0.019711
3730.0 0.021736
3750.0 0.023312
3770.0 0.023394
3790.0 0.022193
3810.0 0.020489
3830.0 0.018185
3850.0 0.016329
3870.0 0.015593
3890.0 0.017329
3910.0 0.02069
3930.0 0.024114
3950.0 0.02685
3970.0 0.028275
3990.0 0.028563
4010.0 0.028165
4030.0 0.02521
4050.0 0.02099
4070.0 0.018748
4090.0 0.018984
4110.0 0.020381
4130.0 0.021054
4150.0 0.021182
4170.0 0.021125
4190.0 0.021415
4210.0 0.021581
4230.0 0.022318
4250.0 0.022983
4270.0 0.023568
4290.0 0.023837
4310.0 0.024307
4330.0 0.024893
4350.0 0.025231
4370.0 0.024387
4390.0 0.022374
4410.0 0.019689
4430.0 0.017172
4450.0 0.015691
4470.0 0.015805
4490.0 0.017056
4510.0 0.019157
4530.0 0.022352
4550.0 0.027289
4570.0 0.033093
4590.0 0.039818
4610.0 0.046491
4630.0 0.050579
4650.0 0.051811
4670.0 0.051067
4690.0 0.04757
4710.0 0.041578
4730.0 0.034777
4750.0 0.029129
4770.0 0.025543
4790.0 0.024818
4810.0 0.025605
4830.0 0.026972
4850.0 0.028887
4870.0 0.03117
4890.0 0.032513
4910.0 0.033785
4930.0 0.036311
4950.0 0.039037
4970.0 0.03977
4990.0 0.037801
5010.0 0.033769
5030.0 0.028891
5050.0 0.025037
5070.0 0.022671
5090.0 0.021529
5110.0 0.021432
5130.0 0.021548
5150.0 0.021504
5170.0 0.021747
5190.0 0.022838
5210.0 0.025103
5230.0 0.028036
5250.0 0.031773
5270.0 0.035701
5290.0 0.038702
5310.0 0.040965
5330.0 0.043083
5350.0 0.044232
5370.0 0.043738
5390.0 0.042717
5410.0 0.042666
5430.0 0.044731
5450.0 0.049008
5470.0 0.053669
5490.0 0.056533
5510.0 0.057186
5530.0 0.05649
5550.0 0.055033
5570.0 0.053107
5590.0 0.051279
5610.0 0.049767
5630.0 0.048574
5650.0 0.046778
5670.0 0.043648
5690.0 0.040174
5710.0 0.037388
5730.0 0.035126
5750.0 0.034196
5770.0 0.034681
5790.0 0.035372
5810.0 0.035483
5830.0 0.035418
5850.0 0.03498
5870.0 0.034002
5890.0 0.03353
5910.0 0.033442
5930.0 0.032253
5950.0 0.029787
5970.0 0.026624
5990.0 0.023479
6010.0 0.021263
6030.0 0.020454
6050.0 0.021051
6070.0 0.022004
6090.0 0.02191
6110.0 0.021335
6130.0 0.021556
6150.0 0.022549
6170.0 0.0235
6190.0 0.023994
6210.0 0.023957
6230.0 0.022993
6250.0 0.021042
6270.0 0.018673
6290.0 0.016772
6310.0 0.016301
6330.0 0.017145
6350.0 0.01836
6370.0 0.019586
6390.0 0.021536
6410.0 0.024274
6430.0 0.026452
6450.0 0.027588
6470.0 0.028357
6490.0 0.029008
6510.0 0.029304
6530.0 0.029446
6550.0 0.029828
6570.0 0.030024
6590.0 0.02989
6610.0 0.029249
6630.0 0.027982
6650.0 0.026206
6670.0 0.024457
6690.0 0.023303
6710.0 0.022445
6730.0 0.021494
6750.0 0.020968
6770.0 0.021309
6790.0 0.021797
6810.0 0.021811
6830.0 0.021434
6850.0 0.020895
6870.0 0.020355
6890.0 0.019895
6910.0 0.019918
6930.0 0.020098
6950.0 0.020115
6970.0 0.020099
6990.0 0.019869
7010.0 0.019274
7030.0 0.018174
7050.0 0.016656
7070.0 0.015483
7090.0 0.015352
7110.0 0.015728
7130.0 0.015535
7150.0 0.014943
7170.0 0.015023
7190.0 0.016027
7210.0 0.017202
7230.0 0.018125
7250.0 0.018618
7270.0 0.018279
7290.0 0.017535
7310.0 0.017065
7330.0 0.017281
7350.0 0.017828
7370.0 0.018217
7390.0 0.018861
7410.0 0.020022
7430.0 0.02117
7450.0 0.021938
7470.0 0.02207
7490.0 0.02103
7510.0 0.019695
7530.0 0.019138
7550.0 0.0184
7570.0 0.017635
7590.0 0.017306
7610.0 0.017302
7630.0 0.017717
7650.0 0.018765
7670.0 0.020144
7690.0 0.021425
7710.0 0.022317
7730.0 0.02307
7750.0 0.023721
7770.0 0.024161
7790.0 0.024593
7810.0 0.02465
7830.0 0.023898
7850.0 0.023028
7870.0 0.022441
7890.0 0.022186
7910.0 0.022155
7930.0 0.021686
7950.0 0.021066
7970.0 0.020354
7990.0 0.019809
8010.0 0.018718
8030.0 0.018707
8050.0 0.018643
8070.0 0.018396
8090.0 0.018205
8110.0 0.018003
8130.0 0.018019
8150.0 0.017895
8170.0 0.01762
8190.0 0.017109
8210.0 0.016413
8230.0 0.015783
8250.0 0.015544
8270.0 0.014755
8290.0 0.013066
8310.0 0.011222
8330.0 0.0099743
8350.0 0.0096061
8370.0 0.010374
8390.0 0.011613
8410.0 0.012395
8430.0 0.01297
8450.0 0.013906
8470.0 0.014954
8490.0 0.016282
8510.0 0.017759
8530.0 0.019262
8550.0 0.020441
8570.0 0.021308
8590.0 0.02196
8610.0 0.022387
8630.0 0.022362
8650.0 0.021968
8670.0 0.022003
8690.0 0.023034
8710.0 0.024424
8730.0 0.025024
8750.0 0.024784
8770.0 0.024963
8790.0 0.024966
8810.0 0.024005
8830.0 0.022249
8850.0 0.020066
8870.0 0.018431
8890.0 0.017904
8910.0 0.017481
8930.0 0.016333
8950.0 0.015154
8970.0 0.014694
8990.0 0.014783
9010.0 0.014618
9030.0 0.01439
9050.0 0.014261
9070.0 0.014187
9090.0 0.014121
9110.0 0.014057
9130.0 0.013993
9150.0 0.01393
9170.0 0.013867
9190.0 0.013811
9210.0 0.013769
9230.0 0.0137
9250.0 0.013635
9270.0 0.013574
9290.0 0.013515
9310.0 0.013457
9330.0 0.0134
9350.0 0.013345
9370.0 0.01329
9390.0 0.013236
9410.0 0.013183
9430.0 0.013127
9450.0 0.013056
9470.0 0.012991
9490.0 0.012957
9510.0 0.012915
9530.0 0.012872
9550.0 0.012826
9570.0 0.012779
9590.0 0.012732
9610.0 0.012686
9630.0 0.012638
9650.0 0.012592
9670.0 0.012547
9690.0 0.012501
9710.0 0.012455
9730.0 0.012411
9750.0 0.012367
9770.0 0.012321
9790.0 0.012277
9810.0 0.012234
9830.0 0.01219
9850.0 0.012145
9870.0 0.012103
9890.0 0.01206
9910.0 0.012016
9930.0 0.011973
9950.0 0.011899
9970.0 0.011864
9990.0 0.011827
10010.0 0.01179
10030.0 0.01175
10050.0 0.011708
10070.0 0.011666
10090.0 0.011624
10110.0 0.011575
10130.0 0.011513
10150.0 0.011471
10170.0 0.011432
10190.0 0.011387
10210.0 0.011344
10230.0 0.0113
10250.0 0.011252
10270.0 0.011203
10290.0 0.011156
10310.0 0.011106
10330.0 0.011052
10350.0 0.011002
10370.0 0.010951
10390.0 0.010896
10410.0 0.010841
10430.0 0.01079
10450.0 0.010734
10470.0 0.010675
10490.0 0.010619
10510.0 0.010562
10530.0 0.010499
10550.0 0.010437
10570.0 0.010378
10590.0 0.010315
10610.0 0.010249
10630.0 0.010186
10650.0 0.010121
10670.0 0.010051
10690.0 0.0099815
10710.0 0.0099137
10730.0 0.0098414
10750.0 0.0097647
10770.0 0.0096935
10790.0 0.0096197
10810.0 0.0095411
10830.0 0.0094633
10850.0 0.0093878
10870.0 0.0093044
10890.0 0.0092199
10910.0 0.0091383
10930.0 0.0090542
10950.0 0.0089647
10970.0 0.0088766
10990.0 0.0087913
11010.0 0.0092039
11030.0 0.009109
11050.0 0.0090186
11070.0 0.0089275
11090.0 0.008831
11110.0 0.0087415
11130.0 0.0086547
11150.0 0.0085655
11170.0 0.0084773
11190.0 0.0083952
11210.0 0.0083121
11230.0 0.0082281
11250.0 0.0081493
11270.0 0.0080738
11290.0 0.0079971
11310.0 0.0079226
11330.0 0.0078548
11350.0 0.0077866
11370.0 0.0077179
11390.0 0.007652
11410.0 0.0075869
11430.0 0.0075164
11450.0 0.0074449
11470.0 0.0073726
11490.0 0.0072946
11510.0 0.0072093
11530.0 0.0071225
11550.0 0.0070313
11570.0 0.0069313
11590.0 0.0068272
11610.0 0.0067219
11630.0 0.0066089
11650.0 0.0064895
11670.0 0.0063724
11690.0 0.0062534
11710.0 0.0061287
11730.0 0.0060041
11750.0 0.0058832
11770.0 0.0057573
11790.0 0.0056293
11810.0 0.0055048
11830.0 0.0053804
11850.0 0.0052499
11870.0 0.0051233
11890.0 0.0050011
11910.0 0.0048765
11930.0 0.0047522
11950.0 0.0046346
11970.0 0.0045188
11990.0 0.0044022
12010.0 0.0042925
12030.0 0.0041895
12050.0 0.0040887
12070.0 0.0039919
12090.0 0.0039061
12110.0 0.0038252
12130.0 0.0037492
12150.0 0.0036817
12170.0 0.0036226
12190.0 0.0035686
12210.0 0.0035232
12230.0 0.003487
12250.0 0.0034583
12270.0 0.0034375
12290.0 0.0034249
12310.0 0.0034192
12330.0 0.0034208
12350.0 0.0034288
12370.0 0.0034413
12390.0 0.0034585
12410.0 0.0034815
12430.0 0.003505
12450.0 0.0035298
12470.0 0.003557
12490.0 0.0035843
12510.0 0.0036091
12530.0 0.0036339
12550.0 0.0036579
12570.0 0.003678
12590.0 0.0036947
12610.0 0.0037091
12630.0 0.0037189
12650.0 0.0037223
12670.0 0.0037212
12690.0 0.0037145
12710.0 0.0037013
12730.0 0.0036821
12750.0 0.0036564
12770.0 0.0036244
12790.0 0.0035872
12810.0 0.0035445
12830.0 0.0034962
12850.0 0.0034455
12870.0 0.0033921
12890.0 0.0033353
12910.0 0.0032778
12930.0 0.0032211
12950.0 0.003163
12970.0 0.0031049
12990.0 0.00305
13010.0 0.0029965
13030.0 0.0029436
13050.0 0.0028931
13070.0 0.0028457
13090.0 0.0027987
13110.0 0.0027533
13130.0 0.0027107
13150.0 0.0026698
13170.0 0.0026291
13190.0 0.002591
13210.0 0.0025552
13230.0 0.0025202
13250.0 0.0024865
13270.0 0.0024552
13290.0 0.0024248
13310.0 0.0023951
13330.0 0.0023671
13350.0 0.0023404
13370.0 0.0023142
13390.0 0.0022886
13410.0 0.0022647
13430.0 0.0022411
13450.0 0.0022177
13470.0 0.0021951
13490.0 0.0021733
13510.0 0.0021509
13530.0 0.002129
13550.0 0.0021077
13570.0 0.0020864
13590.0 0.0020648
13610.0 0.0020437
13630.0 0.0020231
13650.0 0.002002
13670.0 0.0019811
13690.0 0.0019608
13710.0 0.0019404
13730.0 0.0019196
13750.0 0.0018999
13770.0 0.0018805
13790.0 0.001861
13810.0 0.0018419
13830.0 0.0018239
13850.0 0.0018058
13870.0 0.0017879
13890.0 0.001771
13910.0 0.0017547
13930.0 0.0017385
13950.0 0.0017229
13970.0 0.0017085
13990.0 0.0016941
14010.0 0.00168
14030.0 0.0016666
14050.0 0.0016536
14070.0 0.0016402
14090.0 0.0016272
14110.0 0.0016146
14130.0 0.0016019
14150.0 0.0015889
14170.0 0.0015767
14190.0 0.0015647
14210.0 0.0015526
14230.0 0.0015411
14250.0 0.0015304
14270.0 0.00152
14290.0 0.0015101
14310.0 0.0015014
14330.0 0.0014935
14350.0 0.0014862
14370.0 0.0014799
14390.0 0.0014744
14410.0 0.0014694
14430.0 0.001465
14450.0 0.0014611
14470.0 0.0014577
14490.0 0.0014543
14510.0 0.0014513
14530.0 0.0014484
14550.0 0.0014456
14570.0 0.0014428
14590.0 0.0014403
14610.0 0.0014379
14630.0 0.0014358
14650.0 0.0014344
14670.0 0.0014339
14690.0 0.0014344
14710.0 0.0014366
14730.0 0.0014406
14750.0 0.0014468
14770.0 0.001456
14790.0 0.0014681
14810.0 0.0014833
14830.0 0.0015033
14850.0 0.0015272
14870.0 0.0015542
14890.0 0.0015852
14910.0 0.0016199
14930.0 0.0016554
14950.0 0.0016905
14970.0 0.0017255
14990.0 0.0017572
15010.0 0.0017838
15030.0 0.0018062
15050.0 0.0018244
15070.0 0.0018378
15090.0 0.0018483
15110.0 0.0018568
15130.0 0.0018641
15150.0 0.0018708
15170.0 0.0018772
15190.0 0.0018835
15210.0 0.0018899
15230.0 0.0018964
15250.0 0.001903
15270.0 0.0019098
15290.0 0.0019167
15310.0 0.0019237
15330.0 0.0019309
15350.0 0.0019382
15370.0 0.0019456
15390.0 0.0019532
15410.0 0.0019608
15430.0 0.0019686
15450.0 0.0019765
15470.0 0.0019846
15490.0 0.0019927
15510.0 0.002001
15530.0 0.0020094
15550.0 0.0020179
15570.0 0.0020265
15590.0 0.0020352
15610.0 0.002044
15630.0 0.0020529
15650.0 0.0020619
15670.0 0.002071
15690.0 0.0020802
15710.0 0.0020895
15730.0 0.0020989
15750.0 0.0021083
15770.0 0.0021179
15790.0 0.0021275
15810.0 0.0021372
15830.0 0.002147
15850.0 0.0021569
15870.0 0.0021669
15890.0 0.0021769
15910.0 0.002187
15930.0 0.0021971
15950.0 0.0022073
15970.0 0.0022175
15990.0 0.0022279
16010.0 0.0022382
16030.0 0.0022486
16050.0 0.0022591
16070.0 0.0022695
16090.0 0.0022801
16110.0 0.0022906
16130.0 0.0023012
16150.0 0.0023118
16170.0 0.0023225
16190.0 0.0023331
16210.0 0.0023438
16230.0 0.0023545
16250.0 0.0023651
16270.0 0.0023758
16290.0 0.0023865
16310.0 0.0023972
16330.0 0.0024079
16350.0 0.0024186
16370.0 0.0024292
16390.0 0.0024398
16410.0 0.0024505
16430.0 0.002461
16450.0 0.0024716
16470.0 0.0024821
16490.0 0.0024926
16510.0 0.002503
16530.0 0.0025134
16550.0 0.0025237
16570.0 0.002534
16590.0 0.0025442
16610.0 0.0025544
16630.0 0.0025644
16650.0 0.0025744
16670.0 0.0025844
16690.0 0.0025942
16710.0 0.002604
16730.0 0.0026137
16750.0 0.0026232
16770.0 0.0026327
16790.0 0.0026421
16810.0 0.0026514
16830.0 0.0026605
16850.0 0.0026696
16870.0 0.0026785
16890.0 0.0026873
16910.0 0.002696
16930.0 0.0027046
16950.0 0.002713
16970.0 0.0027213
16990.0 0.0027294
17010.0 0.0027374
17030.0 0.0027453
17050.0 0.002753
17070.0 0.0027605
17090.0 0.0027679
17110.0 0.0027751
17130.0 0.0027822
17150.0 0.0027891
17170.0 0.0027958
17190.0 0.0028023
17210.0 0.0028087
17230.0 0.0028149
17250.0 0.0028209
17270.0 0.0028267
17290.0 0.0028323
17310.0 0.0028377
17330.0 0.0028429
17350.0 0.002848
17370.0 0.0028528
17390.0 0.0028574
17410.0 0.0028618
17430.0 0.0028661
17450.0 0.0028701
17470.0 0.0028739
17490.0 0.0028774
17510.0 0.0028808
17530.0 0.002884
17550.0 0.0028869
17570.0 0.0028896
17590.0 0.0028921
17610.0 0.0028944
17630.0 0.0028964
17650.0 0.0028982
17670.0 0.0028998
17690.0 0.0029012
17710.0 0.0029023
17730.0 0.0029033
17750.0 0.0029039
17770.0 0.0029044
17790.0 0.0029046
17810.0 0.0029046
17830.0 0.0029044
17850.0 0.0029039
17870.0 0.0029032
17890.0 0.0029023
17910.0 0.0029011
17930.0 0.0028998
17950.0 0.0028981
17970.0 0.0028963
17990.0 0.0028942
18010.0 0.0028919
18030.0 0.0028894
18050.0 0.0028867
18070.0 0.0028837
18090.0 0.0028805
18110.0 0.0028771
18130.0 0.0028734
18150.0 0.0028696
18170.0 0.0028655
18190.0 0.0028612
18210.0 0.0028567
18230.0 0.002852
18250.0 0.002847
18270.0 0.0028419
18290.0 0.0028365
18310.0 0.002831
18330.0 0.0028252
18350.0 0.0028193
18370.0 0.0028131
18390.0 0.0028067
18410.0 0.0028002
18430.0 0.0027934
18450.0 0.0027865
18470.0 0.0027794
18490.0 0.0027721
18510.0 0.0027646
18530.0 0.0027569
18550.0 0.0027491
18570.0 0.0027411
18590.0 0.0027329
18610.0 0.0027245
18630.0 0.002716
18650.0 0.0027073
18670.0 0.0026985
18690.0 0.0026895
18710.0 0.0026803
18730.0 0.002671
18750.0 0.0026616
18770.0 0.002652
18790.0 0.0026422
18810.0 0.0026324
18830.0 0.0026224
18850.0 0.0026122
18870.0 0.0026019
18890.0 0.0025916
18910.0 0.0025811
18930.0 0.0025704
18950.0 0.0025597
18970.0 0.0025488
18990.0 0.0025379
19010.0 0.0025268
19030.0 0.0025156
19050.0 0.0025043
19070.0 0.002493
19090.0 0.0024815
19110.0 0.00247
19130.0 0.0024583
19150.0 0.0024466
19170.0 0.0024348
19190.0 0.0024229
19210.0 0.002411
19230.0 0.002399
19250.0 0.0023869
19270.0 0.0023748
19290.0 0.0023626
19310.0 0.0023503
19330.0 0.002338
19350.0 0.0023256
19370.0 0.0023132
19390.0 0.0023007
19410.0 0.0022882
19430.0 0.0022757
19450.0 0.0022631
19470.0 0.0022505
19490.0 0.0022378
19510.0 0.0022252
19530.0 0.0022125
19550.0 0.0021997
19570.0 0.002187
19590.0 0.0021742
19610.0 0.0021615
19630.0 0.0021487
19650.0 0.0021359
19670.0 0.0021231
19690.0 0.0021103
19710.0 0.0020975
19730.0 0.0020847
19750.0 0.0020719
19770.0 0.002059
19790.0 0.0020462
19810.0 0.0020334
19830.0 0.0020206
19850.0 0.0020077
19870.0 0.0019946
19890.0 0.0019812
19910.0 0.0019671
19930.0 0.0019518
19950.0 0.001935
19970.0 0.0019156
19990.0 0.0018933
20010.0 0.0018683
20030.0 0.0018398
20050.0 0.0018078
20070.0 0.001774
20090.0 0.0017388
20110.0 0.0017009
20130.0 0.0016635
20150.0 0.0016269
20170.0 0.0015902
20190.0 0.0015537
20210.0 0.0015192
20230.0 0.0014857
20250.0 0.0014525
20270.0 0.001421
20290.0 0.0013915
20310.0 0.0013628
20330.0 0.001335
20350.0 0.00131
20370.0 0.0012863
20390.0 0.0012638
20410.0 0.001243
20430.0 0.0012241
20450.0 0.0012061
20470.0 0.0011896
20490.0 0.0011747
20510.0 0.001161
20530.0 0.0011482
20550.0 0.0011367
20570.0 0.0011261
20590.0 0.0011163
20610.0 0.0011072
20630.0 0.0010987
20650.0 0.0010907
20670.0 0.001083
20690.0 0.0010755
20710.0 0.0010682
20730.0 0.0010609
20750.0 0.0010535
20770.0 0.0010459
20790.0 0.0010381
20810.0 0.00103
20830.0 0.0010216
20850.0 0.0010129
20870.0 0.0010036
20890.0 0.00099395
20910.0 0.00098401
20930.0 0.00097364
20950.0 0.00096282
20970.0 0.00095181
20990.0 0.00094062
21010.0 0.00092896
21030.0 0.0009172
21050.0 0.00090548
21070.0 0.0008936
21090.0 0.0008815
21110.0 0.00086971
21130.0 0.00085805
21150.0 0.00084629
21170.0 0.00083475
21190.0 0.00082357
21210.0 0.0008124
21230.0 0.00080134
21250.0 0.00079075
21270.0 0.00078044
21290.0 0.00077023
21310.0 0.00076037
21330.0 0.00075101
21350.0 0.00074181
21370.0 0.00073288
21390.0 0.00072441
21410.0 0.00071629
21430.0 0.00070834
21450.0 0.00070086
21470.0 0.00069379
21490.0 0.00068699
21510.0 0.0006805
21530.0 0.00067441
21550.0 0.0006686
21570.0 0.00066302
21590.0 0.00065773
21610.0 0.00065268
21630.0 0.00064782
21650.0 0.00064314
21670.0 0.00063863
21690.0 0.00063423
21710.0 0.00062994
21730.0 0.00062574
21750.0 0.0006216
21770.0 0.00061753
21790.0 0.0006135
21810.0 0.00060951
21830.0 0.00060557
21850.0 0.00060165
21870.0 0.00059778
21890.0 0.00059393
21910.0 0.00059012
21930.0 0.00058632
21950.0 0.00058255
21970.0 0.00057879
21990.0 0.00057503
22010.0 0.00057126
22030.0 0.00056748
22050.0 0.00056366
22070.0 0.00055979
22090.0 0.0005559
22110.0 0.00055192
22130.0 0.00054785
22150.0 0.00054372
22170.0 0.00053952
22190.0 0.00053518
22210.0 0.00053074
22230.0 0.00052628
22250.0 0.00052168
22270.0 0.00051695
22290.0 0.00051217
22310.0 0.00050733
22330.0 0.00050226
22350.0 0.00049712
22370.0 0.00049193
22390.0 0.00048657
22410.0 0.00048098
22430.0 0.0004754
22450.0 0.00046971
22470.0 0.00046376
22490.0 0.00045771
22510.0 0.00045166
22530.0 0.00044534
22550.0 0.00043882
22570.0 0.0004324
22590.0 0.00042591
22610.0 0.00041922
22630.0 0.00041258
22650.0 0.00040614
22670.0 0.00039958
22690.0 0.00039306
22710.0 0.00038679
22730.0 0.00038067
22750.0 0.00037448
22770.0 0.00036864
22790.0 0.00036312
22810.0 0.00035771
22830.0 0.00035251
22850.0 0.00034769
22870.0 0.00034307
22890.0 0.00033858
22910.0 0.00033442
22930.0 0.00033053
22950.0 0.00032677
22970.0 0.00032317
22990.0 0.00031989
23010.0 0.00031673
23030.0 0.00031366
23050.0 0.00031076
23070.0 0.00030802
23090.0 0.00030528
23110.0 0.00030264
23130.0 0.00030012
23150.0 0.00029764
23170.0 0.00029518
23190.0 0.00029281
23210.0 0.00029053
23230.0 0.00028824
23250.0 0.000286
23270.0 0.00028385
23290.0 0.00028173
23310.0 0.00027962
23330.0 0.00027762
23350.0 0.00027569
23370.0 0.00027379
23390.0 0.00027196
23410.0 0.00027024
23430.0 0.00026856
23450.0 0.00026694
23470.0 0.00026543
23490.0 0.000264
23510.0 0.00026262
23530.0 0.00026133
23550.0 0.00026015
23570.0 0.00025905
23590.0 0.00025804
23610.0 0.00025716
23630.0 0.00025639
23650.0 0.00025576
23670.0 0.00025528
23690.0 0.00025497
23710.0 0.00025485
23730.0 0.00025497
23750.0 0.0002553
23770.0 0.00025587
23790.0 0.00025677
23810.0 0.00025797
23830.0 0.00025941
23850.0 0.00026127
23870.0 0.00026351
23890.0 0.00026596
23910.0 0.00026869
23930.0 0.00027181
23950.0 0.0002751
23970.0 0.00027839
