#lamb flux
1010.0 0.00010102
1030.0 0.00013003
1050.0 0.00016563
1070.0 0.00020859
1090.0 0.00026086
1110.0 0.00031957
1130.0 0.00038438
1150.0 0.00045789
1170.0 0.00053953
1190.0 0.00062412
1210.0 0.00071275
1230.0 0.00080727
1250.0 0.00090293
1270.0 0.0009972
1290.0 0.0010937
1310.0 0.0011867
1330.0 0.0012708
1350.0 0.0013478
1370.0 0.0014173
1390.0 0.0014739
1410.0 0.0015164
1430.0 0.0015497
1450.0 0.0015709
1470.0 0.0015784
1490.0 0.0015766
1510.0 0.0015655
1530.0 0.0015422
1550.0 0.0015129
1570.0 0.0014831
1590.0 0.0014511
1610.0 0.0014167
1630.0 0.0013846
1650.0 0.0013555
1670.0 0.0013276
1690.0 0.0013027
1710.0 0.001283
1730.0 0.0012673
1750.0 0.0012536
1770.0 0.001245
1790.0 0.001241
1810.0 0.0012399
1830.0 0.001242
1850.0 0.0012495
1870.0 0.0012596
1890.0 0.001272
1910.0 0.001288
1930.0 0.0013076
1950.0 0.0013288
1970.0 0.0013524
1990.0 0.0013797
2010.0 0.0014089
2030.0 0.0014397
2050.0 0.0014736
2070.0 0.0015105
2090.0 0.0015479
2110.0 0.0015874
2130.0 0.0016297
2150.0 0.0016733
2170.0 0.0017176
2190.0 0.0017645
2210.0 0.0018131
2230.0 0.001862
2250.0 0.001912
2270.0 0.0019644
2290.0 0.0020169
2310.0 0.0020689
2330.0 0.0021224
2350.0 0.0021766
2370.0 0.0022297
2390.0 0.0022829
2410.0 0.0023374
2430.0 0.0023907
2450.0 0.0024434
2470.0 0.0024983
2490.0 0.0025573
2510.0 0.0026207
2530.0 0.0026963
2550.0 0.0027944
2570.0 0.0029218
2590.0 0.0030877
2610.0 0.0033236
2630.0 0.0036383
2650.0 0.0040261
2670.0 0.0045092
2690.0 0.0051
2710.0 0.0057513
2730.0 0.0064372
2750.0 0.0071788
2770.0 0.007907
2790.0 0.0085667
2810.0 0.0091653
2830.0 0.009701
2850.0 0.010111
2870.0 0.010437
2890.0 0.010709
2910.0 0.010929
2930.0 0.011103
2950.0 0.011265
2970.0 0.011417
2990.0 0.011552
3010.0 0.011677
3030.0 0.011805
3050.0 0.011927
3070.0 0.012031
3090.0 0.012137
3110.0 0.012247
3130.0 0.012363
3150.0 0.012428
3170.0 0.012607
3190.0 0.012911
3210.0 0.013394
3230.0 0.014158
3250.0 0.015357
3270.0 0.016695
3290.0 0.018486
3310.0 0.021487
3330.0 0.022167
3350.0 0.022263
3370.0 0.022334
3390.0 0.022396
3410.0 0.022413
3430.0 0.022395
3450.0 0.022359
3470.0 0.022319
3490.0 0.02221
3510.0 0.02183
3530.0 0.020586
3550.0 0.019398
3570.0 0.020051
3590.0 0.021923
3610.0 0.023862
3630.0 0.025619
3650.0 0.024711
3670.0 0.021933
3690.0 0.019709
3710.0 0.019139
3730.0 0.019645
3750.0 0.01997
3770.0 0.02059
3790.0 0.021312
3810.0 0.021522
3830.0 0.020047
3850.0 0.018426
3870.0 0.017684
3890.0 0.018103
3910.0 0.018272
3930.0 0.018351
3950.0 0.019323
3970.0 0.020463
3990.0 0.02091
4010.0 0.020885
4030.0 0.020218
4050.0 0.019864
4070.0 0.019661
4090.0 0.019763
4110.0 0.01982
4130.0 0.019303
4150.0 0.018635
4170.0 0.018457
4190.0 0.018003
4210.0 0.016819
4230.0 0.01556
4250.0 0.014207
4270.0 0.013143
4290.0 0.012656
4310.0 0.012542
4330.0 0.012968
4350.0 0.013867
4370.0 0.014494
4390.0 0.01577
4410.0 0.016833
4430.0 0.017017
4450.0 0.015852
4470.0 0.014698
4490.0 0.014328
4510.0 0.014139
4530.0 0.014198
4550.0 0.014254
4570.0 0.014517
4590.0 0.015059
4610.0 0.015645
4630.0 0.016115
4650.0 0.016405
4670.0 0.016272
4690.0 0.015423
4710.0 0.014575
4730.0 0.013968
4750.0 0.013637
4770.0 0.013517
4790.0 0.013555
4810.0 0.013295
4830.0 0.012872
4850.0 0.01358
4870.0 0.013224
4890.0 0.013243
4910.0 0.013175
4930.0 0.012412
4950.0 0.010937
4970.0 0.010194
4990.0 0.0095483
5010.0 0.0091325
5030.0 0.0092422
5050.0 0.0096275
5070.0 0.0098203
5090.0 0.010271
5110.0 0.0103
5130.0 0.010198
5150.0 0.010283
5170.0 0.010025
5190.0 0.010034
5210.0 0.010066
5230.0 0.0097091
5250.0 0.0097617
5270.0 0.0099828
5290.0 0.0098283
5310.0 0.0094407
5330.0 0.0091446
5350.0 0.0087363
5370.0 0.0085479
5390.0 0.008401
5410.0 0.0081567
5430.0 0.0081897
5450.0 0.0080483
5470.0 0.0080991
5490.0 0.0085925
5510.0 0.0087481
5530.0 0.0087928
5550.0 0.0088056
5570.0 0.0088636
5590.0 0.0087673
5610.0 0.0086815
5630.0 0.0086653
5650.0 0.0085628
5670.0 0.0083622
5690.0 0.0081686
5710.0 0.0080558
5730.0 0.0082033
5750.0 0.0078936
5770.0 0.0074946
5790.0 0.0070745
5810.0 0.0063623
5830.0 0.0067957
5850.0 0.0073566
5870.0 0.0074792
5890.0 0.0075718
5910.0 0.0078045
5930.0 0.007822
5950.0 0.0078226
5970.0 0.0078191
5990.0 0.0078524
6010.0 0.0076812
6030.0 0.0075436
6050.0 0.0075102
6070.0 0.0074785
6090.0 0.0075192
6110.0 0.0074083
6130.0 0.0072164
6150.0 0.0070418
6170.0 0.0068755
6190.0 0.0065196
6210.0 0.0063976
6230.0 0.0064379
6250.0 0.0063847
6270.0 0.0063321
6290.0 0.0064244
6310.0 0.0065419
6330.0 0.0064946
6350.0 0.0063488
6370.0 0.0063312
6390.0 0.0061981
6410.0 0.0061273
6430.0 0.0059874
6450.0 0.0059422
6470.0 0.0058993
6490.0 0.005878
6510.0 0.0057509
6530.0 0.0056703
6550.0 0.0055852
6570.0 0.0054927
6590.0 0.005562
6610.0 0.0055619
6630.0 0.0054158
6650.0 0.0052478
6670.0 0.0051873
6690.0 0.0051095
6710.0 0.0049813
6730.0 0.0049272
6750.0 0.0049669
6770.0 0.0051959
6790.0 0.0055562
6810.0 0.0053557
6830.0 0.0048398
6850.0 0.004596
6870.0 0.0045145
6890.0 0.0044915
6910.0 0.0044757
6930.0 0.0044464
6950.0 0.0044392
6970.0 0.0042979
6990.0 0.0042312
7010.0 0.0042595
7030.0 0.0042758
7050.0 0.0041827
7070.0 0.0040264
7090.0 0.0039447
7110.0 0.003972
7130.0 0.0039762
7150.0 0.0039666
7170.0 0.0039426
7190.0 0.003905
7210.0 0.0039757
7230.0 0.004038
7250.0 0.004034
7270.0 0.0040351
7290.0 0.0040761
7310.0 0.0040442
7330.0 0.0039491
7350.0 0.0038071
7370.0 0.0037601
7390.0 0.0037659
7410.0 0.0036397
7430.0 0.0036494
7450.0 0.0036212
7470.0 0.0036823
7490.0 0.0036342
7510.0 0.0035083
7530.0 0.0035363
7550.0 0.0034341
7570.0 0.0033443
7590.0 0.0032309
7610.0 0.0032435
7630.0 0.0033286
7650.0 0.0033987
7670.0 0.0032714
7690.0 0.0032781
7710.0 0.0033935
7730.0 0.0034748
7750.0 0.0035257
7770.0 0.0035136
7790.0 0.003443
7810.0 0.0035337
7830.0 0.0036848
7850.0 0.0036456
7870.0 0.0037522
7890.0 0.003695
7910.0 0.0036367
7930.0 0.0035631
7950.0 0.0036184
7970.0 0.0036385
7990.0 0.0034289
8010.0 0.0033371
8030.0 0.0032997
8050.0 0.0032356
8070.0 0.003166
8090.0 0.0029032
8110.0 0.0029113
8130.0 0.0031226
8150.0 0.0032438
8170.0 0.0032753
8190.0 0.0033729
8210.0 0.0033054
8230.0 0.0032483
8250.0 0.0032421
8270.0 0.0031815
8290.0 0.0031164
8310.0 0.0029663
8330.0 0.0029662
8350.0 0.0030113
8370.0 0.0030308
8390.0 0.0030182
8410.0 0.0029762
8430.0 0.0029294
8450.0 0.0029237
8470.0 0.0030371
8490.0 0.0030699
8510.0 0.0029477
8530.0 0.002844
8550.0 0.0028322
8570.0 0.0027547
8590.0 0.002707
8610.0 0.0027569
8630.0 0.0027593
8650.0 0.0027366
8670.0 0.0027182
8690.0 0.0026859
8710.0 0.0025678
8730.0 0.002567
8750.0 0.0025074
8770.0 0.0025156
8790.0 0.002489
8810.0 0.0024224
8830.0 0.0024305
8850.0 0.0024414
8870.0 0.0023261
8890.0 0.0022382
8910.0 0.0021621
8930.0 0.0020606
8950.0 0.0020068
8970.0 0.0019221
8990.0 0.0018918
9010.0 0.0018264
9030.0 0.0018059
9050.0 0.0017948
9070.0 0.001784
9090.0 0.0017732
9110.0 0.0017621
9130.0 0.001751
9150.0 0.0017401
9170.0 0.0017291
9190.0 0.001718
9210.0 0.0017068
9230.0 0.0016955
9250.0 0.0016842
9270.0 0.0016729
9290.0 0.0016615
9310.0 0.0016503
9330.0 0.0016394
9350.0 0.0016285
9370.0 0.0016175
9390.0 0.0016065
9410.0 0.0015955
9430.0 0.0015846
9450.0 0.0015736
9470.0 0.0015637
9490.0 0.0015532
9510.0 0.0015417
9530.0 0.0015304
9550.0 0.0015193
9570.0 0.0015084
9590.0 0.0014975
9610.0 0.0014869
9630.0 0.0014765
9650.0 0.001466
9670.0 0.0014556
9690.0 0.0014453
9710.0 0.001435
9730.0 0.0014248
9750.0 0.0014146
9770.0 0.0014046
9790.0 0.0013946
9810.0 0.0013846
9830.0 0.0013747
9850.0 0.0013641
9870.0 0.0013533
9890.0 0.0013445
9910.0 0.0013355
9930.0 0.0013248
9950.0 0.0013154
9970.0 0.0013068
9990.0 0.001298
10010.0 0.0012893
10030.0 0.0012805
10050.0 0.0012716
10070.0 0.0012628
10090.0 0.0012541
10110.0 0.0012454
10130.0 0.0012368
10150.0 0.0012284
10170.0 0.0012201
10190.0 0.0012117
10210.0 0.0012036
10230.0 0.0011956
10250.0 0.0011877
10270.0 0.0011798
10290.0 0.0011721
10310.0 0.0011644
10330.0 0.0011568
10350.0 0.0011494
10370.0 0.0011421
10390.0 0.0011348
10410.0 0.001127
10430.0 0.0011193
10450.0 0.001113
10470.0 0.0011064
10490.0 0.0010999
10510.0 0.0010934
10530.0 0.0010868
10550.0 0.0010804
10570.0 0.0010741
10590.0 0.0010679
10610.0 0.0010616
10630.0 0.0010556
10650.0 0.0010497
10670.0 0.0010437
10690.0 0.0010379
10710.0 0.0010323
10730.0 0.0010267
10750.0 0.001021
10770.0 0.0010157
10790.0 0.0010104
10810.0 0.0010051
10830.0 0.00099989
10850.0 0.00099492
10870.0 0.00098982
10890.0 0.0009848
10910.0 0.00098
10930.0 0.00097522
10950.0 0.00097035
10970.0 0.00096559
10990.0 0.00096097
11010.0 0.0010387
11030.0 0.0010332
11050.0 0.0010276
11070.0 0.0010216
11090.0 0.001015
11110.0 0.0010085
11130.0 0.0010019
11150.0 0.00099504
11170.0 0.00098805
11190.0 0.00098131
11210.0 0.00097437
11230.0 0.00096724
11250.0 0.00096039
11270.0 0.00095373
11290.0 0.00094697
11310.0 0.00094041
11330.0 0.00093449
11350.0 0.0009287
11370.0 0.00092312
11390.0 0.00091806
11410.0 0.00091339
11430.0 0.00090875
11450.0 0.00090449
11470.0 0.00090059
11490.0 0.00089677
11510.0 0.00089295
11530.0 0.00088939
11550.0 0.00088589
11570.0 0.00088221
11590.0 0.00087851
11610.0 0.00087489
11630.0 0.00087099
11650.0 0.00086685
11670.0 0.00086281
11690.0 0.00085864
11710.0 0.00085418
11730.0 0.00084967
11750.0 0.00084528
11770.0 0.00084061
11790.0 0.00083582
11810.0 0.0008312
11830.0 0.0008266
11850.0 0.00082174
11870.0 0.00081715
11890.0 0.00081286
11910.0 0.00080855
11930.0 0.00080438
11950.0 0.00080063
11970.0 0.00079707
11990.0 0.00079361
12010.0 0.00079056
12030.0 0.00078789
12050.0 0.00078542
12070.0 0.0007832
12090.0 0.00078148
12110.0 0.00078
12130.0 0.00077871
12150.0 0.00077772
12170.0 0.00077698
12190.0 0.0007763
12210.0 0.00077575
12230.0 0.0007753
12250.0 0.00077482
12270.0 0.00077421
12290.0 0.0007735
12310.0 0.00077265
12330.0 0.00077145
12350.0 0.00076993
12370.0 0.00076817
12390.0 0.000766
12410.0 0.00076324
12430.0 0.00076026
12450.0 0.00075694
12470.0 0.00075308
12490.0 0.00074883
12510.0 0.00074448
12530.0 0.00073965
12550.0 0.00073438
12570.0 0.00072904
12590.0 0.00072357
12610.0 0.00071764
12630.0 0.00071158
12650.0 0.00070578
12670.0 0.00069974
12690.0 0.00069356
12710.0 0.00068764
12730.0 0.00068186
12750.0 0.00067583
12770.0 0.00067011
12790.0 0.00066475
12810.0 0.00065945
12830.0 0.00065426
12850.0 0.00064958
12870.0 0.00064519
12890.0 0.00064093
12910.0 0.00063705
12930.0 0.00063363
12950.0 0.00063042
12970.0 0.00062753
12990.0 0.00062517
13010.0 0.00062317
13030.0 0.00062149
13050.0 0.00062022
13070.0 0.00061932
13090.0 0.00061867
13110.0 0.00061827
13130.0 0.00061807
13150.0 0.00061799
13170.0 0.00061793
13190.0 0.00061784
13210.0 0.00061765
13230.0 0.00061726
13250.0 0.00061663
13270.0 0.00061573
13290.0 0.00061451
13310.0 0.00061288
13330.0 0.00061092
13350.0 0.00060863
13370.0 0.0006059
13390.0 0.00060274
13410.0 0.0005994
13430.0 0.00059569
13450.0 0.00059153
13470.0 0.00058717
13490.0 0.00058266
13510.0 0.0005776
13530.0 0.00057236
13550.0 0.00056711
13570.0 0.00056161
13590.0 0.00055579
13610.0 0.00055002
13630.0 0.00054429
13650.0 0.00053823
13670.0 0.00053214
13690.0 0.0005262
13710.0 0.00052014
13730.0 0.0005138
13750.0 0.00050781
13770.0 0.0005019
13790.0 0.00049585
13810.0 0.00048992
13830.0 0.0004843
13850.0 0.00047861
13870.0 0.00047295
13890.0 0.00046759
13910.0 0.00046241
13930.0 0.00045719
13950.0 0.00045215
13970.0 0.0004475
13990.0 0.00044286
14010.0 0.00043832
14030.0 0.00043407
14050.0 0.00043001
14070.0 0.00042591
14090.0 0.00042208
14110.0 0.0004185
14130.0 0.000415
14150.0 0.00041158
14170.0 0.00040843
14190.0 0.00040541
14210.0 0.00040241
14230.0 0.00039955
14250.0 0.00039685
14270.0 0.00039414
14290.0 0.00039145
14310.0 0.00038893
14330.0 0.00038645
14350.0 0.00038395
14370.0 0.00038153
14390.0 0.00037922
14410.0 0.00037687
14430.0 0.00037455
14450.0 0.00037232
14470.0 0.00037012
14490.0 0.00036787
14510.0 0.0003657
14530.0 0.0003636
14550.0 0.00036145
14570.0 0.0003593
14590.0 0.00035721
14610.0 0.00035509
14630.0 0.0003529
14650.0 0.00035076
14670.0 0.00034863
14690.0 0.00034643
14710.0 0.00034419
14730.0 0.00034203
14750.0 0.00033981
14770.0 0.00033753
14790.0 0.00033526
14810.0 0.00033301
14830.0 0.00033062
14850.0 0.00032823
14870.0 0.00032589
14890.0 0.0003235
14910.0 0.00032107
14930.0 0.00031874
14950.0 0.00031653
14970.0 0.00031434
14990.0 0.00031231
15010.0 0.00031048
15030.0 0.00030878
15050.0 0.00030718
15070.0 0.00030577
15090.0 0.00030444
15110.0 0.00030315
15130.0 0.0003019
15150.0 0.00030071
15170.0 0.0002995
15190.0 0.00029829
15210.0 0.00029711
15230.0 0.00029593
15250.0 0.00029473
15270.0 0.00029354
15290.0 0.00029239
15310.0 0.00029123
15330.0 0.00029005
15350.0 0.0002889
15370.0 0.00028776
15390.0 0.00028658
15410.0 0.00028543
15430.0 0.0002843
15450.0 0.00028316
15470.0 0.000282
15490.0 0.00028089
15510.0 0.00027977
15530.0 0.00027864
15550.0 0.00027752
15570.0 0.00027642
15590.0 0.0002753
15610.0 0.00027418
15630.0 0.00027309
15650.0 0.000272
15670.0 0.00027089
15690.0 0.00026981
15710.0 0.00026874
15730.0 0.00026766
15750.0 0.00026657
15770.0 0.00026551
15790.0 0.00026445
15810.0 0.00026336
15830.0 0.00026231
15850.0 0.00026127
15870.0 0.00026022
15890.0 0.00025916
15910.0 0.00025814
15930.0 0.00025711
15950.0 0.00025606
15970.0 0.00025504
15990.0 0.00025403
16010.0 0.000253
16030.0 0.00025197
16050.0 0.00025098
16070.0 0.00024998
16090.0 0.00024897
16110.0 0.00024798
16130.0 0.00024701
16150.0 0.000246
16170.0 0.000245
16190.0 0.00024404
16210.0 0.00024307
16230.0 0.00024208
16250.0 0.00024113
16270.0 0.00024019
16290.0 0.00023922
16310.0 0.00023826
16330.0 0.00023733
16350.0 0.00023639
16370.0 0.00023542
16390.0 0.0002345
16410.0 0.00023358
16430.0 0.00023265
16450.0 0.00023173
16470.0 0.00023083
16490.0 0.00022992
16510.0 0.00022899
16530.0 0.0002281
16550.0 0.00022721
16570.0 0.0002263
16590.0 0.00022541
16610.0 0.00022454
16630.0 0.00022366
16650.0 0.00022278
16670.0 0.00022192
16690.0 0.00022106
16710.0 0.00022018
16730.0 0.00021932
16750.0 0.00021848
16770.0 0.00021763
16790.0 0.00021677
16810.0 0.00021594
16830.0 0.00021512
16850.0 0.00021427
16870.0 0.00021345
16890.0 0.00021264
16910.0 0.00021181
16930.0 0.00021098
16950.0 0.00021018
16970.0 0.00020939
16990.0 0.00020857
17010.0 0.00020778
17030.0 0.00020701
17050.0 0.00020621
17070.0 0.00020541
17090.0 0.00020465
17110.0 0.00020388
17130.0 0.00020308
17150.0 0.00020232
17170.0 0.00020157
17190.0 0.0002008
17210.0 0.00020004
17230.0 0.00019931
17250.0 0.00019856
17270.0 0.0001978
17290.0 0.00019707
17310.0 0.00019634
17330.0 0.0001956
17350.0 0.00019486
17370.0 0.00019416
17390.0 0.00019344
17410.0 0.00019271
17430.0 0.00019201
17450.0 0.00019132
17470.0 0.00019059
17490.0 0.00018988
17510.0 0.0001892
17530.0 0.0001885
17550.0 0.0001878
17570.0 0.00018712
17590.0 0.00018646
17610.0 0.00018576
17630.0 0.00018508
17650.0 0.00018443
17670.0 0.00018376
17690.0 0.00018306
17710.0 0.00018241
17730.0 0.00018176
17750.0 0.0001811
17770.0 0.00018044
17790.0 0.00017981
17810.0 0.00017916
17830.0 0.0001785
17850.0 0.00017787
17870.0 0.00017724
17890.0 0.00017659
17910.0 0.00017595
17930.0 0.00017534
17950.0 0.00017471
17970.0 0.00017408
17990.0 0.00017347
18010.0 0.00017287
18030.0 0.00017223
18050.0 0.00017161
18070.0 0.00017102
18090.0 0.00017041
18110.0 0.00016979
18130.0 0.0001692
18150.0 0.00016861
18170.0 0.000168
18190.0 0.00016741
18210.0 0.00016683
18230.0 0.00016623
18250.0 0.00016562
18270.0 0.00016505
18290.0 0.00016447
18310.0 0.00016388
18330.0 0.0001633
18350.0 0.00016274
18370.0 0.00016215
18390.0 0.00016157
18410.0 0.00016101
18430.0 0.00016044
18450.0 0.00015985
18470.0 0.00015929
18490.0 0.00015874
18510.0 0.00015817
18530.0 0.0001576
18550.0 0.00015706
18570.0 0.0001565
18590.0 0.00015592
18610.0 0.00015537
18630.0 0.00015483
18650.0 0.00015427
18670.0 0.0001537
18690.0 0.00015317
18710.0 0.00015262
18730.0 0.00015206
18750.0 0.00015152
18770.0 0.00015099
18790.0 0.00015043
18810.0 0.00014987
18830.0 0.00014935
18850.0 0.0001488
18870.0 0.00014825
18890.0 0.00014772
18910.0 0.00014719
18930.0 0.00014664
18950.0 0.0001461
18970.0 0.00014558
18990.0 0.00014504
19010.0 0.00014447
19030.0 0.00014395
19050.0 0.00014343
19070.0 0.00014288
19090.0 0.00014234
19110.0 0.00014183
19130.0 0.00014129
19150.0 0.00014074
19170.0 0.00014022
19190.0 0.00013969
19210.0 0.00013914
19230.0 0.0001386
19250.0 0.00013809
19270.0 0.00013755
19290.0 0.00013701
19310.0 0.00013649
19330.0 0.00013597
19350.0 0.00013541
19370.0 0.00013488
19390.0 0.00013436
19410.0 0.00013382
19430.0 0.00013327
19450.0 0.00013275
19470.0 0.00013222
19490.0 0.00013167
19510.0 0.00013114
19530.0 0.00013062
19550.0 0.00013007
19570.0 0.00012952
19590.0 0.000129
19610.0 0.00012846
19630.0 0.00012791
19650.0 0.00012738
19670.0 0.00012685
19690.0 0.0001263
19710.0 0.00012575
19730.0 0.00012522
19750.0 0.00012468
19770.0 0.00012411
19790.0 0.00012357
19810.0 0.00012304
19830.0 0.00012248
19850.0 0.00012193
19870.0 0.00012141
19890.0 0.00012087
19910.0 0.00012032
19930.0 0.00011982
19950.0 0.00011936
19970.0 0.00011892
19990.0 0.00011854
20010.0 0.00011825
20030.0 0.00011802
20050.0 0.00011784
20070.0 0.00011774
20090.0 0.00011768
20110.0 0.00011765
20130.0 0.00011765
20150.0 0.00011767
20170.0 0.00011769
20190.0 0.00011772
20210.0 0.00011775
20230.0 0.00011777
20250.0 0.00011779
20270.0 0.00011781
20290.0 0.00011782
20310.0 0.00011781
20330.0 0.0001178
20350.0 0.00011778
20370.0 0.00011775
20390.0 0.00011771
20410.0 0.00011766
20430.0 0.00011761
20450.0 0.00011754
20470.0 0.00011746
20490.0 0.00011739
20510.0 0.00011731
20530.0 0.00011722
20550.0 0.00011714
20570.0 0.00011707
20590.0 0.000117
20610.0 0.00011693
20630.0 0.00011687
20650.0 0.00011681
20670.0 0.00011675
20690.0 0.00011669
20710.0 0.00011663
20730.0 0.00011657
20750.0 0.00011649
20770.0 0.00011642
20790.0 0.00011632
20810.0 0.0001162
20830.0 0.00011607
20850.0 0.00011592
20870.0 0.00011573
20890.0 0.00011552
20910.0 0.00011531
20930.0 0.00011506
20950.0 0.00011478
20970.0 0.0001145
20990.0 0.0001142
21010.0 0.00011388
21030.0 0.00011354
21050.0 0.00011322
21070.0 0.00011288
21090.0 0.00011252
21110.0 0.00011219
21130.0 0.00011186
21150.0 0.00011152
21170.0 0.00011118
21190.0 0.00011086
21210.0 0.00011052
21230.0 0.00011017
21250.0 0.00010984
21270.0 0.0001095
21290.0 0.00010913
21310.0 0.00010876
21330.0 0.0001084
21350.0 0.00010801
21370.0 0.00010759
21390.0 0.00010718
21410.0 0.00010675
21430.0 0.00010628
21450.0 0.0001058
21470.0 0.00010533
21490.0 0.00010483
21510.0 0.0001043
21530.0 0.00010378
21550.0 0.00010325
21570.0 0.00010268
21590.0 0.00010211
21610.0 0.00010156
21630.0 0.00010097
21650.0 0.00010037
21670.0 9.9798e-05
21690.0 9.9214e-05
21710.0 9.8609e-05
21730.0 9.8014e-05
21750.0 9.7436e-05
21770.0 9.6818e-05
21790.0 9.6202e-05
21810.0 9.5604e-05
21830.0 9.4996e-05
21850.0 9.4363e-05
21870.0 9.3743e-05
21890.0 9.3139e-05
21910.0 9.2506e-05
21930.0 9.1872e-05
21950.0 9.1259e-05
21970.0 9.0637e-05
21990.0 8.9991e-05
22010.0 8.9378e-05
22030.0 8.8781e-05
22050.0 8.8175e-05
22070.0 8.7581e-05
22090.0 8.7025e-05
22110.0 8.6472e-05
22130.0 8.5923e-05
22150.0 8.5407e-05
22170.0 8.4916e-05
22190.0 8.4423e-05
22210.0 8.3952e-05
22230.0 8.3518e-05
22250.0 8.3089e-05
22270.0 8.2667e-05
22290.0 8.2268e-05
22310.0 8.1882e-05
22330.0 8.1488e-05
22350.0 8.1105e-05
22370.0 8.0733e-05
22390.0 8.0356e-05
22410.0 7.9969e-05
22430.0 7.9593e-05
22450.0 7.9214e-05
22470.0 7.8821e-05
22490.0 7.8425e-05
22510.0 7.8032e-05
22530.0 7.7622e-05
22550.0 7.7202e-05
22570.0 7.6788e-05
22590.0 7.637e-05
22610.0 7.594e-05
22630.0 7.5512e-05
22650.0 7.5093e-05
22670.0 7.4665e-05
22690.0 7.4237e-05
22710.0 7.382e-05
22730.0 7.3407e-05
22750.0 7.2988e-05
22770.0 7.2584e-05
22790.0 7.2193e-05
22810.0 7.1803e-05
22830.0 7.142e-05
22850.0 7.105e-05
22870.0 7.0686e-05
22890.0 7.0323e-05
22910.0 6.9969e-05
22930.0 6.9621e-05
22950.0 6.9272e-05
22970.0 6.8924e-05
22990.0 6.8581e-05
23010.0 6.8235e-05
23030.0 6.7886e-05
23050.0 6.7535e-05
23070.0 6.7184e-05
23090.0 6.6827e-05
23110.0 6.647e-05
23130.0 6.6113e-05
23150.0 6.5756e-05
23170.0 6.54e-05
23190.0 6.5047e-05
23210.0 6.4697e-05
23230.0 6.4352e-05
23250.0 6.4012e-05
23270.0 6.3676e-05
