#lamb flux
1010.0 1.3986e-06
1030.0 1.5553e-06
1050.0 1.7069e-06
1070.0 1.8779e-06
1090.0 2.081e-06
1110.0 2.2885e-06
1130.0 2.4972e-06
1150.0 2.7164e-06
1170.0 2.9443e-06
1190.0 3.1641e-06
1210.0 3.3914e-06
1230.0 3.6322e-06
1250.0 3.8741e-06
1270.0 4.1183e-06
1290.0 4.3844e-06
1310.0 4.6607e-06
1330.0 4.9375e-06
1350.0 5.2263e-06
1370.0 5.5314e-06
1390.0 5.8379e-06
1410.0 6.1429e-06
1430.0 6.4625e-06
1450.0 6.7843e-06
1470.0 7.0978e-06
1490.0 7.4122e-06
1510.0 7.7374e-06
1530.0 8.0435e-06
1550.0 8.3392e-06
1570.0 8.6354e-06
1590.0 8.9223e-06
1610.0 9.1859e-06
1630.0 9.4421e-06
1650.0 9.6919e-06
1670.0 9.9189e-06
1690.0 1.0128e-05
1710.0 1.0333e-05
1730.0 1.0524e-05
1750.0 1.0686e-05
1770.0 1.0842e-05
1790.0 1.099e-05
1810.0 1.1121e-05
1830.0 1.1238e-05
1850.0 1.1364e-05
1870.0 1.148e-05
1890.0 1.1586e-05
1910.0 1.1698e-05
1930.0 1.1818e-05
1950.0 1.1934e-05
1970.0 1.2054e-05
1990.0 1.219e-05
2010.0 1.2332e-05
2030.0 1.2475e-05
2050.0 1.2634e-05
2070.0 1.2805e-05
2090.0 1.2969e-05
2110.0 1.3137e-05
2130.0 1.3311e-05
2150.0 1.348e-05
2170.0 1.3636e-05
2190.0 1.3792e-05
2210.0 1.3938e-05
2230.0 1.4064e-05
2250.0 1.4174e-05
2270.0 1.4275e-05
2290.0 1.4352e-05
2310.0 1.4401e-05
2330.0 1.4435e-05
2350.0 1.4449e-05
2370.0 1.4434e-05
2390.0 1.4398e-05
2410.0 1.4348e-05
2430.0 1.4268e-05
2450.0 1.4159e-05
2470.0 1.4028e-05
2490.0 1.3873e-05
2510.0 1.3696e-05
2530.0 1.3529e-05
2550.0 1.3422e-05
2570.0 1.3436e-05
2590.0 1.3637e-05
2610.0 1.4178e-05
2630.0 1.5105e-05
2650.0 1.6353e-05
2670.0 1.7931e-05
2690.0 1.9755e-05
2710.0 2.1495e-05
2730.0 2.2956e-05
2750.0 2.4075e-05
2770.0 2.4583e-05
2790.0 2.4403e-05
2810.0 2.3568e-05
2830.0 2.2046e-05
2850.0 2.0035e-05
2870.0 1.765e-05
2890.0 1.4908e-05
2910.0 1.1961e-05
2930.0 8.9809e-06
2950.0 5.8248e-06
2970.0 2.5402e-06
2990.0 9.7768e-07
3010.0 1.8265e-06
3030.0 1.8265e-06
3050.0 1.8265e-06
3070.0 1.8265e-06
3090.0 1.8265e-06
3110.0 1.8265e-06
3130.0 1.8265e-06
3150.0 1.8265e-06
3170.0 1.8265e-06
3190.0 1.8265e-06
3210.0 1.1885e-05
3230.0 0.00010343
3250.0 0.00016573
3270.0 0.0001494
3290.0 0.00012479
3310.0 9.4187e-05
3330.0 8.9373e-05
3350.0 9.7477e-05
3370.0 0.00011006
3390.0 0.0001236
3410.0 0.00013809
3430.0 0.00015747
3450.0 0.00017592
3470.0 0.00019491
3490.0 0.00019898
3510.0 0.00017096
3530.0 0.00015697
3550.0 0.00018487
3570.0 0.0002143
3590.0 0.00023592
3610.0 0.00023655
3630.0 0.00027507
3650.0 0.00029004
3670.0 0.00030267
3690.0 0.00032037
3710.0 0.00032246
3730.0 0.00033344
3750.0 0.00033167
3770.0 0.00033021
3790.0 0.00031794
3810.0 0.0002987
3830.0 0.00028275
3850.0 0.00017719
3870.0 0.00018715
3890.0 0.00021431
3910.0 0.00028192
3930.0 0.000365
3950.0 0.00039545
3970.0 0.00042428
3990.0 0.0004921
4010.0 0.00046358
4030.0 0.00041013
4050.0 0.00029368
4070.0 0.00025823
4090.0 0.00034584
4110.0 0.00036466
4130.0 0.00039698
4150.0 0.00038753
4170.0 0.00036667
4190.0 0.0003358
4210.0 0.0004131
4230.0 0.0004422
4250.0 0.00047949
4270.0 0.00046466
4290.0 0.00045009
4310.0 0.00047186
4330.0 0.00054742
4350.0 0.00059244
4370.0 0.00059854
4390.0 0.00055367
4410.0 0.00050412
4430.0 0.00039421
4450.0 0.00031654
4470.0 0.00032988
4490.0 0.00037988
4510.0 0.00040016
4530.0 0.00040056
4550.0 0.0004024
4570.0 0.00056485
4590.0 0.00084214
4610.0 0.00099458
4630.0 0.0010219
4650.0 0.0011221
4670.0 0.0013135
4690.0 0.0014054
4710.0 0.0011882
4730.0 0.00090911
4750.0 0.00070537
4770.0 0.00059695
4790.0 0.00053765
4810.0 0.00050878
4830.0 0.00056338
4850.0 0.00067643
4870.0 0.00074948
4890.0 0.00077747
4910.0 0.00074867
4930.0 0.00082095
4950.0 0.00098861
4970.0 0.001127
4990.0 0.0011557
5010.0 0.0010576
5030.0 0.00087497
5050.0 0.00068211
5070.0 0.00055339
5090.0 0.00050529
5110.0 0.00050114
5130.0 0.00050968
5150.0 0.00050412
5170.0 0.0004703
5190.0 0.00044181
5210.0 0.00044047
5230.0 0.00050203
5250.0 0.00060853
5270.0 0.00072819
5290.0 0.00081914
5310.0 0.00088125
5330.0 0.00098021
5350.0 0.0010831
5370.0 0.001104
5390.0 0.0010005
5410.0 0.00089456
5430.0 0.00088633
5450.0 0.0010332
5470.0 0.0012588
5490.0 0.0014445
5510.0 0.0015245
5530.0 0.0015048
5550.0 0.0014429
5570.0 0.0013915
5590.0 0.001338
5610.0 0.0013096
5630.0 0.0013086
5650.0 0.0013151
5670.0 0.0012761
5690.0 0.0011481
5710.0 0.00098162
5730.0 0.00088646
5750.0 0.00085847
5770.0 0.00088308
5790.0 0.000912
5810.0 0.000939
5830.0 0.00094977
5850.0 0.00091224
5870.0 0.00086928
5890.0 0.00085824
5910.0 0.00089034
5930.0 0.00091692
5950.0 0.00086307
5970.0 0.00075884
5990.0 0.00062384
6010.0 0.00050914
6030.0 0.00047621
6050.0 0.00051815
6070.0 0.00054771
6090.0 0.00051549
6110.0 0.00045756
6130.0 0.00047154
6150.0 0.00054657
6170.0 0.00062092
6190.0 0.00067252
6210.0 0.00068425
6230.0 0.00067519
6250.0 0.00061501
6270.0 0.00051198
6290.0 0.00042267
6310.0 0.00037861
6330.0 0.00037303
6350.0 0.00037945
6370.0 0.00038949
6390.0 0.00044522
6410.0 0.00055469
6430.0 0.00067073
6450.0 0.00073787
6470.0 0.0007582
6490.0 0.00075901
6510.0 0.00077165
6530.0 0.00078886
6550.0 0.00078942
6570.0 0.00081777
6590.0 0.00084082
6610.0 0.00085144
6630.0 0.00082823
6650.0 0.00076812
6670.0 0.00070156
6690.0 0.00064637
6710.0 0.00061555
6730.0 0.00060106
6750.0 0.00060361
6770.0 0.00062002
6790.0 0.00064256
6810.0 0.00065683
6830.0 0.00064528
6850.0 0.00061184
6870.0 0.00057338
6890.0 0.00056023
6910.0 0.00054983
6930.0 0.00056876
6950.0 0.00059694
6970.0 0.000612
6990.0 0.00062063
7010.0 0.00060119
7030.0 0.00055226
7050.0 0.00049001
7070.0 0.00044324
7090.0 0.00042308
7110.0 0.00042153
7130.0 0.00040479
7150.0 0.00035903
7170.0 0.00034321
7190.0 0.00038006
7210.0 0.00044274
7230.0 0.00050632
7250.0 0.0005313
7270.0 0.00052177
7290.0 0.00048324
7310.0 0.00044913
7330.0 0.00043545
7350.0 0.00043838
7370.0 0.00044595
7390.0 0.00046822
7410.0 0.00052002
7430.0 0.00059629
7450.0 0.00066609
7470.0 0.00069585
7490.0 0.00067249
7510.0 0.00062329
7530.0 0.00055684
7550.0 0.00051235
7570.0 0.00046374
7590.0 0.00043955
7610.0 0.00044749
7630.0 0.00047825
7650.0 0.00052487
7670.0 0.00057519
7690.0 0.00061361
7710.0 0.00064973
7730.0 0.00068486
7750.0 0.00071384
7770.0 0.00071024
7790.0 0.00071574
7810.0 0.00072382
7830.0 0.00071319
7850.0 0.00068878
7870.0 0.00067042
7890.0 0.00067752
7910.0 0.00066664
7930.0 0.00065479
7950.0 0.0006226
7970.0 0.00060258
7990.0 0.00057947
8010.0 0.00057786
8030.0 0.00058188
8050.0 0.00058431
8070.0 0.00057707
8090.0 0.00057264
8110.0 0.00055488
8130.0 0.00055464
8150.0 0.00054861
8170.0 0.00053546
8190.0 0.00052304
8210.0 0.00051785
8230.0 0.0005058
8250.0 0.00049833
8270.0 0.00045645
8290.0 0.00037738
8310.0 0.00028869
8330.0 0.00022793
8350.0 0.00021506
8370.0 0.00025403
8390.0 0.0003052
8410.0 0.00032804
8430.0 0.00033584
8450.0 0.00035451
8470.0 0.00038186
8490.0 0.00042777
8510.0 0.0004867
8530.0 0.00055449
8550.0 0.00061463
8570.0 0.00066251
8590.0 0.00069887
8610.0 0.00071846
8630.0 0.00071722
8650.0 0.00070856
8670.0 0.0007091
8690.0 0.00074705
8710.0 0.0007984
8730.0 0.00083026
8750.0 0.00082763
8770.0 0.00083983
8790.0 0.0008384
8810.0 0.00079045
8830.0 0.00074117
8850.0 0.00067677
8870.0 0.00062539
8890.0 0.00060982
8910.0 0.00060878
8930.0 0.00057426
8950.0 0.00053382
8970.0 0.00051699
8990.0 0.00051421
9010.0 0.00049621
9030.0 0.00048528
9050.0 0.00048095
9070.0 0.00047894
9090.0 0.00047721
9110.0 0.00047555
9130.0 0.00047388
9150.0 0.00047225
9170.0 0.00047047
9190.0 0.0004692
9210.0 0.00046943
9230.0 0.00046707
9250.0 0.00046507
9270.0 0.0004633
9290.0 0.00046168
9310.0 0.0004601
9330.0 0.00045859
9350.0 0.00045719
9370.0 0.0004558
9390.0 0.00045438
9410.0 0.00045302
9430.0 0.00045161
9450.0 0.00044958
9470.0 0.00044778
9490.0 0.00044711
9510.0 0.00044612
9530.0 0.00044504
9550.0 0.00044391
9570.0 0.00044274
9590.0 0.00044155
9610.0 0.00044036
9630.0 0.00043917
9650.0 0.00043799
9670.0 0.00043681
9690.0 0.00043564
9710.0 0.00043448
9730.0 0.00043333
9750.0 0.00043217
9770.0 0.00043102
9790.0 0.00042988
9810.0 0.00042874
9830.0 0.0004276
9850.0 0.00042645
9870.0 0.00042531
9890.0 0.00042416
9910.0 0.000423
9930.0 0.0004218
9950.0 0.00041769
9970.0 0.00041739
9990.0 0.00041691
10010.0 0.00041634
10030.0 0.00041551
10050.0 0.00041446
10070.0 0.00041338
10090.0 0.00041229
10110.0 0.00041097
10130.0 0.00040964
10150.0 0.00040842
10170.0 0.00040711
10190.0 0.00040566
10210.0 0.00040434
10230.0 0.00040304
10250.0 0.00040157
10270.0 0.00040011
10290.0 0.00039874
10310.0 0.00039722
10330.0 0.00039556
10350.0 0.00039404
10370.0 0.0003925
10390.0 0.0003908
10410.0 0.00038908
10430.0 0.0003875
10450.0 0.00038574
10470.0 0.00038388
10490.0 0.00038211
10510.0 0.00038032
10530.0 0.00037826
10550.0 0.00037627
10570.0 0.00037437
10590.0 0.00037231
10610.0 0.00037015
10630.0 0.00036809
10650.0 0.00036597
10670.0 0.00036362
10690.0 0.00036132
10710.0 0.00035907
10730.0 0.00035664
10750.0 0.00035405
10770.0 0.00035166
10790.0 0.00034917
10810.0 0.00034649
10830.0 0.00034384
10850.0 0.00034127
10870.0 0.00033839
10890.0 0.00033546
10910.0 0.00033261
10930.0 0.00032964
10950.0 0.00032641
10970.0 0.00032317
10990.0 0.00031998
11010.0 0.00034302
11030.0 0.00033925
11050.0 0.00033559
11070.0 0.00033184
11090.0 0.00032783
11110.0 0.00032411
11130.0 0.00032051
11150.0 0.00031681
11170.0 0.00031315
11190.0 0.00030974
11210.0 0.00030626
11230.0 0.00030269
11250.0 0.00029928
11270.0 0.00029596
11290.0 0.00029249
11310.0 0.00028904
11330.0 0.00028582
11350.0 0.00028249
11370.0 0.00027907
11390.0 0.00027572
11410.0 0.00027235
11430.0 0.00026867
11450.0 0.00026492
11470.0 0.00026112
11490.0 0.00025705
11510.0 0.00025263
11530.0 0.00024819
11550.0 0.00024359
11570.0 0.0002386
11590.0 0.00023349
11610.0 0.00022841
11630.0 0.00022304
11650.0 0.00021746
11670.0 0.00021212
11690.0 0.0002068
11710.0 0.00020136
11730.0 0.00019608
11750.0 0.0001911
11770.0 0.00018607
11790.0 0.00018113
11810.0 0.0001765
11830.0 0.00017202
11850.0 0.00016748
11870.0 0.00016322
11890.0 0.00015923
11910.0 0.00015526
11930.0 0.00015138
11950.0 0.00014777
11970.0 0.00014426
11990.0 0.00014074
12010.0 0.00013745
12030.0 0.00013436
12050.0 0.00013135
12070.0 0.00012845
12090.0 0.00012588
12110.0 0.00012346
12130.0 0.0001212
12150.0 0.00011922
12170.0 0.0001175
12190.0 0.00011597
12210.0 0.00011472
12230.0 0.00011376
12250.0 0.00011307
12270.0 0.00011265
12290.0 0.0001125
12310.0 0.00011258
12330.0 0.00011293
12350.0 0.00011352
12370.0 0.00011426
12390.0 0.00011521
12410.0 0.00011641
12430.0 0.00011767
12450.0 0.00011902
12470.0 0.00012051
12490.0 0.00012207
12510.0 0.00012357
12530.0 0.00012512
12550.0 0.00012668
12570.0 0.00012809
12590.0 0.00012937
12610.0 0.00013056
12630.0 0.00013155
12650.0 0.00013222
12670.0 0.00013268
12690.0 0.00013286
12710.0 0.00013273
12730.0 0.0001323
12750.0 0.00013156
12770.0 0.00013053
12790.0 0.00012924
12810.0 0.0001277
12830.0 0.00012592
12850.0 0.00012403
12870.0 0.00012202
12890.0 0.00011988
12910.0 0.00011771
12930.0 0.00011558
12950.0 0.00011341
12970.0 0.00011125
12990.0 0.00010922
13010.0 0.00010726
13030.0 0.00010532
13050.0 0.00010348
13070.0 0.00010175
13090.0 0.00010004
13110.0 9.8369e-05
13130.0 9.6786e-05
13150.0 9.5241e-05
13170.0 9.3676e-05
13190.0 9.2179e-05
13210.0 9.0744e-05
13230.0 8.9308e-05
13250.0 8.79e-05
13270.0 8.6576e-05
13290.0 8.5292e-05
13310.0 8.404e-05
13330.0 8.2894e-05
13350.0 8.185e-05
13370.0 8.0884e-05
13390.0 8.002e-05
13410.0 7.9294e-05
13430.0 7.866e-05
13450.0 7.8115e-05
13470.0 7.7658e-05
13490.0 7.7263e-05
13510.0 7.6903e-05
13530.0 7.6557e-05
13550.0 7.6204e-05
13570.0 7.5816e-05
13590.0 7.5369e-05
13610.0 7.486e-05
13630.0 7.4287e-05
13650.0 7.3622e-05
13670.0 7.2883e-05
13690.0 7.21e-05
13710.0 7.1258e-05
13730.0 7.0349e-05
13750.0 6.9464e-05
13770.0 6.8589e-05
13790.0 6.7713e-05
13810.0 6.6877e-05
13830.0 6.6117e-05
13850.0 6.5393e-05
13870.0 6.4722e-05
13890.0 6.413e-05
13910.0 6.3601e-05
13930.0 6.3111e-05
13950.0 6.2672e-05
13970.0 6.2285e-05
13990.0 6.1916e-05
14010.0 6.1558e-05
14030.0 6.1214e-05
14050.0 6.0868e-05
14070.0 6.0493e-05
14090.0 6.0101e-05
14110.0 5.9692e-05
14130.0 5.9242e-05
14150.0 5.8747e-05
14170.0 5.8239e-05
14190.0 5.7705e-05
14210.0 5.7129e-05
14230.0 5.6547e-05
14250.0 5.5975e-05
14270.0 5.5388e-05
14290.0 5.4809e-05
14310.0 5.4287e-05
14330.0 5.3801e-05
14350.0 5.335e-05
14370.0 5.2964e-05
14390.0 5.2648e-05
14410.0 5.2379e-05
14430.0 5.2173e-05
14450.0 5.2029e-05
14470.0 5.1934e-05
14490.0 5.1882e-05
14510.0 5.1873e-05
14530.0 5.1897e-05
14550.0 5.1952e-05
14570.0 5.2036e-05
14590.0 5.2148e-05
14610.0 5.2294e-05
14630.0 5.2486e-05
14650.0 5.2721e-05
14670.0 5.3004e-05
14690.0 5.3358e-05
14710.0 5.3789e-05
14730.0 5.427e-05
14750.0 5.4836e-05
14770.0 5.55e-05
14790.0 5.6236e-05
14810.0 5.704e-05
14830.0 5.799e-05
14850.0 5.9028e-05
14870.0 6.0125e-05
14890.0 6.1324e-05
14910.0 6.2622e-05
14930.0 6.3911e-05
14950.0 6.5162e-05
14970.0 6.6394e-05
14990.0 6.7492e-05
15010.0 6.8406e-05
15030.0 6.9163e-05
15050.0 6.9766e-05
15070.0 7.0197e-05
15090.0 7.0523e-05
15110.0 7.0779e-05
15130.0 7.0988e-05
15150.0 7.1173e-05
15170.0 7.1348e-05
15190.0 7.1519e-05
15210.0 7.1692e-05
15230.0 7.1868e-05
15250.0 7.2046e-05
15270.0 7.2228e-05
15290.0 7.2414e-05
15310.0 7.2603e-05
15330.0 7.2795e-05
15350.0 7.2991e-05
15370.0 7.319e-05
15390.0 7.3392e-05
15410.0 7.3597e-05
15430.0 7.3805e-05
15450.0 7.4016e-05
15470.0 7.423e-05
15490.0 7.4447e-05
15510.0 7.4667e-05
15530.0 7.4888e-05
15550.0 7.5113e-05
15570.0 7.5341e-05
15590.0 7.5571e-05
15610.0 7.5802e-05
15630.0 7.6037e-05
15650.0 7.6274e-05
15670.0 7.6513e-05
15690.0 7.6753e-05
15710.0 7.6997e-05
15730.0 7.7242e-05
15750.0 7.7488e-05
15770.0 7.7737e-05
15790.0 7.7987e-05
15810.0 7.8238e-05
15830.0 7.8491e-05
15850.0 7.8746e-05
15870.0 7.9002e-05
15890.0 7.9259e-05
15910.0 7.9517e-05
15930.0 7.9777e-05
15950.0 8.0036e-05
15970.0 8.0297e-05
15990.0 8.056e-05
16010.0 8.0822e-05
16030.0 8.1084e-05
16050.0 8.1348e-05
16070.0 8.1612e-05
16090.0 8.1876e-05
16110.0 8.214e-05
16130.0 8.2405e-05
16150.0 8.2668e-05
16170.0 8.2932e-05
16190.0 8.3196e-05
16210.0 8.3459e-05
16230.0 8.3722e-05
16250.0 8.3984e-05
16270.0 8.4246e-05
16290.0 8.4507e-05
16310.0 8.4766e-05
16330.0 8.5025e-05
16350.0 8.5283e-05
16370.0 8.5538e-05
16390.0 8.5794e-05
16410.0 8.6048e-05
16430.0 8.6299e-05
16450.0 8.6549e-05
16470.0 8.6798e-05
16490.0 8.7045e-05
16510.0 8.7288e-05
16530.0 8.7531e-05
16550.0 8.7771e-05
16570.0 8.8008e-05
16590.0 8.8243e-05
16610.0 8.8476e-05
16630.0 8.8705e-05
16650.0 8.8932e-05
16670.0 8.9156e-05
16690.0 8.9377e-05
16710.0 8.9594e-05
16730.0 8.9808e-05
16750.0 9.0019e-05
16770.0 9.0227e-05
16790.0 9.043e-05
16810.0 9.063e-05
16830.0 9.0827e-05
16850.0 9.1018e-05
16870.0 9.1206e-05
16890.0 9.1391e-05
16910.0 9.157e-05
16930.0 9.1745e-05
16950.0 9.1916e-05
16970.0 9.2083e-05
16990.0 9.2244e-05
17010.0 9.2401e-05
17030.0 9.2554e-05
17050.0 9.2701e-05
17070.0 9.2842e-05
17090.0 9.298e-05
17110.0 9.3112e-05
17130.0 9.3238e-05
17150.0 9.3359e-05
17170.0 9.3475e-05
17190.0 9.3585e-05
17210.0 9.369e-05
17230.0 9.3789e-05
17250.0 9.3883e-05
17270.0 9.3969e-05
17290.0 9.4051e-05
17310.0 9.4127e-05
17330.0 9.4197e-05
17350.0 9.426e-05
17370.0 9.4318e-05
17390.0 9.437e-05
17410.0 9.4415e-05
17430.0 9.4454e-05
17450.0 9.4487e-05
17470.0 9.4513e-05
17490.0 9.4533e-05
17510.0 9.4547e-05
17530.0 9.4554e-05
17550.0 9.4554e-05
17570.0 9.4549e-05
17590.0 9.4538e-05
17610.0 9.4518e-05
17630.0 9.4493e-05
17650.0 9.4462e-05
17670.0 9.4424e-05
17690.0 9.4378e-05
17710.0 9.4327e-05
17730.0 9.427e-05
17750.0 9.4205e-05
17770.0 9.4134e-05
17790.0 9.4057e-05
17810.0 9.3973e-05
17830.0 9.3881e-05
17850.0 9.3785e-05
17870.0 9.3682e-05
17890.0 9.3571e-05
17910.0 9.3454e-05
17930.0 9.3332e-05
17950.0 9.3203e-05
17970.0 9.3067e-05
17990.0 9.2926e-05
18010.0 9.2778e-05
18030.0 9.2623e-05
18050.0 9.2463e-05
18070.0 9.2297e-05
18090.0 9.2124e-05
18110.0 9.1945e-05
18130.0 9.1761e-05
18150.0 9.1571e-05
18170.0 9.1375e-05
18190.0 9.1173e-05
18210.0 9.0966e-05
18230.0 9.0752e-05
18250.0 9.0533e-05
18270.0 9.0309e-05
18290.0 9.008e-05
18310.0 8.9844e-05
18330.0 8.9604e-05
18350.0 8.9359e-05
18370.0 8.9108e-05
18390.0 8.8852e-05
18410.0 8.8592e-05
18430.0 8.8327e-05
18450.0 8.8056e-05
18470.0 8.7782e-05
18490.0 8.7503e-05
18510.0 8.7219e-05
18530.0 8.6931e-05
18550.0 8.6639e-05
18570.0 8.6342e-05
18590.0 8.6041e-05
18610.0 8.5736e-05
18630.0 8.5428e-05
18650.0 8.5115e-05
18670.0 8.4798e-05
18690.0 8.4479e-05
18710.0 8.4156e-05
18730.0 8.3828e-05
18750.0 8.3499e-05
18770.0 8.3166e-05
18790.0 8.2828e-05
18810.0 8.2489e-05
18830.0 8.2147e-05
18850.0 8.1802e-05
18870.0 8.1453e-05
18890.0 8.1103e-05
18910.0 8.075e-05
18930.0 8.0394e-05
18950.0 8.0036e-05
18970.0 7.9677e-05
18990.0 7.9315e-05
19010.0 7.895e-05
19030.0 7.8584e-05
19050.0 7.8216e-05
19070.0 7.7846e-05
19090.0 7.7475e-05
19110.0 7.7103e-05
19130.0 7.6729e-05
19150.0 7.6353e-05
19170.0 7.5976e-05
19190.0 7.5599e-05
19210.0 7.5219e-05
19230.0 7.4839e-05
19250.0 7.4459e-05
19270.0 7.4077e-05
19290.0 7.3694e-05
19310.0 7.3312e-05
19330.0 7.2929e-05
19350.0 7.2544e-05
19370.0 7.216e-05
19390.0 7.1776e-05
19410.0 7.1391e-05
19430.0 7.1006e-05
19450.0 7.0621e-05
19470.0 7.0237e-05
19490.0 6.9851e-05
19510.0 6.9467e-05
19530.0 6.9083e-05
19550.0 6.8699e-05
19570.0 6.8315e-05
19590.0 6.7932e-05
19610.0 6.755e-05
19630.0 6.7168e-05
19650.0 6.6787e-05
19670.0 6.6407e-05
19690.0 6.6027e-05
19710.0 6.5648e-05
19730.0 6.527e-05
19750.0 6.4894e-05
19770.0 6.4517e-05
19790.0 6.4142e-05
19810.0 6.3769e-05
19830.0 6.3394e-05
19850.0 6.3018e-05
19870.0 6.2639e-05
19890.0 6.2247e-05
19910.0 6.1832e-05
19930.0 6.1382e-05
19950.0 6.0879e-05
19970.0 6.0291e-05
19990.0 5.9603e-05
20010.0 5.8828e-05
20030.0 5.7931e-05
20050.0 5.6919e-05
20070.0 5.5846e-05
20090.0 5.4724e-05
20110.0 5.3513e-05
20130.0 5.2316e-05
20150.0 5.1153e-05
20170.0 4.9985e-05
20190.0 4.883e-05
20210.0 4.7745e-05
20230.0 4.6696e-05
20250.0 4.5657e-05
20270.0 4.4679e-05
20290.0 4.3763e-05
20310.0 4.2873e-05
20330.0 4.2009e-05
20350.0 4.1231e-05
20370.0 4.0488e-05
20390.0 3.9773e-05
20410.0 3.9109e-05
20430.0 3.8498e-05
20450.0 3.7905e-05
20470.0 3.7351e-05
20490.0 3.6847e-05
20510.0 3.6374e-05
20530.0 3.5928e-05
20550.0 3.552e-05
20570.0 3.5149e-05
20590.0 3.4801e-05
20610.0 3.448e-05
20630.0 3.4189e-05
20650.0 3.392e-05
20670.0 3.367e-05
20690.0 3.3441e-05
20710.0 3.323e-05
20730.0 3.3031e-05
20750.0 3.2845e-05
20770.0 3.2667e-05
20790.0 3.2496e-05
20810.0 3.2329e-05
20830.0 3.2163e-05
20850.0 3.1997e-05
20870.0 3.1828e-05
20890.0 3.1655e-05
20910.0 3.1476e-05
20930.0 3.129e-05
20950.0 3.1094e-05
20970.0 3.089e-05
20990.0 3.0677e-05
21010.0 3.0451e-05
21030.0 3.0215e-05
21050.0 2.997e-05
21070.0 2.9714e-05
21090.0 2.9444e-05
21110.0 2.9171e-05
21130.0 2.8891e-05
21150.0 2.8599e-05
21170.0 2.8301e-05
21190.0 2.8005e-05
21210.0 2.7698e-05
21230.0 2.7384e-05
21250.0 2.7075e-05
21270.0 2.6766e-05
21290.0 2.6451e-05
21310.0 2.6138e-05
21330.0 2.5837e-05
21350.0 2.5533e-05
21370.0 2.5232e-05
21390.0 2.4943e-05
21410.0 2.4662e-05
21430.0 2.4381e-05
21450.0 2.4116e-05
21470.0 2.3867e-05
21490.0 2.3626e-05
21510.0 2.3398e-05
21530.0 2.3189e-05
21550.0 2.2994e-05
21570.0 2.2813e-05
21590.0 2.2649e-05
21610.0 2.2502e-05
21630.0 2.237e-05
21650.0 2.2255e-05
21670.0 2.2154e-05
21690.0 2.2068e-05
21710.0 2.1995e-05
21730.0 2.1935e-05
21750.0 2.1883e-05
21770.0 2.1843e-05
21790.0 2.1811e-05
21810.0 2.1783e-05
21830.0 2.176e-05
21850.0 2.1742e-05
21870.0 2.1724e-05
21890.0 2.1702e-05
21910.0 2.1682e-05
21930.0 2.1659e-05
21950.0 2.163e-05
21970.0 2.1596e-05
21990.0 2.156e-05
22010.0 2.1515e-05
22030.0 2.1463e-05
22050.0 2.1406e-05
22070.0 2.1342e-05
22090.0 2.1271e-05
22110.0 2.1195e-05
22130.0 2.1114e-05
22150.0 2.1028e-05
22170.0 2.0938e-05
22190.0 2.0843e-05
22210.0 2.0745e-05
22230.0 2.0643e-05
22250.0 2.0538e-05
22270.0 2.0429e-05
22290.0 2.0316e-05
22310.0 2.02e-05
22330.0 2.0077e-05
22350.0 1.9948e-05
22370.0 1.9814e-05
22390.0 1.9671e-05
22410.0 1.9516e-05
22430.0 1.9355e-05
22450.0 1.9184e-05
22470.0 1.8998e-05
22490.0 1.8801e-05
22510.0 1.8597e-05
22530.0 1.8376e-05
22550.0 1.8139e-05
22570.0 1.7898e-05
22590.0 1.7649e-05
22610.0 1.7384e-05
22630.0 1.7116e-05
