#lamb flux
1010.0 6.0669e-06
1030.0 7.4637e-06
1050.0 8.9668e-06
1070.0 1.0545e-05
1090.0 1.2222e-05
1110.0 1.3788e-05
1130.0 1.5217e-05
1150.0 1.6607e-05
1170.0 1.7936e-05
1190.0 1.9058e-05
1210.0 2.0118e-05
1230.0 2.1164e-05
1250.0 2.211e-05
1270.0 2.2953e-05
1290.0 2.3834e-05
1310.0 2.4656e-05
1330.0 2.5358e-05
1350.0 2.6017e-05
1370.0 2.6651e-05
1390.0 2.7182e-05
1410.0 2.7606e-05
1430.0 2.802e-05
1450.0 2.8365e-05
1470.0 2.8608e-05
1490.0 2.8813e-05
1510.0 2.8963e-05
1530.0 2.8953e-05
1550.0 2.895e-05
1570.0 2.9028e-05
1590.0 2.9173e-05
1610.0 2.9366e-05
1630.0 2.9713e-05
1650.0 3.0237e-05
1670.0 3.0916e-05
1690.0 3.1801e-05
1710.0 3.297e-05
1730.0 3.4409e-05
1750.0 3.5928e-05
1770.0 3.7786e-05
1790.0 4.0011e-05
1810.0 4.2582e-05
1830.0 4.5546e-05
1850.0 4.9025e-05
1870.0 5.2954e-05
1890.0 5.7349e-05
1910.0 6.2302e-05
1930.0 6.7854e-05
1950.0 7.3926e-05
1970.0 8.0574e-05
1990.0 8.7894e-05
2010.0 9.5805e-05
2030.0 0.00010426
2050.0 0.00011337
2070.0 0.00012311
2090.0 0.00013327
2110.0 0.00014392
2130.0 0.00015508
2150.0 0.00016658
2170.0 0.00017826
2190.0 0.00019025
2210.0 0.00020241
2230.0 0.00021448
2250.0 0.00022646
2270.0 0.00023845
2290.0 0.00025008
2310.0 0.00026121
2330.0 0.00027201
2350.0 0.00028233
2370.0 0.00029186
2390.0 0.0003007
2410.0 0.00030888
2430.0 0.00031593
2450.0 0.00032176
2470.0 0.00032637
2490.0 0.00032959
2510.0 0.00033143
2530.0 0.00033242
2550.0 0.00033336
2570.0 0.00033546
2590.0 0.00034016
2610.0 0.00035032
2630.0 0.00036807
2650.0 0.00039392
2670.0 0.00043014
2690.0 0.00047848
2710.0 0.00053494
2730.0 0.00059673
2750.0 0.00066559
2770.0 0.00073426
2790.0 0.00079657
2810.0 0.00085266
2830.0 0.00090184
2850.0 0.00093785
2870.0 0.00096495
2890.0 0.00098615
2910.0 0.0010021
2930.0 0.0010141
2950.0 0.001025
2970.0 0.0010354
2990.0 0.0010449
3010.0 0.0010541
3030.0 0.001064
3050.0 0.001074
3070.0 0.001083
3090.0 0.0010924
3110.0 0.0011016
3130.0 0.0011094
3150.0 0.0011301
3170.0 0.0011482
3190.0 0.0011677
3210.0 0.0011888
3230.0 0.0012101
3250.0 0.0012134
3270.0 0.0011973
3290.0 0.0012145
3310.0 0.0013037
3330.0 0.001447
3350.0 0.0016106
3370.0 0.0017894
3390.0 0.0019762
3410.0 0.0021518
3430.0 0.0023152
3450.0 0.002442
3470.0 0.0024942
3490.0 0.0025463
3510.0 0.0025765
3530.0 0.002385
3550.0 0.0022386
3570.0 0.0019056
3590.0 0.0020565
3610.0 0.0022115
3630.0 0.002365
3650.0 0.0022885
3670.0 0.002066
3690.0 0.0019212
3710.0 0.0019719
3730.0 0.0021795
3750.0 0.0023064
3770.0 0.0023954
3790.0 0.0024846
3810.0 0.0023713
3830.0 0.0021453
3850.0 0.0019597
3870.0 0.001854
3890.0 0.0019619
3910.0 0.0020649
3930.0 0.0020927
3950.0 0.002164
3970.0 0.002277
3990.0 0.0023715
4010.0 0.0024201
4030.0 0.0023463
4050.0 0.0022418
4070.0 0.0022298
4090.0 0.0022685
4110.0 0.0023291
4130.0 0.0022723
4150.0 0.0022126
4170.0 0.0021934
4190.0 0.0022374
4210.0 0.0021659
4230.0 0.0020036
4250.0 0.0017993
4270.0 0.0016098
4290.0 0.0014581
4310.0 0.001386
4330.0 0.0013972
4350.0 0.0015338
4370.0 0.0016194
4390.0 0.0017163
4410.0 0.0018196
4430.0 0.0018693
4450.0 0.0018022
4470.0 0.0017167
4490.0 0.0017023
4510.0 0.0017264
4530.0 0.0017485
4550.0 0.001746
4570.0 0.0017396
4590.0 0.0017931
4610.0 0.0018425
4630.0 0.0018797
4650.0 0.0018999
4670.0 0.0018957
4690.0 0.0018002
4710.0 0.0016603
4730.0 0.0015987
4750.0 0.0015782
4770.0 0.0015209
4790.0 0.001483
4810.0 0.0014574
4830.0 0.0011702
4850.0 0.0014665
4870.0 0.0011942
4890.0 0.0013125
4910.0 0.0014549
4930.0 0.0013762
4950.0 0.0011522
4970.0 0.0011491
4990.0 0.0010838
5010.0 0.0010177
5030.0 0.00098093
5050.0 0.0011251
5070.0 0.0011306
5090.0 0.0012339
5110.0 0.0012624
5130.0 0.0012563
5150.0 0.0012963
5170.0 0.0012541
5190.0 0.0012235
5210.0 0.0012737
5230.0 0.0012517
5250.0 0.001254
5270.0 0.0012296
5290.0 0.001205
5310.0 0.0011186
5330.0 0.0010673
5350.0 0.00099466
5370.0 0.00098919
5390.0 0.0010498
5410.0 0.00098619
5430.0 0.0010495
5450.0 0.001024
5470.0 0.0010297
5490.0 0.0010298
5510.0 0.0009579
5530.0 0.00097315
5550.0 0.0009389
5570.0 0.00095162
5590.0 0.00096424
5610.0 0.00098901
5630.0 0.00098595
5650.0 0.00099784
5670.0 0.00093484
5690.0 0.00095337
5710.0 0.00089386
5730.0 0.00091713
5750.0 0.00088913
5770.0 0.00083554
5790.0 0.00086042
5810.0 0.00085611
5830.0 0.00088372
5850.0 0.00090234
5870.0 0.00090058
5890.0 0.00089506
5910.0 0.00091425
5930.0 0.00089216
5950.0 0.00091344
5970.0 0.00087736
5990.0 0.00089065
6010.0 0.00087121
6030.0 0.00086373
6050.0 0.00087564
6070.0 0.00083135
6090.0 0.000823
6110.0 0.00084401
6130.0 0.00083695
6150.0 0.00082208
6170.0 0.00080174
6190.0 0.00075535
6210.0 0.00070999
6230.0 0.00071241
6250.0 0.00072277
6270.0 0.00071413
6290.0 0.00074636
6310.0 0.00079867
6330.0 0.00080314
6350.0 0.00078678
6370.0 0.00079509
6390.0 0.00079661
6410.0 0.00078096
6430.0 0.00075076
6450.0 0.00075982
6470.0 0.0007641
6490.0 0.00074957
6510.0 0.00072938
6530.0 0.00071293
6550.0 0.00070704
6570.0 0.00068892
6590.0 0.00069294
6610.0 0.00069094
6630.0 0.00066514
6650.0 0.00062909
6670.0 0.00061811
6690.0 0.00063216
6710.0 0.00062472
6730.0 0.00060401
6750.0 0.00058976
6770.0 0.00057534
6790.0 0.000577
6810.0 0.00057511
6830.0 0.00056834
6850.0 0.00053574
6870.0 0.00053808
6890.0 0.00053773
6910.0 0.00051535
6930.0 0.0005204
6950.0 0.0005036
6970.0 0.00049505
6990.0 0.00048723
7010.0 0.00050803
7030.0 0.0005052
7050.0 0.00049241
7070.0 0.00048245
7090.0 0.00048828
7110.0 0.00047819
7130.0 0.0004768
7150.0 0.00048244
7170.0 0.00047547
7190.0 0.00046987
7210.0 0.00047104
7230.0 0.00049182
7250.0 0.00046989
7270.0 0.00049009
7290.0 0.00046992
7310.0 0.0004518
7330.0 0.00042421
7350.0 0.00041628
7370.0 0.00041998
7390.0 0.0004109
7410.0 0.00039107
7430.0 0.00036661
7450.0 0.00037705
7470.0 0.00038079
7490.0 0.00040875
7510.0 0.00042632
7530.0 0.00040745
7550.0 0.00039571
7570.0 0.00033053
7590.0 0.00035901
7610.0 0.00033662
7630.0 0.00035152
7650.0 0.00034498
7670.0 0.00035046
7690.0 0.00031817
7710.0 0.00036101
7730.0 0.00036204
7750.0 0.00040478
7770.0 0.00041408
7790.0 0.00042494
7810.0 0.00044644
7830.0 0.00044442
7850.0 0.00047645
7870.0 0.00045022
7890.0 0.00045601
7910.0 0.00044628
7930.0 0.00042754
7950.0 0.00041529
7970.0 0.00040825
7990.0 0.00040271
8010.0 0.00038866
8030.0 0.00038573
8050.0 0.00037765
8070.0 0.00037292
8090.0 0.0003541
8110.0 0.00035637
8130.0 0.00036848
8150.0 0.00037847
8170.0 0.00037768
8190.0 0.00038677
8210.0 0.00038136
8230.0 0.00036725
8250.0 0.00036464
8270.0 0.00035779
8290.0 0.00035082
8310.0 0.00033437
8330.0 0.00033642
8350.0 0.0003378
8370.0 0.00033967
8390.0 0.00034309
8410.0 0.00033878
8430.0 0.00033865
8450.0 0.00034037
8470.0 0.00034709
8490.0 0.00035172
8510.0 0.00034239
8530.0 0.00032887
8550.0 0.00033016
8570.0 0.00032725
8590.0 0.00031761
8610.0 0.00032385
8630.0 0.00031995
8650.0 0.00031503
8670.0 0.00031269
8690.0 0.00031067
8710.0 0.00029651
8730.0 0.00030075
8750.0 0.00029159
8770.0 0.00029187
8790.0 0.0002843
8810.0 0.0002793
8830.0 0.00028094
8850.0 0.00027431
8870.0 0.00026147
8890.0 0.00025637
8910.0 0.00024418
8930.0 0.00022767
8950.0 0.00022606
8970.0 0.00021666
8990.0 0.00021426
9010.0 0.00021027
9030.0 0.00020848
9050.0 0.00020707
9070.0 0.00020566
9090.0 0.00020424
9110.0 0.00020279
9130.0 0.00020135
9150.0 0.00019992
9170.0 0.00019848
9190.0 0.00019704
9210.0 0.00019559
9230.0 0.00019413
9250.0 0.00019267
9270.0 0.0001912
9290.0 0.00018974
9310.0 0.00018828
9330.0 0.00018682
9350.0 0.00018537
9370.0 0.00018391
9390.0 0.00018246
9410.0 0.00018101
9430.0 0.00017956
9450.0 0.00017812
9470.0 0.00017681
9490.0 0.00017544
9510.0 0.00017394
9530.0 0.00017246
9550.0 0.00017101
9570.0 0.00016959
9590.0 0.00016817
9610.0 0.00016678
9630.0 0.0001654
9650.0 0.00016403
9670.0 0.00016265
9690.0 0.0001613
9710.0 0.00015996
9730.0 0.00015862
9750.0 0.00015729
9770.0 0.00015599
9790.0 0.00015468
9810.0 0.00015339
9830.0 0.0001521
9850.0 0.00015068
9870.0 0.00014933
9890.0 0.00014819
9910.0 0.00014703
9930.0 0.00014562
9950.0 0.00014441
9970.0 0.00014333
9990.0 0.00014221
10010.0 0.0001411
10030.0 0.00013998
10050.0 0.00013884
10070.0 0.00013773
10090.0 0.00013663
10110.0 0.00013552
10130.0 0.00013443
10150.0 0.00013337
10170.0 0.00013232
10190.0 0.00013126
10210.0 0.00013024
10230.0 0.00012924
10250.0 0.00012824
10270.0 0.00012725
10290.0 0.00012629
10310.0 0.00012533
10330.0 0.00012437
10350.0 0.00012345
10370.0 0.00012254
10390.0 0.00012163
10410.0 0.00012071
10430.0 0.0001198
10450.0 0.00011898
10470.0 0.00011814
10490.0 0.00011732
10510.0 0.00011651
10530.0 0.00011569
10550.0 0.0001149
10570.0 0.00011413
10590.0 0.00011336
10610.0 0.00011259
10630.0 0.00011186
10650.0 0.00011113
10670.0 0.0001104
10690.0 0.00010969
10710.0 0.00010901
10730.0 0.00010832
10750.0 0.00010763
10770.0 0.00010698
10790.0 0.00010634
10810.0 0.00010569
10830.0 0.00010507
10850.0 0.00010447
10870.0 0.00010385
10890.0 0.00010325
10910.0 0.00010268
10930.0 0.00010211
10950.0 0.00010155
10970.0 0.00010101
10990.0 0.00010051
11010.0 9.4469e-05
11030.0 9.3919e-05
11050.0 9.3411e-05
11070.0 9.2915e-05
11090.0 9.2405e-05
11110.0 9.1924e-05
11130.0 9.1449e-05
11150.0 9.0955e-05
11170.0 9.0453e-05
11190.0 8.9972e-05
11210.0 8.9477e-05
11230.0 8.8968e-05
11250.0 8.8482e-05
11270.0 8.8015e-05
11290.0 8.7541e-05
11310.0 8.7086e-05
11330.0 8.6687e-05
11350.0 8.6301e-05
11370.0 8.5932e-05
11390.0 8.5607e-05
11410.0 8.5315e-05
11430.0 8.5022e-05
11450.0 8.4757e-05
11470.0 8.4521e-05
11490.0 8.4286e-05
11510.0 8.4043e-05
11530.0 8.3821e-05
11550.0 8.3602e-05
11570.0 8.3361e-05
11590.0 8.3119e-05
11610.0 8.2886e-05
11630.0 8.263e-05
11650.0 8.2354e-05
11670.0 8.2098e-05
11690.0 8.1839e-05
11710.0 8.156e-05
11730.0 8.1285e-05
11750.0 8.1034e-05
11770.0 8.0765e-05
11790.0 8.0491e-05
11810.0 8.0242e-05
11830.0 8.0002e-05
11850.0 7.9741e-05
11870.0 7.9511e-05
11890.0 7.9316e-05
11910.0 7.9123e-05
11930.0 7.895e-05
11950.0 7.8825e-05
11970.0 7.8728e-05
11990.0 7.8651e-05
12010.0 7.8629e-05
12030.0 7.8658e-05
12050.0 7.8725e-05
12070.0 7.8838e-05
12090.0 7.9016e-05
12110.0 7.9237e-05
12130.0 7.9502e-05
12150.0 7.9814e-05
12170.0 8.0166e-05
12190.0 8.0548e-05
12210.0 8.0959e-05
12230.0 8.1388e-05
12250.0 8.1829e-05
12270.0 8.2274e-05
12290.0 8.2714e-05
12310.0 8.3144e-05
12330.0 8.3556e-05
12350.0 8.3944e-05
12370.0 8.4307e-05
12390.0 8.4637e-05
12410.0 8.4921e-05
12430.0 8.5174e-05
12450.0 8.5389e-05
12470.0 8.5552e-05
12490.0 8.5668e-05
12510.0 8.5754e-05
12530.0 8.5783e-05
12550.0 8.5752e-05
12570.0 8.5689e-05
12590.0 8.5587e-05
12610.0 8.5414e-05
12630.0 8.5197e-05
12650.0 8.4976e-05
12670.0 8.4699e-05
12690.0 8.4373e-05
12710.0 8.4043e-05
12730.0 8.3699e-05
12750.0 8.3289e-05
12770.0 8.2882e-05
12790.0 8.2491e-05
12810.0 8.2076e-05
12830.0 8.1641e-05
12850.0 8.1251e-05
12870.0 8.0876e-05
12890.0 8.0488e-05
12910.0 8.0135e-05
12930.0 7.9831e-05
12950.0 7.9531e-05
12970.0 7.9256e-05
12990.0 7.905e-05
13010.0 7.8881e-05
13030.0 7.8738e-05
13050.0 7.8644e-05
13070.0 7.8605e-05
13090.0 7.8587e-05
13110.0 7.8601e-05
13130.0 7.8655e-05
13150.0 7.8733e-05
13170.0 7.8821e-05
13190.0 7.8932e-05
13210.0 7.9058e-05
13230.0 7.9184e-05
13250.0 7.9309e-05
13270.0 7.9437e-05
13290.0 7.9555e-05
13310.0 7.9654e-05
13330.0 7.9742e-05
13350.0 7.9812e-05
13370.0 7.985e-05
13390.0 7.9851e-05
13410.0 7.9834e-05
13430.0 7.9774e-05
13450.0 7.9664e-05
13470.0 7.9519e-05
13490.0 7.9343e-05
13510.0 7.9098e-05
13530.0 7.8814e-05
13550.0 7.851e-05
13570.0 7.8162e-05
13590.0 7.7764e-05
13610.0 7.735e-05
13630.0 7.6924e-05
13650.0 7.6444e-05
13670.0 7.5941e-05
13690.0 7.5436e-05
13710.0 7.4897e-05
13730.0 7.4301e-05
13750.0 7.3724e-05
13770.0 7.3132e-05
13790.0 7.25e-05
13810.0 7.1857e-05
13830.0 7.1232e-05
13850.0 7.0575e-05
13870.0 6.9898e-05
13890.0 6.9245e-05
13910.0 6.8599e-05
13930.0 6.7931e-05
13950.0 6.7277e-05
13970.0 6.6667e-05
13990.0 6.6051e-05
14010.0 6.5438e-05
14030.0 6.486e-05
14050.0 6.43e-05
14070.0 6.3724e-05
14090.0 6.3175e-05
14110.0 6.265e-05
14130.0 6.2121e-05
14150.0 6.1588e-05
14170.0 6.1082e-05
14190.0 6.0579e-05
14210.0 6.0062e-05
14230.0 5.9553e-05
14250.0 5.9057e-05
14270.0 5.8547e-05
14290.0 5.8032e-05
14310.0 5.7542e-05
14330.0 5.7055e-05
14350.0 5.6565e-05
14370.0 5.6091e-05
14390.0 5.5639e-05
14410.0 5.5184e-05
14430.0 5.4739e-05
14450.0 5.4316e-05
14470.0 5.3901e-05
14490.0 5.3482e-05
14510.0 5.3079e-05
14530.0 5.2686e-05
14550.0 5.2287e-05
14570.0 5.1886e-05
14590.0 5.1492e-05
14610.0 5.109e-05
14630.0 5.0674e-05
14650.0 5.0259e-05
14670.0 4.9841e-05
14690.0 4.941e-05
14710.0 4.8969e-05
14730.0 4.8535e-05
14750.0 4.809e-05
14770.0 4.7633e-05
14790.0 4.7176e-05
14810.0 4.672e-05
14830.0 4.6242e-05
14850.0 4.5763e-05
14870.0 4.5288e-05
14890.0 4.4807e-05
14910.0 4.4317e-05
14930.0 4.3839e-05
14950.0 4.3374e-05
14970.0 4.291e-05
14990.0 4.2465e-05
15010.0 4.2045e-05
15030.0 4.164e-05
15050.0 4.1246e-05
15070.0 4.0876e-05
15090.0 4.0515e-05
15110.0 4.0157e-05
15130.0 3.9803e-05
15150.0 3.9456e-05
15170.0 3.9106e-05
15190.0 3.8754e-05
15210.0 3.8405e-05
15230.0 3.8057e-05
15250.0 3.7704e-05
15270.0 3.7353e-05
15290.0 3.7006e-05
15310.0 3.6656e-05
15330.0 3.6305e-05
15350.0 3.5957e-05
15370.0 3.5611e-05
15390.0 3.526e-05
15410.0 3.4912e-05
15430.0 3.4568e-05
15450.0 3.4222e-05
15470.0 3.3875e-05
15490.0 3.3533e-05
15510.0 3.3192e-05
15530.0 3.2849e-05
15550.0 3.2509e-05
15570.0 3.2173e-05
15590.0 3.1835e-05
15610.0 3.1497e-05
15630.0 3.1164e-05
15650.0 3.0833e-05
15670.0 3.0501e-05
15690.0 3.0172e-05
15710.0 2.9848e-05
15730.0 2.9522e-05
15750.0 2.9198e-05
15770.0 2.8878e-05
15790.0 2.856e-05
15810.0 2.824e-05
15830.0 2.7926e-05
15850.0 2.7615e-05
15870.0 2.7305e-05
15890.0 2.6996e-05
15910.0 2.6693e-05
15930.0 2.639e-05
15950.0 2.6087e-05
15970.0 2.5789e-05
15990.0 2.5495e-05
16010.0 2.5201e-05
16030.0 2.4909e-05
16050.0 2.4623e-05
16070.0 2.4338e-05
16090.0 2.4054e-05
16110.0 2.3774e-05
16130.0 2.3499e-05
16150.0 2.3222e-05
16170.0 2.2949e-05
16190.0 2.2681e-05
16210.0 2.2415e-05
16230.0 2.2149e-05
16250.0 2.1889e-05
16270.0 2.1632e-05
16290.0 2.1375e-05
16310.0 2.1122e-05
16330.0 2.0873e-05
16350.0 2.0626e-05
16370.0 2.0379e-05
16390.0 2.0139e-05
16410.0 1.9901e-05
16430.0 1.9663e-05
16450.0 1.943e-05
16470.0 1.9201e-05
16490.0 1.8973e-05
16510.0 1.8746e-05
16530.0 1.8524e-05
16550.0 1.8306e-05
16570.0 1.8087e-05
16590.0 1.7872e-05
16610.0 1.7663e-05
16630.0 1.7454e-05
16650.0 1.7247e-05
16670.0 1.7044e-05
16690.0 1.6844e-05
16710.0 1.6644e-05
16730.0 1.6448e-05
16750.0 1.6257e-05
16770.0 1.6066e-05
16790.0 1.5877e-05
16810.0 1.5693e-05
16830.0 1.5511e-05
16850.0 1.5329e-05
16870.0 1.5152e-05
16890.0 1.4978e-05
16910.0 1.4804e-05
16930.0 1.4633e-05
16950.0 1.4466e-05
16970.0 1.43e-05
16990.0 1.4136e-05
17010.0 1.3976e-05
17030.0 1.3819e-05
17050.0 1.3662e-05
17070.0 1.3507e-05
17090.0 1.3356e-05
17110.0 1.3207e-05
17130.0 1.3058e-05
17150.0 1.2914e-05
17170.0 1.2772e-05
17190.0 1.2631e-05
17210.0 1.2492e-05
17230.0 1.2356e-05
17250.0 1.2222e-05
17270.0 1.2089e-05
17290.0 1.1959e-05
17310.0 1.1831e-05
17330.0 1.1704e-05
17350.0 1.1579e-05
17370.0 1.1458e-05
17390.0 1.1337e-05
17410.0 1.1218e-05
17430.0 1.1102e-05
17450.0 1.0988e-05
17470.0 1.0873e-05
17490.0 1.0762e-05
17510.0 1.0653e-05
17530.0 1.0545e-05
17550.0 1.0438e-05
17570.0 1.0335e-05
17590.0 1.0233e-05
17610.0 1.0131e-05
17630.0 1.0032e-05
17650.0 9.935e-06
17670.0 9.8388e-06
17690.0 9.7428e-06
17710.0 9.6506e-06
17730.0 9.5598e-06
17750.0 9.4694e-06
17770.0 9.3809e-06
17790.0 9.2951e-06
17810.0 9.2092e-06
17830.0 9.1245e-06
17850.0 9.0423e-06
17870.0 8.9616e-06
17890.0 8.8808e-06
17910.0 8.802e-06
17930.0 8.726e-06
17950.0 8.65e-06
17970.0 8.575e-06
17990.0 8.5025e-06
18010.0 8.431e-06
18030.0 8.3591e-06
18050.0 8.2896e-06
18070.0 8.222e-06
18090.0 8.1547e-06
18110.0 8.0881e-06
18130.0 8.0242e-06
18150.0 7.961e-06
18170.0 7.8979e-06
18190.0 7.8366e-06
18210.0 7.7772e-06
18230.0 7.7174e-06
18250.0 7.6585e-06
18270.0 7.6021e-06
18290.0 7.5464e-06
18310.0 7.4908e-06
18330.0 7.437e-06
18350.0 7.3849e-06
18370.0 7.3323e-06
18390.0 7.2808e-06
18410.0 7.2313e-06
18430.0 7.1823e-06
18450.0 7.1329e-06
18470.0 7.0858e-06
18490.0 7.0401e-06
18510.0 6.9942e-06
18530.0 6.9492e-06
18550.0 6.9062e-06
18570.0 6.8632e-06
18590.0 6.8202e-06
18610.0 6.7791e-06
18630.0 6.7391e-06
18650.0 6.6988e-06
18670.0 6.6593e-06
18690.0 6.6221e-06
18710.0 6.5847e-06
18730.0 6.5476e-06
18750.0 6.512e-06
18770.0 6.4775e-06
18790.0 6.442e-06
18810.0 6.408e-06
18830.0 6.3756e-06
18850.0 6.3432e-06
18870.0 6.3109e-06
18890.0 6.2804e-06
18910.0 6.2507e-06
18930.0 6.2203e-06
18950.0 6.1912e-06
18970.0 6.1634e-06
18990.0 6.1355e-06
19010.0 6.1071e-06
19030.0 6.0812e-06
19050.0 6.0557e-06
19070.0 6.0299e-06
19090.0 6.005e-06
19110.0 5.9818e-06
19130.0 5.9576e-06
19150.0 5.9339e-06
19170.0 5.9118e-06
19190.0 5.8901e-06
19210.0 5.8679e-06
19230.0 5.8467e-06
19250.0 5.8272e-06
19270.0 5.8071e-06
19290.0 5.7873e-06
19310.0 5.769e-06
19330.0 5.751e-06
19350.0 5.7319e-06
19370.0 5.7145e-06
19390.0 5.6981e-06
19410.0 5.6813e-06
19430.0 5.6646e-06
19450.0 5.6497e-06
19470.0 5.6348e-06
19490.0 5.6195e-06
19510.0 5.6053e-06
19530.0 5.5921e-06
19550.0 5.578e-06
19570.0 5.5641e-06
19590.0 5.5522e-06
19610.0 5.5401e-06
19630.0 5.5276e-06
19650.0 5.5164e-06
19670.0 5.5061e-06
19690.0 5.4947e-06
19710.0 5.484e-06
19730.0 5.4746e-06
19750.0 5.465e-06
19770.0 5.4546e-06
19790.0 5.446e-06
19810.0 5.4381e-06
19830.0 5.4294e-06
19850.0 5.4213e-06
19870.0 5.4148e-06
19890.0 5.4077e-06
19910.0 5.4006e-06
19930.0 5.3957e-06
19950.0 5.3924e-06
19970.0 5.39e-06
19990.0 5.39e-06
20010.0 5.394e-06
20030.0 5.4e-06
20050.0 5.4088e-06
20070.0 5.4211e-06
20090.0 5.436e-06
20110.0 5.4526e-06
20130.0 5.4716e-06
20150.0 5.4928e-06
20170.0 5.5152e-06
20190.0 5.5389e-06
20210.0 5.5642e-06
20230.0 5.5906e-06
20250.0 5.6177e-06
20270.0 5.6459e-06
20290.0 5.6749e-06
20310.0 5.7045e-06
20330.0 5.7344e-06
20350.0 5.7652e-06
20370.0 5.7963e-06
20390.0 5.8276e-06
20410.0 5.8594e-06
20430.0 5.8918e-06
20450.0 5.9243e-06
20470.0 5.9572e-06
20490.0 5.9909e-06
20510.0 6.0253e-06
20530.0 6.0603e-06
20550.0 6.0964e-06
20570.0 6.1338e-06
20590.0 6.1721e-06
20610.0 6.2117e-06
20630.0 6.2529e-06
20650.0 6.2954e-06
20670.0 6.3391e-06
20690.0 6.3843e-06
20710.0 6.4308e-06
20730.0 6.4783e-06
20750.0 6.5266e-06
20770.0 6.5759e-06
20790.0 6.6256e-06
20810.0 6.6755e-06
20830.0 6.7255e-06
20850.0 6.7755e-06
20870.0 6.8248e-06
20890.0 6.8736e-06
20910.0 6.9221e-06
20930.0 6.9697e-06
20950.0 7.0162e-06
20970.0 7.0622e-06
20990.0 7.1078e-06
21010.0 7.1516e-06
21030.0 7.195e-06
21050.0 7.2383e-06
21070.0 7.2807e-06
21090.0 7.3218e-06
21110.0 7.3636e-06
21130.0 7.4055e-06
21150.0 7.4461e-06
21170.0 7.4869e-06
21190.0 7.5285e-06
21210.0 7.5688e-06
21230.0 7.6083e-06
21250.0 7.6489e-06
21270.0 7.6893e-06
21290.0 7.7281e-06
21310.0 7.7668e-06
21330.0 7.8066e-06
21350.0 7.8445e-06
21370.0 7.8812e-06
21390.0 7.9184e-06
21410.0 7.9552e-06
21430.0 7.9886e-06
21450.0 8.0226e-06
21470.0 8.0572e-06
21490.0 8.0897e-06
21510.0 8.1207e-06
21530.0 8.153e-06
21550.0 8.1844e-06
21570.0 8.213e-06
21590.0 8.2423e-06
21610.0 8.2723e-06
21630.0 8.3001e-06
21650.0 8.3256e-06
21670.0 8.3546e-06
21690.0 8.3823e-06
21710.0 8.4078e-06
21730.0 8.4341e-06
21750.0 8.4622e-06
21770.0 8.4862e-06
21790.0 8.5103e-06
21810.0 8.5366e-06
21830.0 8.5621e-06
21850.0 8.5852e-06
21870.0 8.6101e-06
21890.0 8.6374e-06
21910.0 8.6621e-06
21930.0 8.6872e-06
21950.0 8.7154e-06
21970.0 8.7432e-06
21990.0 8.7687e-06
22010.0 8.7985e-06
22030.0 8.8304e-06
22050.0 8.8614e-06
22070.0 8.8938e-06
22090.0 8.9306e-06
22110.0 8.9675e-06
22130.0 9.0044e-06
22150.0 9.0449e-06
22170.0 9.0878e-06
22190.0 9.1295e-06
22210.0 9.1732e-06
22230.0 9.2211e-06
22250.0 9.269e-06
22270.0 9.3169e-06
22290.0 9.3677e-06
22310.0 9.4202e-06
22330.0 9.4707e-06
22350.0 9.523e-06
22370.0 9.5776e-06
22390.0 9.6316e-06
22410.0 9.6845e-06
22430.0 9.7409e-06
22450.0 9.7982e-06
22470.0 9.8542e-06
22490.0 9.9118e-06
22510.0 9.9723e-06
22530.0 1.0032e-05
22550.0 1.0091e-05
22570.0 1.0154e-05
22590.0 1.0219e-05
22610.0 1.0283e-05
22630.0 1.0349e-05
22650.0 1.0419e-05
22670.0 1.0489e-05
22690.0 1.056e-05
22710.0 1.0634e-05
22730.0 1.071e-05
22750.0 1.0785e-05
