#lamb flux
1010.0 2.1912e-08
1030.0 2.4235e-08
1050.0 2.6907e-08
1070.0 2.9914e-08
1090.0 3.3331e-08
1110.0 3.6834e-08
1130.0 4.0361e-08
1150.0 4.4055e-08
1170.0 4.7865e-08
1190.0 5.1479e-08
1210.0 5.5141e-08
1230.0 5.8925e-08
1250.0 6.2632e-08
1270.0 6.6233e-08
1290.0 7.0038e-08
1310.0 7.384e-08
1330.0 7.7485e-08
1350.0 8.1173e-08
1370.0 8.4979e-08
1390.0 8.8691e-08
1410.0 9.2292e-08
1430.0 9.6057e-08
1450.0 9.9822e-08
1470.0 1.0346e-07
1490.0 1.0714e-07
1510.0 1.1102e-07
1530.0 1.1471e-07
1550.0 1.1834e-07
1570.0 1.221e-07
1590.0 1.2586e-07
1610.0 1.2946e-07
1630.0 1.3317e-07
1650.0 1.3698e-07
1670.0 1.4067e-07
1690.0 1.4431e-07
1710.0 1.4809e-07
1730.0 1.519e-07
1750.0 1.5549e-07
1770.0 1.5918e-07
1790.0 1.6295e-07
1810.0 1.6661e-07
1830.0 1.7021e-07
1850.0 1.7403e-07
1870.0 1.7776e-07
1890.0 1.8138e-07
1910.0 1.8507e-07
1930.0 1.8886e-07
1950.0 1.9248e-07
1970.0 1.9607e-07
1990.0 1.998e-07
2010.0 2.0348e-07
2030.0 2.0704e-07
2050.0 2.1071e-07
2070.0 2.1449e-07
2090.0 2.1806e-07
2110.0 2.2162e-07
2130.0 2.253e-07
2150.0 2.2892e-07
2170.0 2.3239e-07
2190.0 2.3599e-07
2210.0 2.3963e-07
2230.0 2.4312e-07
2250.0 2.466e-07
2270.0 2.5024e-07
2290.0 2.5378e-07
2310.0 2.5718e-07
2330.0 2.6071e-07
2350.0 2.6434e-07
2370.0 2.6796e-07
2390.0 2.7188e-07
2410.0 2.7651e-07
2430.0 2.8185e-07
2450.0 2.8823e-07
2470.0 2.964e-07
2490.0 3.067e-07
2510.0 3.1841e-07
2530.0 3.325e-07
2550.0 3.5014e-07
2570.0 3.7209e-07
2590.0 4.0064e-07
2610.0 4.4338e-07
2630.0 5.044e-07
2650.0 5.8419e-07
2670.0 6.8736e-07
2690.0 8.1413e-07
2710.0 9.4946e-07
2730.0 1.0832e-06
2750.0 1.2149e-06
2770.0 1.3294e-06
2790.0 1.4204e-06
2810.0 1.4926e-06
2830.0 1.549e-06
2850.0 1.5875e-06
2870.0 1.6158e-06
2890.0 1.6381e-06
2910.0 1.656e-06
2930.0 1.6706e-06
2950.0 1.6845e-06
2970.0 1.6981e-06
2990.0 1.7109e-06
3010.0 4.836e-05
3030.0 4.8721e-05
3050.0 4.9071e-05
3070.0 4.937e-05
3090.0 4.9627e-05
3110.0 4.9787e-05
3130.0 4.9781e-05
3150.0 4.9559e-05
3170.0 4.9029e-05
3190.0 4.8195e-05
3210.0 4.7138e-05
3230.0 4.5928e-05
3250.0 4.4734e-05
3270.0 4.3861e-05
3290.0 4.3376e-05
3310.0 4.3455e-05
3330.0 4.4084e-05
3350.0 4.5179e-05
3370.0 4.6743e-05
3390.0 4.8713e-05
3410.0 5.0858e-05
3430.0 5.3266e-05
3450.0 5.6038e-05
3470.0 5.9065e-05
3490.0 6.2273e-05
3510.0 6.5899e-05
3530.0 6.9782e-05
3550.0 7.3713e-05
3570.0 7.7813e-05
3590.0 8.2274e-05
3610.0 8.6869e-05
3630.0 9.145e-05
3650.0 9.6203e-05
3670.0 0.00010054
3690.0 0.00010379
3710.0 0.00010565
3730.0 0.00010571
3750.0 0.00010424
3770.0 0.00010366
3790.0 0.00010304
3810.0 0.00010051
3830.0 0.00010362
3850.0 0.00011586
3870.0 0.00012258
3890.0 0.00012202
3910.0 0.00012254
3930.0 0.00012577
3950.0 0.00012775
3970.0 0.00011639
3990.0 0.00010015
4010.0 0.00030017
4030.0 0.00036369
4050.0 0.00041695
4070.0 0.00036178
4090.0 0.00032766
4110.0 0.00028913
4130.0 0.00026611
4150.0 0.00028306
4170.0 0.00027883
4190.0 0.00029721
4210.0 0.00029449
4230.0 0.0003115
4250.0 0.00036851
4270.0 0.00037284
4290.0 0.00034357
4310.0 0.00035699
4330.0 0.00037973
4350.0 0.00042577
4370.0 0.00048454
4390.0 0.00045468
4410.0 0.00033593
4430.0 0.00028439
4450.0 0.00026132
4470.0 0.00020057
4490.0 0.00021644
4510.0 0.00032694
4530.0 0.00037706
4550.0 0.00038033
4570.0 0.00042797
4590.0 0.0004875
4610.0 0.00065752
4630.0 0.00085398
4650.0 0.00092613
4670.0 0.00085769
4690.0 0.00081839
4710.0 0.00086509
4730.0 0.0008164
4750.0 0.00061037
4770.0 0.00044773
4790.0 0.00041809
4810.0 0.0003985
4830.0 0.00036483
4850.0 0.00040033
4870.0 0.00052888
4890.0 0.0006237
4910.0 0.00054722
4930.0 0.00048421
4950.0 0.00053198
4970.0 0.00068223
4990.0 0.00092458
5010.0 0.0010636
5030.0 0.00093786
5050.0 0.00063452
5070.0 0.00041818
5090.0 0.0003372
5110.0 0.00034677
5130.0 0.00040023
5150.0 0.00043362
5170.0 0.00042711
5190.0 0.00039911
5210.0 0.00041716
5230.0 0.00043853
5250.0 0.00047262
5270.0 0.00050992
5290.0 0.0005651
5310.0 0.00065776
5330.0 0.0007279
5350.0 0.00072326
5370.0 0.00075971
5390.0 0.00087179
5410.0 0.00087101
5430.0 0.00077028
5450.0 0.00070771
5470.0 0.00075147
5490.0 0.00091809
5510.0 0.0011479
5530.0 0.0013166
5550.0 0.0012725
5570.0 0.0011568
5590.0 0.0010059
5610.0 0.00092765
5630.0 0.00089953
5650.0 0.00085672
5670.0 0.00081182
5690.0 0.00072576
5710.0 0.00070763
5730.0 0.00065184
5750.0 0.00045958
5770.0 0.00035855
5790.0 0.00040632
5810.0 0.00045881
5830.0 0.00056302
5850.0 0.00067022
5870.0 0.00074362
5890.0 0.00075622
5910.0 0.0007419
5930.0 0.00070621
5950.0 0.00071962
5970.0 0.00082029
5990.0 0.00077129
6010.0 0.00064657
6030.0 0.00054626
6050.0 0.00047572
6070.0 0.00047312
6090.0 0.00051302
6110.0 0.00057364
6130.0 0.00058243
6150.0 0.00050113
6170.0 0.00044084
6190.0 0.0004961
6210.0 0.00065583
6230.0 0.00086064
6250.0 0.00093219
6270.0 0.00081461
6290.0 0.00068537
6310.0 0.00053505
6330.0 0.00040995
6350.0 0.00036567
6370.0 0.00038454
6390.0 0.00044455
6410.0 0.00054815
6430.0 0.00064009
6450.0 0.00073242
6470.0 0.00083864
6490.0 0.001013
6510.0 0.0011327
6530.0 0.0011112
6550.0 0.0010049
6570.0 0.00085303
6590.0 0.0007692
6610.0 0.00066325
6630.0 0.00060088
6650.0 0.00056801
6670.0 0.0005518
6690.0 0.00049859
6710.0 0.00045322
6730.0 0.00032645
6750.0 0.00032364
6770.0 0.00035177
6790.0 0.00040434
6810.0 0.00036998
6830.0 0.00038097
6850.0 0.00035633
6870.0 0.00032551
6890.0 0.00031254
6910.0 0.00033305
6930.0 0.00031195
6950.0 0.00032094
6970.0 0.00033757
6990.0 0.00038317
7010.0 0.00038644
7030.0 0.00039258
7050.0 0.00037438
7070.0 0.00035672
7090.0 0.00035777
7110.0 0.00036811
7130.0 0.00039615
7150.0 0.00042074
7170.0 0.00046426
7190.0 0.00051035
7210.0 0.00050149
7230.0 0.00051554
7250.0 0.00055403
7270.0 0.00060375
7290.0 0.00071659
7310.0 0.00077757
7330.0 0.00075159
7350.0 0.00067976
7370.0 0.00059146
7390.0 0.00057379
7410.0 0.00060976
7430.0 0.00067767
7450.0 0.00073811
7470.0 0.00073133
7490.0 0.00066683
7510.0 0.00075536
7530.0 0.00074708
7550.0 0.00067149
7570.0 0.00052456
7590.0 0.00036062
7610.0 0.00030952
7630.0 0.00035167
7650.0 0.0004158
7670.0 0.0005175
7690.0 0.00056946
7710.0 0.00059345
7730.0 0.00062364
7750.0 0.00070011
7770.0 0.00071112
7790.0 0.00065319
7810.0 0.000596
7830.0 0.00061461
7850.0 0.00059745
7870.0 0.00054777
7890.0 0.00046023
7910.0 0.0003741
7930.0 0.00035721
7950.0 0.00032543
7970.0 0.00030124
7990.0 0.00029953
8010.0 2.2184e-05
8030.0 2.1895e-05
8050.0 2.16e-05
8070.0 2.1883e-05
8090.0 2.3512e-05
8110.0 2.3112e-05
8130.0 1.9064e-05
8150.0 1.8566e-05
8170.0 1.5992e-05
8190.0 1.5156e-05
8210.0 1.9682e-05
8230.0 2.1913e-05
8250.0 1.975e-05
8270.0 1.719e-05
8290.0 1.6757e-05
8310.0 1.2897e-05
8330.0 8.6924e-06
8350.0 6.1689e-06
8370.0 3.8867e-06
8390.0 7.1047e-06
8410.0 8.2789e-06
8430.0 1.0205e-05
8450.0 1.1984e-05
8470.0 1.4895e-05
8490.0 1.479e-05
8510.0 1.4548e-05
8530.0 1.5183e-05
8550.0 2.0484e-05
8570.0 2.4251e-05
8590.0 2.6166e-05
8610.0 3.3054e-05
8630.0 3.9818e-05
8650.0 4.1654e-05
8670.0 4.4265e-05
8690.0 4.4513e-05
8710.0 4.0313e-05
8730.0 3.7497e-05
8750.0 3.3098e-05
8770.0 3.1405e-05
8790.0 3.0854e-05
8810.0 2.9565e-05
8830.0 2.3642e-05
8850.0 1.7307e-05
8870.0 1.3252e-05
8890.0 1.2956e-05
8910.0 1.4848e-05
8930.0 1.6888e-05
8950.0 1.7212e-05
8970.0 1.7293e-05
8990.0 1.5423e-05
9010.0 0.00016163
9030.0 0.00014646
9050.0 0.00014716
9070.0 0.00014832
9090.0 0.00014934
9110.0 0.0001506
9130.0 0.00015157
9150.0 0.00015233
9170.0 0.00015313
9190.0 0.00015399
9210.0 0.00015489
9230.0 0.00015585
9250.0 0.00015682
9270.0 0.00015782
9290.0 0.00015886
9310.0 0.0001599
9330.0 0.00016097
9350.0 0.00016207
9370.0 0.00016319
9390.0 0.00016432
9410.0 0.00016548
9430.0 0.00016667
9450.0 0.00016786
9470.0 0.00016908
9490.0 0.00017033
9510.0 0.00017159
9530.0 0.00017286
9550.0 0.00017418
9570.0 0.00017552
9590.0 0.00017686
9610.0 0.00017822
9630.0 0.00017962
9650.0 0.00018104
9670.0 0.00018245
9690.0 0.00018391
9710.0 0.00018538
9730.0 0.00018686
9750.0 0.00018837
9770.0 0.00018991
9790.0 0.00019146
9810.0 0.00019301
9830.0 0.00019459
9850.0 0.0001962
9870.0 0.0001978
9890.0 0.00019942
9910.0 0.00020108
9930.0 0.00020273
9950.0 0.0002044
9970.0 0.00020609
9990.0 0.0002078
10010.0 0.00018032
10030.0 0.0001818
10050.0 0.00018331
10070.0 0.00018487
10090.0 0.00018634
10110.0 0.00018785
10130.0 0.00018937
10150.0 0.00019088
10170.0 0.00019241
10190.0 0.00019396
10210.0 0.0001955
10230.0 0.00019703
10250.0 0.00019859
10270.0 0.00020014
10290.0 0.00020168
10310.0 0.00020323
10330.0 0.00020481
10350.0 0.00020635
10370.0 0.00020789
10390.0 0.00020945
10410.0 0.000211
10430.0 0.00021251
10450.0 0.00021405
10470.0 0.00021559
10490.0 0.0002171
10510.0 0.0002186
10530.0 0.00022013
10550.0 0.00022163
10570.0 0.0002231
10590.0 0.00022458
10610.0 0.00022606
10630.0 0.0002275
10650.0 0.00022892
10670.0 0.00023037
10690.0 0.00023178
10710.0 0.00023317
10730.0 0.00023456
10750.0 0.00023595
10770.0 0.00023728
10790.0 0.0002386
10810.0 0.00023992
10830.0 0.0002412
10850.0 0.00024242
10870.0 0.00024359
10890.0 0.00024463
10910.0 0.00024543
10930.0 0.00024588
10950.0 0.00024577
10970.0 0.00024494
10990.0 0.00024331
11010.0 0.00024057
11030.0 0.00023675
11050.0 0.00023208
11070.0 0.00022651
11090.0 0.0002198
11110.0 0.00021287
11130.0 0.00020564
11150.0 0.00019786
11170.0 0.00018983
11190.0 0.00018205
11210.0 0.00017401
11230.0 0.00016576
11250.0 0.00015789
11270.0 0.00015032
11290.0 0.00014275
11310.0 0.00013557
11330.0 0.00012924
11350.0 0.00012327
11370.0 0.00011775
11390.0 0.00011298
11410.0 0.0001088
11430.0 0.00010492
11450.0 0.00010158
11470.0 9.8683e-05
11490.0 9.5992e-05
11510.0 9.34e-05
11530.0 9.0994e-05
11550.0 8.8604e-05
11570.0 8.6054e-05
11590.0 8.3413e-05
11610.0 8.0726e-05
11630.0 7.78e-05
11650.0 7.4669e-05
11670.0 7.1582e-05
11690.0 6.8452e-05
11710.0 6.5223e-05
11730.0 6.2094e-05
11750.0 5.9198e-05
11770.0 5.6358e-05
11790.0 5.3697e-05
11810.0 5.1354e-05
11830.0 4.9258e-05
11850.0 4.7328e-05
11870.0 4.5714e-05
11890.0 4.4372e-05
11910.0 4.3193e-05
11930.0 4.2179e-05
11950.0 4.1335e-05
11970.0 4.0581e-05
11990.0 3.9868e-05
12010.0 3.9209e-05
12030.0 3.8573e-05
12050.0 3.7916e-05
12070.0 3.7233e-05
12090.0 3.6574e-05
12110.0 3.5905e-05
12130.0 3.5235e-05
12150.0 3.4617e-05
12170.0 3.4078e-05
12190.0 3.3611e-05
12210.0 3.3286e-05
12230.0 3.3129e-05
12250.0 3.3154e-05
12270.0 3.3404e-05
12290.0 3.3877e-05
12310.0 3.4555e-05
12330.0 3.5503e-05
12350.0 3.6687e-05
12370.0 3.8034e-05
12390.0 3.9588e-05
12410.0 4.1409e-05
12430.0 4.326e-05
12450.0 4.5176e-05
12470.0 4.7213e-05
12490.0 4.926e-05
12510.0 5.118e-05
12530.0 5.309e-05
12550.0 5.4932e-05
12570.0 5.6559e-05
12590.0 5.7987e-05
12610.0 5.9259e-05
12630.0 6.0274e-05
12650.0 6.0974e-05
12670.0 6.1434e-05
12690.0 6.1618e-05
12710.0 6.1517e-05
12730.0 6.116e-05
12750.0 6.0524e-05
12770.0 5.9651e-05
12790.0 5.8592e-05
12810.0 5.7328e-05
12830.0 5.5865e-05
12850.0 5.4336e-05
12870.0 5.2718e-05
12890.0 5.0968e-05
12910.0 4.9189e-05
12930.0 4.7435e-05
12950.0 4.5606e-05
12970.0 4.3743e-05
12990.0 4.1981e-05
13010.0 4.0241e-05
13030.0 3.8482e-05
13050.0 3.6792e-05
13070.0 3.5209e-05
13090.0 3.362e-05
13110.0 3.2083e-05
13130.0 3.0666e-05
13150.0 2.9324e-05
13170.0 2.801e-05
13190.0 2.6841e-05
13210.0 2.5812e-05
13230.0 2.4871e-05
13250.0 2.4061e-05
13270.0 2.3422e-05
13290.0 2.2925e-05
13310.0 2.2583e-05
13330.0 2.2427e-05
13350.0 2.2445e-05
13370.0 2.2646e-05
13390.0 2.3041e-05
13410.0 2.3576e-05
13430.0 2.4271e-05
13450.0 2.5129e-05
13470.0 2.6082e-05
13490.0 2.709e-05
13510.0 2.8228e-05
13530.0 2.9382e-05
13550.0 3.0486e-05
13570.0 3.1575e-05
13590.0 3.2636e-05
13610.0 3.358e-05
13630.0 3.4404e-05
13650.0 3.5157e-05
13670.0 3.5781e-05
13690.0 3.6264e-05
13710.0 3.6638e-05
13730.0 3.6904e-05
13750.0 3.7038e-05
13770.0 3.7068e-05
13790.0 3.7001e-05
13810.0 3.6837e-05
13830.0 3.6596e-05
13850.0 3.6269e-05
13870.0 3.5857e-05
13890.0 3.5385e-05
13910.0 3.4854e-05
13930.0 3.4238e-05
13950.0 3.3567e-05
13970.0 3.288e-05
13990.0 3.2132e-05
14010.0 3.1337e-05
14030.0 3.0543e-05
14050.0 2.9744e-05
14070.0 2.89e-05
14090.0 2.8091e-05
14110.0 2.7331e-05
14130.0 2.6594e-05
14150.0 2.5901e-05
14170.0 2.5309e-05
14190.0 2.4797e-05
14210.0 2.4363e-05
14230.0 2.4041e-05
14250.0 2.3834e-05
14270.0 2.3733e-05
14290.0 2.3754e-05
14310.0 2.3887e-05
14330.0 2.4124e-05
14350.0 2.4474e-05
14370.0 2.491e-05
14390.0 2.5405e-05
14410.0 2.5988e-05
14430.0 2.6629e-05
14450.0 2.7282e-05
14470.0 2.7961e-05
14490.0 2.8682e-05
14510.0 2.9372e-05
14530.0 3.0028e-05
14550.0 3.0682e-05
14570.0 3.1311e-05
14590.0 3.1884e-05
14610.0 3.2437e-05
14630.0 3.2985e-05
14650.0 3.3495e-05
14670.0 3.3988e-05
14690.0 3.4502e-05
14710.0 3.5042e-05
14730.0 3.5582e-05
14750.0 3.6181e-05
14770.0 3.686e-05
14790.0 3.7596e-05
14810.0 3.8393e-05
14830.0 3.9338e-05
14850.0 4.0364e-05
14870.0 4.1436e-05
14890.0 4.2592e-05
14910.0 4.3819e-05
14930.0 4.5e-05
14950.0 4.6102e-05
14970.0 4.7147e-05
14990.0 4.8022e-05
15010.0 4.8692e-05
15030.0 4.9188e-05
15050.0 4.9516e-05
15070.0 4.9676e-05
15090.0 4.9732e-05
15110.0 4.9716e-05
15130.0 4.9653e-05
15150.0 4.9569e-05
15170.0 4.947e-05
15190.0 4.9364e-05
15210.0 4.9259e-05
15230.0 4.9154e-05
15250.0 4.9045e-05
15270.0 4.8938e-05
15290.0 4.8837e-05
15310.0 4.8732e-05
15330.0 4.8627e-05
15350.0 4.8525e-05
15370.0 4.8425e-05
15390.0 4.8319e-05
15410.0 4.8217e-05
15430.0 4.8118e-05
15450.0 4.8017e-05
15470.0 4.7914e-05
15490.0 4.7816e-05
15510.0 4.7719e-05
15530.0 4.7618e-05
15550.0 4.7519e-05
15570.0 4.7424e-05
15590.0 4.7325e-05
15610.0 4.7224e-05
15630.0 4.7129e-05
15650.0 4.7034e-05
15670.0 4.6935e-05
15690.0 4.6839e-05
15710.0 4.6747e-05
15730.0 4.665e-05
15750.0 4.6553e-05
15770.0 4.646e-05
15790.0 4.6366e-05
15810.0 4.6268e-05
15830.0 4.6174e-05
15850.0 4.6083e-05
15870.0 4.5988e-05
15890.0 4.5893e-05
15910.0 4.5802e-05
15930.0 4.5709e-05
15950.0 4.5613e-05
15970.0 4.552e-05
15990.0 4.5429e-05
16010.0 4.5335e-05
16030.0 4.5239e-05
16050.0 4.515e-05
16070.0 4.5058e-05
16090.0 4.4963e-05
16110.0 4.4872e-05
16130.0 4.4783e-05
16150.0 4.4686e-05
16170.0 4.4593e-05
16190.0 4.4503e-05
16210.0 4.441e-05
16230.0 4.4315e-05
16250.0 4.4224e-05
16270.0 4.4135e-05
16290.0 4.404e-05
16310.0 4.3947e-05
16330.0 4.3857e-05
16350.0 4.3764e-05
16370.0 4.3667e-05
16390.0 4.3576e-05
16410.0 4.3485e-05
16430.0 4.339e-05
16450.0 4.3297e-05
16470.0 4.3207e-05
16490.0 4.3113e-05
16510.0 4.3017e-05
16530.0 4.2925e-05
16550.0 4.2833e-05
16570.0 4.2736e-05
16590.0 4.264e-05
16610.0 4.255e-05
16630.0 4.2455e-05
16650.0 4.2359e-05
16670.0 4.2267e-05
16690.0 4.2174e-05
16710.0 4.2075e-05
16730.0 4.1979e-05
16750.0 4.1886e-05
16770.0 4.179e-05
16790.0 4.1691e-05
16810.0 4.1598e-05
16830.0 4.1504e-05
16850.0 4.1405e-05
16870.0 4.1309e-05
16890.0 4.1215e-05
16910.0 4.1116e-05
16930.0 4.1015e-05
16950.0 4.092e-05
16970.0 4.0823e-05
16990.0 4.0723e-05
17010.0 4.0625e-05
17030.0 4.053e-05
17050.0 4.0429e-05
17070.0 4.0329e-05
17090.0 4.0232e-05
17110.0 4.0133e-05
17130.0 4.0029e-05
17150.0 3.993e-05
17170.0 3.9832e-05
17190.0 3.9731e-05
17210.0 3.9629e-05
17230.0 3.9531e-05
17250.0 3.943e-05
17270.0 3.9325e-05
17290.0 3.9224e-05
17310.0 3.9124e-05
17330.0 3.902e-05
17350.0 3.8915e-05
17370.0 3.8815e-05
17390.0 3.8713e-05
17410.0 3.8607e-05
17430.0 3.8505e-05
17450.0 3.8404e-05
17470.0 3.8296e-05
17490.0 3.819e-05
17510.0 3.8088e-05
17530.0 3.7983e-05
17550.0 3.7876e-05
17570.0 3.7772e-05
17590.0 3.7669e-05
17610.0 3.7561e-05
17630.0 3.7454e-05
17650.0 3.735e-05
17670.0 3.7243e-05
17690.0 3.7132e-05
17710.0 3.7027e-05
17730.0 3.6922e-05
17750.0 3.6812e-05
17770.0 3.6704e-05
17790.0 3.66e-05
17810.0 3.649e-05
17830.0 3.6379e-05
17850.0 3.6272e-05
17870.0 3.6165e-05
17890.0 3.6052e-05
17910.0 3.5942e-05
17930.0 3.5836e-05
17950.0 3.5726e-05
17970.0 3.5614e-05
17990.0 3.5506e-05
18010.0 3.5398e-05
18030.0 3.5283e-05
18050.0 3.5172e-05
18070.0 3.5064e-05
18090.0 3.4952e-05
18110.0 3.4838e-05
18130.0 3.4729e-05
18150.0 3.4619e-05
18170.0 3.4505e-05
18190.0 3.4393e-05
18210.0 3.4284e-05
18230.0 3.4169e-05
18250.0 3.4054e-05
18270.0 3.3944e-05
18290.0 3.3832e-05
18310.0 3.3717e-05
18330.0 3.3605e-05
18350.0 3.3495e-05
18370.0 3.3379e-05
18390.0 3.3264e-05
18410.0 3.3153e-05
18430.0 3.304e-05
18450.0 3.2922e-05
18470.0 3.2809e-05
18490.0 3.2698e-05
18510.0 3.2582e-05
18530.0 3.2467e-05
18550.0 3.2356e-05
18570.0 3.2241e-05
18590.0 3.2123e-05
18610.0 3.201e-05
18630.0 3.1897e-05
18650.0 3.178e-05
18670.0 3.1663e-05
18690.0 3.1552e-05
18710.0 3.1437e-05
18730.0 3.132e-05
18750.0 3.1206e-05
18770.0 3.1094e-05
18790.0 3.0974e-05
18810.0 3.0858e-05
18830.0 3.0745e-05
18850.0 3.0629e-05
18870.0 3.0511e-05
18890.0 3.0398e-05
18910.0 3.0285e-05
18930.0 3.0167e-05
18950.0 3.005e-05
18970.0 2.9937e-05
18990.0 2.9821e-05
19010.0 2.9701e-05
19030.0 2.9588e-05
19050.0 2.9473e-05
19070.0 2.9356e-05
19090.0 2.924e-05
19110.0 2.9128e-05
19130.0 2.901e-05
19150.0 2.8892e-05
19170.0 2.8778e-05
19190.0 2.8663e-05
19210.0 2.8544e-05
19230.0 2.8428e-05
19250.0 2.8315e-05
19270.0 2.8199e-05
19290.0 2.8082e-05
19310.0 2.7968e-05
19330.0 2.7854e-05
19350.0 2.7734e-05
19370.0 2.7618e-05
19390.0 2.7505e-05
19410.0 2.7388e-05
19430.0 2.727e-05
19450.0 2.7158e-05
19470.0 2.7043e-05
19490.0 2.6925e-05
19510.0 2.681e-05
19530.0 2.6698e-05
19550.0 2.658e-05
19570.0 2.6462e-05
19590.0 2.6349e-05
19610.0 2.6234e-05
19630.0 2.6117e-05
19650.0 2.6003e-05
19670.0 2.5891e-05
19690.0 2.5773e-05
19710.0 2.5657e-05
19730.0 2.5544e-05
19750.0 2.543e-05
19770.0 2.5311e-05
19790.0 2.5197e-05
19810.0 2.5085e-05
19830.0 2.4968e-05
19850.0 2.4851e-05
19870.0 2.4736e-05
19890.0 2.4612e-05
19910.0 2.4476e-05
19930.0 2.4331e-05
19950.0 2.4165e-05
19970.0 2.3961e-05
19990.0 2.3714e-05
20010.0 2.1098e-05
20030.0 2.0793e-05
20050.0 2.0436e-05
20070.0 2.0049e-05
20090.0 1.9632e-05
20110.0 1.9161e-05
20130.0 1.8684e-05
20150.0 1.8211e-05
20170.0 1.7721e-05
20190.0 1.7224e-05
20210.0 1.6754e-05
20230.0 1.6296e-05
20250.0 1.5837e-05
20270.0 1.5411e-05
20290.0 1.5023e-05
20310.0 1.4653e-05
20330.0 1.4308e-05
20350.0 1.4021e-05
20370.0 1.3767e-05
20390.0 1.3543e-05
20410.0 1.3363e-05
20430.0 1.3224e-05
20450.0 1.3114e-05
20470.0 1.304e-05
20490.0 1.3001e-05
20510.0 1.2989e-05
20530.0 1.3005e-05
20550.0 1.3046e-05
20570.0 1.3104e-05
20590.0 1.3183e-05
20610.0 1.3279e-05
20630.0 1.3384e-05
20650.0 1.3502e-05
20670.0 1.3637e-05
20690.0 1.3775e-05
20710.0 1.3917e-05
20730.0 1.407e-05
20750.0 1.423e-05
20770.0 1.4388e-05
20790.0 1.4553e-05
20810.0 1.4728e-05
20830.0 1.4902e-05
20850.0 1.5077e-05
20870.0 1.5264e-05
20890.0 1.5455e-05
20910.0 1.5639e-05
20930.0 1.583e-05
20950.0 1.6028e-05
20970.0 1.6221e-05
20990.0 1.6412e-05
21010.0 1.6612e-05
21030.0 1.6808e-05
21050.0 1.6995e-05
21070.0 1.7181e-05
21090.0 1.7368e-05
21110.0 1.7539e-05
21130.0 1.7699e-05
21150.0 1.7854e-05
21170.0 1.7995e-05
21190.0 1.8116e-05
21210.0 1.8225e-05
21230.0 1.8315e-05
21250.0 1.838e-05
21270.0 1.8421e-05
21290.0 1.8436e-05
21310.0 1.8421e-05
21330.0 1.8378e-05
21350.0 1.8301e-05
21370.0 1.8189e-05
21390.0 1.8047e-05
21410.0 1.7873e-05
21430.0 1.7652e-05
21450.0 1.7404e-05
21470.0 1.7134e-05
21490.0 1.6828e-05
21510.0 1.6493e-05
21530.0 1.6153e-05
21550.0 1.5796e-05
21570.0 1.5416e-05
21590.0 1.5042e-05
21610.0 1.4681e-05
21630.0 1.4319e-05
21650.0 1.3965e-05
21670.0 1.3659e-05
21690.0 1.3377e-05
21710.0 1.3122e-05
21730.0 1.2914e-05
21750.0 1.2753e-05
21770.0 1.263e-05
21790.0 1.256e-05
21810.0 1.254e-05
21830.0 1.2568e-05
21850.0 1.2647e-05
21870.0 1.2769e-05
21890.0 1.2927e-05
21910.0 1.313e-05
21930.0 1.3369e-05
21950.0 1.3627e-05
21970.0 1.3912e-05
21990.0 1.4233e-05
22010.0 1.4554e-05
22030.0 1.4879e-05
22050.0 1.5221e-05
22070.0 1.5565e-05
22090.0 1.589e-05
22110.0 1.6218e-05
22130.0 1.6546e-05
22150.0 1.6852e-05
22170.0 1.714e-05
22190.0 1.7426e-05
22210.0 1.7692e-05
22230.0 1.7926e-05
22250.0 1.8147e-05
22270.0 1.835e-05
22290.0 1.8523e-05
22310.0 1.8672e-05
22330.0 1.8803e-05
22350.0 1.8904e-05
22370.0 1.8976e-05
22390.0 1.9021e-05
22410.0 1.9035e-05
22430.0 1.9017e-05
22450.0 1.8968e-05
22470.0 1.8883e-05
22490.0 1.8764e-05
22510.0 1.8616e-05
22530.0 1.8426e-05
22550.0 1.8196e-05
22570.0 1.794e-05
22590.0 1.7651e-05
22610.0 1.7319e-05
22630.0 1.696e-05
