#lamb flux
1010.0 6.7962e-06
1030.0 7.145e-06
1050.0 7.547e-06
1070.0 7.9998e-06
1090.0 8.5142e-06
1110.0 9.0424e-06
1130.0 9.5746e-06
1150.0 1.0133e-05
1170.0 1.0709e-05
1190.0 1.1257e-05
1210.0 1.1813e-05
1230.0 1.2388e-05
1250.0 1.2953e-05
1270.0 1.3503e-05
1290.0 1.4085e-05
1310.0 1.4667e-05
1330.0 1.5228e-05
1350.0 1.5796e-05
1370.0 1.6384e-05
1390.0 1.6959e-05
1410.0 1.7519e-05
1430.0 1.8105e-05
1450.0 1.8693e-05
1470.0 1.9264e-05
1490.0 1.9842e-05
1510.0 2.0454e-05
1530.0 2.1036e-05
1550.0 2.1612e-05
1570.0 2.2208e-05
1590.0 2.2807e-05
1610.0 2.338e-05
1630.0 2.3972e-05
1650.0 2.458e-05
1670.0 2.5169e-05
1690.0 2.5751e-05
1710.0 2.6355e-05
1730.0 2.6962e-05
1750.0 2.7533e-05
1770.0 2.8121e-05
1790.0 2.8719e-05
1810.0 2.9297e-05
1830.0 2.9865e-05
1850.0 3.0465e-05
1870.0 3.105e-05
1890.0 3.1613e-05
1910.0 3.2186e-05
1930.0 3.2773e-05
1950.0 3.3332e-05
1970.0 3.3884e-05
1990.0 3.4457e-05
2010.0 3.502e-05
2030.0 3.5565e-05
2050.0 3.6128e-05
2070.0 3.6709e-05
2090.0 3.726e-05
2110.0 3.7813e-05
2130.0 3.839e-05
2150.0 3.8962e-05
2170.0 3.9518e-05
2190.0 4.0104e-05
2210.0 4.0704e-05
2230.0 4.1294e-05
2250.0 4.1896e-05
2270.0 4.2537e-05
2290.0 4.3177e-05
2310.0 4.3812e-05
2330.0 4.4484e-05
2350.0 4.5181e-05
2370.0 4.5879e-05
2390.0 4.6606e-05
2410.0 4.7385e-05
2430.0 4.817e-05
2450.0 4.8958e-05
2470.0 4.9765e-05
2490.0 5.0561e-05
2510.0 5.1307e-05
2530.0 5.2072e-05
2550.0 5.298e-05
2570.0 5.4222e-05
2590.0 5.6076e-05
2610.0 5.9127e-05
2630.0 6.3744e-05
2650.0 6.9914e-05
2670.0 7.7879e-05
2690.0 8.7615e-05
2710.0 9.8105e-05
2730.0 0.00010876
2750.0 0.00011977
2770.0 0.00013031
2790.0 0.00014004
2810.0 0.00014946
2830.0 0.00015901
2850.0 0.00016811
2870.0 0.00017729
2890.0 0.00018696
2910.0 0.0001969
2930.0 0.00020679
2950.0 0.00021721
2970.0 0.00022807
2990.0 0.00023889
3010.0 0.00047537
3030.0 0.00049713
3050.0 0.00051908
3070.0 0.00053989
3090.0 0.00056021
3110.0 0.00057821
3130.0 0.00059111
3150.0 0.0005965
3170.0 0.00058977
3190.0 0.00056822
3210.0 0.00053146
3230.0 0.00048676
3250.0 0.0004873
3270.0 0.00036221
3290.0 0.00040666
3310.0 0.00029218
3330.0 0.00031442
3350.0 0.00035416
3370.0 0.00039602
3390.0 0.00043888
3410.0 0.00048155
3430.0 0.00052508
3450.0 0.00056832
3470.0 0.00060933
3490.0 0.00063907
3510.0 0.00069346
3530.0 0.00081057
3550.0 0.00092329
3570.0 0.0010348
3590.0 0.0012703
3610.0 0.0012346
3630.0 0.0013341
3650.0 0.0013101
3670.0 0.001425
3690.0 0.0015562
3710.0 0.0016466
3730.0 0.0018998
3750.0 0.0019794
3770.0 0.002005
3790.0 0.0019071
3810.0 0.0016816
3830.0 0.0015459
3850.0 0.0013593
3870.0 0.0014815
3890.0 0.0016857
3910.0 0.0019876
3930.0 0.0023062
3950.0 0.0025058
3970.0 0.0028509
3990.0 0.0029332
4010.0 0.0028518
4030.0 0.0028971
4050.0 0.0026587
4070.0 0.0025451
4090.0 0.0024776
4110.0 0.0023639
4130.0 0.0025507
4150.0 0.002459
4170.0 0.0024556
4190.0 0.0024077
4210.0 0.0025811
4230.0 0.0024743
4250.0 0.0026681
4270.0 0.0026609
4290.0 0.002673
4310.0 0.002853
4330.0 0.0030383
4350.0 0.0030602
4370.0 0.0029972
4390.0 0.0028549
4410.0 0.0025265
4430.0 0.0021043
4450.0 0.0019418
4470.0 0.0019994
4490.0 0.001998
4510.0 0.0022617
4530.0 0.002481
4550.0 0.0029277
4570.0 0.0037913
4590.0 0.0046348
4610.0 0.0050715
4630.0 0.0058179
4650.0 0.0063636
4670.0 0.0064072
4690.0 0.0058448
4710.0 0.0054283
4730.0 0.0048213
4750.0 0.0039536
4770.0 0.0033396
4790.0 0.0029759
4810.0 0.0032477
4830.0 0.0036077
4850.0 0.0040514
4870.0 0.0038706
4890.0 0.0044297
4910.0 0.004627
4930.0 0.0050475
4950.0 0.005918
4970.0 0.0062928
4990.0 0.0066287
5010.0 0.0061331
5030.0 0.0051482
5050.0 0.0041985
5070.0 0.0033333
5090.0 0.0030019
5110.0 0.002949
5130.0 0.0028998
5150.0 0.0030359
5170.0 0.0029355
5190.0 0.0030963
5210.0 0.0031581
5230.0 0.0034073
5250.0 0.0040056
5270.0 0.0043679
5290.0 0.0047603
5310.0 0.0053803
5330.0 0.0058453
5350.0 0.0060076
5370.0 0.0060399
5390.0 0.0059371
5410.0 0.0058511
5430.0 0.0059532
5450.0 0.0066954
5470.0 0.0078865
5490.0 0.0090545
5510.0 0.010157
5530.0 0.010465
5550.0 0.010408
5570.0 0.010183
5590.0 0.0099752
5610.0 0.0099086
5630.0 0.0099617
5650.0 0.010058
5670.0 0.0099738
5690.0 0.0093327
5710.0 0.0085666
5730.0 0.0076898
5750.0 0.0072295
5770.0 0.0068718
5790.0 0.0070482
5810.0 0.0074542
5830.0 0.0077513
5850.0 0.0075493
5870.0 0.0072088
5890.0 0.0071042
5910.0 0.0069314
5930.0 0.0068173
5950.0 0.0066818
5970.0 0.0064408
5990.0 0.0057154
6010.0 0.0049766
6030.0 0.0045468
6050.0 0.0043985
6070.0 0.0042955
6090.0 0.0042907
6110.0 0.0043786
6130.0 0.0044193
6150.0 0.0046838
6170.0 0.0051838
6190.0 0.0057112
6210.0 0.0059931
6230.0 0.0060744
6250.0 0.0055869
6270.0 0.0049343
6290.0 0.0042408
6310.0 0.0037073
6330.0 0.0034259
6350.0 0.0033285
6370.0 0.0034948
6390.0 0.0039182
6410.0 0.0046043
6430.0 0.0054947
6450.0 0.0062412
6470.0 0.0068063
6490.0 0.0072909
6510.0 0.0074905
6530.0 0.0074366
6550.0 0.0074714
6570.0 0.0075508
6590.0 0.0074565
6610.0 0.0075321
6630.0 0.0073957
6650.0 0.0071616
6670.0 0.0067472
6690.0 0.0061743
6710.0 0.0059266
6730.0 0.0056086
6750.0 0.0056064
6770.0 0.0057584
6790.0 0.0059584
6810.0 0.006066
6830.0 0.0059516
6850.0 0.0057086
6870.0 0.0055299
6890.0 0.0052693
6910.0 0.0050206
6930.0 0.0051463
6950.0 0.0052119
6970.0 0.0054226
6990.0 0.0056351
7010.0 0.0055861
7030.0 0.0052571
7050.0 0.0047044
7070.0 0.0041827
7090.0 0.0037056
7110.0 0.0034493
7130.0 0.003314
7150.0 0.0032259
7170.0 0.0033372
7190.0 0.0034107
7210.0 0.0035958
7230.0 0.0039899
7250.0 0.0042726
7270.0 0.0043746
7290.0 0.0043174
7310.0 0.0041204
7330.0 0.0038647
7350.0 0.0037318
7370.0 0.0037561
7390.0 0.0039527
7410.0 0.0043682
7430.0 0.0048756
7450.0 0.0055023
7470.0 0.0059776
7490.0 0.006208
7510.0 0.0059622
7530.0 0.0054524
7550.0 0.004753
7570.0 0.0040391
7590.0 0.0037348
7610.0 0.0037457
7630.0 0.0039907
7650.0 0.0045174
7670.0 0.0050299
7690.0 0.005492
7710.0 0.0059086
7730.0 0.0062381
7750.0 0.00651
7770.0 0.0066271
7790.0 0.0068321
7810.0 0.0069625
7830.0 0.0069229
7850.0 0.0069326
7870.0 0.0066735
7890.0 0.0064538
7910.0 0.0060733
7930.0 0.0059028
7950.0 0.0056726
7970.0 0.0057034
7990.0 0.0056381
8010.0 0.0055362
8030.0 0.0055338
8050.0 0.0056969
8070.0 0.0055765
8090.0 0.0055696
8110.0 0.005359
8130.0 0.0053212
8150.0 0.0051458
8170.0 0.004991
8190.0 0.0049147
8210.0 0.0049411
8230.0 0.0045696
8250.0 0.0042434
8270.0 0.0036961
8290.0 0.0029921
8310.0 0.0023725
8330.0 0.0018389
8350.0 0.0015996
8370.0 0.0017567
8390.0 0.0019698
8410.0 0.0021603
8430.0 0.0024521
8450.0 0.0025887
8470.0 0.0027068
8490.0 0.0030179
8510.0 0.0033335
8530.0 0.0038612
8550.0 0.0045395
8570.0 0.0051324
8590.0 0.0055996
8610.0 0.0060334
8630.0 0.0063938
8650.0 0.0064492
8670.0 0.0064645
8690.0 0.0066687
8710.0 0.0067239
8730.0 0.0067998
8750.0 0.006604
8770.0 0.0066053
8790.0 0.0064988
8810.0 0.0060321
8830.0 0.005902
8850.0 0.0055667
8870.0 0.0053269
8890.0 0.0050333
8910.0 0.005198
8930.0 0.0048574
8950.0 0.0046962
8970.0 0.004637
8990.0 0.0045083
9010.0 0.0044644
9030.0 0.004335
9050.0 0.0043097
9070.0 0.0042991
9090.0 0.0042885
9110.0 0.0042785
9130.0 0.004267
9150.0 0.0042549
9170.0 0.0042361
9190.0 0.0042081
9210.0 0.0042345
9230.0 0.0042124
9250.0 0.004195
9270.0 0.0041784
9290.0 0.0041624
9310.0 0.0041467
9330.0 0.0041312
9350.0 0.0041155
9370.0 0.0040998
9390.0 0.0040838
9410.0 0.0040676
9430.0 0.0040511
9450.0 0.0040333
9470.0 0.0040157
9490.0 0.0039997
9510.0 0.0039831
9530.0 0.0039661
9550.0 0.0039488
9570.0 0.0039313
9590.0 0.0039137
9610.0 0.003896
9630.0 0.0038781
9650.0 0.0038602
9670.0 0.0038422
9690.0 0.0038241
9710.0 0.003806
9730.0 0.0037878
9750.0 0.0037697
9770.0 0.0037515
9790.0 0.0037333
9810.0 0.0037151
9830.0 0.0036969
9850.0 0.0036788
9870.0 0.0036606
9890.0 0.0036425
9910.0 0.0036244
9930.0 0.0036061
9950.0 0.0035688
9970.0 0.0035566
9990.0 0.0035433
10010.0 0.0035296
10030.0 0.0035144
10050.0 0.0034976
10070.0 0.0034793
10090.0 0.0034633
10110.0 0.0034462
10130.0 0.0034296
10150.0 0.003413
10170.0 0.0033959
10190.0 0.003378
10210.0 0.0033612
10230.0 0.0033448
10250.0 0.0033277
10270.0 0.0033109
10290.0 0.0032949
10310.0 0.0032782
10330.0 0.0032611
10350.0 0.003245
10370.0 0.0032291
10390.0 0.0032125
10410.0 0.0031962
10430.0 0.0031809
10450.0 0.0031649
10470.0 0.0031486
10490.0 0.0031331
10510.0 0.0031178
10530.0 0.0031014
10550.0 0.0030856
10570.0 0.0030707
10590.0 0.0030552
10610.0 0.0030394
10630.0 0.0030245
10650.0 0.0030096
10670.0 0.0029937
10690.0 0.0029785
10710.0 0.0029638
10730.0 0.0029485
10750.0 0.0029326
10770.0 0.0029181
10790.0 0.0029034
10810.0 0.002888
10830.0 0.0028729
10850.0 0.0028586
10870.0 0.0028426
10890.0 0.0028262
10910.0 0.0028098
10930.0 0.0027916
10950.0 0.0027702
10970.0 0.0027463
10990.0 0.0027199
11010.0 0.0025158
11030.0 0.0024831
11050.0 0.0024492
11070.0 0.002413
11090.0 0.0023727
11110.0 0.0023341
11130.0 0.002296
11150.0 0.0022563
11170.0 0.0022169
11190.0 0.00218
11210.0 0.0021424
11230.0 0.0021041
11250.0 0.002068
11270.0 0.0020333
11290.0 0.001998
11310.0 0.0019638
11330.0 0.0019334
11350.0 0.0019035
11370.0 0.0018744
11390.0 0.001848
11410.0 0.0018236
11430.0 0.0017986
11450.0 0.0017752
11470.0 0.0017535
11490.0 0.0017314
11510.0 0.0017082
11530.0 0.0016859
11550.0 0.0016631
11570.0 0.0016378
11590.0 0.0016116
11610.0 0.001585
11630.0 0.0015556
11650.0 0.0015237
11670.0 0.0014923
11690.0 0.0014599
11710.0 0.0014253
11730.0 0.0013908
11750.0 0.0013579
11770.0 0.0013239
11790.0 0.0012901
11810.0 0.0012588
11830.0 0.0012289
11850.0 0.0011987
11870.0 0.0011714
11890.0 0.0011469
11910.0 0.0011231
11930.0 0.0011008
11950.0 0.0010811
11970.0 0.0010626
11990.0 0.0010444
12010.0 0.0010281
12030.0 0.0010132
12050.0 0.00099865
12070.0 0.00098454
12090.0 0.00097242
12110.0 0.00096081
12130.0 0.00094956
12150.0 0.00093961
12170.0 0.00093109
12190.0 0.00092294
12210.0 0.00091637
12230.0 0.00091181
12250.0 0.00090893
12270.0 0.00090797
12290.0 0.00090953
12310.0 0.00091356
12330.0 0.00092018
12350.0 0.00092961
12370.0 0.00094151
12390.0 0.00095603
12410.0 0.00097367
12430.0 0.0009928
12450.0 0.0010134
12470.0 0.001036
12490.0 0.0010594
12510.0 0.0010824
12530.0 0.0011059
12550.0 0.0011294
12570.0 0.0011514
12590.0 0.001172
12610.0 0.0011916
12630.0 0.0012094
12650.0 0.0012246
12670.0 0.0012382
12690.0 0.0012497
12710.0 0.001259
12730.0 0.0012662
12750.0 0.0012714
12770.0 0.0012746
12790.0 0.001276
12810.0 0.0012757
12830.0 0.0012734
12850.0 0.0012699
12870.0 0.0012652
12890.0 0.0012588
12910.0 0.0012514
12930.0 0.0012434
12950.0 0.001234
12970.0 0.0012233
12990.0 0.0012125
13010.0 0.001201
13030.0 0.0011881
13050.0 0.0011748
13070.0 0.0011615
13090.0 0.0011469
13110.0 0.0011316
13130.0 0.0011166
13150.0 0.0011015
13170.0 0.0010855
13190.0 0.0010707
13210.0 0.0010571
13230.0 0.0010441
13250.0 0.0010324
13270.0 0.0010231
13290.0 0.0010155
13310.0 0.0010098
13330.0 0.0010067
13350.0 0.0010057
13370.0 0.0010068
13390.0 0.0010096
13410.0 0.0010135
13430.0 0.0010182
13450.0 0.0010231
13470.0 0.0010275
13490.0 0.0010308
13510.0 0.0010327
13530.0 0.0010324
13550.0 0.00103
13570.0 0.0010252
13590.0 0.0010177
13610.0 0.0010082
13630.0 0.00099712
13650.0 0.00098382
13670.0 0.00096933
13690.0 0.00095457
13710.0 0.00093916
13730.0 0.00092294
13750.0 0.00090799
13770.0 0.00089371
13790.0 0.00087972
13810.0 0.0008667
13830.0 0.00085513
13850.0 0.00084408
13870.0 0.00083375
13890.0 0.00082461
13910.0 0.00081626
13930.0 0.00080828
13950.0 0.00080098
13970.0 0.00079454
13990.0 0.00078838
14010.0 0.00078257
14030.0 0.00077735
14050.0 0.00077252
14070.0 0.00076785
14090.0 0.00076365
14110.0 0.00075988
14130.0 0.00075634
14150.0 0.00075307
14170.0 0.00075019
14190.0 0.00074757
14210.0 0.00074518
14230.0 0.00074309
14250.0 0.00074132
14270.0 0.00073984
14290.0 0.00073871
14310.0 0.00073792
14330.0 0.00073747
14350.0 0.00073739
14370.0 0.0007376
14390.0 0.00073797
14410.0 0.0007386
14430.0 0.00073933
14450.0 0.00073998
14470.0 0.00074054
14490.0 0.00074104
14510.0 0.00074121
14530.0 0.00074108
14550.0 0.00074076
14570.0 0.00074022
14590.0 0.0007395
14610.0 0.00073877
14630.0 0.00073821
14650.0 0.00073786
14670.0 0.00073788
14690.0 0.00073857
14710.0 0.00074009
14730.0 0.00074225
14750.0 0.00074548
14770.0 0.00075001
14790.0 0.00075556
14810.0 0.00076207
14830.0 0.00077049
14850.0 0.00078002
14870.0 0.00079018
14890.0 0.00080141
14910.0 0.00081356
14930.0 0.00082517
14950.0 0.00083585
14970.0 0.00084584
14990.0 0.00085376
15010.0 0.00085912
15030.0 0.00086233
15050.0 0.00086345
15070.0 0.00086244
15090.0 0.00086012
15110.0 0.00085688
15130.0 0.00085305
15150.0 0.00084892
15170.0 0.0008446
15190.0 0.00084018
15210.0 0.00083575
15230.0 0.00083131
15250.0 0.00082683
15270.0 0.00082235
15290.0 0.00081792
15310.0 0.00081346
15330.0 0.00080898
15350.0 0.00080454
15370.0 0.0008001
15390.0 0.00079561
15410.0 0.00079116
15430.0 0.00078673
15450.0 0.00078229
15470.0 0.00077784
15490.0 0.00077344
15510.0 0.00076904
15530.0 0.00076462
15550.0 0.00076023
15570.0 0.00075587
15590.0 0.00075148
15610.0 0.0007471
15630.0 0.00074277
15650.0 0.00073845
15670.0 0.00073412
15690.0 0.00072982
15710.0 0.00072556
15730.0 0.00072128
15750.0 0.00071701
15770.0 0.00071279
15790.0 0.00070859
15810.0 0.00070436
15830.0 0.00070018
15850.0 0.00069604
15870.0 0.00069189
15890.0 0.00068776
15910.0 0.00068368
15930.0 0.00067961
15950.0 0.00067553
15970.0 0.0006715
15990.0 0.0006675
16010.0 0.0006635
16030.0 0.00065951
16050.0 0.00065559
16070.0 0.00065167
16090.0 0.00064776
16110.0 0.0006439
16130.0 0.00064007
16150.0 0.00063622
16170.0 0.00063241
16190.0 0.00062865
16210.0 0.0006249
16230.0 0.00062116
16250.0 0.00061747
16270.0 0.00061382
16290.0 0.00061016
16310.0 0.00060653
16330.0 0.00060295
16350.0 0.00059938
16370.0 0.00059581
16390.0 0.00059231
16410.0 0.00058883
16430.0 0.00058536
16450.0 0.00058192
16470.0 0.00057853
16490.0 0.00057514
16510.0 0.00057177
16530.0 0.00056845
16550.0 0.00056516
16570.0 0.00056187
16590.0 0.00055861
16610.0 0.00055541
16630.0 0.00055221
16650.0 0.00054904
16670.0 0.00054591
16690.0 0.00054281
16710.0 0.0005397
16730.0 0.00053663
16750.0 0.00053362
16770.0 0.0005306
16790.0 0.00052761
16810.0 0.00052467
16830.0 0.00052175
16850.0 0.00051884
16870.0 0.00051596
16890.0 0.00051313
16910.0 0.0005103
16930.0 0.00050748
16950.0 0.00050473
16970.0 0.00050199
16990.0 0.00049925
17010.0 0.00049656
17030.0 0.00049391
17050.0 0.00049126
17070.0 0.00048863
17090.0 0.00048605
17110.0 0.00048349
17130.0 0.00048092
17150.0 0.00047841
17170.0 0.00047593
17190.0 0.00047345
17210.0 0.000471
17230.0 0.00046859
17250.0 0.0004662
17270.0 0.00046381
17290.0 0.00046146
17310.0 0.00045914
17330.0 0.00045683
17350.0 0.00045454
17370.0 0.0004523
17390.0 0.00045006
17410.0 0.00044784
17430.0 0.00044566
17450.0 0.00044351
17470.0 0.00044134
17490.0 0.00043921
17510.0 0.00043712
17530.0 0.00043504
17550.0 0.00043297
17570.0 0.00043094
17590.0 0.00042893
17610.0 0.00042693
17630.0 0.00042495
17650.0 0.00042301
17670.0 0.00042107
17690.0 0.00041913
17710.0 0.00041725
17730.0 0.00041539
17750.0 0.00041352
17770.0 0.00041169
17790.0 0.00040989
17810.0 0.00040808
17830.0 0.00040629
17850.0 0.00040454
17870.0 0.00040281
17890.0 0.00040107
17910.0 0.00039936
17930.0 0.0003977
17950.0 0.00039602
17970.0 0.00039437
17990.0 0.00039275
18010.0 0.00039114
18030.0 0.00038952
18050.0 0.00038794
18070.0 0.00038639
18090.0 0.00038483
18110.0 0.00038329
18130.0 0.00038179
18150.0 0.0003803
18170.0 0.00037881
18190.0 0.00037734
18210.0 0.0003759
18230.0 0.00037446
18250.0 0.00037302
18270.0 0.00037163
18290.0 0.00037024
18310.0 0.00036886
18330.0 0.0003675
18350.0 0.00036617
18370.0 0.00036483
18390.0 0.00036351
18410.0 0.00036221
18430.0 0.00036092
18450.0 0.00035963
18470.0 0.00035837
18490.0 0.00035714
18510.0 0.0003559
18530.0 0.00035467
18550.0 0.00035347
18570.0 0.00035228
18590.0 0.00035108
18610.0 0.00034991
18630.0 0.00034876
18650.0 0.0003476
18670.0 0.00034646
18690.0 0.00034535
18710.0 0.00034424
18730.0 0.00034314
18750.0 0.00034205
18770.0 0.00034099
18790.0 0.00033991
18810.0 0.00033885
18830.0 0.00033782
18850.0 0.00033678
18870.0 0.00033575
18890.0 0.00033475
18910.0 0.00033376
18930.0 0.00033276
18950.0 0.00033178
18970.0 0.00033082
18990.0 0.00032986
19010.0 0.00032888
19030.0 0.00032796
19050.0 0.00032703
19070.0 0.0003261
19090.0 0.00032519
19110.0 0.0003243
19130.0 0.0003234
19150.0 0.00032251
19170.0 0.00032164
19190.0 0.00032077
19210.0 0.0003199
19230.0 0.00031905
19250.0 0.00031822
19270.0 0.00031738
19290.0 0.00031655
19310.0 0.00031574
19330.0 0.00031494
19350.0 0.00031412
19370.0 0.00031333
19390.0 0.00031255
19410.0 0.00031176
19430.0 0.00031098
19450.0 0.00031023
19470.0 0.00030948
19490.0 0.00030872
19510.0 0.00030798
19530.0 0.00030725
19550.0 0.00030651
19570.0 0.00030578
19590.0 0.00030507
19610.0 0.00030436
19630.0 0.00030365
19650.0 0.00030296
19670.0 0.00030228
19690.0 0.00030158
19710.0 0.0003009
19730.0 0.00030024
19750.0 0.00029957
19770.0 0.00029889
19790.0 0.00029824
19810.0 0.0002976
19830.0 0.00029694
19850.0 0.00029628
19870.0 0.00029562
19890.0 0.00029489
19910.0 0.00029406
19930.0 0.00029309
19950.0 0.0002919
19970.0 0.00029033
19990.0 0.00028832
20010.0 0.00028593
20030.0 0.00028295
20050.0 0.00027941
20070.0 0.00027553
20090.0 0.00027135
20110.0 0.00026663
20130.0 0.00026188
20150.0 0.00025719
20170.0 0.00025235
20190.0 0.00024745
20210.0 0.00024283
20230.0 0.00023832
20250.0 0.00023378
20270.0 0.00022954
20290.0 0.00022562
20310.0 0.00022185
20330.0 0.00021826
20350.0 0.00021521
20370.0 0.00021244
20390.0 0.00020994
20410.0 0.00020785
20430.0 0.00020616
20450.0 0.00020474
20470.0 0.0002037
20490.0 0.00020302
20510.0 0.00020266
20530.0 0.00020261
20550.0 0.00020285
20570.0 0.00020332
20590.0 0.00020402
20610.0 0.00020493
20630.0 0.00020595
20650.0 0.0002071
20670.0 0.0002084
20690.0 0.00020968
20710.0 0.00021095
20730.0 0.00021224
20750.0 0.00021347
20770.0 0.00021456
20790.0 0.00021557
20810.0 0.00021645
20830.0 0.00021716
20850.0 0.00021768
20870.0 0.00021804
20890.0 0.00021819
20910.0 0.00021814
20930.0 0.0002179
20950.0 0.00021745
20970.0 0.00021684
20990.0 0.00021607
21010.0 0.0002151
21030.0 0.000214
21050.0 0.00021281
21070.0 0.00021149
21090.0 0.00021004
21110.0 0.00020859
21130.0 0.00020712
21150.0 0.00020558
21170.0 0.00020406
21190.0 0.00020262
21210.0 0.00020116
21230.0 0.00019975
21250.0 0.00019848
21270.0 0.00019731
21290.0 0.00019622
21310.0 0.00019528
21330.0 0.00019452
21350.0 0.00019388
21370.0 0.0001934
21390.0 0.00019309
21410.0 0.00019294
21430.0 0.00019296
21450.0 0.00019314
21470.0 0.00019346
21490.0 0.00019394
21510.0 0.00019458
21530.0 0.00019531
21550.0 0.00019616
21570.0 0.00019716
21590.0 0.00019824
21610.0 0.00019938
21630.0 0.00020064
21650.0 0.000202
21670.0 0.00020334
21690.0 0.00020475
21710.0 0.00020625
21730.0 0.00020776
21750.0 0.00020925
21770.0 0.00021085
21790.0 0.00021246
21810.0 0.00021402
21830.0 0.0002156
21850.0 0.00021723
21870.0 0.00021881
21890.0 0.00022032
21910.0 0.00022187
21930.0 0.00022338
21950.0 0.00022479
21970.0 0.00022617
21990.0 0.00022754
22010.0 0.00022877
22030.0 0.00022988
22050.0 0.00023093
22070.0 0.00023186
22090.0 0.00023261
22110.0 0.00023324
22130.0 0.00023372
22150.0 0.00023402
22170.0 0.00023413
22190.0 0.00023405
22210.0 0.00023376
22230.0 0.00023328
22250.0 0.00023258
22270.0 0.00023166
22290.0 0.00023055
22310.0 0.00022927
22330.0 0.00022771
22350.0 0.00022598
22370.0 0.00022413
22390.0 0.00022207
22410.0 0.00021978
22430.0 0.00021747
22450.0 0.00021505
22470.0 0.00021244
22490.0 0.00020978
22510.0 0.00020714
22530.0 0.00020436
22550.0 0.00020149
22570.0 0.00019875
22590.0 0.00019602
22610.0 0.00019323
22630.0 0.00019053
22650.0 0.00018801
22670.0 0.00018547
22690.0 0.000183
22710.0 0.00018071
22730.0 0.00017853
22750.0 0.00017634
22770.0 0.00017435
22790.0 0.00017253
22810.0 0.00017076
22830.0 0.00016909
22850.0 0.00016759
22870.0 0.00016617
22890.0 0.00016479
22910.0 0.00016353
22930.0 0.00016239
22950.0 0.00016128
22970.0 0.00016021
22990.0 0.00015929
23010.0 0.0001584
23030.0 0.00015755
23050.0 0.00015677
23070.0 0.00015607
23090.0 0.00015536
23110.0 0.00015471
23130.0 0.00015412
