#lamb flux
1010.0 1.669e-05
1030.0 1.8696e-05
1050.0 2.0688e-05
1070.0 2.2938e-05
1090.0 2.5597e-05
1110.0 2.8321e-05
1130.0 3.1071e-05
1150.0 3.3968e-05
1170.0 3.6985e-05
1190.0 3.9903e-05
1210.0 4.2926e-05
1230.0 4.6128e-05
1250.0 4.935e-05
1270.0 5.2603e-05
1290.0 5.6144e-05
1310.0 5.9819e-05
1330.0 6.3502e-05
1350.0 6.7347e-05
1370.0 7.1411e-05
1390.0 7.5502e-05
1410.0 7.9585e-05
1430.0 8.3876e-05
1450.0 8.8216e-05
1470.0 9.2469e-05
1490.0 9.6758e-05
1510.0 0.00010122
1530.0 0.00010545
1550.0 0.00010958
1570.0 0.00011375
1590.0 0.00011782
1610.0 0.00012161
1630.0 0.00012534
1650.0 0.00012901
1670.0 0.0001324
1690.0 0.00013557
1710.0 0.00013869
1730.0 0.00014164
1750.0 0.00014419
1770.0 0.00014666
1790.0 0.00014901
1810.0 0.00015108
1830.0 0.00015295
1850.0 0.00015488
1870.0 0.00015661
1890.0 0.00015814
1910.0 0.00015966
1930.0 0.00016121
1950.0 0.00016258
1970.0 0.00016391
1990.0 0.00016535
2010.0 0.00016675
2030.0 0.00016804
2050.0 0.00016942
2070.0 0.00017087
2090.0 0.00017211
2110.0 0.00017329
2130.0 0.00017449
2150.0 0.00017553
2170.0 0.00017632
2190.0 0.00017706
2210.0 0.00017763
2230.0 0.00017789
2250.0 0.00017791
2270.0 0.00017781
2290.0 0.00017738
2310.0 0.00017659
2330.0 0.00017561
2350.0 0.00017439
2370.0 0.00017281
2390.0 0.00017098
2410.0 0.00016898
2430.0 0.00016662
2450.0 0.0001639
2470.0 0.0001609
2490.0 0.00015759
2510.0 0.00015399
2530.0 0.00015047
2550.0 0.00014756
2570.0 0.00014594
2590.0 0.00014632
2610.0 0.00015024
2630.0 0.00015816
2650.0 0.00016933
2670.0 0.00018376
2690.0 0.00020055
2710.0 0.00021634
2730.0 0.00022919
2750.0 0.00023856
2770.0 0.00024182
2790.0 0.00023826
2810.0 0.00022828
2830.0 0.00021162
2850.0 0.00019014
2870.0 0.00016502
2890.0 0.00013641
2910.0 0.00010578
2930.0 7.4823e-05
2950.0 4.2165e-05
2970.0 1.1459e-05
2990.0 1.1459e-05
3010.0 2.3268e-05
3030.0 2.3268e-05
3050.0 2.3268e-05
3070.0 2.3268e-05
3090.0 2.3268e-05
3110.0 2.3268e-05
3130.0 2.3268e-05
3150.0 2.3268e-05
3170.0 2.3268e-05
3190.0 2.3268e-05
3210.0 2.3268e-05
3230.0 0.0009459
3250.0 0.001685
3270.0 0.0015806
3290.0 0.0014754
3310.0 0.0011215
3330.0 0.0010885
3350.0 0.0012021
3370.0 0.0013715
3390.0 0.0015581
3410.0 0.0017582
3430.0 0.0020219
3450.0 0.00228
3470.0 0.0025474
3490.0 0.0026454
3510.0 0.0024028
3530.0 0.002311
3550.0 0.002557
3570.0 0.0027459
3590.0 0.0029759
3610.0 0.0029056
3630.0 0.0035201
3650.0 0.0038431
3670.0 0.0040587
3690.0 0.0040326
3710.0 0.0036508
3730.0 0.0036052
3750.0 0.0034246
3770.0 0.0033076
3790.0 0.003115
3810.0 0.0029627
3830.0 0.0030573
3850.0 0.00162
3870.0 0.0021733
3890.0 0.0025196
3910.0 0.0030975
3930.0 0.0039757
3950.0 0.0043098
3970.0 0.0048145
3990.0 0.0057674
4010.0 0.0048902
4030.0 0.0042073
4050.0 0.0030383
4070.0 0.0028634
4090.0 0.0042203
4110.0 0.0042205
4130.0 0.0045939
4150.0 0.0044028
4170.0 0.0041691
4190.0 0.0037839
4210.0 0.005098
4230.0 0.0053836
4250.0 0.0058674
4270.0 0.005586
4290.0 0.0055069
4310.0 0.0059819
4330.0 0.0070259
4350.0 0.0073334
4370.0 0.0072895
4390.0 0.006651
4410.0 0.0061363
4430.0 0.0047836
4450.0 0.0038951
4470.0 0.0042058
4490.0 0.0049315
4510.0 0.0051337
4530.0 0.0051744
4550.0 0.0052346
4570.0 0.0074584
4590.0 0.011164
4610.0 0.013117
4630.0 0.013287
4650.0 0.014328
4670.0 0.016706
4690.0 0.018108
4710.0 0.015096
4730.0 0.011515
4750.0 0.0090198
4770.0 0.007777
4790.0 0.0071137
4810.0 0.006744
4830.0 0.007475
4850.0 0.0088328
4870.0 0.0096855
4890.0 0.010116
4910.0 0.0095273
4930.0 0.010301
4950.0 0.012572
4970.0 0.014646
4990.0 0.015189
5010.0 0.013987
5030.0 0.011616
5050.0 0.008947
5070.0 0.0071358
5090.0 0.0064445
5110.0 0.0063436
5130.0 0.0064607
5150.0 0.006415
5170.0 0.0060324
5190.0 0.0056592
5210.0 0.0055568
5230.0 0.0062909
5250.0 0.0074915
5270.0 0.0089513
5290.0 0.010198
5310.0 0.010902
5330.0 0.012015
5350.0 0.013328
5370.0 0.013804
5390.0 0.012505
5410.0 0.011109
5430.0 0.010874
5450.0 0.012673
5470.0 0.015631
5490.0 0.018167
5510.0 0.019302
5530.0 0.019031
5550.0 0.018195
5570.0 0.017608
5590.0 0.016979
5610.0 0.016691
5630.0 0.01664
5650.0 0.016708
5670.0 0.016417
5690.0 0.014905
5710.0 0.012605
5730.0 0.011302
5750.0 0.01086
5770.0 0.011132
5790.0 0.011504
5810.0 0.011936
5830.0 0.012132
5850.0 0.011596
5870.0 0.010966
5890.0 0.010701
5910.0 0.011091
5930.0 0.011547
5950.0 0.010878
5970.0 0.0096055
5990.0 0.007945
6010.0 0.0064424
6030.0 0.0059483
6050.0 0.0064421
6070.0 0.0068481
6090.0 0.0065286
6110.0 0.0057623
6130.0 0.0058966
6150.0 0.0068604
6170.0 0.0078871
6190.0 0.0086576
6210.0 0.0087823
6230.0 0.0086442
6250.0 0.0078939
6270.0 0.0065982
6290.0 0.0054475
6310.0 0.0048347
6330.0 0.0047235
6350.0 0.0048083
6370.0 0.0048736
6390.0 0.0054812
6410.0 0.0068368
6430.0 0.0084375
6450.0 0.0094664
6470.0 0.0097592
6490.0 0.0096925
6510.0 0.0098931
6530.0 0.010196
6550.0 0.010146
6570.0 0.010529
6590.0 0.010795
6610.0 0.010979
6630.0 0.010795
6650.0 0.010081
6670.0 0.0091982
6690.0 0.0083643
6710.0 0.0079161
6730.0 0.0078189
6750.0 0.0079605
6770.0 0.0081787
6790.0 0.0084443
6810.0 0.0086236
6830.0 0.0084591
6850.0 0.0080504
6870.0 0.0075419
6890.0 0.0073723
6910.0 0.0071502
6930.0 0.0074
6950.0 0.0078408
6970.0 0.0080483
6990.0 0.0081976
7010.0 0.0079631
7030.0 0.0073223
7050.0 0.0064787
7070.0 0.005781
7090.0 0.0054098
7110.0 0.0053629
7130.0 0.0052341
7150.0 0.0046783
7170.0 0.0044387
7190.0 0.0048561
7210.0 0.0056154
7230.0 0.0064753
7250.0 0.0068546
7270.0 0.0067754
7290.0 0.0062491
7310.0 0.0057684
7330.0 0.0055353
7350.0 0.0055508
7370.0 0.0056556
7390.0 0.0059244
7410.0 0.0065643
7430.0 0.0075863
7450.0 0.0085651
7470.0 0.0090343
7490.0 0.0088238
7510.0 0.008225
7530.0 0.0071628
7550.0 0.0065184
7570.0 0.0058278
7590.0 0.0054923
7610.0 0.0056419
7630.0 0.0061045
7650.0 0.0067564
7670.0 0.0074168
7690.0 0.007884
7710.0 0.0083725
7730.0 0.0088752
7750.0 0.0093005
7770.0 0.0092221
7790.0 0.0092812
7810.0 0.0094438
7830.0 0.0094051
7850.0 0.0090994
7870.0 0.0088118
7890.0 0.0088636
7910.0 0.0086232
7930.0 0.008495
7950.0 0.0080537
7970.0 0.0078284
7990.0 0.0075469
8010.0 0.0076574
8030.0 0.0077192
8050.0 0.0077733
8070.0 0.0076866
8090.0 0.0076383
8110.0 0.0073684
8130.0 0.0073591
8150.0 0.0072667
8170.0 0.0070832
8190.0 0.006935
8210.0 0.0069087
8230.0 0.0067407
8250.0 0.0066048
8270.0 0.0059877
8290.0 0.0048955
8310.0 0.0036844
8330.0 0.0028507
8350.0 0.0026689
8370.0 0.003186
8390.0 0.0038669
8410.0 0.004182
8430.0 0.0042947
8450.0 0.0045201
8470.0 0.0048469
8490.0 0.0054342
8510.0 0.0062068
8530.0 0.0071333
8550.0 0.008002
8570.0 0.0087204
8590.0 0.0092736
8610.0 0.0095922
8630.0 0.009616
8650.0 0.0095287
8670.0 0.0095356
8690.0 0.010021
8710.0 0.010667
8730.0 0.011102
8750.0 0.011068
8770.0 0.011227
8790.0 0.011191
8810.0 0.010517
8830.0 0.0099145
8850.0 0.0091103
8870.0 0.0084612
8890.0 0.0082515
8910.0 0.0082694
8930.0 0.0078183
8950.0 0.007303
8970.0 0.0070917
8990.0 0.0070364
9010.0 0.0067701
9030.0 0.0066181
9050.0 0.0065621
9070.0 0.0065363
9090.0 0.0065141
9110.0 0.0064927
9130.0 0.0064711
9150.0 0.00645
9170.0 0.0064261
9190.0 0.0064086
9210.0 0.0064165
9230.0 0.006384
9250.0 0.0063571
9270.0 0.0063333
9290.0 0.0063116
9310.0 0.0062906
9330.0 0.0062704
9350.0 0.0062517
9370.0 0.0062331
9390.0 0.0062141
9410.0 0.0061959
9430.0 0.0061771
9450.0 0.0061505
9470.0 0.0061266
9490.0 0.0061168
9510.0 0.0061029
9530.0 0.0060879
9550.0 0.0060723
9570.0 0.0060563
9590.0 0.0060398
9610.0 0.0060234
9630.0 0.006007
9650.0 0.0059906
9670.0 0.0059742
9690.0 0.005958
9710.0 0.0059418
9730.0 0.0059256
9750.0 0.0059095
9770.0 0.0058935
9790.0 0.0058775
9810.0 0.0058614
9830.0 0.0058454
9850.0 0.0058294
9870.0 0.0058132
9890.0 0.005797
9910.0 0.0057807
9930.0 0.0057637
9950.0 0.0057026
9970.0 0.0056993
9990.0 0.0056933
10010.0 0.0056857
10030.0 0.0056744
10050.0 0.0056598
10070.0 0.0056446
10090.0 0.0056294
10110.0 0.005611
10130.0 0.0055934
10150.0 0.0055761
10170.0 0.0055574
10190.0 0.0055368
10210.0 0.0055181
10230.0 0.0054997
10250.0 0.0054792
10270.0 0.0054587
10290.0 0.0054396
10310.0 0.0054184
10330.0 0.0053955
10350.0 0.0053743
10370.0 0.0053529
10390.0 0.0053294
10410.0 0.0053057
10430.0 0.0052838
10450.0 0.0052596
10470.0 0.005234
10490.0 0.0052096
10510.0 0.005185
10530.0 0.0051569
10550.0 0.0051296
10570.0 0.0051036
10590.0 0.0050755
10610.0 0.0050459
10630.0 0.0050179
10650.0 0.004989
10670.0 0.0049572
10690.0 0.0049259
10710.0 0.0048954
10730.0 0.0048626
10750.0 0.0048275
10770.0 0.0047952
10790.0 0.0047615
10810.0 0.0047254
10830.0 0.0046896
10850.0 0.004655
10870.0 0.0046162
10890.0 0.0045766
10910.0 0.0045382
10930.0 0.0044979
10950.0 0.0044541
10970.0 0.0044097
10990.0 0.0043658
11010.0 0.0046067
11030.0 0.0045536
11050.0 0.004502
11070.0 0.0044493
11090.0 0.0043932
11110.0 0.0043415
11130.0 0.0042918
11150.0 0.0042411
11170.0 0.0041914
11190.0 0.0041453
11210.0 0.0040984
11230.0 0.0040506
11250.0 0.0040051
11270.0 0.0039607
11290.0 0.0039144
11310.0 0.0038681
11330.0 0.003825
11350.0 0.0037804
11370.0 0.0037342
11390.0 0.003689
11410.0 0.0036435
11430.0 0.0035936
11450.0 0.0035428
11470.0 0.0034915
11490.0 0.0034364
11510.0 0.0033766
11530.0 0.0033167
11550.0 0.0032547
11570.0 0.0031875
11590.0 0.0031188
11610.0 0.0030506
11630.0 0.0029785
11650.0 0.0029037
11670.0 0.0028321
11690.0 0.0027609
11710.0 0.0026881
11730.0 0.0026174
11750.0 0.002551
11770.0 0.002484
11790.0 0.0024184
11810.0 0.002357
11830.0 0.002298
11850.0 0.0022384
11870.0 0.0021827
11890.0 0.0021308
11910.0 0.0020794
11930.0 0.0020293
11950.0 0.0019829
11970.0 0.0019378
11990.0 0.0018927
12010.0 0.0018506
12030.0 0.0018111
12050.0 0.0017723
12070.0 0.0017351
12090.0 0.0017021
12110.0 0.0016709
12130.0 0.0016417
12150.0 0.001616
12170.0 0.0015938
12190.0 0.0015737
12210.0 0.0015574
12230.0 0.0015449
12250.0 0.0015358
12270.0 0.0015302
12290.0 0.0015281
12310.0 0.0015292
12330.0 0.0015339
12350.0 0.0015418
12370.0 0.0015521
12390.0 0.0015652
12410.0 0.0015821
12430.0 0.0016001
12450.0 0.0016196
12470.0 0.0016415
12490.0 0.0016647
12510.0 0.0016873
12530.0 0.001711
12550.0 0.0017353
12570.0 0.0017577
12590.0 0.0017783
12610.0 0.0017981
12630.0 0.001815
12650.0 0.0018275
12670.0 0.001837
12690.0 0.0018427
12710.0 0.0018438
12730.0 0.0018406
12750.0 0.0018332
12770.0 0.0018213
12790.0 0.0018058
12810.0 0.0017867
12830.0 0.001764
12850.0 0.0017397
12870.0 0.0017138
12890.0 0.0016858
12910.0 0.0016575
12930.0 0.0016297
12950.0 0.0016013
12970.0 0.001573
12990.0 0.0015466
13010.0 0.0015211
13030.0 0.001496
13050.0 0.0014721
13070.0 0.0014498
13090.0 0.0014276
13110.0 0.0014059
13130.0 0.0013853
13150.0 0.0013651
13170.0 0.0013445
13190.0 0.0013247
13210.0 0.0013056
13230.0 0.0012865
13250.0 0.0012677
13270.0 0.00125
13290.0 0.0012331
13310.0 0.0012166
13330.0 0.0012018
13350.0 0.0011887
13370.0 0.0011769
13390.0 0.0011669
13410.0 0.0011589
13430.0 0.0011524
13450.0 0.0011473
13470.0 0.0011434
13490.0 0.0011403
13510.0 0.0011376
13530.0 0.0011347
13550.0 0.0011313
13570.0 0.001127
13590.0 0.0011214
13610.0 0.0011144
13630.0 0.0011059
13650.0 0.0010957
13670.0 0.001084
13690.0 0.0010714
13710.0 0.0010577
13730.0 0.0010427
13750.0 0.0010282
13770.0 0.0010138
13790.0 0.00099941
13810.0 0.00098576
13830.0 0.00097346
13850.0 0.00096181
13870.0 0.00095113
13890.0 0.00094189
13910.0 0.00093377
13930.0 0.00092641
13950.0 0.00092001
13970.0 0.00091456
13990.0 0.00090951
14010.0 0.0009048
14030.0 0.00090039
14050.0 0.00089605
14070.0 0.00089139
14090.0 0.00088655
14110.0 0.00088144
14130.0 0.00087577
14150.0 0.00086942
14170.0 0.00086279
14190.0 0.00085569
14210.0 0.00084789
14230.0 0.00083984
14250.0 0.00083182
14270.0 0.00082342
14290.0 0.00081502
14310.0 0.00080729
14330.0 0.00079999
14350.0 0.00079311
14370.0 0.00078713
14390.0 0.00078214
14410.0 0.00077783
14430.0 0.00077444
14450.0 0.00077201
14470.0 0.00077034
14490.0 0.00076936
14510.0 0.00076907
14530.0 0.00076931
14550.0 0.00077005
14570.0 0.00077128
14590.0 0.00077292
14610.0 0.00077508
14630.0 0.00077792
14650.0 0.00078133
14670.0 0.00078541
14690.0 0.00079045
14710.0 0.0007965
14730.0 0.00080315
14750.0 0.0008109
14770.0 0.00081991
14790.0 0.00082978
14810.0 0.00084049
14830.0 0.00085309
14850.0 0.00086681
14870.0 0.00088125
14890.0 0.00089705
14910.0 0.00091417
14930.0 0.00093117
14950.0 0.00094764
14970.0 0.00096384
14990.0 0.00097821
15010.0 0.00099005
15030.0 0.00099973
15050.0 0.0010073
15070.0 0.0010124
15090.0 0.0010161
15110.0 0.0010188
15130.0 0.0010209
15150.0 0.0010226
15170.0 0.0010241
15190.0 0.0010256
15210.0 0.0010271
15230.0 0.0010287
15250.0 0.0010302
15270.0 0.0010318
15290.0 0.0010334
15310.0 0.001035
15330.0 0.0010367
15350.0 0.0010384
15370.0 0.0010402
15390.0 0.0010419
15410.0 0.0010437
15430.0 0.0010456
15450.0 0.0010474
15470.0 0.0010493
15490.0 0.0010512
15510.0 0.0010531
15530.0 0.0010551
15550.0 0.0010571
15570.0 0.0010591
15590.0 0.0010611
15610.0 0.0010631
15630.0 0.0010652
15650.0 0.0010673
15670.0 0.0010694
15690.0 0.0010715
15710.0 0.0010737
15730.0 0.0010758
15750.0 0.001078
15770.0 0.0010802
15790.0 0.0010824
15810.0 0.0010846
15830.0 0.0010868
15850.0 0.001089
15870.0 0.0010913
15890.0 0.0010935
15910.0 0.0010958
15930.0 0.0010981
15950.0 0.0011003
15970.0 0.0011026
15990.0 0.0011049
16010.0 0.0011072
16030.0 0.0011094
16050.0 0.0011117
16070.0 0.001114
16090.0 0.0011163
16110.0 0.0011186
16130.0 0.0011209
16150.0 0.0011231
16170.0 0.0011254
16190.0 0.0011276
16210.0 0.0011299
16230.0 0.0011321
16250.0 0.0011344
16270.0 0.0011366
16290.0 0.0011388
16310.0 0.001141
16330.0 0.0011432
16350.0 0.0011453
16370.0 0.0011475
16390.0 0.0011496
16410.0 0.0011517
16430.0 0.0011538
16450.0 0.0011559
16470.0 0.0011579
16490.0 0.0011599
16510.0 0.0011619
16530.0 0.0011639
16550.0 0.0011659
16570.0 0.0011678
16590.0 0.0011696
16610.0 0.0011715
16630.0 0.0011733
16650.0 0.0011751
16670.0 0.0011769
16690.0 0.0011786
16710.0 0.0011803
16730.0 0.0011819
16750.0 0.0011836
16770.0 0.0011851
16790.0 0.0011866
16810.0 0.0011881
16830.0 0.0011896
16850.0 0.001191
16870.0 0.0011923
16890.0 0.0011937
16910.0 0.0011949
16930.0 0.0011961
16950.0 0.0011973
16970.0 0.0011984
16990.0 0.0011995
17010.0 0.0012005
17030.0 0.0012015
17050.0 0.0012024
17070.0 0.0012032
17090.0 0.001204
17110.0 0.0012048
17130.0 0.0012055
17150.0 0.0012061
17170.0 0.0012067
17190.0 0.0012072
17210.0 0.0012076
17230.0 0.001208
17250.0 0.0012084
17270.0 0.0012086
17290.0 0.0012088
17310.0 0.001209
17330.0 0.0012091
17350.0 0.0012091
17370.0 0.001209
17390.0 0.0012089
17410.0 0.0012087
17430.0 0.0012085
17450.0 0.0012082
17470.0 0.0012078
17490.0 0.0012074
17510.0 0.0012069
17530.0 0.0012063
17550.0 0.0012056
17570.0 0.0012049
17590.0 0.0012042
17610.0 0.0012033
17630.0 0.0012024
17650.0 0.0012014
17670.0 0.0012003
17690.0 0.0011992
17710.0 0.001198
17730.0 0.0011968
17750.0 0.0011954
17770.0 0.001194
17790.0 0.0011926
17810.0 0.0011911
17830.0 0.0011895
17850.0 0.0011878
17870.0 0.0011861
17890.0 0.0011843
17910.0 0.0011824
17930.0 0.0011805
17950.0 0.0011785
17970.0 0.0011764
17990.0 0.0011743
18010.0 0.0011721
18030.0 0.0011698
18050.0 0.0011675
18070.0 0.0011652
18090.0 0.0011627
18110.0 0.0011602
18130.0 0.0011576
18150.0 0.001155
18170.0 0.0011523
18190.0 0.0011496
18210.0 0.0011468
18230.0 0.0011439
18250.0 0.001141
18270.0 0.001138
18290.0 0.001135
18310.0 0.0011319
18330.0 0.0011288
18350.0 0.0011256
18370.0 0.0011224
18390.0 0.0011191
18410.0 0.0011158
18430.0 0.0011124
18450.0 0.0011089
18470.0 0.0011055
18490.0 0.0011019
18510.0 0.0010984
18530.0 0.0010947
18550.0 0.0010911
18570.0 0.0010874
18590.0 0.0010836
18610.0 0.0010799
18630.0 0.0010761
18650.0 0.0010722
18670.0 0.0010683
18690.0 0.0010644
18710.0 0.0010604
18730.0 0.0010564
18750.0 0.0010524
18770.0 0.0010483
18790.0 0.0010442
18810.0 0.0010401
18830.0 0.0010359
18850.0 0.0010318
18870.0 0.0010276
18890.0 0.0010233
18910.0 0.0010191
18930.0 0.0010148
18950.0 0.0010105
18970.0 0.0010062
18990.0 0.0010019
19010.0 0.00099748
19030.0 0.00099311
19050.0 0.00098873
19070.0 0.00098431
19090.0 0.00097989
19110.0 0.00097547
19130.0 0.00097101
19150.0 0.00096655
19170.0 0.00096208
19190.0 0.0009576
19210.0 0.00095311
19230.0 0.00094861
19250.0 0.00094412
19270.0 0.0009396
19290.0 0.00093509
19310.0 0.00093057
19330.0 0.00092606
19350.0 0.00092152
19370.0 0.000917
19390.0 0.00091248
19410.0 0.00090795
19430.0 0.00090342
19450.0 0.00089891
19470.0 0.00089439
19490.0 0.00088987
19510.0 0.00088536
19530.0 0.00088086
19550.0 0.00087635
19570.0 0.00087185
19590.0 0.00086737
19610.0 0.0008629
19630.0 0.00085842
19650.0 0.00085396
19670.0 0.00084952
19690.0 0.00084508
19710.0 0.00084064
19730.0 0.00083623
19750.0 0.00083183
19770.0 0.00082743
19790.0 0.00082306
19810.0 0.00081869
19830.0 0.00081432
19850.0 0.00080992
19870.0 0.00080548
19890.0 0.00080088
19910.0 0.00079598
19930.0 0.00079063
19950.0 0.0007846
19970.0 0.00077747
19990.0 0.00076905
20010.0 0.00075951
20030.0 0.00074839
20050.0 0.00073577
20070.0 0.00072236
20090.0 0.0007083
20110.0 0.00069308
20130.0 0.00067804
20150.0 0.00066343
20170.0 0.00064875
20190.0 0.00063423
20210.0 0.0006206
20230.0 0.00060743
20250.0 0.00059435
20270.0 0.00058205
20290.0 0.00057051
20310.0 0.00055926
20330.0 0.0005483
20350.0 0.0005384
20370.0 0.0005289
20390.0 0.00051969
20410.0 0.0005111
20430.0 0.00050315
20450.0 0.00049536
20470.0 0.00048805
20490.0 0.00048136
20510.0 0.00047506
20530.0 0.00046908
20550.0 0.00046363
20570.0 0.00045869
20590.0 0.00045405
20610.0 0.00044982
20630.0 0.00044604
20650.0 0.00044259
20670.0 0.00043946
20690.0 0.00043669
20710.0 0.00043421
20730.0 0.00043198
20750.0 0.00043
20770.0 0.00042819
20790.0 0.00042654
20810.0 0.00042503
20830.0 0.00042358
20850.0 0.00042218
20870.0 0.00042082
20890.0 0.00041943
20910.0 0.00041795
20930.0 0.0004164
20950.0 0.00041474
20970.0 0.00041294
20990.0 0.00041098
21010.0 0.00040884
21030.0 0.00040651
21050.0 0.00040401
21070.0 0.0004013
21090.0 0.00039835
21110.0 0.00039526
21130.0 0.00039202
21150.0 0.00038855
21170.0 0.00038494
21190.0 0.00038126
21210.0 0.00037739
21230.0 0.00037336
21250.0 0.00036934
21270.0 0.00036526
21290.0 0.00036105
21310.0 0.00035683
21330.0 0.00035273
21350.0 0.00034855
21370.0 0.00034438
21390.0 0.00034035
21410.0 0.00033643
21430.0 0.00033247
21450.0 0.00032875
21470.0 0.00032525
21490.0 0.00032187
21510.0 0.00031868
21530.0 0.00031579
21550.0 0.00031311
21570.0 0.00031065
21590.0 0.00030848
21610.0 0.00030659
21630.0 0.00030495
21650.0 0.0003036
21670.0 0.0003025
21690.0 0.00030163
21710.0 0.00030102
21730.0 0.0003006
21750.0 0.00030033
21770.0 0.00030028
21790.0 0.00030036
21810.0 0.0003005
21830.0 0.00030071
21850.0 0.00030102
21870.0 0.00030129
21890.0 0.0003015
21910.0 0.00030173
21930.0 0.00030189
21950.0 0.00030193
21970.0 0.00030188
21990.0 0.00030177
22010.0 0.00030149
22030.0 0.00030109
22050.0 0.00030058
22070.0 0.00029996
22090.0 0.0002992
22110.0 0.00029836
22130.0 0.00029742
22150.0 0.00029639
22170.0 0.00029528
22190.0 0.0002941
22210.0 0.00029285
22230.0 0.00029154
22250.0 0.00029018
22270.0 0.00028874
22290.0 0.00028724
22310.0 0.00028569
22330.0 0.00028402
22350.0 0.00028226
22370.0 0.00028043
22390.0 0.00027845
22410.0 0.0002763
22430.0 0.00027406
22450.0 0.00027167
22470.0 0.00026905
22490.0 0.00026628
22510.0 0.0002634
22530.0 0.00026027
22550.0 0.00025691
22570.0 0.00025351
22590.0 0.00024998
22610.0 0.00024623
22630.0 0.00024243
22650.0 0.00023871
22670.0 0.00023484
22690.0 0.00023094
22710.0 0.00022719
22730.0 0.0002235
22750.0 0.00021975
22770.0 0.00021624
22790.0 0.00021295
22810.0 0.00020975
22830.0 0.00020669
22850.0 0.00020392
22870.0 0.00020131
22890.0 0.00019881
22910.0 0.00019655
22930.0 0.00019449
22950.0 0.00019254
22970.0 0.00019072
22990.0 0.0001891
23010.0 0.00018756
23030.0 0.00018609
23050.0 0.00018471
23070.0 0.0001834
23090.0 0.00018206
23110.0 0.00018075
23130.0 0.00017946
23150.0 0.00017814
23170.0 0.00017676
23190.0 0.00017538
23210.0 0.000174
23230.0 0.00017256
23250.0 0.0001711
23270.0 0.00016966
23290.0 0.00016822
23310.0 0.00016675
23330.0 0.00016536
23350.0 0.00016402
23370.0 0.00016269
23390.0 0.00016142
23410.0 0.00016024
23430.0 0.00015909
23450.0 0.00015796
