#lamb flux
1010.0 1.2793e-05
1030.0 1.7081e-05
1050.0 2.2752e-05
1070.0 3.009e-05
1090.0 3.9576e-05
1110.0 5.0993e-05
1130.0 6.4369e-05
1150.0 8.0226e-05
1170.0 9.8498e-05
1190.0 0.00011822
1210.0 0.00013971
1230.0 0.00016295
1250.0 0.00018679
1270.0 0.00021041
1290.0 0.0002343
1310.0 0.00025693
1330.0 0.00027687
1350.0 0.00029419
1370.0 0.0003086
1390.0 0.0003187
1410.0 0.00032416
1430.0 0.00032597
1450.0 0.00032351
1470.0 0.00031661
1490.0 0.00030631
1510.0 0.00029349
1530.0 0.00027751
1550.0 0.00025966
1570.0 0.00024128
1590.0 0.00022221
1610.0 0.00020267
1630.0 0.00018364
1650.0 0.00016535
1670.0 0.00014775
1690.0 0.00013121
1710.0 0.00011603
1730.0 0.00010212
1750.0 8.9373e-05
1770.0 7.8036e-05
1790.0 6.8024e-05
1810.0 5.9207e-05
1830.0 5.1578e-05
1850.0 4.4645e-05
1870.0 3.8343e-05
1890.0 3.3187e-05
1910.0 2.916e-05
1930.0 2.6197e-05
1950.0 2.5222e-05
1970.0 2.5216e-05
1990.0 2.5523e-05
2010.0 2.6103e-05
2030.0 2.6936e-05
2050.0 2.8043e-05
2070.0 3.0981e-05
2090.0 3.4861e-05
2110.0 3.9433e-05
2130.0 4.4684e-05
2150.0 5.0543e-05
2170.0 5.6939e-05
2190.0 6.3897e-05
2210.0 7.0975e-05
2230.0 7.7968e-05
2250.0 8.5287e-05
2270.0 9.2953e-05
2290.0 0.00010082
2310.0 0.00010881
2330.0 0.00011698
2350.0 0.00012526
2370.0 0.00013348
2390.0 0.00014168
2410.0 0.00014987
2430.0 0.00015783
2450.0 0.00016553
2470.0 0.00017302
2490.0 0.0001803
2510.0 0.00018727
2530.0 0.00019434
2550.0 0.00020206
2570.0 0.00021104
2590.0 0.00022209
2610.0 0.0002375
2630.0 0.00025859
2650.0 0.00028567
2670.0 0.00032092
2690.0 0.00036613
2710.0 0.00041819
2730.0 0.00047485
2750.0 0.00053789
2770.0 0.00060069
2790.0 0.00065716
2810.0 0.00070731
2830.0 0.00075074
2850.0 0.00078055
2870.0 0.00080079
2890.0 0.00081468
2910.0 0.00082225
2930.0 0.00082387
2950.0 0.00082333
2970.0 0.00082092
2990.0 0.00081557
3010.0 0.00080854
3030.0 0.00080151
3050.0 0.0007938
3070.0 0.00078412
3090.0 0.00077505
3110.0 0.00076673
3130.0 0.00075899
3150.0 0.00072557
3170.0 0.00070264
3190.0 0.00068201
3210.0 0.00066957
3230.0 0.00067966
3250.0 0.00076111
3270.0 0.00092935
3290.0 0.0010468
3310.0 0.00098708
3330.0 0.00099438
3350.0 0.0010152
3370.0 0.0010401
3390.0 0.0010633
3410.0 0.0010741
3430.0 0.001075
3450.0 0.0010731
3470.0 0.0010763
3490.0 0.0010611
3510.0 0.00096796
3530.0 0.00076304
3550.0 0.00067631
3570.0 0.00097135
3590.0 0.0013564
3610.0 0.0015948
3630.0 0.0020814
3650.0 0.0021317
3670.0 0.001789
3690.0 0.0014055
3710.0 0.0012094
3730.0 0.0012504
3750.0 0.0012995
3770.0 0.0013482
3790.0 0.0013984
3810.0 0.0015483
3830.0 0.0014281
3850.0 0.0012088
3870.0 0.0010932
3890.0 0.0012374
3910.0 0.001339
3930.0 0.0013499
3950.0 0.0014542
3970.0 0.0015728
3990.0 0.0015593
4010.0 0.0016216
4030.0 0.0015576
4050.0 0.0014937
4070.0 0.0014443
4090.0 0.0014578
4110.0 0.0014948
4130.0 0.0014591
4150.0 0.0013842
4170.0 0.0013464
4190.0 0.0013417
4210.0 0.0012189
4230.0 0.0011052
4250.0 0.00096545
4270.0 0.00082789
4290.0 0.00080485
4310.0 0.00078247
4330.0 0.00079039
4350.0 0.00092243
4370.0 0.00094326
4390.0 0.0010623
4410.0 0.0011434
4430.0 0.001191
4450.0 0.0010625
4470.0 0.00091389
4490.0 0.00086941
4510.0 0.00082022
4530.0 0.00079033
4550.0 0.00075671
4570.0 0.00074933
4590.0 0.00076346
4610.0 0.00072205
4630.0 0.00069589
4650.0 0.00065493
4670.0 0.00063891
4690.0 0.00056586
4710.0 0.00051027
4730.0 0.00044586
4750.0 0.00040955
4770.0 0.0003097
4790.0 0.00031242
4810.0 0.00029639
4830.0 0.00015912
4850.0 0.00023054
4870.0 0.00013872
4890.0 0.00016731
4910.0 0.00026291
4930.0 0.00026904
4950.0 0.00013357
4970.0 0.00013992
4990.0 0.00014343
5010.0 9.7774e-05
5030.0 8.9602e-05
5050.0 0.00013965
5070.0 0.00013422
5090.0 0.00014215
5110.0 0.00015498
5130.0 0.00014463
5150.0 0.00016927
5170.0 0.00011236
5190.0 0.00010417
5210.0 0.00013275
5230.0 0.00010784
5250.0 0.00015145
5270.0 0.00024547
5290.0 0.00023852
5310.0 0.00017936
5330.0 0.00018627
5350.0 0.00012924
5370.0 0.00013928
5390.0 0.00016702
5410.0 0.00015255
5430.0 0.00020241
5450.0 0.00014597
5470.0 0.00014657
5490.0 0.00027442
5510.0 0.00027839
5530.0 0.00028554
5550.0 0.0002751
5570.0 0.00030847
5590.0 0.00034752
5610.0 0.00035127
5630.0 0.00033923
5650.0 0.00034468
5670.0 0.00034198
5690.0 0.00035363
5710.0 0.00032669
5730.0 0.00035002
5750.0 0.00034636
5770.0 0.00032763
5790.0 0.0003548
5810.0 0.00036009
5830.0 0.0003596
5850.0 0.00033364
5870.0 0.00031665
5890.0 0.00032165
5910.0 0.00036408
5930.0 0.00035802
5950.0 0.00037541
5970.0 0.00038185
5990.0 0.00040311
6010.0 0.00039224
6030.0 0.00039815
6050.0 0.00039658
6070.0 0.00037366
6090.0 0.00039513
6110.0 0.00040309
6130.0 0.00038526
6150.0 0.00038411
6170.0 0.00038706
6190.0 0.00033236
6210.0 0.00033536
6230.0 0.00035241
6250.0 0.00035058
6270.0 0.00034935
6290.0 0.00037167
6310.0 0.00039961
6330.0 0.00040258
6350.0 0.00039217
6370.0 0.00039989
6390.0 0.0003711
6410.0 0.00037732
6430.0 0.00036013
6450.0 0.00036476
6470.0 0.00036988
6490.0 0.00037352
6510.0 0.0003465
6530.0 0.00034773
6550.0 0.00034244
6570.0 0.00032554
6590.0 0.00034129
6610.0 0.00034222
6630.0 0.000337
6650.0 0.00031702
6670.0 0.00030642
6690.0 0.00029758
6710.0 0.00028491
6730.0 0.00027677
6750.0 0.00027786
6770.0 0.00027231
6790.0 0.00022077
6810.0 0.00023752
6830.0 0.00025352
6850.0 0.00022885
6870.0 0.00022399
6890.0 0.00021963
6910.0 0.00021654
6930.0 0.0002086
6950.0 0.00021598
6970.0 0.00020708
6990.0 0.00020262
7010.0 0.00020063
7030.0 0.0002081
7050.0 0.00020308
7070.0 0.00017216
7090.0 0.00014644
7110.0 0.00013736
7130.0 0.00014615
7150.0 0.00014878
7170.0 0.00014575
7190.0 0.00012741
7210.0 0.00015123
7230.0 0.00017046
7250.0 0.00016673
7270.0 0.00016784
7290.0 0.00017642
7310.0 0.000158
7330.0 0.0001495
7350.0 0.00013977
7370.0 0.0001516
7390.0 0.00016888
7410.0 0.00013597
7430.0 0.00013937
7450.0 0.00013559
7470.0 0.00015321
7490.0 0.00015478
7510.0 0.00013602
7530.0 0.00014608
7550.0 9.2537e-05
7570.0 7.8179e-05
7590.0 0.00010588
7610.0 0.00012959
7630.0 0.00011553
7650.0 0.00013054
7670.0 9.3068e-05
7690.0 5.986e-05
7710.0 7.7085e-05
7730.0 0.00010745
7750.0 7.8421e-05
7770.0 0.00011503
7790.0 0.00012657
7810.0 0.00010718
7830.0 0.00012766
7850.0 9.7537e-05
7870.0 0.00012259
7890.0 0.00010527
7910.0 0.00010424
7930.0 8.1181e-05
7950.0 5.6975e-05
7970.0 7.5843e-05
7990.0 9.3781e-05
8010.0 0.00025764
8030.0 0.00025007
8050.0 0.00024601
8070.0 0.00023896
8090.0 0.00021938
8110.0 0.00021408
8130.0 0.00023722
8150.0 0.00025265
8170.0 0.00026132
8190.0 0.00027423
8210.0 0.00026212
8230.0 0.00026264
8250.0 0.00026054
8270.0 0.00026241
8290.0 0.00025988
8310.0 0.00024646
8330.0 0.00023769
8350.0 0.00024586
8370.0 0.00025021
8390.0 0.00024335
8410.0 0.00024061
8430.0 0.0002318
8450.0 0.00022488
8470.0 0.00024281
8490.0 0.00024397
8510.0 0.00022772
8530.0 0.00022808
8550.0 0.00022532
8570.0 0.00020807
8590.0 0.00021128
8610.0 0.00021178
8630.0 0.00022128
8650.0 0.00022236
8670.0 0.00022427
8690.0 0.00021932
8710.0 0.00021471
8730.0 0.00020584
8750.0 0.00020109
8770.0 0.00019968
8790.0 0.00021026
8810.0 0.0001965
8830.0 0.00019305
8850.0 0.00020455
8870.0 0.0001936
8890.0 0.00017798
8910.0 0.00017574
8930.0 0.00017943
8950.0 0.00016465
8970.0 0.00015761
8990.0 0.00015389
9010.0 0.00014435
9030.0 0.00014211
9050.0 0.00014145
9070.0 0.00014087
9090.0 0.00014029
9110.0 0.0001397
9130.0 0.0001391
9150.0 0.0001385
9170.0 0.0001379
9190.0 0.00013729
9210.0 0.00013667
9230.0 0.00013605
9250.0 0.00013542
9270.0 0.00013479
9290.0 0.00013416
9310.0 0.00013361
9330.0 0.0001332
9350.0 0.00013279
9370.0 0.00013236
9390.0 0.00013193
9410.0 0.0001315
9430.0 0.00013107
9450.0 0.00013062
9470.0 0.00013024
9490.0 0.00012982
9510.0 0.00012933
9530.0 0.00012884
9550.0 0.00012836
9570.0 0.00012789
9590.0 0.00012741
9610.0 0.00012707
9630.0 0.00012675
9650.0 0.00012642
9670.0 0.00012608
9690.0 0.00012574
9710.0 0.0001254
9730.0 0.00012504
9750.0 0.00012468
9770.0 0.00012433
9790.0 0.00012397
9810.0 0.00012359
9830.0 0.00012323
9850.0 0.00012278
9870.0 0.00012227
9890.0 0.00012197
9910.0 0.00012164
9930.0 0.00012123
9950.0 0.00012085
9970.0 0.00012049
9990.0 0.00012011
10010.0 0.00011973
10030.0 0.00011934
10050.0 0.00011894
10070.0 0.00011854
10090.0 0.00011814
10110.0 0.00011773
10130.0 0.00011733
10150.0 0.00011692
10170.0 0.00011651
10190.0 0.00011611
10210.0 0.0001157
10230.0 0.00011529
10250.0 0.00011488
10270.0 0.00011447
10290.0 0.00011406
10310.0 0.00011366
10330.0 0.00011325
10350.0 0.00011284
10370.0 0.00011243
10390.0 0.00011202
10410.0 0.00011153
10430.0 0.00011101
10450.0 0.0001107
10470.0 0.00011034
10490.0 0.00010997
10510.0 0.00010959
10530.0 0.00010919
10550.0 0.0001088
10570.0 0.00010841
10590.0 0.00010802
10610.0 0.00010762
10630.0 0.00010724
10650.0 0.00010685
10670.0 0.00010646
10690.0 0.00010607
10710.0 0.00010569
10730.0 0.00010531
10750.0 0.00010492
10770.0 0.00010455
10790.0 0.00010418
10810.0 0.00010381
10830.0 0.00010344
10850.0 0.00010307
10870.0 0.0001027
10890.0 0.00010233
10910.0 0.00010195
10930.0 0.00010157
10950.0 0.00010116
10970.0 0.00010073
10990.0 0.00010029
11010.0 9.6412e-05
11030.0 9.5875e-05
11050.0 9.5243e-05
11070.0 9.4523e-05
11090.0 9.3707e-05
11110.0 9.2859e-05
11130.0 9.1982e-05
11150.0 9.1061e-05
11170.0 9.0117e-05
11190.0 8.9187e-05
11210.0 8.8233e-05
11230.0 8.7257e-05
11250.0 8.6299e-05
11270.0 8.5354e-05
11290.0 8.4396e-05
11310.0 8.3452e-05
11330.0 8.256e-05
11350.0 8.1678e-05
11370.0 8.0812e-05
11390.0 7.999e-05
11410.0 7.9202e-05
11430.0 7.8417e-05
11450.0 7.7666e-05
11470.0 7.6948e-05
11490.0 7.6239e-05
11510.0 7.5532e-05
11530.0 7.485e-05
11550.0 7.4176e-05
11570.0 7.349e-05
11590.0 7.2807e-05
11610.0 7.2131e-05
11630.0 7.1438e-05
11650.0 7.0728e-05
11670.0 7.0027e-05
11690.0 6.9318e-05
11710.0 6.8588e-05
11730.0 6.7853e-05
11750.0 6.7128e-05
11770.0 6.6382e-05
11790.0 6.5626e-05
11810.0 6.4883e-05
11830.0 6.4142e-05
11850.0 6.3382e-05
11870.0 6.2643e-05
11890.0 6.193e-05
11910.0 6.1218e-05
11930.0 6.0521e-05
11950.0 5.9862e-05
11970.0 5.9223e-05
11990.0 5.8599e-05
12010.0 5.8014e-05
12030.0 5.7467e-05
12050.0 5.6945e-05
12070.0 5.6454e-05
12090.0 5.6008e-05
12110.0 5.5592e-05
12130.0 5.5205e-05
12150.0 5.485e-05
12170.0 5.4524e-05
12190.0 5.4219e-05
12210.0 5.3934e-05
12230.0 5.3666e-05
12250.0 5.3408e-05
12270.0 5.3155e-05
12290.0 5.2903e-05
12310.0 5.2646e-05
12330.0 5.2381e-05
12350.0 5.2101e-05
12370.0 5.1808e-05
12390.0 5.1496e-05
12410.0 5.1156e-05
12430.0 5.0799e-05
12450.0 5.0421e-05
12470.0 5.0013e-05
12490.0 4.9581e-05
12510.0 4.9137e-05
12530.0 4.8664e-05
12550.0 4.8162e-05
12570.0 4.7651e-05
12590.0 4.7127e-05
12610.0 4.6572e-05
12630.0 4.6004e-05
12650.0 4.5447e-05
12670.0 4.4872e-05
12690.0 4.4283e-05
12710.0 4.3706e-05
12730.0 4.3135e-05
12750.0 4.2544e-05
12770.0 4.1969e-05
12790.0 4.1416e-05
12810.0 4.0865e-05
12830.0 4.0317e-05
12850.0 3.9804e-05
12870.0 3.9311e-05
12890.0 3.8824e-05
12910.0 3.8365e-05
12930.0 3.7942e-05
12950.0 3.7533e-05
12970.0 3.715e-05
12990.0 3.6812e-05
13010.0 3.6505e-05
13030.0 3.6227e-05
13050.0 3.5987e-05
13070.0 3.5786e-05
13090.0 3.5612e-05
13110.0 3.5469e-05
13130.0 3.5357e-05
13150.0 3.5268e-05
13170.0 3.5199e-05
13190.0 3.5147e-05
13210.0 3.5106e-05
13230.0 3.5074e-05
13250.0 3.5046e-05
13270.0 3.5018e-05
13290.0 3.4988e-05
13310.0 3.4954e-05
13330.0 3.4912e-05
13350.0 3.4861e-05
13370.0 3.4799e-05
13390.0 3.4721e-05
13410.0 3.4632e-05
13430.0 3.4527e-05
13450.0 3.4402e-05
13470.0 3.4261e-05
13490.0 3.4109e-05
13510.0 3.393e-05
13530.0 3.3736e-05
13550.0 3.3537e-05
13570.0 3.3323e-05
13590.0 3.3092e-05
13610.0 3.286e-05
13630.0 3.2627e-05
13650.0 3.2378e-05
13670.0 3.2124e-05
13690.0 3.1875e-05
13710.0 3.1617e-05
13730.0 3.134e-05
13750.0 3.1075e-05
13770.0 3.0808e-05
13790.0 3.0527e-05
13810.0 3.0244e-05
13830.0 2.9971e-05
13850.0 2.9687e-05
13870.0 2.9394e-05
13890.0 2.9114e-05
13910.0 2.8839e-05
13930.0 2.8554e-05
13950.0 2.8277e-05
13970.0 2.8023e-05
13990.0 2.7769e-05
14010.0 2.7519e-05
14030.0 2.7291e-05
14050.0 2.7076e-05
14070.0 2.686e-05
14090.0 2.6664e-05
14110.0 2.6488e-05
14130.0 2.632e-05
14150.0 2.6158e-05
14170.0 2.6019e-05
14190.0 2.589e-05
14210.0 2.5763e-05
14230.0 2.5648e-05
14250.0 2.5546e-05
14270.0 2.5443e-05
14290.0 2.5343e-05
14310.0 2.5257e-05
14330.0 2.5176e-05
14350.0 2.5095e-05
14370.0 2.5021e-05
14390.0 2.4958e-05
14410.0 2.4895e-05
14430.0 2.4836e-05
14450.0 2.4787e-05
14470.0 2.4742e-05
14490.0 2.4696e-05
14510.0 2.4658e-05
14530.0 2.4627e-05
14550.0 2.4594e-05
14570.0 2.4561e-05
14590.0 2.4534e-05
14610.0 2.4506e-05
14630.0 2.4472e-05
14650.0 2.4441e-05
14670.0 2.4411e-05
14690.0 2.4376e-05
14710.0 2.4337e-05
14730.0 2.4303e-05
14750.0 2.4263e-05
14770.0 2.4218e-05
14790.0 2.4173e-05
14810.0 2.4127e-05
14830.0 2.4068e-05
14850.0 2.4008e-05
14870.0 2.3949e-05
14890.0 2.3885e-05
14910.0 2.3815e-05
14930.0 2.3752e-05
14950.0 2.3694e-05
14970.0 2.3638e-05
14990.0 2.3593e-05
15010.0 2.3562e-05
15030.0 2.354e-05
15050.0 2.3526e-05
15070.0 2.3525e-05
15090.0 2.353e-05
15110.0 2.3537e-05
15130.0 2.3547e-05
15150.0 2.356e-05
15170.0 2.357e-05
15190.0 2.3579e-05
15210.0 2.3589e-05
15230.0 2.3599e-05
15250.0 2.3605e-05
15270.0 2.3611e-05
15290.0 2.3619e-05
15310.0 2.3623e-05
15330.0 2.3626e-05
15350.0 2.3629e-05
15370.0 2.3632e-05
15390.0 2.363e-05
15410.0 2.3629e-05
15430.0 2.3628e-05
15450.0 2.3624e-05
15470.0 2.3618e-05
15490.0 2.3613e-05
15510.0 2.3607e-05
15530.0 2.3597e-05
15550.0 2.3587e-05
15570.0 2.3578e-05
15590.0 2.3565e-05
15610.0 2.3549e-05
15630.0 2.3535e-05
15650.0 2.3519e-05
15670.0 2.35e-05
15690.0 2.3481e-05
15710.0 2.3462e-05
15730.0 2.344e-05
15750.0 2.3415e-05
15770.0 2.3392e-05
15790.0 2.3366e-05
15810.0 2.3336e-05
15830.0 2.3308e-05
15850.0 2.3279e-05
15870.0 2.3247e-05
15890.0 2.3213e-05
15910.0 2.318e-05
15930.0 2.3145e-05
15950.0 2.3106e-05
15970.0 2.3068e-05
15990.0 2.3029e-05
16010.0 2.2987e-05
16030.0 2.2943e-05
16050.0 2.2901e-05
16070.0 2.2856e-05
16090.0 2.2808e-05
16110.0 2.2761e-05
16130.0 2.2714e-05
16150.0 2.2661e-05
16170.0 2.2609e-05
16190.0 2.2557e-05
16210.0 2.2504e-05
16230.0 2.2447e-05
16250.0 2.2391e-05
16270.0 2.2335e-05
16290.0 2.2275e-05
16310.0 2.2214e-05
16330.0 2.2155e-05
16350.0 2.2093e-05
16370.0 2.2026e-05
16390.0 2.1963e-05
16410.0 2.1899e-05
16430.0 2.1831e-05
16450.0 2.1763e-05
16470.0 2.1697e-05
16490.0 2.1627e-05
16510.0 2.1555e-05
16530.0 2.1484e-05
16550.0 2.1412e-05
16570.0 2.1337e-05
16590.0 2.1262e-05
16610.0 2.1189e-05
16630.0 2.1113e-05
16650.0 2.1035e-05
16670.0 2.0959e-05
16690.0 2.0882e-05
16710.0 2.08e-05
16730.0 2.072e-05
16750.0 2.0641e-05
16770.0 2.0559e-05
16790.0 2.0476e-05
16810.0 2.0395e-05
16830.0 2.0312e-05
16850.0 2.0227e-05
16870.0 2.0143e-05
16890.0 2.0059e-05
16910.0 1.9972e-05
16930.0 1.9884e-05
16950.0 1.9799e-05
16970.0 1.9712e-05
16990.0 1.9623e-05
17010.0 1.9536e-05
17030.0 1.9449e-05
17050.0 1.9359e-05
17070.0 1.9268e-05
17090.0 1.918e-05
17110.0 1.909e-05
17130.0 1.8997e-05
17150.0 1.8907e-05
17170.0 1.8817e-05
17190.0 1.8725e-05
17210.0 1.8633e-05
17230.0 1.8542e-05
17250.0 1.845e-05
17270.0 1.8356e-05
17290.0 1.8264e-05
17310.0 1.8172e-05
17330.0 1.8078e-05
17350.0 1.7984e-05
17370.0 1.7892e-05
17390.0 1.7799e-05
17410.0 1.7704e-05
17430.0 1.7611e-05
17450.0 1.7519e-05
17470.0 1.7423e-05
17490.0 1.7329e-05
17510.0 1.7236e-05
17530.0 1.7143e-05
17550.0 1.7047e-05
17570.0 1.6954e-05
17590.0 1.6862e-05
17610.0 1.6767e-05
17630.0 1.6673e-05
17650.0 1.6581e-05
17670.0 1.6487e-05
17690.0 1.6391e-05
17710.0 1.6298e-05
17730.0 1.6206e-05
17750.0 1.6112e-05
17770.0 1.6019e-05
17790.0 1.5928e-05
17810.0 1.5834e-05
17830.0 1.574e-05
17850.0 1.5649e-05
17870.0 1.5557e-05
17890.0 1.5463e-05
17910.0 1.5371e-05
17930.0 1.5281e-05
17950.0 1.5189e-05
17970.0 1.5097e-05
17990.0 1.5007e-05
18010.0 1.4917e-05
18030.0 1.4825e-05
18050.0 1.4734e-05
18070.0 1.4646e-05
18090.0 1.4555e-05
18110.0 1.4465e-05
18130.0 1.4377e-05
18150.0 1.4289e-05
18170.0 1.4199e-05
18190.0 1.4111e-05
18210.0 1.4024e-05
18230.0 1.3936e-05
18250.0 1.3847e-05
18270.0 1.3761e-05
18290.0 1.3675e-05
18310.0 1.3587e-05
18330.0 1.3502e-05
18350.0 1.3418e-05
18370.0 1.3332e-05
18390.0 1.3246e-05
18410.0 1.3162e-05
18430.0 1.3078e-05
18450.0 1.2993e-05
18470.0 1.291e-05
18490.0 1.2828e-05
18510.0 1.2745e-05
18530.0 1.2662e-05
18550.0 1.2581e-05
18570.0 1.25e-05
18590.0 1.2417e-05
18610.0 1.2337e-05
18630.0 1.2257e-05
18650.0 1.2176e-05
18670.0 1.2096e-05
18690.0 1.2018e-05
18710.0 1.194e-05
18730.0 1.186e-05
18750.0 1.1783e-05
18770.0 1.1707e-05
18790.0 1.1627e-05
18810.0 1.155e-05
18830.0 1.1475e-05
18850.0 1.1399e-05
18870.0 1.1322e-05
18890.0 1.1248e-05
18910.0 1.1174e-05
18930.0 1.1099e-05
18950.0 1.1025e-05
18970.0 1.0952e-05
18990.0 1.0879e-05
19010.0 1.0804e-05
19030.0 1.0733e-05
19050.0 1.0662e-05
19070.0 1.0589e-05
19090.0 1.0518e-05
19110.0 1.0449e-05
19130.0 1.0378e-05
19150.0 1.0307e-05
19170.0 1.0238e-05
19190.0 1.0169e-05
19210.0 1.0099e-05
19230.0 1.003e-05
19250.0 9.964e-06
19270.0 9.896e-06
19290.0 9.8281e-06
19310.0 9.7622e-06
19330.0 9.6964e-06
19350.0 9.6282e-06
19370.0 9.5625e-06
19390.0 9.4981e-06
19410.0 9.4325e-06
19430.0 9.3668e-06
19450.0 9.3037e-06
19470.0 9.2402e-06
19490.0 9.1755e-06
19510.0 9.1123e-06
19530.0 9.0505e-06
19550.0 8.9867e-06
19570.0 8.9231e-06
19590.0 8.8623e-06
19610.0 8.8009e-06
19630.0 8.7385e-06
19650.0 8.6779e-06
19670.0 8.6184e-06
19690.0 8.5569e-06
19710.0 8.4961e-06
19730.0 8.4372e-06
19750.0 8.3777e-06
19770.0 8.3166e-06
19790.0 8.258e-06
19810.0 8.2004e-06
19830.0 8.1413e-06
19850.0 8.0828e-06
19870.0 8.0265e-06
19890.0 7.9693e-06
19910.0 7.9118e-06
19930.0 7.8578e-06
19950.0 7.8061e-06
19970.0 7.756e-06
19990.0 7.71e-06
20010.0 7.67e-06
20030.0 7.6334e-06
20050.0 7.6012e-06
20070.0 7.5741e-06
20090.0 7.5507e-06
20110.0 7.5299e-06
20130.0 7.5121e-06
20150.0 7.4966e-06
20170.0 7.4825e-06
20190.0 7.4696e-06
20210.0 7.4579e-06
20230.0 7.4469e-06
20250.0 7.4363e-06
20270.0 7.4261e-06
20290.0 7.416e-06
20310.0 7.4057e-06
20330.0 7.395e-06
20350.0 7.384e-06
20370.0 7.3724e-06
20390.0 7.36e-06
20410.0 7.347e-06
20430.0 7.3336e-06
20450.0 7.3191e-06
20470.0 7.3041e-06
20490.0 7.2889e-06
20510.0 7.2733e-06
20530.0 7.2573e-06
20550.0 7.2414e-06
20570.0 7.2258e-06
20590.0 7.2101e-06
20610.0 7.1947e-06
20630.0 7.1797e-06
20650.0 7.1649e-06
20670.0 7.1499e-06
20690.0 7.1352e-06
20710.0 7.1206e-06
20730.0 7.1055e-06
20750.0 7.0898e-06
20770.0 7.0737e-06
20790.0 7.0566e-06
20810.0 7.038e-06
20830.0 7.0184e-06
20850.0 6.9975e-06
20870.0 6.9743e-06
20890.0 6.9494e-06
20910.0 6.9235e-06
20930.0 6.8956e-06
20950.0 6.8656e-06
20970.0 6.8347e-06
20990.0 6.8027e-06
21010.0 6.7684e-06
21030.0 6.7333e-06
21050.0 6.6981e-06
21070.0 6.6617e-06
21090.0 6.6239e-06
21110.0 6.5869e-06
21130.0 6.5496e-06
21150.0 6.5112e-06
21170.0 6.4727e-06
21190.0 6.4346e-06
21210.0 6.3952e-06
21230.0 6.3547e-06
21250.0 6.3146e-06
21270.0 6.2737e-06
21290.0 6.2311e-06
21310.0 6.1875e-06
21330.0 6.1439e-06
21350.0 6.0981e-06
21370.0 6.0504e-06
21390.0 5.9985e-06
21410.0 5.9451e-06
21430.0 5.8882e-06
21450.0 5.8307e-06
21470.0 5.7726e-06
21490.0 5.712e-06
21510.0 5.6492e-06
21530.0 5.5865e-06
21550.0 5.5222e-06
21570.0 5.4551e-06
21590.0 5.3876e-06
21610.0 5.3198e-06
21630.0 5.2497e-06
21650.0 5.1774e-06
21670.0 5.1066e-06
21690.0 5.0341e-06
21710.0 4.9595e-06
21730.0 4.8846e-06
21750.0 4.81e-06
21770.0 4.7321e-06
21790.0 4.6534e-06
21810.0 4.5751e-06
21830.0 4.4953e-06
21850.0 4.4131e-06
21870.0 4.3311e-06
21890.0 4.2493e-06
21910.0 4.1649e-06
21930.0 4.0797e-06
21950.0 3.9952e-06
21970.0 3.9093e-06
21990.0 3.8211e-06
22010.0 3.7344e-06
22030.0 3.6479e-06
22050.0 3.56e-06
22070.0 3.4908e-06
22090.0 3.4567e-06
22110.0 3.4224e-06
22130.0 3.3881e-06
22150.0 3.3547e-06
22170.0 3.3219e-06
22190.0 3.289e-06
22210.0 3.2567e-06
22230.0 3.2254e-06
22250.0 3.1942e-06
22270.0 3.1631e-06
22290.0 3.1327e-06
22310.0 3.1025e-06
22330.0 3.0721e-06
22350.0 3.042e-06
22370.0 3.0121e-06
22390.0 2.9819e-06
22410.0 2.9515e-06
22430.0 2.9212e-06
22450.0 2.8907e-06
22470.0 2.8597e-06
22490.0 2.8285e-06
22510.0 2.7971e-06
22530.0 2.7652e-06
22550.0 2.7328e-06
22570.0 2.7002e-06
22590.0 2.6672e-06
22610.0 2.6337e-06
22630.0 2.5999e-06
22650.0 2.5659e-06
