#lamb flux
1010.0 1.4717e-05
1030.0 1.9877e-05
1050.0 2.6831e-05
1070.0 3.5977e-05
1090.0 4.7954e-05
1110.0 6.2566e-05
1130.0 7.9861e-05
1150.0 0.00010036
1170.0 0.00012409
1190.0 0.00014983
1210.0 0.00017802
1230.0 0.00020854
1250.0 0.00023991
1270.0 0.00027101
1290.0 0.00030241
1310.0 0.00033211
1330.0 0.00035819
1350.0 0.0003807
1370.0 0.00039923
1390.0 0.00041193
1410.0 0.00041835
1430.0 0.00041977
1450.0 0.00041538
1470.0 0.00040501
1490.0 0.00039
1510.0 0.00037164
1530.0 0.00034911
1550.0 0.00032394
1570.0 0.00029735
1590.0 0.00026981
1610.0 0.00024168
1630.0 0.00021421
1650.0 0.00018772
1670.0 0.00016224
1690.0 0.00013823
1710.0 0.00011604
1730.0 9.5603e-05
1750.0 7.6847e-05
1770.0 5.9997e-05
1790.0 4.4949e-05
1810.0 3.1587e-05
1830.0 1.9884e-05
1850.0 1.1765e-05
1870.0 6.7124e-06
1890.0 2.5039e-06
1910.0 1e-99
1930.0 1e-99
1950.0 1e-99
1970.0 1e-99
1990.0 1e-99
2010.0 1e-99
2030.0 1e-99
2050.0 1e-99
2070.0 1e-99
2090.0 1e-99
2110.0 1.6291e-06
2130.0 4.9281e-06
2150.0 8.6739e-06
2170.0 1.2826e-05
2190.0 1.7365e-05
2210.0 2.3704e-05
2230.0 3.2175e-05
2250.0 4.1095e-05
2270.0 5.0438e-05
2290.0 6.009e-05
2310.0 6.9959e-05
2330.0 8.0039e-05
2350.0 9.0246e-05
2370.0 0.00010043
2390.0 0.00011058
2410.0 0.00012067
2430.0 0.00013047
2450.0 0.0001399
2470.0 0.00014892
2490.0 0.00015743
2510.0 0.00016528
2530.0 0.00017272
2550.0 0.00018014
2570.0 0.00018815
2590.0 0.00019759
2610.0 0.0002105
2630.0 0.00022852
2650.0 0.0002524
2670.0 0.00028443
2690.0 0.00032681
2710.0 0.00037693
2730.0 0.00043258
2750.0 0.00049546
2770.0 0.00055864
2790.0 0.00061531
2810.0 0.00066513
2830.0 0.00070756
2850.0 0.0007349
2870.0 0.00075144
2890.0 0.00076069
2910.0 0.00076261
2930.0 0.00075742
2950.0 0.00074944
2970.0 0.00073892
2990.0 0.00072461
3010.0 0.00070803
3030.0 0.00069118
3050.0 0.00067334
3070.0 0.00065316
3090.0 0.00063364
3110.0 0.00061488
3130.0 0.00059647
3150.0 0.00054117
3170.0 0.00049635
3190.0 0.00044905
3210.0 0.00040568
3230.0 0.00038312
3250.0 0.00044845
3270.0 0.00063852
3290.0 0.00072928
3310.0 0.00049184
3330.0 0.00046432
3350.0 0.00048461
3370.0 0.00051197
3390.0 0.00053678
3410.0 0.00054425
3430.0 0.00053797
3450.0 0.00052781
3470.0 0.00052472
3490.0 0.00049675
3510.0 0.00036272
3530.0 0.00015136
3550.0 0.00010423
3570.0 0.00042355
3590.0 0.00090659
3610.0 0.0011575
3630.0 0.0018021
3650.0 0.0019191
3670.0 0.0015329
3690.0 0.0010537
3710.0 0.00077197
3730.0 0.00079758
3750.0 0.00084622
3770.0 0.00087651
3790.0 0.00090269
3810.0 0.0011151
3830.0 0.0010086
3850.0 0.00075772
3870.0 0.00061596
3890.0 0.00081125
3910.0 0.00095626
3930.0 0.00096496
3950.0 0.0010647
3970.0 0.001177
3990.0 0.0011263
4010.0 0.0012261
4030.0 0.0011686
4050.0 0.0010918
4070.0 0.0010299
4090.0 0.0010487
4110.0 0.0011086
4130.0 0.0010907
4150.0 0.0010213
4170.0 0.00098043
4190.0 0.0010093
4210.0 0.00089762
4230.0 0.00080368
4250.0 0.0006739
4270.0 0.0005299
4290.0 0.0005302
4310.0 0.00051057
4330.0 0.00050816
4350.0 0.00067345
4370.0 0.00068264
4390.0 0.00081016
4410.0 0.00089239
4430.0 0.00096958
4450.0 0.00084375
4470.0 0.00068509
4490.0 0.00064664
4510.0 0.00059218
4530.0 0.00055555
4550.0 0.00051342
4570.0 0.00050197
4590.0 0.00051161
4610.0 0.00043619
4630.0 0.00038952
4650.0 0.00032849
4670.0 0.00032177
4690.0 0.00025652
4710.0 0.00021575
4730.0 0.00015168
4750.0 0.00011866
4770.0 4.3556e-05
4790.0 4.8198e-05
4810.0 4.2575e-05
4830.0 1e-99
4850.0 1e-99
4870.0 1e-99
4890.0 1e-99
4910.0 3.1134e-05
4930.0 4.7369e-05
4950.0 1e-99
4970.0 1e-99
4990.0 1e-99
5010.0 1e-99
5030.0 1e-99
5050.0 1e-99
5070.0 1e-99
5090.0 1e-99
5110.0 1e-99
5130.0 1e-99
5150.0 7.9375e-06
5170.0 1e-99
5190.0 1e-99
5210.0 1e-99
5230.0 1e-99
5250.0 2.2648e-07
5270.0 7.778e-05
5290.0 7.1037e-05
5310.0 2.3634e-05
5330.0 3.1778e-05
5350.0 1e-99
5370.0 2.0883e-06
5390.0 2.4167e-05
5410.0 1.5323e-05
5430.0 5.3881e-05
5450.0 9.9305e-06
5470.0 8.7396e-06
5490.0 0.00014008
5510.0 0.00013796
5530.0 0.00014404
5550.0 0.00012478
5570.0 0.00016878
5590.0 0.00022616
5610.0 0.000231
5630.0 0.00020993
5650.0 0.00021769
5670.0 0.00021649
5690.0 0.0002368
5710.0 0.00019653
5730.0 0.00022192
5750.0 0.0002237
5770.0 0.00020653
5790.0 0.00025953
5810.0 0.00029165
5830.0 0.00027038
5850.0 0.00020504
5870.0 0.0001703
5890.0 0.00016968
5910.0 0.0002196
5930.0 0.00020518
5950.0 0.00022715
5970.0 0.00023255
5990.0 0.00025905
6010.0 0.00024603
6030.0 0.00025728
6050.0 0.00025263
6070.0 0.00021514
6090.0 0.00024213
6110.0 0.00025617
6130.0 0.00023488
6150.0 0.00023853
6170.0 0.00024838
6190.0 0.00017955
6210.0 0.00018763
6230.0 0.00020936
6250.0 0.00020709
6270.0 0.00020576
6290.0 0.00023344
6310.0 0.00026869
6330.0 0.00027413
6350.0 0.00026436
6370.0 0.00027602
6390.0 0.00023771
6410.0 0.00025023
6430.0 0.00023045
6450.0 0.00023962
6470.0 0.00024953
6490.0 0.00025602
6510.0 0.00022101
6530.0 0.00022733
6550.0 0.00022402
6570.0 0.00020322
6590.0 0.0002243
6610.0 0.00022636
6630.0 0.00022687
6650.0 0.00020581
6670.0 0.0001936
6690.0 0.00018528
6710.0 0.0001737
6730.0 0.00016512
6750.0 0.00016589
6770.0 0.00014653
6790.0 5.8792e-05
6810.0 8.779e-05
6830.0 0.0001408
6850.0 0.00011686
6870.0 0.00011517
6890.0 0.00011126
6910.0 0.00010885
6930.0 9.9867e-05
6950.0 0.00011314
6970.0 0.00010809
6990.0 0.00010616
7010.0 0.00010357
7030.0 0.0001159
7050.0 0.00011429
7070.0 7.6153e-05
7090.0 4.2529e-05
7110.0 3.5462e-05
7130.0 4.3943e-05
7150.0 5.0048e-05
7170.0 4.8123e-05
7190.0 3.1343e-05
7210.0 5.8173e-05
7230.0 8.6249e-05
7250.0 8.2295e-05
7270.0 8.5601e-05
7290.0 9.8319e-05
7310.0 7.3408e-05
7330.0 6.5915e-05
7350.0 5.8423e-05
7370.0 7.9481e-05
7390.0 0.00010646
7410.0 6.3303e-05
7430.0 6.9186e-05
7450.0 6.5913e-05
7470.0 9.1175e-05
7490.0 9.6608e-05
7510.0 7.4481e-05
7530.0 8.9459e-05
7550.0 2.0761e-05
7570.0 1.1396e-05
7590.0 4.3438e-05
7610.0 7.9071e-05
7630.0 5.613e-05
7650.0 7.6833e-05
7670.0 2.6446e-05
7690.0 2.7335e-07
7710.0 1.2094e-05
7730.0 4.3339e-05
7750.0 1.1851e-05
7770.0 5.4918e-05
7790.0 7.5023e-05
7810.0 4.4095e-05
7830.0 7.0114e-05
7850.0 2.7591e-05
7870.0 6.1703e-05
7890.0 3.8558e-05
7910.0 3.942e-05
7930.0 1.5306e-05
7950.0 1e-99
7970.0 1.0536e-05
7990.0 3.2241e-05
8010.0 0.00021599
8030.0 0.00020833
8050.0 0.00020481
8070.0 0.00019965
8090.0 0.0001874
8110.0 0.0001812
8130.0 0.00019895
8150.0 0.00021297
8170.0 0.00022127
8190.0 0.00023366
8210.0 0.0002218
8230.0 0.00022168
8250.0 0.00021917
8270.0 0.00022309
8290.0 0.00022203
8310.0 0.0002099
8330.0 0.00019978
8350.0 0.00020722
8370.0 0.00021199
8390.0 0.00020567
8410.0 0.00020338
8430.0 0.00019563
8450.0 0.00018805
8470.0 0.00020443
8490.0 0.00020527
8510.0 0.00019065
8530.0 0.0001933
8550.0 0.00019117
8570.0 0.00017448
8590.0 0.00017817
8610.0 0.00017737
8630.0 0.00018719
8650.0 0.0001884
8670.0 0.00019114
8690.0 0.00018658
8710.0 0.00018406
8730.0 0.00017503
8750.0 0.00017014
8770.0 0.00016829
8790.0 0.00018007
8810.0 0.0001662
8830.0 0.00016226
8850.0 0.00017357
8870.0 0.00016411
8890.0 0.00014944
8910.0 0.000148
8930.0 0.00015381
8950.0 0.00013909
8970.0 0.00013285
8990.0 0.00012962
9010.0 0.00012108
9030.0 0.00011913
9050.0 0.00011862
9070.0 0.00011817
9090.0 0.00011772
9110.0 0.00011727
9130.0 0.00011681
9150.0 0.00011635
9170.0 0.00011588
9190.0 0.0001154
9210.0 0.00011493
9230.0 0.00011445
9250.0 0.00011396
9270.0 0.00011347
9290.0 0.00011298
9310.0 0.00011258
9330.0 0.00011233
9350.0 0.00011207
9370.0 0.0001118
9390.0 0.00011153
9410.0 0.00011125
9430.0 0.00011097
9450.0 0.00011068
9470.0 0.00011045
9490.0 0.00011018
9510.0 0.00010985
9530.0 0.00010951
9550.0 0.00010919
9570.0 0.00010887
9590.0 0.00010855
9610.0 0.00010838
9630.0 0.00010823
9650.0 0.00010806
9670.0 0.00010788
9690.0 0.00010771
9710.0 0.00010753
9730.0 0.00010733
9750.0 0.00010713
9770.0 0.00010694
9790.0 0.00010673
9810.0 0.00010651
9830.0 0.0001063
9850.0 0.00010601
9870.0 0.00010566
9890.0 0.0001055
9910.0 0.00010531
9930.0 0.00010506
9950.0 0.00010482
9970.0 0.0001046
9990.0 0.00010436
10010.0 0.00010411
10030.0 0.00010385
10050.0 0.00010359
10070.0 0.00010332
10090.0 0.00010305
10110.0 0.00010277
10130.0 0.00010249
10150.0 0.00010221
10170.0 0.00010193
10190.0 0.00010164
10210.0 0.00010135
10230.0 0.00010106
10250.0 0.00010077
10270.0 0.00010048
10290.0 0.00010018
10310.0 9.988e-05
10330.0 9.9582e-05
10350.0 9.928e-05
10370.0 9.8977e-05
10390.0 9.8669e-05
10410.0 9.8291e-05
10430.0 9.7887e-05
10450.0 9.7663e-05
10470.0 9.7393e-05
10490.0 9.7113e-05
10510.0 9.6825e-05
10530.0 9.652e-05
10550.0 9.6215e-05
10570.0 9.5913e-05
10590.0 9.5605e-05
10610.0 9.5294e-05
10630.0 9.499e-05
10650.0 9.4686e-05
10670.0 9.4374e-05
10690.0 9.4067e-05
10710.0 9.3765e-05
10730.0 9.3459e-05
10750.0 9.3148e-05
10770.0 9.2849e-05
10790.0 9.2549e-05
10810.0 9.2244e-05
10830.0 9.1943e-05
10850.0 9.1648e-05
10870.0 9.1341e-05
10890.0 9.1032e-05
10910.0 9.0724e-05
10930.0 9.0402e-05
10950.0 9.0054e-05
10970.0 8.9685e-05
10990.0 8.9295e-05
11010.0 8.0887e-05
11030.0 8.0413e-05
11050.0 7.9809e-05
11070.0 7.9094e-05
11090.0 7.8274e-05
11110.0 7.7403e-05
11130.0 7.6496e-05
11150.0 7.5548e-05
11170.0 7.4578e-05
11190.0 7.3617e-05
11210.0 7.2638e-05
11230.0 7.1641e-05
11250.0 7.066e-05
11270.0 6.969e-05
11290.0 6.871e-05
11310.0 6.7743e-05
11330.0 6.6818e-05
11350.0 6.5903e-05
11370.0 6.5004e-05
11390.0 6.4142e-05
11410.0 6.331e-05
11430.0 6.2484e-05
11450.0 6.1689e-05
11470.0 6.0924e-05
11490.0 6.017e-05
11510.0 5.9424e-05
11530.0 5.87e-05
11550.0 5.7987e-05
11570.0 5.7271e-05
11590.0 5.656e-05
11610.0 5.5859e-05
11630.0 5.5149e-05
11650.0 5.443e-05
11670.0 5.3719e-05
11690.0 5.3005e-05
11710.0 5.2277e-05
11730.0 5.1546e-05
11750.0 5.0822e-05
11770.0 5.0084e-05
11790.0 4.9337e-05
11810.0 4.8599e-05
11830.0 4.7863e-05
11850.0 4.7113e-05
11870.0 4.6378e-05
11890.0 4.5663e-05
11910.0 4.4952e-05
11930.0 4.4254e-05
11950.0 4.3586e-05
11970.0 4.2939e-05
11990.0 4.2307e-05
12010.0 4.171e-05
12030.0 4.1147e-05
12050.0 4.0611e-05
12070.0 4.0106e-05
12090.0 3.9641e-05
12110.0 3.9207e-05
12130.0 3.8804e-05
12150.0 3.8434e-05
12170.0 3.8092e-05
12190.0 3.7777e-05
12210.0 3.7487e-05
12230.0 3.7214e-05
12250.0 3.6957e-05
12270.0 3.6716e-05
12290.0 3.6479e-05
12310.0 3.6244e-05
12330.0 3.6012e-05
12350.0 3.5776e-05
12370.0 3.5532e-05
12390.0 3.5279e-05
12410.0 3.5015e-05
12430.0 3.4735e-05
12450.0 3.444e-05
12470.0 3.4127e-05
12490.0 3.3795e-05
12510.0 3.3449e-05
12530.0 3.3082e-05
12550.0 3.2692e-05
12570.0 3.2289e-05
12590.0 3.187e-05
12610.0 3.1426e-05
12630.0 3.0965e-05
12650.0 3.0504e-05
12670.0 3.0024e-05
12690.0 2.9528e-05
12710.0 2.9033e-05
12730.0 2.8537e-05
12750.0 2.8019e-05
12770.0 2.7507e-05
12790.0 2.7005e-05
12810.0 2.65e-05
12830.0 2.599e-05
12850.0 2.5504e-05
12870.0 2.503e-05
12890.0 2.4555e-05
12910.0 2.4101e-05
12930.0 2.3673e-05
12950.0 2.3254e-05
12970.0 2.2854e-05
12990.0 2.2493e-05
13010.0 2.2158e-05
13030.0 2.1848e-05
13050.0 2.1572e-05
13070.0 2.1334e-05
13090.0 2.1122e-05
13110.0 2.0943e-05
13130.0 2.0798e-05
13150.0 2.068e-05
13170.0 2.059e-05
13190.0 2.0526e-05
13210.0 2.0484e-05
13230.0 2.0463e-05
13250.0 2.046e-05
13270.0 2.047e-05
13290.0 2.0493e-05
13310.0 2.0529e-05
13330.0 2.057e-05
13350.0 2.0614e-05
13370.0 2.0662e-05
13390.0 2.0708e-05
13410.0 2.0745e-05
13430.0 2.0775e-05
13450.0 2.0796e-05
13470.0 2.0804e-05
13490.0 2.0801e-05
13510.0 2.0784e-05
13530.0 2.0753e-05
13550.0 2.0714e-05
13570.0 2.0664e-05
13590.0 2.0603e-05
13610.0 2.0537e-05
13630.0 2.0468e-05
13650.0 2.0389e-05
13670.0 2.0305e-05
13690.0 2.0218e-05
13710.0 2.0124e-05
13730.0 2.0014e-05
13750.0 1.9904e-05
13770.0 1.9786e-05
13790.0 1.9653e-05
13810.0 1.9509e-05
13830.0 1.9364e-05
13850.0 1.9204e-05
13870.0 1.903e-05
13890.0 1.8857e-05
13910.0 1.8682e-05
13930.0 1.8494e-05
13950.0 1.8308e-05
13970.0 1.8136e-05
13990.0 1.7961e-05
14010.0 1.7788e-05
14030.0 1.7631e-05
14050.0 1.7485e-05
14070.0 1.7338e-05
14090.0 1.7208e-05
14110.0 1.7094e-05
14130.0 1.6987e-05
14150.0 1.6886e-05
14170.0 1.6803e-05
14190.0 1.673e-05
14210.0 1.6658e-05
14230.0 1.6596e-05
14250.0 1.6545e-05
14270.0 1.6493e-05
14290.0 1.6445e-05
14310.0 1.6409e-05
14330.0 1.6377e-05
14350.0 1.6346e-05
14370.0 1.6323e-05
14390.0 1.6311e-05
14410.0 1.6299e-05
14430.0 1.6293e-05
14450.0 1.6297e-05
14470.0 1.6306e-05
14490.0 1.6317e-05
14510.0 1.6335e-05
14530.0 1.636e-05
14550.0 1.6385e-05
14570.0 1.6412e-05
14590.0 1.6444e-05
14610.0 1.6474e-05
14630.0 1.6502e-05
14650.0 1.6533e-05
14670.0 1.6563e-05
14690.0 1.659e-05
14710.0 1.6614e-05
14730.0 1.6641e-05
14750.0 1.6665e-05
14770.0 1.6683e-05
14790.0 1.6701e-05
14810.0 1.6717e-05
14830.0 1.6724e-05
14850.0 1.6728e-05
14870.0 1.6731e-05
14890.0 1.673e-05
14910.0 1.6724e-05
14930.0 1.6721e-05
14950.0 1.6722e-05
14970.0 1.6723e-05
14990.0 1.6732e-05
15010.0 1.6751e-05
15030.0 1.6777e-05
15050.0 1.6807e-05
15070.0 1.6848e-05
15090.0 1.6893e-05
15110.0 1.6939e-05
15130.0 1.6987e-05
15150.0 1.7036e-05
15170.0 1.7084e-05
15190.0 1.7129e-05
15210.0 1.7176e-05
15230.0 1.7221e-05
15250.0 1.7263e-05
15270.0 1.7304e-05
15290.0 1.7346e-05
15310.0 1.7385e-05
15330.0 1.7422e-05
15350.0 1.7459e-05
15370.0 1.7494e-05
15390.0 1.7526e-05
15410.0 1.7557e-05
15430.0 1.7588e-05
15450.0 1.7616e-05
15470.0 1.7642e-05
15490.0 1.7668e-05
15510.0 1.7692e-05
15530.0 1.7713e-05
15550.0 1.7732e-05
15570.0 1.7752e-05
15590.0 1.7768e-05
15610.0 1.7781e-05
15630.0 1.7795e-05
15650.0 1.7806e-05
15670.0 1.7814e-05
15690.0 1.7822e-05
15710.0 1.7829e-05
15730.0 1.7832e-05
15750.0 1.7833e-05
15770.0 1.7834e-05
15790.0 1.7833e-05
15810.0 1.7827e-05
15830.0 1.7822e-05
15850.0 1.7816e-05
15870.0 1.7806e-05
15890.0 1.7794e-05
15910.0 1.7783e-05
15930.0 1.7769e-05
15950.0 1.7751e-05
15970.0 1.7733e-05
15990.0 1.7713e-05
16010.0 1.7691e-05
16030.0 1.7666e-05
16050.0 1.7642e-05
16070.0 1.7615e-05
16090.0 1.7585e-05
16110.0 1.7555e-05
16130.0 1.7524e-05
16150.0 1.7489e-05
16170.0 1.7452e-05
16190.0 1.7416e-05
16210.0 1.7377e-05
16230.0 1.7335e-05
16250.0 1.7294e-05
16270.0 1.7251e-05
16290.0 1.7205e-05
16310.0 1.7158e-05
16330.0 1.711e-05
16350.0 1.7061e-05
16370.0 1.7007e-05
16390.0 1.6955e-05
16410.0 1.6902e-05
16430.0 1.6846e-05
16450.0 1.6789e-05
16470.0 1.6732e-05
16490.0 1.6672e-05
16510.0 1.661e-05
16530.0 1.6549e-05
16550.0 1.6486e-05
16570.0 1.6421e-05
16590.0 1.6354e-05
16610.0 1.6289e-05
16630.0 1.6221e-05
16650.0 1.6151e-05
16670.0 1.6082e-05
16690.0 1.6012e-05
16710.0 1.5938e-05
16730.0 1.5865e-05
16750.0 1.5792e-05
16770.0 1.5717e-05
16790.0 1.564e-05
16810.0 1.5564e-05
16830.0 1.5487e-05
16850.0 1.5408e-05
16870.0 1.5329e-05
16890.0 1.5251e-05
16910.0 1.5169e-05
16930.0 1.5086e-05
16950.0 1.5006e-05
16970.0 1.4923e-05
16990.0 1.4839e-05
17010.0 1.4756e-05
17030.0 1.4673e-05
17050.0 1.4587e-05
17070.0 1.4501e-05
17090.0 1.4416e-05
17110.0 1.433e-05
17130.0 1.4241e-05
17150.0 1.4154e-05
17170.0 1.4068e-05
17190.0 1.3979e-05
17210.0 1.3891e-05
17230.0 1.3803e-05
17250.0 1.3714e-05
17270.0 1.3624e-05
17290.0 1.3535e-05
17310.0 1.3446e-05
17330.0 1.3355e-05
17350.0 1.3264e-05
17370.0 1.3176e-05
17390.0 1.3085e-05
17410.0 1.2994e-05
17430.0 1.2904e-05
17450.0 1.2815e-05
17470.0 1.2722e-05
17490.0 1.2631e-05
17510.0 1.2541e-05
17530.0 1.2451e-05
17550.0 1.2359e-05
17570.0 1.2269e-05
17590.0 1.2179e-05
17610.0 1.2088e-05
17630.0 1.1997e-05
17650.0 1.1908e-05
17670.0 1.1818e-05
17690.0 1.1726e-05
17710.0 1.1637e-05
17730.0 1.1548e-05
17750.0 1.1457e-05
17770.0 1.1368e-05
17790.0 1.128e-05
17810.0 1.1191e-05
17830.0 1.1101e-05
17850.0 1.1013e-05
17870.0 1.0926e-05
17890.0 1.0837e-05
17910.0 1.0749e-05
17930.0 1.0663e-05
17950.0 1.0575e-05
17970.0 1.0488e-05
17990.0 1.0403e-05
18010.0 1.0317e-05
18030.0 1.023e-05
18050.0 1.0145e-05
18070.0 1.0061e-05
18090.0 9.9764e-06
18110.0 9.8914e-06
18130.0 9.8088e-06
18150.0 9.7261e-06
18170.0 9.6425e-06
18190.0 9.5602e-06
18210.0 9.4793e-06
18230.0 9.397e-06
18250.0 9.315e-06
18270.0 9.2353e-06
18290.0 9.1555e-06
18310.0 9.0751e-06
18330.0 8.9963e-06
18350.0 8.9187e-06
18370.0 8.8398e-06
18390.0 8.7617e-06
18410.0 8.6853e-06
18430.0 8.6088e-06
18450.0 8.5313e-06
18470.0 8.456e-06
18490.0 8.3818e-06
18510.0 8.3068e-06
18530.0 8.2324e-06
18550.0 8.16e-06
18570.0 8.087e-06
18590.0 8.0134e-06
18610.0 7.9418e-06
18630.0 7.8711e-06
18650.0 7.7997e-06
18670.0 7.7287e-06
18690.0 7.6602e-06
18710.0 7.5911e-06
18730.0 7.5218e-06
18750.0 7.4542e-06
18770.0 7.3875e-06
18790.0 7.3193e-06
18810.0 7.2526e-06
18830.0 7.1876e-06
18850.0 7.1222e-06
18870.0 7.0568e-06
18890.0 6.9932e-06
18910.0 6.9303e-06
18930.0 6.8665e-06
18950.0 6.8038e-06
18970.0 6.7426e-06
18990.0 6.6811e-06
19010.0 6.6188e-06
19030.0 6.5593e-06
19050.0 6.5e-06
19070.0 6.4402e-06
19090.0 6.3815e-06
19110.0 6.3244e-06
19130.0 6.2663e-06
19150.0 6.2085e-06
19170.0 6.1525e-06
19190.0 6.0968e-06
19210.0 6.0404e-06
19230.0 5.9852e-06
19250.0 5.9318e-06
19270.0 5.8776e-06
19290.0 5.8238e-06
19310.0 5.7715e-06
19330.0 5.7195e-06
19350.0 5.6663e-06
19370.0 5.615e-06
19390.0 5.5647e-06
19410.0 5.5139e-06
19430.0 5.4633e-06
19450.0 5.4145e-06
19470.0 5.3658e-06
19490.0 5.3166e-06
19510.0 5.2686e-06
19530.0 5.2216e-06
19550.0 5.1737e-06
19570.0 5.1261e-06
19590.0 5.0805e-06
19610.0 5.0348e-06
19630.0 4.9886e-06
19650.0 4.9438e-06
19670.0 4.8999e-06
19690.0 4.855e-06
19710.0 4.8107e-06
19730.0 4.7678e-06
19750.0 4.7247e-06
19770.0 4.6809e-06
19790.0 4.6388e-06
19810.0 4.5974e-06
19830.0 4.5553e-06
19850.0 4.5138e-06
19870.0 4.4738e-06
19890.0 4.4332e-06
19910.0 4.3926e-06
19930.0 4.3541e-06
19950.0 4.3168e-06
19970.0 4.2802e-06
19990.0 4.2458e-06
20010.0 4.2148e-06
20030.0 4.1856e-06
20050.0 4.1591e-06
20070.0 4.136e-06
20090.0 4.1156e-06
20110.0 4.0974e-06
20130.0 4.082e-06
20150.0 4.069e-06
20170.0 4.0578e-06
20190.0 4.0485e-06
20210.0 4.0406e-06
20230.0 4.0341e-06
20250.0 4.0287e-06
20270.0 4.0241e-06
20290.0 4.0199e-06
20310.0 4.0162e-06
20330.0 4.0127e-06
20350.0 4.0088e-06
20370.0 4.0045e-06
20390.0 4e-06
20410.0 3.9949e-06
20430.0 3.9891e-06
20450.0 3.9829e-06
20470.0 3.9761e-06
20490.0 3.9688e-06
20510.0 3.9611e-06
20530.0 3.9531e-06
20550.0 3.9449e-06
20570.0 3.9365e-06
20590.0 3.9281e-06
20610.0 3.9198e-06
20630.0 3.9115e-06
20650.0 3.9033e-06
20670.0 3.8952e-06
20690.0 3.887e-06
20710.0 3.8787e-06
20730.0 3.8703e-06
20750.0 3.8615e-06
20770.0 3.8522e-06
20790.0 3.8422e-06
20810.0 3.8315e-06
20830.0 3.8198e-06
20850.0 3.8071e-06
20870.0 3.7931e-06
20890.0 3.7778e-06
20910.0 3.7612e-06
20930.0 3.7433e-06
20950.0 3.7238e-06
20970.0 3.7031e-06
20990.0 3.6812e-06
21010.0 3.6578e-06
21030.0 3.6332e-06
21050.0 3.6079e-06
21070.0 3.5815e-06
21090.0 3.5538e-06
21110.0 3.5258e-06
21130.0 3.4972e-06
21150.0 3.4674e-06
21170.0 3.437e-06
21190.0 3.4064e-06
21210.0 3.3745e-06
21230.0 3.3415e-06
21250.0 3.3081e-06
21270.0 3.2738e-06
21290.0 3.2379e-06
21310.0 3.201e-06
21330.0 3.1633e-06
21350.0 3.1239e-06
21370.0 3.0829e-06
21390.0 3.0552e-06
21410.0 3.0266e-06
21430.0 2.9963e-06
21450.0 2.9654e-06
21470.0 2.934e-06
21490.0 2.9013e-06
21510.0 2.8674e-06
21530.0 2.8333e-06
21550.0 2.7983e-06
21570.0 2.7618e-06
21590.0 2.7248e-06
21610.0 2.6874e-06
21630.0 2.6488e-06
21650.0 2.6089e-06
21670.0 2.5693e-06
21690.0 2.5287e-06
21710.0 2.4868e-06
21730.0 2.4445e-06
21750.0 2.4019e-06
21770.0 2.3576e-06
21790.0 2.3126e-06
21810.0 2.2675e-06
21830.0 2.2214e-06
21850.0 2.1739e-06
21870.0 2.1262e-06
21890.0 2.0783e-06
21910.0 2.029e-06
21930.0 1.979e-06
21950.0 1.9291e-06
21970.0 1.8782e-06
21990.0 1.8261e-06
22010.0 1.7742e-06
22030.0 1.7222e-06
22050.0 1.6693e-06
22070.0 1.6383e-06
22090.0 1.6476e-06
22110.0 1.6568e-06
22130.0 1.6661e-06
22150.0 1.6751e-06
22170.0 1.6839e-06
22190.0 1.6928e-06
22210.0 1.7015e-06
22230.0 1.71e-06
22250.0 1.7184e-06
22270.0 1.7268e-06
22290.0 1.735e-06
22310.0 1.7431e-06
22330.0 1.7513e-06
22350.0 1.7594e-06
22370.0 1.7675e-06
22390.0 1.7756e-06
22410.0 1.7838e-06
22430.0 1.792e-06
22450.0 1.8002e-06
22470.0 1.8086e-06
22490.0 1.817e-06
22510.0 1.8255e-06
22530.0 1.8341e-06
22550.0 1.8428e-06
22570.0 1.8516e-06
22590.0 1.8605e-06
22610.0 1.8695e-06
22630.0 1.8787e-06
22650.0 1.8878e-06
22670.0 1.8971e-06
22690.0 1.9065e-06
22710.0 1.916e-06
22730.0 1.9256e-06
22750.0 1.9352e-06
22770.0 1.945e-06
22790.0 1.9548e-06
