#lamb flux
1010.0 1.8376e-08
1030.0 2.0107e-08
1050.0 2.2099e-08
1070.0 2.434e-08
1090.0 2.6887e-08
1110.0 2.9498e-08
1130.0 3.2127e-08
1150.0 3.488e-08
1170.0 3.772e-08
1190.0 4.0413e-08
1210.0 4.3143e-08
1230.0 4.5963e-08
1250.0 4.8726e-08
1270.0 5.141e-08
1290.0 5.4245e-08
1310.0 5.7078e-08
1330.0 5.9796e-08
1350.0 6.2543e-08
1370.0 6.538e-08
1390.0 6.8145e-08
1410.0 7.0828e-08
1430.0 7.3633e-08
1450.0 7.6438e-08
1470.0 7.9148e-08
1490.0 8.1887e-08
1510.0 8.478e-08
1530.0 8.752e-08
1550.0 9.0223e-08
1570.0 9.3019e-08
1590.0 9.5817e-08
1610.0 9.8489e-08
1630.0 1.0124e-07
1650.0 1.0407e-07
1670.0 1.068e-07
1690.0 1.095e-07
1710.0 1.1229e-07
1730.0 1.151e-07
1750.0 1.1774e-07
1770.0 1.2046e-07
1790.0 1.2322e-07
1810.0 1.259e-07
1830.0 1.2851e-07
1850.0 1.3129e-07
1870.0 1.3399e-07
1890.0 1.3658e-07
1910.0 1.3922e-07
1930.0 1.4191e-07
1950.0 1.4447e-07
1970.0 1.4697e-07
1990.0 1.4956e-07
2010.0 1.5209e-07
2030.0 1.5449e-07
2050.0 1.5696e-07
2070.0 1.5946e-07
2090.0 1.6178e-07
2110.0 1.6406e-07
2130.0 1.6638e-07
2150.0 1.6861e-07
2170.0 1.7068e-07
2190.0 1.7281e-07
2210.0 1.749e-07
2230.0 1.7684e-07
2250.0 1.7871e-07
2270.0 1.8063e-07
2290.0 1.8242e-07
2310.0 1.8404e-07
2330.0 1.857e-07
2350.0 1.8735e-07
2370.0 1.8893e-07
2390.0 1.9067e-07
2410.0 1.9287e-07
2430.0 1.9551e-07
2450.0 1.9884e-07
2470.0 2.0341e-07
2490.0 2.0945e-07
2510.0 2.1645e-07
2530.0 2.2513e-07
2550.0 2.3633e-07
2570.0 2.5056e-07
2590.0 2.6927e-07
2610.0 2.9757e-07
2630.0 3.3766e-07
2650.0 3.8924e-07
2670.0 4.5482e-07
2690.0 5.3387e-07
2710.0 6.1615e-07
2730.0 6.9518e-07
2750.0 7.7081e-07
2770.0 8.3383e-07
2790.0 8.8086e-07
2810.0 9.1533e-07
2830.0 9.3941e-07
2850.0 9.524e-07
2870.0 9.5912e-07
2890.0 9.6225e-07
2910.0 9.6278e-07
2930.0 9.6159e-07
2950.0 9.6011e-07
2970.0 9.5857e-07
2990.0 9.5679e-07
3010.0 3.0398e-05
3030.0 3.0346e-05
3050.0 3.0295e-05
3070.0 3.0223e-05
3090.0 3.0134e-05
3110.0 2.9994e-05
3130.0 2.9766e-05
3150.0 2.9422e-05
3170.0 2.8903e-05
3190.0 2.8217e-05
3210.0 2.7414e-05
3230.0 2.6526e-05
3250.0 2.5617e-05
3270.0 2.4938e-05
3290.0 2.4431e-05
3310.0 2.4329e-05
3330.0 2.451e-05
3350.0 2.4962e-05
3370.0 2.5682e-05
3390.0 2.6635e-05
3410.0 2.7698e-05
3430.0 2.8908e-05
3450.0 3.0317e-05
3470.0 3.187e-05
3490.0 3.3536e-05
3510.0 3.5434e-05
3530.0 3.7502e-05
3550.0 3.9703e-05
3570.0 4.2111e-05
3590.0 4.4784e-05
3610.0 4.7732e-05
3630.0 5.065e-05
3650.0 5.3734e-05
3670.0 5.6507e-05
3690.0 5.8565e-05
3710.0 5.9608e-05
3730.0 5.9063e-05
3750.0 5.7008e-05
3770.0 5.8289e-05
3790.0 5.7351e-05
3810.0 4.6042e-05
3830.0 4.5204e-05
3850.0 6.4494e-05
3870.0 6.4302e-05
3890.0 5.0697e-05
3910.0 4.7998e-05
3930.0 5.8156e-05
3950.0 6.8279e-05
3970.0 7.4595e-05
3990.0 5.1239e-05
4010.0 0.00010845
4030.0 0.00011146
4050.0 0.00012276
4070.0 0.00013062
4090.0 0.00012227
4110.0 0.0001052
4130.0 0.00012281
4150.0 0.00016095
4170.0 0.00013054
4190.0 0.00011866
4210.0 0.0001314
4230.0 0.00015899
4250.0 0.00019097
4270.0 0.0002059
4290.0 0.00018243
4310.0 0.00017119
4330.0 0.00017041
4350.0 0.00021431
4370.0 0.00025911
4390.0 0.00020962
4410.0 0.00012026
4430.0 8.7501e-05
4450.0 8.211e-05
4470.0 5.0834e-05
4490.0 8.3466e-05
4510.0 0.00017772
4530.0 0.00021605
4550.0 0.00020297
4570.0 0.00018551
4590.0 0.000199
4610.0 0.00038177
4630.0 0.00053421
4650.0 0.00051195
4670.0 0.00045166
4690.0 0.00045708
4710.0 0.00047791
4730.0 0.00039837
4750.0 0.00026267
4770.0 0.00017988
4790.0 0.00019607
4810.0 0.00020527
4830.0 0.00020165
4850.0 0.00021874
4870.0 0.00028973
4890.0 0.00033604
4910.0 0.00026433
4930.0 0.00025507
4950.0 0.00029291
4970.0 0.00038824
4990.0 0.00052469
5010.0 0.00060764
5030.0 0.00049013
5050.0 0.0003032
5070.0 0.00021386
5090.0 0.00016254
5110.0 0.00015297
5130.0 0.00018388
5150.0 0.00018004
5170.0 0.00016969
5190.0 0.00015105
5210.0 0.00016812
5230.0 0.00020645
5250.0 0.00023964
5270.0 0.00022394
5290.0 0.0002416
5310.0 0.0003219
5330.0 0.00034712
5350.0 0.00034229
5370.0 0.00038253
5390.0 0.00047495
5410.0 0.00041157
5430.0 0.00031968
5450.0 0.00032023
5470.0 0.00036974
5490.0 0.00046156
5510.0 0.00056239
5530.0 0.00065219
5550.0 0.00059204
5570.0 0.00053156
5590.0 0.00043837
5610.0 0.00044173
5630.0 0.00049195
5650.0 0.00045351
5670.0 0.00041763
5690.0 0.00033934
5710.0 0.00034813
5730.0 0.0003372
5750.0 0.00018651
5770.0 0.00013357
5790.0 0.0001647
5810.0 0.00017395
5830.0 0.00026786
5850.0 0.00034876
5870.0 0.00037601
5890.0 0.00036032
5910.0 0.00035095
5930.0 0.00033715
5950.0 0.0003475
5970.0 0.00042994
5990.0 0.00035605
6010.0 0.00027552
6030.0 0.00022534
6050.0 0.00020089
6070.0 0.00023703
6090.0 0.0002659
6110.0 0.00027251
6130.0 0.00025285
6150.0 0.00019985
6170.0 0.00015559
6190.0 0.00018856
6210.0 0.00029671
6230.0 0.00043684
6250.0 0.00047139
6270.0 0.00036271
6290.0 0.00031048
6310.0 0.00023707
6330.0 0.00017309
6350.0 0.00016936
6370.0 0.00017781
6390.0 0.00021227
6410.0 0.00027443
6430.0 0.00033004
6450.0 0.00040386
6470.0 0.0004275
6490.0 0.00051204
6510.0 0.00057428
6530.0 0.00058571
6550.0 0.00053866
6570.0 0.00043233
6590.0 0.00041051
6610.0 0.00034037
6630.0 0.00035235
6650.0 0.0003423
6670.0 0.00029962
6690.0 0.00023275
6710.0 0.00022708
6730.0 9.9551e-05
6750.0 0.00013364
6770.0 0.0002097
6790.0 0.00027736
6810.0 0.00019799
6830.0 0.00020217
6850.0 0.0001684
6870.0 0.00015755
6890.0 0.00013316
6910.0 0.000162
6930.0 0.00015251
6950.0 0.0001823
6970.0 0.00018939
6990.0 0.00021025
7010.0 0.0002031
7030.0 0.00023249
7050.0 0.00020151
7070.0 0.0001681
7090.0 0.00018029
7110.0 0.00019129
7130.0 0.00022015
7150.0 0.00024949
7170.0 0.00027973
7190.0 0.00029871
7210.0 0.0002663
7230.0 0.00026969
7250.0 0.00028905
7270.0 0.00031028
7290.0 0.00038227
7310.0 0.00040411
7330.0 0.00037803
7350.0 0.00033857
7370.0 0.00025112
7390.0 0.00025901
7410.0 0.00031723
7430.0 0.00036153
7450.0 0.00038951
7470.0 0.0003564
7490.0 0.00028459
7510.0 0.0004588
7530.0 0.00041808
7550.0 0.00039435
7570.0 0.00026794
7590.0 0.00011892
7610.0 8.3957e-05
7630.0 0.00012746
7650.0 0.00017139
7670.0 0.00027283
7690.0 0.00030399
7710.0 0.00027472
7730.0 0.00027269
7750.0 0.00035799
7770.0 0.00036794
7790.0 0.00033644
7810.0 0.00027198
7830.0 0.00029472
7850.0 0.000323
7870.0 0.00031583
7890.0 0.00024689
7910.0 0.00016595
7930.0 0.00017194
7950.0 0.00015533
7970.0 0.00013085
7990.0 0.0001183
8010.0 6.2159e-05
8030.0 5.6726e-05
8050.0 6.1593e-05
8070.0 6.9813e-05
8090.0 8.5727e-05
8110.0 8.0407e-05
8130.0 4.7049e-05
8150.0 4.9016e-05
8170.0 2.6654e-05
8190.0 1.5389e-05
8210.0 4.3508e-05
8230.0 5.286e-05
8250.0 1.9361e-05
8270.0 1.4933e-05
8290.0 3.1227e-05
8310.0 2.782e-05
8330.0 1.6976e-05
8350.0 1.3715e-05
8370.0 2.8254e-06
8390.0 1.4652e-05
8410.0 1.6905e-05
8430.0 2.1015e-05
8450.0 2.3659e-05
8470.0 4.0393e-05
8490.0 3.2626e-05
8510.0 2.4683e-05
8530.0 1.1391e-05
8550.0 4.4762e-05
8570.0 7.045e-05
8590.0 4.7916e-05
8610.0 7.286e-05
8630.0 7.8906e-05
8650.0 4.0169e-05
8670.0 6.1386e-05
8690.0 9.8214e-05
8710.0 8.3902e-05
8730.0 9.0904e-05
8750.0 7.0894e-05
8770.0 6.2748e-05
8790.0 7.0135e-05
8810.0 7.6568e-05
8830.0 4.1471e-05
8850.0 1.6717e-05
8870.0 1.1617e-05
8890.0 3.2273e-05
8910.0 5.2074e-05
8930.0 6.9427e-05
8950.0 7.754e-05
8970.0 7.4547e-05
8990.0 5.5262e-05
9010.0 5.2563e-05
9030.0 3.9681e-05
9050.0 4.1254e-05
9070.0 4.29e-05
9090.0 4.4238e-05
9110.0 4.586e-05
9130.0 4.703e-05
9150.0 4.7865e-05
9170.0 4.8752e-05
9190.0 4.9702e-05
9210.0 5.07e-05
9230.0 5.1755e-05
9250.0 5.2818e-05
9270.0 5.3918e-05
9290.0 5.5045e-05
9310.0 5.6169e-05
9330.0 5.7308e-05
9350.0 5.8486e-05
9370.0 5.967e-05
9390.0 6.0856e-05
9410.0 6.2073e-05
9430.0 6.3324e-05
9450.0 6.456e-05
9470.0 6.5817e-05
9490.0 6.7108e-05
9510.0 6.8408e-05
9530.0 6.9707e-05
9550.0 7.1053e-05
9570.0 7.2418e-05
9590.0 7.378e-05
9610.0 7.5163e-05
9630.0 7.6583e-05
9650.0 7.8011e-05
9670.0 7.9434e-05
9690.0 8.0898e-05
9710.0 8.2383e-05
9730.0 8.3865e-05
9750.0 8.5368e-05
9770.0 8.6921e-05
9790.0 8.8463e-05
9810.0 9.0011e-05
9830.0 9.1594e-05
9850.0 9.3197e-05
9870.0 9.4788e-05
9890.0 9.6405e-05
9910.0 9.8056e-05
9930.0 9.9703e-05
9950.0 0.00010136
9970.0 0.00010304
9990.0 0.00010475
10010.0 9.3318e-05
10030.0 9.481e-05
10050.0 9.6323e-05
10070.0 9.782e-05
10090.0 9.9329e-05
10110.0 0.00010087
10130.0 0.00010242
10150.0 0.00010395
10170.0 0.00010549
10190.0 0.00010706
10210.0 0.0001086
10230.0 0.00011014
10250.0 0.0001117
10270.0 0.00011326
10290.0 0.0001148
10310.0 0.00011636
10330.0 0.00011793
10350.0 0.00011948
10370.0 0.00012101
10390.0 0.00012257
10410.0 0.00012411
10430.0 0.00012562
10450.0 0.00012714
10470.0 0.00012867
10490.0 0.00013017
10510.0 0.00013165
10530.0 0.00013315
10550.0 0.00013463
10570.0 0.00013607
10590.0 0.00013752
10610.0 0.00013896
10630.0 0.00014036
10650.0 0.00014175
10670.0 0.00014315
10690.0 0.00014451
10710.0 0.00014584
10730.0 0.00014717
10750.0 0.0001485
10770.0 0.00014976
10790.0 0.00015101
10810.0 0.00015225
10830.0 0.00015346
10850.0 0.0001546
10870.0 0.00015571
10890.0 0.00015672
10910.0 0.00015754
10930.0 0.00015812
10950.0 0.00015832
10970.0 0.000158
10990.0 0.00015713
11010.0 0.00015621
11030.0 0.00015383
11050.0 0.00015085
11070.0 0.00014723
11090.0 0.00014285
11110.0 0.0001383
11130.0 0.00013355
11150.0 0.00012846
11170.0 0.00012322
11190.0 0.00011817
11210.0 0.00011298
11230.0 0.0001077
11250.0 0.00010268
11270.0 9.7873e-05
11290.0 9.3087e-05
11310.0 8.8566e-05
11330.0 8.4581e-05
11350.0 8.0814e-05
11370.0 7.732e-05
11390.0 7.4271e-05
11410.0 7.1572e-05
11430.0 6.9033e-05
11450.0 6.68e-05
11470.0 6.4825e-05
11490.0 6.2954e-05
11510.0 6.1125e-05
11530.0 5.9404e-05
11550.0 5.7689e-05
11570.0 5.5873e-05
11590.0 5.4008e-05
11610.0 5.2126e-05
11630.0 5.0108e-05
11650.0 4.7976e-05
11670.0 4.5889e-05
11690.0 4.3789e-05
11710.0 4.1638e-05
11730.0 3.956e-05
11750.0 3.7632e-05
11770.0 3.5743e-05
11790.0 3.3965e-05
11810.0 3.2383e-05
11830.0 3.0952e-05
11850.0 2.9619e-05
11870.0 2.8478e-05
11890.0 2.7504e-05
11910.0 2.6626e-05
11930.0 2.585e-05
11950.0 2.518e-05
11970.0 2.4567e-05
11990.0 2.3981e-05
12010.0 2.3431e-05
12030.0 2.2902e-05
12050.0 2.2362e-05
12070.0 2.1809e-05
12090.0 2.1275e-05
12110.0 2.0736e-05
12130.0 2.0194e-05
12150.0 1.9682e-05
12170.0 1.9215e-05
12190.0 1.878e-05
12210.0 1.8421e-05
12230.0 1.8154e-05
12250.0 1.7982e-05
12270.0 1.7925e-05
12290.0 1.7988e-05
12310.0 1.8162e-05
12330.0 1.8472e-05
12350.0 1.8904e-05
12370.0 1.9424e-05
12390.0 2.0048e-05
12410.0 2.0804e-05
12430.0 2.1579e-05
12450.0 2.2387e-05
12470.0 2.3254e-05
12490.0 2.4125e-05
12510.0 2.4936e-05
12530.0 2.574e-05
12550.0 2.6512e-05
12570.0 2.7182e-05
12590.0 2.7757e-05
12610.0 2.826e-05
12630.0 2.8642e-05
12650.0 2.8878e-05
12670.0 2.9004e-05
12690.0 2.9004e-05
12710.0 2.8872e-05
12730.0 2.8625e-05
12750.0 2.8252e-05
12770.0 2.7772e-05
12790.0 2.7209e-05
12810.0 2.6556e-05
12830.0 2.5816e-05
12850.0 2.505e-05
12870.0 2.4247e-05
12890.0 2.3391e-05
12910.0 2.2526e-05
12930.0 2.1678e-05
12950.0 2.0802e-05
12970.0 1.9916e-05
12990.0 1.9079e-05
13010.0 1.8255e-05
13030.0 1.7425e-05
13050.0 1.6628e-05
13070.0 1.588e-05
13090.0 1.5129e-05
13110.0 1.44e-05
13130.0 1.3724e-05
13150.0 1.3079e-05
13170.0 1.2444e-05
13190.0 1.1871e-05
13210.0 1.1358e-05
13230.0 1.0882e-05
13250.0 1.046e-05
13270.0 1.0112e-05
13290.0 9.8247e-06
13310.0 9.6014e-06
13330.0 9.4595e-06
13350.0 9.3937e-06
13370.0 9.4063e-06
13390.0 9.5035e-06
13410.0 9.6662e-06
13430.0 9.9008e-06
13450.0 1.021e-05
13470.0 1.0567e-05
13490.0 1.0957e-05
13510.0 1.1409e-05
13530.0 1.1878e-05
13550.0 1.2334e-05
13570.0 1.2794e-05
13590.0 1.325e-05
13610.0 1.3664e-05
13630.0 1.4031e-05
13650.0 1.4374e-05
13670.0 1.4665e-05
13690.0 1.4896e-05
13710.0 1.5081e-05
13730.0 1.5221e-05
13750.0 1.5299e-05
13770.0 1.533e-05
13790.0 1.5318e-05
13810.0 1.5261e-05
13830.0 1.5167e-05
13850.0 1.5034e-05
13870.0 1.4864e-05
13890.0 1.4667e-05
13910.0 1.4444e-05
13930.0 1.4186e-05
13950.0 1.3904e-05
13970.0 1.3617e-05
13990.0 1.3306e-05
14010.0 1.2976e-05
14030.0 1.2649e-05
14050.0 1.232e-05
14070.0 1.1975e-05
14090.0 1.1644e-05
14110.0 1.1334e-05
14130.0 1.1033e-05
14150.0 1.0749e-05
14170.0 1.0505e-05
14190.0 1.0293e-05
14210.0 1.011e-05
14230.0 9.9709e-06
14250.0 9.8765e-06
14270.0 9.8235e-06
14290.0 9.8187e-06
14310.0 9.859e-06
14330.0 9.9421e-06
14350.0 1.0071e-05
14370.0 1.0237e-05
14390.0 1.0431e-05
14410.0 1.0663e-05
14430.0 1.0923e-05
14450.0 1.1193e-05
14470.0 1.1479e-05
14490.0 1.1787e-05
14510.0 1.2088e-05
14530.0 1.238e-05
14550.0 1.2676e-05
14570.0 1.2966e-05
14590.0 1.3236e-05
14610.0 1.35e-05
14630.0 1.3766e-05
14650.0 1.4016e-05
14670.0 1.4261e-05
14690.0 1.4515e-05
14710.0 1.4783e-05
14730.0 1.505e-05
14750.0 1.5343e-05
14770.0 1.5672e-05
14790.0 1.6026e-05
14810.0 1.6407e-05
14830.0 1.6855e-05
14850.0 1.7339e-05
14870.0 1.7844e-05
14890.0 1.8386e-05
14910.0 1.8961e-05
14930.0 1.9515e-05
14950.0 2.0034e-05
14970.0 2.0528e-05
14990.0 2.0947e-05
15010.0 2.1274e-05
15030.0 2.1524e-05
15050.0 2.17e-05
15070.0 2.1801e-05
15090.0 2.1855e-05
15110.0 2.1878e-05
15130.0 2.188e-05
15150.0 2.1874e-05
15170.0 2.186e-05
15190.0 2.1844e-05
15210.0 2.1828e-05
15230.0 2.1813e-05
15250.0 2.1796e-05
15270.0 2.178e-05
15290.0 2.1767e-05
15310.0 2.1753e-05
15330.0 2.1738e-05
15350.0 2.1725e-05
15370.0 2.1713e-05
15390.0 2.1699e-05
15410.0 2.1686e-05
15430.0 2.1675e-05
15450.0 2.1663e-05
15470.0 2.165e-05
15490.0 2.1639e-05
15510.0 2.1629e-05
15530.0 2.1617e-05
15550.0 2.1606e-05
15570.0 2.1597e-05
15590.0 2.1585e-05
15610.0 2.1573e-05
15630.0 2.1564e-05
15650.0 2.1554e-05
15670.0 2.1543e-05
15690.0 2.1533e-05
15710.0 2.1524e-05
15730.0 2.1513e-05
15750.0 2.1502e-05
15770.0 2.1493e-05
15790.0 2.1483e-05
15810.0 2.147e-05
15830.0 2.146e-05
15850.0 2.1451e-05
15870.0 2.1439e-05
15890.0 2.1428e-05
15910.0 2.1418e-05
15930.0 2.1407e-05
15950.0 2.1394e-05
15970.0 2.1383e-05
15990.0 2.1372e-05
16010.0 2.1359e-05
16030.0 2.1345e-05
16050.0 2.1334e-05
16070.0 2.1322e-05
16090.0 2.1307e-05
16110.0 2.1294e-05
16130.0 2.1282e-05
16150.0 2.1266e-05
16170.0 2.125e-05
16190.0 2.1237e-05
16210.0 2.1221e-05
16230.0 2.1204e-05
16250.0 2.1189e-05
16270.0 2.1174e-05
16290.0 2.1156e-05
16310.0 2.1138e-05
16330.0 2.1121e-05
16350.0 2.1103e-05
16370.0 2.1081e-05
16390.0 2.1063e-05
16410.0 2.1044e-05
16430.0 2.1023e-05
16450.0 2.1002e-05
16470.0 2.0982e-05
16490.0 2.096e-05
16510.0 2.0936e-05
16530.0 2.0914e-05
16550.0 2.0891e-05
16570.0 2.0866e-05
16590.0 2.084e-05
16610.0 2.0817e-05
16630.0 2.0791e-05
16650.0 2.0763e-05
16670.0 2.0737e-05
16690.0 2.0711e-05
16710.0 2.0681e-05
16730.0 2.0652e-05
16750.0 2.0623e-05
16770.0 2.0593e-05
16790.0 2.0561e-05
16810.0 2.0531e-05
16830.0 2.05e-05
16850.0 2.0466e-05
16870.0 2.0433e-05
16890.0 2.04e-05
16910.0 2.0365e-05
16930.0 2.0328e-05
16950.0 2.0293e-05
16970.0 2.0257e-05
16990.0 2.0219e-05
17010.0 2.0182e-05
17030.0 2.0145e-05
17050.0 2.0105e-05
17070.0 2.0064e-05
17090.0 2.0025e-05
17110.0 1.9985e-05
17130.0 1.9941e-05
17150.0 1.9899e-05
17170.0 1.9858e-05
17190.0 1.9813e-05
17210.0 1.9769e-05
17230.0 1.9725e-05
17250.0 1.968e-05
17270.0 1.9632e-05
17290.0 1.9586e-05
17310.0 1.954e-05
17330.0 1.9491e-05
17350.0 1.9441e-05
17370.0 1.9394e-05
17390.0 1.9344e-05
17410.0 1.9293e-05
17430.0 1.9242e-05
17450.0 1.9192e-05
17470.0 1.9138e-05
17490.0 1.9084e-05
17510.0 1.9033e-05
17530.0 1.8979e-05
17550.0 1.8923e-05
17570.0 1.8869e-05
17590.0 1.8815e-05
17610.0 1.8757e-05
17630.0 1.87e-05
17650.0 1.8644e-05
17670.0 1.8587e-05
17690.0 1.8526e-05
17710.0 1.8468e-05
17730.0 1.841e-05
17750.0 1.8349e-05
17770.0 1.8289e-05
17790.0 1.823e-05
17810.0 1.8168e-05
17830.0 1.8105e-05
17850.0 1.8044e-05
17870.0 1.7982e-05
17890.0 1.7917e-05
17910.0 1.7853e-05
17930.0 1.7791e-05
17950.0 1.7727e-05
17970.0 1.7661e-05
17990.0 1.7597e-05
18010.0 1.7533e-05
18030.0 1.7464e-05
18050.0 1.7398e-05
18070.0 1.7333e-05
18090.0 1.7265e-05
18110.0 1.7196e-05
18130.0 1.713e-05
18150.0 1.7063e-05
18170.0 1.6993e-05
18190.0 1.6924e-05
18210.0 1.6857e-05
18230.0 1.6786e-05
18250.0 1.6715e-05
18270.0 1.6647e-05
18290.0 1.6577e-05
18310.0 1.6505e-05
18330.0 1.6435e-05
18350.0 1.6366e-05
18370.0 1.6293e-05
18390.0 1.6221e-05
18410.0 1.615e-05
18430.0 1.6079e-05
18450.0 1.6004e-05
18470.0 1.5933e-05
18490.0 1.5862e-05
18510.0 1.5788e-05
18530.0 1.5715e-05
18550.0 1.5644e-05
18570.0 1.557e-05
18590.0 1.5495e-05
18610.0 1.5422e-05
18630.0 1.5349e-05
18650.0 1.5275e-05
18670.0 1.52e-05
18690.0 1.5128e-05
18710.0 1.5054e-05
18730.0 1.4978e-05
18750.0 1.4905e-05
18770.0 1.4832e-05
18790.0 1.4755e-05
18810.0 1.468e-05
18830.0 1.4607e-05
18850.0 1.4532e-05
18870.0 1.4456e-05
18890.0 1.4382e-05
18910.0 1.4309e-05
18930.0 1.4233e-05
18950.0 1.4158e-05
18970.0 1.4084e-05
18990.0 1.4009e-05
19010.0 1.3932e-05
19030.0 1.3858e-05
19050.0 1.3785e-05
19070.0 1.3709e-05
19090.0 1.3634e-05
19110.0 1.3561e-05
19130.0 1.3485e-05
19150.0 1.341e-05
19170.0 1.3336e-05
19190.0 1.3262e-05
19210.0 1.3186e-05
19230.0 1.3111e-05
19250.0 1.3038e-05
19270.0 1.2964e-05
19290.0 1.2889e-05
19310.0 1.2816e-05
19330.0 1.2742e-05
19350.0 1.2666e-05
19370.0 1.2592e-05
19390.0 1.252e-05
19410.0 1.2446e-05
19430.0 1.2371e-05
19450.0 1.2299e-05
19470.0 1.2226e-05
19490.0 1.2152e-05
19510.0 1.2079e-05
19530.0 1.2007e-05
19550.0 1.1933e-05
19570.0 1.1859e-05
19590.0 1.1788e-05
19610.0 1.1716e-05
19630.0 1.1642e-05
19650.0 1.1571e-05
19670.0 1.15e-05
19690.0 1.1427e-05
19710.0 1.1355e-05
19730.0 1.1285e-05
19750.0 1.1213e-05
19770.0 1.114e-05
19790.0 1.107e-05
19810.0 1.1e-05
19830.0 1.0928e-05
19850.0 1.0857e-05
19870.0 1.0786e-05
19890.0 1.0712e-05
19910.0 1.0633e-05
19930.0 1.055e-05
19950.0 1.0459e-05
19970.0 1.0351e-05
19990.0 1.0226e-05
20010.0 9.4265e-06
20030.0 9.274e-06
20050.0 9.0993e-06
20070.0 8.9131e-06
20090.0 8.7152e-06
20110.0 8.4946e-06
20130.0 8.2733e-06
20150.0 8.0554e-06
20170.0 7.8314e-06
20190.0 7.6057e-06
20210.0 7.3933e-06
20230.0 7.1868e-06
20250.0 6.9806e-06
20270.0 6.7893e-06
20290.0 6.6142e-06
20310.0 6.4474e-06
20330.0 6.291e-06
20350.0 6.1595e-06
20370.0 6.0415e-06
20390.0 5.9365e-06
20410.0 5.8496e-06
20430.0 5.7801e-06
20450.0 5.7227e-06
20470.0 5.6808e-06
20490.0 5.6539e-06
20510.0 5.6394e-06
20530.0 5.6373e-06
20550.0 5.6462e-06
20570.0 5.6641e-06
20590.0 5.6918e-06
20610.0 5.7278e-06
20630.0 5.769e-06
20650.0 5.8167e-06
20670.0 5.8727e-06
20690.0 5.9306e-06
20710.0 5.9909e-06
20730.0 6.0566e-06
20750.0 6.1253e-06
20770.0 6.1925e-06
20790.0 6.2628e-06
20810.0 6.3369e-06
20830.0 6.4098e-06
20850.0 6.4822e-06
20870.0 6.5593e-06
20890.0 6.637e-06
20910.0 6.7108e-06
20930.0 6.7868e-06
20950.0 6.865e-06
20970.0 6.9404e-06
20990.0 7.0142e-06
21010.0 7.0916e-06
21030.0 7.1668e-06
21050.0 7.2378e-06
21070.0 7.3086e-06
21090.0 7.3795e-06
21110.0 7.4436e-06
21130.0 7.5034e-06
21150.0 7.5616e-06
21170.0 7.614e-06
21190.0 7.6588e-06
21210.0 7.6993e-06
21230.0 7.7331e-06
21250.0 7.7568e-06
21270.0 7.7716e-06
21290.0 7.7769e-06
21310.0 7.7708e-06
21330.0 7.7533e-06
21350.0 7.7232e-06
21370.0 7.6793e-06
21390.0 7.6231e-06
21410.0 7.5541e-06
21430.0 7.4668e-06
21450.0 7.3682e-06
21470.0 7.2601e-06
21490.0 7.1376e-06
21510.0 7.0026e-06
21530.0 6.8646e-06
21550.0 6.7195e-06
21570.0 6.5643e-06
21590.0 6.4107e-06
21610.0 6.2613e-06
21630.0 6.111e-06
21650.0 5.9632e-06
21670.0 5.8335e-06
21690.0 5.7125e-06
21710.0 5.602e-06
21730.0 5.5092e-06
21750.0 5.435e-06
21770.0 5.375e-06
21790.0 5.3353e-06
21810.0 5.3156e-06
21830.0 5.3142e-06
21850.0 5.3323e-06
21870.0 5.368e-06
21890.0 5.4179e-06
21910.0 5.4854e-06
21930.0 5.5669e-06
21950.0 5.6569e-06
21970.0 5.7582e-06
21990.0 5.8737e-06
22010.0 5.9902e-06
22030.0 6.1097e-06
22050.0 6.2364e-06
22070.0 6.3649e-06
22090.0 6.4872e-06
22110.0 6.6117e-06
22130.0 6.7369e-06
22150.0 6.8546e-06
22170.0 6.9661e-06
22190.0 7.0775e-06
22210.0 7.1817e-06
22230.0 7.2735e-06
22250.0 7.3604e-06
22270.0 7.4408e-06
22290.0 7.5094e-06
22310.0 7.5682e-06
22330.0 7.6202e-06
22350.0 7.6601e-06
22370.0 7.6879e-06
22390.0 7.7051e-06
22410.0 7.7102e-06
22430.0 7.702e-06
22450.0 7.6815e-06
22470.0 7.647e-06
22490.0 7.5989e-06
22510.0 7.5391e-06
22530.0 7.4632e-06
22550.0 7.3712e-06
22570.0 7.2691e-06
22590.0 7.1542e-06
22610.0 7.0224e-06
22630.0 6.8798e-06
22650.0 6.7323e-06
