#lamb flux
1010.0 1.7279e-05
1030.0 1.9298e-05
1050.0 2.1574e-05
1070.0 2.4149e-05
1090.0 2.7105e-05
1110.0 3.016e-05
1130.0 3.3264e-05
1150.0 3.6547e-05
1170.0 3.9972e-05
1190.0 4.328e-05
1210.0 4.6688e-05
1230.0 5.0266e-05
1250.0 5.3847e-05
1270.0 5.7413e-05
1290.0 6.1243e-05
1310.0 6.5162e-05
1330.0 6.9035e-05
1350.0 7.3039e-05
1370.0 7.7248e-05
1390.0 8.1464e-05
1410.0 8.5669e-05
1430.0 9.0113e-05
1450.0 9.4642e-05
1470.0 9.9126e-05
1490.0 0.00010372
1510.0 0.00010857
1530.0 0.00011327
1550.0 0.00011796
1570.0 0.00012281
1590.0 0.00012766
1610.0 0.00013235
1630.0 0.00013711
1650.0 0.00014194
1670.0 0.00014659
1690.0 0.0001511
1710.0 0.00015567
1730.0 0.00016014
1750.0 0.00016423
1770.0 0.00016828
1790.0 0.00017222
1810.0 0.00017584
1830.0 0.00017918
1850.0 0.00018252
1870.0 0.00018551
1890.0 0.0001881
1910.0 0.00019051
1930.0 0.00019272
1950.0 0.00019446
1970.0 0.00019586
1990.0 0.0001971
2010.0 0.00019797
2030.0 0.0001984
2050.0 0.00019862
2070.0 0.00019862
2090.0 0.00019812
2110.0 0.0001973
2130.0 0.00019628
2150.0 0.00019491
2170.0 0.00019313
2190.0 0.00019119
2210.0 0.00018901
2230.0 0.00018647
2250.0 0.00018369
2270.0 0.00018083
2290.0 0.00017768
2310.0 0.00017426
2330.0 0.00017077
2350.0 0.00016715
2370.0 0.00016332
2390.0 0.0001594
2410.0 0.00015545
2430.0 0.00015129
2450.0 0.00014694
2470.0 0.00014245
2490.0 0.00013774
2510.0 0.00013282
2530.0 0.00012795
2550.0 0.00012352
2570.0 0.00012004
2590.0 0.0001181
2610.0 0.00011877
2630.0 0.00012247
2650.0 0.00012869
2670.0 0.0001375
2690.0 0.00014838
2710.0 0.00015916
2730.0 0.00016877
2750.0 0.00017748
2770.0 0.00018396
2790.0 0.00018792
2810.0 0.00019025
2830.0 0.00019158
2850.0 0.00019156
2870.0 0.00019103
2890.0 0.00019051
2910.0 0.00018994
2930.0 0.00018925
2950.0 0.00018891
2970.0 0.00018887
2990.0 0.00018894
3010.0 0.00043158
3030.0 0.00043334
3050.0 0.00043559
3070.0 0.00043748
3090.0 0.00043885
3110.0 0.00043801
3130.0 0.0004333
3150.0 0.00042406
3170.0 0.00040763
3190.0 0.00040845
3210.0 0.00048168
3230.0 0.00061976
3250.0 0.0009056
3270.0 0.0010223
3290.0 0.001299
3310.0 0.0012158
3330.0 0.0012849
3350.0 0.0014059
3370.0 0.0015617
3390.0 0.0017431
3410.0 0.0019349
3430.0 0.0021556
3450.0 0.0023973
3470.0 0.0026542
3490.0 0.002893
3510.0 0.0031341
3530.0 0.0034006
3550.0 0.0034998
3570.0 0.0034603
3590.0 0.0036444
3610.0 0.0036026
3630.0 0.0041725
3650.0 0.0046222
3670.0 0.004905
3690.0 0.0045897
3710.0 0.0038287
3730.0 0.0035119
3750.0 0.0031388
3770.0 0.0028145
3790.0 0.0024999
3810.0 0.002404
3830.0 0.0027166
3850.0 0.0012301
3870.0 0.0026402
3890.0 0.003358
3910.0 0.0036495
3930.0 0.0042016
3950.0 0.0045386
3970.0 0.0052184
3990.0 0.0064026
4010.0 0.0048032
4030.0 0.0039495
4050.0 0.0035108
4070.0 0.0036121
4090.0 0.0050877
4110.0 0.004864
4130.0 0.0050147
4150.0 0.0047612
4170.0 0.0045494
4190.0 0.0042605
4210.0 0.005949
4230.0 0.0063369
4250.0 0.0066662
4270.0 0.0062693
4290.0 0.0065151
4310.0 0.0073405
4330.0 0.0084732
4350.0 0.0084046
4370.0 0.0080469
4390.0 0.0068692
4410.0 0.0062204
4430.0 0.0051153
4450.0 0.0045002
4470.0 0.0050097
4490.0 0.0061479
4510.0 0.0064764
4530.0 0.007031
4550.0 0.0076348
4570.0 0.01011
4590.0 0.014544
4610.0 0.01783
4630.0 0.017785
4650.0 0.0173
4670.0 0.01885
4690.0 0.020896
4710.0 0.017217
4730.0 0.012898
4750.0 0.010328
4770.0 0.0095494
4790.0 0.0094837
4810.0 0.0090309
4830.0 0.0098657
4850.0 0.011424
4870.0 0.013034
4890.0 0.012833
4910.0 0.011286
4930.0 0.011888
4950.0 0.015131
4970.0 0.019128
4990.0 0.019971
5010.0 0.01802
5030.0 0.014527
5050.0 0.010736
5070.0 0.0086062
5090.0 0.0078096
5110.0 0.0076704
5130.0 0.0079163
5150.0 0.0078761
5170.0 0.0079031
5190.0 0.0075902
5210.0 0.0075486
5230.0 0.0082109
5250.0 0.0089453
5270.0 0.010722
5290.0 0.012494
5310.0 0.012673
5330.0 0.013151
5350.0 0.014682
5370.0 0.015897
5390.0 0.014624
5410.0 0.012767
5430.0 0.012106
5450.0 0.013852
5470.0 0.017544
5490.0 0.02122
5510.0 0.022889
5530.0 0.022731
5550.0 0.021496
5570.0 0.020531
5590.0 0.01988
5610.0 0.019887
5630.0 0.019822
5650.0 0.019648
5670.0 0.019655
5690.0 0.018706
5710.0 0.015947
5730.0 0.013693
5750.0 0.012192
5770.0 0.012335
5790.0 0.013051
5810.0 0.013856
5830.0 0.01422
5850.0 0.013713
5870.0 0.012618
5890.0 0.011383
5910.0 0.011438
5930.0 0.012308
5950.0 0.011957
5970.0 0.010727
5990.0 0.009148
6010.0 0.0074337
6030.0 0.0064451
6050.0 0.0066436
6070.0 0.0074039
6090.0 0.0076146
6110.0 0.0067702
6130.0 0.0065185
6150.0 0.0072859
6170.0 0.0086415
6190.0 0.010004
6210.0 0.010333
6230.0 0.0099636
6250.0 0.0091612
6270.0 0.00787
6290.0 0.0065675
6310.0 0.0056377
6330.0 0.0053361
6350.0 0.0055754
6370.0 0.0056927
6390.0 0.0060346
6410.0 0.007141
6430.0 0.0090691
6450.0 0.011025
6470.0 0.011886
6490.0 0.011624
6510.0 0.011702
6530.0 0.012209
6550.0 0.012171
6570.0 0.012493
6590.0 0.012583
6610.0 0.012612
6630.0 0.012744
6650.0 0.012412
6670.0 0.011564
6690.0 0.010235
6710.0 0.0091053
6730.0 0.0090995
6750.0 0.0097077
6770.0 0.010205
6790.0 0.010436
6810.0 0.010466
6830.0 0.01026
6850.0 0.0099794
6870.0 0.0093887
6890.0 0.0090653
6910.0 0.008579
6930.0 0.0086037
6950.0 0.0092749
6970.0 0.0097292
6990.0 0.01009
7010.0 0.01001
7030.0 0.0093432
7050.0 0.0081809
7070.0 0.0068535
7090.0 0.0059803
7110.0 0.0058613
7130.0 0.0061446
7150.0 0.0059034
7170.0 0.005452
7190.0 0.0055639
7210.0 0.0061746
7230.0 0.0071648
7250.0 0.007938
7270.0 0.0081381
7290.0 0.0075036
7310.0 0.0067424
7330.0 0.0062662
7350.0 0.0062185
7370.0 0.0063884
7390.0 0.0066326
7410.0 0.0071541
7430.0 0.0082698
7450.0 0.0095611
7470.0 0.010554
7490.0 0.010817
7510.0 0.010366
7530.0 0.0086406
7550.0 0.0074057
7570.0 0.0063498
7590.0 0.0057989
7610.0 0.0060902
7630.0 0.0069305
7650.0 0.0078874
7670.0 0.0087797
7690.0 0.009389
7710.0 0.010024
7730.0 0.0107
7750.0 0.011326
7770.0 0.011418
7790.0 0.011453
7810.0 0.011759
7830.0 0.012138
7850.0 0.011945
7870.0 0.011514
7890.0 0.01109
7910.0 0.010454
7930.0 0.010231
7950.0 0.0099046
7970.0 0.009783
7990.0 0.0096902
8010.0 0.010072
8030.0 0.010166
8050.0 0.010365
8070.0 0.010284
8090.0 0.010283
8110.0 0.009877
8130.0 0.0098425
8150.0 0.0096576
8170.0 0.0094104
8190.0 0.0092828
8210.0 0.009356
8230.0 0.0089901
8250.0 0.0085997
8270.0 0.0075983
8290.0 0.0061204
8310.0 0.0045988
8330.0 0.0034909
8350.0 0.0031694
8370.0 0.0037255
8390.0 0.0044954
8410.0 0.0049689
8430.0 0.0053009
8450.0 0.0055756
8470.0 0.0058862
8490.0 0.0065597
8510.0 0.0074396
8530.0 0.0086697
8550.0 0.010053
8570.0 0.011308
8590.0 0.012321
8610.0 0.013062
8630.0 0.013424
8650.0 0.013463
8670.0 0.013496
8690.0 0.014033
8710.0 0.014605
8730.0 0.015107
8750.0 0.014983
8770.0 0.015128
8790.0 0.014995
8810.0 0.014026
8830.0 0.013487
8850.0 0.012647
8870.0 0.011978
8890.0 0.011614
8910.0 0.011782
8930.0 0.01117
8950.0 0.010643
8970.0 0.010441
8990.0 0.010282
9010.0 0.0099572
9030.0 0.0097246
9050.0 0.0096584
9070.0 0.0096271
9090.0 0.0095982
9110.0 0.0095705
9130.0 0.0095413
9150.0 0.0095121
9170.0 0.0094748
9190.0 0.0094356
9210.0 0.0094651
9230.0 0.0094169
9250.0 0.0093776
9270.0 0.0093419
9290.0 0.0093085
9310.0 0.009276
9330.0 0.0092443
9350.0 0.0092139
9370.0 0.0091834
9390.0 0.0091522
9410.0 0.0091216
9430.0 0.0090905
9450.0 0.0090524
9470.0 0.0090164
9490.0 0.008992
9510.0 0.008964
9530.0 0.0089347
9550.0 0.008905
9570.0 0.0088748
9590.0 0.008844
9610.0 0.0088131
9630.0 0.0087822
9650.0 0.0087512
9670.0 0.0087199
9690.0 0.0086888
9710.0 0.0086578
9730.0 0.0086265
9750.0 0.0085952
9770.0 0.0085642
9790.0 0.008533
9810.0 0.0085015
9830.0 0.0084703
9850.0 0.0084391
9870.0 0.0084075
9890.0 0.0083759
9910.0 0.0083444
9930.0 0.0083117
9950.0 0.008215
9970.0 0.0082025
9990.0 0.0081862
10010.0 0.0081676
10030.0 0.0081437
10050.0 0.0081151
10070.0 0.0080849
10090.0 0.008056
10110.0 0.008023
10130.0 0.0079924
10150.0 0.0079607
10170.0 0.0079268
10190.0 0.0078907
10210.0 0.0078575
10230.0 0.007825
10250.0 0.0077899
10270.0 0.0077551
10290.0 0.0077223
10310.0 0.0076872
10330.0 0.0076498
10350.0 0.0076151
10370.0 0.0075804
10390.0 0.0075431
10410.0 0.0075058
10430.0 0.0074712
10450.0 0.0074338
10470.0 0.0073949
10490.0 0.0073579
10510.0 0.0073208
10530.0 0.0072795
10550.0 0.0072395
10570.0 0.0072016
10590.0 0.0071611
10610.0 0.0071191
10630.0 0.0070794
10650.0 0.0070389
10670.0 0.0069948
10690.0 0.0069519
10710.0 0.0069101
10730.0 0.0068658
10750.0 0.0068187
10770.0 0.0067756
10790.0 0.0067311
10810.0 0.0066837
10830.0 0.006637
10850.0 0.0065919
10870.0 0.0065417
10890.0 0.0064905
10910.0 0.0064404
10930.0 0.0063873
10950.0 0.0063281
10970.0 0.0062666
10990.0 0.0062036
11010.0 0.0060034
11030.0 0.0059247
11050.0 0.0058489
11070.0 0.0057724
11090.0 0.0056915
11110.0 0.005618
11130.0 0.0055481
11150.0 0.0054775
11170.0 0.0054089
11190.0 0.0053461
11210.0 0.0052825
11230.0 0.0052177
11250.0 0.0051564
11270.0 0.0050969
11290.0 0.0050347
11310.0 0.0049728
11330.0 0.0049158
11350.0 0.0048572
11370.0 0.0047971
11390.0 0.0047393
11410.0 0.0046824
11430.0 0.0046204
11450.0 0.0045586
11470.0 0.0044975
11490.0 0.0044326
11510.0 0.0043627
11530.0 0.0042936
11550.0 0.0042226
11570.0 0.0041452
11590.0 0.0040659
11610.0 0.0039871
11630.0 0.0039028
11650.0 0.0038142
11670.0 0.0037291
11690.0 0.0036434
11710.0 0.0035545
11730.0 0.0034675
11750.0 0.0033857
11770.0 0.0033022
11790.0 0.0032201
11810.0 0.0031439
11830.0 0.0030708
11850.0 0.0029969
11870.0 0.002929
11890.0 0.0028668
11910.0 0.0028056
11930.0 0.0027468
11950.0 0.0026935
11970.0 0.0026422
11990.0 0.0025911
12010.0 0.0025439
12030.0 0.0025001
12050.0 0.0024571
12070.0 0.0024154
12090.0 0.0023789
12110.0 0.0023442
12130.0 0.0023113
12150.0 0.0022821
12170.0 0.002257
12190.0 0.0022337
12210.0 0.0022146
12230.0 0.0022003
12250.0 0.00219
12270.0 0.002184
12290.0 0.002183
12310.0 0.0021868
12330.0 0.0021955
12350.0 0.0022095
12370.0 0.0022279
12390.0 0.0022514
12410.0 0.002281
12430.0 0.0023136
12450.0 0.0023496
12470.0 0.0023902
12490.0 0.0024335
12510.0 0.0024768
12530.0 0.0025224
12550.0 0.0025692
12570.0 0.0026137
12590.0 0.0026558
12610.0 0.0026968
12630.0 0.0027337
12650.0 0.0027643
12670.0 0.0027906
12690.0 0.0028114
12710.0 0.0028255
12730.0 0.0028335
12750.0 0.0028353
12770.0 0.0028308
12790.0 0.0028209
12810.0 0.0028055
12830.0 0.0027849
12850.0 0.0027615
12870.0 0.0027353
12890.0 0.0027057
12910.0 0.0026748
12930.0 0.0026441
12950.0 0.0026117
12970.0 0.0025786
12990.0 0.0025473
13010.0 0.0025165
13030.0 0.0024851
13050.0 0.0024547
13070.0 0.0024258
13090.0 0.002396
13110.0 0.0023662
13130.0 0.0023374
13150.0 0.0023088
13170.0 0.0022789
13190.0 0.0022504
13210.0 0.0022235
13230.0 0.0021968
13250.0 0.0021714
13270.0 0.002149
13290.0 0.0021289
13310.0 0.0021111
13330.0 0.0020974
13350.0 0.0020875
13370.0 0.0020812
13390.0 0.0020788
13410.0 0.0020797
13430.0 0.0020831
13450.0 0.0020885
13470.0 0.0020946
13490.0 0.0021002
13510.0 0.0021048
13530.0 0.0021068
13550.0 0.0021054
13570.0 0.0021
13590.0 0.0020898
13610.0 0.0020752
13630.0 0.0020567
13650.0 0.0020333
13670.0 0.0020063
13690.0 0.0019774
13710.0 0.0019461
13730.0 0.0019122
13750.0 0.0018798
13770.0 0.0018483
13790.0 0.0018169
13810.0 0.0017876
13830.0 0.0017615
13850.0 0.0017369
13870.0 0.0017146
13890.0 0.0016955
13910.0 0.0016789
13930.0 0.001664
13950.0 0.0016513
13970.0 0.001641
13990.0 0.0016318
14010.0 0.0016237
14030.0 0.0016168
14050.0 0.0016106
14070.0 0.0016045
14090.0 0.0015986
14110.0 0.0015928
14130.0 0.0015865
14150.0 0.0015796
14170.0 0.0015723
14190.0 0.0015644
14210.0 0.0015555
14230.0 0.0015461
14250.0 0.0015365
14270.0 0.0015262
14290.0 0.0015156
14310.0 0.0015057
14330.0 0.0014961
14350.0 0.0014869
14370.0 0.0014786
14390.0 0.0014716
14410.0 0.0014653
14430.0 0.0014601
14450.0 0.001456
14470.0 0.0014528
14490.0 0.0014504
14510.0 0.0014487
14530.0 0.0014475
14550.0 0.0014469
14570.0 0.0014468
14590.0 0.0014471
14610.0 0.001448
14630.0 0.0014497
14650.0 0.0014521
14670.0 0.0014554
14690.0 0.0014601
14710.0 0.0014662
14730.0 0.0014733
14750.0 0.001482
14770.0 0.0014927
14790.0 0.0015048
14810.0 0.0015182
14830.0 0.0015348
14850.0 0.0015531
14870.0 0.0015727
14890.0 0.0015945
14910.0 0.0016184
14930.0 0.001642
14950.0 0.0016645
14970.0 0.0016865
14990.0 0.0017052
15010.0 0.0017196
15030.0 0.0017303
15050.0 0.0017374
15070.0 0.0017404
15090.0 0.001741
15110.0 0.00174
15130.0 0.0017377
15150.0 0.0017349
15170.0 0.0017318
15190.0 0.0017284
15210.0 0.001725
15230.0 0.0017216
15250.0 0.0017182
15270.0 0.0017147
15290.0 0.0017113
15310.0 0.0017079
15330.0 0.0017044
15350.0 0.001701
15370.0 0.0016975
15390.0 0.001694
15410.0 0.0016905
15430.0 0.0016871
15450.0 0.0016836
15470.0 0.0016801
15490.0 0.0016766
15510.0 0.0016732
15530.0 0.0016696
15550.0 0.0016661
15570.0 0.0016627
15590.0 0.0016592
15610.0 0.0016556
15630.0 0.0016521
15650.0 0.0016486
15670.0 0.0016451
15690.0 0.0016416
15710.0 0.0016381
15730.0 0.0016345
15750.0 0.001631
15770.0 0.0016275
15790.0 0.001624
15810.0 0.0016204
15830.0 0.0016168
15850.0 0.0016133
15870.0 0.0016098
15890.0 0.0016062
15910.0 0.0016027
15930.0 0.0015992
15950.0 0.0015956
15970.0 0.001592
15990.0 0.0015885
16010.0 0.0015849
16030.0 0.0015813
16050.0 0.0015778
16070.0 0.0015743
16090.0 0.0015707
16110.0 0.0015671
16130.0 0.0015636
16150.0 0.00156
16170.0 0.0015564
16190.0 0.0015528
16210.0 0.0015493
16230.0 0.0015457
16250.0 0.0015421
16270.0 0.0015385
16290.0 0.0015349
16310.0 0.0015314
16330.0 0.0015278
16350.0 0.0015242
16370.0 0.0015206
16390.0 0.001517
16410.0 0.0015134
16430.0 0.0015098
16450.0 0.0015062
16470.0 0.0015027
16490.0 0.0014991
16510.0 0.0014955
16530.0 0.0014919
16550.0 0.0014883
16570.0 0.0014847
16590.0 0.001481
16610.0 0.0014775
16630.0 0.0014739
16650.0 0.0014702
16670.0 0.0014666
16690.0 0.0014631
16710.0 0.0014594
16730.0 0.0014558
16750.0 0.0014522
16770.0 0.0014486
16790.0 0.0014449
16810.0 0.0014413
16830.0 0.0014377
16850.0 0.0014341
16870.0 0.0014305
16890.0 0.0014269
16910.0 0.0014232
16930.0 0.0014196
16950.0 0.001416
16970.0 0.0014123
16990.0 0.0014087
17010.0 0.001405
17030.0 0.0014014
17050.0 0.0013978
17070.0 0.0013941
17090.0 0.0013905
17110.0 0.0013869
17130.0 0.0013832
17150.0 0.0013795
17170.0 0.0013759
17190.0 0.0013722
17210.0 0.0013686
17230.0 0.0013649
17250.0 0.0013613
17270.0 0.0013576
17290.0 0.0013539
17310.0 0.0013503
17330.0 0.0013466
17350.0 0.0013429
17370.0 0.0013393
17390.0 0.0013356
17410.0 0.0013319
17430.0 0.0013283
17450.0 0.0013246
17470.0 0.0013209
17490.0 0.0013172
17510.0 0.0013136
17530.0 0.0013099
17550.0 0.0013062
17570.0 0.0013025
17590.0 0.0012988
17610.0 0.0012951
17630.0 0.0012914
17650.0 0.0012878
17670.0 0.0012841
17690.0 0.0012804
17710.0 0.0012767
17730.0 0.001273
17750.0 0.0012693
17770.0 0.0012656
17790.0 0.0012619
17810.0 0.0012582
17830.0 0.0012545
17850.0 0.0012508
17870.0 0.0012472
17890.0 0.0012434
17910.0 0.0012397
17930.0 0.0012361
17950.0 0.0012324
17970.0 0.0012287
17990.0 0.001225
18010.0 0.0012213
18030.0 0.0012176
18050.0 0.0012139
18070.0 0.0012102
18090.0 0.0012065
18110.0 0.0012028
18130.0 0.0011992
18150.0 0.0011955
18170.0 0.0011918
18190.0 0.0011881
18210.0 0.0011845
18230.0 0.0011808
18250.0 0.0011771
18270.0 0.0011735
18290.0 0.0011698
18310.0 0.0011661
18330.0 0.0011625
18350.0 0.0011588
18370.0 0.0011552
18390.0 0.0011515
18410.0 0.0011479
18430.0 0.0011442
18450.0 0.0011406
18470.0 0.0011369
18490.0 0.0011333
18510.0 0.0011297
18530.0 0.0011261
18550.0 0.0011225
18570.0 0.0011189
18590.0 0.0011152
18610.0 0.0011117
18630.0 0.0011081
18650.0 0.0011045
18670.0 0.0011009
18690.0 0.0010973
18710.0 0.0010938
18730.0 0.0010902
18750.0 0.0010866
18770.0 0.0010831
18790.0 0.0010795
18810.0 0.001076
18830.0 0.0010725
18850.0 0.001069
18870.0 0.0010654
18890.0 0.0010619
18910.0 0.0010585
18930.0 0.001055
18950.0 0.0010515
18970.0 0.001048
18990.0 0.0010446
19010.0 0.0010411
19030.0 0.0010376
19050.0 0.0010342
19070.0 0.0010308
19090.0 0.0010274
19110.0 0.001024
19130.0 0.0010206
19150.0 0.0010172
19170.0 0.0010138
19190.0 0.0010104
19210.0 0.0010071
19230.0 0.0010037
19250.0 0.0010004
19270.0 0.00099705
19290.0 0.00099372
19310.0 0.00099043
19330.0 0.00098714
19350.0 0.00098383
19370.0 0.00098056
19390.0 0.00097731
19410.0 0.00097406
19430.0 0.0009708
19450.0 0.00096759
19470.0 0.00096439
19490.0 0.00096117
19510.0 0.00095798
19530.0 0.00095481
19550.0 0.00095163
19570.0 0.00094846
19590.0 0.00094533
19610.0 0.00094221
19630.0 0.00093907
19650.0 0.00093597
19670.0 0.0009329
19690.0 0.0009298
19710.0 0.00092673
19730.0 0.00092368
19750.0 0.00092064
19770.0 0.00091759
19790.0 0.00091458
19810.0 0.00091158
19830.0 0.00090856
19850.0 0.00090551
19870.0 0.00090242
19890.0 0.00089915
19910.0 0.00089553
19930.0 0.00089144
19950.0 0.00088661
19970.0 0.00088055
19990.0 0.00087307
20010.0 0.00086434
20030.0 0.00085382
20050.0 0.0008416
20070.0 0.00082844
20090.0 0.00081449
20110.0 0.00079915
20130.0 0.00078393
20150.0 0.00076912
20170.0 0.00075412
20190.0 0.00073922
20210.0 0.00072524
20230.0 0.0007117
20250.0 0.00069817
20270.0 0.00068543
20290.0 0.00067349
20310.0 0.00066179
20330.0 0.00065031
20350.0 0.00064001
20370.0 0.00063009
20390.0 0.00062043
20410.0 0.00061145
20430.0 0.00060321
20450.0 0.00059512
20470.0 0.0005876
20490.0 0.00058083
20510.0 0.00057458
20530.0 0.00056874
20550.0 0.00056361
20570.0 0.00055917
20590.0 0.00055519
20610.0 0.0005518
20630.0 0.00054903
20650.0 0.00054677
20670.0 0.00054503
20690.0 0.00054381
20710.0 0.00054301
20730.0 0.00054263
20750.0 0.00054263
20770.0 0.00054286
20790.0 0.00054336
20810.0 0.0005441
20830.0 0.00054491
20850.0 0.00054574
20870.0 0.00054667
20890.0 0.00054752
20910.0 0.00054815
20930.0 0.00054864
20950.0 0.00054893
20970.0 0.0005489
20990.0 0.00054853
21010.0 0.00054785
21030.0 0.00054677
21050.0 0.00054531
21070.0 0.00054344
21090.0 0.00054114
21110.0 0.0005385
21130.0 0.00053554
21150.0 0.00053216
21170.0 0.0005285
21190.0 0.00052467
21210.0 0.0005205
21230.0 0.00051605
21250.0 0.00051158
21270.0 0.00050701
21290.0 0.00050224
21310.0 0.00049746
21330.0 0.00049285
21350.0 0.00048815
21370.0 0.00048348
21390.0 0.00047904
21410.0 0.00047478
21430.0 0.00047052
21450.0 0.00046661
21470.0 0.00046306
21490.0 0.00045973
21510.0 0.00045672
21530.0 0.00045416
21550.0 0.00045195
21570.0 0.00045012
21590.0 0.00044875
21610.0 0.00044781
21630.0 0.00044731
21650.0 0.00044728
21670.0 0.00044761
21690.0 0.00044834
21710.0 0.00044949
21730.0 0.00045093
21750.0 0.00045257
21770.0 0.00045462
21790.0 0.00045685
21810.0 0.00045911
21830.0 0.00046149
21850.0 0.00046402
21870.0 0.00046642
21890.0 0.00046866
21910.0 0.00047092
21930.0 0.00047301
21950.0 0.00047481
21970.0 0.00047644
21990.0 0.00047793
22010.0 0.00047905
22030.0 0.00047988
22050.0 0.00048049
22070.0 0.00048081
22090.0 0.00048081
22110.0 0.00048058
22130.0 0.0004801
22150.0 0.00047934
22170.0 0.00047835
22190.0 0.00047711
22210.0 0.00047562
22230.0 0.00047394
22250.0 0.00047202
22270.0 0.00046985
22290.0 0.00046751
22310.0 0.00046497
22330.0 0.00046211
22350.0 0.00045904
22370.0 0.00045582
22390.0 0.00045231
22410.0 0.00044844
22430.0 0.00044448
22450.0 0.00044031
22470.0 0.00043576
22490.0 0.00043102
22510.0 0.00042621
22530.0 0.00042102
22550.0 0.00041555
22570.0 0.00041013
22590.0 0.00040459
22610.0 0.00039879
22630.0 0.00039301
22650.0 0.00038744
22670.0 0.00038172
22690.0 0.00037602
22710.0 0.00037062
22730.0 0.00036538
22750.0 0.00036007
22770.0 0.00035517
22790.0 0.00035064
22810.0 0.00034623
22830.0 0.00034207
22850.0 0.00033833
22870.0 0.00033482
22890.0 0.00033147
22910.0 0.00032845
22930.0 0.00032572
22950.0 0.00032313
22970.0 0.0003207
22990.0 0.00031857
23010.0 0.00031655
23030.0 0.00031461
23050.0 0.00031279
23070.0 0.00031108
23090.0 0.00030932
23110.0 0.00030759
23130.0 0.00030591
23150.0 0.00030418
23170.0 0.00030237
23190.0 0.00030055
23210.0 0.00029874
23230.0 0.00029682
23250.0 0.00029488
23270.0 0.00029298
23290.0 0.00029106
23310.0 0.0002891
23330.0 0.00028726
23350.0 0.00028549
23370.0 0.00028375
23390.0 0.0002821
23410.0 0.00028058
23430.0 0.00027912
23450.0 0.00027772
23470.0 0.00027644
23490.0 0.00027522
23510.0 0.00027403
23530.0 0.00027289
23550.0 0.00027183
23570.0 0.00027076
23590.0 0.0002697
