#lamb flux
1010.0 1.4086e-06
1030.0 1.4947e-06
1050.0 1.5938e-06
1070.0 1.7053e-06
1090.0 1.8319e-06
1110.0 1.9618e-06
1130.0 2.0926e-06
1150.0 2.2296e-06
1170.0 2.371e-06
1190.0 2.5051e-06
1210.0 2.641e-06
1230.0 2.7815e-06
1250.0 2.9192e-06
1270.0 3.053e-06
1290.0 3.1943e-06
1310.0 3.3357e-06
1330.0 3.4713e-06
1350.0 3.6084e-06
1370.0 3.7501e-06
1390.0 3.8883e-06
1410.0 4.0225e-06
1430.0 4.1628e-06
1450.0 4.3032e-06
1470.0 4.4389e-06
1490.0 4.5762e-06
1510.0 4.7213e-06
1530.0 4.8588e-06
1550.0 4.9946e-06
1570.0 5.1352e-06
1590.0 5.2759e-06
1610.0 5.4106e-06
1630.0 5.5494e-06
1650.0 5.692e-06
1670.0 5.8301e-06
1690.0 5.9665e-06
1710.0 6.1083e-06
1730.0 6.251e-06
1750.0 6.3854e-06
1770.0 6.5239e-06
1790.0 6.6653e-06
1810.0 6.8024e-06
1830.0 6.9374e-06
1850.0 7.0808e-06
1870.0 7.2208e-06
1890.0 7.3564e-06
1910.0 7.495e-06
1930.0 7.6372e-06
1950.0 7.7735e-06
1970.0 7.9086e-06
1990.0 8.0492e-06
2010.0 8.188e-06
2030.0 8.3224e-06
2050.0 8.4615e-06
2070.0 8.6048e-06
2090.0 8.7407e-06
2110.0 8.877e-06
2130.0 9.0181e-06
2150.0 9.1575e-06
2170.0 9.292e-06
2190.0 9.4323e-06
2210.0 9.5746e-06
2230.0 9.7124e-06
2250.0 9.8508e-06
2270.0 9.9963e-06
2290.0 1.0139e-05
2310.0 1.0277e-05
2330.0 1.042e-05
2350.0 1.0566e-05
2370.0 1.0708e-05
2390.0 1.0852e-05
2410.0 1.1004e-05
2430.0 1.1152e-05
2450.0 1.1294e-05
2470.0 1.1434e-05
2490.0 1.1565e-05
2510.0 1.1677e-05
2530.0 1.1787e-05
2550.0 1.1924e-05
2570.0 1.2134e-05
2590.0 1.248e-05
2610.0 1.3092e-05
2630.0 1.405e-05
2650.0 1.5344e-05
2670.0 1.7019e-05
2690.0 1.9059e-05
2710.0 2.123e-05
2730.0 2.3396e-05
2750.0 2.5597e-05
2770.0 2.7648e-05
2790.0 2.948e-05
2810.0 3.1204e-05
2830.0 3.2919e-05
2850.0 3.4501e-05
2870.0 3.6065e-05
2890.0 3.7698e-05
2910.0 3.9351e-05
2930.0 4.0955e-05
2950.0 4.2631e-05
2970.0 4.4357e-05
2990.0 4.6036e-05
3010.0 9.8826e-05
3030.0 0.00010244
3050.0 0.00010609
3070.0 0.00010958
3090.0 0.00011325
3110.0 0.00011706
3130.0 0.00012082
3150.0 0.00012455
3170.0 0.00012837
3190.0 0.00013167
3210.0 0.00013423
3230.0 0.00013624
3250.0 0.00012006
3270.0 0.000104
3290.0 7.9431e-05
3310.0 8.9009e-05
3330.0 9.5861e-05
3350.0 0.00010238
3370.0 0.00010885
3390.0 0.00011532
3410.0 0.0001218
3430.0 0.00012826
3450.0 0.00013474
3470.0 0.0001412
3490.0 0.00014666
3510.0 0.0001485
3530.0 0.00015539
3550.0 0.00018985
3570.0 0.00024067
3590.0 0.00027232
3610.0 0.00030997
3630.0 0.00028874
3650.0 0.00026412
3670.0 0.00025456
3690.0 0.00030257
3710.0 0.00038397
3730.0 0.00041276
3750.0 0.0004285
3770.0 0.00043274
3790.0 0.00042557
3810.0 0.00038627
3830.0 0.00029914
3850.0 0.00023891
3870.0 0.00023273
3890.0 0.00031761
3910.0 0.00043185
3930.0 0.00050634
3950.0 0.00053429
3970.0 0.00053153
3990.0 0.00060656
4010.0 0.00067805
4030.0 0.00063425
4050.0 0.00055485
4070.0 0.0004694
4090.0 0.00046661
4110.0 0.00052864
4130.0 0.00053652
4150.0 0.00054085
4170.0 0.00050958
4190.0 0.00048588
4210.0 0.00049188
4230.0 0.00056535
4250.0 0.00057088
4270.0 0.00056712
4290.0 0.00056174
4310.0 0.00056221
4330.0 0.00062117
4350.0 0.00071539
4370.0 0.00072699
4390.0 0.00062913
4410.0 0.00051969
4430.0 0.00044556
4450.0 0.00038336
4470.0 0.00037143
4490.0 0.00044407
4510.0 0.00049821
4530.0 0.00054619
4550.0 0.00058708
4570.0 0.00069358
4590.0 0.00098899
4610.0 0.0013248
4630.0 0.0013723
4650.0 0.0013027
4670.0 0.0013845
4690.0 0.0015188
4710.0 0.0013429
4730.0 0.00098888
4750.0 0.00075255
4770.0 0.00068511
4790.0 0.00068772
4810.0 0.00064469
4830.0 0.00070339
4850.0 0.00089301
4870.0 0.0011092
4890.0 0.00099133
4910.0 0.00087137
4930.0 0.00096673
4950.0 0.0012701
4970.0 0.0016479
4990.0 0.0016983
5010.0 0.0014632
5030.0 0.0010979
5050.0 0.00078722
5070.0 0.00066198
5090.0 0.0006279
5110.0 0.00063713
5130.0 0.00066289
5150.0 0.00065412
5170.0 0.00066666
5190.0 0.00064548
5210.0 0.00066649
5230.0 0.00071206
5250.0 0.00078387
5270.0 0.00096468
5290.0 0.0010998
5310.0 0.0011039
5330.0 0.0011478
5350.0 0.0012934
5370.0 0.0013735
5390.0 0.0012724
5410.0 0.0010879
5430.0 0.0010332
5450.0 0.0011909
5470.0 0.0015341
5490.0 0.0019014
5510.0 0.002088
5530.0 0.0021284
5550.0 0.0020255
5570.0 0.0018831
5590.0 0.0018168
5610.0 0.0018353
5630.0 0.0018746
5650.0 0.0018742
5670.0 0.0018423
5690.0 0.001787
5710.0 0.0016002
5730.0 0.0013356
5750.0 0.0011182
5770.0 0.001122
5790.0 0.0012298
5810.0 0.0013195
5830.0 0.0013593
5850.0 0.0013544
5870.0 0.0012485
5890.0 0.0010898
5910.0 0.0010634
5930.0 0.00115
5950.0 0.0011845
5970.0 0.0010823
5990.0 0.00092894
6010.0 0.00076504
6030.0 0.00064248
6050.0 0.0006327
6070.0 0.00071917
6090.0 0.00075717
6110.0 0.00069235
6130.0 0.0006408
6150.0 0.00068074
6170.0 0.00081505
6190.0 0.00097244
6210.0 0.0010574
6230.0 0.0010208
6250.0 0.00093566
6270.0 0.00080968
6290.0 0.00067123
6310.0 0.00055558
6330.0 0.00050184
6350.0 0.00052268
6370.0 0.00056664
6390.0 0.00061331
6410.0 0.00069784
6430.0 0.0008592
6450.0 0.0010821
6470.0 0.0012318
6490.0 0.0012349
6510.0 0.0012057
6530.0 0.0012286
6550.0 0.001256
6570.0 0.0012671
6590.0 0.0012671
6610.0 0.0012327
6630.0 0.0012344
6650.0 0.0012386
6670.0 0.0011909
6690.0 0.0010679
6710.0 0.00090276
6730.0 0.00086438
6750.0 0.00092893
6770.0 0.0010101
6790.0 0.0010412
6810.0 0.0010295
6830.0 0.0010154
6850.0 0.00099331
6870.0 0.00093659
6890.0 0.00088253
6910.0 0.00084345
6930.0 0.00081296
6950.0 0.00086295
6970.0 0.00093924
6990.0 0.00099064
7010.0 0.0010022
7030.0 0.00094716
7050.0 0.00082225
7070.0 0.00066661
7090.0 0.00056636
7110.0 0.00054631
7130.0 0.00057625
7150.0 0.00058339
7170.0 0.0005366
7190.0 0.0005261
7210.0 0.00057961
7230.0 0.00066562
7250.0 0.00076078
7270.0 0.00080114
7290.0 0.00075433
7310.0 0.00066931
7330.0 0.00061254
7350.0 0.00059957
7370.0 0.00061525
7390.0 0.00064298
7410.0 0.00068894
7430.0 0.0007831
7450.0 0.00091036
7470.0 0.0010394
7490.0 0.0010995
7510.0 0.0010663
7530.0 0.00092401
7550.0 0.00075372
7570.0 0.0006276
7590.0 0.00055382
7610.0 0.00057045
7630.0 0.00065983
7650.0 0.00075957
7670.0 0.00086033
7690.0 0.00094621
7710.0 0.0010089
7730.0 0.0010619
7750.0 0.0011117
7770.0 0.0011559
7790.0 0.0011614
7810.0 0.0011748
7830.0 0.0012129
7850.0 0.0012161
7870.0 0.0011847
7890.0 0.0011013
7910.0 0.0010354
7930.0 0.00098784
7950.0 0.00098781
7970.0 0.00098216
7990.0 0.00099259
8010.0 0.00098987
8030.0 0.00099465
8050.0 0.001022
8070.0 0.0010081
8090.0 0.0010091
8110.0 0.00097105
8130.0 0.00096614
8150.0 0.0009405
8170.0 0.00091508
8190.0 0.00090344
8210.0 0.00091094
8230.0 0.0008559
8250.0 0.00080328
8270.0 0.00070254
8290.0 0.00056727
8310.0 0.00044054
8330.0 0.00033883
8350.0 0.00029941
8370.0 0.00033749
8390.0 0.00039054
8410.0 0.00043194
8430.0 0.00048019
8450.0 0.00050675
8470.0 0.00053137
8490.0 0.00059157
8510.0 0.00066014
8530.0 0.00076806
8550.0 0.00090188
8570.0 0.0010229
8590.0 0.0011204
8610.0 0.0012038
8630.0 0.001264
8650.0 0.0012749
8670.0 0.0012793
8690.0 0.0013232
8710.0 0.0013496
8730.0 0.0013782
8750.0 0.0013516
8770.0 0.0013574
8790.0 0.0013398
8810.0 0.0012488
8830.0 0.0012165
8850.0 0.0011486
8870.0 0.0010982
8890.0 0.0010499
8910.0 0.0010775
8930.0 0.0010148
8950.0 0.00097808
8970.0 0.00096466
8990.0 0.00094309
9010.0 0.0009266
9030.0 0.00090217
9050.0 0.00089671
9070.0 0.00089423
9090.0 0.00089181
9110.0 0.00088952
9130.0 0.00088698
9150.0 0.00088435
9170.0 0.00088058
9190.0 0.00087548
9210.0 0.00087983
9230.0 0.00087529
9250.0 0.00087164
9270.0 0.00086822
9290.0 0.00086493
9310.0 0.00086173
9330.0 0.00085855
9350.0 0.00085541
9370.0 0.00085225
9390.0 0.00084903
9410.0 0.0008458
9430.0 0.00084251
9450.0 0.00083885
9470.0 0.00083528
9490.0 0.00083226
9510.0 0.00082903
9530.0 0.00082573
9550.0 0.00082238
9570.0 0.00081898
9590.0 0.00081554
9610.0 0.00081209
9630.0 0.00080861
9650.0 0.00080513
9670.0 0.00080163
9690.0 0.00079812
9710.0 0.00079461
9730.0 0.00079108
9750.0 0.00078756
9770.0 0.00078403
9790.0 0.0007805
9810.0 0.00077696
9830.0 0.00077343
9850.0 0.00076991
9870.0 0.00076637
9890.0 0.00076284
9910.0 0.00075931
9930.0 0.00075571
9950.0 0.00074743
9970.0 0.00074532
9990.0 0.00074295
10010.0 0.00074044
10030.0 0.00073755
10050.0 0.00073428
10070.0 0.00073079
10090.0 0.00072763
10110.0 0.00072417
10130.0 0.00072088
10150.0 0.00071754
10170.0 0.00071405
10190.0 0.0007104
10210.0 0.00070699
10230.0 0.00070366
10250.0 0.00070014
10270.0 0.00069667
10290.0 0.00069338
10310.0 0.00068993
10330.0 0.00068633
10350.0 0.00068297
10370.0 0.00067964
10390.0 0.00067612
10410.0 0.00067264
10430.0 0.00066939
10450.0 0.00066596
10470.0 0.00066244
10490.0 0.00065908
10510.0 0.00065575
10530.0 0.00065213
10550.0 0.00064865
10570.0 0.00064534
10590.0 0.00064187
10610.0 0.00063832
10630.0 0.00063496
10650.0 0.00063158
10670.0 0.00062796
10690.0 0.00062445
10710.0 0.00062106
10730.0 0.0006175
10750.0 0.00061377
10770.0 0.00061037
10790.0 0.00060689
10810.0 0.00060321
10830.0 0.00059962
10850.0 0.00059617
10870.0 0.00059234
10890.0 0.00058842
10910.0 0.00058454
10930.0 0.00058034
10950.0 0.00057551
10970.0 0.00057028
10990.0 0.00056468
11010.0 0.00050963
11030.0 0.00050287
11050.0 0.00049633
11070.0 0.00048964
11090.0 0.00048244
11110.0 0.00047578
11130.0 0.00046931
11150.0 0.00046261
11170.0 0.00045595
11190.0 0.00044975
11210.0 0.00044338
11230.0 0.00043679
11250.0 0.00043053
11270.0 0.00042446
11290.0 0.00041814
11310.0 0.00041194
11330.0 0.00040636
11350.0 0.00040077
11370.0 0.00039522
11390.0 0.00039012
11410.0 0.00038532
11430.0 0.00038029
11450.0 0.00037553
11470.0 0.00037105
11490.0 0.00036643
11510.0 0.00036154
11530.0 0.00035684
11550.0 0.00035202
11570.0 0.00034671
11590.0 0.00034121
11610.0 0.00033568
11630.0 0.00032959
11650.0 0.00032301
11670.0 0.00031657
11690.0 0.00030994
11710.0 0.00030287
11730.0 0.00029583
11750.0 0.00028914
11770.0 0.00028219
11790.0 0.00027528
11810.0 0.00026886
11830.0 0.00026269
11850.0 0.00025643
11870.0 0.00025074
11890.0 0.00024561
11910.0 0.00024061
11930.0 0.00023587
11950.0 0.00023167
11970.0 0.0002277
11990.0 0.00022379
12010.0 0.00022026
12030.0 0.00021705
12050.0 0.00021392
12070.0 0.0002109
12090.0 0.00020832
12110.0 0.00020587
12130.0 0.00020352
12150.0 0.00020146
12170.0 0.00019972
12190.0 0.00019808
12210.0 0.00019678
12230.0 0.00019589
12250.0 0.00019536
12270.0 0.00019521
12290.0 0.00019557
12310.0 0.00019641
12330.0 0.00019777
12350.0 0.00019969
12370.0 0.00020209
12390.0 0.000205
12410.0 0.00020855
12430.0 0.00021239
12450.0 0.00021654
12470.0 0.00022109
12490.0 0.00022583
12510.0 0.00023049
12530.0 0.00023527
12550.0 0.00024005
12570.0 0.00024454
12590.0 0.00024873
12610.0 0.00025274
12630.0 0.00025634
12650.0 0.00025939
12670.0 0.00026207
12690.0 0.0002643
12710.0 0.00026601
12730.0 0.00026726
12750.0 0.00026805
12770.0 0.00026837
12790.0 0.00026829
12810.0 0.0002678
12830.0 0.00026689
12850.0 0.00026573
12870.0 0.0002643
12890.0 0.00026253
12910.0 0.00026056
12930.0 0.0002585
12950.0 0.00025616
12970.0 0.00025361
12990.0 0.00025108
13010.0 0.00024843
13030.0 0.00024555
13050.0 0.00024262
13070.0 0.00023973
13090.0 0.00023661
13110.0 0.00023338
13130.0 0.00023024
13150.0 0.00022708
13170.0 0.00022378
13190.0 0.00022069
13210.0 0.00021787
13230.0 0.00021517
13250.0 0.00021275
13270.0 0.00021078
13290.0 0.00020918
13310.0 0.00020798
13330.0 0.00020731
13350.0 0.00020711
13370.0 0.00020734
13390.0 0.00020797
13410.0 0.00020886
13430.0 0.00020994
13450.0 0.0002111
13470.0 0.00021218
13490.0 0.00021305
13510.0 0.00021364
13530.0 0.00021379
13550.0 0.00021346
13570.0 0.00021262
13590.0 0.00021119
13610.0 0.0002093
13630.0 0.00020702
13650.0 0.00020425
13670.0 0.00020117
13690.0 0.000198
13710.0 0.00019465
13730.0 0.00019111
13750.0 0.00018782
13770.0 0.00018467
13790.0 0.00018157
13810.0 0.0001787
13830.0 0.00017615
13850.0 0.00017374
13870.0 0.00017152
13890.0 0.00016959
13910.0 0.00016786
13930.0 0.00016626
13950.0 0.00016483
13970.0 0.00016361
13990.0 0.00016249
14010.0 0.00016146
14030.0 0.00016056
14050.0 0.00015975
14070.0 0.00015898
14090.0 0.00015829
14110.0 0.00015766
14130.0 0.00015706
14150.0 0.00015647
14170.0 0.00015592
14190.0 0.00015538
14210.0 0.00015484
14230.0 0.00015431
14250.0 0.00015382
14270.0 0.00015333
14290.0 0.00015288
14310.0 0.00015249
14330.0 0.00015214
14350.0 0.00015184
14370.0 0.0001516
14390.0 0.00015141
14410.0 0.00015127
14430.0 0.00015115
14450.0 0.00015105
14470.0 0.00015095
14490.0 0.00015084
14510.0 0.00015069
14530.0 0.00015051
14550.0 0.0001503
14570.0 0.00015007
14590.0 0.00014983
14610.0 0.00014959
14630.0 0.00014939
14650.0 0.00014925
14670.0 0.0001492
14690.0 0.00014927
14710.0 0.00014952
14730.0 0.0001499
14750.0 0.0001505
14770.0 0.00015135
14790.0 0.00015241
14810.0 0.00015367
14830.0 0.00015531
14850.0 0.00015719
14870.0 0.00015922
14890.0 0.00016149
14910.0 0.00016398
14930.0 0.00016639
14950.0 0.00016865
14970.0 0.0001708
14990.0 0.00017254
15010.0 0.00017379
15030.0 0.0001746
15050.0 0.000175
15070.0 0.00017496
15090.0 0.00017466
15110.0 0.00017417
15130.0 0.00017355
15150.0 0.00017287
15170.0 0.00017215
15190.0 0.00017141
15210.0 0.00017067
15230.0 0.00016993
15250.0 0.00016917
15270.0 0.00016842
15290.0 0.00016768
15310.0 0.00016693
15330.0 0.00016617
15350.0 0.00016542
15370.0 0.00016467
15390.0 0.00016392
15410.0 0.00016316
15430.0 0.00016242
15450.0 0.00016166
15470.0 0.00016091
15490.0 0.00016016
15510.0 0.00015942
15530.0 0.00015866
15550.0 0.00015792
15570.0 0.00015717
15590.0 0.00015642
15610.0 0.00015568
15630.0 0.00015494
15650.0 0.0001542
15670.0 0.00015345
15690.0 0.00015271
15710.0 0.00015198
15730.0 0.00015124
15750.0 0.00015051
15770.0 0.00014978
15790.0 0.00014905
15810.0 0.00014832
15830.0 0.00014759
15850.0 0.00014687
15870.0 0.00014615
15890.0 0.00014543
15910.0 0.00014472
15930.0 0.00014401
15950.0 0.00014329
15970.0 0.00014259
15990.0 0.00014188
16010.0 0.00014118
16030.0 0.00014048
16050.0 0.00013978
16070.0 0.00013909
16090.0 0.0001384
16110.0 0.00013771
16130.0 0.00013703
16150.0 0.00013635
16170.0 0.00013567
16190.0 0.00013499
16210.0 0.00013432
16230.0 0.00013365
16250.0 0.00013299
16270.0 0.00013233
16290.0 0.00013167
16310.0 0.00013102
16330.0 0.00013037
16350.0 0.00012972
16370.0 0.00012907
16390.0 0.00012843
16410.0 0.0001278
16430.0 0.00012716
16450.0 0.00012653
16470.0 0.00012591
16490.0 0.00012529
16510.0 0.00012467
16530.0 0.00012406
16550.0 0.00012345
16570.0 0.00012284
16590.0 0.00012223
16610.0 0.00012164
16630.0 0.00012104
16650.0 0.00012045
16670.0 0.00011986
16690.0 0.00011928
16710.0 0.0001187
16730.0 0.00011812
16750.0 0.00011755
16770.0 0.00011698
16790.0 0.00011641
16810.0 0.00011585
16830.0 0.0001153
16850.0 0.00011474
16870.0 0.00011419
16890.0 0.00011365
16910.0 0.00011311
16930.0 0.00011257
16950.0 0.00011204
16970.0 0.00011151
16990.0 0.00011098
17010.0 0.00011046
17030.0 0.00010994
17050.0 0.00010943
17070.0 0.00010891
17090.0 0.00010841
17110.0 0.00010791
17130.0 0.0001074
17150.0 0.00010691
17170.0 0.00010642
17190.0 0.00010593
17210.0 0.00010544
17230.0 0.00010497
17250.0 0.00010449
17270.0 0.00010401
17290.0 0.00010354
17310.0 0.00010308
17330.0 0.00010262
17350.0 0.00010216
17370.0 0.0001017
17390.0 0.00010125
17410.0 0.0001008
17430.0 0.00010036
17450.0 9.9923e-05
17470.0 9.9482e-05
17490.0 9.9047e-05
17510.0 9.862e-05
17530.0 9.8193e-05
17550.0 9.7768e-05
17570.0 9.735e-05
17590.0 9.6936e-05
17610.0 9.6521e-05
17630.0 9.6111e-05
17650.0 9.5708e-05
17670.0 9.5305e-05
17690.0 9.4901e-05
17710.0 9.4508e-05
17730.0 9.4117e-05
17750.0 9.3726e-05
17770.0 9.3339e-05
17790.0 9.296e-05
17810.0 9.2579e-05
17830.0 9.22e-05
17850.0 9.1829e-05
17870.0 9.146e-05
17890.0 9.109e-05
17910.0 9.0725e-05
17930.0 9.0368e-05
17950.0 9.001e-05
17970.0 8.9653e-05
17990.0 8.9304e-05
18010.0 8.8957e-05
18030.0 8.8607e-05
18050.0 8.8265e-05
18070.0 8.7927e-05
18090.0 8.7589e-05
18110.0 8.7253e-05
18130.0 8.6925e-05
18150.0 8.6598e-05
18170.0 8.627e-05
18190.0 8.5948e-05
18210.0 8.5631e-05
18230.0 8.5312e-05
18250.0 8.4995e-05
18270.0 8.4685e-05
18290.0 8.4377e-05
18310.0 8.4069e-05
18330.0 8.3766e-05
18350.0 8.3468e-05
18370.0 8.3168e-05
18390.0 8.2871e-05
18410.0 8.2579e-05
18430.0 8.2289e-05
18450.0 8.1998e-05
18470.0 8.1713e-05
18490.0 8.1432e-05
18510.0 8.115e-05
18530.0 8.0871e-05
18550.0 8.0598e-05
18570.0 8.0325e-05
18590.0 8.0051e-05
18610.0 7.9783e-05
18630.0 7.9518e-05
18650.0 7.9252e-05
18670.0 7.8989e-05
18690.0 7.8732e-05
18710.0 7.8475e-05
18730.0 7.8219e-05
18750.0 7.7967e-05
18770.0 7.7719e-05
18790.0 7.7467e-05
18810.0 7.722e-05
18830.0 7.6978e-05
18850.0 7.6735e-05
18870.0 7.6494e-05
18890.0 7.6257e-05
18910.0 7.6023e-05
18930.0 7.5788e-05
18950.0 7.5555e-05
18970.0 7.5328e-05
18990.0 7.5099e-05
19010.0 7.487e-05
19030.0 7.4648e-05
19050.0 7.4427e-05
19070.0 7.4206e-05
19090.0 7.3987e-05
19110.0 7.3774e-05
19130.0 7.3558e-05
19150.0 7.3343e-05
19170.0 7.3134e-05
19190.0 7.2926e-05
19210.0 7.2716e-05
19230.0 7.251e-05
19250.0 7.2309e-05
19270.0 7.2106e-05
19290.0 7.1904e-05
19310.0 7.1707e-05
19330.0 7.1512e-05
19350.0 7.1313e-05
19370.0 7.1119e-05
19390.0 7.0929e-05
19410.0 7.0737e-05
19430.0 7.0547e-05
19450.0 7.0362e-05
19470.0 7.0177e-05
19490.0 6.999e-05
19510.0 6.9808e-05
19530.0 6.9629e-05
19550.0 6.9447e-05
19570.0 6.9267e-05
19590.0 6.9092e-05
19610.0 6.8917e-05
19630.0 6.8741e-05
19650.0 6.8569e-05
19670.0 6.8401e-05
19690.0 6.8229e-05
19710.0 6.806e-05
19730.0 6.7894e-05
19750.0 6.7728e-05
19770.0 6.7561e-05
19790.0 6.7399e-05
19810.0 6.7238e-05
19830.0 6.7075e-05
19850.0 6.691e-05
19870.0 6.6745e-05
19890.0 6.6565e-05
19910.0 6.6361e-05
19930.0 6.6125e-05
19950.0 6.5837e-05
19970.0 6.546e-05
19990.0 6.4982e-05
20010.0 6.4415e-05
20030.0 6.3716e-05
20050.0 6.289e-05
20070.0 6.199e-05
20090.0 6.1026e-05
20110.0 5.9949e-05
20130.0 5.8868e-05
20150.0 5.7809e-05
20170.0 5.6723e-05
20190.0 5.5632e-05
20210.0 5.4606e-05
20230.0 5.3607e-05
20250.0 5.2605e-05
20270.0 5.1668e-05
20290.0 5.0801e-05
20310.0 4.9963e-05
20330.0 4.916e-05
20350.0 4.8469e-05
20370.0 4.783e-05
20390.0 4.724e-05
20410.0 4.6729e-05
20430.0 4.6297e-05
20450.0 4.5912e-05
20470.0 4.5597e-05
20490.0 4.5357e-05
20510.0 4.5175e-05
20530.0 4.505e-05
20550.0 4.4983e-05
20570.0 4.4964e-05
20590.0 4.4991e-05
20610.0 4.506e-05
20630.0 4.5157e-05
20650.0 4.5282e-05
20670.0 4.5438e-05
20690.0 4.5601e-05
20710.0 4.5769e-05
20730.0 4.5945e-05
20750.0 4.6119e-05
20770.0 4.6274e-05
20790.0 4.642e-05
20810.0 4.6552e-05
20830.0 4.6655e-05
20850.0 4.6732e-05
20870.0 4.6783e-05
20890.0 4.6801e-05
20910.0 4.6785e-05
20930.0 4.6736e-05
20950.0 4.6652e-05
20970.0 4.6536e-05
20990.0 4.6391e-05
21010.0 4.6208e-05
21030.0 4.5997e-05
21050.0 4.5767e-05
21070.0 4.5511e-05
21090.0 4.5226e-05
21110.0 4.4938e-05
21130.0 4.4642e-05
21150.0 4.4329e-05
21170.0 4.4015e-05
21190.0 4.3712e-05
21210.0 4.3404e-05
21230.0 4.3099e-05
21250.0 4.2819e-05
21270.0 4.2555e-05
21290.0 4.2302e-05
21310.0 4.2075e-05
21330.0 4.188e-05
21350.0 4.1703e-05
21370.0 4.1553e-05
21390.0 4.1436e-05
21410.0 4.1347e-05
21430.0 4.1284e-05
21450.0 4.1254e-05
21470.0 4.1251e-05
21490.0 4.1277e-05
21510.0 4.1331e-05
21530.0 4.1409e-05
21550.0 4.151e-05
21570.0 4.1641e-05
21590.0 4.1791e-05
21610.0 4.1958e-05
21630.0 4.215e-05
21650.0 4.2368e-05
21670.0 4.2587e-05
21690.0 4.2824e-05
21710.0 4.3082e-05
21730.0 4.3346e-05
21750.0 4.361e-05
21770.0 4.3899e-05
21790.0 4.4191e-05
21810.0 4.4476e-05
21830.0 4.4765e-05
21850.0 4.5064e-05
21870.0 4.535e-05
21890.0 4.5622e-05
21910.0 4.5898e-05
21930.0 4.6164e-05
21950.0 4.6408e-05
21970.0 4.6641e-05
21990.0 4.6869e-05
22010.0 4.7065e-05
22030.0 4.7238e-05
22050.0 4.7393e-05
22070.0 4.7522e-05
22090.0 4.7618e-05
22110.0 4.7688e-05
22130.0 4.7728e-05
22150.0 4.7734e-05
22170.0 4.7707e-05
22190.0 4.7642e-05
22210.0 4.754e-05
22230.0 4.7408e-05
22250.0 4.7237e-05
22270.0 4.7025e-05
22290.0 4.6785e-05
22310.0 4.6515e-05
22330.0 4.6197e-05
22350.0 4.5852e-05
22370.0 4.5487e-05
22390.0 4.5087e-05
22410.0 4.4646e-05
22430.0 4.4203e-05
22450.0 4.3742e-05
22470.0 4.3247e-05
22490.0 4.2741e-05
22510.0 4.2242e-05
22530.0 4.1712e-05
22550.0 4.1167e-05
22570.0 4.0643e-05
22590.0 4.0119e-05
22610.0 3.9582e-05
22630.0 3.9058e-05
22650.0 3.8566e-05
22670.0 3.8068e-05
22690.0 3.7579e-05
22710.0 3.7123e-05
