#lamb flux
1010.0 2.5355e-07
1030.0 2.7941e-07
1050.0 3.0915e-07
1070.0 3.4263e-07
1090.0 3.8065e-07
1110.0 4.1966e-07
1130.0 4.5891e-07
1150.0 5.0003e-07
1170.0 5.4245e-07
1190.0 5.8267e-07
1210.0 6.2343e-07
1230.0 6.6556e-07
1250.0 7.0683e-07
1270.0 7.4691e-07
1290.0 7.8926e-07
1310.0 8.3158e-07
1330.0 8.7217e-07
1350.0 9.1321e-07
1370.0 9.5558e-07
1390.0 9.9689e-07
1410.0 1.037e-06
1430.0 1.0789e-06
1450.0 1.1208e-06
1470.0 1.1613e-06
1490.0 1.2022e-06
1510.0 1.2454e-06
1530.0 1.2863e-06
1550.0 1.3267e-06
1570.0 1.3685e-06
1590.0 1.4103e-06
1610.0 1.4502e-06
1630.0 1.4913e-06
1650.0 1.5335e-06
1670.0 1.5743e-06
1690.0 1.6146e-06
1710.0 1.6563e-06
1730.0 1.6983e-06
1750.0 1.7377e-06
1770.0 1.7782e-06
1790.0 1.8194e-06
1810.0 1.8593e-06
1830.0 1.8983e-06
1850.0 1.9397e-06
1870.0 1.9798e-06
1890.0 2.0184e-06
1910.0 2.0576e-06
1930.0 2.0976e-06
1950.0 2.1355e-06
1970.0 2.1727e-06
1990.0 2.211e-06
2010.0 2.2483e-06
2030.0 2.2838e-06
2050.0 2.3201e-06
2070.0 2.3569e-06
2090.0 2.3909e-06
2110.0 2.4242e-06
2130.0 2.458e-06
2150.0 2.4904e-06
2170.0 2.5204e-06
2190.0 2.551e-06
2210.0 2.581e-06
2230.0 2.6085e-06
2250.0 2.6348e-06
2270.0 2.6618e-06
2290.0 2.6865e-06
2310.0 2.7085e-06
2330.0 2.7305e-06
2350.0 2.7517e-06
2370.0 2.7704e-06
2390.0 2.7889e-06
2410.0 2.8092e-06
2430.0 2.8294e-06
2450.0 2.8513e-06
2470.0 2.8793e-06
2490.0 2.9171e-06
2510.0 2.965e-06
2530.0 3.0374e-06
2550.0 3.1557e-06
2570.0 3.337e-06
2590.0 3.6017e-06
2610.0 4.0114e-06
2630.0 4.5679e-06
2650.0 5.2299e-06
2670.0 5.9959e-06
2690.0 6.8262e-06
2710.0 7.5978e-06
2730.0 8.2594e-06
2750.0 8.8253e-06
2770.0 9.2426e-06
2790.0 9.5178e-06
2810.0 9.7024e-06
2830.0 9.8319e-06
2850.0 9.9071e-06
2870.0 9.9619e-06
2890.0 1.0015e-05
2910.0 1.0065e-05
2930.0 1.0105e-05
2950.0 1.0151e-05
2970.0 1.0201e-05
2990.0 1.0244e-05
3010.0 0.00012017
3030.0 0.0001207
3050.0 0.00012119
3070.0 0.00012149
3090.0 0.0001217
3110.0 0.00012166
3130.0 0.00012117
3150.0 0.00012015
3170.0 0.00011848
3190.0 0.00011618
3210.0 0.00011354
3230.0 0.00011084
3250.0 0.00010868
3270.0 0.00010735
3290.0 0.00010742
3310.0 0.00010863
3330.0 0.00011138
3350.0 0.00011524
3370.0 0.00012027
3390.0 0.00012629
3410.0 0.00013259
3430.0 0.00013945
3450.0 0.00014704
3470.0 0.00015496
3490.0 0.00016301
3510.0 0.00017178
3530.0 0.0001809
3550.0 0.0001898
3570.0 0.00019889
3590.0 0.00020888
3610.0 0.00021865
3630.0 0.00022872
3650.0 0.00023871
3670.0 0.00024784
3690.0 0.00025484
3710.0 0.00025954
3730.0 0.00026205
3750.0 0.00026286
3770.0 0.00024489
3790.0 0.00022728
3810.0 0.00019967
3830.0 0.00014927
3850.0 0.00010871
3870.0 0.00010638
3890.0 0.00013358
3910.0 0.00020755
3930.0 0.00027605
3950.0 0.00031137
3970.0 0.00032694
3990.0 0.00034907
4010.0 0.00038657
4030.0 0.00038621
4050.0 0.00036349
4070.0 0.00033732
4090.0 0.00032287
4110.0 0.00034654
4130.0 0.00035619
4150.0 0.00035652
4170.0 0.00036642
4190.0 0.00036647
4210.0 0.00037441
4230.0 0.00040493
4250.0 0.00044272
4270.0 0.00046148
4290.0 0.00045711
4310.0 0.0004657
4330.0 0.00049771
4350.0 0.00057662
4370.0 0.00064837
4390.0 0.00060923
4410.0 0.00050159
4430.0 0.00042924
4450.0 0.00036322
4470.0 0.00033624
4490.0 0.00037976
4510.0 0.00045108
4530.0 0.00049907
4550.0 0.00055104
4570.0 0.00064423
4590.0 0.00078956
4610.0 0.0010368
4630.0 0.0012509
4650.0 0.0012669
4670.0 0.0012565
4690.0 0.0013336
4710.0 0.0013465
4730.0 0.0011197
4750.0 0.00084469
4770.0 0.00068448
4790.0 0.00066245
4810.0 0.00062955
4830.0 0.00062776
4850.0 0.00074058
4870.0 0.00092113
4890.0 0.00098783
4910.0 0.00085614
4930.0 0.00080663
4950.0 0.0009358
4970.0 0.001232
4990.0 0.0015084
5010.0 0.0015429
5030.0 0.0012373
5050.0 0.00084559
5070.0 0.00062213
5090.0 0.00053702
5110.0 0.00052985
5130.0 0.00057442
5150.0 0.0005949
5170.0 0.00058704
5190.0 0.00058254
5210.0 0.00056932
5230.0 0.00059807
5250.0 0.00065333
5270.0 0.00074751
5290.0 0.00086444
5310.0 0.00094047
5330.0 0.00097131
5350.0 0.0010299
5370.0 0.0011277
5390.0 0.0011672
5410.0 0.0010741
5430.0 0.00094862
5450.0 0.00093348
5470.0 0.0011118
5490.0 0.0014072
5510.0 0.0017092
5530.0 0.0018469
5550.0 0.0017883
5570.0 0.0016554
5590.0 0.0014971
5610.0 0.0014334
5630.0 0.0014379
5650.0 0.0014438
5670.0 0.0014149
5690.0 0.0013359
5710.0 0.0012754
5730.0 0.0011313
5750.0 0.00086912
5770.0 0.00076217
5790.0 0.00082471
5810.0 0.00096194
5830.0 0.0010917
5850.0 0.0011679
5870.0 0.0011707
5890.0 0.0010904
5910.0 0.001056
5930.0 0.0010673
5950.0 0.0011191
5970.0 0.0011554
5990.0 0.0010543
6010.0 0.00087032
6030.0 0.00072045
6050.0 0.00066026
6070.0 0.00068692
6090.0 0.00075887
6110.0 0.00077428
6130.0 0.0007214
6150.0 0.00070241
6170.0 0.00077062
6190.0 0.00092212
6210.0 0.0011075
6230.0 0.0012343
6250.0 0.0012241
6270.0 0.0010828
6290.0 0.00089306
6310.0 0.00071571
6330.0 0.00059202
6350.0 0.00056065
6370.0 0.00061526
6390.0 0.00070706
6410.0 0.00082133
6430.0 0.00094915
6450.0 0.0011153
6470.0 0.001379
6490.0 0.0016816
6510.0 0.0017801
6530.0 0.0016777
6550.0 0.0016007
6570.0 0.001582
6590.0 0.0015177
6610.0 0.0013987
6630.0 0.0013019
6650.0 0.0012493
6670.0 0.001247
6690.0 0.0012114
6710.0 0.0010899
6730.0 0.0009452
6750.0 0.00086692
6770.0 0.00091237
6790.0 0.00098027
6810.0 0.0010104
6830.0 0.0010238
6850.0 0.00098674
6870.0 0.00094097
6890.0 0.00091145
6910.0 0.0008684
6930.0 0.00083921
6950.0 0.0008468
6970.0 0.00087781
6990.0 0.00096462
7010.0 0.0010072
7030.0 0.00096155
7050.0 0.00088104
7070.0 0.00076734
7090.0 0.00065216
7110.0 0.00061105
7130.0 0.00063784
7150.0 0.00066531
7170.0 0.00068301
7190.0 0.00066998
7210.0 0.00066664
7230.0 0.00074647
7250.0 0.00086746
7270.0 0.00097463
7290.0 0.0010295
7310.0 0.00096308
7330.0 0.00086066
7350.0 0.0007848
7370.0 0.00076607
7390.0 0.00080174
7410.0 0.00086179
7430.0 0.00094784
7450.0 0.0010482
7470.0 0.0011396
7490.0 0.0011602
7510.0 0.0010089
7530.0 0.0010004
7550.0 0.00090634
7570.0 0.00077405
7590.0 0.00062296
7610.0 0.0005822
7630.0 0.00063454
7650.0 0.00073948
7670.0 0.0008478
7690.0 0.0009367
7710.0 0.0010287
7730.0 0.0011111
7750.0 0.0011703
7770.0 0.0011531
7790.0 0.0011465
7810.0 0.0011676
7830.0 0.0011567
7850.0 0.0011112
7870.0 0.0010442
7890.0 0.00096137
7910.0 0.00085145
7930.0 0.00075574
7950.0 0.00069587
7970.0 0.00067993
7990.0 0.00070381
8010.0 0.00071947
8030.0 0.00072917
8050.0 0.00073678
8070.0 0.00072892
8090.0 0.00072675
8110.0 0.00070082
8130.0 0.00065492
8150.0 0.00061861
8170.0 0.00061206
8190.0 0.00062273
8210.0 0.00062876
8230.0 0.00062351
8250.0 0.00060256
8270.0 0.00053214
8290.0 0.00042084
8310.0 0.00030637
8330.0 0.00020615
8350.0 0.00014732
8370.0 0.00014961
8390.0 0.00018147
8410.0 0.00022929
8430.0 0.00027999
8450.0 0.00030771
8470.0 0.00032312
8490.0 0.00033878
8510.0 0.00035679
8530.0 0.00039611
8550.0 0.00046137
8570.0 0.00054263
8590.0 0.00062697
8610.0 0.00073177
8630.0 0.00085029
8650.0 0.00092257
8670.0 0.00092288
8690.0 0.00089087
8710.0 0.00084599
8730.0 0.00081103
8750.0 0.00077845
8770.0 0.0007578
8790.0 0.00072804
8810.0 0.00067614
8830.0 0.00061849
8850.0 0.00053102
8870.0 0.0004701
8890.0 0.00043631
8910.0 0.00045836
8930.0 0.00044992
8950.0 0.00046252
8970.0 0.00046814
8990.0 0.00047489
9010.0 0.00048311
9030.0 0.00047658
9050.0 0.00047615
9070.0 0.00047649
9090.0 0.00047686
9110.0 0.00047709
9130.0 0.00047754
9150.0 0.0004782
9170.0 0.00047862
9190.0 0.00047871
9210.0 0.00048134
9230.0 0.00048174
9250.0 0.00048245
9270.0 0.00048327
9290.0 0.00048419
9310.0 0.00048521
9330.0 0.00048632
9350.0 0.00048747
9370.0 0.0004887
9390.0 0.00049
9410.0 0.00049134
9430.0 0.00049273
9450.0 0.0004942
9470.0 0.00049572
9490.0 0.00049727
9510.0 0.00049889
9530.0 0.00050057
9550.0 0.00050227
9570.0 0.00050403
9590.0 0.00050584
9610.0 0.0005077
9630.0 0.00050959
9650.0 0.00051153
9670.0 0.00051353
9690.0 0.00051555
9710.0 0.00051761
9730.0 0.00051971
9750.0 0.00052185
9770.0 0.000524
9790.0 0.0005262
9810.0 0.00052844
9830.0 0.00053069
9850.0 0.00053296
9870.0 0.00053528
9890.0 0.00053761
9910.0 0.00053994
9930.0 0.0005423
9950.0 0.00054456
9970.0 0.00054698
9990.0 0.0005494
10010.0 0.00055121
10030.0 0.00055363
10050.0 0.00055592
10070.0 0.00055761
10090.0 0.00056029
10110.0 0.0005629
10130.0 0.00056544
10150.0 0.00056795
10170.0 0.00057038
10190.0 0.00057272
10210.0 0.00057509
10230.0 0.00057745
10250.0 0.00057972
10270.0 0.00058198
10290.0 0.00058426
10310.0 0.00058645
10330.0 0.00058857
10350.0 0.00059072
10370.0 0.00059283
10390.0 0.00059485
10410.0 0.00059684
10430.0 0.00059885
10450.0 0.00060075
10470.0 0.00060257
10490.0 0.00060439
10510.0 0.00060616
10530.0 0.00060779
10550.0 0.00060939
10570.0 0.00061099
10590.0 0.00061248
10610.0 0.00061387
10630.0 0.00061526
10650.0 0.00061657
10670.0 0.00061773
10690.0 0.00061886
10710.0 0.00061995
10730.0 0.00062092
10750.0 0.00062176
10770.0 0.00062262
10790.0 0.00062338
10810.0 0.00062399
10830.0 0.00062453
10850.0 0.00062498
10870.0 0.00062511
10890.0 0.00062489
10910.0 0.0006242
10930.0 0.00062263
10950.0 0.0006196
10970.0 0.00061491
10990.0 0.00060842
11010.0 0.00058814
11030.0 0.00057613
11050.0 0.00056232
11070.0 0.00054646
11090.0 0.00052801
11110.0 0.00050952
11130.0 0.00049086
11150.0 0.0004715
11170.0 0.00045247
11190.0 0.00043499
11210.0 0.00041801
11230.0 0.0004018
11250.0 0.00038749
11270.0 0.00037482
11290.0 0.00036317
11310.0 0.00035307
11330.0 0.00034485
11350.0 0.00033755
11370.0 0.00033106
11390.0 0.00032546
11410.0 0.00032032
11430.0 0.00031504
11450.0 0.00030973
11470.0 0.00030426
11490.0 0.0002982
11510.0 0.00029134
11530.0 0.00028414
11550.0 0.00027644
11570.0 0.00026794
11590.0 0.00025911
11610.0 0.00025034
11630.0 0.00024117
11650.0 0.00023188
11670.0 0.00022327
11690.0 0.00021505
11710.0 0.00020708
11730.0 0.00019982
11750.0 0.00019343
11770.0 0.00018745
11790.0 0.00018203
11810.0 0.00017735
11830.0 0.00017313
11850.0 0.00016913
11870.0 0.00016554
11890.0 0.00016223
11910.0 0.0001589
11930.0 0.00015553
11950.0 0.0001522
11970.0 0.00014872
11990.0 0.00014495
12010.0 0.0001411
12030.0 0.0001372
12050.0 0.00013312
12070.0 0.00012893
12090.0 0.00012504
12110.0 0.00012126
12130.0 0.00011766
12150.0 0.0001145
12170.0 0.00011186
12190.0 0.00010964
12210.0 0.00010809
12230.0 0.00010725
12250.0 0.00010708
12270.0 0.00010766
12290.0 0.00010892
12310.0 0.00011073
12330.0 0.00011324
12350.0 0.00011626
12370.0 0.00011956
12390.0 0.0001232
12410.0 0.00012726
12430.0 0.00013112
12450.0 0.00013488
12470.0 0.0001386
12490.0 0.00014203
12510.0 0.00014492
12530.0 0.0001475
12550.0 0.00014964
12570.0 0.00015115
12590.0 0.0001521
12610.0 0.00015254
12630.0 0.0001524
12650.0 0.00015172
12670.0 0.00015057
12690.0 0.00014895
12710.0 0.00014698
12730.0 0.00014471
12750.0 0.00014206
12770.0 0.00013923
12790.0 0.0001363
12810.0 0.00013319
12830.0 0.00012992
12850.0 0.00012671
12870.0 0.00012346
12890.0 0.00012007
12910.0 0.00011669
12930.0 0.00011335
12950.0 0.00010987
12970.0 0.00010628
12990.0 0.00010281
13010.0 9.9306e-05
13030.0 9.5701e-05
13050.0 9.2174e-05
13070.0 8.8824e-05
13090.0 8.5455e-05
13110.0 8.2211e-05
13130.0 7.9259e-05
13150.0 7.6536e-05
13170.0 7.3989e-05
13190.0 7.1851e-05
13210.0 7.0107e-05
13230.0 6.8684e-05
13250.0 6.7647e-05
13270.0 6.7012e-05
13290.0 6.6732e-05
13310.0 6.6822e-05
13330.0 6.7237e-05
13350.0 6.7917e-05
13370.0 6.8877e-05
13390.0 7.0074e-05
13410.0 7.133e-05
13430.0 7.271e-05
13450.0 7.419e-05
13470.0 7.5635e-05
13490.0 7.7e-05
13510.0 7.84e-05
13530.0 7.9678e-05
13550.0 8.0781e-05
13570.0 8.1778e-05
13590.0 8.2668e-05
13610.0 8.3382e-05
13630.0 8.394e-05
13650.0 8.4403e-05
13670.0 8.4733e-05
13690.0 8.493e-05
13710.0 8.5028e-05
13730.0 8.5033e-05
13750.0 8.4925e-05
13770.0 8.4729e-05
13790.0 8.4445e-05
13810.0 8.407e-05
13830.0 8.3618e-05
13850.0 8.3072e-05
13870.0 8.2427e-05
13890.0 8.171e-05
13910.0 8.0919e-05
13930.0 8.0023e-05
13950.0 7.9061e-05
13970.0 7.8086e-05
13990.0 7.7049e-05
14010.0 7.5975e-05
14030.0 7.4931e-05
14050.0 7.391e-05
14070.0 7.2881e-05
14090.0 7.1933e-05
14110.0 7.1079e-05
14130.0 7.0294e-05
14150.0 6.96e-05
14170.0 6.9041e-05
14190.0 6.8595e-05
14210.0 6.8261e-05
14230.0 6.806e-05
14250.0 6.7982e-05
14270.0 6.8036e-05
14290.0 6.8226e-05
14310.0 6.852e-05
14330.0 6.8923e-05
14350.0 6.9445e-05
14370.0 7.0043e-05
14390.0 7.0683e-05
14410.0 7.1411e-05
14430.0 7.2185e-05
14450.0 7.2956e-05
14470.0 7.3749e-05
14490.0 7.4603e-05
14510.0 7.5442e-05
14530.0 7.6282e-05
14550.0 7.7198e-05
14570.0 7.819e-05
14590.0 7.9227e-05
14610.0 8.04e-05
14630.0 8.1775e-05
14650.0 8.3277e-05
14670.0 8.4934e-05
14690.0 8.6852e-05
14710.0 8.901e-05
14730.0 9.1222e-05
14750.0 9.3644e-05
14770.0 9.6272e-05
14790.0 9.8921e-05
14810.0 0.00010155
14830.0 0.00010433
14850.0 0.00010699
14870.0 0.00010942
14890.0 0.00011171
14910.0 0.00011381
14930.0 0.00011555
14950.0 0.00011695
14970.0 0.00011808
14990.0 0.00011887
15010.0 0.00011934
15030.0 0.00011956
15050.0 0.00011958
15070.0 0.00011944
15090.0 0.0001192
15110.0 0.00011889
15130.0 0.00011855
15150.0 0.0001182
15170.0 0.00011783
15190.0 0.00011746
15210.0 0.00011709
15230.0 0.00011673
15250.0 0.00011636
15270.0 0.000116
15290.0 0.00011565
15310.0 0.0001153
15330.0 0.00011494
15350.0 0.0001146
15370.0 0.00011426
15390.0 0.0001139
15410.0 0.00011355
15430.0 0.00011322
15450.0 0.00011288
15470.0 0.00011253
15490.0 0.0001122
15510.0 0.00011187
15530.0 0.00011153
15550.0 0.00011119
15570.0 0.00011087
15590.0 0.00011054
15610.0 0.0001102
15630.0 0.00010987
15650.0 0.00010955
15670.0 0.00010922
15690.0 0.00010889
15710.0 0.00010858
15730.0 0.00010825
15750.0 0.00010792
15770.0 0.0001076
15790.0 0.00010729
15810.0 0.00010695
15830.0 0.00010663
15850.0 0.00010632
15870.0 0.00010599
15890.0 0.00010567
15910.0 0.00010536
15930.0 0.00010504
15950.0 0.00010471
15970.0 0.00010439
15990.0 0.00010408
16010.0 0.00010375
16030.0 0.00010342
16050.0 0.00010312
16070.0 0.0001028
16090.0 0.00010247
16110.0 0.00010215
16130.0 0.00010184
16150.0 0.00010151
16170.0 0.00010118
16190.0 0.00010087
16210.0 0.00010054
16230.0 0.00010021
16250.0 9.9893e-05
16270.0 9.9578e-05
16290.0 9.9246e-05
16310.0 9.8917e-05
16330.0 9.8599e-05
16350.0 9.8273e-05
16370.0 9.7929e-05
16390.0 9.7607e-05
16410.0 9.7284e-05
16430.0 9.6948e-05
16450.0 9.6615e-05
16470.0 9.6296e-05
16490.0 9.596e-05
16510.0 9.5618e-05
16530.0 9.5289e-05
16550.0 9.4959e-05
16570.0 9.4613e-05
16590.0 9.4271e-05
16610.0 9.3945e-05
16630.0 9.3605e-05
16650.0 9.3259e-05
16670.0 9.2925e-05
16690.0 9.259e-05
16710.0 9.2234e-05
16730.0 9.1889e-05
16750.0 9.1552e-05
16770.0 9.1203e-05
16790.0 9.0847e-05
16810.0 9.0507e-05
16830.0 9.0164e-05
16850.0 8.9806e-05
16870.0 8.9456e-05
16890.0 8.9113e-05
16910.0 8.8753e-05
16930.0 8.8388e-05
16950.0 8.8041e-05
16970.0 8.7688e-05
16990.0 8.7323e-05
17010.0 8.6966e-05
17030.0 8.6617e-05
17050.0 8.625e-05
17070.0 8.5883e-05
17090.0 8.5527e-05
17110.0 8.5166e-05
17130.0 8.4788e-05
17150.0 8.4424e-05
17170.0 8.4066e-05
17190.0 8.3695e-05
17210.0 8.3322e-05
17230.0 8.2963e-05
17250.0 8.2593e-05
17270.0 8.221e-05
17290.0 8.184e-05
17310.0 8.1473e-05
17330.0 8.1092e-05
17350.0 8.0709e-05
17370.0 8.0344e-05
17390.0 7.9968e-05
17410.0 7.9584e-05
17430.0 7.9209e-05
17450.0 7.8839e-05
17470.0 7.8445e-05
17490.0 7.8059e-05
17510.0 7.7686e-05
17530.0 7.7303e-05
17550.0 7.6911e-05
17570.0 7.6532e-05
17590.0 7.6155e-05
17610.0 7.5762e-05
17630.0 7.5373e-05
17650.0 7.4994e-05
17670.0 7.4606e-05
17690.0 7.4201e-05
17710.0 7.382e-05
17730.0 7.3436e-05
17750.0 7.304e-05
17770.0 7.2648e-05
17790.0 7.2269e-05
17810.0 7.1872e-05
17830.0 7.1472e-05
17850.0 7.1084e-05
17870.0 7.0695e-05
17890.0 7.0291e-05
17910.0 6.9893e-05
17930.0 6.951e-05
17950.0 6.9114e-05
17970.0 6.8713e-05
17990.0 6.8324e-05
18010.0 6.7934e-05
18030.0 6.7524e-05
18050.0 6.7127e-05
18070.0 6.6738e-05
18090.0 6.6337e-05
18110.0 6.5931e-05
18130.0 6.5543e-05
18150.0 6.515e-05
18170.0 6.4744e-05
18190.0 6.4347e-05
18210.0 6.3958e-05
18230.0 6.3552e-05
18250.0 6.3144e-05
18270.0 6.2754e-05
18290.0 6.2358e-05
18310.0 6.1952e-05
18330.0 6.1555e-05
18350.0 6.1167e-05
18370.0 6.0762e-05
18390.0 6.0358e-05
18410.0 5.9966e-05
18430.0 5.957e-05
18450.0 5.9158e-05
18470.0 5.8762e-05
18490.0 5.8373e-05
18510.0 5.7971e-05
18530.0 5.7569e-05
18550.0 5.7182e-05
18570.0 5.6784e-05
18590.0 5.6376e-05
18610.0 5.5981e-05
18630.0 5.5591e-05
18650.0 5.5188e-05
18670.0 5.4784e-05
18690.0 5.44e-05
18710.0 5.4005e-05
18730.0 5.3603e-05
18750.0 5.3212e-05
18770.0 5.2826e-05
18790.0 5.2418e-05
18810.0 5.202e-05
18830.0 5.1635e-05
18850.0 5.1241e-05
18870.0 5.084e-05
18890.0 5.0454e-05
18910.0 5.0069e-05
18930.0 4.967e-05
18950.0 4.9277e-05
18970.0 4.8895e-05
18990.0 4.8503e-05
19010.0 4.8098e-05
19030.0 4.7717e-05
19050.0 4.7334e-05
19070.0 4.694e-05
19090.0 4.6552e-05
19110.0 4.6176e-05
19130.0 4.5784e-05
19150.0 4.5391e-05
19170.0 4.5011e-05
19190.0 4.4629e-05
19210.0 4.4236e-05
19230.0 4.3849e-05
19250.0 4.3477e-05
19270.0 4.3092e-05
19290.0 4.2706e-05
19310.0 4.2332e-05
19330.0 4.1956e-05
19350.0 4.1562e-05
19370.0 4.1184e-05
19390.0 4.0812e-05
19410.0 4.0431e-05
19430.0 4.0046e-05
19450.0 3.9679e-05
19470.0 3.9306e-05
19490.0 3.8923e-05
19510.0 3.855e-05
19530.0 3.8185e-05
19550.0 3.7804e-05
19570.0 3.7422e-05
19590.0 3.7059e-05
19610.0 3.669e-05
19630.0 3.6312e-05
19650.0 3.5946e-05
19670.0 3.5586e-05
19690.0 3.521e-05
19710.0 3.4838e-05
19730.0 3.4478e-05
19750.0 3.4113e-05
19770.0 3.3735e-05
19790.0 3.3373e-05
19810.0 3.3017e-05
19830.0 3.2648e-05
19850.0 3.228e-05
19870.0 3.1923e-05
19890.0 3.1548e-05
19910.0 3.1153e-05
19930.0 3.0755e-05
19950.0 3.0331e-05
19970.0 2.9855e-05
19990.0 2.9333e-05
20010.0 2.8788e-05
20030.0 2.8179e-05
20050.0 2.7519e-05
20070.0 2.6854e-05
20090.0 2.6185e-05
20110.0 2.5483e-05
20130.0 2.4823e-05
20150.0 2.4214e-05
20170.0 2.3629e-05
20190.0 2.308e-05
20210.0 2.2601e-05
20230.0 2.2168e-05
20250.0 2.177e-05
20270.0 2.1433e-05
20290.0 2.1152e-05
20310.0 2.0914e-05
20330.0 2.0721e-05
20350.0 2.0587e-05
20370.0 2.0496e-05
20390.0 2.0449e-05
20410.0 2.0447e-05
20430.0 2.0484e-05
20450.0 2.0566e-05
20470.0 2.069e-05
20490.0 2.0845e-05
20510.0 2.1037e-05
20530.0 2.1271e-05
20550.0 2.153e-05
20570.0 2.1806e-05
20590.0 2.2117e-05
20610.0 2.2449e-05
20630.0 2.2783e-05
20650.0 2.3132e-05
20670.0 2.3506e-05
20690.0 2.3864e-05
20710.0 2.4214e-05
20730.0 2.4571e-05
20750.0 2.4923e-05
20770.0 2.5249e-05
20790.0 2.5575e-05
20810.0 2.5904e-05
20830.0 2.6218e-05
20850.0 2.6524e-05
20870.0 2.6847e-05
20890.0 2.7174e-05
20910.0 2.749e-05
20930.0 2.7823e-05
20950.0 2.8175e-05
20970.0 2.8524e-05
20990.0 2.8874e-05
21010.0 2.9246e-05
21030.0 2.9613e-05
21050.0 2.9961e-05
21070.0 3.0303e-05
21090.0 3.0638e-05
21110.0 3.093e-05
21130.0 3.119e-05
21150.0 3.1424e-05
21170.0 3.1613e-05
21190.0 3.1754e-05
21210.0 3.1855e-05
21230.0 3.1907e-05
21250.0 3.1907e-05
21270.0 3.186e-05
21290.0 3.1763e-05
21310.0 3.1617e-05
21330.0 3.1434e-05
21350.0 3.1203e-05
21370.0 3.0927e-05
21390.0 3.0623e-05
21410.0 3.029e-05
21430.0 2.9906e-05
21450.0 2.9509e-05
21470.0 2.9107e-05
21490.0 2.868e-05
21510.0 2.8239e-05
21530.0 2.7817e-05
21550.0 2.7397e-05
21570.0 2.6972e-05
21590.0 2.6576e-05
21610.0 2.6213e-05
21630.0 2.5869e-05
21650.0 2.5553e-05
21670.0 2.5298e-05
21690.0 2.5082e-05
21710.0 2.4908e-05
21730.0 2.4788e-05
21750.0 2.472e-05
21770.0 2.4702e-05
21790.0 2.474e-05
21810.0 2.4828e-05
21830.0 2.4966e-05
21850.0 2.5159e-05
21870.0 2.5395e-05
21890.0 2.5663e-05
21910.0 2.5983e-05
21930.0 2.634e-05
21950.0 2.6716e-05
21970.0 2.7125e-05
21990.0 2.758e-05
22010.0 2.8034e-05
22030.0 2.8495e-05
22050.0 2.8983e-05
22070.0 2.9476e-05
22090.0 2.9948e-05
22110.0 3.0426e-05
22130.0 3.0906e-05
22150.0 3.1356e-05
22170.0 3.1779e-05
22190.0 3.2195e-05
22210.0 3.2574e-05
22230.0 3.2897e-05
22250.0 3.3186e-05
22270.0 3.3432e-05
22290.0 3.3618e-05
22310.0 3.3748e-05
22330.0 3.3823e-05
22350.0 3.383e-05
22370.0 3.3775e-05
22390.0 3.3652e-05
22410.0 3.3454e-05
22430.0 3.32e-05
22450.0 3.2885e-05
22470.0 3.2494e-05
22490.0 3.2047e-05
22510.0 3.1562e-05
22530.0 3.1004e-05
22550.0 3.0386e-05
22570.0 2.9753e-05
22590.0 2.9086e-05
22610.0 2.8365e-05
22630.0 2.7629e-05
22650.0 2.6908e-05
22670.0 2.6149e-05
22690.0 2.5377e-05
22710.0 2.4633e-05
