#lamb flux
1010.0 7.597e-06
1030.0 7.597e-06
1050.0 7.597e-06
1070.0 7.597e-06
1090.0 7.597e-06
1110.0 7.597e-06
1130.0 7.597e-06
1150.0 7.597e-06
1170.0 7.597e-06
1190.0 7.597e-06
1210.0 7.597e-06
1230.0 7.597e-06
1250.0 7.597e-06
1270.0 7.597e-06
1290.0 7.597e-06
1310.0 7.597e-06
1330.0 7.597e-06
1350.0 7.597e-06
1370.0 7.597e-06
1390.0 7.597e-06
1410.0 7.597e-06
1430.0 7.597e-06
1450.0 7.597e-06
1470.0 7.597e-06
1490.0 7.597e-06
1510.0 7.597e-06
1530.0 7.605e-06
1550.0 9.0221e-06
1570.0 1.058e-05
1590.0 1.2283e-05
1610.0 1.4113e-05
1630.0 1.6074e-05
1650.0 1.8235e-05
1670.0 2.0586e-05
1690.0 2.3153e-05
1710.0 2.599e-05
1730.0 2.9103e-05
1750.0 3.2457e-05
1770.0 3.6133e-05
1790.0 4.0146e-05
1810.0 4.4456e-05
1830.0 4.9076e-05
1850.0 5.4092e-05
1870.0 5.9404e-05
1890.0 6.4977e-05
1910.0 7.0857e-05
1930.0 7.7027e-05
1950.0 8.3336e-05
1970.0 8.9781e-05
1990.0 9.6395e-05
2010.0 0.00010303
2030.0 0.00010956
2050.0 0.00011606
2070.0 0.00012246
2090.0 0.00012851
2110.0 0.00013424
2130.0 0.00013969
2150.0 0.00014468
2170.0 0.00014911
2190.0 0.00015314
2210.0 0.00015666
2230.0 0.00015956
2250.0 0.0001619
2270.0 0.00016382
2290.0 0.00016513
2310.0 0.00016586
2330.0 0.00016619
2350.0 0.00016611
2370.0 0.00016554
2390.0 0.00016465
2410.0 0.00016358
2430.0 0.00016221
2450.0 0.00016062
2470.0 0.000159
2490.0 0.0001574
2510.0 0.0001558
2530.0 0.00015464
2550.0 0.0001545
2570.0 0.00015589
2590.0 0.00015944
2610.0 0.00016689
2630.0 0.00017858
2650.0 0.00019378
2670.0 0.00021298
2690.0 0.000236
2710.0 0.00026009
2730.0 0.00028426
2750.0 0.00030993
2770.0 0.00033539
2790.0 0.00035987
2810.0 0.00038502
2830.0 0.00041225
2850.0 0.00043867
2870.0 0.00046578
2890.0 0.00049501
2910.0 0.00052538
2930.0 0.00055574
2950.0 0.00058855
2970.0 0.00062352
2990.0 0.00065906
3010.0 0.00069594
3030.0 0.00073558
3050.0 0.00077663
3070.0 0.00081675
3090.0 0.00085763
3110.0 0.00089713
3130.0 0.00093208
3150.0 0.00096132
3170.0 0.00098346
3190.0 0.00099645
3210.0 0.0010003
3230.0 0.00099878
3250.0 0.0010042
3270.0 0.001024
3290.0 0.0010563
3310.0 0.0010985
3330.0 0.0011506
3350.0 0.0012094
3370.0 0.0012748
3390.0 0.0013467
3410.0 0.0014177
3430.0 0.001546
3450.0 0.0016432
3470.0 0.0017382
3490.0 0.0017746
3510.0 0.0017439
3530.0 0.0019529
3550.0 0.0023416
3570.0 0.0025744
3590.0 0.0026913
3610.0 0.0027173
3630.0 0.002613
3650.0 0.0028218
3670.0 0.0033734
3690.0 0.0037953
3710.0 0.0039892
3730.0 0.0041269
3750.0 0.0043184
3770.0 0.0043079
3790.0 0.0041183
3810.0 0.0038692
3830.0 0.003596
3850.0 0.0035731
3870.0 0.0038332
3890.0 0.0041004
3910.0 0.0043007
3930.0 0.0043881
3950.0 0.0047135
3970.0 0.0050399
3990.0 0.0048333
4010.0 0.0042926
4030.0 0.0037834
4050.0 0.0036191
4070.0 0.0037458
4090.0 0.003778
4110.0 0.0036866
4130.0 0.0036296
4150.0 0.0036906
4170.0 0.0040526
4190.0 0.0044333
4210.0 0.0043466
4230.0 0.0040842
4250.0 0.0039541
4270.0 0.0039029
4290.0 0.0040147
4310.0 0.0041569
4330.0 0.0039594
4350.0 0.0034606
4370.0 0.0030478
4390.0 0.0027624
4410.0 0.0025209
4430.0 0.0025062
4450.0 0.0027199
4470.0 0.0029205
4490.0 0.0031858
4510.0 0.0036303
4530.0 0.0045224
4550.0 0.005599
4570.0 0.0062419
4590.0 0.0066645
4610.0 0.0072417
4630.0 0.007597
4650.0 0.0070908
4670.0 0.0058611
4690.0 0.0048783
4710.0 0.0045143
4730.0 0.004383
4750.0 0.0039854
4770.0 0.0036575
4790.0 0.0038206
4810.0 0.0041623
4830.0 0.0041785
4850.0 0.0038931
4870.0 0.0037666
4890.0 0.0039744
4910.0 0.0042049
4930.0 0.0042215
4950.0 0.0040836
4970.0 0.0038598
4990.0 0.0035212
5010.0 0.0032062
5030.0 0.0030198
5050.0 0.002935
5070.0 0.0028723
5090.0 0.002806
5110.0 0.002795
5130.0 0.0028259
5150.0 0.0029777
5170.0 0.0033038
5190.0 0.0037013
5210.0 0.0041443
5230.0 0.0044197
5250.0 0.0045575
5270.0 0.0048027
5290.0 0.0050664
5310.0 0.0051487
5330.0 0.0049476
5350.0 0.0046901
5370.0 0.0046811
5390.0 0.0049816
5410.0 0.0053147
5430.0 0.0054816
5450.0 0.0054832
5470.0 0.0053266
5490.0 0.0051099
5510.0 0.0049819
5530.0 0.0049778
5550.0 0.0050337
5570.0 0.0050683
5590.0 0.0049257
5610.0 0.0046607
5630.0 0.0043597
5650.0 0.0040894
5670.0 0.0039256
5690.0 0.003788
5710.0 0.003689
5730.0 0.0037301
5750.0 0.0037113
5770.0 0.0036288
5790.0 0.0036488
5810.0 0.0037039
5830.0 0.0037646
5850.0 0.0037911
5870.0 0.0037145
5890.0 0.0035517
5910.0 0.0033484
5930.0 0.0030488
5950.0 0.0028231
5970.0 0.0027918
5990.0 0.0028874
6010.0 0.0029393
6030.0 0.0028383
6050.0 0.0027698
6070.0 0.0028759
6090.0 0.0030584
6110.0 0.0031528
6130.0 0.0030625
6150.0 0.0028859
6170.0 0.002762
6190.0 0.0026376
6210.0 0.0024901
6230.0 0.002361
6250.0 0.00231
6270.0 0.0023687
6290.0 0.0024739
6310.0 0.0026207
6330.0 0.0028021
6350.0 0.0029758
6370.0 0.003066
6390.0 0.0030827
6410.0 0.0031115
6430.0 0.0031436
6450.0 0.0031645
6470.0 0.0032177
6490.0 0.0032777
6510.0 0.0033073
6530.0 0.0032874
6550.0 0.0032104
6570.0 0.0030933
6590.0 0.0029783
6610.0 0.002896
6630.0 0.0028379
6650.0 0.0027446
6670.0 0.0026245
6690.0 0.002529
6710.0 0.0024741
6730.0 0.0024555
6750.0 0.002422
6770.0 0.0023718
6790.0 0.0023341
6810.0 0.0022974
6830.0 0.0022829
6850.0 0.0023032
6870.0 0.0023048
6890.0 0.0022855
6910.0 0.0022343
6930.0 0.0021823
6950.0 0.0021568
6970.0 0.002102
6990.0 0.0020274
7010.0 0.0019953
7030.0 0.0019749
7050.0 0.0019249
7070.0 0.0018579
7090.0 0.0018209
7110.0 0.0018502
7130.0 0.0019429
7150.0 0.0020479
7170.0 0.0021154
7190.0 0.0020971
7210.0 0.0020351
7230.0 0.0019966
7250.0 0.0019782
7270.0 0.0019688
7290.0 0.0019484
7310.0 0.0019483
7330.0 0.0019939
7350.0 0.0020525
7370.0 0.0020874
7390.0 0.0020723
7410.0 0.0020204
7430.0 0.0019783
7450.0 0.0019338
7470.0 0.0018359
7490.0 0.0017698
7510.0 0.0017055
7530.0 0.0016616
7550.0 0.0016666
7570.0 0.0016868
7590.0 0.0016879
7610.0 0.0016763
7630.0 0.0016698
7650.0 0.0016695
7670.0 0.0017055
7690.0 0.0017621
7710.0 0.0018338
7730.0 0.0018852
7750.0 0.0019432
7770.0 0.0019766
7790.0 0.0019839
7810.0 0.0019697
7830.0 0.0019835
7850.0 0.0019689
7870.0 0.0018943
7890.0 0.0018165
7910.0 0.0017588
7930.0 0.0017064
7950.0 0.0016649
7970.0 0.0016529
7990.0 0.0016704
8010.0 0.0016312
8030.0 0.0016131
8050.0 0.0015882
8070.0 0.0015592
8090.0 0.0015293
8110.0 0.00153
8130.0 0.0015405
8150.0 0.0015362
8170.0 0.0015253
8190.0 0.0014896
8210.0 0.0014082
8230.0 0.0013131
8250.0 0.0012562
8270.0 0.0012171
8290.0 0.0011861
8310.0 0.0011809
8330.0 0.0011911
8350.0 0.0011634
8370.0 0.0011403
8390.0 0.0011677
8410.0 0.0012289
8430.0 0.0013131
8450.0 0.0013978
8470.0 0.0014392
8490.0 0.0014735
8510.0 0.0014916
8530.0 0.0015107
8550.0 0.0015345
8570.0 0.0015484
8590.0 0.0015618
8610.0 0.0016045
8630.0 0.0016226
8650.0 0.0015899
8670.0 0.0015903
8690.0 0.0016086
8710.0 0.0016186
8730.0 0.001609
8750.0 0.0015668
8770.0 0.0015489
8790.0 0.0015397
8810.0 0.0015187
8830.0 0.0014259
8850.0 0.0013068
8870.0 0.001221
8890.0 0.0011746
8910.0 0.0011084
8930.0 0.0010315
8950.0 0.0009873
8970.0 0.00098128
8990.0 0.00098891
9010.0 0.00098619
9030.0 0.00097918
9050.0 0.00097265
9070.0 0.00096685
9090.0 0.00096119
9110.0 0.00095557
9130.0 0.00094996
9150.0 0.0009444
9170.0 0.00093884
9190.0 0.0009333
9210.0 0.00092775
9230.0 0.00092229
9250.0 0.00091687
9270.0 0.00091145
9290.0 0.00090607
9310.0 0.00090071
9330.0 0.00089537
9350.0 0.00089007
9370.0 0.00088478
9390.0 0.00087953
9410.0 0.0008743
9430.0 0.00086904
9450.0 0.00086354
9470.0 0.00085818
9490.0 0.00085338
9510.0 0.00084841
9530.0 0.00084348
9550.0 0.00083848
9570.0 0.0008335
9590.0 0.00082856
9610.0 0.00082362
9630.0 0.00081869
9650.0 0.00081379
9670.0 0.00080896
9690.0 0.00080411
9710.0 0.00079929
9730.0 0.00079452
9750.0 0.00078976
9770.0 0.00078498
9790.0 0.00078026
9810.0 0.00077558
9830.0 0.00077083
9850.0 0.00076566
9870.0 0.00076116
9890.0 0.00075672
9910.0 0.00075222
9930.0 0.00074766
9950.0 0.00074325
9970.0 0.00073869
9990.0 0.00073405
10010.0 0.00072892
10030.0 0.00072418
10050.0 0.00072001
10070.0 0.00071579
10090.0 0.00071154
10110.0 0.00070691
10130.0 0.00070111
10150.0 0.00069694
10170.0 0.00069304
10190.0 0.00068881
10210.0 0.00068465
10230.0 0.00068047
10250.0 0.00067604
10270.0 0.00067161
10290.0 0.00066735
10310.0 0.0006629
10330.0 0.0006583
10350.0 0.00065393
10370.0 0.00064958
10390.0 0.00064504
10410.0 0.00064054
10430.0 0.00063625
10450.0 0.00063178
10470.0 0.00062721
10490.0 0.00062281
10510.0 0.00061842
10530.0 0.00061373
10550.0 0.00060918
10570.0 0.00060479
10590.0 0.00060024
10610.0 0.00059559
10630.0 0.00059113
10650.0 0.00058664
10670.0 0.00058191
10690.0 0.00057728
10710.0 0.00057277
10730.0 0.00056808
10750.0 0.00056322
10770.0 0.00055867
10790.0 0.00055404
10810.0 0.00054922
10830.0 0.00054449
10850.0 0.00053991
10870.0 0.00053501
10890.0 0.00053012
10910.0 0.00052544
10930.0 0.00052073
10950.0 0.00051589
10970.0 0.00051123
10990.0 0.00050684
11010.0 0.0005067
11030.0 0.00050242
11050.0 0.00049835
11070.0 0.0004943
11090.0 0.00049006
11110.0 0.00048607
11130.0 0.00048218
11150.0 0.00047822
11170.0 0.00047435
11190.0 0.00047078
11210.0 0.00046726
11230.0 0.00046383
11250.0 0.0004607
11270.0 0.00045781
11290.0 0.00045501
11310.0 0.00045241
11330.0 0.00045012
11350.0 0.00044793
11370.0 0.00044584
11390.0 0.0004439
11410.0 0.00044206
11430.0 0.00044015
11450.0 0.00043827
11470.0 0.00043641
11490.0 0.00043444
11510.0 0.0004323
11530.0 0.0004301
11550.0 0.00042777
11570.0 0.00042518
11590.0 0.0004224
11610.0 0.0004195
11630.0 0.00041629
11650.0 0.00041276
11670.0 0.00040916
11690.0 0.00040535
11710.0 0.00040121
11730.0 0.00039691
11750.0 0.0003926
11770.0 0.00038799
11790.0 0.00038318
11810.0 0.0003784
11830.0 0.00037354
11850.0 0.00036837
11870.0 0.00036331
11890.0 0.00035839
11910.0 0.00035334
11930.0 0.00034828
11950.0 0.00034348
11970.0 0.00033874
11990.0 0.00033394
12010.0 0.0003294
12030.0 0.0003251
12050.0 0.00032085
12070.0 0.0003167
12090.0 0.00031297
12110.0 0.00030938
12130.0 0.00030591
12150.0 0.00030272
12170.0 0.00029984
12190.0 0.00029705
12210.0 0.00029456
12230.0 0.00029242
12250.0 0.00029053
12270.0 0.00028889
12290.0 0.00028758
12310.0 0.00028656
12330.0 0.00028578
12350.0 0.00028525
12370.0 0.00028494
12390.0 0.00028482
12410.0 0.00028488
12430.0 0.00028503
12450.0 0.00028525
12470.0 0.00028554
12490.0 0.00028582
12510.0 0.00028604
12530.0 0.00028622
12550.0 0.00028631
12570.0 0.00028625
12590.0 0.00028602
12610.0 0.00028562
12630.0 0.00028499
12650.0 0.00028414
12670.0 0.00028305
12690.0 0.00028169
12710.0 0.00028011
12730.0 0.00027831
12750.0 0.00027621
12770.0 0.00027393
12790.0 0.00027152
12810.0 0.00026891
12830.0 0.00026611
12850.0 0.00026331
12870.0 0.00026047
12890.0 0.0002575
12910.0 0.00025454
12930.0 0.00025168
12950.0 0.00024874
12970.0 0.00024579
12990.0 0.000243
13010.0 0.00024026
13030.0 0.00023751
13050.0 0.00023485
13070.0 0.00023234
13090.0 0.00022981
13110.0 0.00022733
13130.0 0.000225
13150.0 0.00022275
13170.0 0.00022049
13190.0 0.0002184
13210.0 0.00021644
13230.0 0.00021454
13250.0 0.00021273
13270.0 0.00021106
13290.0 0.00020947
13310.0 0.00020791
13330.0 0.00020645
13350.0 0.00020506
13370.0 0.00020368
13390.0 0.0002023
13410.0 0.00020098
13430.0 0.00019964
13450.0 0.00019824
13470.0 0.00019684
13490.0 0.00019543
13510.0 0.00019391
13530.0 0.00019235
13550.0 0.00019079
13570.0 0.00018917
13590.0 0.00018747
13610.0 0.00018578
13630.0 0.0001841
13650.0 0.00018234
13670.0 0.00018057
13690.0 0.00017885
13710.0 0.0001771
13730.0 0.00017529
13750.0 0.00017356
13770.0 0.00017186
13790.0 0.00017011
13810.0 0.00016838
13830.0 0.00016672
13850.0 0.00016502
13870.0 0.0001633
13890.0 0.00016165
13910.0 0.00016003
13930.0 0.00015837
13950.0 0.00015673
13970.0 0.0001552
13990.0 0.00015365
14010.0 0.0001521
14030.0 0.00015062
14050.0 0.00014918
14070.0 0.00014769
14090.0 0.00014626
14110.0 0.0001449
14130.0 0.00014352
14150.0 0.00014215
14170.0 0.00014086
14190.0 0.00013961
14210.0 0.00013835
14230.0 0.00013716
14250.0 0.00013605
14270.0 0.00013494
14290.0 0.00013387
14310.0 0.0001329
14330.0 0.00013199
14350.0 0.0001311
14370.0 0.00013028
14390.0 0.00012953
14410.0 0.0001288
14430.0 0.0001281
14450.0 0.00012747
14470.0 0.00012686
14490.0 0.00012625
14510.0 0.00012568
14530.0 0.00012515
14550.0 0.00012461
14570.0 0.00012407
14590.0 0.00012355
14610.0 0.00012303
14630.0 0.00012248
14650.0 0.00012194
14670.0 0.00012142
14690.0 0.0001209
14710.0 0.00012038
14730.0 0.00011994
14750.0 0.00011954
14770.0 0.00011921
14790.0 0.000119
14810.0 0.00011891
14830.0 0.00011896
14850.0 0.00011919
14870.0 0.00011959
14890.0 0.00012016
14910.0 0.00012091
14930.0 0.00012176
14950.0 0.00012266
14970.0 0.0001236
14990.0 0.00012447
15010.0 0.00012522
15030.0 0.00012585
15050.0 0.00012635
15070.0 0.00012671
15090.0 0.00012698
15110.0 0.00012718
15130.0 0.00012734
15150.0 0.00012749
15170.0 0.00012762
15190.0 0.00012775
15210.0 0.00012789
15230.0 0.00012803
15250.0 0.00012817
15270.0 0.00012832
15290.0 0.00012847
15310.0 0.00012863
15330.0 0.00012879
15350.0 0.00012896
15370.0 0.00012913
15390.0 0.0001293
15410.0 0.00012948
15430.0 0.00012966
15450.0 0.00012985
15470.0 0.00013004
15490.0 0.00013023
15510.0 0.00013044
15530.0 0.00013064
15550.0 0.00013084
15570.0 0.00013106
15590.0 0.00013127
15610.0 0.00013148
15630.0 0.00013171
15650.0 0.00013193
15670.0 0.00013216
15690.0 0.00013239
15710.0 0.00013263
15730.0 0.00013287
15750.0 0.00013311
15770.0 0.00013335
15790.0 0.0001336
15810.0 0.00013385
15830.0 0.0001341
15850.0 0.00013436
15870.0 0.00013462
15890.0 0.00013488
15910.0 0.00013514
15930.0 0.00013541
15950.0 0.00013567
15970.0 0.00013595
15990.0 0.00013622
16010.0 0.00013649
16030.0 0.00013677
16050.0 0.00013705
16070.0 0.00013733
16090.0 0.00013761
16110.0 0.0001379
16130.0 0.00013819
16150.0 0.00013847
16170.0 0.00013876
16190.0 0.00013905
16210.0 0.00013934
16230.0 0.00013963
16250.0 0.00013993
16270.0 0.00014022
16290.0 0.00014052
16310.0 0.00014081
16330.0 0.00014111
16350.0 0.00014141
16370.0 0.0001417
16390.0 0.000142
16410.0 0.0001423
16430.0 0.0001426
16450.0 0.0001429
16470.0 0.0001432
16490.0 0.0001435
16510.0 0.00014379
16530.0 0.00014409
16550.0 0.00014439
16570.0 0.00014468
16590.0 0.00014498
16610.0 0.00014528
16630.0 0.00014557
16650.0 0.00014586
16670.0 0.00014616
16690.0 0.00014645
16710.0 0.00014673
16730.0 0.00014702
16750.0 0.00014731
16770.0 0.0001476
16790.0 0.00014788
16810.0 0.00014816
16830.0 0.00014844
16850.0 0.00014872
16870.0 0.00014899
16890.0 0.00014927
16910.0 0.00014954
16930.0 0.0001498
16950.0 0.00015007
16970.0 0.00015034
16990.0 0.0001506
17010.0 0.00015085
17030.0 0.00015111
17050.0 0.00015136
17070.0 0.00015161
17090.0 0.00015186
17110.0 0.0001521
17130.0 0.00015233
17150.0 0.00015257
17170.0 0.0001528
17190.0 0.00015302
17210.0 0.00015324
17230.0 0.00015347
17250.0 0.00015368
17270.0 0.00015389
17290.0 0.00015409
17310.0 0.0001543
17330.0 0.00015449
17350.0 0.00015468
17370.0 0.00015487
17390.0 0.00015505
17410.0 0.00015523
17430.0 0.0001554
17450.0 0.00015557
17470.0 0.00015573
17490.0 0.00015588
17510.0 0.00015603
17530.0 0.00015618
17550.0 0.00015631
17570.0 0.00015645
17590.0 0.00015658
17610.0 0.0001567
17630.0 0.00015681
17650.0 0.00015692
17670.0 0.00015703
17690.0 0.00015712
17710.0 0.00015721
17730.0 0.0001573
17750.0 0.00015737
17770.0 0.00015744
17790.0 0.00015751
17810.0 0.00015756
17830.0 0.00015761
17850.0 0.00015766
17870.0 0.00015769
17890.0 0.00015772
17910.0 0.00015774
17930.0 0.00015776
17950.0 0.00015776
17970.0 0.00015776
17990.0 0.00015776
18010.0 0.00015774
18030.0 0.00015771
18050.0 0.00015768
18070.0 0.00015765
18090.0 0.0001576
18110.0 0.00015755
18130.0 0.00015749
18150.0 0.00015742
18170.0 0.00015734
18190.0 0.00015726
18210.0 0.00015717
18230.0 0.00015706
18250.0 0.00015695
18270.0 0.00015684
18290.0 0.00015672
18310.0 0.00015658
18330.0 0.00015644
18350.0 0.0001563
18370.0 0.00015613
18390.0 0.00015597
18410.0 0.0001558
18430.0 0.00015562
18450.0 0.00015542
18470.0 0.00015522
18490.0 0.00015502
18510.0 0.0001548
18530.0 0.00015458
18550.0 0.00015435
18570.0 0.00015411
18590.0 0.00015386
18610.0 0.00015361
18630.0 0.00015335
18650.0 0.00015307
18670.0 0.00015279
18690.0 0.0001525
18710.0 0.00015221
18730.0 0.0001519
18750.0 0.00015159
18770.0 0.00015127
18790.0 0.00015094
18810.0 0.0001506
18830.0 0.00015026
18850.0 0.00014991
18870.0 0.00014954
18890.0 0.00014918
18910.0 0.00014881
18930.0 0.00014842
18950.0 0.00014803
18970.0 0.00014763
18990.0 0.00014723
19010.0 0.00014681
19030.0 0.00014639
19050.0 0.00014596
19070.0 0.00014553
19090.0 0.00014508
19110.0 0.00014464
19130.0 0.00014418
19150.0 0.00014371
19170.0 0.00014324
19190.0 0.00014277
19210.0 0.00014228
19230.0 0.00014178
19250.0 0.00014129
19270.0 0.00014079
19290.0 0.00014027
19310.0 0.00013976
19330.0 0.00013924
19350.0 0.0001387
19370.0 0.00013817
19390.0 0.00013763
19410.0 0.00013708
19430.0 0.00013652
19450.0 0.00013596
19470.0 0.0001354
19490.0 0.00013483
19510.0 0.00013425
19530.0 0.00013367
19550.0 0.00013308
19570.0 0.00013249
19590.0 0.00013189
19610.0 0.00013129
19630.0 0.00013068
19650.0 0.00013007
19670.0 0.00012946
19690.0 0.00012884
19710.0 0.00012821
19730.0 0.00012758
19750.0 0.00012695
19770.0 0.00012631
19790.0 0.00012567
19810.0 0.00012502
19830.0 0.00012437
19850.0 0.00012371
19870.0 0.00012304
19890.0 0.00012235
19910.0 0.00012162
19930.0 0.00012084
19950.0 0.00011998
19970.0 0.000119
19990.0 0.00011788
20010.0 0.00011664
20030.0 0.00011522
20050.0 0.00011363
20070.0 0.00011194
20090.0 0.00011018
20110.0 0.00010827
20130.0 0.00010637
20150.0 0.0001045
20170.0 0.00010259
20190.0 0.00010069
20210.0 9.887e-05
20230.0 9.7087e-05
20250.0 9.5295e-05
20270.0 9.3583e-05
20290.0 9.1957e-05
20310.0 9.0359e-05
20330.0 8.8792e-05
20350.0 8.7363e-05
20370.0 8.5989e-05
20390.0 8.4659e-05
20410.0 8.3418e-05
20430.0 8.2271e-05
20450.0 8.1158e-05
20470.0 8.012e-05
20490.0 7.9169e-05
20510.0 7.8279e-05
20530.0 7.7439e-05
20550.0 7.6668e-05
20570.0 7.596e-05
20590.0 7.5293e-05
20610.0 7.4672e-05
20630.0 7.4097e-05
20650.0 7.3555e-05
20670.0 7.3041e-05
20690.0 7.2555e-05
20710.0 7.2087e-05
20730.0 7.1632e-05
20750.0 7.1184e-05
20770.0 7.0737e-05
20790.0 7.0286e-05
20810.0 6.9825e-05
20830.0 6.935e-05
20850.0 6.8857e-05
20870.0 6.8339e-05
20890.0 6.7794e-05
20910.0 6.7225e-05
20930.0 6.6625e-05
20950.0 6.5989e-05
20970.0 6.5328e-05
20990.0 6.4641e-05
21010.0 6.3911e-05
21030.0 6.3156e-05
21050.0 6.2386e-05
21070.0 6.1587e-05
21090.0 6.0754e-05
21110.0 5.9922e-05
21130.0 5.9082e-05
21150.0 5.8217e-05
21170.0 5.735e-05
21190.0 5.6497e-05
21210.0 5.5627e-05
21230.0 5.4752e-05
21250.0 5.3903e-05
21270.0 5.3065e-05
21290.0 5.2224e-05
21310.0 5.1401e-05
21330.0 5.0613e-05
21350.0 4.9828e-05
21370.0 4.9056e-05
21390.0 4.8316e-05
21410.0 4.7598e-05
21430.0 4.688e-05
21450.0 4.6195e-05
21470.0 4.5539e-05
21490.0 4.4894e-05
21510.0 4.4264e-05
21530.0 4.3664e-05
21550.0 4.3079e-05
21570.0 4.2502e-05
21590.0 4.1947e-05
21610.0 4.141e-05
21630.0 4.0881e-05
21650.0 4.036e-05
21670.0 3.9862e-05
21690.0 3.9372e-05
21710.0 3.8885e-05
21730.0 3.8411e-05
21750.0 3.7947e-05
21770.0 3.748e-05
21790.0 3.7019e-05
21810.0 3.6567e-05
21830.0 3.6115e-05
21850.0 3.5661e-05
21870.0 3.5211e-05
21890.0 3.4765e-05
21910.0 3.4313e-05
21930.0 3.3859e-05
21950.0 3.341e-05
21970.0 3.2957e-05
21990.0 3.2494e-05
22010.0 3.2038e-05
22030.0 3.1582e-05
22050.0 3.112e-05
22070.0 3.0658e-05
22090.0 3.0203e-05
22110.0 2.9745e-05
22130.0 2.9283e-05
22150.0 2.8828e-05
22170.0 2.8379e-05
22190.0 2.7923e-05
22210.0 2.7472e-05
22230.0 2.7033e-05
22250.0 2.6594e-05
22270.0 2.6154e-05
22290.0 2.5725e-05
22310.0 2.5303e-05
22330.0 2.4875e-05
22350.0 2.4454e-05
22370.0 2.4043e-05
22390.0 2.3631e-05
22410.0 2.3217e-05
22430.0 2.2815e-05
22450.0 2.2417e-05
22470.0 2.2015e-05
22490.0 2.1618e-05
22510.0 2.123e-05
22530.0 2.0837e-05
22550.0 2.0443e-05
22570.0 2.006e-05
22590.0 1.9681e-05
22610.0 1.9299e-05
22630.0 1.8924e-05
22650.0 1.8561e-05
22670.0 1.8198e-05
22690.0 1.7839e-05
22710.0 1.7494e-05
22730.0 1.7156e-05
22750.0 1.6819e-05
22770.0 1.6497e-05
22790.0 1.619e-05
22810.0 1.5889e-05
22830.0 1.5598e-05
22850.0 1.5323e-05
22870.0 1.506e-05
22890.0 1.4805e-05
22910.0 1.4567e-05
22930.0 1.4343e-05
22950.0 1.413e-05
