#lamb flux
1010.0 1.7975e-08
1030.0 2.0072e-08
1050.0 2.2483e-08
1070.0 2.5197e-08
1090.0 2.828e-08
1110.0 3.1442e-08
1130.0 3.4625e-08
1150.0 3.7959e-08
1170.0 4.1399e-08
1190.0 4.466e-08
1210.0 4.7966e-08
1230.0 5.1382e-08
1250.0 5.4729e-08
1270.0 5.798e-08
1290.0 6.1415e-08
1310.0 6.4848e-08
1330.0 6.8141e-08
1350.0 7.147e-08
1370.0 7.4908e-08
1390.0 7.826e-08
1410.0 8.1512e-08
1430.0 8.4913e-08
1450.0 8.8312e-08
1470.0 9.1598e-08
1490.0 9.4919e-08
1510.0 9.8426e-08
1530.0 1.0175e-07
1550.0 1.0503e-07
1570.0 1.0842e-07
1590.0 1.1181e-07
1610.0 1.1505e-07
1630.0 1.1838e-07
1650.0 1.2181e-07
1670.0 1.2512e-07
1690.0 1.2838e-07
1710.0 1.3176e-07
1730.0 1.3516e-07
1750.0 1.3835e-07
1770.0 1.4162e-07
1790.0 1.4496e-07
1810.0 1.4817e-07
1830.0 1.5132e-07
1850.0 1.5465e-07
1870.0 1.5788e-07
1890.0 1.6098e-07
1910.0 1.6413e-07
1930.0 1.6733e-07
1950.0 1.7035e-07
1970.0 1.7331e-07
1990.0 1.7635e-07
2010.0 1.7931e-07
2030.0 1.821e-07
2050.0 1.8495e-07
2070.0 1.8784e-07
2090.0 1.9048e-07
2110.0 1.9305e-07
2130.0 1.9566e-07
2150.0 1.9813e-07
2170.0 2.004e-07
2190.0 2.027e-07
2210.0 2.0493e-07
2230.0 2.0695e-07
2250.0 2.0886e-07
2270.0 2.1081e-07
2290.0 2.1255e-07
2310.0 2.1406e-07
2330.0 2.1555e-07
2350.0 2.1694e-07
2370.0 2.1811e-07
2390.0 2.192e-07
2410.0 2.2037e-07
2430.0 2.2141e-07
2450.0 2.2244e-07
2470.0 2.2371e-07
2490.0 2.254e-07
2510.0 2.2749e-07
2530.0 2.3087e-07
2550.0 2.3686e-07
2570.0 2.4665e-07
2590.0 2.6171e-07
2610.0 2.8616e-07
2630.0 3.2055e-07
2650.0 3.6253e-07
2670.0 4.1217e-07
2690.0 4.6702e-07
2710.0 5.1871e-07
2730.0 5.6349e-07
2750.0 6.021e-07
2770.0 6.3058e-07
2790.0 6.4906e-07
2810.0 6.6094e-07
2830.0 6.6857e-07
2850.0 6.7197e-07
2870.0 6.7359e-07
2890.0 6.7478e-07
2910.0 6.7553e-07
2930.0 6.7562e-07
2950.0 6.7607e-07
2970.0 6.7676e-07
2990.0 6.771e-07
3010.0 1.0489e-05
3030.0 1.048e-05
3050.0 1.0469e-05
3070.0 1.0447e-05
3090.0 1.0418e-05
3110.0 1.0372e-05
3130.0 1.0292e-05
3150.0 1.0172e-05
3170.0 1.0002e-05
3190.0 9.7839e-06
3210.0 9.5401e-06
3230.0 9.2954e-06
3250.0 9.141e-06
3270.0 9.0136e-06
3290.0 9.0721e-06
3310.0 9.1254e-06
3330.0 9.3568e-06
3350.0 9.6871e-06
3370.0 1.0118e-05
3390.0 1.0637e-05
3410.0 1.1186e-05
3430.0 1.1793e-05
3450.0 1.2475e-05
3470.0 1.3202e-05
3490.0 1.3952e-05
3510.0 1.4791e-05
3530.0 1.5685e-05
3550.0 1.6525e-05
3570.0 1.7361e-05
3590.0 1.8353e-05
3610.0 1.9241e-05
3630.0 2.0298e-05
3650.0 2.1333e-05
3670.0 2.2325e-05
3690.0 2.3032e-05
3710.0 2.3424e-05
3730.0 2.3651e-05
3750.0 2.3586e-05
3770.0 2.1546e-05
3790.0 1.9427e-05
3810.0 1.8065e-05
3830.0 1.5662e-05
3850.0 1.2022e-05
3870.0 1.0527e-05
3890.0 1.5775e-05
3910.0 2.3448e-05
3930.0 2.8441e-05
3950.0 2.9313e-05
3970.0 2.8947e-05
3990.0 3.2285e-05
4010.0 3.8518e-05
4030.0 4.0263e-05
4050.0 3.7271e-05
4070.0 3.2481e-05
4090.0 2.9865e-05
4110.0 3.4957e-05
4130.0 3.6611e-05
4150.0 3.504e-05
4170.0 3.5935e-05
4190.0 3.6564e-05
4210.0 3.6615e-05
4230.0 3.9349e-05
4250.0 4.2778e-05
4270.0 4.3349e-05
4290.0 4.3639e-05
4310.0 4.5667e-05
4330.0 5.0325e-05
4350.0 5.7199e-05
4370.0 6.4455e-05
4390.0 6.224e-05
4410.0 5.2531e-05
4430.0 4.4118e-05
4450.0 3.7273e-05
4470.0 3.6472e-05
4490.0 3.9702e-05
4510.0 4.4083e-05
4530.0 4.8059e-05
4550.0 5.5282e-05
4570.0 6.6454e-05
4590.0 8.1728e-05
4610.0 0.00010317
4630.0 0.00012332
4650.0 0.00012733
4670.0 0.00012617
4690.0 0.00013412
4710.0 0.00013837
4730.0 0.0001172
4750.0 8.6178e-05
4770.0 7.0738e-05
4790.0 6.7073e-05
4810.0 6.2768e-05
4830.0 6.0334e-05
4850.0 6.9645e-05
4870.0 8.769e-05
4890.0 9.8164e-05
4910.0 8.52e-05
4930.0 7.7575e-05
4950.0 8.8149e-05
4970.0 0.00011634
4990.0 0.00014662
5010.0 0.00015189
5030.0 0.00012541
5050.0 8.4077e-05
5070.0 5.8947e-05
5090.0 5.2044e-05
5110.0 5.3928e-05
5130.0 5.7902e-05
5150.0 6.0554e-05
5170.0 6.0395e-05
5190.0 5.9461e-05
5210.0 5.7898e-05
5230.0 5.9224e-05
5250.0 6.3273e-05
5270.0 7.3782e-05
5290.0 8.5217e-05
5310.0 9.2625e-05
5330.0 9.5304e-05
5350.0 9.755e-05
5370.0 0.00010618
5390.0 0.00011201
5410.0 0.00010765
5430.0 9.4848e-05
5450.0 8.9463e-05
5470.0 0.00010218
5490.0 0.00013049
5510.0 0.00016345
5530.0 0.00017889
5550.0 0.00017505
5570.0 0.00016085
5590.0 0.00014566
5610.0 0.00013528
5630.0 0.00013002
5650.0 0.00013325
5670.0 0.00013056
5690.0 0.00012305
5710.0 0.00011621
5730.0 0.00010366
5750.0 7.8937e-05
5770.0 6.954e-05
5790.0 7.7226e-05
5810.0 9.2208e-05
5830.0 0.00010305
5850.0 0.00011011
5870.0 0.00011186
5890.0 0.0001072
5910.0 0.00010272
5930.0 0.00010356
5950.0 0.0001089
5970.0 0.00011308
5990.0 0.00010637
6010.0 8.9859e-05
6030.0 7.4616e-05
6050.0 6.5682e-05
6070.0 6.581e-05
6090.0 7.3509e-05
6110.0 7.8917e-05
6130.0 7.5553e-05
6150.0 7.1902e-05
6170.0 8.0045e-05
6190.0 9.6013e-05
6210.0 0.00011455
6230.0 0.00012796
6250.0 0.00012677
6270.0 0.00011393
6290.0 9.4434e-05
6310.0 7.552e-05
6330.0 6.1117e-05
6350.0 5.6283e-05
6370.0 6.1731e-05
6390.0 7.1901e-05
6410.0 8.2365e-05
6430.0 9.5456e-05
6450.0 0.00011142
6470.0 0.00013758
6490.0 0.00016754
6510.0 0.00018242
6530.0 0.00017054
6550.0 0.00015862
6570.0 0.00015672
6590.0 0.00015084
6610.0 0.00013776
6630.0 0.00012463
6650.0 0.0001161
6670.0 0.00011943
6690.0 0.00011829
6710.0 0.00010535
6730.0 9.7091e-05
6750.0 8.6576e-05
6770.0 8.4582e-05
6790.0 9.0422e-05
6810.0 9.569e-05
6830.0 9.7752e-05
6850.0 9.5627e-05
6870.0 9.1839e-05
6890.0 8.9846e-05
6910.0 8.5036e-05
6930.0 8.0909e-05
6950.0 8.1113e-05
6970.0 8.3252e-05
6990.0 9.2172e-05
7010.0 9.7594e-05
7030.0 8.9548e-05
7050.0 8.3308e-05
7070.0 7.858e-05
7090.0 6.9751e-05
7110.0 6.4837e-05
7130.0 6.6236e-05
7150.0 6.8554e-05
7170.0 7.186e-05
7190.0 7.1663e-05
7210.0 7.2227e-05
7230.0 7.7044e-05
7250.0 8.8839e-05
7270.0 0.00010286
7290.0 0.00010945
7310.0 0.00010534
7330.0 9.3856e-05
7350.0 8.4701e-05
7370.0 8.3487e-05
7390.0 8.4617e-05
7410.0 8.8137e-05
7430.0 9.7035e-05
7450.0 0.00010539
7470.0 0.00011655
7490.0 0.00012679
7510.0 0.00011343
7530.0 0.00010896
7550.0 9.2934e-05
7570.0 7.9095e-05
7590.0 6.578e-05
7610.0 6.0731e-05
7630.0 6.3823e-05
7650.0 7.3306e-05
7670.0 8.0282e-05
7690.0 9.0071e-05
7710.0 0.00010051
7730.0 0.0001056
7750.0 0.00010653
7770.0 0.00010653
7790.0 0.00010575
7810.0 0.00010947
7830.0 0.00010593
7850.0 9.5946e-05
7870.0 8.761e-05
7890.0 8.1641e-05
7910.0 7.3658e-05
7930.0 6.3573e-05
7950.0 5.8211e-05
7970.0 5.7568e-05
7990.0 6.008e-05
8010.0 6.3814e-05
8030.0 6.4809e-05
8050.0 6.4616e-05
8070.0 6.2862e-05
8090.0 6.2332e-05
8110.0 5.9479e-05
8130.0 5.5982e-05
8150.0 5.2723e-05
8170.0 5.1933e-05
8190.0 5.3158e-05
8210.0 5.2934e-05
8230.0 5.4202e-05
8250.0 5.3987e-05
8270.0 4.8125e-05
8290.0 3.6855e-05
8310.0 2.5466e-05
8330.0 1.6948e-05
8350.0 1.2019e-05
8370.0 1.4019e-05
8390.0 1.5627e-05
8410.0 1.992e-05
8430.0 2.4138e-05
8450.0 2.6402e-05
8470.0 2.7196e-05
8490.0 2.8257e-05
8510.0 2.9708e-05
8530.0 3.346e-05
8550.0 3.6996e-05
8570.0 4.3158e-05
8590.0 5.2638e-05
8610.0 6.1299e-05
8630.0 7.1587e-05
8650.0 8.0519e-05
8670.0 7.9244e-05
8690.0 7.4196e-05
8710.0 7.0249e-05
8730.0 6.6458e-05
8750.0 6.3834e-05
8770.0 6.2057e-05
8790.0 5.9831e-05
8810.0 5.5522e-05
8830.0 5.0708e-05
8850.0 4.4099e-05
8870.0 3.8116e-05
8890.0 3.4276e-05
8910.0 3.4678e-05
8930.0 3.4154e-05
8950.0 3.639e-05
8970.0 3.7163e-05
8990.0 3.8647e-05
9010.0 4.0314e-05
9030.0 4.0513e-05
9050.0 4.0588e-05
9070.0 4.0657e-05
9090.0 4.0709e-05
9110.0 4.0724e-05
9130.0 4.0769e-05
9150.0 4.0842e-05
9170.0 4.0908e-05
9190.0 4.0964e-05
9210.0 4.1119e-05
9230.0 4.1192e-05
9250.0 4.1283e-05
9270.0 4.1383e-05
9290.0 4.1489e-05
9310.0 4.1607e-05
9330.0 4.1733e-05
9350.0 4.1863e-05
9370.0 4.2002e-05
9390.0 4.215e-05
9410.0 4.2303e-05
9430.0 4.246e-05
9450.0 4.2628e-05
9470.0 4.2803e-05
9490.0 4.298e-05
9510.0 4.3165e-05
9530.0 4.336e-05
9550.0 4.3555e-05
9570.0 4.3756e-05
9590.0 4.3966e-05
9610.0 4.418e-05
9630.0 4.4397e-05
9650.0 4.462e-05
9670.0 4.4852e-05
9690.0 4.5084e-05
9710.0 4.5321e-05
9730.0 4.5565e-05
9750.0 4.5812e-05
9770.0 4.6058e-05
9790.0 4.6312e-05
9810.0 4.6571e-05
9830.0 4.683e-05
9850.0 4.7092e-05
9870.0 4.736e-05
9890.0 4.7629e-05
9910.0 4.7897e-05
9930.0 4.817e-05
9950.0 4.8441e-05
9970.0 4.8716e-05
9990.0 4.8991e-05
10010.0 4.8555e-05
10030.0 4.8827e-05
10050.0 4.9093e-05
10070.0 4.934e-05
10090.0 4.9624e-05
10110.0 4.9899e-05
10130.0 5.0172e-05
10150.0 5.0448e-05
10170.0 5.0717e-05
10190.0 5.0979e-05
10210.0 5.1245e-05
10230.0 5.151e-05
10250.0 5.1766e-05
10270.0 5.2021e-05
10290.0 5.2278e-05
10310.0 5.2526e-05
10330.0 5.2766e-05
10350.0 5.3009e-05
10370.0 5.3248e-05
10390.0 5.3477e-05
10410.0 5.3702e-05
10430.0 5.393e-05
10450.0 5.4146e-05
10470.0 5.4353e-05
10490.0 5.456e-05
10510.0 5.4761e-05
10530.0 5.4947e-05
10550.0 5.513e-05
10570.0 5.5313e-05
10590.0 5.5483e-05
10610.0 5.5643e-05
10630.0 5.5802e-05
10650.0 5.5953e-05
10670.0 5.6088e-05
10690.0 5.6219e-05
10710.0 5.6346e-05
10730.0 5.6458e-05
10750.0 5.6557e-05
10770.0 5.6659e-05
10790.0 5.6749e-05
10810.0 5.6823e-05
10830.0 5.6889e-05
10850.0 5.6948e-05
10870.0 5.6975e-05
10890.0 5.697e-05
10910.0 5.6925e-05
10930.0 5.6805e-05
10950.0 5.6558e-05
10970.0 5.6171e-05
10990.0 5.563e-05
11010.0 5.4123e-05
11030.0 5.3126e-05
11050.0 5.1971e-05
11070.0 5.0627e-05
11090.0 4.9044e-05
11110.0 4.7434e-05
11130.0 4.5783e-05
11150.0 4.4038e-05
11170.0 4.2286e-05
11190.0 4.0638e-05
11210.0 3.8997e-05
11230.0 3.7386e-05
11250.0 3.592e-05
11270.0 3.4582e-05
11290.0 3.3309e-05
11310.0 3.2168e-05
11330.0 3.1212e-05
11350.0 3.0344e-05
11370.0 2.9565e-05
11390.0 2.8898e-05
11410.0 2.8306e-05
11430.0 2.7727e-05
11450.0 2.7184e-05
11470.0 2.6659e-05
11490.0 2.6108e-05
11510.0 2.5507e-05
11530.0 2.4891e-05
11550.0 2.4238e-05
11570.0 2.3515e-05
11590.0 2.2758e-05
11610.0 2.1995e-05
11630.0 2.1185e-05
11650.0 2.0348e-05
11670.0 1.9555e-05
11690.0 1.8783e-05
11710.0 1.802e-05
11730.0 1.731e-05
11750.0 1.6677e-05
11770.0 1.6077e-05
11790.0 1.5529e-05
11810.0 1.5056e-05
11830.0 1.4634e-05
11850.0 1.4243e-05
11870.0 1.3903e-05
11890.0 1.3602e-05
11910.0 1.3313e-05
11930.0 1.3035e-05
11950.0 1.2769e-05
11970.0 1.2499e-05
11990.0 1.221e-05
12010.0 1.1917e-05
12030.0 1.1618e-05
12050.0 1.1301e-05
12070.0 1.097e-05
12090.0 1.0656e-05
12110.0 1.0344e-05
12130.0 1.0038e-05
12150.0 9.7597e-06
12170.0 9.5176e-06
12190.0 9.3025e-06
12210.0 9.1369e-06
12230.0 9.0265e-06
12250.0 8.9689e-06
12270.0 8.9705e-06
12290.0 9.0296e-06
12310.0 9.1381e-06
12330.0 9.3052e-06
12350.0 9.5201e-06
12370.0 9.7645e-06
12390.0 1.0043e-05
12410.0 1.0364e-05
12430.0 1.0678e-05
12450.0 1.099e-05
12470.0 1.1308e-05
12490.0 1.1609e-05
12510.0 1.1873e-05
12530.0 1.2117e-05
12550.0 1.233e-05
12570.0 1.2494e-05
12590.0 1.2614e-05
12610.0 1.2695e-05
12630.0 1.2728e-05
12650.0 1.2712e-05
12670.0 1.2658e-05
12690.0 1.2563e-05
12710.0 1.2435e-05
12730.0 1.2279e-05
12750.0 1.2089e-05
12770.0 1.1879e-05
12790.0 1.1657e-05
12810.0 1.1416e-05
12830.0 1.1157e-05
12850.0 1.0899e-05
12870.0 1.0635e-05
12890.0 1.0356e-05
12910.0 1.0074e-05
12930.0 9.7947e-06
12950.0 9.5008e-06
12970.0 9.1965e-06
12990.0 8.9007e-06
13010.0 8.6017e-06
13030.0 8.2928e-06
13050.0 7.9891e-06
13070.0 7.699e-06
13090.0 7.405e-06
13110.0 7.119e-06
13130.0 6.8552e-06
13150.0 6.6079e-06
13170.0 6.3713e-06
13190.0 6.1668e-06
13210.0 5.9939e-06
13230.0 5.8452e-06
13250.0 5.7278e-06
13270.0 5.6454e-06
13290.0 5.5933e-06
13310.0 5.5734e-06
13330.0 5.5846e-06
13350.0 5.6225e-06
13370.0 5.6879e-06
13390.0 5.7786e-06
13410.0 5.8801e-06
13430.0 5.9972e-06
13450.0 6.1279e-06
13470.0 6.2601e-06
13490.0 6.3891e-06
13510.0 6.5249e-06
13530.0 6.6523e-06
13550.0 6.7654e-06
13570.0 6.8695e-06
13590.0 6.9643e-06
13610.0 7.0416e-06
13630.0 7.1028e-06
13650.0 7.1536e-06
13670.0 7.1894e-06
13690.0 7.2102e-06
13710.0 7.2192e-06
13730.0 7.2166e-06
13750.0 7.2017e-06
13770.0 7.1769e-06
13790.0 7.1423e-06
13810.0 7.0987e-06
13830.0 7.0483e-06
13850.0 6.9893e-06
13870.0 6.9218e-06
13890.0 6.8493e-06
13910.0 6.7713e-06
13930.0 6.6849e-06
13950.0 6.5938e-06
13970.0 6.503e-06
13990.0 6.4071e-06
14010.0 6.3083e-06
14030.0 6.2123e-06
14050.0 6.1184e-06
14070.0 6.023e-06
14090.0 5.9346e-06
14110.0 5.8544e-06
14130.0 5.78e-06
14150.0 5.7136e-06
14170.0 5.6598e-06
14190.0 5.6165e-06
14210.0 5.5838e-06
14230.0 5.564e-06
14250.0 5.5564e-06
14270.0 5.5613e-06
14290.0 5.5795e-06
14310.0 5.6081e-06
14330.0 5.6471e-06
14350.0 5.6976e-06
14370.0 5.7555e-06
14390.0 5.8177e-06
14410.0 5.8884e-06
14430.0 5.9638e-06
14450.0 6.0395e-06
14470.0 6.1176e-06
14490.0 6.2017e-06
14510.0 6.2845e-06
14530.0 6.3673e-06
14550.0 6.4566e-06
14570.0 6.5517e-06
14590.0 6.6495e-06
14610.0 6.7579e-06
14630.0 6.8821e-06
14650.0 7.0156e-06
14670.0 7.1607e-06
14690.0 7.3266e-06
14710.0 7.5118e-06
14730.0 7.7011e-06
14750.0 7.9083e-06
14770.0 8.1335e-06
14790.0 8.3622e-06
14810.0 8.5908e-06
14830.0 8.8362e-06
14850.0 9.0749e-06
14870.0 9.2975e-06
14890.0 9.512e-06
14910.0 9.7146e-06
14930.0 9.8887e-06
14950.0 1.0035e-05
14970.0 1.016e-05
14990.0 1.0253e-05
15010.0 1.0315e-05
15030.0 1.0354e-05
15050.0 1.0372e-05
15070.0 1.0373e-05
15090.0 1.0363e-05
15110.0 1.0345e-05
15130.0 1.0323e-05
15150.0 1.0301e-05
15170.0 1.0276e-05
15190.0 1.025e-05
15210.0 1.0225e-05
15230.0 1.0201e-05
15250.0 1.0175e-05
15270.0 1.015e-05
15290.0 1.0126e-05
15310.0 1.0102e-05
15330.0 1.0077e-05
15350.0 1.0054e-05
15370.0 1.003e-05
15390.0 1.0005e-05
15410.0 9.9812e-06
15430.0 9.958e-06
15450.0 9.9341e-06
15470.0 9.9097e-06
15490.0 9.8868e-06
15510.0 9.8637e-06
15530.0 9.8397e-06
15550.0 9.8163e-06
15570.0 9.7937e-06
15590.0 9.7698e-06
15610.0 9.7455e-06
15630.0 9.7228e-06
15650.0 9.6997e-06
15670.0 9.6758e-06
15690.0 9.6524e-06
15710.0 9.63e-06
15730.0 9.6062e-06
15750.0 9.5822e-06
15770.0 9.5593e-06
15790.0 9.5361e-06
15810.0 9.5114e-06
15830.0 9.4879e-06
15850.0 9.465e-06
15870.0 9.4409e-06
15890.0 9.4168e-06
15910.0 9.3937e-06
15930.0 9.3699e-06
15950.0 9.345e-06
15970.0 9.321e-06
15990.0 9.2974e-06
16010.0 9.2726e-06
16030.0 9.2475e-06
16050.0 9.2239e-06
16070.0 9.1995e-06
16090.0 9.1742e-06
16110.0 9.1496e-06
16130.0 9.1255e-06
16150.0 9.0994e-06
16170.0 9.0738e-06
16190.0 9.0491e-06
16210.0 9.0237e-06
16230.0 8.9974e-06
16250.0 8.972e-06
16270.0 8.9469e-06
16290.0 8.9203e-06
16310.0 8.8939e-06
16330.0 8.8683e-06
16350.0 8.8419e-06
16370.0 8.8139e-06
16390.0 8.7877e-06
16410.0 8.7613e-06
16430.0 8.7338e-06
16450.0 8.7064e-06
16470.0 8.68e-06
16490.0 8.6522e-06
16510.0 8.6238e-06
16530.0 8.5963e-06
16550.0 8.5687e-06
16570.0 8.5397e-06
16590.0 8.5109e-06
16610.0 8.4834e-06
16630.0 8.4546e-06
16650.0 8.4253e-06
16670.0 8.3968e-06
16690.0 8.3682e-06
16710.0 8.3377e-06
16730.0 8.3082e-06
16750.0 8.2791e-06
16770.0 8.2491e-06
16790.0 8.2183e-06
16810.0 8.1888e-06
16830.0 8.159e-06
16850.0 8.1279e-06
16870.0 8.0973e-06
16890.0 8.0673e-06
16910.0 8.0357e-06
16930.0 8.0037e-06
16950.0 7.9731e-06
16970.0 7.942e-06
16990.0 7.9097e-06
17010.0 7.8781e-06
17030.0 7.8471e-06
17050.0 7.8146e-06
17070.0 7.7819e-06
17090.0 7.7502e-06
17110.0 7.7179e-06
17130.0 7.6842e-06
17150.0 7.6515e-06
17170.0 7.6194e-06
17190.0 7.586e-06
17210.0 7.5525e-06
17230.0 7.5201e-06
17250.0 7.4867e-06
17270.0 7.4522e-06
17290.0 7.4187e-06
17310.0 7.3855e-06
17330.0 7.351e-06
17350.0 7.3163e-06
17370.0 7.2831e-06
17390.0 7.249e-06
17410.0 7.214e-06
17430.0 7.1798e-06
17450.0 7.1461e-06
17470.0 7.1103e-06
17490.0 7.0751e-06
17510.0 7.0409e-06
17530.0 7.0059e-06
17550.0 6.9701e-06
17570.0 6.9354e-06
17590.0 6.9009e-06
17610.0 6.8649e-06
17630.0 6.8293e-06
17650.0 6.7945e-06
17670.0 6.7589e-06
17690.0 6.7219e-06
17710.0 6.6869e-06
17730.0 6.6516e-06
17750.0 6.6153e-06
17770.0 6.5793e-06
17790.0 6.5443e-06
17810.0 6.5079e-06
17830.0 6.4712e-06
17850.0 6.4356e-06
17870.0 6.3998e-06
17890.0 6.3628e-06
17910.0 6.3263e-06
17930.0 6.291e-06
17950.0 6.2545e-06
17970.0 6.2178e-06
17990.0 6.182e-06
18010.0 6.1461e-06
18030.0 6.1086e-06
18050.0 6.0722e-06
18070.0 6.0364e-06
18090.0 5.9997e-06
18110.0 5.9626e-06
18130.0 5.9268e-06
18150.0 5.8908e-06
18170.0 5.8537e-06
18190.0 5.8173e-06
18210.0 5.7816e-06
18230.0 5.7446e-06
18250.0 5.7073e-06
18270.0 5.6716e-06
18290.0 5.6354e-06
18310.0 5.5984e-06
18330.0 5.5622e-06
18350.0 5.5267e-06
18370.0 5.4898e-06
18390.0 5.4531e-06
18410.0 5.4174e-06
18430.0 5.3813e-06
18450.0 5.344e-06
18470.0 5.3081e-06
18490.0 5.2727e-06
18510.0 5.2362e-06
18530.0 5.1999e-06
18550.0 5.1647e-06
18570.0 5.1287e-06
18590.0 5.0919e-06
18610.0 5.0563e-06
18630.0 5.021e-06
18650.0 4.9847e-06
18670.0 4.9485e-06
18690.0 4.9138e-06
18710.0 4.8782e-06
18730.0 4.8422e-06
18750.0 4.8071e-06
18770.0 4.7724e-06
18790.0 4.736e-06
18810.0 4.7005e-06
18830.0 4.666e-06
18850.0 4.6308e-06
18870.0 4.5952e-06
18890.0 4.5607e-06
18910.0 4.5264e-06
18930.0 4.491e-06
18950.0 4.4561e-06
18970.0 4.4221e-06
18990.0 4.3874e-06
19010.0 4.3518e-06
19030.0 4.318e-06
19050.0 4.2841e-06
19070.0 4.2494e-06
19090.0 4.2153e-06
19110.0 4.1822e-06
19130.0 4.1477e-06
19150.0 4.1133e-06
19170.0 4.0799e-06
19190.0 4.0465e-06
19210.0 4.0122e-06
19230.0 3.9785e-06
19250.0 3.946e-06
19270.0 3.9125e-06
19290.0 3.8789e-06
19310.0 3.8464e-06
19330.0 3.8137e-06
19350.0 3.7797e-06
19370.0 3.747e-06
19390.0 3.7148e-06
19410.0 3.6819e-06
19430.0 3.6489e-06
19450.0 3.6172e-06
19470.0 3.5851e-06
19490.0 3.5523e-06
19510.0 3.5203e-06
19530.0 3.489e-06
19550.0 3.4565e-06
19570.0 3.424e-06
19590.0 3.393e-06
19610.0 3.3615e-06
19630.0 3.3295e-06
19650.0 3.2984e-06
19670.0 3.2678e-06
19690.0 3.236e-06
19710.0 3.2046e-06
19730.0 3.1742e-06
19750.0 3.1434e-06
19770.0 3.1117e-06
19790.0 3.0813e-06
19810.0 3.0513e-06
19830.0 3.0204e-06
19850.0 2.9897e-06
19870.0 2.9597e-06
19890.0 2.9284e-06
19910.0 2.8954e-06
19930.0 2.862e-06
19950.0 2.8263e-06
19970.0 2.786e-06
19990.0 2.7414e-06
20010.0 2.7198e-06
20030.0 2.6662e-06
20050.0 2.6075e-06
20070.0 2.5473e-06
20090.0 2.4859e-06
20110.0 2.4203e-06
20130.0 2.3572e-06
20150.0 2.2975e-06
20170.0 2.2386e-06
20190.0 2.1817e-06
20210.0 2.1301e-06
20230.0 2.0819e-06
20250.0 2.0356e-06
20270.0 1.9944e-06
20290.0 1.9582e-06
20310.0 1.9253e-06
20330.0 1.8962e-06
20350.0 1.8732e-06
20370.0 1.8543e-06
20390.0 1.8395e-06
20410.0 1.8295e-06
20430.0 1.8238e-06
20450.0 1.8222e-06
20470.0 1.8249e-06
20490.0 1.8312e-06
20510.0 1.8411e-06
20530.0 1.8549e-06
20550.0 1.8713e-06
20570.0 1.8896e-06
20590.0 1.9109e-06
20610.0 1.9343e-06
20630.0 1.9582e-06
20650.0 1.9836e-06
20670.0 2.0111e-06
20690.0 2.0379e-06
20710.0 2.0643e-06
20730.0 2.0916e-06
20750.0 2.119e-06
20770.0 2.1447e-06
20790.0 2.1707e-06
20810.0 2.1974e-06
20830.0 2.2232e-06
20850.0 2.2484e-06
20870.0 2.2753e-06
20890.0 2.3025e-06
20910.0 2.3287e-06
20930.0 2.3561e-06
20950.0 2.3849e-06
20970.0 2.4133e-06
20990.0 2.4416e-06
21010.0 2.4718e-06
21030.0 2.5015e-06
21050.0 2.5299e-06
21070.0 2.5583e-06
21090.0 2.5866e-06
21110.0 2.6119e-06
21130.0 2.6353e-06
21150.0 2.6575e-06
21170.0 2.677e-06
21190.0 2.6932e-06
21210.0 2.7072e-06
21230.0 2.7184e-06
21250.0 2.7257e-06
21270.0 2.7299e-06
21290.0 2.7308e-06
21310.0 2.7281e-06
21330.0 2.7221e-06
21350.0 2.7125e-06
21370.0 2.6992e-06
21390.0 2.6828e-06
21410.0 2.6633e-06
21430.0 2.6392e-06
21450.0 2.6125e-06
21470.0 2.5837e-06
21490.0 2.5515e-06
21510.0 2.5164e-06
21530.0 2.4807e-06
21550.0 2.4434e-06
21570.0 2.4035e-06
21590.0 2.364e-06
21610.0 2.3256e-06
21630.0 2.2867e-06
21650.0 2.2482e-06
21670.0 2.2142e-06
21690.0 2.182e-06
21710.0 2.1521e-06
21730.0 2.1264e-06
21750.0 2.1053e-06
21770.0 2.0874e-06
21790.0 2.0745e-06
21810.0 2.0667e-06
21830.0 2.0637e-06
21850.0 2.0657e-06
21870.0 2.0726e-06
21890.0 2.0837e-06
21910.0 2.0998e-06
21930.0 2.1203e-06
21950.0 2.1439e-06
21970.0 2.1714e-06
21990.0 2.2039e-06
22010.0 2.2377e-06
22030.0 2.2735e-06
22050.0 2.3126e-06
22070.0 2.3534e-06
22090.0 2.3935e-06
22110.0 2.4352e-06
22130.0 2.4781e-06
22150.0 2.5194e-06
22170.0 2.5592e-06
22190.0 2.5995e-06
22210.0 2.6375e-06
22230.0 2.6712e-06
22250.0 2.7029e-06
22270.0 2.7317e-06
22290.0 2.7557e-06
22310.0 2.7752e-06
22330.0 2.791e-06
22350.0 2.8013e-06
22370.0 2.8062e-06
22390.0 2.8058e-06
22410.0 2.7995e-06
22430.0 2.7878e-06
22450.0 2.7709e-06
22470.0 2.7477e-06
22490.0 2.7193e-06
22510.0 2.6869e-06
22530.0 2.6482e-06
22550.0 2.6038e-06
22570.0 2.557e-06
22590.0 2.5063e-06
22610.0 2.4501e-06
