#lamb flux
1010.0 0.00014569
1030.0 0.00015947
1050.0 0.00017374
1070.0 0.0001898
1090.0 0.0002085
1110.0 0.0002276
1130.0 0.00024677
1150.0 0.00026684
1170.0 0.00028757
1190.0 0.00030734
1210.0 0.00032756
1230.0 0.0003487
1250.0 0.00036963
1270.0 0.00039034
1290.0 0.0004126
1310.0 0.00043528
1330.0 0.00045753
1350.0 0.0004804
1370.0 0.00050428
1390.0 0.0005279
1410.0 0.00055107
1430.0 0.00057525
1450.0 0.00059942
1470.0 0.00062275
1490.0 0.00064608
1510.0 0.00067032
1530.0 0.00069298
1550.0 0.00071489
1570.0 0.00073701
1590.0 0.00075856
1610.0 0.00077846
1630.0 0.00079817
1650.0 0.00081772
1670.0 0.00083582
1690.0 0.00085292
1710.0 0.00087011
1730.0 0.00088673
1750.0 0.00090145
1770.0 0.00091623
1790.0 0.00093097
1810.0 0.00094472
1830.0 0.00095792
1850.0 0.00097229
1870.0 0.00098621
1890.0 0.00099973
1910.0 0.0010141
1930.0 0.0010294
1950.0 0.0010446
1970.0 0.0010603
1990.0 0.0010776
2010.0 0.0010955
2030.0 0.0011135
2050.0 0.0011331
2070.0 0.0011539
2090.0 0.0011743
2110.0 0.0011952
2130.0 0.0012171
2150.0 0.0012388
2170.0 0.0012597
2190.0 0.0012812
2210.0 0.0013025
2230.0 0.0013226
2250.0 0.0013419
2270.0 0.0013612
2290.0 0.0013791
2310.0 0.0013951
2330.0 0.0014107
2350.0 0.0014253
2370.0 0.001438
2390.0 0.0014497
2410.0 0.0014612
2430.0 0.0014709
2450.0 0.0014791
2470.0 0.0014868
2490.0 0.001494
2510.0 0.0015005
2530.0 0.00151
2550.0 0.0015284
2570.0 0.0015621
2590.0 0.0016193
2610.0 0.0017196
2630.0 0.0018694
2650.0 0.0020617
2670.0 0.0022994
2690.0 0.0025733
2710.0 0.0028415
2730.0 0.0030789
2750.0 0.003278
2770.0 0.0034039
2790.0 0.0034468
2810.0 0.0034122
2830.0 0.0032985
2850.0 0.0031287
2870.0 0.0029181
2890.0 0.0026704
2910.0 0.0024026
2930.0 0.0021335
2950.0 0.0018483
2970.0 0.0015522
2990.0 0.001261
3010.0 0.0015325
3030.0 0.0010509
3050.0 0.00056687
3070.0 0.00016949
3090.0 0.00016949
3110.0 0.00016949
3130.0 0.00016949
3150.0 0.00016949
3170.0 0.00016949
3190.0 0.00016949
3210.0 0.0053511
3230.0 0.014884
3250.0 0.020249
3270.0 0.017769
3290.0 0.013468
3310.0 0.010669
3330.0 0.0099526
3350.0 0.010439
3370.0 0.011293
3390.0 0.012187
3410.0 0.013123
3430.0 0.014266
3450.0 0.01536
3470.0 0.016495
3490.0 0.016706
3510.0 0.014571
3530.0 0.013642
3550.0 0.017446
3570.0 0.022216
3590.0 0.024726
3610.0 0.025598
3630.0 0.027136
3650.0 0.02716
3670.0 0.028301
3690.0 0.033284
3710.0 0.038688
3730.0 0.042238
3750.0 0.04443
3770.0 0.045137
3790.0 0.043773
3810.0 0.040582
3830.0 0.035525
3850.0 0.027951
3870.0 0.024851
3890.0 0.027994
3910.0 0.037084
3930.0 0.046354
3950.0 0.050677
3970.0 0.052455
3990.0 0.056568
4010.0 0.05849
4030.0 0.052882
4050.0 0.039867
4070.0 0.033729
4090.0 0.037774
4110.0 0.041932
4130.0 0.044785
4150.0 0.044812
4170.0 0.043087
4190.0 0.041157
4210.0 0.043821
4230.0 0.047063
4250.0 0.049878
4270.0 0.050012
4290.0 0.048438
4310.0 0.048674
4330.0 0.053506
4350.0 0.058901
4370.0 0.059669
4390.0 0.055642
4410.0 0.049464
4430.0 0.04009
4450.0 0.033117
4470.0 0.032967
4490.0 0.036586
4510.0 0.039871
4530.0 0.041917
4550.0 0.045214
4570.0 0.058785
4590.0 0.08078
4610.0 0.095991
4630.0 0.10196
4650.0 0.11088
4670.0 0.12347
4690.0 0.12568
4710.0 0.10888
4730.0 0.085435
4750.0 0.06706
4770.0 0.056408
4790.0 0.051407
4810.0 0.049948
4830.0 0.054279
4850.0 0.063986
4870.0 0.071459
4890.0 0.073301
4910.0 0.073655
4930.0 0.081394
4950.0 0.093802
4970.0 0.10184
4990.0 0.10109
5010.0 0.091061
5030.0 0.075375
5050.0 0.061118
5070.0 0.052198
5090.0 0.048827
5110.0 0.048877
5130.0 0.049519
5150.0 0.048892
5170.0 0.046537
5190.0 0.04544
5210.0 0.047449
5230.0 0.053571
5250.0 0.063831
5270.0 0.074517
5290.0 0.081381
5310.0 0.086776
5330.0 0.094817
5350.0 0.10152
5370.0 0.10036
5390.0 0.092264
5410.0 0.084991
5430.0 0.085863
5450.0 0.097281
5470.0 0.11262
5490.0 0.12368
5510.0 0.12702
5530.0 0.1244
5550.0 0.11885
5570.0 0.11286
5590.0 0.10715
5610.0 0.10308
5630.0 0.10145
5650.0 0.099634
5670.0 0.093255
5690.0 0.082674
5710.0 0.072274
5730.0 0.065343
5750.0 0.062634
5770.0 0.063408
5790.0 0.064295
5810.0 0.06418
5830.0 0.063244
5850.0 0.06047
5870.0 0.057207
5890.0 0.055763
5910.0 0.056005
5930.0 0.054915
5950.0 0.05032
5970.0 0.04315
5990.0 0.034978
6010.0 0.029168
6030.0 0.027773
6050.0 0.029824
6070.0 0.031335
6090.0 0.02967
6110.0 0.027229
6130.0 0.027994
6150.0 0.031308
6170.0 0.034361
6190.0 0.036222
6210.0 0.036882
6230.0 0.036202
6250.0 0.032922
6270.0 0.027761
6290.0 0.023443
6310.0 0.021652
6330.0 0.021897
6350.0 0.022646
6370.0 0.023867
6390.0 0.027327
6410.0 0.032929
6430.0 0.037902
6450.0 0.040413
6470.0 0.041525
6490.0 0.042155
6510.0 0.042527
6530.0 0.042894
6550.0 0.043372
6570.0 0.044465
6590.0 0.045441
6610.0 0.045321
6630.0 0.043402
6650.0 0.040136
6670.0 0.03698
6690.0 0.034855
6710.0 0.033365
6730.0 0.031978
6750.0 0.031445
6770.0 0.032279
6790.0 0.033482
6810.0 0.034033
6830.0 0.033503
6850.0 0.03189
6870.0 0.030202
6890.0 0.029457
6910.0 0.029443
6930.0 0.030162
6950.0 0.030944
6970.0 0.031545
6990.0 0.031663
7010.0 0.03063
7030.0 0.028317
7050.0 0.025391
7070.0 0.023402
7090.0 0.022991
7110.0 0.023192
7130.0 0.022117
7150.0 0.01999
7170.0 0.019515
7190.0 0.021571
7210.0 0.02472
7230.0 0.027419
7250.0 0.028415
7270.0 0.027763
7290.0 0.026076
7310.0 0.024676
7330.0 0.024441
7350.0 0.024862
7370.0 0.025291
7390.0 0.02651
7410.0 0.029118
7430.0 0.032404
7450.0 0.035142
7470.0 0.036082
7490.0 0.034425
7510.0 0.032061
7530.0 0.030529
7550.0 0.029039
7570.0 0.027343
7590.0 0.026615
7610.0 0.027072
7630.0 0.028658
7650.0 0.031295
7670.0 0.034492
7690.0 0.037381
7710.0 0.039737
7730.0 0.041866
7750.0 0.043691
7770.0 0.044434
7790.0 0.045404
7810.0 0.045944
7830.0 0.045044
7850.0 0.043855
7870.0 0.043359
7890.0 0.044059
7910.0 0.044404
7930.0 0.043757
7950.0 0.042409
7970.0 0.041195
7990.0 0.040021
8010.0 0.038913
8030.0 0.039352
8050.0 0.039643
8070.0 0.039394
8090.0 0.039305
8110.0 0.038763
8130.0 0.039046
8150.0 0.038976
8170.0 0.038446
8190.0 0.037655
8210.0 0.036949
8230.0 0.036162
8250.0 0.035999
8270.0 0.033829
8290.0 0.029001
8310.0 0.023476
8330.0 0.0197
8350.0 0.018917
8370.0 0.0216
8390.0 0.025277
8410.0 0.027135
8430.0 0.028098
8450.0 0.03005
8470.0 0.032643
8490.0 0.036389
8510.0 0.040905
8530.0 0.045779
8550.0 0.049823
8570.0 0.052942
8590.0 0.055352
8610.0 0.056746
8630.0 0.056751
8650.0 0.056083
8670.0 0.056387
8690.0 0.059668
8710.0 0.064077
8730.0 0.066529
8750.0 0.066443
8770.0 0.067542
8790.0 0.06781
8810.0 0.064744
8830.0 0.060451
8850.0 0.0549
8870.0 0.050618
8890.0 0.049462
8910.0 0.049075
8930.0 0.046223
8950.0 0.042916
8970.0 0.041609
8990.0 0.041751
9010.0 0.040811
9030.0 0.040008
9050.0 0.039634
9070.0 0.039446
9090.0 0.039284
9110.0 0.039127
9130.0 0.038971
9150.0 0.038818
9170.0 0.038658
9190.0 0.038535
9210.0 0.038486
9230.0 0.038293
9250.0 0.038123
9270.0 0.037967
9290.0 0.037821
9310.0 0.037678
9330.0 0.03754
9350.0 0.037409
9370.0 0.03728
9390.0 0.037149
9410.0 0.037024
9430.0 0.036892
9450.0 0.036709
9470.0 0.036545
9490.0 0.03648
9510.0 0.036387
9530.0 0.036289
9550.0 0.036185
9570.0 0.036076
9590.0 0.035969
9610.0 0.03586
9630.0 0.035751
9650.0 0.035643
9670.0 0.035538
9690.0 0.035432
9710.0 0.035327
9730.0 0.035224
9750.0 0.035121
9770.0 0.035016
9790.0 0.034914
9810.0 0.034813
9830.0 0.034711
9850.0 0.034609
9870.0 0.034509
9890.0 0.034408
9910.0 0.034305
9930.0 0.034202
9950.0 0.033935
9970.0 0.033881
9990.0 0.033816
10010.0 0.033749
10030.0 0.033666
10050.0 0.033569
10070.0 0.033472
10090.0 0.033375
10110.0 0.033258
10130.0 0.033124
10150.0 0.033021
10170.0 0.032918
10190.0 0.0328
10210.0 0.032691
10230.0 0.032582
10250.0 0.032459
10270.0 0.032335
10290.0 0.032219
10310.0 0.032091
10330.0 0.031952
10350.0 0.031824
10370.0 0.031695
10390.0 0.031552
10410.0 0.031408
10430.0 0.031275
10450.0 0.031128
10470.0 0.030973
10490.0 0.030825
10510.0 0.030675
10530.0 0.030505
10550.0 0.030339
10570.0 0.030181
10590.0 0.030009
10610.0 0.02983
10630.0 0.029659
10650.0 0.029482
10670.0 0.029288
10690.0 0.029098
10710.0 0.028911
10730.0 0.02871
10750.0 0.028496
10770.0 0.028298
10790.0 0.028092
10810.0 0.027871
10830.0 0.027652
10850.0 0.02744
10870.0 0.027203
10890.0 0.026963
10910.0 0.02673
10930.0 0.026488
10950.0 0.026227
10970.0 0.025969
10990.0 0.025716
11010.0 0.027832
11030.0 0.027547
11050.0 0.027271
11070.0 0.02699
11090.0 0.026687
11110.0 0.026404
11130.0 0.026128
11150.0 0.025841
11170.0 0.025554
11190.0 0.025284
11210.0 0.025007
11230.0 0.024723
11250.0 0.024452
11270.0 0.024189
11290.0 0.023915
11310.0 0.023645
11330.0 0.023395
11350.0 0.023139
11370.0 0.022878
11390.0 0.022624
11410.0 0.022371
11430.0 0.022096
11450.0 0.021817
11470.0 0.021534
11490.0 0.021231
11510.0 0.020902
11530.0 0.02057
11550.0 0.020224
11570.0 0.019847
11590.0 0.01946
11610.0 0.019072
11630.0 0.018661
11650.0 0.018233
11670.0 0.017819
11690.0 0.017404
11710.0 0.016978
11730.0 0.01656
11750.0 0.016163
11770.0 0.015757
11790.0 0.015355
11810.0 0.014973
11830.0 0.014599
11850.0 0.014216
11870.0 0.013851
11890.0 0.013505
11910.0 0.013158
11930.0 0.012816
11950.0 0.012494
11970.0 0.012181
11990.0 0.011866
12010.0 0.011571
12030.0 0.011295
12050.0 0.011025
12070.0 0.010766
12090.0 0.010537
12110.0 0.010322
12130.0 0.010121
12150.0 0.0099442
12170.0 0.0097914
12190.0 0.0096546
12210.0 0.009543
12230.0 0.0094569
12250.0 0.0093932
12270.0 0.0093534
12290.0 0.0093365
12310.0 0.0093389
12330.0 0.0093637
12350.0 0.0094072
12370.0 0.0094631
12390.0 0.0095336
12410.0 0.0096229
12430.0 0.0097134
12450.0 0.0098079
12470.0 0.0099111
12490.0 0.010015
12510.0 0.010111
12530.0 0.010208
12550.0 0.010303
12570.0 0.010384
12590.0 0.010453
12610.0 0.010514
12630.0 0.010559
12650.0 0.010581
12670.0 0.010587
12690.0 0.010573
12710.0 0.010537
12730.0 0.010481
12750.0 0.010402
12770.0 0.010303
12790.0 0.010187
12810.0 0.010053
12830.0 0.0099016
12850.0 0.0097424
12870.0 0.0095753
12890.0 0.0093977
12910.0 0.0092181
12930.0 0.0090414
12950.0 0.0088609
12970.0 0.0086806
12990.0 0.0085102
13010.0 0.0083442
13030.0 0.0081797
13050.0 0.0080226
13070.0 0.0078746
13090.0 0.0077277
13110.0 0.0075849
13130.0 0.00745
13150.0 0.0073192
13170.0 0.0071883
13190.0 0.0070645
13210.0 0.0069469
13230.0 0.0068308
13250.0 0.006718
13270.0 0.0066122
13290.0 0.0065097
13310.0 0.0064091
13330.0 0.0063152
13350.0 0.0062274
13370.0 0.0061429
13390.0 0.0060632
13410.0 0.0059916
13430.0 0.0059242
13450.0 0.0058609
13470.0 0.005803
13490.0 0.0057496
13510.0 0.0056979
13530.0 0.005649
13550.0 0.0056023
13570.0 0.0055561
13590.0 0.0055091
13610.0 0.0054621
13630.0 0.0054148
13650.0 0.005365
13670.0 0.0053139
13690.0 0.0052627
13710.0 0.0052101
13730.0 0.0051552
13750.0 0.0051024
13770.0 0.0050504
13790.0 0.0049984
13810.0 0.004948
13830.0 0.004901
13850.0 0.004855
13870.0 0.0048108
13890.0 0.0047699
13910.0 0.0047313
13930.0 0.0046937
13950.0 0.0046579
13970.0 0.0046245
13990.0 0.0045911
14010.0 0.0045575
14030.0 0.0045245
14050.0 0.0044911
14070.0 0.0044552
14090.0 0.0044185
14110.0 0.0043813
14130.0 0.0043418
14150.0 0.0043
14170.0 0.0042588
14190.0 0.004217
14210.0 0.0041737
14230.0 0.0041316
14250.0 0.0040917
14270.0 0.0040522
14290.0 0.0040146
14310.0 0.0039818
14330.0 0.0039522
14350.0 0.0039257
14370.0 0.0039036
14390.0 0.003886
14410.0 0.0038714
14430.0 0.0038602
14450.0 0.0038524
14470.0 0.003847
14490.0 0.0038434
14510.0 0.0038416
14530.0 0.0038413
14550.0 0.003842
14570.0 0.0038439
14590.0 0.0038473
14610.0 0.0038524
14630.0 0.0038601
14650.0 0.0038709
14670.0 0.0038853
14690.0 0.0039049
14710.0 0.0039305
14730.0 0.0039613
14750.0 0.0039995
14770.0 0.0040464
14790.0 0.0041008
14810.0 0.0041625
14830.0 0.0042373
14850.0 0.0043211
14870.0 0.0044112
14890.0 0.0045109
14910.0 0.0046196
14930.0 0.0047282
14950.0 0.0048341
14970.0 0.0049386
14990.0 0.0050324
15010.0 0.0051112
15030.0 0.0051774
15050.0 0.0052311
15070.0 0.0052709
15090.0 0.0053023
15110.0 0.0053282
15130.0 0.0053503
15150.0 0.0053706
15170.0 0.0053903
15190.0 0.0054098
15210.0 0.0054295
15230.0 0.0054495
15250.0 0.0054699
15270.0 0.0054907
15290.0 0.0055119
15310.0 0.0055335
15330.0 0.0055554
15350.0 0.0055778
15370.0 0.0056006
15390.0 0.0056236
15410.0 0.0056471
15430.0 0.0056709
15450.0 0.0056951
15470.0 0.0057196
15490.0 0.0057445
15510.0 0.0057697
15530.0 0.0057952
15550.0 0.005821
15570.0 0.0058472
15590.0 0.0058736
15610.0 0.0059003
15630.0 0.0059274
15650.0 0.0059547
15670.0 0.0059823
15690.0 0.0060102
15710.0 0.0060383
15730.0 0.0060667
15750.0 0.0060953
15770.0 0.0061242
15790.0 0.0061533
15810.0 0.0061826
15830.0 0.0062121
15850.0 0.0062418
15870.0 0.0062717
15890.0 0.0063018
15910.0 0.0063321
15930.0 0.0063625
15950.0 0.006393
15970.0 0.0064238
15990.0 0.0064546
16010.0 0.0064856
16030.0 0.0065166
16050.0 0.0065479
16070.0 0.0065791
16090.0 0.0066105
16110.0 0.0066419
16130.0 0.0066734
16150.0 0.0067049
16170.0 0.0067365
16190.0 0.0067681
16210.0 0.0067997
16230.0 0.0068313
16250.0 0.0068629
16270.0 0.0068946
16290.0 0.0069261
16310.0 0.0069576
16330.0 0.0069891
16350.0 0.0070204
16370.0 0.0070517
16390.0 0.0070829
16410.0 0.007114
16430.0 0.007145
16450.0 0.0071759
16470.0 0.0072066
16490.0 0.0072371
16510.0 0.0072675
16530.0 0.0072977
16550.0 0.0073278
16570.0 0.0073575
16590.0 0.0073871
16610.0 0.0074165
16630.0 0.0074456
16650.0 0.0074745
16670.0 0.0075031
16690.0 0.0075314
16710.0 0.0075594
16730.0 0.0075871
16750.0 0.0076145
16770.0 0.0076416
16790.0 0.0076682
16810.0 0.0076946
16830.0 0.0077207
16850.0 0.0077462
16870.0 0.0077715
16890.0 0.0077963
16910.0 0.0078207
16930.0 0.0078447
16950.0 0.0078683
16970.0 0.0078914
16990.0 0.007914
17010.0 0.0079362
17030.0 0.0079579
17050.0 0.0079791
17070.0 0.0079998
17090.0 0.00802
17110.0 0.0080397
17130.0 0.0080588
17150.0 0.0080774
17170.0 0.0080955
17190.0 0.008113
17210.0 0.0081299
17230.0 0.0081463
17250.0 0.0081621
17270.0 0.0081772
17290.0 0.0081918
17310.0 0.0082058
17330.0 0.0082192
17350.0 0.0082319
17370.0 0.008244
17390.0 0.0082555
17410.0 0.0082663
17430.0 0.0082766
17450.0 0.0082861
17470.0 0.008295
17490.0 0.0083032
17510.0 0.0083108
17530.0 0.0083177
17550.0 0.0083239
17570.0 0.0083294
17590.0 0.0083343
17610.0 0.0083385
17630.0 0.008342
17650.0 0.0083448
17670.0 0.008347
17690.0 0.0083483
17710.0 0.0083491
17730.0 0.0083492
17750.0 0.0083485
17770.0 0.0083471
17790.0 0.0083451
17810.0 0.0083424
17830.0 0.0083389
17850.0 0.0083348
17870.0 0.00833
17890.0 0.0083245
17910.0 0.0083183
17930.0 0.0083115
17950.0 0.0083039
17970.0 0.0082957
17990.0 0.0082868
18010.0 0.0082772
18030.0 0.0082669
18050.0 0.008256
18070.0 0.0082445
18090.0 0.0082322
18110.0 0.0082193
18130.0 0.0082058
18150.0 0.0081917
18170.0 0.0081768
18190.0 0.0081614
18210.0 0.0081454
18230.0 0.0081287
18250.0 0.0081114
18270.0 0.0080935
18290.0 0.0080751
18310.0 0.008056
18330.0 0.0080363
18350.0 0.0080162
18370.0 0.0079954
18390.0 0.007974
18410.0 0.0079521
18430.0 0.0079297
18450.0 0.0079067
18470.0 0.0078832
18490.0 0.0078593
18510.0 0.0078348
18530.0 0.0078097
18550.0 0.0077843
18570.0 0.0077583
18590.0 0.0077319
18610.0 0.007705
18630.0 0.0076777
18650.0 0.0076499
18670.0 0.0076217
18690.0 0.0075931
18710.0 0.0075641
18730.0 0.0075347
18750.0 0.0075049
18770.0 0.0074747
18790.0 0.0074441
18810.0 0.0074132
18830.0 0.007382
18850.0 0.0073504
18870.0 0.0073185
18890.0 0.0072863
18910.0 0.0072538
18930.0 0.0072209
18950.0 0.0071878
18970.0 0.0071545
18990.0 0.0071208
19010.0 0.0070869
19030.0 0.0070528
19050.0 0.0070184
19070.0 0.0069838
19090.0 0.006949
19110.0 0.0069141
19130.0 0.0068788
19150.0 0.0068434
19170.0 0.0068079
19190.0 0.0067722
19210.0 0.0067363
19230.0 0.0067003
19250.0 0.0066642
19270.0 0.006628
19290.0 0.0065916
19310.0 0.0065551
19330.0 0.0065186
19350.0 0.0064819
19370.0 0.0064451
19390.0 0.0064084
19410.0 0.0063715
19430.0 0.0063345
19450.0 0.0062976
19470.0 0.0062606
19490.0 0.0062236
19510.0 0.0061866
19530.0 0.0061495
19550.0 0.0061125
19570.0 0.0060754
19590.0 0.0060384
19610.0 0.0060014
19630.0 0.0059644
19650.0 0.0059274
19670.0 0.0058906
19690.0 0.0058537
19710.0 0.0058169
19730.0 0.0057801
19750.0 0.0057435
19770.0 0.0057068
19790.0 0.0056703
19810.0 0.0056339
19830.0 0.0055973
19850.0 0.0055607
19870.0 0.0055237
19890.0 0.0054856
19910.0 0.0054455
19930.0 0.0054024
19950.0 0.0053546
19970.0 0.0052995
19990.0 0.0052358
20010.0 0.0051646
20030.0 0.0050829
20050.0 0.0049913
20070.0 0.0048945
20090.0 0.0047935
20110.0 0.0046849
20130.0 0.0045775
20150.0 0.0044731
20170.0 0.0043681
20190.0 0.0042643
20210.0 0.0041665
20230.0 0.0040718
20250.0 0.0039781
20270.0 0.0038898
20290.0 0.0038072
20310.0 0.0037272
20330.0 0.00365
20350.0 0.0035807
20370.0 0.003515
20390.0 0.0034525
20410.0 0.003395
20430.0 0.0033426
20450.0 0.0032925
20470.0 0.0032464
20490.0 0.0032048
20510.0 0.0031662
20530.0 0.0031303
20550.0 0.0030975
20570.0 0.0030677
20590.0 0.0030397
20610.0 0.0030137
20630.0 0.0029896
20650.0 0.0029668
20670.0 0.002945
20690.0 0.0029242
20710.0 0.002904
20730.0 0.0028841
20750.0 0.0028642
20770.0 0.0028442
20790.0 0.0028239
20810.0 0.0028031
20830.0 0.0027816
20850.0 0.0027595
20870.0 0.0027364
20890.0 0.0027123
20910.0 0.0026877
20930.0 0.0026622
20950.0 0.0026356
20970.0 0.0026085
20990.0 0.002581
21010.0 0.0025523
21030.0 0.0025233
21050.0 0.0024943
21070.0 0.0024648
21090.0 0.0024347
21110.0 0.0024053
21130.0 0.002376
21150.0 0.0023464
21170.0 0.0023172
21190.0 0.0022888
21210.0 0.0022603
21230.0 0.0022319
21250.0 0.0022046
21270.0 0.0021779
21290.0 0.0021513
21310.0 0.0021256
21330.0 0.0021011
21350.0 0.0020769
21370.0 0.0020534
21390.0 0.002031
21410.0 0.0020095
21430.0 0.0019884
21450.0 0.0019686
21470.0 0.0019499
21490.0 0.0019319
21510.0 0.0019148
21530.0 0.0018989
21550.0 0.0018837
21570.0 0.0018694
21590.0 0.0018559
21610.0 0.0018433
21630.0 0.0018314
21650.0 0.0018201
21670.0 0.0018095
21690.0 0.0017995
21710.0 0.00179
21730.0 0.0017809
21750.0 0.0017721
21770.0 0.0017639
21790.0 0.0017559
21810.0 0.0017481
21830.0 0.0017405
21850.0 0.0017332
21870.0 0.001726
21890.0 0.0017188
21910.0 0.0017117
21930.0 0.0017047
21950.0 0.0016975
21970.0 0.0016903
21990.0 0.0016831
22010.0 0.0016756
22030.0 0.001668
22050.0 0.0016602
22070.0 0.0016522
22090.0 0.0016439
22110.0 0.0016355
22130.0 0.0016267
22150.0 0.0016177
22170.0 0.0016086
22190.0 0.0015991
22210.0 0.0015894
22230.0 0.0015795
22250.0 0.0015694
22270.0 0.001559
22290.0 0.0015483
22310.0 0.0015375
22330.0 0.0015261
22350.0 0.0015144
22370.0 0.0015024
22390.0 0.0014898
22410.0 0.0014764
22430.0 0.0014627
22450.0 0.0014484
22470.0 0.0014332
22490.0 0.0014172
22510.0 0.001401
22530.0 0.0013836
22550.0 0.0013652
22570.0 0.0013467
22590.0 0.0013277
22610.0 0.0013078
22630.0 0.0012876
22650.0 0.0012679
22670.0 0.0012474
22690.0 0.0012269
22710.0 0.001207
22730.0 0.0011874
22750.0 0.0011674
22770.0 0.0011485
22790.0 0.0011307
22810.0 0.0011131
22830.0 0.0010962
22850.0 0.0010807
22870.0 0.0010658
22890.0 0.0010514
22910.0 0.0010381
22930.0 0.0010258
22950.0 0.001014
22970.0 0.0010027
22990.0 0.00099266
23010.0 0.00098301
23030.0 0.00097369
23050.0 0.00096495
23070.0 0.00095671
23090.0 0.00094845
23110.0 0.00094048
23130.0 0.00093284
23150.0 0.00092526
23170.0 0.00091763
23190.0 0.00091022
23210.0 0.00090301
23230.0 0.00089571
23250.0 0.00088854
23270.0 0.00088167
23290.0 0.00087489
23310.0 0.00086817
23330.0 0.00086191
23350.0 0.00085596
23370.0 0.00085022
23390.0 0.0008448
23410.0 0.00083983
23430.0 0.00083509
23450.0 0.00083058
23470.0 0.00082641
23490.0 0.0008225
23510.0 0.00081872
23530.0 0.00081516
23550.0 0.00081183
23570.0 0.00080863
23590.0 0.00080557
23610.0 0.00080272
23630.0 0.00080007
23650.0 0.00079764
23670.0 0.00079555
23690.0 0.00079383
23710.0 0.00079258
23730.0 0.00079194
23750.0 0.00079189
23770.0 0.00079257
23790.0 0.0007942
23810.0 0.00079675
23830.0 0.00080011
23850.0 0.00080477
23870.0 0.00081069
23890.0 0.00081736
23910.0 0.00082505
23930.0 0.00083405
23950.0 0.00084374
23970.0 0.00085366
23990.0 0.0008646
24010.0 0.00087602
24030.0 0.00088718
24050.0 0.0008984
24070.0 0.00091023
24090.0 0.00092129
24110.0 0.00093172
24130.0 0.00094219
24150.0 0.00095236
24170.0 0.00096168
24190.0 0.00097084
24210.0 0.00098008
24230.0 0.00098873
