#lamb flux
1010.0 0.00020393
1030.0 0.00022692
1050.0 0.00025804
1070.0 0.00030458
1090.0 0.00036564
1110.0 0.00043115
1130.0 0.00049964
1150.0 0.00057295
1170.0 0.00064893
1190.0 0.00071995
1210.0 0.00078851
1230.0 0.00085371
1250.0 0.00091406
1270.0 0.00096312
1290.0 0.0010043
1310.0 0.0010329
1330.0 0.0010464
1350.0 0.0010481
1370.0 0.0010399
1390.0 0.00102
1410.0 0.00099026
1430.0 0.00095568
1450.0 0.000916
1470.0 0.00087203
1490.0 0.00082704
1510.0 0.00078342
1530.0 0.00073934
1550.0 0.00069709
1570.0 0.0006583
1590.0 0.00062273
1610.0 0.00059163
1630.0 0.00057202
1650.0 0.00055791
1670.0 0.00054887
1690.0 0.00054557
1710.0 0.00054902
1730.0 0.000559
1750.0 0.00057486
1770.0 0.00059829
1790.0 0.00062955
1810.0 0.00066824
1830.0 0.00071493
1850.0 0.00077129
1870.0 0.00083622
1890.0 0.00090968
1910.0 0.00099274
1930.0 0.0010856
1950.0 0.0011863
1970.0 0.0012952
1990.0 0.0014128
2010.0 0.0015369
2030.0 0.0016658
2050.0 0.0018003
2070.0 0.0019389
2090.0 0.0020773
2110.0 0.0022157
2130.0 0.002354
2150.0 0.0024889
2170.0 0.0026179
2190.0 0.0027432
2210.0 0.0028627
2230.0 0.0029737
2250.0 0.0030774
2270.0 0.0031759
2290.0 0.0032659
2310.0 0.0033473
2330.0 0.0034243
2350.0 0.003497
2370.0 0.0035644
2390.0 0.0036312
2410.0 0.0037024
2430.0 0.0037776
2450.0 0.0038608
2470.0 0.0039603
2490.0 0.0040807
2510.0 0.0042165
2530.0 0.0043806
2550.0 0.0045868
2570.0 0.0048403
2590.0 0.0051551
2610.0 0.0055858
2630.0 0.0061391
2650.0 0.0067949
2670.0 0.0075728
2690.0 0.008463
2710.0 0.009374
2730.0 0.010268
2750.0 0.011175
2770.0 0.012047
2790.0 0.012877
2810.0 0.013724
2830.0 0.014643
2850.0 0.015577
2870.0 0.016566
2890.0 0.017646
2910.0 0.018785
2930.0 0.019936
2950.0 0.021165
2970.0 0.022462
2990.0 0.02377
3010.0 0.025111
3030.0 0.026532
3050.0 0.02799
3070.0 0.029411
3090.0 0.030858
3110.0 0.03227
3130.0 0.033552
3150.0 0.034671
3170.0 0.03559
3190.0 0.036255
3210.0 0.036738
3230.0 0.037078
3250.0 0.037269
3270.0 0.037407
3290.0 0.037575
3310.0 0.037832
3330.0 0.038186
3350.0 0.038608
3370.0 0.039066
3390.0 0.039217
3410.0 0.039464
3430.0 0.040656
3450.0 0.041498
3470.0 0.041661
3490.0 0.043246
3510.0 0.049604
3530.0 0.061072
3550.0 0.069175
3570.0 0.075645
3590.0 0.085144
3610.0 0.084853
3630.0 0.078199
3650.0 0.082123
3670.0 0.096905
3690.0 0.10873
3710.0 0.1127
3730.0 0.11362
3750.0 0.12135
3770.0 0.12202
3790.0 0.11625
3810.0 0.10959
3830.0 0.10389
3850.0 0.10458
3870.0 0.10921
3890.0 0.11255
3910.0 0.11421
3930.0 0.11427
3950.0 0.12229
3970.0 0.13176
3990.0 0.1281
4010.0 0.11428
4030.0 0.10297
4050.0 0.10211
4070.0 0.10672
4090.0 0.10579
4110.0 0.10181
4130.0 0.10123
4150.0 0.10596
4170.0 0.1171
4190.0 0.12302
4210.0 0.1159
4230.0 0.10663
4250.0 0.10091
4270.0 0.097332
4290.0 0.097973
4310.0 0.10059
4330.0 0.095717
4350.0 0.084829
4370.0 0.07567
4390.0 0.069299
4410.0 0.065798
4430.0 0.06768
4450.0 0.074474
4470.0 0.081794
4490.0 0.087469
4510.0 0.096784
4530.0 0.11375
4550.0 0.13155
4570.0 0.14243
4590.0 0.15178
4610.0 0.15996
4630.0 0.16132
4650.0 0.14971
4670.0 0.13033
4690.0 0.11518
4710.0 0.11013
4730.0 0.10522
4750.0 0.092602
4770.0 0.082825
4790.0 0.085345
4810.0 0.092511
4830.0 0.090448
4850.0 0.080377
4870.0 0.08223
4890.0 0.08434
4910.0 0.085549
4930.0 0.084158
4950.0 0.08258
4970.0 0.078922
4990.0 0.072898
5010.0 0.068624
5030.0 0.067434
5050.0 0.067071
5070.0 0.066961
5090.0 0.066862
5110.0 0.066779
5130.0 0.06814
5150.0 0.07151
5170.0 0.077851
5190.0 0.086207
5210.0 0.092943
5230.0 0.096965
5250.0 0.099216
5270.0 0.10243
5290.0 0.10495
5310.0 0.1044
5330.0 0.10077
5350.0 0.097219
5370.0 0.097342
5390.0 0.099878
5410.0 0.10173
5430.0 0.1009
5450.0 0.099436
5470.0 0.09723
5490.0 0.094988
5510.0 0.094158
5530.0 0.094617
5550.0 0.095601
5570.0 0.095959
5590.0 0.0934
5610.0 0.088714
5630.0 0.084344
5650.0 0.080418
5670.0 0.077679
5690.0 0.074558
5710.0 0.072738
5730.0 0.073068
5750.0 0.072309
5770.0 0.071016
5790.0 0.071674
5810.0 0.073755
5830.0 0.07535
5850.0 0.075796
5870.0 0.073911
5890.0 0.070948
5910.0 0.068315
5930.0 0.064876
5950.0 0.061969
5970.0 0.062304
5990.0 0.063812
6010.0 0.063779
6030.0 0.061592
6050.0 0.061195
6070.0 0.063324
6090.0 0.065492
6110.0 0.065315
6130.0 0.062056
6150.0 0.057784
6170.0 0.05542
6190.0 0.054137
6210.0 0.053004
6230.0 0.051945
6250.0 0.051909
6270.0 0.053385
6290.0 0.055522
6310.0 0.057933
6330.0 0.060473
6350.0 0.062019
6370.0 0.062204
6390.0 0.061854
6410.0 0.062349
6430.0 0.063133
6450.0 0.063103
6470.0 0.063232
6490.0 0.063601
6510.0 0.063581
6530.0 0.06281
6550.0 0.061215
6570.0 0.059266
6590.0 0.057559
6610.0 0.056225
6630.0 0.055128
6650.0 0.053336
6670.0 0.051354
6690.0 0.049822
6710.0 0.048944
6730.0 0.048454
6750.0 0.047984
6770.0 0.047348
6790.0 0.04649
6810.0 0.045658
6830.0 0.045393
6850.0 0.045159
6870.0 0.044772
6890.0 0.044706
6910.0 0.044103
6930.0 0.043366
6950.0 0.043264
6970.0 0.042882
6990.0 0.04199
7010.0 0.041305
7030.0 0.040568
7050.0 0.039794
7070.0 0.038849
7090.0 0.038021
7110.0 0.038572
7130.0 0.039668
7150.0 0.040531
7170.0 0.041055
7190.0 0.040987
7210.0 0.040462
7230.0 0.039803
7250.0 0.039392
7270.0 0.038697
7290.0 0.038123
7310.0 0.037806
7330.0 0.038199
7350.0 0.038309
7370.0 0.038186
7390.0 0.037834
7410.0 0.037248
7430.0 0.036869
7450.0 0.036483
7470.0 0.035377
7490.0 0.034193
7510.0 0.032761
7530.0 0.031611
7550.0 0.031
7570.0 0.031419
7590.0 0.031218
7610.0 0.030875
7630.0 0.030564
7650.0 0.030719
7670.0 0.031359
7690.0 0.032637
7710.0 0.033514
7730.0 0.034765
7750.0 0.035554
7770.0 0.036196
7790.0 0.036261
7810.0 0.035567
7830.0 0.035677
7850.0 0.035347
7870.0 0.034462
7890.0 0.033301
7910.0 0.032312
7930.0 0.031568
7950.0 0.031115
7970.0 0.03113
7990.0 0.031381
8010.0 0.031295
8030.0 0.030966
8050.0 0.030398
8070.0 0.029844
8090.0 0.029235
8110.0 0.029346
8130.0 0.029606
8150.0 0.029658
8170.0 0.029411
8190.0 0.02902
8210.0 0.027883
8230.0 0.026086
8250.0 0.02498
8270.0 0.02434
8290.0 0.024031
8310.0 0.02414
8330.0 0.024686
8350.0 0.024253
8370.0 0.023726
8390.0 0.024054
8410.0 0.024811
8430.0 0.026091
8450.0 0.027264
8470.0 0.027576
8490.0 0.027831
8510.0 0.027684
8530.0 0.027521
8550.0 0.027731
8570.0 0.027765
8590.0 0.027681
8610.0 0.028441
8630.0 0.028655
8650.0 0.028034
8670.0 0.027979
8690.0 0.028084
8710.0 0.027698
8730.0 0.027461
8750.0 0.026623
8770.0 0.026269
8790.0 0.025986
8810.0 0.025729
8830.0 0.024606
8850.0 0.022838
8870.0 0.021469
8890.0 0.020716
8910.0 0.019448
8930.0 0.018107
8950.0 0.017629
8970.0 0.0175
8990.0 0.01752
9010.0 0.017386
9030.0 0.017262
9050.0 0.017148
9070.0 0.017036
9090.0 0.016926
9110.0 0.016815
9130.0 0.016704
9150.0 0.016594
9170.0 0.016484
9190.0 0.016374
9210.0 0.016263
9230.0 0.016154
9250.0 0.016045
9270.0 0.015936
9290.0 0.015828
9310.0 0.015719
9330.0 0.015611
9350.0 0.015504
9370.0 0.015396
9390.0 0.01529
9410.0 0.015183
9430.0 0.015077
9450.0 0.01497
9470.0 0.014865
9490.0 0.014763
9510.0 0.014659
9530.0 0.014555
9550.0 0.014452
9570.0 0.014349
9590.0 0.014247
9610.0 0.014145
9630.0 0.014045
9650.0 0.013944
9670.0 0.013845
9690.0 0.013745
9710.0 0.013647
9730.0 0.013549
9750.0 0.013451
9770.0 0.013354
9790.0 0.013258
9810.0 0.013162
9830.0 0.013065
9850.0 0.012953
9870.0 0.012863
9890.0 0.012776
9910.0 0.012687
9930.0 0.012593
9950.0 0.012504
9970.0 0.012415
9990.0 0.012324
10010.0 0.012223
10030.0 0.01213
10050.0 0.012048
10070.0 0.011965
10090.0 0.011881
10110.0 0.011793
10130.0 0.011696
10150.0 0.011613
10170.0 0.011532
10190.0 0.011448
10210.0 0.011366
10230.0 0.011285
10250.0 0.011201
10270.0 0.011117
10290.0 0.011037
10310.0 0.010954
10330.0 0.01087
10350.0 0.01079
10370.0 0.01071
10390.0 0.010628
10410.0 0.010547
10430.0 0.01047
10450.0 0.01039
10470.0 0.01031
10490.0 0.010232
10510.0 0.010155
10530.0 0.010075
10550.0 0.0099962
10570.0 0.0099208
10590.0 0.0098435
10610.0 0.0097654
10630.0 0.0096905
10650.0 0.0096155
10670.0 0.0095377
10690.0 0.0094618
10710.0 0.0093879
10730.0 0.0093122
10750.0 0.0092345
10770.0 0.0091617
10790.0 0.0090881
10810.0 0.0090125
10830.0 0.0089384
10850.0 0.008867
10870.0 0.0087917
10890.0 0.0087172
10910.0 0.0086462
10930.0 0.0085755
10950.0 0.008504
10970.0 0.0084361
10990.0 0.0083727
11010.0 0.0083019
11030.0 0.0082462
11050.0 0.008194
11070.0 0.0081423
11090.0 0.0080882
11110.0 0.0080362
11130.0 0.0079844
11150.0 0.0079299
11170.0 0.0078745
11190.0 0.0078208
11210.0 0.0077656
11230.0 0.0077089
11250.0 0.0076544
11270.0 0.0076014
11290.0 0.0075475
11310.0 0.0074951
11330.0 0.0074471
11350.0 0.0073997
11370.0 0.0073532
11390.0 0.0073098
11410.0 0.0072685
11430.0 0.0072263
11450.0 0.0071858
11470.0 0.007147
11490.0 0.0071075
11510.0 0.0070664
11530.0 0.0070264
11550.0 0.0069856
11570.0 0.0069419
11590.0 0.006897
11610.0 0.0068519
11630.0 0.0068035
11650.0 0.0067522
11670.0 0.0067019
11690.0 0.0066505
11710.0 0.0065967
11730.0 0.0065431
11750.0 0.0064918
11770.0 0.0064389
11790.0 0.0063862
11810.0 0.0063363
11830.0 0.0062879
11850.0 0.0062384
11870.0 0.0061921
11890.0 0.0061491
11910.0 0.0061065
11930.0 0.0060654
11950.0 0.0060279
11970.0 0.005992
11990.0 0.0059569
12010.0 0.0059251
12030.0 0.0058965
12050.0 0.0058696
12070.0 0.0058452
12090.0 0.0058253
12110.0 0.0058081
12130.0 0.0057938
12150.0 0.0057833
12170.0 0.0057764
12190.0 0.0057726
12210.0 0.0057724
12230.0 0.0057757
12250.0 0.005782
12270.0 0.0057916
12290.0 0.0058037
12310.0 0.0058176
12330.0 0.0058341
12350.0 0.005852
12370.0 0.0058702
12390.0 0.0058891
12410.0 0.0059085
12430.0 0.0059262
12450.0 0.0059422
12470.0 0.0059565
12490.0 0.005968
12510.0 0.005976
12530.0 0.0059804
12550.0 0.0059802
12570.0 0.0059755
12590.0 0.0059659
12610.0 0.0059505
12630.0 0.0059294
12650.0 0.0059046
12670.0 0.0058741
12690.0 0.0058381
12710.0 0.0057991
12730.0 0.005757
12750.0 0.005709
12770.0 0.0056594
12790.0 0.0056095
12810.0 0.005557
12830.0 0.0055021
12850.0 0.0054495
12870.0 0.0053973
12890.0 0.0053434
12910.0 0.0052909
12930.0 0.005241
12950.0 0.0051899
12970.0 0.0051388
12990.0 0.0050913
13010.0 0.0050447
13030.0 0.0049976
13050.0 0.0049525
13070.0 0.0049104
13090.0 0.0048678
13110.0 0.0048265
13130.0 0.0047883
13150.0 0.0047518
13170.0 0.0047155
13190.0 0.0046826
13210.0 0.0046528
13230.0 0.0046239
13250.0 0.0045967
13270.0 0.0045725
13290.0 0.0045493
13310.0 0.0045263
13330.0 0.004505
13350.0 0.0044848
13370.0 0.0044641
13390.0 0.0044429
13410.0 0.0044229
13430.0 0.004402
13450.0 0.0043797
13470.0 0.0043574
13490.0 0.0043349
13510.0 0.00431
13530.0 0.0042845
13550.0 0.0042594
13570.0 0.0042331
13590.0 0.0042052
13610.0 0.0041777
13630.0 0.0041504
13650.0 0.0041214
13670.0 0.0040922
13690.0 0.0040637
13710.0 0.0040344
13730.0 0.0040033
13750.0 0.0039738
13770.0 0.0039443
13790.0 0.0039134
13810.0 0.0038823
13830.0 0.0038522
13850.0 0.0038206
13870.0 0.0037879
13890.0 0.0037557
13910.0 0.0037232
13930.0 0.0036885
13950.0 0.0036534
13970.0 0.0036194
13990.0 0.0035836
14010.0 0.0035465
14030.0 0.0035102
14050.0 0.0034737
14070.0 0.0034348
14090.0 0.0033969
14110.0 0.0033603
14130.0 0.0033232
14150.0 0.0032858
14170.0 0.0032511
14190.0 0.0032175
14210.0 0.0031838
14230.0 0.0031521
14250.0 0.0031225
14270.0 0.003093
14290.0 0.0030643
14310.0 0.003038
14330.0 0.0030125
14350.0 0.002987
14370.0 0.0029626
14390.0 0.0029396
14410.0 0.0029161
14430.0 0.0028929
14450.0 0.002871
14470.0 0.0028496
14490.0 0.0028277
14510.0 0.0028073
14530.0 0.0027881
14550.0 0.0027691
14570.0 0.0027507
14590.0 0.0027338
14610.0 0.0027174
14630.0 0.002701
14650.0 0.0026859
14670.0 0.0026717
14690.0 0.0026576
14710.0 0.0026441
14730.0 0.0026319
14750.0 0.0026202
14770.0 0.002609
14790.0 0.002599
14810.0 0.0025902
14830.0 0.002582
14850.0 0.0025753
14870.0 0.0025702
14890.0 0.0025663
14910.0 0.0025636
14930.0 0.002562
14950.0 0.0025612
14970.0 0.0025607
14990.0 0.0025602
15010.0 0.0025593
15030.0 0.0025577
15050.0 0.0025554
15070.0 0.0025525
15090.0 0.002549
15110.0 0.002545
15130.0 0.0025408
15150.0 0.0025366
15170.0 0.0025322
15190.0 0.0025277
15210.0 0.0025232
15230.0 0.0025188
15250.0 0.0025142
15270.0 0.0025096
15290.0 0.0025053
15310.0 0.0025007
15330.0 0.0024962
15350.0 0.0024917
15370.0 0.0024873
15390.0 0.0024826
15410.0 0.0024781
15430.0 0.0024737
15450.0 0.0024691
15470.0 0.0024645
15490.0 0.0024601
15510.0 0.0024557
15530.0 0.0024511
15550.0 0.0024466
15570.0 0.0024422
15590.0 0.0024377
15610.0 0.0024331
15630.0 0.0024288
15650.0 0.0024243
15670.0 0.0024198
15690.0 0.0024154
15710.0 0.0024111
15730.0 0.0024067
15750.0 0.0024022
15770.0 0.0023979
15790.0 0.0023936
15810.0 0.0023891
15830.0 0.0023848
15850.0 0.0023806
15870.0 0.0023763
15890.0 0.0023719
15910.0 0.0023678
15930.0 0.0023636
15950.0 0.0023592
15970.0 0.002355
15990.0 0.0023509
16010.0 0.0023467
16030.0 0.0023425
16050.0 0.0023384
16070.0 0.0023344
16090.0 0.0023302
16110.0 0.0023262
16130.0 0.0023222
16150.0 0.0023181
16170.0 0.002314
16190.0 0.0023101
16210.0 0.0023062
16230.0 0.0023022
16250.0 0.0022983
16270.0 0.0022945
16290.0 0.0022906
16310.0 0.0022867
16330.0 0.0022829
16350.0 0.0022791
16370.0 0.0022752
16390.0 0.0022715
16410.0 0.0022678
16430.0 0.0022641
16450.0 0.0022603
16470.0 0.0022568
16490.0 0.0022531
16510.0 0.0022494
16530.0 0.0022458
16550.0 0.0022423
16570.0 0.0022386
16590.0 0.002235
16610.0 0.0022316
16630.0 0.002228
16650.0 0.0022245
16670.0 0.0022211
16690.0 0.0022177
16710.0 0.0022141
16730.0 0.0022107
16750.0 0.0022073
16770.0 0.0022039
16790.0 0.0022004
16810.0 0.0021971
16830.0 0.0021938
16850.0 0.0021904
16870.0 0.0021871
16890.0 0.0021839
16910.0 0.0021805
16930.0 0.0021771
16950.0 0.0021739
16970.0 0.0021707
16990.0 0.0021673
17010.0 0.0021641
17030.0 0.0021609
17050.0 0.0021576
17070.0 0.0021543
17090.0 0.0021512
17110.0 0.002148
17130.0 0.0021446
17150.0 0.0021414
17170.0 0.0021383
17190.0 0.002135
17210.0 0.0021318
17230.0 0.0021287
17250.0 0.0021255
17270.0 0.0021221
17290.0 0.002119
17310.0 0.0021158
17330.0 0.0021125
17350.0 0.0021092
17370.0 0.0021061
17390.0 0.0021029
17410.0 0.0020995
17430.0 0.0020963
17450.0 0.0020932
17470.0 0.0020898
17490.0 0.0020864
17510.0 0.0020832
17530.0 0.0020799
17550.0 0.0020765
17570.0 0.0020732
17590.0 0.00207
17610.0 0.0020665
17630.0 0.0020631
17650.0 0.0020598
17670.0 0.0020564
17690.0 0.0020528
17710.0 0.0020494
17730.0 0.002046
17750.0 0.0020425
17770.0 0.002039
17790.0 0.0020355
17810.0 0.0020319
17830.0 0.0020283
17850.0 0.0020247
17870.0 0.0020212
17890.0 0.0020174
17910.0 0.0020137
17930.0 0.0020101
17950.0 0.0020064
17970.0 0.0020026
17990.0 0.0019989
18010.0 0.0019951
18030.0 0.0019911
18050.0 0.0019873
18070.0 0.0019835
18090.0 0.0019795
18110.0 0.0019755
18130.0 0.0019716
18150.0 0.0019676
18170.0 0.0019634
18190.0 0.0019594
18210.0 0.0019553
18230.0 0.0019511
18250.0 0.0019468
18270.0 0.0019427
18290.0 0.0019385
18310.0 0.0019341
18330.0 0.0019298
18350.0 0.0019255
18370.0 0.0019211
18390.0 0.0019166
18410.0 0.0019122
18430.0 0.0019077
18450.0 0.001903
18470.0 0.0018985
18490.0 0.001894
18510.0 0.0018893
18530.0 0.0018845
18550.0 0.0018799
18570.0 0.0018752
18590.0 0.0018703
18610.0 0.0018654
18630.0 0.0018606
18650.0 0.0018557
18670.0 0.0018506
18690.0 0.0018458
18710.0 0.0018408
18730.0 0.0018356
18750.0 0.0018306
18770.0 0.0018256
18790.0 0.0018203
18810.0 0.001815
18830.0 0.0018099
18850.0 0.0018046
18870.0 0.0017992
18890.0 0.0017939
18910.0 0.0017886
18930.0 0.0017831
18950.0 0.0017777
18970.0 0.0017723
18990.0 0.0017668
19010.0 0.0017611
19030.0 0.0017556
19050.0 0.00175
19070.0 0.0017443
19090.0 0.0017386
19110.0 0.0017331
19130.0 0.0017273
19150.0 0.0017214
19170.0 0.0017157
19190.0 0.0017099
19210.0 0.001704
19230.0 0.0016981
19250.0 0.0016923
19270.0 0.0016863
19290.0 0.0016803
19310.0 0.0016744
19330.0 0.0016684
19350.0 0.0016623
19370.0 0.0016562
19390.0 0.0016502
19410.0 0.0016441
19430.0 0.0016379
19450.0 0.0016319
19470.0 0.0016257
19490.0 0.0016195
19510.0 0.0016133
19530.0 0.0016072
19550.0 0.0016009
19570.0 0.0015945
19590.0 0.0015883
19610.0 0.0015821
19630.0 0.0015757
19650.0 0.0015694
19670.0 0.0015632
19690.0 0.0015568
19710.0 0.0015504
19730.0 0.0015441
19750.0 0.0015378
19770.0 0.0015313
19790.0 0.001525
19810.0 0.0015186
19830.0 0.0015122
19850.0 0.0015057
19870.0 0.0014993
19890.0 0.0014926
19910.0 0.0014855
19930.0 0.0014781
19950.0 0.00147
19970.0 0.0014607
19990.0 0.0014501
20010.0 0.0014384
20030.0 0.001425
20050.0 0.00141
20070.0 0.001394
20090.0 0.0013772
20110.0 0.0013589
20130.0 0.0013405
20150.0 0.0013226
20170.0 0.0013042
20190.0 0.0012858
20210.0 0.0012684
20230.0 0.0012514
20250.0 0.0012342
20270.0 0.001218
20290.0 0.0012028
20310.0 0.0011879
20330.0 0.0011733
20350.0 0.0011603
20370.0 0.0011478
20390.0 0.0011358
20410.0 0.0011247
20430.0 0.0011145
20450.0 0.0011046
20470.0 0.0010955
20490.0 0.0010872
20510.0 0.0010795
20530.0 0.0010722
20550.0 0.0010655
20570.0 0.0010596
20590.0 0.001054
20610.0 0.0010488
20630.0 0.0010441
20650.0 0.0010398
20670.0 0.0010357
20690.0 0.0010319
20710.0 0.0010284
20730.0 0.0010249
20750.0 0.0010215
20770.0 0.0010182
20790.0 0.0010148
20810.0 0.0010113
20830.0 0.0010075
20850.0 0.0010036
20870.0 0.00099924
20890.0 0.00099451
20910.0 0.00098951
20930.0 0.00098405
20950.0 0.00097806
20970.0 0.00097176
20990.0 0.00096513
21010.0 0.00095786
21030.0 0.00095028
21050.0 0.00094256
21070.0 0.00093445
21090.0 0.00092588
21110.0 0.00091744
21130.0 0.00090894
21150.0 0.00090011
21170.0 0.0008913
21190.0 0.00088277
21210.0 0.00087402
21230.0 0.00086521
21250.0 0.00085683
21270.0 0.00084862
21290.0 0.00084036
21310.0 0.00083237
21330.0 0.00082488
21350.0 0.00081739
21370.0 0.00081005
21390.0 0.00080313
21410.0 0.00079646
21430.0 0.00078968
21450.0 0.0007833
21470.0 0.00077725
21490.0 0.00077123
21510.0 0.00076528
21530.0 0.00075967
21550.0 0.00075413
21570.0 0.0007485
21590.0 0.00074307
21610.0 0.00073781
21630.0 0.00073246
21650.0 0.00072702
21670.0 0.00072192
21690.0 0.00071678
21710.0 0.00071152
21730.0 0.00070637
21750.0 0.00070137
21770.0 0.00069612
21790.0 0.00069088
21810.0 0.00068581
21830.0 0.00068069
21850.0 0.00067539
21870.0 0.0006702
21890.0 0.00066515
21910.0 0.00065988
21930.0 0.00065459
21950.0 0.00064946
21970.0 0.00064424
21990.0 0.00063877
22010.0 0.00063355
22030.0 0.0006284
22050.0 0.00062311
22070.0 0.00061784
22090.0 0.00061285
22110.0 0.00060779
22130.0 0.00060269
22150.0 0.00059784
22170.0 0.00059317
22190.0 0.00058841
22210.0 0.00058382
22230.0 0.00057963
22250.0 0.00057549
22270.0 0.00057143
22290.0 0.0005677
22310.0 0.00056419
22330.0 0.00056066
22350.0 0.00055738
22370.0 0.00055437
22390.0 0.00055144
22410.0 0.00054855
22430.0 0.00054595
22450.0 0.00054347
22470.0 0.00054099
22490.0 0.00053864
22510.0 0.00053647
22530.0 0.00053425
22550.0 0.00053205
22570.0 0.00053004
22590.0 0.00052809
22610.0 0.00052611
22630.0 0.00052424
22650.0 0.00052254
22670.0 0.00052082
22690.0 0.00051917
22710.0 0.00051769
22730.0 0.00051632
22750.0 0.00051493
22770.0 0.00051376
22790.0 0.00051279
22810.0 0.0005119
22830.0 0.00051117
22850.0 0.00051068
22870.0 0.00051037
22890.0 0.00051021
22910.0 0.00051033
22930.0 0.00051072
22950.0 0.00051134
22970.0 0.00051226
22990.0 0.00051349
23010.0 0.00051502
23030.0 0.00051688
23050.0 0.00051904
23070.0 0.00052147
23090.0 0.00052427
23110.0 0.00052735
23130.0 0.00053063
23150.0 0.00053418
23170.0 0.00053802
23190.0 0.00054198
23210.0 0.00054605
23230.0 0.00055038
23250.0 0.00055483
23270.0 0.0005593
23290.0 0.00056391
23310.0 0.00056873
23330.0 0.00057346
23350.0 0.00057821
23370.0 0.00058309
23390.0 0.00058799
23410.0 0.00059278
23430.0 0.00059766
23450.0 0.0006028
23470.0 0.00060791
23490.0 0.000613
23510.0 0.00061823
23530.0 0.00062346
23550.0 0.0006286
23570.0 0.00063382
23590.0 0.00063912
23610.0 0.00064438
23630.0 0.00064966
23650.0 0.00065512
23670.0 0.00066061
23690.0 0.00066612
23710.0 0.00067181
23730.0 0.00067772
23750.0 0.00068365
23770.0 0.00068974
23790.0 0.00069613
23810.0 0.00070266
23830.0 0.00070928
23850.0 0.00071623
23870.0 0.00072341
23890.0 0.0007306
23910.0 0.00073793
23930.0 0.00074551
23950.0 0.00075311
23970.0 0.00076063
23990.0 0.00076833
24010.0 0.00077604
24030.0 0.00078357
24050.0 0.00079103
24070.0 0.00079854
24090.0 0.00080573
