#lamb flux
1010.0 0.00035964
1030.0 0.00047982
1050.0 0.00063027
1070.0 0.0008146
1090.0 0.001041
1110.0 0.0012973
1130.0 0.0015806
1150.0 0.0018993
1170.0 0.0022503
1190.0 0.0026105
1210.0 0.0029909
1230.0 0.0033912
1250.0 0.0037899
1270.0 0.0041754
1290.0 0.0045624
1310.0 0.0049257
1330.0 0.005243
1350.0 0.0055214
1370.0 0.0057598
1390.0 0.0059354
1410.0 0.0060443
1430.0 0.0061065
1450.0 0.00611
1470.0 0.00605
1490.0 0.0059438
1510.0 0.0058081
1530.0 0.0056248
1550.0 0.0054113
1570.0 0.0051836
1590.0 0.0049422
1610.0 0.0046871
1630.0 0.004436
1650.0 0.0041915
1670.0 0.0039497
1690.0 0.003717
1710.0 0.0035003
1730.0 0.003297
1750.0 0.0031036
1770.0 0.0029274
1790.0 0.0027667
1810.0 0.0026175
1830.0 0.0024807
1850.0 0.0023598
1870.0 0.0022489
1890.0 0.0021473
1910.0 0.0020569
1930.0 0.0019772
1950.0 0.0019047
1970.0 0.0018406
1990.0 0.0017865
2010.0 0.0017404
2030.0 0.0017018
2050.0 0.0016732
2070.0 0.001655
2090.0 0.0016452
2110.0 0.0016467
2130.0 0.0016613
2150.0 0.001689
2170.0 0.0017304
2190.0 0.0017893
2210.0 0.0018666
2230.0 0.0019625
2250.0 0.0020797
2270.0 0.0022214
2290.0 0.0023868
2310.0 0.0025768
2330.0 0.002795
2350.0 0.0030419
2370.0 0.0033157
2390.0 0.0036187
2410.0 0.0039528
2430.0 0.0043133
2450.0 0.004699
2470.0 0.0051117
2490.0 0.0055497
2510.0 0.0060082
2530.0 0.0064973
2550.0 0.0070342
2570.0 0.0076388
2590.0 0.0083439
2610.0 0.00924
2630.0 0.010393
2650.0 0.011836
2670.0 0.013674
2690.0 0.016004
2710.0 0.018724
2730.0 0.021757
2750.0 0.025182
2770.0 0.028726
2790.0 0.032122
2810.0 0.035336
2830.0 0.038305
2850.0 0.040722
2870.0 0.042726
2890.0 0.044422
2910.0 0.045821
2930.0 0.046958
2950.0 0.047963
2970.0 0.048855
2990.0 0.049609
3010.0 0.050257
3030.0 0.050842
3050.0 0.05133
3070.0 0.051675
3090.0 0.051938
3110.0 0.05209
3130.0 0.052075
3150.0 0.052362
3170.0 0.052423
3190.0 0.052352
3210.0 0.052109
3230.0 0.051552
3250.0 0.049923
3270.0 0.047122
3290.0 0.044725
3310.0 0.043758
3330.0 0.043905
3350.0 0.044144
3370.0 0.044158
3390.0 0.043981
3410.0 0.043745
3430.0 0.043505
3450.0 0.043648
3470.0 0.044712
3490.0 0.044863
3510.0 0.043315
3530.0 0.045145
3550.0 0.049625
3570.0 0.061315
3590.0 0.068857
3610.0 0.074807
3630.0 0.081078
3650.0 0.078442
3670.0 0.069335
3690.0 0.062068
3710.0 0.060645
3730.0 0.063371
3750.0 0.065112
3770.0 0.066104
3790.0 0.06659
3810.0 0.066487
3830.0 0.061302
3850.0 0.054711
3870.0 0.051833
3890.0 0.0541
3910.0 0.055956
3930.0 0.056103
3950.0 0.057753
3970.0 0.060465
3990.0 0.061795
4010.0 0.062752
4030.0 0.061073
4050.0 0.059392
4070.0 0.058528
4090.0 0.058983
4110.0 0.05916
4130.0 0.057981
4150.0 0.056073
4170.0 0.0555
4190.0 0.055287
4210.0 0.052451
4230.0 0.048573
4250.0 0.043852
4270.0 0.039299
4290.0 0.036888
4310.0 0.035558
4330.0 0.036643
4350.0 0.039997
4370.0 0.042417
4390.0 0.046259
4410.0 0.049517
4430.0 0.050731
4450.0 0.048313
4470.0 0.045583
4490.0 0.044934
4510.0 0.044662
4530.0 0.044764
4550.0 0.044595
4570.0 0.045053
4590.0 0.046377
4610.0 0.047554
4630.0 0.048629
4650.0 0.049322
4670.0 0.048967
4690.0 0.04641
4710.0 0.043936
4730.0 0.042303
4750.0 0.041103
4770.0 0.039682
4790.0 0.039244
4810.0 0.038541
4830.0 0.040909
4850.0 0.039043
4870.0 0.041483
4890.0 0.038905
4910.0 0.035943
4930.0 0.033993
4950.0 0.031335
4970.0 0.02837
4990.0 0.027013
5010.0 0.025509
5030.0 0.025495
5050.0 0.02558
5070.0 0.027245
5090.0 0.028343
5110.0 0.029696
5130.0 0.030627
5150.0 0.031005
5170.0 0.031076
5190.0 0.031328
5210.0 0.030987
5230.0 0.030538
5250.0 0.030704
5270.0 0.03164
5290.0 0.031277
5310.0 0.030497
5330.0 0.029282
5350.0 0.028007
5370.0 0.027191
5390.0 0.026295
5410.0 0.026885
5430.0 0.026563
5450.0 0.026415
5470.0 0.026253
5490.0 0.027177
5510.0 0.027834
5530.0 0.027283
5550.0 0.027526
5570.0 0.027823
5590.0 0.028024
5610.0 0.027356
5630.0 0.026837
5650.0 0.026067
5670.0 0.026151
5690.0 0.025265
5710.0 0.025145
5730.0 0.024733
5750.0 0.024337
5770.0 0.024019
5790.0 0.023169
5810.0 0.022718
5830.0 0.022732
5850.0 0.022795
5870.0 0.022708
5890.0 0.022743
5910.0 0.023017
5930.0 0.023508
5950.0 0.023285
5970.0 0.023723
5990.0 0.023817
6010.0 0.023887
6030.0 0.023613
6050.0 0.023028
6070.0 0.023225
6090.0 0.023397
6110.0 0.022913
6130.0 0.022372
6150.0 0.021694
6170.0 0.020699
6190.0 0.019492
6210.0 0.019286
6230.0 0.019011
6250.0 0.018805
6270.0 0.01923
6290.0 0.019482
6310.0 0.019544
6330.0 0.01984
6350.0 0.020054
6370.0 0.019865
6390.0 0.019157
6410.0 0.018813
6430.0 0.018468
6450.0 0.017989
6470.0 0.017698
6490.0 0.017795
6510.0 0.017653
6530.0 0.017615
6550.0 0.017358
6570.0 0.017174
6590.0 0.01703
6610.0 0.016763
6630.0 0.016667
6650.0 0.016497
6670.0 0.016107
6690.0 0.015447
6710.0 0.015054
6730.0 0.014929
6750.0 0.014888
6770.0 0.014969
6790.0 0.014529
6810.0 0.014466
6830.0 0.014313
6850.0 0.014173
6870.0 0.013789
6890.0 0.013568
6910.0 0.01363
6930.0 0.013262
6950.0 0.013413
6970.0 0.013291
6990.0 0.013207
7010.0 0.012765
7030.0 0.01272
7050.0 0.012666
7070.0 0.012268
7090.0 0.011708
7110.0 0.011669
7130.0 0.011784
7150.0 0.011782
7170.0 0.011908
7190.0 0.012
7210.0 0.012356
7230.0 0.012381
7250.0 0.012686
7270.0 0.012259
7290.0 0.012373
7310.0 0.012129
7330.0 0.012054
7350.0 0.011736
7370.0 0.011589
7390.0 0.011703
7410.0 0.011525
7430.0 0.011722
7450.0 0.011362
7470.0 0.011328
7490.0 0.010762
7510.0 0.010192
7530.0 0.010453
7550.0 0.0099897
7570.0 0.010356
7590.0 0.0097178
7610.0 0.010189
7630.0 0.0099437
7650.0 0.010198
7670.0 0.0097392
7690.0 0.0099672
7710.0 0.0096173
7730.0 0.010165
7750.0 0.0097613
7770.0 0.010305
7790.0 0.010593
7810.0 0.010548
7830.0 0.011152
7850.0 0.010684
7870.0 0.011454
7890.0 0.011116
7910.0 0.010952
7930.0 0.010749
7950.0 0.010632
7970.0 0.010752
7990.0 0.010682
8010.0 0.010242
8030.0 0.010154
8050.0 0.0099434
8070.0 0.0097922
8090.0 0.0091904
8110.0 0.0092411
8130.0 0.0096674
8150.0 0.0099673
8170.0 0.0099849
8190.0 0.010247
8210.0 0.010087
8230.0 0.0097801
8250.0 0.0097347
8270.0 0.009548
8290.0 0.0093563
8310.0 0.0089068
8330.0 0.0089441
8350.0 0.0090143
8370.0 0.0090687
8390.0 0.0091187
8410.0 0.0089947
8430.0 0.0089434
8450.0 0.0089682
8470.0 0.0091999
8490.0 0.0093173
8510.0 0.00903
8530.0 0.0086783
8550.0 0.0086898
8570.0 0.0085639
8590.0 0.0083393
8610.0 0.0085001
8630.0 0.0084269
8650.0 0.0083164
8670.0 0.0082545
8690.0 0.008186
8710.0 0.0078113
8730.0 0.0078927
8750.0 0.00767
8770.0 0.0076878
8790.0 0.0075184
8810.0 0.0073657
8830.0 0.0074086
8850.0 0.0073033
8870.0 0.0069639
8890.0 0.0067895
8910.0 0.0064978
8930.0 0.0060982
8950.0 0.0060211
8970.0 0.0057656
8990.0 0.0056927
9010.0 0.0055572
9030.0 0.005505
9050.0 0.0054687
9070.0 0.0054328
9090.0 0.0053967
9110.0 0.0053598
9130.0 0.0053229
9150.0 0.0052867
9170.0 0.0052501
9190.0 0.0052133
9210.0 0.0051762
9230.0 0.0051389
9250.0 0.0051016
9270.0 0.0050642
9290.0 0.0050267
9310.0 0.0049894
9330.0 0.0049524
9350.0 0.0049154
9370.0 0.0048784
9390.0 0.0048415
9410.0 0.0048046
9430.0 0.0047677
9450.0 0.0047309
9470.0 0.0046975
9490.0 0.0046624
9510.0 0.0046241
9530.0 0.0045863
9550.0 0.0045494
9570.0 0.0045129
9590.0 0.0044767
9610.0 0.0044411
9630.0 0.0044059
9650.0 0.0043708
9670.0 0.0043358
9690.0 0.0043012
9710.0 0.0042669
9730.0 0.0042327
9750.0 0.0041987
9770.0 0.0041653
9790.0 0.0041319
9810.0 0.0040987
9830.0 0.0040657
9850.0 0.0040298
9870.0 0.0039948
9890.0 0.0039656
9910.0 0.0039359
9930.0 0.0038997
9950.0 0.0038687
9970.0 0.0038407
9990.0 0.003812
10010.0 0.0037835
10030.0 0.0037546
10050.0 0.0037254
10070.0 0.0036967
10090.0 0.0036684
10110.0 0.0036399
10130.0 0.0036117
10150.0 0.0035844
10170.0 0.0035573
10190.0 0.0035302
10210.0 0.0035038
10230.0 0.003478
10250.0 0.0034521
10270.0 0.0034266
10290.0 0.0034018
10310.0 0.0033771
10330.0 0.0033524
10350.0 0.0033285
10370.0 0.003305
10390.0 0.0032815
10410.0 0.0032573
10430.0 0.0032336
10450.0 0.0032125
10470.0 0.003191
10490.0 0.00317
10510.0 0.0031492
10530.0 0.003128
10550.0 0.0031074
10570.0 0.0030876
10590.0 0.0030676
10610.0 0.0030478
10630.0 0.0030288
10650.0 0.0030101
10670.0 0.0029912
10690.0 0.0029728
10710.0 0.0029551
10730.0 0.0029373
10750.0 0.0029194
10770.0 0.0029026
10790.0 0.002886
10810.0 0.0028693
10830.0 0.002853
10850.0 0.0028375
10870.0 0.0028215
10890.0 0.0028059
10910.0 0.002791
10930.0 0.0027764
10950.0 0.0027616
10970.0 0.0027474
10990.0 0.0027339
11010.0 0.0028602
11030.0 0.0028431
11050.0 0.0028256
11070.0 0.0028073
11090.0 0.0027875
11110.0 0.002768
11130.0 0.0027483
11150.0 0.0027279
11170.0 0.0027072
11190.0 0.0026871
11210.0 0.0026667
11230.0 0.0026458
11250.0 0.0026257
11270.0 0.0026062
11290.0 0.0025865
11310.0 0.0025674
11330.0 0.0025501
11350.0 0.0025332
11370.0 0.0025169
11390.0 0.0025021
11410.0 0.0024884
11430.0 0.0024748
11450.0 0.0024623
11470.0 0.0024508
11490.0 0.0024396
11510.0 0.0024285
11530.0 0.0024181
11550.0 0.002408
11570.0 0.0023975
11590.0 0.0023871
11610.0 0.002377
11630.0 0.0023663
11650.0 0.0023551
11670.0 0.0023444
11690.0 0.0023336
11710.0 0.002322
11730.0 0.0023106
11750.0 0.0022995
11770.0 0.0022879
11790.0 0.002276
11810.0 0.0022647
11830.0 0.0022536
11850.0 0.0022418
11870.0 0.0022308
11890.0 0.0022207
11910.0 0.0022107
11930.0 0.0022011
11950.0 0.0021929
11970.0 0.0021855
11990.0 0.0021785
12010.0 0.002173
12030.0 0.0021688
12050.0 0.0021656
12070.0 0.0021634
12090.0 0.0021631
12110.0 0.0021638
12130.0 0.0021655
12150.0 0.0021685
12170.0 0.0021725
12190.0 0.0021773
12210.0 0.0021828
12230.0 0.0021888
12250.0 0.0021951
12270.0 0.0022015
12290.0 0.0022078
12310.0 0.0022138
12330.0 0.0022192
12350.0 0.002224
12370.0 0.0022281
12390.0 0.0022313
12410.0 0.0022332
12430.0 0.0022342
12450.0 0.0022342
12470.0 0.0022328
12490.0 0.0022301
12510.0 0.0022268
12530.0 0.002222
12550.0 0.0022157
12570.0 0.0022087
12590.0 0.0022009
12610.0 0.0021914
12630.0 0.0021809
12650.0 0.0021707
12670.0 0.0021593
12690.0 0.0021469
12710.0 0.0021347
12730.0 0.0021224
12750.0 0.0021087
12770.0 0.0020954
12790.0 0.0020828
12810.0 0.0020699
12830.0 0.0020567
12850.0 0.0020449
12870.0 0.0020336
12890.0 0.0020223
12910.0 0.002012
12930.0 0.0020031
12950.0 0.0019946
12970.0 0.0019869
12990.0 0.001981
13010.0 0.0019763
13030.0 0.0019725
13050.0 0.0019702
13070.0 0.0019694
13090.0 0.0019694
13110.0 0.0019705
13130.0 0.0019726
13150.0 0.0019755
13170.0 0.0019788
13190.0 0.0019826
13210.0 0.0019866
13230.0 0.0019906
13250.0 0.0019944
13270.0 0.001998
13290.0 0.0020012
13310.0 0.0020037
13330.0 0.0020057
13350.0 0.0020069
13370.0 0.0020072
13390.0 0.0020064
13410.0 0.0020049
13430.0 0.0020023
13450.0 0.0019982
13470.0 0.0019933
13490.0 0.0019875
13510.0 0.0019799
13530.0 0.0019714
13550.0 0.0019624
13570.0 0.0019523
13590.0 0.0019409
13610.0 0.0019293
13630.0 0.0019173
13650.0 0.0019041
13670.0 0.0018904
13690.0 0.0018768
13710.0 0.0018624
13730.0 0.0018466
13750.0 0.0018314
13770.0 0.0018159
13790.0 0.0017995
13810.0 0.0017828
13830.0 0.0017667
13850.0 0.0017498
13870.0 0.0017324
13890.0 0.0017157
13910.0 0.0016992
13930.0 0.0016821
13950.0 0.0016653
13970.0 0.0016498
13990.0 0.001634
14010.0 0.0016184
14030.0 0.0016037
14050.0 0.0015895
14070.0 0.001575
14090.0 0.0015613
14110.0 0.0015484
14130.0 0.0015356
14150.0 0.0015228
14170.0 0.0015109
14190.0 0.0014991
14210.0 0.0014872
14230.0 0.0014757
14250.0 0.0014646
14270.0 0.0014531
14290.0 0.0014417
14310.0 0.0014309
14330.0 0.0014201
14350.0 0.0014092
14370.0 0.0013987
14390.0 0.0013887
14410.0 0.0013785
14430.0 0.0013685
14450.0 0.001359
14470.0 0.0013497
14490.0 0.0013402
14510.0 0.001331
14530.0 0.0013221
14550.0 0.001313
14570.0 0.0013039
14590.0 0.0012949
14610.0 0.0012858
14630.0 0.0012763
14650.0 0.0012669
14670.0 0.0012574
14690.0 0.0012476
14710.0 0.0012375
14730.0 0.0012276
14750.0 0.0012174
14770.0 0.001207
14790.0 0.0011965
14810.0 0.0011859
14830.0 0.0011748
14850.0 0.0011637
14870.0 0.0011526
14890.0 0.0011413
14910.0 0.0011298
14930.0 0.0011186
14950.0 0.0011077
14970.0 0.0010969
14990.0 0.0010866
15010.0 0.0010769
15030.0 0.0010676
15050.0 0.0010587
15070.0 0.0010503
15090.0 0.0010422
15110.0 0.0010342
15130.0 0.0010264
15150.0 0.0010186
15170.0 0.0010108
15190.0 0.0010029
15210.0 0.00099512
15230.0 0.00098732
15250.0 0.00097941
15270.0 0.0009715
15290.0 0.00096371
15310.0 0.00095583
15330.0 0.00094791
15350.0 0.00094007
15370.0 0.00093223
15390.0 0.00092427
15410.0 0.00091638
15430.0 0.00090856
15450.0 0.00090069
15470.0 0.00089277
15490.0 0.00088499
15510.0 0.0008772
15530.0 0.00086935
15550.0 0.00086156
15570.0 0.00085385
15590.0 0.00084607
15610.0 0.00083828
15630.0 0.00083063
15650.0 0.00082298
15670.0 0.00081529
15690.0 0.00080768
15710.0 0.00080017
15730.0 0.00079259
15750.0 0.00078504
15770.0 0.0007776
15790.0 0.00077018
15810.0 0.0007627
15830.0 0.00075535
15850.0 0.00074808
15870.0 0.00074078
15890.0 0.00073352
15910.0 0.00072638
15930.0 0.00071925
15950.0 0.00071209
15970.0 0.00070504
15990.0 0.00069807
16010.0 0.00069109
16030.0 0.00068414
16050.0 0.00067734
16070.0 0.00067055
16090.0 0.00066376
16110.0 0.00065708
16130.0 0.00065049
16150.0 0.00064383
16170.0 0.00063727
16190.0 0.00063083
16210.0 0.0006244
16230.0 0.00061799
16250.0 0.0006117
16270.0 0.00060548
16290.0 0.00059925
16310.0 0.00059309
16330.0 0.00058705
16350.0 0.00058102
16370.0 0.00057498
16390.0 0.0005691
16410.0 0.00056327
16430.0 0.00055745
16450.0 0.0005517
16470.0 0.00054608
16490.0 0.00054045
16510.0 0.00053485
16530.0 0.00052937
16550.0 0.00052395
16570.0 0.00051853
16590.0 0.00051318
16610.0 0.00050796
16630.0 0.00050275
16650.0 0.00049758
16670.0 0.00049251
16690.0 0.00048751
16710.0 0.00048248
16730.0 0.00047756
16750.0 0.00047273
16770.0 0.00046791
16790.0 0.00046313
16810.0 0.00045847
16830.0 0.00045386
16850.0 0.00044925
16870.0 0.00044474
16890.0 0.00044031
16910.0 0.00043587
16930.0 0.00043147
16950.0 0.0004272
16970.0 0.00042297
16990.0 0.00041874
17010.0 0.00041461
17030.0 0.00041056
17050.0 0.0004065
17070.0 0.0004025
17090.0 0.00039859
17110.0 0.00039472
17130.0 0.00039085
17150.0 0.00038707
17170.0 0.00038338
17190.0 0.00037968
17210.0 0.00037604
17230.0 0.0003725
17250.0 0.00036896
17270.0 0.00036544
17290.0 0.00036201
17310.0 0.00035864
17330.0 0.00035528
17350.0 0.00035195
17370.0 0.00034874
17390.0 0.00034554
17410.0 0.00034235
17430.0 0.00033924
17450.0 0.0003362
17470.0 0.00033313
17490.0 0.00033012
17510.0 0.0003272
17530.0 0.0003243
17550.0 0.00032141
17570.0 0.0003186
17590.0 0.00031584
17610.0 0.00031308
17630.0 0.00031037
17650.0 0.00030773
17670.0 0.0003051
17690.0 0.00030246
17710.0 0.00029994
17730.0 0.00029744
17750.0 0.00029495
17770.0 0.0002925
17790.0 0.00029014
17810.0 0.00028775
17830.0 0.0002854
17850.0 0.00028311
17870.0 0.00028086
17890.0 0.0002786
17910.0 0.00027639
17930.0 0.00027426
17950.0 0.00027213
17970.0 0.00027001
17990.0 0.00026796
18010.0 0.00026594
18030.0 0.0002639
18050.0 0.00026192
18070.0 0.00026
18090.0 0.00025807
18110.0 0.00025616
18130.0 0.00025433
18150.0 0.00025251
18170.0 0.00025069
18190.0 0.00024892
18210.0 0.00024719
18230.0 0.00024545
18250.0 0.00024373
18270.0 0.00024209
18290.0 0.00024046
18310.0 0.00023882
18330.0 0.00023724
18350.0 0.0002357
18370.0 0.00023414
18390.0 0.00023261
18410.0 0.00023114
18430.0 0.00022968
18450.0 0.00022819
18470.0 0.00022678
18490.0 0.0002254
18510.0 0.00022401
18530.0 0.00022265
18550.0 0.00022134
18570.0 0.00022003
18590.0 0.00021871
18610.0 0.00021744
18630.0 0.00021621
18650.0 0.00021496
18670.0 0.00021373
18690.0 0.00021257
18710.0 0.0002114
18730.0 0.00021023
18750.0 0.00020911
18770.0 0.00020802
18790.0 0.00020689
18810.0 0.0002058
18830.0 0.00020476
18850.0 0.00020372
18870.0 0.00020267
18890.0 0.00020168
18910.0 0.0002007
18930.0 0.00019971
18950.0 0.00019874
18970.0 0.00019782
18990.0 0.00019689
19010.0 0.00019594
19030.0 0.00019506
19050.0 0.0001942
19070.0 0.00019331
19090.0 0.00019246
19110.0 0.00019165
19130.0 0.00019081
19150.0 0.00018999
19170.0 0.00018921
19190.0 0.00018843
19210.0 0.00018764
19230.0 0.00018688
19250.0 0.00018617
19270.0 0.00018543
19290.0 0.0001847
19310.0 0.00018402
19330.0 0.00018334
19350.0 0.00018262
19370.0 0.00018196
19390.0 0.00018132
19410.0 0.00018066
19430.0 0.00018001
19450.0 0.00017942
19470.0 0.00017881
19490.0 0.00017819
19510.0 0.00017761
19530.0 0.00017705
19550.0 0.00017646
19570.0 0.00017588
19590.0 0.00017535
19610.0 0.00017482
19630.0 0.00017427
19650.0 0.00017376
19670.0 0.00017327
19690.0 0.00017275
19710.0 0.00017225
19730.0 0.00017178
19750.0 0.00017131
19770.0 0.00017081
19790.0 0.00017036
19810.0 0.00016993
19830.0 0.00016948
19850.0 0.00016904
19870.0 0.00016865
19890.0 0.00016824
19910.0 0.00016783
19930.0 0.00016749
19950.0 0.00016721
19970.0 0.00016696
19990.0 0.0001668
20010.0 0.00016677
20030.0 0.00016683
20050.0 0.00016698
20070.0 0.00016724
20090.0 0.0001676
20110.0 0.00016801
20130.0 0.0001685
20150.0 0.00016905
20170.0 0.00016963
20190.0 0.00017025
20210.0 0.0001709
20230.0 0.00017159
20250.0 0.00017228
20270.0 0.000173
20290.0 0.00017374
20310.0 0.00017448
20330.0 0.00017522
20350.0 0.00017598
20370.0 0.00017674
20390.0 0.00017749
20410.0 0.00017824
20430.0 0.000179
20450.0 0.00017975
20470.0 0.0001805
20490.0 0.00018127
20510.0 0.00018204
20530.0 0.00018282
20550.0 0.00018362
20570.0 0.00018445
20590.0 0.0001853
20610.0 0.00018617
20630.0 0.00018707
20650.0 0.000188
20670.0 0.00018894
20690.0 0.00018992
20710.0 0.00019091
20730.0 0.00019192
20750.0 0.00019294
20770.0 0.00019397
20790.0 0.000195
20810.0 0.00019601
20830.0 0.00019702
20850.0 0.00019802
20870.0 0.00019898
20890.0 0.00019991
20910.0 0.00020084
20930.0 0.00020174
20950.0 0.0002026
20970.0 0.00020345
20990.0 0.00020429
21010.0 0.00020509
21030.0 0.00020588
21050.0 0.00020669
21070.0 0.00020748
21090.0 0.00020825
21110.0 0.00020905
21130.0 0.00020988
21150.0 0.00021068
21170.0 0.00021149
21190.0 0.00021234
21210.0 0.00021317
21230.0 0.00021399
21250.0 0.00021483
21270.0 0.00021568
21290.0 0.00021649
21310.0 0.0002173
21330.0 0.00021813
21350.0 0.00021891
21370.0 0.00021966
21390.0 0.00022041
21410.0 0.00022115
21430.0 0.0002218
21450.0 0.00022245
21470.0 0.00022312
21490.0 0.00022373
21510.0 0.00022429
21530.0 0.00022488
21550.0 0.00022545
21570.0 0.00022594
21590.0 0.00022645
21610.0 0.00022698
21630.0 0.00022744
21650.0 0.00022785
21670.0 0.00022835
21690.0 0.00022882
21710.0 0.00022923
21730.0 0.00022967
21750.0 0.00023014
21770.0 0.00023052
21790.0 0.00023089
21810.0 0.00023131
21830.0 0.00023171
21850.0 0.00023204
21870.0 0.00023241
21890.0 0.00023284
21910.0 0.00023319
21930.0 0.00023354
21950.0 0.00023396
21970.0 0.00023437
21990.0 0.0002347
22010.0 0.00023515
22030.0 0.00023565
22050.0 0.00023613
22070.0 0.00023664
22090.0 0.00023729
22110.0 0.00023794
22130.0 0.0002386
22150.0 0.00023938
22170.0 0.00024024
22190.0 0.00024109
22210.0 0.00024202
22230.0 0.00024308
22250.0 0.00024417
22270.0 0.00024528
22290.0 0.00024649
22310.0 0.00024777
22330.0 0.00024902
22350.0 0.00025034
22370.0 0.00025172
22390.0 0.00025312
22410.0 0.0002545
22430.0 0.00025596
22450.0 0.00025746
22470.0 0.00025894
22490.0 0.00026045
22510.0 0.00026202
22530.0 0.00026357
22550.0 0.00026513
22570.0 0.00026676
22590.0 0.00026842
22610.0 0.00027008
22630.0 0.00027178
22650.0 0.00027357
22670.0 0.00027535
22690.0 0.00027716
22710.0 0.00027905
22730.0 0.00028099
22750.0 0.00028291
22770.0 0.00028493
22790.0 0.00028703
22810.0 0.00028916
22830.0 0.00029134
22850.0 0.00029363
22870.0 0.00029599
22890.0 0.00029839
22910.0 0.00030091
22930.0 0.00030353
22950.0 0.00030624
22970.0 0.00030904
22990.0 0.000312
23010.0 0.00031507
23030.0 0.00031826
23050.0 0.00032159
23070.0 0.00032506
23090.0 0.00032867
23110.0 0.00033244
23130.0 0.00033637
23150.0 0.00034045
23170.0 0.00034472
23190.0 0.00034914
23210.0 0.0003537
23230.0 0.00035846
23250.0 0.00036337
23270.0 0.00036841
23290.0 0.00037361
23310.0 0.00037899
23330.0 0.00038444
23350.0 0.00038998
23370.0 0.00039565
23390.0 0.00040139
23410.0 0.00040713
23430.0 0.00041296
23450.0 0.00041884
23470.0 0.0004247
23490.0 0.00043058
23510.0 0.00043651
23530.0 0.00044245
23550.0 0.00044838
23570.0 0.00045437
23590.0 0.00046042
23610.0 0.00046651
23630.0 0.00047268
23650.0 0.00047899
