#lamb flux
1010.0 6.5284e-07
1030.0 7.3542e-07
1050.0 8.3041e-07
1070.0 9.3733e-07
1090.0 1.0588e-06
1110.0 1.1833e-06
1130.0 1.3087e-06
1150.0 1.44e-06
1170.0 1.5755e-06
1190.0 1.704e-06
1210.0 1.8342e-06
1230.0 1.9687e-06
1250.0 2.1005e-06
1270.0 2.2285e-06
1290.0 2.3638e-06
1310.0 2.4989e-06
1330.0 2.6285e-06
1350.0 2.7596e-06
1370.0 2.8949e-06
1390.0 3.0268e-06
1410.0 3.1548e-06
1430.0 3.2886e-06
1450.0 3.4224e-06
1470.0 3.5516e-06
1490.0 3.6823e-06
1510.0 3.8202e-06
1530.0 3.9509e-06
1550.0 4.0798e-06
1570.0 4.2131e-06
1590.0 4.3464e-06
1610.0 4.4737e-06
1630.0 4.6049e-06
1650.0 4.7394e-06
1670.0 4.8694e-06
1690.0 4.9975e-06
1710.0 5.1305e-06
1730.0 5.264e-06
1750.0 5.3891e-06
1770.0 5.5177e-06
1790.0 5.6486e-06
1810.0 5.7748e-06
1830.0 5.8983e-06
1850.0 6.029e-06
1870.0 6.1555e-06
1890.0 6.2769e-06
1910.0 6.4e-06
1930.0 6.5253e-06
1950.0 6.6435e-06
1970.0 6.7589e-06
1990.0 6.8777e-06
2010.0 6.9927e-06
2030.0 7.1015e-06
2050.0 7.2122e-06
2070.0 7.324e-06
2090.0 7.426e-06
2110.0 7.5252e-06
2130.0 7.6253e-06
2150.0 7.72e-06
2170.0 7.8062e-06
2190.0 7.8935e-06
2210.0 7.9779e-06
2230.0 8.0534e-06
2250.0 8.1243e-06
2270.0 8.1961e-06
2290.0 8.2595e-06
2310.0 8.3133e-06
2330.0 8.366e-06
2350.0 8.4149e-06
2370.0 8.4547e-06
2390.0 8.4923e-06
2410.0 8.5343e-06
2430.0 8.574e-06
2450.0 8.6155e-06
2470.0 8.6704e-06
2490.0 8.7433e-06
2510.0 8.8278e-06
2530.0 8.9524e-06
2550.0 9.1574e-06
2570.0 9.4796e-06
2590.0 9.9737e-06
2610.0 1.0795e-05
2630.0 1.1987e-05
2650.0 1.3491e-05
2670.0 1.5335e-05
2690.0 1.7446e-05
2710.0 1.9508e-05
2730.0 2.1354e-05
2750.0 2.2997e-05
2770.0 2.4243e-05
2790.0 2.5062e-05
2810.0 2.5576e-05
2830.0 2.5867e-05
2850.0 2.5934e-05
2870.0 2.5887e-05
2890.0 2.5788e-05
2910.0 2.565e-05
2930.0 2.548e-05
2950.0 2.5314e-05
2970.0 2.5155e-05
2990.0 2.4988e-05
3010.0 0.00058393
3030.0 0.00058004
3050.0 0.00057619
3070.0 0.00057194
3090.0 0.00056749
3110.0 0.00056227
3130.0 0.0005556
3150.0 0.00054714
3170.0 0.00053619
3190.0 0.000523
3210.0 0.00050862
3230.0 0.00049398
3250.0 0.00048108
3270.0 0.00047219
3290.0 0.00046841
3310.0 0.00047058
3330.0 0.00047892
3350.0 0.0004922
3370.0 0.00051069
3390.0 0.00053377
3410.0 0.00055884
3430.0 0.00058709
3450.0 0.00061962
3470.0 0.00065504
3490.0 0.00069246
3510.0 0.00073446
3530.0 0.00077935
3550.0 0.00082505
3570.0 0.00087345
3590.0 0.00092762
3610.0 0.00098482
3630.0 0.0010446
3650.0 0.0011073
3670.0 0.001166
3690.0 0.0012116
3710.0 0.0012389
3730.0 0.00124
3750.0 0.0012141
3770.0 0.001137
3790.0 0.0010386
3810.0 0.00093571
3830.0 0.00082891
3850.0 0.00069304
3870.0 0.00049563
3890.0 0.00071765
3910.0 0.0011388
3930.0 0.0013914
3950.0 0.001379
3970.0 0.0014581
3990.0 0.0016299
4010.0 0.0021688
4030.0 0.0021466
4050.0 0.0018912
4070.0 0.001751
4090.0 0.001665
4110.0 0.0019709
4130.0 0.0021189
4150.0 0.0021793
4170.0 0.0021192
4190.0 0.002113
4210.0 0.0021208
4230.0 0.0024044
4250.0 0.0026533
4270.0 0.0027241
4290.0 0.002714
4310.0 0.0027243
4330.0 0.002968
4350.0 0.0034912
4370.0 0.0040013
4390.0 0.0036893
4410.0 0.0028836
4430.0 0.0023845
4450.0 0.002059
4470.0 0.0019519
4490.0 0.0022212
4510.0 0.0026734
4530.0 0.0030058
4550.0 0.0033947
4570.0 0.0038711
4590.0 0.0046212
4610.0 0.0062689
4630.0 0.0078087
4650.0 0.0078996
4670.0 0.0074766
4690.0 0.0079651
4710.0 0.0084611
4730.0 0.0071136
4750.0 0.0049634
4770.0 0.0039758
4790.0 0.0039281
4810.0 0.0036972
4830.0 0.0035019
4850.0 0.0039771
4870.0 0.0051803
4890.0 0.006008
4910.0 0.0050003
4930.0 0.0044423
4950.0 0.0049781
4970.0 0.006702
4990.0 0.0087975
5010.0 0.0095205
5030.0 0.0078194
5050.0 0.0049429
5070.0 0.0034007
5090.0 0.0029731
5110.0 0.003074
5130.0 0.0033456
5150.0 0.003475
5170.0 0.0034503
5190.0 0.0033464
5210.0 0.0032724
5230.0 0.0034382
5250.0 0.003719
5270.0 0.0041405
5290.0 0.0047505
5310.0 0.0053833
5330.0 0.005534
5350.0 0.0055342
5370.0 0.006046
5390.0 0.0067082
5410.0 0.0064116
5430.0 0.0054134
5450.0 0.0050074
5470.0 0.0056246
5490.0 0.0072154
5510.0 0.0092206
5530.0 0.010344
5550.0 0.0098985
5570.0 0.0089192
5590.0 0.0078422
5610.0 0.0073314
5630.0 0.0071085
5650.0 0.0071752
5670.0 0.0069469
5690.0 0.0063061
5710.0 0.0060407
5730.0 0.0055655
5750.0 0.0037843
5770.0 0.0032203
5790.0 0.0036705
5810.0 0.0044029
5830.0 0.0052002
5850.0 0.0058628
5870.0 0.0060723
5890.0 0.0058552
5910.0 0.0056069
5930.0 0.0055908
5950.0 0.005842
5970.0 0.0064009
5990.0 0.0059494
6010.0 0.004936
6030.0 0.004087
6050.0 0.0035456
6070.0 0.0036058
6090.0 0.0040838
6110.0 0.0044652
6130.0 0.0042726
6150.0 0.0038384
6170.0 0.0040367
6190.0 0.0048905
6210.0 0.0061533
6230.0 0.0073484
6250.0 0.0074372
6270.0 0.0065148
6290.0 0.0054126
6310.0 0.0042734
6330.0 0.0033523
6350.0 0.0030301
6370.0 0.0032522
6390.0 0.0038733
6410.0 0.0045444
6430.0 0.0053008
6450.0 0.0062202
6470.0 0.0074406
6490.0 0.0091658
6510.0 0.0102
6530.0 0.0095646
6550.0 0.0087602
6570.0 0.0083045
6590.0 0.0079967
6610.0 0.0070356
6630.0 0.0064409
6650.0 0.0059367
6670.0 0.0060481
6690.0 0.0058347
6710.0 0.0052308
6730.0 0.0044989
6750.0 0.0041321
6770.0 0.0041849
6790.0 0.0047708
6810.0 0.0046711
6830.0 0.0048015
6850.0 0.0046356
6870.0 0.0044292
6890.0 0.0042722
6910.0 0.0042068
6930.0 0.0039362
6950.0 0.0040917
6970.0 0.004136
6990.0 0.0046223
7010.0 0.0049005
7030.0 0.0045909
7050.0 0.0042731
7070.0 0.00412
7090.0 0.0038564
7110.0 0.0036571
7130.0 0.0037874
7150.0 0.0040416
7170.0 0.0043291
7190.0 0.0043893
7210.0 0.0042582
7230.0 0.0043919
7250.0 0.004992
7270.0 0.005806
7290.0 0.006409
7310.0 0.0063227
7330.0 0.005641
7350.0 0.0050414
7370.0 0.0046734
7390.0 0.0047332
7410.0 0.0050649
7430.0 0.005553
7450.0 0.0060064
7470.0 0.0064556
7490.0 0.0070099
7510.0 0.0074057
7530.0 0.0069109
7550.0 0.0058199
7570.0 0.004576
7590.0 0.0033707
7610.0 0.0029938
7630.0 0.0032402
7650.0 0.0037534
7670.0 0.0043554
7690.0 0.0049402
7710.0 0.0052769
7730.0 0.0054229
7750.0 0.0056678
7770.0 0.0056491
7790.0 0.0054393
7810.0 0.0054245
7830.0 0.0053227
7850.0 0.0048618
7870.0 0.0044192
7890.0 0.0039672
7910.0 0.003386
7930.0 0.0029573
7950.0 0.0026811
7970.0 0.0026089
7990.0 0.0026788
8010.0 0.0028244
8030.0 0.0028306
8050.0 0.0028517
8070.0 0.0028056
8090.0 0.0028745
8110.0 0.0027119
8130.0 0.0023738
8150.0 0.0022306
8170.0 0.0020561
8190.0 0.0020354
8210.0 0.0021823
8230.0 0.0023351
8250.0 0.0021643
8270.0 0.0019296
8290.0 0.0015856
8310.0 0.001093
8330.0 0.00070951
8350.0 0.00051689
8370.0 0.00054947
8390.0 0.00065084
8410.0 0.00082686
8430.0 0.0010106
8450.0 0.001116
8470.0 0.0012383
8490.0 0.0012175
8510.0 0.001224
8530.0 0.0012786
8550.0 0.0015481
8570.0 0.0019073
8590.0 0.0021797
8610.0 0.0026351
8630.0 0.003055
8650.0 0.0032149
8670.0 0.0032688
8690.0 0.0032498
8710.0 0.0030393
8730.0 0.0029178
8750.0 0.0027005
8770.0 0.0025935
8790.0 0.0025735
8810.0 0.0024537
8830.0 0.0020643
8850.0 0.0017014
8870.0 0.0014191
8890.0 0.0013873
8910.0 0.0014986
8930.0 0.0015908
8950.0 0.0017856
8970.0 0.0018139
8990.0 0.0017861
9010.0 0.0017177
9030.0 0.0016996
9050.0 0.0017163
9070.0 0.0017296
9090.0 0.0017395
9110.0 0.0017484
9130.0 0.0017563
9150.0 0.0017638
9170.0 0.0017717
9190.0 0.00178
9210.0 0.0017891
9230.0 0.0017983
9250.0 0.0018082
9270.0 0.0018186
9290.0 0.0018293
9310.0 0.0018405
9330.0 0.0018523
9350.0 0.0018643
9370.0 0.0018769
9390.0 0.0018899
9410.0 0.0019033
9430.0 0.001917
9450.0 0.0019313
9470.0 0.001946
9490.0 0.0019609
9510.0 0.0019764
9530.0 0.0019923
9550.0 0.0020084
9570.0 0.0020249
9590.0 0.0020419
9610.0 0.0020593
9630.0 0.0020768
9650.0 0.0020948
9670.0 0.0021132
9690.0 0.0021318
9710.0 0.0021507
9730.0 0.00217
9750.0 0.0021896
9770.0 0.0022092
9790.0 0.0022293
9810.0 0.0022497
9830.0 0.0022703
9850.0 0.002291
9870.0 0.0023121
9890.0 0.0023333
9910.0 0.0023546
9930.0 0.0023762
9950.0 0.002398
9970.0 0.0024198
9990.0 0.0024416
10010.0 0.0023513
10030.0 0.002372
10050.0 0.0023926
10070.0 0.0024132
10090.0 0.0024342
10110.0 0.002455
10130.0 0.0024758
10150.0 0.0024967
10170.0 0.0025174
10190.0 0.002538
10210.0 0.0025587
10230.0 0.0025793
10250.0 0.0025996
10270.0 0.0026199
10290.0 0.0026402
10310.0 0.0026601
10330.0 0.0026797
10350.0 0.0026993
10370.0 0.0027187
10390.0 0.0027377
10410.0 0.0027565
10430.0 0.0027752
10450.0 0.0027934
10470.0 0.0028113
10490.0 0.0028289
10510.0 0.0028463
10530.0 0.0028629
10550.0 0.0028794
10570.0 0.0028956
10590.0 0.0029112
10610.0 0.0029264
10630.0 0.0029412
10650.0 0.0029557
10670.0 0.0029693
10690.0 0.0029826
10710.0 0.0029956
10730.0 0.0030079
10750.0 0.0030194
10770.0 0.0030308
10790.0 0.0030415
10810.0 0.0030515
10830.0 0.0030609
10850.0 0.0030696
10870.0 0.0030769
10890.0 0.0030823
10910.0 0.0030853
10930.0 0.0030842
10950.0 0.0030764
10970.0 0.0030608
10990.0 0.0030367
11010.0 0.0029492
11030.0 0.0029018
11050.0 0.0028455
11070.0 0.0027788
11090.0 0.0026987
11110.0 0.0026161
11130.0 0.00253
11150.0 0.0024372
11170.0 0.0023421
11190.0 0.0022508
11210.0 0.0021576
11230.0 0.0020636
11250.0 0.0019756
11270.0 0.0018929
11290.0 0.001812
11310.0 0.0017371
11330.0 0.0016727
11350.0 0.001613
11370.0 0.0015586
11390.0 0.001512
11410.0 0.0014711
11430.0 0.0014325
11450.0 0.001398
11470.0 0.0013667
11490.0 0.0013357
11510.0 0.0013038
11530.0 0.0012723
11550.0 0.0012395
11570.0 0.0012036
11590.0 0.0011659
11610.0 0.0011274
11630.0 0.0010859
11650.0 0.0010421
11670.0 0.0009997
11690.0 0.00095751
11710.0 0.00091488
11730.0 0.00087438
11750.0 0.00083753
11770.0 0.00080199
11790.0 0.00076917
11810.0 0.00074053
11830.0 0.00071504
11850.0 0.00069155
11870.0 0.00067161
11890.0 0.00065456
11910.0 0.00063896
11930.0 0.0006247
11950.0 0.00061185
11970.0 0.00059939
11990.0 0.00058658
12010.0 0.00057384
12030.0 0.0005609
12050.0 0.00054711
12070.0 0.00053253
12090.0 0.00051835
12110.0 0.0005039
12130.0 0.0004893
12150.0 0.00047558
12170.0 0.00046315
12190.0 0.00045153
12210.0 0.00044191
12230.0 0.00043471
12250.0 0.00042984
12270.0 0.00042765
12290.0 0.00042828
12310.0 0.00043145
12330.0 0.00043754
12350.0 0.00044622
12370.0 0.00045672
12390.0 0.00046925
12410.0 0.00048426
12430.0 0.00049946
12450.0 0.00051506
12470.0 0.00053145
12490.0 0.00054755
12510.0 0.00056213
12530.0 0.00057617
12550.0 0.00058913
12570.0 0.00059983
12590.0 0.00060847
12610.0 0.00061543
12630.0 0.00061999
12650.0 0.00062194
12670.0 0.00062188
12690.0 0.00061966
12710.0 0.00061539
12730.0 0.00060939
12750.0 0.0006015
12770.0 0.00059217
12790.0 0.0005818
12810.0 0.0005702
12830.0 0.00055743
12850.0 0.00054436
12870.0 0.00053079
12890.0 0.0005163
12910.0 0.00050157
12930.0 0.00048691
12950.0 0.00047152
12970.0 0.00045561
12990.0 0.00044021
13010.0 0.00042469
13030.0 0.00040871
13050.0 0.00039302
13070.0 0.00037801
13090.0 0.00036274
13110.0 0.00034779
13130.0 0.00033383
13150.0 0.00032055
13170.0 0.00030757
13190.0 0.00029604
13210.0 0.00028595
13230.0 0.00027687
13250.0 0.00026919
13270.0 0.00026325
13290.0 0.00025877
13310.0 0.00025585
13330.0 0.00025464
13350.0 0.00025494
13370.0 0.0002568
13390.0 0.00026018
13410.0 0.00026449
13430.0 0.0002699
13450.0 0.00027635
13470.0 0.00028325
13490.0 0.0002903
13510.0 0.00029805
13530.0 0.00030564
13550.0 0.00031267
13570.0 0.0003194
13590.0 0.00032577
13610.0 0.00033122
13630.0 0.00033576
13650.0 0.00033973
13670.0 0.00034278
13690.0 0.00034484
13710.0 0.00034613
13730.0 0.00034664
13750.0 0.00034629
13770.0 0.00034524
13790.0 0.00034353
13810.0 0.00034121
13830.0 0.00033844
13850.0 0.00033512
13870.0 0.00033131
13890.0 0.0003272
13910.0 0.00032279
13930.0 0.00031792
13950.0 0.0003128
13970.0 0.00030771
13990.0 0.00030235
14010.0 0.0002968
14030.0 0.00029139
14050.0 0.00028607
14070.0 0.00028061
14090.0 0.00027549
14110.0 0.00027078
14130.0 0.00026633
14150.0 0.00026226
14170.0 0.00025888
14190.0 0.00025606
14210.0 0.00025379
14230.0 0.00025225
14250.0 0.0002514
14270.0 0.00025124
14290.0 0.00025184
14310.0 0.00025306
14330.0 0.0002549
14350.0 0.0002574
14370.0 0.00026039
14390.0 0.00026368
14410.0 0.0002675
14430.0 0.00027167
14450.0 0.00027591
14470.0 0.00028036
14490.0 0.0002852
14510.0 0.00028998
14530.0 0.00029473
14550.0 0.0002998
14570.0 0.00030507
14590.0 0.00031035
14610.0 0.00031601
14630.0 0.00032228
14650.0 0.0003288
14670.0 0.0003357
14690.0 0.00034343
14710.0 0.00035193
14730.0 0.00036056
14750.0 0.00037
14770.0 0.00038031
14790.0 0.00039088
14810.0 0.00040163
14830.0 0.0004134
14850.0 0.00042516
14870.0 0.00043647
14890.0 0.00044775
14910.0 0.00045881
14930.0 0.00046872
14950.0 0.00047742
14970.0 0.00048518
14990.0 0.00049132
15010.0 0.00049577
15030.0 0.00049887
15050.0 0.00050072
15070.0 0.00050145
15090.0 0.00050149
15110.0 0.00050105
15130.0 0.00050033
15150.0 0.0004995
15170.0 0.00049856
15190.0 0.00049756
15210.0 0.00049661
15230.0 0.00049566
15250.0 0.00049467
15270.0 0.0004937
15290.0 0.00049279
15310.0 0.00049185
15330.0 0.0004909
15350.0 0.00048999
15370.0 0.0004891
15390.0 0.00048814
15410.0 0.00048722
15430.0 0.00048634
15450.0 0.00048542
15470.0 0.00048448
15490.0 0.00048361
15510.0 0.00048274
15530.0 0.00048182
15550.0 0.00048092
15570.0 0.00048006
15590.0 0.00047915
15610.0 0.00047821
15630.0 0.00047734
15650.0 0.00047646
15670.0 0.00047554
15690.0 0.00047464
15710.0 0.00047378
15730.0 0.00047286
15750.0 0.00047193
15770.0 0.00047105
15790.0 0.00047015
15810.0 0.00046919
15830.0 0.00046827
15850.0 0.00046738
15870.0 0.00046644
15890.0 0.00046549
15910.0 0.00046459
15930.0 0.00046366
15950.0 0.00046267
15970.0 0.00046172
15990.0 0.00046078
16010.0 0.0004598
16030.0 0.00045879
16050.0 0.00045785
16070.0 0.00045687
16090.0 0.00045585
16110.0 0.00045486
16130.0 0.00045388
16150.0 0.00045282
16170.0 0.00045177
16190.0 0.00045077
16210.0 0.00044972
16230.0 0.00044864
16250.0 0.00044759
16270.0 0.00044656
16290.0 0.00044545
16310.0 0.00044435
16330.0 0.00044328
16350.0 0.00044217
16370.0 0.00044099
16390.0 0.00043989
16410.0 0.00043878
16430.0 0.00043761
16450.0 0.00043644
16470.0 0.00043532
16490.0 0.00043412
16510.0 0.0004329
16530.0 0.00043172
16550.0 0.00043053
16570.0 0.00042927
16590.0 0.00042802
16610.0 0.00042682
16630.0 0.00042556
16650.0 0.00042428
16670.0 0.00042303
16690.0 0.00042177
16710.0 0.00042042
16730.0 0.00041911
16750.0 0.00041783
16770.0 0.00041649
16790.0 0.00041512
16810.0 0.0004138
16830.0 0.00041246
16850.0 0.00041106
16870.0 0.00040968
16890.0 0.00040833
16910.0 0.0004069
16930.0 0.00040545
16950.0 0.00040406
16970.0 0.00040264
16990.0 0.00040117
17010.0 0.00039972
17030.0 0.0003983
17050.0 0.00039681
17070.0 0.00039531
17090.0 0.00039384
17110.0 0.00039235
17130.0 0.00039079
17150.0 0.00038928
17170.0 0.00038778
17190.0 0.00038623
17210.0 0.00038467
17230.0 0.00038315
17250.0 0.00038159
17270.0 0.00037998
17290.0 0.00037841
17310.0 0.00037684
17330.0 0.00037522
17350.0 0.00037358
17370.0 0.00037202
17390.0 0.0003704
17410.0 0.00036875
17430.0 0.00036712
17450.0 0.00036552
17470.0 0.00036382
17490.0 0.00036215
17510.0 0.00036051
17530.0 0.00035884
17550.0 0.00035714
17570.0 0.00035547
17590.0 0.00035382
17610.0 0.00035209
17630.0 0.00035039
17650.0 0.00034871
17670.0 0.000347
17690.0 0.00034522
17710.0 0.00034353
17730.0 0.00034183
17750.0 0.00034008
17770.0 0.00033834
17790.0 0.00033664
17810.0 0.00033488
17830.0 0.0003331
17850.0 0.00033137
17870.0 0.00032964
17890.0 0.00032784
17910.0 0.00032607
17930.0 0.00032435
17950.0 0.00032257
17970.0 0.00032078
17990.0 0.00031904
18010.0 0.00031729
18030.0 0.00031546
18050.0 0.00031368
18070.0 0.00031193
18090.0 0.00031014
18110.0 0.00030832
18130.0 0.00030657
18150.0 0.0003048
18170.0 0.00030299
18190.0 0.00030121
18210.0 0.00029946
18230.0 0.00029764
18250.0 0.00029582
18270.0 0.00029406
18290.0 0.00029228
18310.0 0.00029047
18330.0 0.00028869
18350.0 0.00028694
18370.0 0.00028513
18390.0 0.00028333
18410.0 0.00028157
18430.0 0.00027979
18450.0 0.00027796
18470.0 0.0002762
18490.0 0.00027445
18510.0 0.00027266
18530.0 0.00027087
18550.0 0.00026913
18570.0 0.00026736
18590.0 0.00026556
18610.0 0.0002638
18630.0 0.00026206
18650.0 0.00026028
18670.0 0.00025849
18690.0 0.00025678
18710.0 0.00025503
18730.0 0.00025326
18750.0 0.00025153
18770.0 0.00024982
18790.0 0.00024803
18810.0 0.00024628
18830.0 0.00024458
18850.0 0.00024285
18870.0 0.0002411
18890.0 0.0002394
18910.0 0.00023771
18930.0 0.00023598
18950.0 0.00023426
18970.0 0.00023259
18990.0 0.00023088
19010.0 0.00022914
19030.0 0.00022748
19050.0 0.00022581
19070.0 0.00022411
19090.0 0.00022243
19110.0 0.00022081
19130.0 0.00021912
19150.0 0.00021743
19170.0 0.0002158
19190.0 0.00021416
19210.0 0.00021248
19230.0 0.00021084
19250.0 0.00020924
19270.0 0.0002076
19290.0 0.00020596
19310.0 0.00020437
19330.0 0.00020277
19350.0 0.00020112
19370.0 0.00019952
19390.0 0.00019795
19410.0 0.00019635
19430.0 0.00019474
19450.0 0.00019319
19470.0 0.00019163
19490.0 0.00019004
19510.0 0.00018849
19530.0 0.00018696
19550.0 0.00018539
19570.0 0.00018381
19590.0 0.0001823
19610.0 0.00018078
19630.0 0.00017923
19650.0 0.00017772
19670.0 0.00017624
19690.0 0.00017471
19710.0 0.0001732
19730.0 0.00017172
19750.0 0.00017024
19770.0 0.00016871
19790.0 0.00016725
19810.0 0.0001658
19830.0 0.00016432
19850.0 0.00016284
19870.0 0.0001614
19890.0 0.00015989
19910.0 0.0001583
19930.0 0.00015668
19950.0 0.00015494
19970.0 0.00015295
19990.0 0.00015073
20010.0 0.00015133
20030.0 0.00014855
20050.0 0.00014546
20070.0 0.00014224
20090.0 0.0001389
20110.0 0.00013526
20130.0 0.00013169
20150.0 0.00012823
20170.0 0.00012474
20190.0 0.00012128
20210.0 0.00011807
20230.0 0.00011498
20250.0 0.00011195
20270.0 0.00010915
20290.0 0.00010662
20310.0 0.00010424
20330.0 0.00010204
20350.0 0.00010021
20370.0 9.8599e-05
20390.0 9.7203e-05
20410.0 9.609e-05
20430.0 9.5246e-05
20450.0 9.4613e-05
20470.0 9.423e-05
20490.0 9.4077e-05
20510.0 9.4127e-05
20530.0 9.4387e-05
20550.0 9.4816e-05
20570.0 9.5372e-05
20590.0 9.6093e-05
20610.0 9.6939e-05
20630.0 9.7845e-05
20650.0 9.8844e-05
20670.0 9.9974e-05
20690.0 0.0001011
20710.0 0.00010224
20730.0 0.00010346
20750.0 0.00010471
20770.0 0.0001059
20790.0 0.00010714
20810.0 0.00010843
20830.0 0.00010969
20850.0 0.00011093
20870.0 0.00011225
20890.0 0.00011359
20910.0 0.00011487
20930.0 0.00011619
20950.0 0.00011757
20970.0 0.00011891
20990.0 0.00012024
21010.0 0.00012165
21030.0 0.00012304
21050.0 0.00012436
21070.0 0.0001257
21090.0 0.00012706
21110.0 0.0001283
21130.0 0.00012948
21150.0 0.00013065
21170.0 0.00013173
21190.0 0.00013269
21210.0 0.00013359
21230.0 0.00013441
21250.0 0.00013507
21270.0 0.0001356
21290.0 0.00013602
21310.0 0.00013627
21330.0 0.00013635
21350.0 0.00013627
21370.0 0.000136
21390.0 0.00013554
21410.0 0.00013488
21430.0 0.00013397
21450.0 0.00013286
21470.0 0.00013158
21490.0 0.00013005
21510.0 0.0001283
21530.0 0.00012644
21550.0 0.00012442
21570.0 0.00012218
21590.0 0.00011988
21610.0 0.00011757
21630.0 0.00011516
21650.0 0.00011269
21670.0 0.00011043
21690.0 0.00010823
21710.0 0.00010609
21730.0 0.00010416
21750.0 0.00010248
21770.0 0.00010094
21790.0 9.9666e-05
21810.0 9.8697e-05
21830.0 9.7988e-05
21850.0 9.7554e-05
21870.0 9.742e-05
21890.0 9.7551e-05
21910.0 9.7961e-05
21930.0 9.8637e-05
21950.0 9.9522e-05
21970.0 0.00010064
21990.0 0.00010204
22010.0 0.00010356
22030.0 0.00010522
22050.0 0.00010707
22070.0 0.00010905
22090.0 0.00011102
22110.0 0.00011311
22130.0 0.0001153
22150.0 0.00011743
22170.0 0.00011953
22190.0 0.00012168
22210.0 0.00012376
22230.0 0.00012564
22250.0 0.00012746
22270.0 0.00012918
22290.0 0.00013067
22310.0 0.00013198
22330.0 0.00013315
22350.0 0.00013406
22370.0 0.00013472
22390.0 0.00013516
22410.0 0.00013533
22430.0 0.00013523
22450.0 0.00013487
22470.0 0.00013423
22490.0 0.00013332
22510.0 0.00013218
22530.0 0.00013074
22550.0 0.00012899
22570.0 0.00012707
22590.0 0.00012492
22610.0 0.00012246
22630.0 0.00011982
22650.0 0.0001171
22670.0 0.0001141
22690.0 0.0001109
22710.0 0.00010768
22730.0 0.00010436
22750.0 0.00010076
22770.0 9.7229e-05
22790.0 9.3781e-05
22810.0 9.0235e-05
22830.0 8.6694e-05
22850.0 8.3379e-05
22870.0 8.0131e-05
22890.0 7.6908e-05
22910.0 7.3953e-05
22930.0 7.1265e-05
22950.0 6.8733e-05
22970.0 6.6428e-05
22990.0 6.4566e-05
23010.0 6.2968e-05
23030.0 6.1669e-05
23050.0 6.075e-05
23070.0 6.0189e-05
