#lamb flux
1010.0 3.2901e-07
1030.0 3.5028e-07
1050.0 3.7485e-07
1070.0 4.0254e-07
1090.0 4.3401e-07
1110.0 4.6636e-07
1130.0 4.9901e-07
1150.0 5.3331e-07
1170.0 5.6878e-07
1190.0 6.0257e-07
1210.0 6.3694e-07
1230.0 6.7258e-07
1250.0 7.0767e-07
1270.0 7.4194e-07
1290.0 7.7826e-07
1310.0 8.1474e-07
1330.0 8.4997e-07
1350.0 8.8579e-07
1370.0 9.2293e-07
1390.0 9.5941e-07
1410.0 9.9508e-07
1430.0 1.0325e-06
1450.0 1.0702e-06
1470.0 1.1069e-06
1490.0 1.1442e-06
1510.0 1.1837e-06
1530.0 1.2214e-06
1550.0 1.2588e-06
1570.0 1.2976e-06
1590.0 1.3366e-06
1610.0 1.374e-06
1630.0 1.4126e-06
1650.0 1.4521e-06
1670.0 1.4904e-06
1690.0 1.5282e-06
1710.0 1.5672e-06
1730.0 1.6061e-06
1750.0 1.6426e-06
1770.0 1.6798e-06
1790.0 1.7174e-06
1810.0 1.7533e-06
1830.0 1.788e-06
1850.0 1.8244e-06
1870.0 1.8591e-06
1890.0 1.892e-06
1910.0 1.9247e-06
1930.0 1.9576e-06
1950.0 1.988e-06
1970.0 2.0171e-06
1990.0 2.0467e-06
2010.0 2.0748e-06
2030.0 2.1008e-06
2050.0 2.127e-06
2070.0 2.1532e-06
2090.0 2.1766e-06
2110.0 2.1992e-06
2130.0 2.2221e-06
2150.0 2.2437e-06
2170.0 2.2634e-06
2190.0 2.2838e-06
2210.0 2.304e-06
2230.0 2.3226e-06
2250.0 2.341e-06
2270.0 2.3607e-06
2290.0 2.3794e-06
2310.0 2.3969e-06
2330.0 2.4157e-06
2350.0 2.4351e-06
2370.0 2.4536e-06
2390.0 2.473e-06
2410.0 2.4946e-06
2430.0 2.5159e-06
2450.0 2.5375e-06
2470.0 2.5615e-06
2490.0 2.5887e-06
2510.0 2.6197e-06
2530.0 2.6634e-06
2550.0 2.7344e-06
2570.0 2.8487e-06
2590.0 3.0259e-06
2610.0 3.3143e-06
2630.0 3.7299e-06
2650.0 4.2545e-06
2670.0 4.897e-06
2690.0 5.6387e-06
2710.0 6.3855e-06
2730.0 7.0904e-06
2750.0 7.7652e-06
2770.0 8.354e-06
2790.0 8.8477e-06
2810.0 9.2889e-06
2830.0 9.7111e-06
2850.0 1.0096e-05
2870.0 1.0479e-05
2890.0 1.0885e-05
2910.0 1.1307e-05
2930.0 1.173e-05
2950.0 1.2183e-05
2970.0 1.2664e-05
2990.0 1.3148e-05
3010.0 4.6524e-05
3030.0 4.83e-05
3050.0 5.0068e-05
3070.0 5.1662e-05
3090.0 5.3013e-05
3110.0 5.3749e-05
3130.0 5.3431e-05
3150.0 5.1585e-05
3170.0 4.7258e-05
3190.0 4.0368e-05
3210.0 3.1044e-05
3230.0 2.0581e-05
3250.0 3.1552e-05
3270.0 1.9732e-05
3290.0 4.542e-05
3310.0 1.7905e-05
3330.0 1.7725e-05
3350.0 2.1228e-05
3370.0 2.5418e-05
3390.0 3e-05
3410.0 3.4591e-05
3430.0 3.943e-05
3450.0 4.4313e-05
3470.0 4.8819e-05
3490.0 5.1974e-05
3510.0 6.2409e-05
3530.0 8.0816e-05
3550.0 7.8725e-05
3570.0 6.4917e-05
3590.0 8.7873e-05
3610.0 5.6871e-05
3630.0 9.2611e-05
3650.0 0.00010787
3670.0 0.00013717
3690.0 0.00012736
3710.0 8.528e-05
3730.0 0.00011006
3750.0 0.0001127
3770.0 0.00012096
3790.0 0.00011737
3810.0 0.00012083
3830.0 0.00018991
3850.0 0.00023311
3870.0 0.00028746
3890.0 0.00027936
3910.0 0.00024968
3930.0 0.0002529
3950.0 0.00027317
3970.0 0.0003012
3990.0 0.00019313
4010.0 0.00010454
4030.0 0.00018591
4050.0 0.00024591
4070.0 0.00026307
4090.0 0.00018401
4110.0 0.00011647
4130.0 0.00019156
4150.0 0.00019557
4170.0 0.00018204
4190.0 0.00016518
4210.0 0.0002338
4230.0 0.00017225
4250.0 0.00018662
4270.0 0.0001854
4290.0 0.00017565
4310.0 0.00022517
4330.0 0.00024331
4350.0 0.00020273
4370.0 0.00017114
4390.0 0.00020858
4410.0 0.00021362
4430.0 0.00015707
4450.0 0.00014251
4470.0 0.00017613
4490.0 0.00013475
4510.0 0.00018809
4530.0 0.00019549
4550.0 0.00023199
4570.0 0.00032706
4590.0 0.00032344
4610.0 0.00025645
4630.0 0.00040927
4650.0 0.00054541
4670.0 0.00052013
4690.0 0.00036781
4710.0 0.00039003
4730.0 0.0004418
4750.0 0.00036395
4770.0 0.00027824
4790.0 0.00018778
4810.0 0.00025631
4830.0 0.00030187
4850.0 0.00026534
4870.0 0.00011155
4890.0 0.0003011
4910.0 0.00039476
4930.0 0.00042905
4950.0 0.0004421
4970.0 0.00031054
4990.0 0.00036139
5010.0 0.00041975
5030.0 0.00044992
5050.0 0.00042003
5070.0 0.00029702
5090.0 0.00024098
5110.0 0.00023296
5130.0 0.00022135
5150.0 0.00023056
5170.0 0.00020574
5190.0 0.00024528
5210.0 0.00024949
5230.0 0.0002773
5250.0 0.0003304
5270.0 0.00027488
5290.0 0.00028685
5310.0 0.00042309
5330.0 0.00048805
5350.0 0.00041104
5370.0 0.00037085
5390.0 0.00043179
5410.0 0.00051707
5430.0 0.00055276
5450.0 0.0005835
5470.0 0.00058949
5490.0 0.00060921
5510.0 0.00073179
5530.0 0.00076284
5550.0 0.00080833
5570.0 0.00085173
5590.0 0.00084011
5610.0 0.00078936
5630.0 0.00077339
5650.0 0.00080273
5670.0 0.00078714
5690.0 0.00067633
5710.0 0.00067143
5730.0 0.0006749
5750.0 0.00070434
5770.0 0.00060885
5790.0 0.00058294
5810.0 0.0005994
5830.0 0.00064928
5850.0 0.00060673
5870.0 0.00061191
5890.0 0.00071624
5910.0 0.00067072
5930.0 0.00055596
5950.0 0.00050411
5970.0 0.00055145
5990.0 0.00050262
6010.0 0.00046032
6030.0 0.00045141
6050.0 0.00041344
6070.0 0.00032036
6090.0 0.00030466
6110.0 0.00039085
6130.0 0.00043861
6150.0 0.00045304
6170.0 0.0004406
6190.0 0.00042023
6210.0 0.00043816
6230.0 0.00053172
6250.0 0.00049132
6270.0 0.00044174
6290.0 0.00040155
6310.0 0.0003637
6330.0 0.00033739
6350.0 0.00030155
6370.0 0.00030563
6390.0 0.00035564
6410.0 0.00044158
6430.0 0.00052197
6450.0 0.00052398
6470.0 0.00052982
6490.0 0.00064707
6510.0 0.00074288
6530.0 0.00070593
6550.0 0.00066981
6570.0 0.00067947
6590.0 0.00066968
6610.0 0.00070882
6630.0 0.00066098
6650.0 0.00057429
6670.0 0.00052977
6690.0 0.00052518
6710.0 0.00062165
6730.0 0.00055352
6750.0 0.00045527
6770.0 0.00041098
6790.0 0.00043663
6810.0 0.00050142
6830.0 0.00049908
6850.0 0.00044761
6870.0 0.00046361
6890.0 0.00046075
6910.0 0.00043302
6930.0 0.00048076
6950.0 0.00044721
6970.0 0.00041661
6990.0 0.0004153
7010.0 0.00041835
7030.0 0.00040636
7050.0 0.00038909
7070.0 0.00041733
7090.0 0.0003887
7110.0 0.00032957
7130.0 0.00028308
7150.0 0.00027799
7170.0 0.00035099
7190.0 0.00037211
7210.0 0.00035283
7230.0 0.00037107
7250.0 0.0003604
7270.0 0.00035156
7290.0 0.00038084
7310.0 0.00041747
7330.0 0.00040675
7350.0 0.00037737
7370.0 0.00034909
7390.0 0.00035014
7410.0 0.0004023
7430.0 0.00045297
7450.0 0.00048228
7470.0 0.00048918
7490.0 0.00054417
7510.0 0.00053724
7530.0 0.00048561
7550.0 0.00045891
7570.0 0.00039591
7590.0 0.00037627
7610.0 0.00036282
7630.0 0.00033364
7650.0 0.00035781
7670.0 0.00039572
7690.0 0.00043008
7710.0 0.00048989
7730.0 0.00051295
7750.0 0.00053204
7770.0 0.00055209
7790.0 0.00059784
7810.0 0.00060123
7830.0 0.00053864
7850.0 0.00053991
7870.0 0.00051898
7890.0 0.00053047
7910.0 0.00049877
7930.0 0.00049429
7950.0 0.00041436
7970.0 0.000415
7990.0 0.00040037
8010.0 0.00043423
8030.0 0.00043162
8050.0 0.00045766
8070.0 0.00043826
8090.0 0.00043924
8110.0 0.00043161
8130.0 0.00042585
8150.0 0.00039906
8170.0 0.00039068
8190.0 0.00038885
8210.0 0.00039181
8230.0 0.00034199
8250.0 0.00031201
8270.0 0.00027517
8290.0 0.00023346
8310.0 0.00020522
8330.0 0.00016221
8350.0 0.00013105
8370.0 0.00012626
8390.0 0.00012214
8410.0 0.00012756
8430.0 0.00016372
8450.0 0.00017793
8470.0 0.00019109
8490.0 0.00022314
8510.0 0.00024232
8530.0 0.00027495
8550.0 0.00032455
8570.0 0.00035574
8590.0 0.00037335
8610.0 0.00041378
8630.0 0.00046973
8650.0 0.00048084
8670.0 0.00048982
8690.0 0.0005072
8710.0 0.00049628
8730.0 0.00047959
8750.0 0.00044098
8770.0 0.00044016
8790.0 0.00043299
8810.0 0.00039733
8830.0 0.00039696
8850.0 0.00036277
8870.0 0.00034516
8890.0 0.00030856
8910.0 0.00034322
8930.0 0.00030978
8950.0 0.00030992
8970.0 0.0003158
8990.0 0.00030603
9010.0 0.00031397
9030.0 0.00029804
9050.0 0.0002966
9070.0 0.00029673
9090.0 0.0002968
9110.0 0.00029707
9130.0 0.00029705
9150.0 0.00029688
9170.0 0.0002959
9190.0 0.00029374
9210.0 0.00029839
9230.0 0.00029707
9250.0 0.00029631
9270.0 0.00029567
9290.0 0.0002951
9310.0 0.00029457
9330.0 0.00029405
9350.0 0.00029354
9370.0 0.000293
9390.0 0.00029244
9410.0 0.00029186
9430.0 0.00029127
9450.0 0.00029064
9470.0 0.00028999
9490.0 0.00028934
9510.0 0.00028866
9530.0 0.00028795
9550.0 0.00028725
9570.0 0.00028654
9590.0 0.00028581
9610.0 0.00028507
9630.0 0.00028434
9650.0 0.0002836
9670.0 0.00028284
9690.0 0.0002821
9710.0 0.00028136
9730.0 0.0002806
9750.0 0.00027985
9770.0 0.00027914
9790.0 0.0002784
9810.0 0.00027767
9830.0 0.00027696
9850.0 0.00027626
9870.0 0.00027555
9890.0 0.00027485
9910.0 0.00027419
9930.0 0.00027352
9950.0 0.00027244
9970.0 0.00027194
9990.0 0.00027144
10010.0 0.00027091
10030.0 0.00027037
10050.0 0.00026974
10070.0 0.00026859
10090.0 0.00026827
10110.0 0.00026794
10130.0 0.00026758
10150.0 0.00026719
10170.0 0.00026678
10190.0 0.00026635
10210.0 0.00026595
10230.0 0.00026556
10250.0 0.00026517
10270.0 0.00026481
10290.0 0.00026448
10310.0 0.00026415
10330.0 0.00026383
10350.0 0.00026355
10370.0 0.00026329
10390.0 0.00026303
10410.0 0.00026279
10430.0 0.0002626
10450.0 0.00026241
10470.0 0.00026222
10490.0 0.00026207
10510.0 0.00026194
10530.0 0.00026181
10550.0 0.0002617
10570.0 0.00026163
10590.0 0.00026156
10610.0 0.0002615
10630.0 0.00026147
10650.0 0.00026146
10670.0 0.00026144
10690.0 0.00026145
10710.0 0.00026149
10730.0 0.00026153
10750.0 0.00026157
10770.0 0.00026165
10790.0 0.00026174
10810.0 0.00026182
10830.0 0.00026192
10850.0 0.00026201
10870.0 0.00026205
10890.0 0.000262
10910.0 0.00026178
10930.0 0.00026125
10950.0 0.0002602
10970.0 0.00025852
10990.0 0.00025616
11010.0 0.00026059
11030.0 0.00025605
11050.0 0.00025071
11070.0 0.00024452
11090.0 0.00023735
11110.0 0.0002302
11130.0 0.00022304
11150.0 0.00021571
11170.0 0.00020859
11190.0 0.00020211
11210.0 0.00019586
11230.0 0.00018991
11250.0 0.00018464
11270.0 0.00017994
11290.0 0.00017554
11310.0 0.00017163
11330.0 0.00016833
11350.0 0.00016528
11370.0 0.00016245
11390.0 0.0001599
11410.0 0.0001575
11430.0 0.000155
11450.0 0.00015254
11470.0 0.00015007
11490.0 0.00014744
11510.0 0.00014458
11530.0 0.0001417
11550.0 0.00013872
11570.0 0.00013548
11590.0 0.00013217
11610.0 0.00012889
11630.0 0.00012544
11650.0 0.00012188
11670.0 0.0001185
11690.0 0.00011516
11710.0 0.00011176
11730.0 0.00010849
11750.0 0.00010545
11770.0 0.00010239
11790.0 9.9427e-05
11810.0 9.6686e-05
11830.0 9.407e-05
11850.0 9.1435e-05
11870.0 8.9e-05
11890.0 8.6747e-05
11910.0 8.4511e-05
11930.0 8.233e-05
11950.0 8.0307e-05
11970.0 7.8324e-05
11990.0 7.6305e-05
12010.0 7.4393e-05
12030.0 7.2574e-05
12050.0 7.0747e-05
12070.0 6.8942e-05
12090.0 6.7327e-05
12110.0 6.5774e-05
12130.0 6.4284e-05
12150.0 6.2965e-05
12170.0 6.1838e-05
12190.0 6.0822e-05
12210.0 6.0039e-05
12230.0 5.9522e-05
12250.0 5.9249e-05
12270.0 5.925e-05
12290.0 5.9547e-05
12310.0 6.0113e-05
12330.0 6.0981e-05
12350.0 6.2123e-05
12370.0 6.3463e-05
12390.0 6.5019e-05
12410.0 6.6824e-05
12430.0 6.8653e-05
12450.0 7.052e-05
12470.0 7.2455e-05
12490.0 7.4349e-05
12510.0 7.6089e-05
12530.0 7.7766e-05
12550.0 7.9333e-05
12570.0 8.069e-05
12590.0 8.1866e-05
12610.0 8.29e-05
12630.0 8.3741e-05
12650.0 8.4378e-05
12670.0 8.4869e-05
12690.0 8.5207e-05
12710.0 8.54e-05
12730.0 8.547e-05
12750.0 8.5411e-05
12770.0 8.5247e-05
12790.0 8.4997e-05
12810.0 8.4646e-05
12830.0 8.4185e-05
12850.0 8.3665e-05
12870.0 8.3064e-05
12890.0 8.2338e-05
12910.0 8.1526e-05
12930.0 8.065e-05
12950.0 7.9628e-05
12970.0 7.8469e-05
12990.0 7.7271e-05
13010.0 7.5976e-05
13030.0 7.4542e-05
13050.0 7.3057e-05
13070.0 7.1581e-05
13090.0 7.0004e-05
13110.0 6.8402e-05
13130.0 6.688e-05
13150.0 6.5401e-05
13170.0 6.392e-05
13190.0 6.2603e-05
13210.0 6.1458e-05
13230.0 6.042e-05
13250.0 5.9545e-05
13270.0 5.8881e-05
13290.0 5.8374e-05
13310.0 5.8019e-05
13330.0 5.7837e-05
13350.0 5.7788e-05
13370.0 5.7839e-05
13390.0 5.7966e-05
13410.0 5.8127e-05
13430.0 5.829e-05
13450.0 5.8423e-05
13470.0 5.8497e-05
13490.0 5.8495e-05
13510.0 5.8389e-05
13530.0 5.8177e-05
13550.0 5.7877e-05
13570.0 5.7482e-05
13590.0 5.6993e-05
13610.0 5.6461e-05
13630.0 5.5908e-05
13650.0 5.531e-05
13670.0 5.4717e-05
13690.0 5.4162e-05
13710.0 5.3625e-05
13730.0 5.31e-05
13750.0 5.2647e-05
13770.0 5.2234e-05
13790.0 5.1839e-05
13810.0 5.1472e-05
13830.0 5.1134e-05
13850.0 5.079e-05
13870.0 5.0433e-05
13890.0 5.0074e-05
13910.0 4.9699e-05
13930.0 4.9285e-05
13950.0 4.885e-05
13970.0 4.8417e-05
13990.0 4.7959e-05
14010.0 4.749e-05
14030.0 4.7041e-05
14050.0 4.6611e-05
14070.0 4.6185e-05
14090.0 4.5805e-05
14110.0 4.5474e-05
14130.0 4.5181e-05
14150.0 4.4934e-05
14170.0 4.4744e-05
14190.0 4.46e-05
14210.0 4.4502e-05
14230.0 4.4453e-05
14250.0 4.4448e-05
14270.0 4.4492e-05
14290.0 4.4587e-05
14310.0 4.4717e-05
14330.0 4.4891e-05
14350.0 4.5115e-05
14370.0 4.5371e-05
14390.0 4.5644e-05
14410.0 4.5958e-05
14430.0 4.6292e-05
14450.0 4.6621e-05
14470.0 4.6956e-05
14490.0 4.7311e-05
14510.0 4.7645e-05
14530.0 4.7962e-05
14550.0 4.8293e-05
14570.0 4.8632e-05
14590.0 4.8964e-05
14610.0 4.9327e-05
14630.0 4.9746e-05
14650.0 5.0197e-05
14670.0 5.0693e-05
14690.0 5.1282e-05
14710.0 5.1963e-05
14730.0 5.2674e-05
14750.0 5.3484e-05
14770.0 5.4402e-05
14790.0 5.5365e-05
14810.0 5.6359e-05
14830.0 5.7478e-05
14850.0 5.8606e-05
14870.0 5.9691e-05
14890.0 6.0776e-05
14910.0 6.184e-05
14930.0 6.2771e-05
14950.0 6.3562e-05
14970.0 6.4242e-05
14990.0 6.4733e-05
15010.0 6.5026e-05
15030.0 6.5159e-05
15050.0 6.5147e-05
15070.0 6.5004e-05
15090.0 6.4781e-05
15110.0 6.4502e-05
15130.0 6.4189e-05
15150.0 6.3863e-05
15170.0 6.3524e-05
15190.0 6.3179e-05
15210.0 6.2837e-05
15230.0 6.2496e-05
15250.0 6.215e-05
15270.0 6.1806e-05
15290.0 6.1469e-05
15310.0 6.1129e-05
15330.0 6.0787e-05
15350.0 6.0451e-05
15370.0 6.0116e-05
15390.0 5.9775e-05
15410.0 5.9439e-05
15430.0 5.9108e-05
15450.0 5.8775e-05
15470.0 5.8439e-05
15490.0 5.8112e-05
15510.0 5.7785e-05
15530.0 5.7455e-05
15550.0 5.7129e-05
15570.0 5.6808e-05
15590.0 5.6482e-05
15610.0 5.6156e-05
15630.0 5.5839e-05
15650.0 5.5521e-05
15670.0 5.5201e-05
15690.0 5.4886e-05
15710.0 5.4576e-05
15730.0 5.4262e-05
15750.0 5.3949e-05
15770.0 5.3643e-05
15790.0 5.3337e-05
15810.0 5.3026e-05
15830.0 5.2723e-05
15850.0 5.2424e-05
15870.0 5.2123e-05
15890.0 5.1823e-05
15910.0 5.153e-05
15930.0 5.1236e-05
15950.0 5.0939e-05
15970.0 5.0648e-05
15990.0 5.0361e-05
16010.0 5.0072e-05
16030.0 4.9783e-05
16050.0 4.9503e-05
16070.0 4.9222e-05
16090.0 4.8939e-05
16110.0 4.8662e-05
16130.0 4.8389e-05
16150.0 4.811e-05
16170.0 4.7835e-05
16190.0 4.7567e-05
16210.0 4.7298e-05
16230.0 4.7028e-05
16250.0 4.6764e-05
16270.0 4.6503e-05
16290.0 4.6239e-05
16310.0 4.5978e-05
16330.0 4.5723e-05
16350.0 4.5466e-05
16370.0 4.5206e-05
16390.0 4.4955e-05
16410.0 4.4706e-05
16430.0 4.4454e-05
16450.0 4.4206e-05
16470.0 4.3964e-05
16490.0 4.3718e-05
16510.0 4.3473e-05
16530.0 4.3233e-05
16550.0 4.2995e-05
16570.0 4.2754e-05
16590.0 4.2516e-05
16610.0 4.2286e-05
16630.0 4.2053e-05
16650.0 4.1819e-05
16670.0 4.1592e-05
16690.0 4.1366e-05
16710.0 4.1135e-05
16730.0 4.091e-05
16750.0 4.0689e-05
16770.0 4.0466e-05
16790.0 4.0242e-05
16810.0 4.0026e-05
16830.0 3.981e-05
16850.0 3.9591e-05
16870.0 3.9377e-05
16890.0 3.9167e-05
16910.0 3.8952e-05
16930.0 3.8738e-05
16950.0 3.8532e-05
16970.0 3.8325e-05
16990.0 3.8116e-05
17010.0 3.7911e-05
17030.0 3.7711e-05
17050.0 3.7506e-05
17070.0 3.7303e-05
17090.0 3.7105e-05
17110.0 3.6907e-05
17130.0 3.6705e-05
17150.0 3.6509e-05
17170.0 3.6317e-05
17190.0 3.6121e-05
17210.0 3.5927e-05
17230.0 3.5739e-05
17250.0 3.5549e-05
17270.0 3.5355e-05
17290.0 3.5168e-05
17310.0 3.4983e-05
17330.0 3.4794e-05
17350.0 3.4607e-05
17370.0 3.4427e-05
17390.0 3.4244e-05
17410.0 3.406e-05
17430.0 3.388e-05
17450.0 3.3704e-05
17470.0 3.352e-05
17490.0 3.3341e-05
17510.0 3.3167e-05
17530.0 3.2991e-05
17550.0 3.2813e-05
17570.0 3.2641e-05
17590.0 3.2471e-05
17610.0 3.2296e-05
17630.0 3.2124e-05
17650.0 3.1956e-05
17670.0 3.1787e-05
17690.0 3.1613e-05
17710.0 3.1447e-05
17730.0 3.1283e-05
17750.0 3.1115e-05
17770.0 3.0949e-05
17790.0 3.0789e-05
17810.0 3.0624e-05
17830.0 3.0458e-05
17850.0 3.0298e-05
17870.0 3.0139e-05
17890.0 2.9975e-05
17910.0 2.9814e-05
17930.0 2.966e-05
17950.0 2.9501e-05
17970.0 2.9342e-05
17990.0 2.9188e-05
18010.0 2.9035e-05
18030.0 2.8875e-05
18050.0 2.8721e-05
18070.0 2.857e-05
18090.0 2.8416e-05
18110.0 2.8262e-05
18130.0 2.8114e-05
18150.0 2.7965e-05
18170.0 2.7812e-05
18190.0 2.7664e-05
18210.0 2.7518e-05
18230.0 2.7368e-05
18250.0 2.7218e-05
18270.0 2.7074e-05
18290.0 2.6929e-05
18310.0 2.6782e-05
18330.0 2.6638e-05
18350.0 2.6498e-05
18370.0 2.6353e-05
18390.0 2.6209e-05
18410.0 2.6069e-05
18430.0 2.5929e-05
18450.0 2.5784e-05
18470.0 2.5645e-05
18490.0 2.5508e-05
18510.0 2.5368e-05
18530.0 2.5229e-05
18550.0 2.5095e-05
18570.0 2.4958e-05
18590.0 2.4818e-05
18610.0 2.4684e-05
18630.0 2.4551e-05
18650.0 2.4414e-05
18670.0 2.4278e-05
18690.0 2.4148e-05
18710.0 2.4016e-05
18730.0 2.3882e-05
18750.0 2.3751e-05
18770.0 2.3623e-05
18790.0 2.3489e-05
18810.0 2.3358e-05
18830.0 2.3231e-05
18850.0 2.3102e-05
18870.0 2.2971e-05
18890.0 2.2846e-05
18910.0 2.2721e-05
18930.0 2.2592e-05
18950.0 2.2465e-05
18970.0 2.2342e-05
18990.0 2.2217e-05
19010.0 2.2087e-05
19030.0 2.1966e-05
19050.0 2.1845e-05
19070.0 2.172e-05
19090.0 2.1597e-05
19110.0 2.1479e-05
19130.0 2.1356e-05
19150.0 2.1233e-05
19170.0 2.1114e-05
19190.0 2.0995e-05
19210.0 2.0873e-05
19230.0 2.0753e-05
19250.0 2.0638e-05
19270.0 2.0519e-05
19290.0 2.04e-05
19310.0 2.0286e-05
19330.0 2.0171e-05
19350.0 2.005e-05
19370.0 1.9935e-05
19390.0 1.9822e-05
19410.0 1.9706e-05
19430.0 1.9589e-05
19450.0 1.9479e-05
19470.0 1.9367e-05
19490.0 1.9251e-05
19510.0 1.9139e-05
19530.0 1.903e-05
19550.0 1.8916e-05
19570.0 1.8802e-05
19590.0 1.8694e-05
19610.0 1.8584e-05
19630.0 1.8472e-05
19650.0 1.8363e-05
19670.0 1.8257e-05
19690.0 1.8146e-05
19710.0 1.8036e-05
19730.0 1.7931e-05
19750.0 1.7823e-05
19770.0 1.7712e-05
19790.0 1.7607e-05
19810.0 1.7503e-05
19830.0 1.7395e-05
19850.0 1.7286e-05
19870.0 1.7181e-05
19890.0 1.7068e-05
19910.0 1.6944e-05
19930.0 1.6812e-05
19950.0 1.6664e-05
19970.0 1.6483e-05
19990.0 1.6269e-05
20010.0 1.6032e-05
20030.0 1.5752e-05
20050.0 1.5435e-05
20070.0 1.5104e-05
20090.0 1.4762e-05
20110.0 1.4393e-05
20130.0 1.4038e-05
20150.0 1.3705e-05
20170.0 1.3377e-05
20190.0 1.3062e-05
20210.0 1.2781e-05
20230.0 1.2521e-05
20250.0 1.2273e-05
20270.0 1.2057e-05
20290.0 1.187e-05
20310.0 1.1704e-05
20330.0 1.1562e-05
20350.0 1.1456e-05
20370.0 1.1375e-05
20390.0 1.132e-05
20410.0 1.1296e-05
20430.0 1.1299e-05
20450.0 1.1332e-05
20470.0 1.1395e-05
20490.0 1.1483e-05
20510.0 1.1599e-05
20530.0 1.1747e-05
20550.0 1.1916e-05
20570.0 1.21e-05
20590.0 1.231e-05
20610.0 1.2537e-05
20630.0 1.2767e-05
20650.0 1.3007e-05
20670.0 1.3262e-05
20690.0 1.3505e-05
20710.0 1.3738e-05
20730.0 1.3969e-05
20750.0 1.4187e-05
20770.0 1.4381e-05
20790.0 1.4562e-05
20810.0 1.473e-05
20830.0 1.4875e-05
20850.0 1.5003e-05
20870.0 1.512e-05
20890.0 1.5223e-05
20910.0 1.5311e-05
20930.0 1.5392e-05
20950.0 1.5466e-05
20970.0 1.5532e-05
20990.0 1.5592e-05
21010.0 1.5648e-05
21030.0 1.5696e-05
21050.0 1.5736e-05
21070.0 1.5767e-05
21090.0 1.5788e-05
21110.0 1.5797e-05
21130.0 1.5794e-05
21150.0 1.5779e-05
21170.0 1.5751e-05
21190.0 1.5712e-05
21210.0 1.5662e-05
21230.0 1.56e-05
21250.0 1.5532e-05
21270.0 1.5459e-05
21290.0 1.5378e-05
21310.0 1.5296e-05
21330.0 1.5216e-05
21350.0 1.5135e-05
21370.0 1.5055e-05
21390.0 1.4982e-05
21410.0 1.4914e-05
21430.0 1.4848e-05
21450.0 1.4793e-05
21470.0 1.4746e-05
21490.0 1.4707e-05
21510.0 1.4676e-05
21530.0 1.4655e-05
21550.0 1.4643e-05
21570.0 1.464e-05
21590.0 1.4648e-05
21610.0 1.4664e-05
21630.0 1.4691e-05
21650.0 1.4729e-05
21670.0 1.4775e-05
21690.0 1.4832e-05
21710.0 1.4902e-05
21730.0 1.4982e-05
21750.0 1.5069e-05
21770.0 1.5174e-05
21790.0 1.5289e-05
21810.0 1.5412e-05
21830.0 1.5547e-05
21850.0 1.5698e-05
21870.0 1.5856e-05
21890.0 1.6017e-05
21910.0 1.6194e-05
21930.0 1.6379e-05
21950.0 1.6563e-05
21970.0 1.6755e-05
21990.0 1.696e-05
22010.0 1.7156e-05
22030.0 1.7349e-05
22050.0 1.7546e-05
22070.0 1.7737e-05
22090.0 1.7912e-05
22110.0 1.8082e-05
22130.0 1.8243e-05
22150.0 1.8384e-05
22170.0 1.8506e-05
22190.0 1.8613e-05
22210.0 1.8697e-05
22230.0 1.8753e-05
22250.0 1.8785e-05
22270.0 1.879e-05
22290.0 1.8767e-05
22310.0 1.8717e-05
22330.0 1.8634e-05
22350.0 1.8522e-05
22370.0 1.8385e-05
22390.0 1.8217e-05
22410.0 1.8016e-05
22430.0 1.7799e-05
22450.0 1.7562e-05
22470.0 1.7296e-05
22490.0 1.7014e-05
22510.0 1.6727e-05
22530.0 1.6415e-05
22550.0 1.6088e-05
22570.0 1.5768e-05
22590.0 1.5445e-05
22610.0 1.5109e-05
22630.0 1.478e-05
