#lamb flux
1010.0 4.8933e-08
1030.0 5.412e-08
1050.0 6.0087e-08
1070.0 6.6803e-08
1090.0 7.4432e-08
1110.0 8.2256e-08
1130.0 9.0131e-08
1150.0 9.838e-08
1170.0 1.0689e-07
1190.0 1.1496e-07
1210.0 1.2314e-07
1230.0 1.3159e-07
1250.0 1.3987e-07
1270.0 1.4791e-07
1290.0 1.564e-07
1310.0 1.6489e-07
1330.0 1.7304e-07
1350.0 1.8127e-07
1370.0 1.8977e-07
1390.0 1.9806e-07
1410.0 2.061e-07
1430.0 2.1451e-07
1450.0 2.2292e-07
1470.0 2.3104e-07
1490.0 2.3926e-07
1510.0 2.4793e-07
1530.0 2.5616e-07
1550.0 2.6427e-07
1570.0 2.7266e-07
1590.0 2.8107e-07
1610.0 2.891e-07
1630.0 2.9739e-07
1650.0 3.0589e-07
1670.0 3.1413e-07
1690.0 3.2226e-07
1710.0 3.3071e-07
1730.0 3.3921e-07
1750.0 3.4722e-07
1770.0 3.5547e-07
1790.0 3.639e-07
1810.0 3.7206e-07
1830.0 3.801e-07
1850.0 3.8864e-07
1870.0 3.9697e-07
1890.0 4.0504e-07
1910.0 4.1328e-07
1930.0 4.2174e-07
1950.0 4.2984e-07
1970.0 4.3785e-07
1990.0 4.4619e-07
2010.0 4.5441e-07
2030.0 4.6235e-07
2050.0 4.7055e-07
2070.0 4.7898e-07
2090.0 4.8695e-07
2110.0 4.9491e-07
2130.0 5.0313e-07
2150.0 5.1121e-07
2170.0 5.1895e-07
2190.0 5.27e-07
2210.0 5.3512e-07
2230.0 5.4292e-07
2250.0 5.5069e-07
2270.0 5.5883e-07
2290.0 5.6672e-07
2310.0 5.7431e-07
2330.0 5.8221e-07
2350.0 5.9032e-07
2370.0 5.9839e-07
2390.0 6.0713e-07
2410.0 6.1749e-07
2430.0 6.2941e-07
2450.0 6.4365e-07
2470.0 6.619e-07
2490.0 6.8491e-07
2510.0 7.1105e-07
2530.0 7.4252e-07
2550.0 7.8192e-07
2570.0 8.3093e-07
2590.0 8.9468e-07
2610.0 9.9013e-07
2630.0 1.1264e-06
2650.0 1.3046e-06
2670.0 1.535e-06
2690.0 1.8181e-06
2710.0 2.1203e-06
2730.0 2.4189e-06
2750.0 2.713e-06
2770.0 2.9688e-06
2790.0 3.172e-06
2810.0 3.3332e-06
2830.0 3.4591e-06
2850.0 3.5451e-06
2870.0 3.6082e-06
2890.0 3.6582e-06
2910.0 3.6981e-06
2930.0 3.7307e-06
2950.0 3.7618e-06
2970.0 3.7922e-06
2990.0 3.8207e-06
3010.0 0.00010799
3030.0 0.0001088
3050.0 0.00010958
3070.0 0.00011025
3090.0 0.00011082
3110.0 0.00011118
3130.0 0.00011117
3150.0 0.00011067
3170.0 0.00010949
3190.0 0.00010763
3210.0 0.00010527
3230.0 0.00010256
3250.0 9.9896e-05
3270.0 9.7947e-05
3290.0 9.6865e-05
3310.0 9.704e-05
3330.0 9.8445e-05
3350.0 0.00010089
3370.0 0.00010438
3390.0 0.00010878
3410.0 0.00011357
3430.0 0.00011895
3450.0 0.00012514
3470.0 0.0001319
3490.0 0.00013906
3510.0 0.00014716
3530.0 0.00015583
3550.0 0.00016461
3570.0 0.00017377
3590.0 0.00018373
3610.0 0.00019399
3630.0 0.00020422
3650.0 0.00021483
3670.0 0.00022452
3690.0 0.00023177
3710.0 0.00023592
3730.0 0.00023606
3750.0 0.00023277
3770.0 0.00023148
3790.0 0.00023011
3810.0 0.00022445
3830.0 0.0002314
3850.0 0.00025873
3870.0 0.00027373
3890.0 0.00027248
3910.0 0.00027365
3930.0 0.00028085
3950.0 0.00028529
3970.0 0.00025992
3990.0 0.00022365
4010.0 0.00067031
4030.0 0.00081218
4050.0 0.00093111
4070.0 0.00080789
4090.0 0.00073171
4110.0 0.00064566
4130.0 0.00059427
4150.0 0.00063212
4170.0 0.00062266
4190.0 0.00066371
4210.0 0.00065764
4230.0 0.00069561
4250.0 0.00082292
4270.0 0.0008326
4290.0 0.00076723
4310.0 0.00079721
4330.0 0.00084799
4350.0 0.0009508
4370.0 0.001082
4390.0 0.0010154
4410.0 0.00075019
4430.0 0.00063508
4450.0 0.00058356
4470.0 0.00044791
4490.0 0.00048335
4510.0 0.0007301
4530.0 0.00084203
4550.0 0.00084933
4570.0 0.00095572
4590.0 0.0010887
4610.0 0.0014683
4630.0 0.0019071
4650.0 0.0020682
4670.0 0.0019153
4690.0 0.0018276
4710.0 0.0019319
4730.0 0.0018231
4750.0 0.001363
4770.0 0.00099983
4790.0 0.00093365
4810.0 0.00088991
4830.0 0.00081471
4850.0 0.000894
4870.0 0.0011811
4890.0 0.0013928
4910.0 0.001222
4930.0 0.0010813
4950.0 0.001188
4970.0 0.0015235
4990.0 0.0020647
5010.0 0.0023752
5030.0 0.0020944
5050.0 0.001417
5070.0 0.00093384
5090.0 0.000753
5110.0 0.00077439
5130.0 0.00089377
5150.0 0.00096833
5170.0 0.0009538
5190.0 0.00089127
5210.0 0.00093157
5230.0 0.00097929
5250.0 0.0010554
5270.0 0.0011387
5290.0 0.0012619
5310.0 0.0014688
5330.0 0.0016254
5350.0 0.0016151
5370.0 0.0016965
5390.0 0.0019467
5410.0 0.001945
5430.0 0.00172
5450.0 0.0015803
5470.0 0.001678
5490.0 0.0020501
5510.0 0.0025633
5530.0 0.00294
5550.0 0.0028415
5570.0 0.0025831
5590.0 0.0022461
5610.0 0.0020714
5630.0 0.0020086
5650.0 0.001913
5670.0 0.0018127
5690.0 0.0016205
5710.0 0.00158
5730.0 0.0014555
5750.0 0.0010262
5770.0 0.00080059
5790.0 0.00090724
5810.0 0.0010244
5830.0 0.0012571
5850.0 0.0014964
5870.0 0.0016603
5890.0 0.0016884
5910.0 0.0016565
5930.0 0.0015768
5950.0 0.0016067
5970.0 0.0018315
5990.0 0.0017221
6010.0 0.0014436
6030.0 0.0012196
6050.0 0.0010621
6070.0 0.0010563
6090.0 0.0011454
6110.0 0.0012808
6130.0 0.0013004
6150.0 0.0011189
6170.0 0.00098425
6190.0 0.0011076
6210.0 0.0014643
6230.0 0.0019215
6250.0 0.0020813
6270.0 0.0018188
6290.0 0.0015302
6310.0 0.0011946
6330.0 0.0009153
6350.0 0.00081642
6370.0 0.00085855
6390.0 0.00099254
6410.0 0.0012238
6430.0 0.0014291
6450.0 0.0016353
6470.0 0.0018724
6490.0 0.0022618
6510.0 0.002529
6530.0 0.0024811
6550.0 0.0022435
6570.0 0.0019046
6590.0 0.0017174
6610.0 0.0014808
6630.0 0.0013416
6650.0 0.0012682
6670.0 0.001232
6690.0 0.0011132
6710.0 0.0010119
6730.0 0.00072886
6750.0 0.00072259
6770.0 0.0007854
6790.0 0.00090276
6810.0 0.00082605
6830.0 0.0008506
6850.0 0.00079558
6870.0 0.00072676
6890.0 0.0006978
6910.0 0.0007436
6930.0 0.00069649
6950.0 0.00071657
6970.0 0.0007537
6990.0 0.00085551
7010.0 0.0008628
7030.0 0.0008765
7050.0 0.00083589
7070.0 0.00079645
7090.0 0.00079878
7110.0 0.00082189
7130.0 0.00088448
7150.0 0.00093938
7170.0 0.0010365
7190.0 0.0011395
7210.0 0.0011197
7230.0 0.001151
7250.0 0.001237
7270.0 0.001348
7290.0 0.0015999
7310.0 0.0017361
7330.0 0.0016781
7350.0 0.0015177
7370.0 0.0013205
7390.0 0.0012811
7410.0 0.0013614
7430.0 0.001513
7450.0 0.001648
7470.0 0.0016328
7490.0 0.0014888
7510.0 0.0016865
7530.0 0.001668
7550.0 0.0014992
7570.0 0.0011712
7590.0 0.00080515
7610.0 0.00069107
7630.0 0.00078518
7650.0 0.00092838
7670.0 0.0011554
7690.0 0.0012715
7710.0 0.001325
7730.0 0.0013924
7750.0 0.0015632
7770.0 0.0015878
7790.0 0.0014584
7810.0 0.0013307
7830.0 0.0013723
7850.0 0.001334
7870.0 0.0012231
7890.0 0.0010276
7910.0 0.0008353
7930.0 0.00079759
7950.0 0.00072663
7970.0 0.00067263
7990.0 0.00066879
8010.0 4.9533e-05
8030.0 4.8889e-05
8050.0 4.823e-05
8070.0 4.8862e-05
8090.0 5.2501e-05
8110.0 5.1606e-05
8130.0 4.2569e-05
8150.0 4.1457e-05
8170.0 3.5709e-05
8190.0 3.3842e-05
8210.0 4.3948e-05
8230.0 4.893e-05
8250.0 4.41e-05
8270.0 3.8383e-05
8290.0 3.7417e-05
8310.0 2.8798e-05
8330.0 1.941e-05
8350.0 1.3775e-05
8370.0 8.6787e-06
8390.0 1.5865e-05
8410.0 1.8487e-05
8430.0 2.2788e-05
8450.0 2.6759e-05
8470.0 3.326e-05
8490.0 3.3025e-05
8510.0 3.2485e-05
8530.0 3.3903e-05
8550.0 4.5742e-05
8570.0 5.4152e-05
8590.0 5.843e-05
8610.0 7.381e-05
8630.0 8.8915e-05
8650.0 9.3014e-05
8670.0 9.8846e-05
8690.0 9.9401e-05
8710.0 9.0021e-05
8730.0 8.3734e-05
8750.0 7.3911e-05
8770.0 7.0131e-05
8790.0 6.89e-05
8810.0 6.6021e-05
8830.0 5.2794e-05
8850.0 3.8649e-05
8870.0 2.9593e-05
8890.0 2.8932e-05
8910.0 3.3157e-05
8930.0 3.7714e-05
8950.0 3.8436e-05
8970.0 3.8618e-05
8990.0 3.4443e-05
9010.0 0.00036094
9030.0 0.00032705
9050.0 0.00032863
9070.0 0.00033123
9090.0 0.0003335
9110.0 0.00033631
9130.0 0.00033848
9150.0 0.00034017
9170.0 0.00034196
9190.0 0.00034388
9210.0 0.0003459
9230.0 0.00034803
9250.0 0.0003502
9270.0 0.00035244
9290.0 0.00035476
9310.0 0.00035709
9330.0 0.00035946
9350.0 0.00036193
9370.0 0.00036442
9390.0 0.00036694
9410.0 0.00036953
9430.0 0.0003722
9450.0 0.00037485
9470.0 0.00037757
9490.0 0.00038036
9510.0 0.00038318
9530.0 0.00038602
9550.0 0.00038896
9570.0 0.00039195
9590.0 0.00039494
9610.0 0.00039799
9630.0 0.00040112
9650.0 0.00040428
9670.0 0.00040744
9690.0 0.00041069
9710.0 0.00041399
9730.0 0.00041729
9750.0 0.00042065
9770.0 0.0004241
9790.0 0.00042755
9810.0 0.00043101
9830.0 0.00043455
9850.0 0.00043814
9870.0 0.00044171
9890.0 0.00044534
9910.0 0.00044903
9930.0 0.00045273
9950.0 0.00045644
9970.0 0.00046023
9990.0 0.00046405
10010.0 0.00040268
10030.0 0.00040598
10050.0 0.00040936
10070.0 0.00041284
10090.0 0.00041613
10110.0 0.0004195
10130.0 0.00042289
10150.0 0.00042626
10170.0 0.00042967
10190.0 0.00043314
10210.0 0.00043657
10230.0 0.00044
10250.0 0.00044347
10270.0 0.00044694
10290.0 0.00045037
10310.0 0.00045385
10330.0 0.00045736
10350.0 0.00046081
10370.0 0.00046424
10390.0 0.00046772
10410.0 0.00047118
10430.0 0.00047457
10450.0 0.000478
10470.0 0.00048144
10490.0 0.00048481
10510.0 0.00048817
10530.0 0.00049158
10550.0 0.00049493
10570.0 0.00049821
10590.0 0.00050152
10610.0 0.00050481
10630.0 0.00050803
10650.0 0.00051122
10670.0 0.00051444
10690.0 0.0005176
10710.0 0.00052069
10730.0 0.00052379
10750.0 0.0005269
10770.0 0.00052988
10790.0 0.00053283
10810.0 0.00053578
10830.0 0.00053864
10850.0 0.00054135
10870.0 0.00054398
10890.0 0.00054629
10910.0 0.00054807
10930.0 0.00054908
10950.0 0.00054885
10970.0 0.00054699
10990.0 0.00054334
11010.0 0.00053723
11030.0 0.00052869
11050.0 0.00051827
11070.0 0.00050582
11090.0 0.00049085
11110.0 0.00047537
11130.0 0.00045923
11150.0 0.00044184
11170.0 0.00042392
11190.0 0.00040654
11210.0 0.00038858
11230.0 0.00037017
11250.0 0.00035258
11270.0 0.00033569
11290.0 0.00031877
11310.0 0.00030274
11330.0 0.00028862
11350.0 0.00027528
11370.0 0.00026296
11390.0 0.00025229
11410.0 0.00024297
11430.0 0.0002343
11450.0 0.00022683
11470.0 0.00022037
11490.0 0.00021436
11510.0 0.00020857
11530.0 0.0002032
11550.0 0.00019786
11570.0 0.00019217
11590.0 0.00018627
11610.0 0.00018027
11630.0 0.00017374
11650.0 0.00016674
11670.0 0.00015985
11690.0 0.00015286
11710.0 0.00014565
11730.0 0.00013866
11750.0 0.0001322
11770.0 0.00012585
11790.0 0.00011991
11810.0 0.00011468
11830.0 0.00011
11850.0 0.00010569
11870.0 0.00010209
11890.0 9.9089e-05
11910.0 9.6455e-05
11930.0 9.4191e-05
11950.0 9.2306e-05
11970.0 9.0622e-05
11990.0 8.9031e-05
12010.0 8.7558e-05
12030.0 8.6139e-05
12050.0 8.4672e-05
12070.0 8.3146e-05
12090.0 8.1674e-05
12110.0 8.0181e-05
12130.0 7.8684e-05
12150.0 7.7305e-05
12170.0 7.6101e-05
12190.0 7.5059e-05
12210.0 7.4332e-05
12230.0 7.3981e-05
12250.0 7.4038e-05
12270.0 7.4596e-05
12290.0 7.5651e-05
12310.0 7.7165e-05
12330.0 7.9283e-05
12350.0 8.1926e-05
12370.0 8.4936e-05
12390.0 8.8406e-05
12410.0 9.2472e-05
12430.0 9.6604e-05
12450.0 0.00010088
12470.0 0.00010543
12490.0 0.00011
12510.0 0.00011429
12530.0 0.00011856
12550.0 0.00012267
12570.0 0.0001263
12590.0 0.00012949
12610.0 0.00013233
12630.0 0.0001346
12650.0 0.00013616
12670.0 0.00013719
12690.0 0.0001376
12710.0 0.00013738
12730.0 0.00013658
12750.0 0.00013516
12770.0 0.00013321
12790.0 0.00013084
12810.0 0.00012802
12830.0 0.00012475
12850.0 0.00012134
12870.0 0.00011773
12890.0 0.00011382
12910.0 0.00010985
12930.0 0.00010593
12950.0 0.00010184
12970.0 9.7685e-05
12990.0 9.375e-05
13010.0 8.9864e-05
13030.0 8.5935e-05
13050.0 8.216e-05
13070.0 7.8626e-05
13090.0 7.5078e-05
13110.0 7.1645e-05
13130.0 6.8481e-05
13150.0 6.5484e-05
13170.0 6.255e-05
13190.0 5.9939e-05
13210.0 5.764e-05
13230.0 5.554e-05
13250.0 5.3731e-05
13270.0 5.2304e-05
13290.0 5.1194e-05
13310.0 5.043e-05
13330.0 5.0082e-05
13350.0 5.0122e-05
13370.0 5.0571e-05
13390.0 5.1455e-05
13410.0 5.2648e-05
13430.0 5.42e-05
13450.0 5.6116e-05
13470.0 5.8243e-05
13490.0 6.0497e-05
13510.0 6.3038e-05
13530.0 6.5614e-05
13550.0 6.808e-05
13570.0 7.0511e-05
13590.0 7.2881e-05
13610.0 7.4989e-05
13630.0 7.6829e-05
13650.0 7.8509e-05
13670.0 7.9904e-05
13690.0 8.0982e-05
13710.0 8.1817e-05
13730.0 8.2412e-05
13750.0 8.271e-05
13770.0 8.2778e-05
13790.0 8.2628e-05
13810.0 8.2262e-05
13830.0 8.1724e-05
13850.0 8.0993e-05
13870.0 8.0073e-05
13890.0 7.902e-05
13910.0 7.7833e-05
13930.0 7.6459e-05
13950.0 7.4959e-05
13970.0 7.3425e-05
13990.0 7.1755e-05
14010.0 6.9979e-05
14030.0 6.8207e-05
14050.0 6.6422e-05
14070.0 6.4537e-05
14090.0 6.2731e-05
14110.0 6.1033e-05
14130.0 5.9388e-05
14150.0 5.7839e-05
14170.0 5.6518e-05
14190.0 5.5375e-05
14210.0 5.4405e-05
14230.0 5.3687e-05
14250.0 5.3223e-05
14270.0 5.2998e-05
14290.0 5.3046e-05
14310.0 5.3342e-05
14330.0 5.3873e-05
14350.0 5.4654e-05
14370.0 5.5628e-05
14390.0 5.6733e-05
14410.0 5.8035e-05
14430.0 5.9465e-05
14450.0 6.0925e-05
14470.0 6.244e-05
14490.0 6.4051e-05
14510.0 6.5592e-05
14530.0 6.7055e-05
14550.0 6.8518e-05
14570.0 6.9922e-05
14590.0 7.12e-05
14610.0 7.2437e-05
14630.0 7.366e-05
14650.0 7.48e-05
14670.0 7.59e-05
14690.0 7.7047e-05
14710.0 7.8254e-05
14730.0 7.946e-05
14750.0 8.0796e-05
14770.0 8.2312e-05
14790.0 8.3956e-05
14810.0 8.5736e-05
14830.0 8.7846e-05
14850.0 9.0139e-05
14870.0 9.2531e-05
14890.0 9.5113e-05
14910.0 9.7854e-05
14930.0 0.00010049
14950.0 0.00010295
14970.0 0.00010528
14990.0 0.00010724
15010.0 0.00010874
15030.0 0.00010984
15050.0 0.00011058
15070.0 0.00011093
15090.0 0.00011106
15110.0 0.00011102
15130.0 0.00011088
15150.0 0.00011069
15170.0 0.00011047
15190.0 0.00011024
15210.0 0.00011
15230.0 0.00010977
15250.0 0.00010952
15270.0 0.00010929
15290.0 0.00010906
15310.0 0.00010883
15330.0 0.00010859
15350.0 0.00010836
15370.0 0.00010814
15390.0 0.0001079
15410.0 0.00010767
15430.0 0.00010745
15450.0 0.00010723
15470.0 0.000107
15490.0 0.00010678
15510.0 0.00010656
15530.0 0.00010634
15550.0 0.00010612
15570.0 0.0001059
15590.0 0.00010568
15610.0 0.00010546
15630.0 0.00010525
15650.0 0.00010503
15670.0 0.00010481
15690.0 0.0001046
15710.0 0.00010439
15730.0 0.00010418
15750.0 0.00010396
15770.0 0.00010375
15790.0 0.00010354
15810.0 0.00010332
15830.0 0.00010311
15850.0 0.00010291
15870.0 0.0001027
15890.0 0.00010248
15910.0 0.00010228
15930.0 0.00010207
15950.0 0.00010186
15970.0 0.00010165
15990.0 0.00010145
16010.0 0.00010124
16030.0 0.00010103
16050.0 0.00010083
16070.0 0.00010062
16090.0 0.00010041
16110.0 0.0001002
16130.0 0.00010001
16150.0 9.9791e-05
16170.0 9.9581e-05
16190.0 9.938e-05
16210.0 9.9174e-05
16230.0 9.8962e-05
16250.0 9.8758e-05
16270.0 9.8558e-05
16290.0 9.8347e-05
16310.0 9.8139e-05
16330.0 9.7938e-05
16350.0 9.7731e-05
16370.0 9.7513e-05
16390.0 9.7311e-05
16410.0 9.7108e-05
16430.0 9.6896e-05
16450.0 9.6687e-05
16470.0 9.6487e-05
16490.0 9.6276e-05
16510.0 9.6062e-05
16530.0 9.5857e-05
16550.0 9.5651e-05
16570.0 9.5435e-05
16590.0 9.5222e-05
16610.0 9.5019e-05
16630.0 9.4808e-05
16650.0 9.4593e-05
16670.0 9.4387e-05
16690.0 9.418e-05
16710.0 9.3959e-05
16730.0 9.3745e-05
16750.0 9.3538e-05
16770.0 9.3322e-05
16790.0 9.3103e-05
16810.0 9.2894e-05
16830.0 9.2683e-05
16850.0 9.2463e-05
16870.0 9.2247e-05
16890.0 9.2038e-05
16910.0 9.1816e-05
16930.0 9.1592e-05
16950.0 9.138e-05
16970.0 9.1164e-05
16990.0 9.094e-05
17010.0 9.0721e-05
17030.0 9.0509e-05
17050.0 9.0284e-05
17070.0 9.006e-05
17090.0 8.9843e-05
17110.0 8.9622e-05
17130.0 8.9391e-05
17150.0 8.9169e-05
17170.0 8.8951e-05
17190.0 8.8724e-05
17210.0 8.8496e-05
17230.0 8.8278e-05
17250.0 8.8052e-05
17270.0 8.7818e-05
17290.0 8.7592e-05
17310.0 8.7369e-05
17330.0 8.7136e-05
17350.0 8.6902e-05
17370.0 8.668e-05
17390.0 8.6451e-05
17410.0 8.6215e-05
17430.0 8.5987e-05
17450.0 8.5761e-05
17470.0 8.552e-05
17490.0 8.5284e-05
17510.0 8.5056e-05
17530.0 8.4822e-05
17550.0 8.4581e-05
17570.0 8.435e-05
17590.0 8.412e-05
17610.0 8.3878e-05
17630.0 8.364e-05
17650.0 8.3408e-05
17670.0 8.3169e-05
17690.0 8.292e-05
17710.0 8.2686e-05
17730.0 8.2451e-05
17750.0 8.2206e-05
17770.0 8.1965e-05
17790.0 8.1732e-05
17810.0 8.1487e-05
17830.0 8.1239e-05
17850.0 8.1e-05
17870.0 8.076e-05
17890.0 8.051e-05
17910.0 8.0263e-05
17930.0 8.0026e-05
17950.0 7.978e-05
17970.0 7.9531e-05
17990.0 7.929e-05
18010.0 7.9048e-05
18030.0 7.8791e-05
18050.0 7.8544e-05
18070.0 7.8302e-05
18090.0 7.8051e-05
18110.0 7.7797e-05
18130.0 7.7555e-05
18150.0 7.7309e-05
18170.0 7.7054e-05
18190.0 7.6805e-05
18210.0 7.656e-05
18230.0 7.6305e-05
18250.0 7.6047e-05
18270.0 7.5801e-05
18290.0 7.5552e-05
18310.0 7.5294e-05
18330.0 7.5044e-05
18350.0 7.4798e-05
18370.0 7.454e-05
18390.0 7.4284e-05
18410.0 7.4035e-05
18430.0 7.3783e-05
18450.0 7.3519e-05
18470.0 7.3267e-05
18490.0 7.3018e-05
18510.0 7.276e-05
18530.0 7.2503e-05
18550.0 7.2255e-05
18570.0 7.1999e-05
18590.0 7.1736e-05
18610.0 7.1482e-05
18630.0 7.123e-05
18650.0 7.0969e-05
18670.0 7.0708e-05
18690.0 7.0459e-05
18710.0 7.0203e-05
18730.0 6.9941e-05
18750.0 6.9687e-05
18770.0 6.9436e-05
18790.0 6.9169e-05
18810.0 6.8909e-05
18830.0 6.8658e-05
18850.0 6.8399e-05
18870.0 6.8136e-05
18890.0 6.7882e-05
18910.0 6.7629e-05
18930.0 6.7366e-05
18950.0 6.7106e-05
18970.0 6.6854e-05
18990.0 6.6594e-05
19010.0 6.6325e-05
19030.0 6.6073e-05
19050.0 6.5818e-05
19070.0 6.5555e-05
19090.0 6.5296e-05
19110.0 6.5046e-05
19130.0 6.4783e-05
19150.0 6.452e-05
19170.0 6.4265e-05
19190.0 6.4009e-05
19210.0 6.3743e-05
19230.0 6.3483e-05
19250.0 6.3232e-05
19270.0 6.2972e-05
19290.0 6.271e-05
19310.0 6.2457e-05
19330.0 6.2201e-05
19350.0 6.1933e-05
19370.0 6.1676e-05
19390.0 6.1422e-05
19410.0 6.1161e-05
19430.0 6.0898e-05
19450.0 6.0647e-05
19470.0 6.0391e-05
19490.0 6.0128e-05
19510.0 5.9871e-05
19530.0 5.9619e-05
19550.0 5.9356e-05
19570.0 5.9092e-05
19590.0 5.8841e-05
19610.0 5.8585e-05
19630.0 5.8323e-05
19650.0 5.8068e-05
19670.0 5.7817e-05
19690.0 5.7555e-05
19710.0 5.7295e-05
19730.0 5.7043e-05
19750.0 5.6788e-05
19770.0 5.6522e-05
19790.0 5.6268e-05
19810.0 5.6017e-05
19830.0 5.5757e-05
19850.0 5.5495e-05
19870.0 5.5238e-05
19890.0 5.4962e-05
19910.0 5.4659e-05
19930.0 5.4335e-05
19950.0 5.3964e-05
19970.0 5.3507e-05
19990.0 5.2957e-05
20010.0 4.7116e-05
20030.0 4.6434e-05
20050.0 4.5636e-05
20070.0 4.4771e-05
20090.0 4.3841e-05
20110.0 4.2789e-05
20130.0 4.1723e-05
20150.0 4.0668e-05
20170.0 3.9573e-05
20190.0 3.8463e-05
20210.0 3.7415e-05
20230.0 3.6392e-05
20250.0 3.5367e-05
20270.0 3.4416e-05
20290.0 3.3547e-05
20310.0 3.2722e-05
20330.0 3.1951e-05
20350.0 3.1311e-05
20370.0 3.0742e-05
20390.0 3.0244e-05
20410.0 2.9842e-05
20430.0 2.9531e-05
20450.0 2.9286e-05
20470.0 2.9121e-05
20490.0 2.9032e-05
20510.0 2.9007e-05
20530.0 2.9043e-05
20550.0 2.9132e-05
20570.0 2.9263e-05
20590.0 2.944e-05
20610.0 2.9653e-05
20630.0 2.9889e-05
20650.0 3.0153e-05
20670.0 3.0454e-05
20690.0 3.0761e-05
20710.0 3.1078e-05
20730.0 3.1421e-05
20750.0 3.1779e-05
20770.0 3.213e-05
20790.0 3.2499e-05
20810.0 3.289e-05
20830.0 3.3279e-05
20850.0 3.3669e-05
20870.0 3.4087e-05
20890.0 3.4513e-05
20910.0 3.4925e-05
20930.0 3.5351e-05
20950.0 3.5793e-05
20970.0 3.6224e-05
20990.0 3.665e-05
21010.0 3.7097e-05
21030.0 3.7534e-05
21050.0 3.7951e-05
21070.0 3.8367e-05
21090.0 3.8785e-05
21110.0 3.9166e-05
21130.0 3.9524e-05
21150.0 3.9871e-05
21170.0 4.0185e-05
21190.0 4.0455e-05
21210.0 4.0698e-05
21230.0 4.09e-05
21250.0 4.1044e-05
21270.0 4.1136e-05
21290.0 4.117e-05
21310.0 4.1137e-05
21330.0 4.104e-05
21350.0 4.087e-05
21370.0 4.0619e-05
21390.0 4.0301e-05
21410.0 3.9912e-05
21430.0 3.9419e-05
21450.0 3.8865e-05
21470.0 3.8262e-05
21490.0 3.758e-05
21510.0 3.6832e-05
21530.0 3.6072e-05
21550.0 3.5275e-05
21570.0 3.4426e-05
21590.0 3.3591e-05
21610.0 3.2784e-05
21630.0 3.1976e-05
21650.0 3.1187e-05
21670.0 3.0503e-05
21690.0 2.9872e-05
21710.0 2.9303e-05
21730.0 2.8838e-05
21750.0 2.8479e-05
21770.0 2.8205e-05
21790.0 2.8048e-05
21810.0 2.8004e-05
21830.0 2.8066e-05
21850.0 2.8242e-05
21870.0 2.8515e-05
21890.0 2.8869e-05
21910.0 2.9322e-05
21930.0 2.9854e-05
21950.0 3.043e-05
21970.0 3.1068e-05
21990.0 3.1784e-05
22010.0 3.25e-05
22030.0 3.3227e-05
22050.0 3.399e-05
22070.0 3.4758e-05
22090.0 3.5485e-05
22110.0 3.6217e-05
22130.0 3.6949e-05
22150.0 3.7632e-05
22170.0 3.8276e-05
22190.0 3.8915e-05
22210.0 3.9509e-05
22230.0 4.0032e-05
22250.0 4.0524e-05
22270.0 4.0977e-05
22290.0 4.1365e-05
22310.0 4.1697e-05
22330.0 4.199e-05
22350.0 4.2216e-05
22370.0 4.2376e-05
22390.0 4.2476e-05
22410.0 4.2507e-05
22430.0 4.2467e-05
22450.0 4.2357e-05
22470.0 4.2168e-05
22490.0 4.1903e-05
22510.0 4.1572e-05
22530.0 4.1148e-05
22550.0 4.0633e-05
22570.0 4.0062e-05
22590.0 3.9418e-05
22610.0 3.8676e-05
22630.0 3.7874e-05
22650.0 3.7045e-05
22670.0 3.6128e-05
22690.0 3.5149e-05
22710.0 3.4161e-05
22730.0 3.3143e-05
22750.0 3.204e-05
22770.0 3.0961e-05
22790.0 2.9908e-05
