#lamb flux
1010.0 1.7016e-08
1030.0 1.8619e-08
1050.0 2.0463e-08
1070.0 2.2539e-08
1090.0 2.4897e-08
1110.0 2.7315e-08
1130.0 2.9749e-08
1150.0 3.2299e-08
1170.0 3.4929e-08
1190.0 3.7422e-08
1210.0 3.995e-08
1230.0 4.2561e-08
1250.0 4.512e-08
1270.0 4.7605e-08
1290.0 5.0231e-08
1310.0 5.2854e-08
1330.0 5.537e-08
1350.0 5.7915e-08
1370.0 6.0541e-08
1390.0 6.3102e-08
1410.0 6.5587e-08
1430.0 6.8184e-08
1450.0 7.0781e-08
1470.0 7.329e-08
1490.0 7.5827e-08
1510.0 7.8506e-08
1530.0 8.1043e-08
1550.0 8.3546e-08
1570.0 8.6135e-08
1590.0 8.8726e-08
1610.0 9.1201e-08
1630.0 9.3751e-08
1650.0 9.6367e-08
1670.0 9.8897e-08
1690.0 1.0139e-07
1710.0 1.0398e-07
1730.0 1.0659e-07
1750.0 1.0903e-07
1770.0 1.1154e-07
1790.0 1.141e-07
1810.0 1.1658e-07
1830.0 1.19e-07
1850.0 1.2157e-07
1870.0 1.2407e-07
1890.0 1.2647e-07
1910.0 1.2892e-07
1930.0 1.3141e-07
1950.0 1.3377e-07
1970.0 1.3609e-07
1990.0 1.3849e-07
2010.0 1.4083e-07
2030.0 1.4306e-07
2050.0 1.4534e-07
2070.0 1.4766e-07
2090.0 1.4981e-07
2110.0 1.5191e-07
2130.0 1.5406e-07
2150.0 1.5613e-07
2170.0 1.5805e-07
2190.0 1.6002e-07
2210.0 1.6196e-07
2230.0 1.6375e-07
2250.0 1.6548e-07
2270.0 1.6727e-07
2290.0 1.6892e-07
2310.0 1.7042e-07
2330.0 1.7195e-07
2350.0 1.7349e-07
2370.0 1.7495e-07
2390.0 1.7656e-07
2410.0 1.7859e-07
2430.0 1.8104e-07
2450.0 1.8413e-07
2470.0 1.8836e-07
2490.0 1.9395e-07
2510.0 2.0043e-07
2530.0 2.0847e-07
2550.0 2.1884e-07
2570.0 2.3201e-07
2590.0 2.4935e-07
2610.0 2.7555e-07
2630.0 3.1268e-07
2650.0 3.6044e-07
2670.0 4.2116e-07
2690.0 4.9436e-07
2710.0 5.7055e-07
2730.0 6.4373e-07
2750.0 7.1376e-07
2770.0 7.7212e-07
2790.0 8.1567e-07
2810.0 8.4759e-07
2830.0 8.6989e-07
2850.0 8.8192e-07
2870.0 8.8814e-07
2890.0 8.9104e-07
2910.0 8.9153e-07
2930.0 8.9043e-07
2950.0 8.8906e-07
2970.0 8.8763e-07
2990.0 8.8598e-07
3010.0 2.8148e-05
3030.0 2.8101e-05
3050.0 2.8053e-05
3070.0 2.7987e-05
3090.0 2.7904e-05
3110.0 2.7775e-05
3130.0 2.7564e-05
3150.0 2.7245e-05
3170.0 2.6764e-05
3190.0 2.6129e-05
3210.0 2.5385e-05
3230.0 2.4563e-05
3250.0 2.3722e-05
3270.0 2.3092e-05
3290.0 2.2623e-05
3310.0 2.2529e-05
3330.0 2.2696e-05
3350.0 2.3115e-05
3370.0 2.3782e-05
3390.0 2.4664e-05
3410.0 2.5648e-05
3430.0 2.6769e-05
3450.0 2.8074e-05
3470.0 2.9512e-05
3490.0 3.1054e-05
3510.0 3.2812e-05
3530.0 3.4727e-05
3550.0 3.6765e-05
3570.0 3.8994e-05
3590.0 4.147e-05
3610.0 4.4199e-05
3630.0 4.6902e-05
3650.0 4.9757e-05
3670.0 5.2326e-05
3690.0 5.4231e-05
3710.0 5.5197e-05
3730.0 5.4692e-05
3750.0 5.2789e-05
3770.0 5.3975e-05
3790.0 5.3107e-05
3810.0 4.2635e-05
3830.0 4.1859e-05
3850.0 5.9721e-05
3870.0 5.9544e-05
3890.0 4.6945e-05
3910.0 4.4446e-05
3930.0 5.3852e-05
3950.0 6.3226e-05
3970.0 6.9075e-05
3990.0 4.7447e-05
4010.0 0.00010042
4030.0 0.00010321
4050.0 0.00011368
4070.0 0.00012095
4090.0 0.00011322
4110.0 9.7416e-05
4130.0 0.00011372
4150.0 0.00014904
4170.0 0.00012088
4190.0 0.00010988
4210.0 0.00012168
4230.0 0.00014722
4250.0 0.00017684
4270.0 0.00019066
4290.0 0.00016893
4310.0 0.00015852
4330.0 0.0001578
4350.0 0.00019845
4370.0 0.00023993
4390.0 0.00019411
4410.0 0.00011136
4430.0 8.1025e-05
4450.0 7.6033e-05
4470.0 4.7072e-05
4490.0 7.7289e-05
4510.0 0.00016456
4530.0 0.00020006
4550.0 0.00018795
4570.0 0.00017178
4590.0 0.00018427
4610.0 0.00035351
4630.0 0.00049468
4650.0 0.00047406
4670.0 0.00041824
4690.0 0.00042325
4710.0 0.00044254
4730.0 0.00036889
4750.0 0.00024323
4770.0 0.00016657
4790.0 0.00018156
4810.0 0.00019008
4830.0 0.00018672
4850.0 0.00020256
4870.0 0.00026829
4890.0 0.00031118
4910.0 0.00024477
4930.0 0.0002362
4950.0 0.00027123
4970.0 0.0003595
4990.0 0.00048586
5010.0 0.00056267
5030.0 0.00045386
5050.0 0.00028076
5070.0 0.00019803
5090.0 0.00015051
5110.0 0.00014165
5130.0 0.00017027
5150.0 0.00016671
5170.0 0.00015713
5190.0 0.00013987
5210.0 0.00015568
5230.0 0.00019118
5250.0 0.00022192
5270.0 0.00020739
5290.0 0.00022375
5310.0 0.00029813
5330.0 0.0003215
5350.0 0.00031703
5370.0 0.00035431
5390.0 0.00043993
5410.0 0.00038123
5430.0 0.00029613
5450.0 0.00029665
5470.0 0.00034252
5490.0 0.00042759
5510.0 0.00052102
5530.0 0.00060423
5550.0 0.00054852
5570.0 0.00049251
5590.0 0.00040618
5610.0 0.0004093
5630.0 0.00045585
5650.0 0.00042024
5670.0 0.000387
5690.0 0.00031447
5710.0 0.00032262
5730.0 0.0003125
5750.0 0.00017285
5770.0 0.00012379
5790.0 0.00015265
5810.0 0.00016123
5830.0 0.00024828
5850.0 0.00032327
5870.0 0.00034855
5890.0 0.00033401
5910.0 0.00032533
5930.0 0.00031255
5950.0 0.00032216
5970.0 0.0003986
5990.0 0.00033011
6010.0 0.00025544
6030.0 0.00020892
6050.0 0.00018625
6070.0 0.00021976
6090.0 0.00024652
6110.0 0.00025265
6130.0 0.00023443
6150.0 0.00018529
6170.0 0.00014426
6190.0 0.00017482
6210.0 0.00027509
6230.0 0.00040501
6250.0 0.00043704
6270.0 0.00033629
6290.0 0.00028785
6310.0 0.0002198
6330.0 0.00016048
6350.0 0.00015702
6370.0 0.00016485
6390.0 0.00019681
6410.0 0.00025443
6430.0 0.000306
6450.0 0.00037444
6470.0 0.00039635
6490.0 0.00047473
6510.0 0.00053244
6530.0 0.00054304
6550.0 0.00049941
6570.0 0.00040084
6590.0 0.0003806
6610.0 0.00031557
6630.0 0.00032668
6650.0 0.00031736
6670.0 0.00027779
6690.0 0.00021579
6710.0 0.00021053
6730.0 9.2298e-05
6750.0 0.0001239
6770.0 0.00019442
6790.0 0.00025715
6810.0 0.00018357
6830.0 0.00018744
6850.0 0.00015613
6870.0 0.00014607
6890.0 0.00012345
6910.0 0.0001502
6930.0 0.0001414
6950.0 0.00016902
6970.0 0.00017559
6990.0 0.00019493
7010.0 0.0001883
7030.0 0.00021556
7050.0 0.00018683
7070.0 0.00015585
7090.0 0.00016716
7110.0 0.00017735
7130.0 0.00020411
7150.0 0.00023132
7170.0 0.00025935
7190.0 0.00027695
7210.0 0.00024689
7230.0 0.00025004
7250.0 0.00026799
7270.0 0.00028767
7290.0 0.00035442
7310.0 0.00037467
7330.0 0.00035049
7350.0 0.0003139
7370.0 0.00023283
7390.0 0.00024014
7410.0 0.00029412
7430.0 0.00033519
7450.0 0.00036113
7470.0 0.00033043
7490.0 0.00026385
7510.0 0.00042537
7530.0 0.00038761
7550.0 0.00036561
7570.0 0.0002484
7590.0 0.00011024
7610.0 7.7833e-05
7630.0 0.00011816
7650.0 0.00015888
7670.0 0.00025291
7690.0 0.0002818
7710.0 0.00025466
7730.0 0.00025278
7750.0 0.00033184
7770.0 0.00034106
7790.0 0.00031185
7810.0 0.0002521
7830.0 0.00027317
7850.0 0.00029938
7870.0 0.00029273
7890.0 0.00022882
7910.0 0.00015381
7930.0 0.00015936
7950.0 0.00014396
7970.0 0.00012127
7990.0 0.00010964
8010.0 5.7606e-05
8030.0 5.257e-05
8050.0 5.7079e-05
8070.0 6.4696e-05
8090.0 7.9442e-05
8110.0 7.4511e-05
8130.0 4.3599e-05
8150.0 4.5421e-05
8170.0 2.4698e-05
8190.0 1.426e-05
8210.0 4.0314e-05
8230.0 4.8979e-05
8250.0 1.7939e-05
8270.0 1.3836e-05
8290.0 2.8933e-05
8310.0 2.5776e-05
8330.0 1.5729e-05
8350.0 1.2707e-05
8370.0 2.6177e-06
8390.0 1.3575e-05
8410.0 1.5662e-05
8430.0 1.9469e-05
8450.0 2.1918e-05
8470.0 3.742e-05
8490.0 3.0224e-05
8510.0 2.2866e-05
8530.0 1.0552e-05
8550.0 4.1465e-05
8570.0 6.526e-05
8590.0 4.4385e-05
8610.0 6.7489e-05
8630.0 7.3089e-05
8650.0 3.7207e-05
8670.0 5.6859e-05
8690.0 9.0969e-05
8710.0 7.7711e-05
8730.0 8.4195e-05
8750.0 6.5661e-05
8770.0 5.8115e-05
8790.0 6.4956e-05
8810.0 7.0913e-05
8830.0 3.8407e-05
8850.0 1.5481e-05
8870.0 1.0758e-05
8890.0 2.9887e-05
8910.0 4.8223e-05
8930.0 6.4293e-05
8950.0 7.1805e-05
8970.0 6.9032e-05
8990.0 5.1173e-05
9010.0 4.8673e-05
9030.0 3.6744e-05
9050.0 3.8201e-05
9070.0 3.9725e-05
9090.0 4.0965e-05
9110.0 4.2466e-05
9130.0 4.355e-05
9150.0 4.4322e-05
9170.0 4.5144e-05
9190.0 4.6024e-05
9210.0 4.6948e-05
9230.0 4.7924e-05
9250.0 4.891e-05
9270.0 4.9927e-05
9290.0 5.0971e-05
9310.0 5.2012e-05
9330.0 5.3067e-05
9350.0 5.4158e-05
9370.0 5.5254e-05
9390.0 5.6353e-05
9410.0 5.7479e-05
9430.0 5.8638e-05
9450.0 5.9782e-05
9470.0 6.0946e-05
9490.0 6.2142e-05
9510.0 6.3346e-05
9530.0 6.4549e-05
9550.0 6.5795e-05
9570.0 6.7059e-05
9590.0 6.832e-05
9610.0 6.9601e-05
9630.0 7.0916e-05
9650.0 7.2238e-05
9670.0 7.3556e-05
9690.0 7.4911e-05
9710.0 7.6286e-05
9730.0 7.7659e-05
9750.0 7.9051e-05
9770.0 8.0488e-05
9790.0 8.1916e-05
9810.0 8.335e-05
9830.0 8.4816e-05
9850.0 8.63e-05
9870.0 8.7773e-05
9890.0 8.9271e-05
9910.0 9.0799e-05
9930.0 9.2325e-05
9950.0 9.3854e-05
9970.0 9.5418e-05
9990.0 9.6997e-05
10010.0 8.6412e-05
10030.0 8.7794e-05
10050.0 8.9195e-05
10070.0 9.0581e-05
10090.0 9.1978e-05
10110.0 9.3408e-05
10130.0 9.4836e-05
10150.0 9.6253e-05
10170.0 9.7682e-05
10190.0 9.9133e-05
10210.0 0.00010056
10230.0 0.00010199
10250.0 0.00010344
10270.0 0.00010488
10290.0 0.00010631
10310.0 0.00010775
10330.0 0.00010921
10350.0 0.00011063
10370.0 0.00011206
10390.0 0.0001135
10410.0 0.00011492
10430.0 0.00011632
10450.0 0.00011773
10470.0 0.00011915
10490.0 0.00012053
10510.0 0.00012191
10530.0 0.0001233
10550.0 0.00012467
10570.0 0.000126
10590.0 0.00012734
10610.0 0.00012868
10630.0 0.00012998
10650.0 0.00013126
10670.0 0.00013255
10690.0 0.00013382
10710.0 0.00013505
10730.0 0.00013628
10750.0 0.00013751
10770.0 0.00013868
10790.0 0.00013984
10810.0 0.00014099
10830.0 0.0001421
10850.0 0.00014315
10870.0 0.00014419
10890.0 0.00014512
10910.0 0.00014588
10930.0 0.00014642
10950.0 0.0001466
10970.0 0.00014631
10990.0 0.0001455
11010.0 0.00014465
11030.0 0.00014245
11050.0 0.00013969
11070.0 0.00013633
11090.0 0.00013228
11110.0 0.00012806
11130.0 0.00012367
11150.0 0.00011895
11170.0 0.00011411
11190.0 0.00010943
11210.0 0.00010462
11230.0 9.9728e-05
11250.0 9.5077e-05
11270.0 9.063e-05
11290.0 8.6198e-05
11310.0 8.2011e-05
11330.0 7.8321e-05
11350.0 7.4833e-05
11370.0 7.1598e-05
11390.0 6.8774e-05
11410.0 6.6275e-05
11430.0 6.3924e-05
11450.0 6.1857e-05
11470.0 6.0028e-05
11490.0 5.8295e-05
11510.0 5.6601e-05
11530.0 5.5008e-05
11550.0 5.342e-05
11570.0 5.1738e-05
11590.0 5.0011e-05
11610.0 4.8269e-05
11630.0 4.64e-05
11650.0 4.4425e-05
11670.0 4.2493e-05
11690.0 4.0548e-05
11710.0 3.8557e-05
11730.0 3.6632e-05
11750.0 3.4847e-05
11770.0 3.3098e-05
11790.0 3.1451e-05
11810.0 2.9987e-05
11830.0 2.8662e-05
11850.0 2.7427e-05
11870.0 2.637e-05
11890.0 2.5468e-05
11910.0 2.4656e-05
11930.0 2.3937e-05
11950.0 2.3317e-05
11970.0 2.2749e-05
11990.0 2.2206e-05
12010.0 2.1697e-05
12030.0 2.1207e-05
12050.0 2.0707e-05
12070.0 2.0195e-05
12090.0 1.9701e-05
12110.0 1.9201e-05
12130.0 1.87e-05
12150.0 1.8225e-05
12170.0 1.7793e-05
12190.0 1.739e-05
12210.0 1.7057e-05
12230.0 1.681e-05
12250.0 1.6651e-05
12270.0 1.6599e-05
12290.0 1.6657e-05
12310.0 1.6818e-05
12330.0 1.7105e-05
12350.0 1.7505e-05
12370.0 1.7986e-05
12390.0 1.8564e-05
12410.0 1.9265e-05
12430.0 1.9982e-05
12450.0 2.0731e-05
12470.0 2.1533e-05
12490.0 2.234e-05
12510.0 2.309e-05
12530.0 2.3835e-05
12550.0 2.455e-05
12570.0 2.517e-05
12590.0 2.5703e-05
12610.0 2.6168e-05
12630.0 2.6523e-05
12650.0 2.6741e-05
12670.0 2.6857e-05
12690.0 2.6857e-05
12710.0 2.6736e-05
12730.0 2.6506e-05
12750.0 2.6161e-05
12770.0 2.5717e-05
12790.0 2.5196e-05
12810.0 2.4591e-05
12830.0 2.3906e-05
12850.0 2.3196e-05
12870.0 2.2453e-05
12890.0 2.166e-05
12910.0 2.0859e-05
12930.0 2.0074e-05
12950.0 1.9262e-05
12970.0 1.8442e-05
12990.0 1.7667e-05
13010.0 1.6904e-05
13030.0 1.6136e-05
13050.0 1.5398e-05
13070.0 1.4705e-05
13090.0 1.4009e-05
13110.0 1.3335e-05
13130.0 1.2708e-05
13150.0 1.2111e-05
13170.0 1.1523e-05
13190.0 1.0992e-05
13210.0 1.0518e-05
13230.0 1.0076e-05
13250.0 9.6856e-06
13270.0 9.3639e-06
13290.0 9.0976e-06
13310.0 8.8908e-06
13330.0 8.7594e-06
13350.0 8.6985e-06
13370.0 8.7102e-06
13390.0 8.8002e-06
13410.0 8.9508e-06
13430.0 9.1681e-06
13450.0 9.4545e-06
13470.0 9.7853e-06
13490.0 1.0146e-05
13510.0 1.0565e-05
13530.0 1.0999e-05
13550.0 1.1422e-05
13570.0 1.1847e-05
13590.0 1.227e-05
13610.0 1.2653e-05
13630.0 1.2993e-05
13650.0 1.331e-05
13670.0 1.358e-05
13690.0 1.3794e-05
13710.0 1.3965e-05
13730.0 1.4094e-05
13750.0 1.4167e-05
13770.0 1.4195e-05
13790.0 1.4184e-05
13810.0 1.4131e-05
13830.0 1.4044e-05
13850.0 1.3922e-05
13870.0 1.3764e-05
13890.0 1.3582e-05
13910.0 1.3375e-05
13930.0 1.3136e-05
13950.0 1.2875e-05
13970.0 1.2609e-05
13990.0 1.2321e-05
14010.0 1.2016e-05
14030.0 1.1713e-05
14050.0 1.1408e-05
14070.0 1.1088e-05
14090.0 1.0782e-05
14110.0 1.0495e-05
14130.0 1.0217e-05
14150.0 9.9537e-06
14170.0 9.728e-06
14190.0 9.5311e-06
14210.0 9.3618e-06
14230.0 9.233e-06
14250.0 9.1456e-06
14270.0 9.0965e-06
14290.0 9.092e-06
14310.0 9.1293e-06
14330.0 9.2063e-06
14350.0 9.3259e-06
14370.0 9.4799e-06
14390.0 9.659e-06
14410.0 9.8739e-06
14430.0 1.0115e-05
14450.0 1.0365e-05
14470.0 1.0629e-05
14490.0 1.0915e-05
14510.0 1.1194e-05
14530.0 1.1464e-05
14550.0 1.1738e-05
14570.0 1.2007e-05
14590.0 1.2256e-05
14610.0 1.2501e-05
14630.0 1.2747e-05
14650.0 1.2979e-05
14670.0 1.3205e-05
14690.0 1.3441e-05
14710.0 1.3689e-05
14730.0 1.3936e-05
14750.0 1.4207e-05
14770.0 1.4512e-05
14790.0 1.484e-05
14810.0 1.5193e-05
14830.0 1.5608e-05
14850.0 1.6056e-05
14870.0 1.6523e-05
14890.0 1.7026e-05
14910.0 1.7558e-05
14930.0 1.8071e-05
14950.0 1.8552e-05
14970.0 1.9009e-05
14990.0 1.9397e-05
15010.0 1.97e-05
15030.0 1.9931e-05
15050.0 2.0094e-05
15070.0 2.0187e-05
15090.0 2.0238e-05
15110.0 2.0259e-05
15130.0 2.0261e-05
15150.0 2.0255e-05
15170.0 2.0242e-05
15190.0 2.0227e-05
15210.0 2.0213e-05
15230.0 2.0199e-05
15250.0 2.0183e-05
15270.0 2.0168e-05
15290.0 2.0156e-05
15310.0 2.0143e-05
15330.0 2.0129e-05
15350.0 2.0118e-05
15370.0 2.0106e-05
15390.0 2.0093e-05
15410.0 2.0081e-05
15430.0 2.0071e-05
15450.0 2.0059e-05
15470.0 2.0047e-05
15490.0 2.0038e-05
15510.0 2.0028e-05
15530.0 2.0017e-05
15550.0 2.0007e-05
15570.0 1.9998e-05
15590.0 1.9988e-05
15610.0 1.9977e-05
15630.0 1.9968e-05
15650.0 1.9959e-05
15670.0 1.9948e-05
15690.0 1.9939e-05
15710.0 1.9931e-05
15730.0 1.9921e-05
15750.0 1.9911e-05
15770.0 1.9902e-05
15790.0 1.9893e-05
15810.0 1.9881e-05
15830.0 1.9872e-05
15850.0 1.9863e-05
15870.0 1.9853e-05
15890.0 1.9842e-05
15910.0 1.9833e-05
15930.0 1.9823e-05
15950.0 1.9811e-05
15970.0 1.98e-05
15990.0 1.979e-05
16010.0 1.9778e-05
16030.0 1.9766e-05
16050.0 1.9755e-05
16070.0 1.9744e-05
16090.0 1.973e-05
16110.0 1.9718e-05
16130.0 1.9707e-05
16150.0 1.9692e-05
16170.0 1.9678e-05
16190.0 1.9665e-05
16210.0 1.9651e-05
16230.0 1.9635e-05
16250.0 1.9621e-05
16270.0 1.9607e-05
16290.0 1.959e-05
16310.0 1.9573e-05
16330.0 1.9558e-05
16350.0 1.9541e-05
16370.0 1.9521e-05
16390.0 1.9504e-05
16410.0 1.9487e-05
16430.0 1.9467e-05
16450.0 1.9448e-05
16470.0 1.943e-05
16490.0 1.9409e-05
16510.0 1.9387e-05
16530.0 1.9366e-05
16550.0 1.9345e-05
16570.0 1.9321e-05
16590.0 1.9298e-05
16610.0 1.9276e-05
16630.0 1.9252e-05
16650.0 1.9227e-05
16670.0 1.9203e-05
16690.0 1.9178e-05
16710.0 1.915e-05
16730.0 1.9123e-05
16750.0 1.9097e-05
16770.0 1.9069e-05
16790.0 1.9039e-05
16810.0 1.9011e-05
16830.0 1.8982e-05
16850.0 1.8951e-05
16870.0 1.8921e-05
16890.0 1.8891e-05
16910.0 1.8858e-05
16930.0 1.8824e-05
16950.0 1.8792e-05
16970.0 1.8758e-05
16990.0 1.8723e-05
17010.0 1.8688e-05
17030.0 1.8654e-05
17050.0 1.8617e-05
17070.0 1.858e-05
17090.0 1.8543e-05
17110.0 1.8506e-05
17130.0 1.8465e-05
17150.0 1.8426e-05
17170.0 1.8388e-05
17190.0 1.8347e-05
17210.0 1.8306e-05
17230.0 1.8266e-05
17250.0 1.8224e-05
17270.0 1.8179e-05
17290.0 1.8136e-05
17310.0 1.8094e-05
17330.0 1.8048e-05
17350.0 1.8002e-05
17370.0 1.7958e-05
17390.0 1.7913e-05
17410.0 1.7865e-05
17430.0 1.7818e-05
17450.0 1.7772e-05
17470.0 1.7722e-05
17490.0 1.7672e-05
17510.0 1.7624e-05
17530.0 1.7574e-05
17550.0 1.7522e-05
17570.0 1.7472e-05
17590.0 1.7422e-05
17610.0 1.7369e-05
17630.0 1.7316e-05
17650.0 1.7265e-05
17670.0 1.7211e-05
17690.0 1.7155e-05
17710.0 1.7102e-05
17730.0 1.7048e-05
17750.0 1.6991e-05
17770.0 1.6935e-05
17790.0 1.6881e-05
17810.0 1.6824e-05
17830.0 1.6765e-05
17850.0 1.6709e-05
17870.0 1.6651e-05
17890.0 1.6591e-05
17910.0 1.6532e-05
17930.0 1.6475e-05
17950.0 1.6415e-05
17970.0 1.6354e-05
17990.0 1.6295e-05
18010.0 1.6235e-05
18030.0 1.6172e-05
18050.0 1.611e-05
18070.0 1.605e-05
18090.0 1.5987e-05
18110.0 1.5924e-05
18130.0 1.5862e-05
18150.0 1.58e-05
18170.0 1.5735e-05
18190.0 1.5672e-05
18210.0 1.5609e-05
18230.0 1.5544e-05
18250.0 1.5478e-05
18270.0 1.5415e-05
18290.0 1.535e-05
18310.0 1.5284e-05
18330.0 1.5219e-05
18350.0 1.5154e-05
18370.0 1.5087e-05
18390.0 1.502e-05
18410.0 1.4955e-05
18430.0 1.4889e-05
18450.0 1.482e-05
18470.0 1.4754e-05
18490.0 1.4688e-05
18510.0 1.462e-05
18530.0 1.4552e-05
18550.0 1.4486e-05
18570.0 1.4418e-05
18590.0 1.4348e-05
18610.0 1.4281e-05
18630.0 1.4214e-05
18650.0 1.4144e-05
18670.0 1.4075e-05
18690.0 1.4008e-05
18710.0 1.394e-05
18730.0 1.387e-05
18750.0 1.3802e-05
18770.0 1.3734e-05
18790.0 1.3663e-05
18810.0 1.3594e-05
18830.0 1.3526e-05
18850.0 1.3457e-05
18870.0 1.3386e-05
18890.0 1.3318e-05
18910.0 1.325e-05
18930.0 1.318e-05
18950.0 1.311e-05
18970.0 1.3042e-05
18990.0 1.2972e-05
19010.0 1.2901e-05
19030.0 1.2833e-05
19050.0 1.2764e-05
19070.0 1.2694e-05
19090.0 1.2625e-05
19110.0 1.2558e-05
19130.0 1.2487e-05
19150.0 1.2417e-05
19170.0 1.2349e-05
19190.0 1.228e-05
19210.0 1.221e-05
19230.0 1.2141e-05
19250.0 1.2073e-05
19270.0 1.2004e-05
19290.0 1.1935e-05
19310.0 1.1867e-05
19330.0 1.1799e-05
19350.0 1.1729e-05
19370.0 1.166e-05
19390.0 1.1593e-05
19410.0 1.1524e-05
19430.0 1.1455e-05
19450.0 1.1389e-05
19470.0 1.1321e-05
19490.0 1.1252e-05
19510.0 1.1185e-05
19530.0 1.1119e-05
19550.0 1.105e-05
19570.0 1.0981e-05
19590.0 1.0915e-05
19610.0 1.0849e-05
19630.0 1.0781e-05
19650.0 1.0714e-05
19670.0 1.0649e-05
19690.0 1.0582e-05
19710.0 1.0515e-05
19730.0 1.0449e-05
19750.0 1.0383e-05
19770.0 1.0316e-05
19790.0 1.025e-05
19810.0 1.0186e-05
19830.0 1.012e-05
19850.0 1.0053e-05
19870.0 9.9882e-06
19890.0 9.9196e-06
19910.0 9.8462e-06
19930.0 9.7695e-06
19950.0 9.6849e-06
19970.0 9.5852e-06
19990.0 9.4695e-06
20010.0 8.7289e-06
20030.0 8.5876e-06
20050.0 8.4259e-06
20070.0 8.2534e-06
20090.0 8.0702e-06
20110.0 7.866e-06
20130.0 7.661e-06
20150.0 7.4593e-06
20170.0 7.2518e-06
20190.0 7.0429e-06
20210.0 6.8461e-06
20230.0 6.6549e-06
20250.0 6.464e-06
20270.0 6.2868e-06
20290.0 6.1247e-06
20310.0 5.9703e-06
20330.0 5.8254e-06
20350.0 5.7037e-06
20370.0 5.5944e-06
20390.0 5.4972e-06
20410.0 5.4167e-06
20430.0 5.3524e-06
20450.0 5.2992e-06
20470.0 5.2604e-06
20490.0 5.2355e-06
20510.0 5.2221e-06
20530.0 5.2201e-06
20550.0 5.2284e-06
20570.0 5.2449e-06
20590.0 5.2705e-06
20610.0 5.3039e-06
20630.0 5.3421e-06
20650.0 5.3862e-06
20670.0 5.4381e-06
20690.0 5.4917e-06
20710.0 5.5475e-06
20730.0 5.6084e-06
20750.0 5.672e-06
20770.0 5.7342e-06
20790.0 5.7994e-06
20810.0 5.868e-06
20830.0 5.9355e-06
20850.0 6.0025e-06
20870.0 6.0739e-06
20890.0 6.1458e-06
20910.0 6.2141e-06
20930.0 6.2845e-06
20950.0 6.357e-06
20970.0 6.4268e-06
20990.0 6.4951e-06
21010.0 6.5668e-06
21030.0 6.6364e-06
21050.0 6.7022e-06
21070.0 6.7677e-06
21090.0 6.8334e-06
21110.0 6.8927e-06
21130.0 6.9481e-06
21150.0 7.002e-06
21170.0 7.0506e-06
21190.0 7.092e-06
21210.0 7.1295e-06
21230.0 7.1608e-06
21250.0 7.1827e-06
21270.0 7.1964e-06
21290.0 7.2014e-06
21310.0 7.1957e-06
21330.0 7.1795e-06
21350.0 7.1517e-06
21370.0 7.111e-06
21390.0 7.059e-06
21410.0 6.9951e-06
21430.0 6.9143e-06
21450.0 6.8229e-06
21470.0 6.7228e-06
21490.0 6.6093e-06
21510.0 6.4844e-06
21530.0 6.3566e-06
21550.0 6.2222e-06
21570.0 6.0785e-06
21590.0 5.9363e-06
21610.0 5.7979e-06
21630.0 5.6588e-06
21650.0 5.5219e-06
21670.0 5.4018e-06
21690.0 5.2898e-06
21710.0 5.1874e-06
21730.0 5.1015e-06
21750.0 5.0327e-06
21770.0 4.9773e-06
21790.0 4.9405e-06
21810.0 4.9222e-06
21830.0 4.9209e-06
21850.0 4.9377e-06
21870.0 4.9707e-06
21890.0 5.017e-06
21910.0 5.0794e-06
21930.0 5.1549e-06
21950.0 5.2382e-06
21970.0 5.332e-06
21990.0 5.439e-06
22010.0 5.5469e-06
22030.0 5.6575e-06
22050.0 5.7748e-06
22070.0 5.8938e-06
22090.0 6.0072e-06
22110.0 6.1224e-06
22130.0 6.2384e-06
22150.0 6.3473e-06
22170.0 6.4506e-06
22190.0 6.5537e-06
22210.0 6.6502e-06
22230.0 6.7353e-06
22250.0 6.8157e-06
22270.0 6.8901e-06
22290.0 6.9536e-06
22310.0 7.0081e-06
22330.0 7.0562e-06
22350.0 7.0933e-06
22370.0 7.119e-06
22390.0 7.1349e-06
22410.0 7.1396e-06
22430.0 7.132e-06
22450.0 7.1131e-06
22470.0 7.0811e-06
22490.0 7.0366e-06
22510.0 6.9812e-06
22530.0 6.9109e-06
22550.0 6.8257e-06
22570.0 6.7312e-06
22590.0 6.6248e-06
22610.0 6.5027e-06
