#lamb flux
1010.0 5.6537e-09
1030.0 6.2531e-09
1050.0 6.9424e-09
1070.0 7.7184e-09
1090.0 8.5998e-09
1110.0 9.5039e-09
1130.0 1.0414e-08
1150.0 1.1367e-08
1170.0 1.235e-08
1190.0 1.3282e-08
1210.0 1.4227e-08
1230.0 1.5204e-08
1250.0 1.616e-08
1270.0 1.7089e-08
1290.0 1.8071e-08
1310.0 1.9052e-08
1330.0 1.9992e-08
1350.0 2.0944e-08
1370.0 2.1926e-08
1390.0 2.2884e-08
1410.0 2.3813e-08
1430.0 2.4784e-08
1450.0 2.5756e-08
1470.0 2.6695e-08
1490.0 2.7644e-08
1510.0 2.8646e-08
1530.0 2.9596e-08
1550.0 3.0534e-08
1570.0 3.1504e-08
1590.0 3.2475e-08
1610.0 3.3403e-08
1630.0 3.436e-08
1650.0 3.5343e-08
1670.0 3.6294e-08
1690.0 3.7234e-08
1710.0 3.821e-08
1730.0 3.9193e-08
1750.0 4.0118e-08
1770.0 4.1071e-08
1790.0 4.2045e-08
1810.0 4.2988e-08
1830.0 4.3916e-08
1850.0 4.4903e-08
1870.0 4.5866e-08
1890.0 4.6798e-08
1910.0 4.7751e-08
1930.0 4.8728e-08
1950.0 4.9664e-08
1970.0 5.059e-08
1990.0 5.1553e-08
2010.0 5.2502e-08
2030.0 5.342e-08
2050.0 5.4367e-08
2070.0 5.5341e-08
2090.0 5.6262e-08
2110.0 5.7182e-08
2130.0 5.8131e-08
2150.0 5.9065e-08
2170.0 5.996e-08
2190.0 6.089e-08
2210.0 6.1827e-08
2230.0 6.2729e-08
2250.0 6.3627e-08
2270.0 6.4567e-08
2290.0 6.5479e-08
2310.0 6.6356e-08
2330.0 6.7268e-08
2350.0 6.8205e-08
2370.0 6.9138e-08
2390.0 7.0148e-08
2410.0 7.1345e-08
2430.0 7.2722e-08
2450.0 7.4368e-08
2470.0 7.6476e-08
2490.0 7.9134e-08
2510.0 8.2155e-08
2530.0 8.5791e-08
2550.0 9.0343e-08
2570.0 9.6006e-08
2590.0 1.0337e-07
2610.0 1.144e-07
2630.0 1.3014e-07
2650.0 1.5073e-07
2670.0 1.7735e-07
2690.0 2.1006e-07
2710.0 2.4497e-07
2730.0 2.7948e-07
2750.0 3.1346e-07
2770.0 3.4302e-07
2790.0 3.6649e-07
2810.0 3.8512e-07
2830.0 3.9967e-07
2850.0 4.096e-07
2870.0 4.1689e-07
2890.0 4.2267e-07
2910.0 4.2727e-07
2930.0 4.3104e-07
2950.0 4.3463e-07
2970.0 4.3815e-07
2990.0 4.4144e-07
3010.0 1.2478e-05
3030.0 1.2571e-05
3050.0 1.2661e-05
3070.0 1.2738e-05
3090.0 1.2805e-05
3110.0 1.2846e-05
3130.0 1.2844e-05
3150.0 1.2787e-05
3170.0 1.265e-05
3190.0 1.2435e-05
3210.0 1.2162e-05
3230.0 1.185e-05
3250.0 1.1542e-05
3270.0 1.1317e-05
3290.0 1.1192e-05
3310.0 1.1212e-05
3330.0 1.1374e-05
3350.0 1.1657e-05
3370.0 1.206e-05
3390.0 1.2569e-05
3410.0 1.3122e-05
3430.0 1.3743e-05
3450.0 1.4459e-05
3470.0 1.524e-05
3490.0 1.6067e-05
3510.0 1.7003e-05
3530.0 1.8005e-05
3550.0 1.9019e-05
3570.0 2.0077e-05
3590.0 2.1228e-05
3610.0 2.2414e-05
3630.0 2.3596e-05
3650.0 2.4822e-05
3670.0 2.5942e-05
3690.0 2.6779e-05
3710.0 2.7258e-05
3730.0 2.7274e-05
3750.0 2.6895e-05
3770.0 2.6745e-05
3790.0 2.6586e-05
3810.0 2.5933e-05
3830.0 2.6736e-05
3850.0 2.9894e-05
3870.0 3.1627e-05
3890.0 3.1483e-05
3910.0 3.1617e-05
3930.0 3.2449e-05
3950.0 3.2962e-05
3970.0 3.0031e-05
3990.0 2.5841e-05
4010.0 7.7448e-05
4030.0 9.3839e-05
4050.0 0.00010758
4070.0 9.3344e-05
4090.0 8.4541e-05
4110.0 7.46e-05
4130.0 6.8661e-05
4150.0 7.3035e-05
4170.0 7.1942e-05
4190.0 7.6686e-05
4210.0 7.5984e-05
4230.0 8.0371e-05
4250.0 9.508e-05
4270.0 9.6198e-05
4290.0 8.8646e-05
4310.0 9.2109e-05
4330.0 9.7977e-05
4350.0 0.00010986
4370.0 0.00012502
4390.0 0.00011732
4410.0 8.6676e-05
4430.0 7.3377e-05
4450.0 6.7425e-05
4470.0 5.1751e-05
4490.0 5.5846e-05
4510.0 8.4356e-05
4530.0 9.7288e-05
4550.0 9.8132e-05
4570.0 0.00011042
4590.0 0.00012578
4610.0 0.00016965
4630.0 0.00022034
4650.0 0.00023896
4670.0 0.0002213
4690.0 0.00021116
4710.0 0.00022321
4730.0 0.00021065
4750.0 0.00015748
4770.0 0.00011552
4790.0 0.00010787
4810.0 0.00010282
4830.0 9.4131e-05
4850.0 0.00010329
4870.0 0.00013646
4890.0 0.00016093
4910.0 0.00014119
4930.0 0.00012493
4950.0 0.00013726
4970.0 0.00017603
4990.0 0.00023856
5010.0 0.00027443
5030.0 0.00024198
5050.0 0.00016372
5070.0 0.0001079
5090.0 8.7002e-05
5110.0 8.9473e-05
5130.0 0.00010327
5150.0 0.00011188
5170.0 0.0001102
5190.0 0.00010298
5210.0 0.00010763
5230.0 0.00011315
5250.0 0.00012194
5270.0 0.00013157
5290.0 0.0001458
5310.0 0.00016971
5330.0 0.00018781
5350.0 0.00018661
5370.0 0.00019602
5390.0 0.00022494
5410.0 0.00022473
5430.0 0.00019875
5450.0 0.0001826
5470.0 0.00019389
5490.0 0.00023688
5510.0 0.00029619
5530.0 0.00033971
5550.0 0.00032834
5570.0 0.00029848
5590.0 0.00025953
5610.0 0.00023935
5630.0 0.00023209
5650.0 0.00022105
5670.0 0.00020946
5690.0 0.00018726
5710.0 0.00018258
5730.0 0.00016819
5750.0 0.00011858
5770.0 9.2513e-05
5790.0 0.00010484
5810.0 0.00011838
5830.0 0.00014527
5850.0 0.00017293
5870.0 0.00019187
5890.0 0.00019512
5910.0 0.00019142
5930.0 0.00018221
5950.0 0.00018567
5970.0 0.00021165
5990.0 0.000199
6010.0 0.00016683
6030.0 0.00014094
6050.0 0.00012274
6070.0 0.00012207
6090.0 0.00013237
6110.0 0.00014801
6130.0 0.00015028
6150.0 0.0001293
6170.0 0.00011374
6190.0 0.000128
6210.0 0.00016922
6230.0 0.00022206
6250.0 0.00024052
6270.0 0.00021018
6290.0 0.00017684
6310.0 0.00013805
6330.0 0.00010577
6350.0 9.4348e-05
6370.0 9.9217e-05
6390.0 0.0001147
6410.0 0.00014143
6430.0 0.00016515
6450.0 0.00018898
6470.0 0.00021638
6490.0 0.00026138
6510.0 0.00029225
6530.0 0.00028672
6550.0 0.00025927
6570.0 0.0002201
6590.0 0.00019847
6610.0 0.00017113
6630.0 0.00015504
6650.0 0.00014655
6670.0 0.00014237
6690.0 0.00012864
6710.0 0.00011694
6730.0 8.4229e-05
6750.0 8.3505e-05
6770.0 9.0764e-05
6790.0 0.00010433
6810.0 9.546e-05
6830.0 9.8298e-05
6850.0 9.194e-05
6870.0 8.3987e-05
6890.0 8.064e-05
6910.0 8.5933e-05
6930.0 8.0488e-05
6950.0 8.2809e-05
6970.0 8.71e-05
6990.0 9.8865e-05
7010.0 9.9707e-05
7030.0 0.00010129
7050.0 9.6597e-05
7070.0 9.204e-05
7090.0 9.231e-05
7110.0 9.498e-05
7130.0 0.00010221
7150.0 0.00010856
7170.0 0.00011979
7190.0 0.00013168
7210.0 0.00012939
7230.0 0.00013302
7250.0 0.00014295
7270.0 0.00015578
7290.0 0.00018489
7310.0 0.00020063
7330.0 0.00019392
7350.0 0.00017539
7370.0 0.00015261
7390.0 0.00014805
7410.0 0.00015733
7430.0 0.00017485
7450.0 0.00019044
7470.0 0.0001887
7490.0 0.00017205
7510.0 0.00019489
7530.0 0.00019276
7550.0 0.00017326
7570.0 0.00013535
7590.0 9.3045e-05
7610.0 7.9861e-05
7630.0 9.0737e-05
7650.0 0.00010728
7670.0 0.00013352
7690.0 0.00014693
7710.0 0.00015312
7730.0 0.00016091
7750.0 0.00018064
7770.0 0.00018348
7790.0 0.00016853
7810.0 0.00015378
7830.0 0.00015858
7850.0 0.00015415
7870.0 0.00014133
7890.0 0.00011875
7910.0 9.6525e-05
7930.0 9.2167e-05
7950.0 8.3967e-05
7970.0 7.7726e-05
7990.0 7.7282e-05
8010.0 5.7238e-06
8030.0 5.6493e-06
8050.0 5.5732e-06
8070.0 5.6461e-06
8090.0 6.0666e-06
8110.0 5.9633e-06
8130.0 4.9189e-06
8150.0 4.7905e-06
8170.0 4.1263e-06
8190.0 3.9105e-06
8210.0 5.0782e-06
8230.0 5.6539e-06
8250.0 5.0958e-06
8270.0 4.4352e-06
8290.0 4.3235e-06
8310.0 3.3276e-06
8330.0 2.2428e-06
8350.0 1.5917e-06
8370.0 1.0028e-06
8390.0 1.8331e-06
8410.0 2.1361e-06
8430.0 2.6331e-06
8450.0 3.0919e-06
8470.0 3.8431e-06
8490.0 3.816e-06
8510.0 3.7536e-06
8530.0 3.9174e-06
8550.0 5.2853e-06
8570.0 6.2571e-06
8590.0 6.7513e-06
8610.0 8.5284e-06
8630.0 1.0274e-05
8650.0 1.0747e-05
8670.0 1.1421e-05
8690.0 1.1485e-05
8710.0 1.0401e-05
8730.0 9.6749e-06
8750.0 8.5399e-06
8770.0 8.1031e-06
8790.0 7.9609e-06
8810.0 7.6283e-06
8830.0 6.1e-06
8850.0 4.4656e-06
8870.0 3.4193e-06
8890.0 3.3429e-06
8910.0 3.831e-06
8930.0 4.3575e-06
8950.0 4.4409e-06
8970.0 4.4619e-06
8990.0 3.9795e-06
9010.0 4.1703e-05
9030.0 3.7788e-05
9050.0 3.797e-05
9070.0 3.827e-05
9090.0 3.8533e-05
9110.0 3.8857e-05
9130.0 3.9108e-05
9150.0 3.9303e-05
9170.0 3.951e-05
9190.0 3.9732e-05
9210.0 3.9965e-05
9230.0 4.0212e-05
9250.0 4.0462e-05
9270.0 4.0721e-05
9290.0 4.0989e-05
9310.0 4.1258e-05
9330.0 4.1532e-05
9350.0 4.1817e-05
9370.0 4.2105e-05
9390.0 4.2396e-05
9410.0 4.2695e-05
9430.0 4.3004e-05
9450.0 4.3311e-05
9470.0 4.3624e-05
9490.0 4.3947e-05
9510.0 4.4273e-05
9530.0 4.4601e-05
9550.0 4.4941e-05
9570.0 4.5286e-05
9590.0 4.5632e-05
9610.0 4.5984e-05
9630.0 4.6346e-05
9650.0 4.6711e-05
9670.0 4.7076e-05
9690.0 4.7451e-05
9710.0 4.7832e-05
9730.0 4.8214e-05
9750.0 4.8602e-05
9770.0 4.9001e-05
9790.0 4.9399e-05
9810.0 4.9799e-05
9830.0 5.0208e-05
9850.0 5.0622e-05
9870.0 5.1035e-05
9890.0 5.1454e-05
9910.0 5.1881e-05
9930.0 5.2308e-05
9950.0 5.2737e-05
9970.0 5.3175e-05
9990.0 5.3617e-05
10010.0 4.6525e-05
10030.0 4.6907e-05
10050.0 4.7297e-05
10070.0 4.77e-05
10090.0 4.808e-05
10110.0 4.8469e-05
10130.0 4.886e-05
10150.0 4.925e-05
10170.0 4.9644e-05
10190.0 5.0045e-05
10210.0 5.0442e-05
10230.0 5.0837e-05
10250.0 5.1239e-05
10270.0 5.164e-05
10290.0 5.2036e-05
10310.0 5.2438e-05
10330.0 5.2843e-05
10350.0 5.3241e-05
10370.0 5.3639e-05
10390.0 5.404e-05
10410.0 5.444e-05
10430.0 5.4832e-05
10450.0 5.5228e-05
10470.0 5.5625e-05
10490.0 5.6015e-05
10510.0 5.6403e-05
10530.0 5.6797e-05
10550.0 5.7184e-05
10570.0 5.7564e-05
10590.0 5.7945e-05
10610.0 5.8326e-05
10630.0 5.8697e-05
10650.0 5.9066e-05
10670.0 5.9439e-05
10690.0 5.9804e-05
10710.0 6.0161e-05
10730.0 6.0519e-05
10750.0 6.0878e-05
10770.0 6.1222e-05
10790.0 6.1563e-05
10810.0 6.1904e-05
10830.0 6.2234e-05
10850.0 6.2548e-05
10870.0 6.2851e-05
10890.0 6.3119e-05
10910.0 6.3324e-05
10930.0 6.3441e-05
10950.0 6.3414e-05
10970.0 6.3199e-05
10990.0 6.2777e-05
11010.0 6.2072e-05
11030.0 6.1085e-05
11050.0 5.9881e-05
11070.0 5.8442e-05
11090.0 5.6713e-05
11110.0 5.4925e-05
11130.0 5.3059e-05
11150.0 5.105e-05
11170.0 4.898e-05
11190.0 4.6971e-05
11210.0 4.4897e-05
11230.0 4.277e-05
11250.0 4.0738e-05
11270.0 3.8786e-05
11290.0 3.6831e-05
11310.0 3.4978e-05
11330.0 3.3347e-05
11350.0 3.1806e-05
11370.0 3.0382e-05
11390.0 2.915e-05
11410.0 2.8072e-05
11430.0 2.7071e-05
11450.0 2.6208e-05
11470.0 2.5462e-05
11490.0 2.4768e-05
11510.0 2.4099e-05
11530.0 2.3478e-05
11550.0 2.2861e-05
11570.0 2.2203e-05
11590.0 2.1522e-05
11610.0 2.0829e-05
11630.0 2.0074e-05
11650.0 1.9266e-05
11670.0 1.8469e-05
11690.0 1.7662e-05
11710.0 1.6828e-05
11730.0 1.6021e-05
11750.0 1.5274e-05
11770.0 1.4541e-05
11790.0 1.3855e-05
11810.0 1.325e-05
11830.0 1.2709e-05
11850.0 1.2211e-05
11870.0 1.1795e-05
11890.0 1.1449e-05
11910.0 1.1144e-05
11930.0 1.0883e-05
11950.0 1.0665e-05
11970.0 1.0471e-05
11990.0 1.0287e-05
12010.0 1.0116e-05
12030.0 9.9525e-06
12050.0 9.783e-06
12070.0 9.6066e-06
12090.0 9.4367e-06
12110.0 9.2641e-06
12130.0 9.0912e-06
12150.0 8.9318e-06
12170.0 8.7927e-06
12190.0 8.6723e-06
12210.0 8.5884e-06
12230.0 8.5478e-06
12250.0 8.5543e-06
12270.0 8.6188e-06
12290.0 8.7407e-06
12310.0 8.9156e-06
12330.0 9.1604e-06
12350.0 9.4658e-06
12370.0 9.8135e-06
12390.0 1.0214e-05
12410.0 1.0684e-05
12430.0 1.1162e-05
12450.0 1.1656e-05
12470.0 1.2182e-05
12490.0 1.271e-05
12510.0 1.3205e-05
12530.0 1.3698e-05
12550.0 1.4173e-05
12570.0 1.4593e-05
12590.0 1.4962e-05
12610.0 1.529e-05
12630.0 1.5552e-05
12650.0 1.5732e-05
12670.0 1.5851e-05
12690.0 1.5899e-05
12710.0 1.5872e-05
12730.0 1.578e-05
12750.0 1.5616e-05
12770.0 1.5391e-05
12790.0 1.5118e-05
12810.0 1.4792e-05
12830.0 1.4414e-05
12850.0 1.4019e-05
12870.0 1.3602e-05
12890.0 1.3151e-05
12910.0 1.2692e-05
12930.0 1.2239e-05
12950.0 1.1767e-05
12970.0 1.1286e-05
12990.0 1.0832e-05
13010.0 1.0383e-05
13030.0 9.9289e-06
13050.0 9.4928e-06
13070.0 9.0844e-06
13090.0 8.6745e-06
13110.0 8.2779e-06
13130.0 7.9123e-06
13150.0 7.566e-06
13170.0 7.227e-06
13190.0 6.9253e-06
13210.0 6.6598e-06
13230.0 6.4171e-06
13250.0 6.2081e-06
13270.0 6.0432e-06
13290.0 5.915e-06
13310.0 5.8267e-06
13330.0 5.7864e-06
13350.0 5.7911e-06
13370.0 5.843e-06
13390.0 5.9451e-06
13410.0 6.083e-06
13430.0 6.2622e-06
13450.0 6.4836e-06
13470.0 6.7294e-06
13490.0 6.9898e-06
13510.0 7.2834e-06
13530.0 7.581e-06
13550.0 7.8659e-06
13570.0 8.1469e-06
13590.0 8.4207e-06
13610.0 8.6642e-06
13630.0 8.8768e-06
13650.0 9.071e-06
13670.0 9.2321e-06
13690.0 9.3567e-06
13710.0 9.4531e-06
13730.0 9.5219e-06
13750.0 9.5563e-06
13770.0 9.5642e-06
13790.0 9.5468e-06
13810.0 9.5046e-06
13830.0 9.4424e-06
13850.0 9.358e-06
13870.0 9.2516e-06
13890.0 9.1299e-06
13910.0 8.9928e-06
13930.0 8.834e-06
13950.0 8.6607e-06
13970.0 8.4835e-06
13990.0 8.2905e-06
14010.0 8.0853e-06
14030.0 7.8806e-06
14050.0 7.6743e-06
14070.0 7.4566e-06
14090.0 7.2479e-06
14110.0 7.0518e-06
14130.0 6.8617e-06
14150.0 6.6828e-06
14170.0 6.5301e-06
14190.0 6.398e-06
14210.0 6.286e-06
14230.0 6.203e-06
14250.0 6.1494e-06
14270.0 6.1234e-06
14290.0 6.129e-06
14310.0 6.1631e-06
14330.0 6.2245e-06
14350.0 6.3148e-06
14370.0 6.4272e-06
14390.0 6.555e-06
14410.0 6.7054e-06
14430.0 6.8706e-06
14450.0 7.0393e-06
14470.0 7.2144e-06
14490.0 7.4005e-06
14510.0 7.5785e-06
14530.0 7.7476e-06
14550.0 7.9166e-06
14570.0 8.0788e-06
14590.0 8.2265e-06
14610.0 8.3693e-06
14630.0 8.5107e-06
14650.0 8.6424e-06
14670.0 8.7695e-06
14690.0 8.902e-06
14710.0 9.0414e-06
14730.0 9.1808e-06
14750.0 9.3352e-06
14770.0 9.5104e-06
14790.0 9.7002e-06
14810.0 9.906e-06
14830.0 1.015e-05
14850.0 1.0415e-05
14870.0 1.0691e-05
14890.0 1.0989e-05
14910.0 1.1306e-05
14930.0 1.1611e-05
14950.0 1.1895e-05
14970.0 1.2165e-05
14990.0 1.2391e-05
15010.0 1.2563e-05
15030.0 1.2691e-05
15050.0 1.2776e-05
15070.0 1.2817e-05
15090.0 1.2832e-05
15110.0 1.2828e-05
15130.0 1.2811e-05
15150.0 1.279e-05
15170.0 1.2764e-05
15190.0 1.2737e-05
15210.0 1.271e-05
15230.0 1.2683e-05
15250.0 1.2654e-05
15270.0 1.2627e-05
15290.0 1.2601e-05
15310.0 1.2574e-05
15330.0 1.2546e-05
15350.0 1.252e-05
15370.0 1.2494e-05
15390.0 1.2467e-05
15410.0 1.2441e-05
15430.0 1.2415e-05
15450.0 1.2389e-05
15470.0 1.2363e-05
15490.0 1.2337e-05
15510.0 1.2312e-05
15530.0 1.2286e-05
15550.0 1.2261e-05
15570.0 1.2236e-05
15590.0 1.2211e-05
15610.0 1.2185e-05
15630.0 1.216e-05
15650.0 1.2135e-05
15670.0 1.211e-05
15690.0 1.2085e-05
15710.0 1.2061e-05
15730.0 1.2036e-05
15750.0 1.2011e-05
15770.0 1.1987e-05
15790.0 1.1963e-05
15810.0 1.1938e-05
15830.0 1.1914e-05
15850.0 1.189e-05
15870.0 1.1866e-05
15890.0 1.1841e-05
15910.0 1.1818e-05
15930.0 1.1794e-05
15950.0 1.1769e-05
15970.0 1.1745e-05
15990.0 1.1721e-05
16010.0 1.1697e-05
16030.0 1.1672e-05
16050.0 1.1649e-05
16070.0 1.1626e-05
16090.0 1.1601e-05
16110.0 1.1578e-05
16130.0 1.1555e-05
16150.0 1.153e-05
16170.0 1.1506e-05
16190.0 1.1482e-05
16210.0 1.1459e-05
16230.0 1.1434e-05
16250.0 1.1411e-05
16270.0 1.1387e-05
16290.0 1.1363e-05
16310.0 1.1339e-05
16330.0 1.1316e-05
16350.0 1.1292e-05
16370.0 1.1267e-05
16390.0 1.1243e-05
16410.0 1.122e-05
16430.0 1.1195e-05
16450.0 1.1171e-05
16470.0 1.1148e-05
16490.0 1.1124e-05
16510.0 1.1099e-05
16530.0 1.1075e-05
16550.0 1.1052e-05
16570.0 1.1027e-05
16590.0 1.1002e-05
16610.0 1.0979e-05
16630.0 1.0954e-05
16650.0 1.0929e-05
16670.0 1.0905e-05
16690.0 1.0882e-05
16710.0 1.0856e-05
16730.0 1.0831e-05
16750.0 1.0807e-05
16770.0 1.0782e-05
16790.0 1.0757e-05
16810.0 1.0733e-05
16830.0 1.0709e-05
16850.0 1.0683e-05
16870.0 1.0658e-05
16890.0 1.0634e-05
16910.0 1.0608e-05
16930.0 1.0583e-05
16950.0 1.0558e-05
16970.0 1.0533e-05
16990.0 1.0507e-05
17010.0 1.0482e-05
17030.0 1.0457e-05
17050.0 1.0431e-05
17070.0 1.0406e-05
17090.0 1.038e-05
17110.0 1.0355e-05
17130.0 1.0328e-05
17150.0 1.0303e-05
17170.0 1.0277e-05
17190.0 1.0251e-05
17210.0 1.0225e-05
17230.0 1.02e-05
17250.0 1.0174e-05
17270.0 1.0146e-05
17290.0 1.012e-05
17310.0 1.0095e-05
17330.0 1.0068e-05
17350.0 1.0041e-05
17370.0 1.0015e-05
17390.0 9.9885e-06
17410.0 9.9613e-06
17430.0 9.9349e-06
17450.0 9.9089e-06
17470.0 9.881e-06
17490.0 9.8537e-06
17510.0 9.8274e-06
17530.0 9.8003e-06
17550.0 9.7725e-06
17570.0 9.7458e-06
17590.0 9.7192e-06
17610.0 9.6913e-06
17630.0 9.6637e-06
17650.0 9.6369e-06
17670.0 9.6094e-06
17690.0 9.5806e-06
17710.0 9.5536e-06
17730.0 9.5263e-06
17750.0 9.4981e-06
17770.0 9.4702e-06
17790.0 9.4433e-06
17810.0 9.415e-06
17830.0 9.3864e-06
17850.0 9.3588e-06
17870.0 9.331e-06
17890.0 9.3021e-06
17910.0 9.2736e-06
17930.0 9.2463e-06
17950.0 9.2178e-06
17970.0 9.189e-06
17990.0 9.1612e-06
18010.0 9.1332e-06
18030.0 9.1036e-06
18050.0 9.075e-06
18070.0 9.047e-06
18090.0 9.0181e-06
18110.0 8.9887e-06
18130.0 8.9607e-06
18150.0 8.9322e-06
18170.0 8.9028e-06
18190.0 8.874e-06
18210.0 8.8458e-06
18230.0 8.8163e-06
18250.0 8.7865e-06
18270.0 8.7581e-06
18290.0 8.7292e-06
18310.0 8.6995e-06
18330.0 8.6705e-06
18350.0 8.6422e-06
18370.0 8.6124e-06
18390.0 8.5828e-06
18410.0 8.554e-06
18430.0 8.5248e-06
18450.0 8.4944e-06
18470.0 8.4653e-06
18490.0 8.4365e-06
18510.0 8.4067e-06
18530.0 8.377e-06
18550.0 8.3483e-06
18570.0 8.3188e-06
18590.0 8.2884e-06
18610.0 8.259e-06
18630.0 8.2299e-06
18650.0 8.1998e-06
18670.0 8.1696e-06
18690.0 8.1409e-06
18710.0 8.1113e-06
18730.0 8.081e-06
18750.0 8.0517e-06
18770.0 8.0227e-06
18790.0 7.9918e-06
18810.0 7.9618e-06
18830.0 7.9327e-06
18850.0 7.9029e-06
18870.0 7.8724e-06
18890.0 7.8431e-06
18910.0 7.8139e-06
18930.0 7.7834e-06
18950.0 7.7535e-06
18970.0 7.7243e-06
18990.0 7.6943e-06
19010.0 7.6632e-06
19030.0 7.6341e-06
19050.0 7.6046e-06
19070.0 7.5743e-06
19090.0 7.5443e-06
19110.0 7.5154e-06
19130.0 7.4851e-06
19150.0 7.4546e-06
19170.0 7.4251e-06
19190.0 7.3956e-06
19210.0 7.3649e-06
19230.0 7.3348e-06
19250.0 7.3058e-06
19270.0 7.2758e-06
19290.0 7.2455e-06
19310.0 7.2162e-06
19330.0 7.1868e-06
19350.0 7.1558e-06
19370.0 7.126e-06
19390.0 7.0967e-06
19410.0 7.0666e-06
19430.0 7.0362e-06
19450.0 7.0071e-06
19470.0 6.9776e-06
19490.0 6.9472e-06
19510.0 6.9175e-06
19530.0 6.8884e-06
19550.0 6.858e-06
19570.0 6.8275e-06
19590.0 6.7985e-06
19610.0 6.7689e-06
19630.0 6.7386e-06
19650.0 6.7091e-06
19670.0 6.6802e-06
19690.0 6.6499e-06
19710.0 6.6199e-06
19730.0 6.5908e-06
19750.0 6.5612e-06
19770.0 6.5306e-06
19790.0 6.5012e-06
19810.0 6.4722e-06
19830.0 6.4421e-06
19850.0 6.4119e-06
19870.0 6.3822e-06
19890.0 6.3503e-06
19910.0 6.3153e-06
19930.0 6.2778e-06
19950.0 6.235e-06
19970.0 6.1822e-06
19990.0 6.1187e-06
20010.0 5.4437e-06
20030.0 5.365e-06
20050.0 5.2727e-06
20070.0 5.1729e-06
20090.0 5.0654e-06
20110.0 4.9438e-06
20130.0 4.8207e-06
20150.0 4.6988e-06
20170.0 4.5723e-06
20190.0 4.444e-06
20210.0 4.3229e-06
20230.0 4.2047e-06
20250.0 4.0863e-06
20270.0 3.9764e-06
20290.0 3.8761e-06
20310.0 3.7807e-06
20330.0 3.6916e-06
20350.0 3.6176e-06
20370.0 3.552e-06
20390.0 3.4944e-06
20410.0 3.4479e-06
20430.0 3.4121e-06
20450.0 3.3837e-06
20470.0 3.3646e-06
20490.0 3.3544e-06
20510.0 3.3515e-06
20530.0 3.3556e-06
20550.0 3.366e-06
20570.0 3.381e-06
20590.0 3.4014e-06
20610.0 3.4262e-06
20630.0 3.4534e-06
20650.0 3.4838e-06
20670.0 3.5186e-06
20690.0 3.5541e-06
20710.0 3.5908e-06
20730.0 3.6304e-06
20750.0 3.6717e-06
20770.0 3.7123e-06
20790.0 3.755e-06
20810.0 3.8001e-06
20830.0 3.845e-06
20850.0 3.8901e-06
20870.0 3.9384e-06
20890.0 3.9877e-06
20910.0 4.0352e-06
20930.0 4.0845e-06
20950.0 4.1356e-06
20970.0 4.1854e-06
20990.0 4.2345e-06
21010.0 4.2861e-06
21030.0 4.3367e-06
21050.0 4.3849e-06
21070.0 4.433e-06
21090.0 4.4813e-06
21110.0 4.5253e-06
21130.0 4.5666e-06
21150.0 4.6067e-06
21170.0 4.643e-06
21190.0 4.6742e-06
21210.0 4.7023e-06
21230.0 4.7256e-06
21250.0 4.7423e-06
21270.0 4.7528e-06
21290.0 4.7568e-06
21310.0 4.753e-06
21330.0 4.7418e-06
21350.0 4.7221e-06
21370.0 4.6932e-06
21390.0 4.6564e-06
21410.0 4.6114e-06
21430.0 4.5544e-06
21450.0 4.4905e-06
21470.0 4.4208e-06
21490.0 4.342e-06
21510.0 4.2555e-06
21530.0 4.1677e-06
21550.0 4.0757e-06
21570.0 3.9776e-06
21590.0 3.8811e-06
21610.0 3.7879e-06
21630.0 3.6945e-06
21650.0 3.6033e-06
21670.0 3.5243e-06
21690.0 3.4514e-06
21710.0 3.3857e-06
21730.0 3.3319e-06
21750.0 3.2904e-06
21770.0 3.2588e-06
21790.0 3.2407e-06
21810.0 3.2356e-06
21830.0 3.2428e-06
21850.0 3.2631e-06
21870.0 3.2947e-06
21890.0 3.3355e-06
21910.0 3.3879e-06
21930.0 3.4493e-06
21950.0 3.5159e-06
21970.0 3.5896e-06
21990.0 3.6723e-06
22010.0 3.755e-06
22030.0 3.839e-06
22050.0 3.9272e-06
22070.0 4.0159e-06
22090.0 4.0999e-06
22110.0 4.1846e-06
22130.0 4.2691e-06
22150.0 4.348e-06
22170.0 4.4225e-06
22190.0 4.4962e-06
22210.0 4.5648e-06
22230.0 4.6253e-06
22250.0 4.6821e-06
22270.0 4.7345e-06
22290.0 4.7793e-06
22310.0 4.8177e-06
22330.0 4.8515e-06
22350.0 4.8777e-06
22370.0 4.8961e-06
22390.0 4.9076e-06
22410.0 4.9113e-06
22430.0 4.9066e-06
22450.0 4.894e-06
22470.0 4.8721e-06
22490.0 4.8414e-06
22510.0 4.8032e-06
22530.0 4.7543e-06
22550.0 4.6948e-06
22570.0 4.6288e-06
22590.0 4.5543e-06
22610.0 4.4687e-06
22630.0 4.376e-06
