#lamb flux
1010.0 1.8132e-09
1030.0 2.2594e-09
1050.0 2.7567e-09
1070.0 3.2961e-09
1090.0 3.8841e-09
1110.0 4.4511e-09
1130.0 4.9815e-09
1150.0 5.4993e-09
1170.0 5.9929e-09
1190.0 6.4103e-09
1210.0 6.8009e-09
1230.0 7.1827e-09
1250.0 7.5341e-09
1270.0 7.8654e-09
1290.0 8.2382e-09
1310.0 8.637e-09
1330.0 9.0568e-09
1350.0 9.5417e-09
1370.0 1.0116e-08
1390.0 1.076e-08
1410.0 1.1476e-08
1430.0 1.2308e-08
1450.0 1.323e-08
1470.0 1.4218e-08
1490.0 1.5286e-08
1510.0 1.6455e-08
1530.0 1.7643e-08
1550.0 1.8861e-08
1570.0 2.0125e-08
1590.0 2.1406e-08
1610.0 2.2658e-08
1630.0 2.3925e-08
1650.0 2.52e-08
1670.0 2.6432e-08
1690.0 2.7631e-08
1710.0 2.8834e-08
1730.0 3.0015e-08
1750.0 3.1121e-08
1770.0 3.2221e-08
1790.0 3.3312e-08
1810.0 3.4351e-08
1830.0 3.5352e-08
1850.0 3.6277e-08
1870.0 3.7076e-08
1890.0 3.7857e-08
1910.0 3.8664e-08
1930.0 3.95e-08
1950.0 4.0317e-08
1970.0 4.1134e-08
1990.0 4.1983e-08
2010.0 4.2821e-08
2030.0 4.3632e-08
2050.0 4.447e-08
2070.0 4.535e-08
2090.0 4.6192e-08
2110.0 4.7041e-08
2130.0 4.7922e-08
2150.0 4.8797e-08
2170.0 4.9645e-08
2190.0 5.0531e-08
2210.0 5.1356e-08
2230.0 5.2063e-08
2250.0 5.2764e-08
2270.0 5.3502e-08
2290.0 5.4216e-08
2310.0 5.4899e-08
2330.0 5.5611e-08
2350.0 5.6333e-08
2370.0 5.7026e-08
2390.0 5.7732e-08
2410.0 5.8483e-08
2430.0 5.9228e-08
2450.0 5.9994e-08
2470.0 6.0866e-08
2490.0 6.1912e-08
2510.0 6.3149e-08
2530.0 6.4795e-08
2550.0 6.7118e-08
2570.0 7.0271e-08
2590.0 7.4462e-08
2610.0 8.0461e-08
2630.0 8.8404e-08
2650.0 9.8087e-08
2670.0 1.1e-07
2690.0 1.2438e-07
2710.0 1.4007e-07
2730.0 1.5654e-07
2750.0 1.7431e-07
2770.0 1.9193e-07
2790.0 2.0835e-07
2810.0 2.2383e-07
2830.0 2.3838e-07
2850.0 2.5073e-07
2870.0 2.6177e-07
2890.0 2.7215e-07
2910.0 2.8194e-07
2930.0 2.9134e-07
2950.0 3.0103e-07
2970.0 3.1114e-07
2990.0 3.2152e-07
3010.0 3.3235e-07
3030.0 3.439e-07
3050.0 3.56e-07
3070.0 3.6834e-07
3090.0 3.8139e-07
3110.0 3.9524e-07
3130.0 4.1007e-07
3150.0 4.2747e-07
3170.0 4.4927e-07
3190.0 4.775e-07
3210.0 5.1417e-07
3230.0 5.6244e-07
3250.0 6.2231e-07
3270.0 6.7728e-07
3290.0 7.678e-07
3310.0 9.5986e-07
3330.0 1.0228e-06
3350.0 1.0532e-06
3370.0 1.0822e-06
3390.0 1.1118e-06
3410.0 1.142e-06
3430.0 1.1726e-06
3450.0 1.2033e-06
3470.0 1.2334e-06
3490.0 1.2627e-06
3510.0 1.291e-06
3530.0 1.2813e-06
3550.0 1.2456e-06
3570.0 1.2612e-06
3590.0 1.3336e-06
3610.0 1.4508e-06
3630.0 1.489e-06
3650.0 1.4272e-06
3670.0 1.3144e-06
3690.0 1.2527e-06
3710.0 1.2731e-06
3730.0 1.315e-06
3750.0 1.337e-06
3770.0 1.382e-06
3790.0 1.4325e-06
3810.0 1.4087e-06
3830.0 1.3134e-06
3850.0 1.2306e-06
3870.0 1.1916e-06
3890.0 1.175e-06
3910.0 1.1462e-06
3930.0 1.1328e-06
3950.0 1.1637e-06
3970.0 1.1999e-06
3990.0 1.2119e-06
4010.0 1.1653e-06
4030.0 1.1019e-06
4050.0 1.0619e-06
4070.0 1.0279e-06
4090.0 9.994e-07
4110.0 9.6153e-07
4130.0 9.0346e-07
4150.0 8.4581e-07
4170.0 8.1167e-07
4190.0 7.5554e-07
4210.0 6.8438e-07
4230.0 6.1201e-07
4250.0 5.4392e-07
4270.0 4.9381e-07
4290.0 4.5512e-07
4310.0 4.3498e-07
4330.0 4.3438e-07
4350.0 4.3408e-07
4370.0 4.3827e-07
4390.0 4.5297e-07
4410.0 4.6324e-07
4430.0 4.4559e-07
4450.0 4.052e-07
4470.0 3.7065e-07
4490.0 3.5114e-07
4510.0 3.3906e-07
4530.0 3.3318e-07
4550.0 3.283e-07
4570.0 3.2708e-07
4590.0 3.3154e-07
4610.0 3.4313e-07
4630.0 3.5007e-07
4650.0 3.5407e-07
4670.0 3.4543e-07
4690.0 3.2556e-07
4710.0 3.054e-07
4730.0 2.9292e-07
4750.0 2.8513e-07
4770.0 2.8572e-07
4790.0 2.8464e-07
4810.0 2.785e-07
4830.0 2.7837e-07
4850.0 2.8734e-07
4870.0 2.9e-07
4890.0 2.8467e-07
4910.0 2.787e-07
4930.0 2.6298e-07
4950.0 2.3941e-07
4970.0 2.2387e-07
4990.0 2.1112e-07
5010.0 2.0824e-07
5030.0 2.153e-07
5050.0 2.2091e-07
5070.0 2.2912e-07
5090.0 2.43e-07
5110.0 2.4679e-07
5130.0 2.4889e-07
5150.0 2.5364e-07
5170.0 2.5546e-07
5190.0 2.622e-07
5210.0 2.6363e-07
5230.0 2.6083e-07
5250.0 2.6318e-07
5270.0 2.6703e-07
5290.0 2.6784e-07
5310.0 2.6578e-07
5330.0 2.608e-07
5350.0 2.5692e-07
5370.0 2.5426e-07
5390.0 2.5108e-07
5410.0 2.4822e-07
5430.0 2.4836e-07
5450.0 2.5173e-07
5470.0 2.5639e-07
5490.0 2.6269e-07
5510.0 2.7074e-07
5530.0 2.7402e-07
5550.0 2.7844e-07
5570.0 2.7838e-07
5590.0 2.7168e-07
5610.0 2.6963e-07
5630.0 2.7203e-07
5650.0 2.686e-07
5670.0 2.6262e-07
5690.0 2.5437e-07
5710.0 2.5433e-07
5730.0 2.5668e-07
5750.0 2.4561e-07
5770.0 2.3312e-07
5790.0 2.1327e-07
5810.0 1.8558e-07
5830.0 2.0077e-07
5850.0 2.2376e-07
5870.0 2.2925e-07
5890.0 2.3055e-07
5910.0 2.3172e-07
5930.0 2.315e-07
5950.0 2.2732e-07
5970.0 2.2452e-07
5990.0 2.2087e-07
6010.0 2.1427e-07
6030.0 2.0667e-07
6050.0 2.035e-07
6070.0 2.032e-07
6090.0 1.9969e-07
6110.0 1.9274e-07
6130.0 1.8643e-07
6150.0 1.7879e-07
6170.0 1.7105e-07
6190.0 1.6432e-07
6210.0 1.5833e-07
6230.0 1.557e-07
6250.0 1.524e-07
6270.0 1.4921e-07
6290.0 1.4763e-07
6310.0 1.4614e-07
6330.0 1.4278e-07
6350.0 1.3819e-07
6370.0 1.3531e-07
6390.0 1.3318e-07
6410.0 1.292e-07
6430.0 1.2592e-07
6450.0 1.2295e-07
6470.0 1.201e-07
6490.0 1.1813e-07
6510.0 1.1657e-07
6530.0 1.1344e-07
6550.0 1.1091e-07
6570.0 1.0948e-07
6590.0 1.0897e-07
6610.0 1.0824e-07
6630.0 1.045e-07
6650.0 1.0177e-07
6670.0 1.0087e-07
6690.0 9.9364e-08
6710.0 9.7085e-08
6730.0 9.6331e-08
6750.0 9.708e-08
6770.0 1.0329e-07
6790.0 1.1682e-07
6810.0 1.1065e-07
6830.0 9.6193e-08
6850.0 9.2665e-08
6870.0 9.1232e-08
6890.0 9.1289e-08
6910.0 9.1509e-08
6930.0 9.1844e-08
6950.0 9.1333e-08
6970.0 8.9032e-08
6990.0 8.8225e-08
7010.0 8.9584e-08
7030.0 8.9802e-08
7050.0 8.8479e-08
7070.0 8.8138e-08
7090.0 8.9218e-08
7110.0 9.1237e-08
7130.0 9.155e-08
7150.0 9.1775e-08
7170.0 9.2278e-08
7190.0 9.3606e-08
7210.0 9.4389e-08
7230.0 9.4958e-08
7250.0 9.6281e-08
7270.0 9.7125e-08
7290.0 9.8459e-08
7310.0 1.0067e-07
7330.0 9.9974e-08
7350.0 9.795e-08
7370.0 9.626e-08
7390.0 9.5588e-08
7410.0 9.664e-08
7430.0 9.7747e-08
7450.0 9.8394e-08
7470.0 9.9394e-08
7490.0 9.8715e-08
7510.0 9.7951e-08
7530.0 9.8866e-08
7550.0 1.0286e-07
7570.0 1.0252e-07
7590.0 9.7059e-08
7610.0 9.5681e-08
7630.0 1.0151e-07
7650.0 1.0323e-07
7670.0 1.047e-07
7690.0 1.0918e-07
7710.0 1.1282e-07
7730.0 1.1372e-07
7750.0 1.1984e-07
7770.0 1.164e-07
7790.0 1.1329e-07
7810.0 1.2056e-07
7830.0 1.2479e-07
7850.0 1.2859e-07
7870.0 1.3059e-07
7890.0 1.3195e-07
7910.0 1.3096e-07
7930.0 1.3204e-07
7950.0 1.3784e-07
7970.0 1.3793e-07
7990.0 1.284e-07
8010.0 1.2986e-07
8030.0 1.3187e-07
8050.0 1.3436e-07
8070.0 1.2219e-07
8090.0 8.2608e-08
8110.0 8.551e-08
8130.0 1.1944e-07
8150.0 1.2868e-07
8170.0 1.3386e-07
8190.0 1.3721e-07
8210.0 1.3498e-07
8230.0 1.455e-07
8250.0 1.4831e-07
8270.0 1.411e-07
8290.0 1.3595e-07
8310.0 1.3353e-07
8330.0 1.397e-07
8350.0 1.4627e-07
8370.0 1.4396e-07
8390.0 1.374e-07
8410.0 1.3718e-07
8430.0 1.2872e-07
8450.0 1.3092e-07
8470.0 1.4312e-07
8490.0 1.4356e-07
8510.0 1.3306e-07
8530.0 1.2549e-07
8550.0 1.2056e-07
8570.0 1.1322e-07
8590.0 1.1648e-07
8610.0 1.2301e-07
8630.0 1.2667e-07
8650.0 1.288e-07
8670.0 1.2568e-07
8690.0 1.2273e-07
8710.0 1.147e-07
8730.0 1.1037e-07
8750.0 1.1429e-07
8770.0 1.1584e-07
8790.0 1.1622e-07
8810.0 1.1494e-07
8830.0 1.1701e-07
8850.0 1.2312e-07
8870.0 1.1504e-07
8890.0 1.0817e-07
8910.0 1.0664e-07
8930.0 1.0105e-07
8950.0 9.6802e-08
8970.0 9.648e-08
8990.0 9.2448e-08
9010.0 8.6728e-08
9030.0 8.4786e-08
9050.0 8.4101e-08
9070.0 8.3492e-08
9090.0 8.2878e-08
9110.0 8.2262e-08
9130.0 8.1641e-08
9150.0 8.1018e-08
9170.0 8.0393e-08
9190.0 7.9766e-08
9210.0 7.9138e-08
9230.0 7.851e-08
9250.0 7.7882e-08
9270.0 7.7254e-08
9290.0 7.6627e-08
9310.0 7.6007e-08
9330.0 7.5397e-08
9350.0 7.4789e-08
9370.0 7.4183e-08
9390.0 7.358e-08
9410.0 7.2979e-08
9430.0 7.2382e-08
9450.0 7.1788e-08
9470.0 7.12e-08
9490.0 7.0614e-08
9510.0 7.003e-08
9530.0 6.945e-08
9550.0 6.8876e-08
9570.0 6.8306e-08
9590.0 6.7741e-08
9610.0 6.7191e-08
9630.0 6.6647e-08
9650.0 6.6107e-08
9670.0 6.5573e-08
9690.0 6.5043e-08
9710.0 6.4519e-08
9730.0 6.4e-08
9750.0 6.3486e-08
9770.0 6.2978e-08
9790.0 6.2475e-08
9810.0 6.1977e-08
9830.0 6.1485e-08
9850.0 6.0995e-08
9870.0 6.0507e-08
9890.0 6.0036e-08
9910.0 5.9568e-08
9930.0 5.9103e-08
9950.0 5.8644e-08
9970.0 5.8191e-08
9990.0 5.7743e-08
10010.0 5.7299e-08
10030.0 5.6861e-08
10050.0 5.6428e-08
10070.0 5.6001e-08
10090.0 5.5578e-08
10110.0 5.516e-08
10130.0 5.4748e-08
10150.0 5.4341e-08
10170.0 5.3938e-08
10190.0 5.3541e-08
10210.0 5.3148e-08
10230.0 5.276e-08
10250.0 5.2377e-08
10270.0 5.1999e-08
10290.0 5.1625e-08
10310.0 5.1255e-08
10330.0 5.0891e-08
10350.0 5.053e-08
10370.0 5.0174e-08
10390.0 4.9816e-08
10410.0 4.9395e-08
10430.0 4.8955e-08
10450.0 4.8696e-08
10470.0 4.8397e-08
10490.0 4.8093e-08
10510.0 4.7784e-08
10530.0 4.7462e-08
10550.0 4.7144e-08
10570.0 4.6834e-08
10590.0 4.6521e-08
10610.0 4.6208e-08
10630.0 4.5906e-08
10650.0 4.5606e-08
10670.0 4.5302e-08
10690.0 4.5005e-08
10710.0 4.4716e-08
10730.0 4.4424e-08
10750.0 4.4131e-08
10770.0 4.3851e-08
10790.0 4.3573e-08
10810.0 4.3291e-08
10830.0 4.3016e-08
10850.0 4.2749e-08
10870.0 4.2474e-08
10890.0 4.2201e-08
10910.0 4.1937e-08
10930.0 4.1671e-08
10950.0 4.1397e-08
10970.0 4.1124e-08
10990.0 4.0855e-08
11010.0 3.6261e-08
11030.0 3.5996e-08
11050.0 3.5735e-08
11070.0 3.5471e-08
11090.0 3.5193e-08
11110.0 3.4923e-08
11130.0 3.4654e-08
11150.0 3.4375e-08
11170.0 3.4093e-08
11190.0 3.382e-08
11210.0 3.354e-08
11230.0 3.3254e-08
11250.0 3.2977e-08
11270.0 3.2708e-08
11290.0 3.2435e-08
11310.0 3.2169e-08
11330.0 3.1925e-08
11350.0 3.1686e-08
11370.0 3.1454e-08
11390.0 3.1239e-08
11410.0 3.1037e-08
11430.0 3.0836e-08
11450.0 3.0648e-08
11470.0 3.0471e-08
11490.0 3.0296e-08
11510.0 3.0121e-08
11530.0 2.9953e-08
11550.0 2.9788e-08
11570.0 2.9615e-08
11590.0 2.9442e-08
11610.0 2.9271e-08
11630.0 2.9091e-08
11650.0 2.8902e-08
11670.0 2.8717e-08
11690.0 2.8528e-08
11710.0 2.833e-08
11730.0 2.8131e-08
11750.0 2.7937e-08
11770.0 2.7735e-08
11790.0 2.7529e-08
11810.0 2.7331e-08
11830.0 2.7134e-08
11850.0 2.6931e-08
11870.0 2.6737e-08
11890.0 2.6554e-08
11910.0 2.6371e-08
11930.0 2.6193e-08
11950.0 2.603e-08
11970.0 2.5873e-08
11990.0 2.5719e-08
12010.0 2.5579e-08
12030.0 2.5451e-08
12050.0 2.5328e-08
12070.0 2.5213e-08
12090.0 2.5114e-08
12110.0 2.5022e-08
12130.0 2.4934e-08
12150.0 2.4856e-08
12170.0 2.4785e-08
12190.0 2.4715e-08
12210.0 2.4648e-08
12230.0 2.4584e-08
12250.0 2.4518e-08
12270.0 2.4448e-08
12290.0 2.4374e-08
12310.0 2.4296e-08
12330.0 2.4207e-08
12350.0 2.4108e-08
12370.0 2.4002e-08
12390.0 2.3885e-08
12410.0 2.3749e-08
12430.0 2.3608e-08
12450.0 2.3458e-08
12470.0 2.3293e-08
12490.0 2.3118e-08
12510.0 2.2942e-08
12530.0 2.2754e-08
12550.0 2.2554e-08
12570.0 2.2355e-08
12590.0 2.2154e-08
12610.0 2.1943e-08
12630.0 2.173e-08
12650.0 2.1528e-08
12670.0 2.1322e-08
12690.0 2.1114e-08
12710.0 2.0917e-08
12730.0 2.0726e-08
12750.0 2.0531e-08
12770.0 2.0348e-08
12790.0 2.0178e-08
12810.0 2.0013e-08
12830.0 1.9852e-08
12850.0 1.9709e-08
12870.0 1.9576e-08
12890.0 1.9449e-08
12910.0 1.9334e-08
12930.0 1.9234e-08
12950.0 1.9142e-08
12970.0 1.906e-08
12990.0 1.8993e-08
13010.0 1.8938e-08
13030.0 1.8893e-08
13050.0 1.8859e-08
13070.0 1.8835e-08
13090.0 1.8819e-08
13110.0 1.8809e-08
13130.0 1.8804e-08
13150.0 1.8802e-08
13170.0 1.8799e-08
13190.0 1.8793e-08
13210.0 1.8784e-08
13230.0 1.8767e-08
13250.0 1.8741e-08
13270.0 1.8706e-08
13290.0 1.8661e-08
13310.0 1.8601e-08
13330.0 1.8531e-08
13350.0 1.8451e-08
13370.0 1.8357e-08
13390.0 1.825e-08
13410.0 1.8139e-08
13430.0 1.8016e-08
13450.0 1.7881e-08
13470.0 1.774e-08
13490.0 1.7597e-08
13510.0 1.7438e-08
13530.0 1.7274e-08
13550.0 1.7111e-08
13570.0 1.6942e-08
13590.0 1.6764e-08
13610.0 1.6588e-08
13630.0 1.6415e-08
13650.0 1.6232e-08
13670.0 1.6049e-08
13690.0 1.5872e-08
13710.0 1.5692e-08
13730.0 1.5504e-08
13750.0 1.5329e-08
13770.0 1.5157e-08
13790.0 1.4982e-08
13810.0 1.4813e-08
13830.0 1.4654e-08
13850.0 1.4495e-08
13870.0 1.4338e-08
13890.0 1.4192e-08
13910.0 1.4052e-08
13930.0 1.3911e-08
13950.0 1.3777e-08
13970.0 1.3655e-08
13990.0 1.3535e-08
14010.0 1.3417e-08
14030.0 1.3308e-08
14050.0 1.3204e-08
14070.0 1.31e-08
14090.0 1.3003e-08
14110.0 1.2914e-08
14130.0 1.2826e-08
14150.0 1.2741e-08
14170.0 1.2664e-08
14190.0 1.259e-08
14210.0 1.2518e-08
14230.0 1.2449e-08
14250.0 1.2385e-08
14270.0 1.232e-08
14290.0 1.2256e-08
14310.0 1.2197e-08
14330.0 1.2139e-08
14350.0 1.208e-08
14370.0 1.2024e-08
14390.0 1.197e-08
14410.0 1.1914e-08
14430.0 1.1859e-08
14450.0 1.1807e-08
14470.0 1.1754e-08
14490.0 1.17e-08
14510.0 1.1648e-08
14530.0 1.1597e-08
14550.0 1.1545e-08
14570.0 1.1493e-08
14590.0 1.1442e-08
14610.0 1.1389e-08
14630.0 1.1335e-08
14650.0 1.1282e-08
14670.0 1.1229e-08
14690.0 1.1173e-08
14710.0 1.1116e-08
14730.0 1.1062e-08
14750.0 1.1006e-08
14770.0 1.0947e-08
14790.0 1.0889e-08
14810.0 1.0831e-08
14830.0 1.0769e-08
14850.0 1.0706e-08
14870.0 1.0645e-08
14890.0 1.0583e-08
14910.0 1.0519e-08
14930.0 1.0459e-08
14950.0 1.0401e-08
14970.0 1.0345e-08
14990.0 1.0293e-08
15010.0 1.0248e-08
15030.0 1.0207e-08
15050.0 1.0169e-08
15070.0 1.0137e-08
15090.0 1.0108e-08
15110.0 1.0079e-08
15130.0 1.0052e-08
15150.0 1.0026e-08
15170.0 1e-08
15190.0 9.9739e-09
15210.0 9.9485e-09
15230.0 9.9232e-09
15250.0 9.8969e-09
15270.0 9.8709e-09
15290.0 9.8461e-09
15310.0 9.8204e-09
15330.0 9.7945e-09
15350.0 9.7694e-09
15370.0 9.7444e-09
15390.0 9.718e-09
15410.0 9.6924e-09
15430.0 9.6675e-09
15450.0 9.642e-09
15470.0 9.6159e-09
15490.0 9.5911e-09
15510.0 9.5662e-09
15530.0 9.5404e-09
15550.0 9.5151e-09
15570.0 9.4905e-09
15590.0 9.4649e-09
15610.0 9.4389e-09
15630.0 9.4143e-09
15650.0 9.3894e-09
15670.0 9.3638e-09
15690.0 9.3387e-09
15710.0 9.3144e-09
15730.0 9.289e-09
15750.0 9.2636e-09
15770.0 9.2391e-09
15790.0 9.2144e-09
15810.0 9.1886e-09
15830.0 9.1637e-09
15850.0 9.1395e-09
15870.0 9.1144e-09
15890.0 9.0893e-09
15910.0 9.0652e-09
15930.0 9.0406e-09
15950.0 9.0151e-09
15970.0 8.9905e-09
15990.0 8.9663e-09
16010.0 8.9413e-09
16030.0 8.9161e-09
16050.0 8.8922e-09
16070.0 8.8678e-09
16090.0 8.8428e-09
16110.0 8.8186e-09
16130.0 8.7948e-09
16150.0 8.7695e-09
16170.0 8.7447e-09
16190.0 8.7208e-09
16210.0 8.6965e-09
16230.0 8.6716e-09
16250.0 8.6475e-09
16270.0 8.6238e-09
16290.0 8.5991e-09
16310.0 8.5746e-09
16330.0 8.551e-09
16350.0 8.5268e-09
16370.0 8.5015e-09
16390.0 8.4778e-09
16410.0 8.4541e-09
16430.0 8.4296e-09
16450.0 8.4053e-09
16470.0 8.382e-09
16490.0 8.3577e-09
16510.0 8.3331e-09
16530.0 8.3094e-09
16550.0 8.2857e-09
16570.0 8.2611e-09
16590.0 8.2368e-09
16610.0 8.2136e-09
16630.0 8.1896e-09
16650.0 8.1653e-09
16670.0 8.1418e-09
16690.0 8.1184e-09
16710.0 8.0936e-09
16730.0 8.0697e-09
16750.0 8.0464e-09
16770.0 8.0223e-09
16790.0 7.9979e-09
16810.0 7.9747e-09
16830.0 7.9512e-09
16850.0 7.927e-09
16870.0 7.9032e-09
16890.0 7.8801e-09
16910.0 7.8559e-09
16930.0 7.8315e-09
16950.0 7.8083e-09
16970.0 7.7848e-09
16990.0 7.7605e-09
17010.0 7.7369e-09
17030.0 7.714e-09
17050.0 7.6899e-09
17070.0 7.6659e-09
17090.0 7.6426e-09
17110.0 7.6192e-09
17130.0 7.5946e-09
17150.0 7.5711e-09
17170.0 7.548e-09
17190.0 7.5241e-09
17210.0 7.5002e-09
17230.0 7.4773e-09
17250.0 7.4537e-09
17270.0 7.4293e-09
17290.0 7.4059e-09
17310.0 7.3827e-09
17330.0 7.3587e-09
17350.0 7.3345e-09
17370.0 7.3117e-09
17390.0 7.2882e-09
17410.0 7.2641e-09
17430.0 7.2407e-09
17450.0 7.2178e-09
17470.0 7.1933e-09
17490.0 7.1694e-09
17510.0 7.1464e-09
17530.0 7.1228e-09
17550.0 7.0986e-09
17570.0 7.0753e-09
17590.0 7.0523e-09
17610.0 7.0282e-09
17630.0 7.0044e-09
17650.0 6.9814e-09
17670.0 6.9577e-09
17690.0 6.933e-09
17710.0 6.91e-09
17730.0 6.8867e-09
17750.0 6.8627e-09
17770.0 6.839e-09
17790.0 6.8162e-09
17810.0 6.7922e-09
17830.0 6.768e-09
17850.0 6.7447e-09
17870.0 6.7214e-09
17890.0 6.6971e-09
17910.0 6.6732e-09
17930.0 6.6503e-09
17950.0 6.6265e-09
17970.0 6.6024e-09
17990.0 6.5793e-09
18010.0 6.556e-09
18030.0 6.5313e-09
18050.0 6.5077e-09
18070.0 6.4845e-09
18090.0 6.4605e-09
18110.0 6.4363e-09
18130.0 6.4132e-09
18150.0 6.3897e-09
18170.0 6.3655e-09
18190.0 6.3418e-09
18210.0 6.3187e-09
18230.0 6.2945e-09
18250.0 6.27e-09
18270.0 6.2468e-09
18290.0 6.2232e-09
18310.0 6.1989e-09
18330.0 6.1753e-09
18350.0 6.1522e-09
18370.0 6.128e-09
18390.0 6.1038e-09
18410.0 6.0805e-09
18430.0 6.0568e-09
18450.0 6.032e-09
18470.0 6.0084e-09
18490.0 5.9851e-09
18510.0 5.9609e-09
18530.0 5.9368e-09
18550.0 5.9137e-09
18570.0 5.8898e-09
18590.0 5.8651e-09
18610.0 5.8414e-09
18630.0 5.8179e-09
18650.0 5.7935e-09
18670.0 5.7692e-09
18690.0 5.746e-09
18710.0 5.7221e-09
18730.0 5.6977e-09
18750.0 5.674e-09
18770.0 5.6507e-09
18790.0 5.6258e-09
18810.0 5.6015e-09
18830.0 5.5781e-09
18850.0 5.5541e-09
18870.0 5.5295e-09
18890.0 5.5059e-09
18910.0 5.4824e-09
18930.0 5.4578e-09
18950.0 5.4337e-09
18970.0 5.4102e-09
18990.0 5.386e-09
19010.0 5.3609e-09
19030.0 5.3374e-09
19050.0 5.3136e-09
19070.0 5.2891e-09
19090.0 5.265e-09
19110.0 5.2417e-09
19130.0 5.2172e-09
19150.0 5.1925e-09
19170.0 5.1687e-09
19190.0 5.1449e-09
19210.0 5.12e-09
19230.0 5.0957e-09
19250.0 5.0723e-09
19270.0 5.0479e-09
19290.0 5.0234e-09
19310.0 4.9997e-09
19330.0 4.9759e-09
19350.0 4.9507e-09
19370.0 4.9265e-09
19390.0 4.9028e-09
19410.0 4.8783e-09
19430.0 4.8535e-09
19450.0 4.83e-09
19470.0 4.806e-09
19490.0 4.7812e-09
19510.0 4.757e-09
19530.0 4.7333e-09
19550.0 4.7085e-09
19570.0 4.6836e-09
19590.0 4.6599e-09
19610.0 4.6357e-09
19630.0 4.6109e-09
19650.0 4.5868e-09
19670.0 4.5632e-09
19690.0 4.5383e-09
19710.0 4.5137e-09
19730.0 4.4899e-09
19750.0 4.4656e-09
19770.0 4.4403e-09
19790.0 4.4162e-09
19810.0 4.3925e-09
19830.0 4.3678e-09
19850.0 4.3433e-09
19870.0 4.3199e-09
19890.0 4.2959e-09
19910.0 4.2717e-09
19930.0 4.2493e-09
19950.0 4.2282e-09
19970.0 4.208e-09
19990.0 4.1901e-09
20010.0 4.1753e-09
20030.0 4.1625e-09
20050.0 4.1519e-09
20070.0 4.1436e-09
20090.0 4.1369e-09
20110.0 4.131e-09
20130.0 4.1261e-09
20150.0 4.1216e-09
20170.0 4.1172e-09
20190.0 4.1126e-09
20210.0 4.108e-09
20230.0 4.1033e-09
20250.0 4.0981e-09
20270.0 4.0927e-09
20290.0 4.0871e-09
20310.0 4.0811e-09
20330.0 4.0744e-09
20350.0 4.0679e-09
20370.0 4.061e-09
20390.0 4.0535e-09
20410.0 4.0459e-09
20430.0 4.0384e-09
20450.0 4.0301e-09
20470.0 4.0218e-09
20490.0 4.0136e-09
20510.0 4.0054e-09
20530.0 3.9969e-09
20550.0 3.9887e-09
20570.0 3.9809e-09
20590.0 3.973e-09
20610.0 3.9652e-09
20630.0 3.9579e-09
20650.0 3.9507e-09
20670.0 3.9432e-09
20690.0 3.9361e-09
20710.0 3.9291e-09
20730.0 3.9217e-09
20750.0 3.914e-09
20770.0 3.9064e-09
20790.0 3.8981e-09
20810.0 3.8891e-09
20830.0 3.8798e-09
20850.0 3.8699e-09
20870.0 3.8589e-09
20890.0 3.8472e-09
20910.0 3.8353e-09
20930.0 3.8226e-09
20950.0 3.809e-09
20970.0 3.7953e-09
20990.0 3.7814e-09
21010.0 3.7665e-09
21030.0 3.7516e-09
21050.0 3.737e-09
21070.0 3.7222e-09
21090.0 3.7069e-09
21110.0 3.6925e-09
21130.0 3.6784e-09
21150.0 3.6639e-09
21170.0 3.6497e-09
21190.0 3.6362e-09
21210.0 3.6223e-09
21230.0 3.6081e-09
21250.0 3.5945e-09
21270.0 3.5809e-09
21290.0 3.5666e-09
21310.0 3.5522e-09
21330.0 3.5383e-09
21350.0 3.5235e-09
21370.0 3.5082e-09
21390.0 3.4922e-09
21410.0 3.476e-09
21430.0 3.4583e-09
21450.0 3.4408e-09
21470.0 3.4234e-09
21490.0 3.4052e-09
21510.0 3.3863e-09
21530.0 3.3679e-09
21550.0 3.3491e-09
21570.0 3.3293e-09
21590.0 3.3098e-09
21610.0 3.2906e-09
21630.0 3.2707e-09
21650.0 3.2503e-09
21670.0 3.2311e-09
21690.0 3.2116e-09
21710.0 3.1916e-09
21730.0 3.1721e-09
21750.0 3.1533e-09
21770.0 3.1333e-09
21790.0 3.1135e-09
21810.0 3.0945e-09
21830.0 3.0753e-09
21850.0 3.0554e-09
21870.0 3.036e-09
21890.0 3.0173e-09
21910.0 2.9978e-09
21930.0 2.9785e-09
21950.0 2.9598e-09
21970.0 2.9411e-09
21990.0 2.9217e-09
22010.0 2.9035e-09
22030.0 2.8859e-09
22050.0 2.8682e-09
22070.0 2.8511e-09
22090.0 2.8357e-09
22110.0 2.8205e-09
22130.0 2.8056e-09
22150.0 2.7918e-09
22170.0 2.7789e-09
22190.0 2.766e-09
22210.0 2.7539e-09
22230.0 2.743e-09
22250.0 2.7323e-09
22270.0 2.7219e-09
22290.0 2.7124e-09
22310.0 2.7032e-09
22330.0 2.6939e-09
22350.0 2.685e-09
22370.0 2.6766e-09
22390.0 2.668e-09
22410.0 2.6592e-09
22430.0 2.6508e-09
22450.0 2.6424e-09
22470.0 2.6335e-09
22490.0 2.6248e-09
22510.0 2.6162e-09
22530.0 2.6072e-09
22550.0 2.5979e-09
22570.0 2.589e-09
22590.0 2.5801e-09
22610.0 2.5709e-09
22630.0 2.5619e-09
22650.0 2.5534e-09
