#lamb flux
1010.0 1.482e-05
1030.0 1.62e-05
1050.0 1.7796e-05
1070.0 1.9598e-05
1090.0 2.1652e-05
1110.0 2.3773e-05
1130.0 2.5923e-05
1150.0 2.8192e-05
1170.0 3.0551e-05
1190.0 3.2817e-05
1210.0 3.5138e-05
1230.0 3.7561e-05
1250.0 3.9969e-05
1270.0 4.2345e-05
1290.0 4.488e-05
1310.0 4.7452e-05
1330.0 4.9967e-05
1350.0 5.2548e-05
1370.0 5.5245e-05
1390.0 5.7927e-05
1410.0 6.0581e-05
1430.0 6.3383e-05
1450.0 6.6227e-05
1470.0 6.9032e-05
1490.0 7.19e-05
1510.0 7.4942e-05
1530.0 7.7883e-05
1550.0 8.082e-05
1570.0 8.3863e-05
1590.0 8.6927e-05
1610.0 8.9888e-05
1630.0 9.2926e-05
1650.0 9.6026e-05
1670.0 9.9025e-05
1690.0 0.00010197
1710.0 0.00010497
1730.0 0.00010794
1750.0 0.00011069
1770.0 0.00011345
1790.0 0.00011617
1810.0 0.00011872
1830.0 0.00012111
1850.0 0.00012354
1870.0 0.00012578
1890.0 0.00012779
1910.0 0.0001297
1930.0 0.00013151
1950.0 0.00013305
1970.0 0.00013438
1990.0 0.00013564
2010.0 0.00013668
2030.0 0.00013745
2050.0 0.00013812
2070.0 0.00013868
2090.0 0.00013892
2110.0 0.00013899
2130.0 0.00013897
2150.0 0.00013875
2170.0 0.00013829
2190.0 0.00013778
2210.0 0.00013715
2230.0 0.00013632
2250.0 0.00013538
2270.0 0.00013443
2290.0 0.00013334
2310.0 0.0001321
2330.0 0.00013087
2350.0 0.00012959
2370.0 0.0001282
2390.0 0.0001268
2410.0 0.00012543
2430.0 0.00012395
2450.0 0.00012237
2470.0 0.00012071
2490.0 0.00011892
2510.0 0.00011694
2530.0 0.00011498
2550.0 0.00011334
2570.0 0.00011248
2590.0 0.00011296
2610.0 0.00011589
2630.0 0.00012182
2650.0 0.00013047
2670.0 0.0001421
2690.0 0.00015639
2710.0 0.00017129
2730.0 0.0001857
2750.0 0.00020001
2770.0 0.00021283
2790.0 0.00022372
2810.0 0.0002337
2830.0 0.00024361
2850.0 0.00025252
2870.0 0.00026135
2890.0 0.00027078
2910.0 0.00028042
2930.0 0.00028976
2950.0 0.00029974
2970.0 0.00031019
2990.0 0.00032043
3010.0 0.00073266
3030.0 0.00075706
3050.0 0.000782
3070.0 0.00080584
3090.0 0.00083078
3110.0 0.00085612
3130.0 0.00088014
3150.0 0.00090294
3170.0 0.00092556
3190.0 0.00094508
3210.0 0.00095999
3230.0 0.00097361
3250.0 0.00095773
3270.0 0.00096826
3290.0 0.00095917
3310.0 0.0010426
3330.0 0.0011191
3350.0 0.0012027
3370.0 0.001299
3390.0 0.0014075
3410.0 0.0015204
3430.0 0.0016416
3450.0 0.0017756
3470.0 0.0019176
3490.0 0.002066
3510.0 0.0022229
3530.0 0.0023904
3550.0 0.002606
3570.0 0.0028548
3590.0 0.0030613
3610.0 0.0032929
3630.0 0.0033801
3650.0 0.0034491
3670.0 0.0034918
3690.0 0.0035898
3710.0 0.0037009
3730.0 0.0036398
3750.0 0.0035322
3770.0 0.0033845
3790.0 0.0032123
3810.0 0.0029942
3830.0 0.0026483
3850.0 0.0016546
3870.0 0.0022988
3890.0 0.0031342
3910.0 0.0038672
3930.0 0.0044596
3950.0 0.0047343
3970.0 0.004936
3990.0 0.00593
4010.0 0.0056064
4030.0 0.00491
4050.0 0.0043555
4070.0 0.0039211
4090.0 0.0045937
4110.0 0.0048978
4130.0 0.004939
4150.0 0.0048766
4170.0 0.004587
4190.0 0.0043339
4210.0 0.0051166
4230.0 0.0057966
4250.0 0.0059036
4270.0 0.0056946
4290.0 0.0058015
4310.0 0.0061582
4330.0 0.0069896
4350.0 0.0075037
4370.0 0.0073981
4390.0 0.0062385
4410.0 0.0053408
4430.0 0.0045281
4450.0 0.0039358
4470.0 0.0040941
4490.0 0.0051068
4510.0 0.0055347
4530.0 0.0060814
4550.0 0.0065442
4570.0 0.0081
4590.0 0.011775
4610.0 0.015382
4630.0 0.015423
4650.0 0.014444
4670.0 0.015547
4690.0 0.017534
4710.0 0.014822
4730.0 0.010754
4750.0 0.0083609
4770.0 0.0078156
4790.0 0.007974
4810.0 0.0074119
4830.0 0.0080586
4850.0 0.0098328
4870.0 0.012051
4890.0 0.01099
4910.0 0.0093891
4930.0 0.010118
4950.0 0.013313
4970.0 0.017556
4990.0 0.01817
5010.0 0.015885
5030.0 0.012203
5050.0 0.0087221
5070.0 0.0072083
5090.0 0.0067248
5110.0 0.0067326
5130.0 0.0070339
5150.0 0.0069177
5170.0 0.0070836
5190.0 0.0067718
5210.0 0.0069027
5230.0 0.0074604
5250.0 0.008076
5270.0 0.010029
5290.0 0.011725
5310.0 0.011676
5330.0 0.012059
5350.0 0.013787
5370.0 0.015054
5390.0 0.013922
5410.0 0.011889
5430.0 0.011224
5450.0 0.013
5470.0 0.016961
5490.0 0.021183
5510.0 0.023179
5530.0 0.023476
5550.0 0.022298
5570.0 0.021029
5590.0 0.020467
5610.0 0.020829
5630.0 0.02123
5650.0 0.021261
5670.0 0.021287
5690.0 0.020821
5710.0 0.018311
5730.0 0.015457
5750.0 0.013188
5770.0 0.013531
5790.0 0.014877
5810.0 0.016102
5830.0 0.016727
5850.0 0.016631
5870.0 0.015385
5890.0 0.013494
5910.0 0.013498
5930.0 0.014976
5950.0 0.015274
5970.0 0.013923
5990.0 0.012051
6010.0 0.0098533
6030.0 0.0082685
6050.0 0.0083301
6070.0 0.0096121
6090.0 0.010132
6110.0 0.0090095
6130.0 0.0083673
6150.0 0.0091023
6170.0 0.010984
6190.0 0.013079
6210.0 0.013917
6230.0 0.013319
6250.0 0.01223
6270.0 0.010542
6290.0 0.0087411
6310.0 0.0073085
6330.0 0.0067406
6350.0 0.0071243
6370.0 0.0075131
6390.0 0.0079581
6410.0 0.0091516
6430.0 0.01153
6450.0 0.014532
6470.0 0.016211
6490.0 0.015891
6510.0 0.015642
6530.0 0.016213
6550.0 0.016394
6570.0 0.01667
6590.0 0.016734
6610.0 0.016437
6630.0 0.01662
6650.0 0.016539
6670.0 0.015705
6690.0 0.013926
6710.0 0.011833
6730.0 0.011629
6750.0 0.012613
6770.0 0.013585
6790.0 0.013925
6810.0 0.013802
6830.0 0.013578
6850.0 0.013299
6870.0 0.012491
6890.0 0.011899
6910.0 0.011295
6930.0 0.011005
6950.0 0.011868
6970.0 0.012749
6990.0 0.013364
7010.0 0.013435
7030.0 0.012637
7050.0 0.010974
7070.0 0.0089059
7090.0 0.0075908
7110.0 0.007418
7130.0 0.0079447
7150.0 0.0079055
7170.0 0.0071688
7190.0 0.0071018
7210.0 0.0078665
7230.0 0.0091239
7250.0 0.010373
7270.0 0.010835
7290.0 0.010033
7310.0 0.008863
7330.0 0.0081342
7350.0 0.008032
7370.0 0.008274
7390.0 0.0085986
7410.0 0.0091811
7430.0 0.010551
7450.0 0.012295
7470.0 0.01392
7490.0 0.014569
7510.0 0.01404
7530.0 0.01172
7550.0 0.0096108
7570.0 0.0080245
7590.0 0.007097
7610.0 0.007382
7630.0 0.0085389
7650.0 0.0097457
7670.0 0.010901
7690.0 0.011752
7710.0 0.012449
7730.0 0.013118
7750.0 0.013745
7770.0 0.014038
7790.0 0.013954
7810.0 0.014134
7830.0 0.014621
7850.0 0.014452
7870.0 0.013941
7890.0 0.013008
7910.0 0.012147
7930.0 0.011642
7950.0 0.011467
7970.0 0.011295
7990.0 0.011297
8010.0 0.011502
8030.0 0.011533
8050.0 0.011748
8070.0 0.011579
8090.0 0.011534
8110.0 0.011033
8130.0 0.010933
8150.0 0.01064
8170.0 0.010316
8190.0 0.01014
8210.0 0.010183
8230.0 0.0096437
8250.0 0.0090973
8270.0 0.0079556
8290.0 0.0063815
8310.0 0.0048415
8330.0 0.0036782
8350.0 0.0032821
8370.0 0.0037695
8390.0 0.0044522
8410.0 0.004914
8430.0 0.0053252
8450.0 0.0055873
8470.0 0.0058517
8490.0 0.006486
8510.0 0.0072725
8530.0 0.0084433
8550.0 0.0098268
8570.0 0.011079
8590.0 0.012078
8610.0 0.012853
8630.0 0.013301
8650.0 0.013335
8670.0 0.013327
8690.0 0.013766
8710.0 0.014135
8730.0 0.014488
8750.0 0.014253
8770.0 0.014303
8790.0 0.014099
8810.0 0.013124
8830.0 0.012662
8850.0 0.011887
8870.0 0.011283
8890.0 0.01084
8910.0 0.01102
8930.0 0.01039
8950.0 0.0099297
8970.0 0.0097377
8990.0 0.0095273
9010.0 0.0092727
9030.0 0.0090456
9050.0 0.0089879
9070.0 0.0089608
9090.0 0.0089351
9110.0 0.0089105
9130.0 0.008884
9150.0 0.0088571
9170.0 0.0088209
9190.0 0.0087773
9210.0 0.0088118
9230.0 0.0087667
9250.0 0.0087301
9270.0 0.0086963
9290.0 0.0086642
9310.0 0.008633
9330.0 0.0086022
9350.0 0.0085723
9370.0 0.0085421
9390.0 0.0085114
9410.0 0.008481
9430.0 0.0084499
9450.0 0.0084139
9470.0 0.0083793
9490.0 0.0083526
9510.0 0.0083233
9530.0 0.008293
9550.0 0.0082623
9570.0 0.0082311
9590.0 0.0081995
9610.0 0.0081678
9630.0 0.0081359
9650.0 0.0081039
9670.0 0.0080718
9690.0 0.0080397
9710.0 0.0080075
9730.0 0.0079753
9750.0 0.007943
9770.0 0.0079108
9790.0 0.0078785
9810.0 0.007846
9830.0 0.0078137
9850.0 0.0077815
9870.0 0.0077489
9890.0 0.0077164
9910.0 0.0076839
9930.0 0.0076506
9950.0 0.0075633
9970.0 0.007547
9990.0 0.0075276
10010.0 0.0075063
10030.0 0.0074806
10050.0 0.0074509
10070.0 0.0074193
10090.0 0.0073898
10110.0 0.007357
10130.0 0.0073261
10150.0 0.0072944
10170.0 0.0072609
10190.0 0.0072257
10210.0 0.0071929
10230.0 0.0071609
10250.0 0.0071267
10270.0 0.0070929
10290.0 0.007061
10310.0 0.0070271
10330.0 0.0069915
10350.0 0.0069583
10370.0 0.0069251
10390.0 0.0068899
10410.0 0.0068549
10430.0 0.0068222
10450.0 0.0067874
10470.0 0.0067514
10490.0 0.006717
10510.0 0.0066828
10530.0 0.0066452
10550.0 0.0066088
10570.0 0.0065743
10590.0 0.0065378
10610.0 0.0065001
10630.0 0.0064645
10650.0 0.0064285
10670.0 0.0063894
10690.0 0.0063516
10710.0 0.0063148
10730.0 0.006276
10750.0 0.0062351
10770.0 0.0061977
10790.0 0.0061591
10810.0 0.0061183
10830.0 0.0060782
10850.0 0.0060396
10870.0 0.0059967
10890.0 0.0059528
10910.0 0.0059098
10930.0 0.0058637
10950.0 0.0058117
10970.0 0.0057568
10990.0 0.0056994
11010.0 0.005285
11030.0 0.0052145
11050.0 0.005147
11070.0 0.0050791
11090.0 0.0050071
11110.0 0.0049416
11130.0 0.0048789
11150.0 0.004815
11170.0 0.0047524
11190.0 0.0046946
11210.0 0.0046356
11230.0 0.0045751
11250.0 0.0045175
11270.0 0.0044617
11290.0 0.0044032
11310.0 0.0043452
11330.0 0.0042925
11350.0 0.0042387
11370.0 0.0041843
11390.0 0.0041331
11410.0 0.0040836
11430.0 0.0040306
11450.0 0.0039789
11470.0 0.0039288
11490.0 0.0038763
11510.0 0.0038202
11530.0 0.0037654
11550.0 0.0037091
11570.0 0.0036475
11590.0 0.003584
11610.0 0.0035208
11630.0 0.0034523
11650.0 0.0033793
11670.0 0.0033087
11690.0 0.0032368
11710.0 0.0031613
11730.0 0.0030868
11750.0 0.0030163
11770.0 0.0029437
11790.0 0.0028719
11810.0 0.0028052
11830.0 0.0027411
11850.0 0.0026762
11870.0 0.0026168
11890.0 0.0025629
11910.0 0.00251
11930.0 0.0024595
11950.0 0.0024142
11970.0 0.0023709
11990.0 0.0023281
12010.0 0.002289
12030.0 0.002253
12050.0 0.0022177
12070.0 0.0021836
12090.0 0.0021542
12110.0 0.0021262
12130.0 0.0020994
12150.0 0.0020759
12170.0 0.0020559
12190.0 0.0020371
12210.0 0.002022
12230.0 0.0020111
12250.0 0.0020038
12270.0 0.0020004
12290.0 0.0020018
12310.0 0.0020078
12330.0 0.0020186
12350.0 0.0020346
12370.0 0.0020551
12390.0 0.0020805
12410.0 0.002112
12430.0 0.0021464
12450.0 0.002184
12470.0 0.0022257
12490.0 0.0022697
12510.0 0.0023134
12530.0 0.0023589
12550.0 0.0024049
12570.0 0.0024485
12590.0 0.0024896
12610.0 0.0025292
12630.0 0.0025649
12650.0 0.0025948
12670.0 0.0026209
12690.0 0.0026421
12710.0 0.0026576
12730.0 0.0026678
12750.0 0.0026728
12770.0 0.0026724
12790.0 0.0026674
12810.0 0.0026579
12830.0 0.0026436
12850.0 0.0026268
12870.0 0.0026073
12890.0 0.0025846
12910.0 0.0025602
12930.0 0.0025355
12950.0 0.0025086
12970.0 0.0024803
12990.0 0.0024531
13010.0 0.0024254
13030.0 0.0023965
13050.0 0.0023678
13070.0 0.0023399
13090.0 0.0023106
13110.0 0.0022807
13130.0 0.0022517
13150.0 0.0022227
13170.0 0.0021925
13190.0 0.002164
13210.0 0.0021375
13230.0 0.0021117
13250.0 0.0020879
13270.0 0.0020679
13290.0 0.0020507
13310.0 0.0020368
13330.0 0.0020274
13350.0 0.0020223
13370.0 0.0020211
13390.0 0.0020237
13410.0 0.0020293
13430.0 0.0020371
13450.0 0.0020463
13470.0 0.0020553
13490.0 0.0020631
13510.0 0.002069
13530.0 0.0020713
13550.0 0.0020695
13570.0 0.0020631
13590.0 0.0020514
13610.0 0.002035
13630.0 0.0020148
13650.0 0.0019896
13670.0 0.0019611
13690.0 0.0019311
13710.0 0.001899
13730.0 0.0018646
13750.0 0.0018322
13770.0 0.0018009
13790.0 0.00177
13810.0 0.0017412
13830.0 0.0017157
13850.0 0.0016917
13870.0 0.0016697
13890.0 0.0016508
13910.0 0.0016342
13930.0 0.0016191
13950.0 0.001606
13970.0 0.0015952
13990.0 0.0015855
14010.0 0.0015768
14030.0 0.0015694
14050.0 0.0015628
14070.0 0.0015565
14090.0 0.0015507
14110.0 0.0015452
14130.0 0.0015396
14150.0 0.0015337
14170.0 0.0015278
14190.0 0.0015216
14210.0 0.0015148
14230.0 0.0015078
14250.0 0.0015007
14270.0 0.0014933
14290.0 0.0014858
14310.0 0.0014789
14330.0 0.0014722
14350.0 0.001466
14370.0 0.0014605
14390.0 0.0014558
14410.0 0.0014517
14430.0 0.0014482
14450.0 0.0014453
14470.0 0.0014429
14490.0 0.0014408
14510.0 0.001439
14530.0 0.0014372
14550.0 0.0014356
14570.0 0.0014341
14590.0 0.0014328
14610.0 0.0014318
14630.0 0.0014314
14650.0 0.0014317
14670.0 0.0014327
14690.0 0.0014351
14710.0 0.001439
14730.0 0.0014439
14750.0 0.0014507
14770.0 0.0014597
14790.0 0.0014703
14810.0 0.0014826
14830.0 0.0014981
14850.0 0.0015158
14870.0 0.0015348
14890.0 0.0015561
14910.0 0.0015794
14930.0 0.0016023
14950.0 0.001624
14970.0 0.0016449
14990.0 0.0016624
15010.0 0.0016753
15030.0 0.0016844
15050.0 0.0016897
15070.0 0.001691
15090.0 0.0016898
15110.0 0.0016869
15130.0 0.0016828
15150.0 0.0016781
15170.0 0.0016731
15190.0 0.0016678
15210.0 0.0016626
15230.0 0.0016573
15250.0 0.0016519
15270.0 0.0016465
15290.0 0.0016412
15310.0 0.0016359
15330.0 0.0016305
15350.0 0.0016251
15370.0 0.0016197
15390.0 0.0016143
15410.0 0.0016089
15430.0 0.0016035
15450.0 0.0015981
15470.0 0.0015926
15490.0 0.0015872
15510.0 0.0015818
15530.0 0.0015764
15550.0 0.001571
15570.0 0.0015656
15590.0 0.0015601
15610.0 0.0015547
15630.0 0.0015493
15650.0 0.0015438
15670.0 0.0015384
15690.0 0.001533
15710.0 0.0015276
15730.0 0.0015222
15750.0 0.0015167
15770.0 0.0015113
15790.0 0.0015059
15810.0 0.0015005
15830.0 0.0014951
15850.0 0.0014898
15870.0 0.0014844
15890.0 0.001479
15910.0 0.0014736
15930.0 0.0014683
15950.0 0.0014629
15970.0 0.0014576
15990.0 0.0014523
16010.0 0.0014469
16030.0 0.0014416
16050.0 0.0014363
16070.0 0.001431
16090.0 0.0014257
16110.0 0.0014204
16130.0 0.0014152
16150.0 0.0014099
16170.0 0.0014047
16190.0 0.0013995
16210.0 0.0013943
16230.0 0.0013891
16250.0 0.0013839
16270.0 0.0013787
16290.0 0.0013736
16310.0 0.0013684
16330.0 0.0013633
16350.0 0.0013582
16370.0 0.001353
16390.0 0.001348
16410.0 0.0013429
16430.0 0.0013379
16450.0 0.0013328
16470.0 0.0013278
16490.0 0.0013228
16510.0 0.0013178
16530.0 0.0013129
16550.0 0.0013079
16570.0 0.001303
16590.0 0.001298
16610.0 0.0012932
16630.0 0.0012883
16650.0 0.0012834
16670.0 0.0012786
16690.0 0.0012738
16710.0 0.0012689
16730.0 0.0012641
16750.0 0.0012594
16770.0 0.0012546
16790.0 0.0012498
16810.0 0.0012451
16830.0 0.0012405
16850.0 0.0012358
16870.0 0.0012311
16890.0 0.0012265
16910.0 0.0012218
16930.0 0.0012172
16950.0 0.0012127
16970.0 0.0012081
16990.0 0.0012035
17010.0 0.001199
17030.0 0.0011946
17050.0 0.0011901
17070.0 0.0011856
17090.0 0.0011812
17110.0 0.0011767
17130.0 0.0011723
17150.0 0.0011679
17170.0 0.0011636
17190.0 0.0011592
17210.0 0.0011549
17230.0 0.0011506
17250.0 0.0011464
17270.0 0.0011421
17290.0 0.0011378
17310.0 0.0011336
17330.0 0.0011294
17350.0 0.0011252
17370.0 0.0011211
17390.0 0.001117
17410.0 0.0011129
17430.0 0.0011088
17450.0 0.0011047
17470.0 0.0011006
17490.0 0.0010966
17510.0 0.0010926
17530.0 0.0010886
17550.0 0.0010846
17570.0 0.0010807
17590.0 0.0010768
17610.0 0.0010729
17630.0 0.001069
17650.0 0.0010651
17670.0 0.0010613
17690.0 0.0010574
17710.0 0.0010536
17730.0 0.0010499
17750.0 0.0010461
17770.0 0.0010423
17790.0 0.0010386
17810.0 0.0010349
17830.0 0.0010312
17850.0 0.0010276
17870.0 0.0010239
17890.0 0.0010203
17910.0 0.0010167
17930.0 0.0010131
17950.0 0.0010096
17970.0 0.001006
17990.0 0.0010025
18010.0 0.00099901
18030.0 0.00099549
18050.0 0.00099203
18070.0 0.0009886
18090.0 0.00098517
18110.0 0.00098175
18130.0 0.00097838
18150.0 0.00097502
18170.0 0.00097166
18190.0 0.00096833
18210.0 0.00096504
18230.0 0.00096173
18250.0 0.00095844
18270.0 0.0009552
18290.0 0.00095198
18310.0 0.00094874
18330.0 0.00094555
18350.0 0.00094239
18370.0 0.00093922
18390.0 0.00093607
18410.0 0.00093296
18430.0 0.00092985
18450.0 0.00092674
18470.0 0.00092367
18490.0 0.00092064
18510.0 0.0009176
18530.0 0.00091457
18550.0 0.0009116
18570.0 0.00090862
18590.0 0.00090563
18610.0 0.00090269
18630.0 0.00089977
18650.0 0.00089685
18670.0 0.00089394
18690.0 0.00089108
18710.0 0.00088823
18730.0 0.00088537
18750.0 0.00088255
18770.0 0.00087976
18790.0 0.00087694
18810.0 0.00087415
18830.0 0.00087141
18850.0 0.00086866
18870.0 0.00086592
18890.0 0.00086322
18910.0 0.00086054
18930.0 0.00085784
18950.0 0.00085517
18970.0 0.00085254
18990.0 0.00084991
19010.0 0.00084726
19030.0 0.00084467
19050.0 0.0008421
19070.0 0.00083951
19090.0 0.00083696
19110.0 0.00083444
19130.0 0.0008319
19150.0 0.00082938
19170.0 0.00082689
19190.0 0.00082442
19210.0 0.00082193
19230.0 0.00081948
19250.0 0.00081706
19270.0 0.00081464
19290.0 0.00081222
19310.0 0.00080984
19330.0 0.00080747
19350.0 0.00080507
19370.0 0.00080272
19390.0 0.0008004
19410.0 0.00079807
19430.0 0.00079574
19450.0 0.00079347
19470.0 0.00079119
19490.0 0.0007889
19510.0 0.00078665
19530.0 0.00078442
19550.0 0.00078218
19570.0 0.00077994
19590.0 0.00077776
19610.0 0.00077557
19630.0 0.00077338
19650.0 0.00077122
19670.0 0.00076908
19690.0 0.00076693
19710.0 0.00076479
19730.0 0.00076269
19750.0 0.00076059
19770.0 0.00075848
19790.0 0.0007564
19810.0 0.00075435
19830.0 0.00075226
19850.0 0.00075016
19870.0 0.00074804
19890.0 0.00074576
19910.0 0.00074319
19930.0 0.00074026
19950.0 0.00073671
19970.0 0.00073216
19990.0 0.00072645
20010.0 0.00071972
20030.0 0.0007115
20050.0 0.00070187
20070.0 0.00069144
20090.0 0.00068032
20110.0 0.00066801
20130.0 0.00065574
20150.0 0.00064376
20170.0 0.00063157
20190.0 0.00061941
20210.0 0.00060799
20230.0 0.00059691
20250.0 0.00058582
20270.0 0.0005754
20290.0 0.00056569
20310.0 0.00055621
20330.0 0.00054701
20350.0 0.00053888
20370.0 0.00053116
20390.0 0.0005238
20410.0 0.00051711
20430.0 0.00051114
20450.0 0.00050545
20470.0 0.00050036
20490.0 0.00049597
20510.0 0.0004921
20530.0 0.00048869
20550.0 0.0004859
20570.0 0.00048367
20590.0 0.00048187
20610.0 0.00048056
20630.0 0.00047969
20650.0 0.00047921
20670.0 0.00047913
20690.0 0.00047934
20710.0 0.0004798
20730.0 0.00048051
20750.0 0.0004814
20770.0 0.00048233
20790.0 0.00048335
20810.0 0.00048444
20830.0 0.00048544
20850.0 0.00048634
20870.0 0.00048718
20890.0 0.00048783
20910.0 0.00048821
20930.0 0.00048839
20950.0 0.00048829
20970.0 0.00048789
20990.0 0.00048719
21010.0 0.00048616
21030.0 0.00048479
21050.0 0.00048314
21070.0 0.00048116
21090.0 0.00047882
21110.0 0.0004763
21130.0 0.00047356
21150.0 0.00047054
21170.0 0.00046736
21190.0 0.00046414
21210.0 0.00046072
21230.0 0.00045718
21250.0 0.00045373
21270.0 0.0004503
21290.0 0.00044682
21310.0 0.00044345
21330.0 0.00044031
21350.0 0.0004372
21370.0 0.00043423
21390.0 0.00043153
21410.0 0.00042903
21430.0 0.00042666
21450.0 0.00042461
21470.0 0.00042286
21490.0 0.00042136
21510.0 0.00042014
21530.0 0.00041926
21550.0 0.00041866
21570.0 0.00041839
21590.0 0.00041844
21610.0 0.00041879
21630.0 0.00041947
21650.0 0.00042052
21670.0 0.00042175
21690.0 0.00042327
21710.0 0.0004251
21730.0 0.00042711
21750.0 0.00042922
21770.0 0.00043165
21790.0 0.00043419
21810.0 0.00043671
21830.0 0.00043931
21850.0 0.00044202
21870.0 0.00044461
21890.0 0.00044705
21910.0 0.00044951
21930.0 0.00045183
21950.0 0.00045391
21970.0 0.00045584
21990.0 0.00045766
22010.0 0.00045915
22030.0 0.00046037
22050.0 0.0004614
22070.0 0.00046216
22090.0 0.0004626
22110.0 0.00046279
22130.0 0.00046271
22150.0 0.00046233
22170.0 0.00046169
22190.0 0.00046073
22210.0 0.00045948
22230.0 0.00045799
22250.0 0.00045621
22270.0 0.00045411
22290.0 0.00045179
22310.0 0.00044925
22330.0 0.00044631
22350.0 0.00044315
22370.0 0.00043984
22390.0 0.00043621
22410.0 0.00043223
22430.0 0.00042819
22450.0 0.00042398
22470.0 0.00041942
22490.0 0.00041472
22510.0 0.00041003
22530.0 0.00040501
22550.0 0.00039978
22570.0 0.00039468
22590.0 0.00038952
22610.0 0.00038418
22630.0 0.00037891
22650.0 0.00037389
22670.0 0.00036877
22690.0 0.0003637
22710.0 0.00035894
22730.0 0.00035434
22750.0 0.00034968
22770.0 0.0003454
22790.0 0.00034144
22810.0 0.0003376
22830.0 0.00033395
22850.0 0.00033067
22870.0 0.00032756
22890.0 0.00032458
22910.0 0.00032187
22930.0 0.00031941
22950.0 0.00031705
22970.0 0.00031482
22990.0 0.00031286
23010.0 0.000311
23030.0 0.00030919
23050.0 0.00030752
23070.0 0.00030596
23090.0 0.00030437
23110.0 0.00030284
23130.0 0.00030137
23150.0 0.0002999
23170.0 0.00029839
23190.0 0.00029691
23210.0 0.00029546
23230.0 0.00029395
23250.0 0.00029245
23270.0 0.00029102
23290.0 0.00028959
23310.0 0.00028815
23330.0 0.00028683
23350.0 0.0002856
23370.0 0.00028442
23390.0 0.00028335
23410.0 0.00028241
23430.0 0.00028155
23450.0 0.00028078
23470.0 0.00028012
23490.0 0.00027955
23510.0 0.00027904
23530.0 0.00027859
23550.0 0.0002782
23570.0 0.00027785
