#lamb flux
1010.0 7.6721e-07
1030.0 8.4029e-07
1050.0 9.2436e-07
1070.0 1.019e-06
1090.0 1.1265e-06
1110.0 1.2368e-06
1130.0 1.3478e-06
1150.0 1.464e-06
1170.0 1.584e-06
1190.0 1.6978e-06
1210.0 1.8131e-06
1230.0 1.9323e-06
1250.0 2.0491e-06
1270.0 2.1626e-06
1290.0 2.2825e-06
1310.0 2.4024e-06
1330.0 2.5173e-06
1350.0 2.6336e-06
1370.0 2.7537e-06
1390.0 2.8708e-06
1410.0 2.9845e-06
1430.0 3.1033e-06
1450.0 3.2222e-06
1470.0 3.3371e-06
1490.0 3.4533e-06
1510.0 3.576e-06
1530.0 3.6923e-06
1550.0 3.807e-06
1570.0 3.9257e-06
1590.0 4.0444e-06
1610.0 4.1579e-06
1630.0 4.2748e-06
1650.0 4.3948e-06
1670.0 4.5107e-06
1690.0 4.6251e-06
1710.0 4.7437e-06
1730.0 4.8629e-06
1750.0 4.9747e-06
1770.0 5.0896e-06
1790.0 5.2066e-06
1810.0 5.3195e-06
1830.0 5.4301e-06
1850.0 5.5471e-06
1870.0 5.6606e-06
1890.0 5.7696e-06
1910.0 5.8802e-06
1930.0 5.9929e-06
1950.0 6.0995e-06
1970.0 6.2038e-06
1990.0 6.3114e-06
2010.0 6.416e-06
2030.0 6.5152e-06
2050.0 6.6165e-06
2070.0 6.7192e-06
2090.0 6.8137e-06
2110.0 6.9061e-06
2130.0 6.9999e-06
2150.0 7.0896e-06
2170.0 7.1723e-06
2190.0 7.2566e-06
2210.0 7.3391e-06
2230.0 7.4146e-06
2250.0 7.4868e-06
2270.0 7.5607e-06
2290.0 7.6281e-06
2310.0 7.6878e-06
2330.0 7.7474e-06
2350.0 7.8045e-06
2370.0 7.8539e-06
2390.0 7.9012e-06
2410.0 7.9511e-06
2430.0 7.9967e-06
2450.0 8.0406e-06
2470.0 8.0921e-06
2490.0 8.1576e-06
2510.0 8.2393e-06
2530.0 8.3731e-06
2550.0 8.6144e-06
2570.0 9.0161e-06
2590.0 9.6395e-06
2610.0 1.0652e-05
2630.0 1.2079e-05
2650.0 1.3826e-05
2670.0 1.5899e-05
2690.0 1.8204e-05
2710.0 2.0405e-05
2730.0 2.2346e-05
2750.0 2.4065e-05
2770.0 2.5395e-05
2790.0 2.6336e-05
2810.0 2.703e-05
2830.0 2.758e-05
2850.0 2.7969e-05
2870.0 2.8299e-05
2890.0 2.8631e-05
2910.0 2.8951e-05
2930.0 2.9236e-05
2950.0 2.9543e-05
2970.0 2.9862e-05
2990.0 3.0152e-05
3010.0 0.00027694
3030.0 0.00027964
3050.0 0.00028219
3070.0 0.00028413
3090.0 0.00028569
3110.0 0.00028634
3130.0 0.00028539
3150.0 0.00028248
3170.0 0.00027697
3190.0 0.00026892
3210.0 0.00025905
3230.0 0.00024852
3250.0 0.00024753
3270.0 0.00023962
3290.0 0.00024905
3310.0 0.00024005
3330.0 0.00024466
3350.0 0.00025291
3370.0 0.0002637
3390.0 0.0002765
3410.0 0.00028975
3430.0 0.00030392
3450.0 0.00031916
3470.0 0.0003345
3490.0 0.00034924
3510.0 0.00036788
3530.0 0.00039017
3550.0 0.00040425
3570.0 0.00041464
3590.0 0.00044192
3610.0 0.00044873
3630.0 0.00048241
3650.0 0.00050723
3670.0 0.00053355
3690.0 0.00053771
3710.0 0.00052275
3730.0 0.00053042
3750.0 0.00053048
3770.0 0.00055234
3790.0 0.00058492
3810.0 0.00065067
3830.0 0.00078729
3850.0 0.00093771
3870.0 0.0010796
3890.0 0.001173
3910.0 0.0012166
3930.0 0.0012655
3950.0 0.0013154
3970.0 0.0011535
3990.0 0.00078352
4010.0 0.00067753
4030.0 0.00092571
4050.0 0.0011671
4070.0 0.0010373
4090.0 0.00063946
4110.0 0.00062217
4130.0 0.00088475
4150.0 0.001003
4170.0 0.00084437
4190.0 0.00072043
4210.0 0.00094517
4230.0 0.00099261
4250.0 0.00094279
4270.0 0.00094982
4290.0 0.00086604
4310.0 0.00097221
4330.0 0.0011331
4350.0 0.0013015
4370.0 0.001296
4390.0 0.0012633
4410.0 0.001115
4430.0 0.00087951
4450.0 0.00066946
4470.0 0.00072625
4490.0 0.00078608
4510.0 0.0010767
4530.0 0.0011228
4550.0 0.0011053
4570.0 0.0012842
4590.0 0.0016377
4610.0 0.0022405
4630.0 0.0027483
4650.0 0.0027747
4670.0 0.0028645
4690.0 0.0030872
4710.0 0.0030233
4730.0 0.0024368
4750.0 0.0017373
4770.0 0.0014507
4790.0 0.0012791
4810.0 0.0012122
4830.0 0.0013246
4850.0 0.0014877
4870.0 0.0017465
4890.0 0.0019176
4910.0 0.0017072
4930.0 0.0017767
4950.0 0.0022089
4970.0 0.0027363
4990.0 0.0031444
5010.0 0.0031431
5030.0 0.0026619
5050.0 0.0019271
5070.0 0.001412
5090.0 0.0012214
5110.0 0.0012537
5130.0 0.0013655
5150.0 0.0012857
5170.0 0.0012807
5190.0 0.0012752
5210.0 0.0012978
5230.0 0.0014034
5250.0 0.0014475
5270.0 0.0015583
5290.0 0.0018684
5310.0 0.0021161
5330.0 0.0022331
5350.0 0.002276
5370.0 0.0024287
5390.0 0.0025235
5410.0 0.0023174
5430.0 0.0021092
5450.0 0.002153
5470.0 0.0025483
5490.0 0.0032646
5510.0 0.0039191
5530.0 0.0041219
5550.0 0.0039978
5570.0 0.0037749
5590.0 0.0035305
5610.0 0.0033735
5630.0 0.0034281
5650.0 0.0035368
5670.0 0.0034197
5690.0 0.0032159
5710.0 0.0031339
5730.0 0.0027688
5750.0 0.0022077
5770.0 0.0020083
5790.0 0.0022598
5810.0 0.0025125
5830.0 0.0028019
5850.0 0.0028759
5870.0 0.002797
5890.0 0.0026472
5910.0 0.0024639
5930.0 0.0024548
5950.0 0.0025889
5970.0 0.0026409
5990.0 0.0023301
6010.0 0.0018966
6030.0 0.0015361
6050.0 0.00139
6070.0 0.0014736
6090.0 0.0016549
6110.0 0.0016957
6130.0 0.0015883
6150.0 0.0015742
6170.0 0.0017402
6190.0 0.0020309
6210.0 0.0024326
6230.0 0.0027462
6250.0 0.0026054
6270.0 0.0022747
6290.0 0.0018997
6310.0 0.0015065
6330.0 0.0012762
6350.0 0.00126
6370.0 0.001383
6390.0 0.0015257
6410.0 0.001785
6430.0 0.0021968
6450.0 0.0027048
6470.0 0.0031734
6490.0 0.0035871
6510.0 0.0038018
6530.0 0.0036682
6550.0 0.0035239
6570.0 0.0035407
6590.0 0.0035199
6610.0 0.0033501
6630.0 0.0031554
6650.0 0.0029356
6670.0 0.0029079
6690.0 0.0028345
6710.0 0.002621
6730.0 0.0022803
6750.0 0.0020323
6770.0 0.0020962
6790.0 0.0022379
6810.0 0.0024316
6830.0 0.0024789
6850.0 0.0023297
6870.0 0.0022612
6890.0 0.0022156
6910.0 0.0020936
6930.0 0.0020219
6950.0 0.0020371
6970.0 0.0020807
6990.0 0.0022004
7010.0 0.0023688
7030.0 0.0023222
7050.0 0.0021045
7070.0 0.0018908
7090.0 0.0016157
7110.0 0.0014391
7130.0 0.0015122
7150.0 0.0016383
7170.0 0.0016693
7190.0 0.0016312
7210.0 0.0016142
7230.0 0.0018125
7250.0 0.0020642
7270.0 0.0022218
7290.0 0.0022422
7310.0 0.0021323
7330.0 0.0019584
7350.0 0.0018113
7370.0 0.0017203
7390.0 0.0017013
7410.0 0.0018186
7430.0 0.002095
7450.0 0.0023389
7470.0 0.0026329
7490.0 0.0030102
7510.0 0.0028793
7530.0 0.0024274
7550.0 0.0020487
7570.0 0.0017052
7590.0 0.0014125
7610.0 0.0013688
7630.0 0.0014391
7650.0 0.0015898
7670.0 0.0018233
7690.0 0.0020095
7710.0 0.0022689
7730.0 0.0023742
7750.0 0.0024588
7770.0 0.0026036
7790.0 0.0026312
7810.0 0.0025945
7830.0 0.0024597
7850.0 0.0024064
7870.0 0.0023308
7890.0 0.0021443
7910.0 0.0019561
7930.0 0.0017804
7950.0 0.0015304
7970.0 0.0014564
7990.0 0.001506
8010.0 0.001747
8030.0 0.001759
8050.0 0.0018282
8070.0 0.0017993
8090.0 0.0018008
8110.0 0.0017579
8130.0 0.0016613
8150.0 0.0015455
8170.0 0.0015335
8190.0 0.0015553
8210.0 0.001573
8230.0 0.0014745
8250.0 0.0013867
8270.0 0.0012218
8290.0 0.0010048
8310.0 0.00079609
8330.0 0.00057062
8350.0 0.0004293
8370.0 0.00040377
8390.0 0.00044574
8410.0 0.00052656
8430.0 0.00066122
8450.0 0.00073084
8470.0 0.00078387
8490.0 0.00086244
8510.0 0.00092561
8530.0 0.0010277
8550.0 0.0012149
8570.0 0.0013876
8590.0 0.0015223
8610.0 0.0017527
8630.0 0.0020289
8650.0 0.002139
8670.0 0.0021723
8690.0 0.0021636
8710.0 0.0020904
8730.0 0.0020055
8750.0 0.0018819
8770.0 0.001851
8790.0 0.0017914
8810.0 0.0016578
8830.0 0.0015678
8850.0 0.0013672
8870.0 0.0012535
8890.0 0.0011549
8910.0 0.0012676
8930.0 0.0012001
8950.0 0.0012226
8970.0 0.0012465
8990.0 0.0012391
9010.0 0.0012556
9030.0 0.0012116
9050.0 0.0012085
9070.0 0.0012097
9090.0 0.0012109
9110.0 0.0012126
9130.0 0.0012139
9150.0 0.0012151
9170.0 0.0012145
9190.0 0.0012116
9210.0 0.0012243
9230.0 0.0012231
9250.0 0.0012234
9270.0 0.0012241
9290.0 0.0012252
9310.0 0.0012264
9330.0 0.0012279
9350.0 0.0012294
9370.0 0.0012311
9390.0 0.0012327
9410.0 0.0012345
9430.0 0.0012363
9450.0 0.0012382
9470.0 0.0012401
9490.0 0.001242
9510.0 0.0012441
9530.0 0.0012461
9550.0 0.0012483
9570.0 0.0012505
9590.0 0.0012527
9610.0 0.001255
9630.0 0.0012575
9650.0 0.0012599
9670.0 0.0012624
9690.0 0.001265
9710.0 0.0012676
9730.0 0.0012703
9750.0 0.001273
9770.0 0.0012759
9790.0 0.0012788
9810.0 0.0012817
9830.0 0.0012847
9850.0 0.0012878
9870.0 0.0012909
9890.0 0.001294
9910.0 0.0012972
9930.0 0.0013005
9950.0 0.0013029
9970.0 0.0013066
9990.0 0.0013102
10010.0 0.0013135
10030.0 0.0013171
10050.0 0.0013202
10070.0 0.0013207
10090.0 0.0013253
10110.0 0.0013298
10130.0 0.0013339
10150.0 0.001338
10170.0 0.0013418
10190.0 0.0013455
10210.0 0.0013492
10230.0 0.0013529
10250.0 0.0013564
10270.0 0.00136
10290.0 0.0013636
10310.0 0.0013671
10330.0 0.0013706
10350.0 0.0013741
10370.0 0.0013776
10390.0 0.0013809
10410.0 0.0013842
10430.0 0.0013876
10450.0 0.0013909
10470.0 0.001394
10490.0 0.0013972
10510.0 0.0014004
10530.0 0.0014033
10550.0 0.0014062
10570.0 0.0014091
10590.0 0.0014119
10610.0 0.0014145
10630.0 0.0014172
10650.0 0.0014197
10670.0 0.001422
10690.0 0.0014244
10710.0 0.0014266
10730.0 0.0014287
10750.0 0.0014306
10770.0 0.0014326
10790.0 0.0014344
10810.0 0.001436
10830.0 0.0014375
10850.0 0.0014388
10870.0 0.0014395
10890.0 0.0014394
10910.0 0.0014383
10930.0 0.0014351
10950.0 0.0014286
10970.0 0.0014182
10990.0 0.0014036
11010.0 0.0014139
11030.0 0.0013845
11050.0 0.0013508
11070.0 0.0013123
11090.0 0.0012679
11110.0 0.0012238
11130.0 0.0011798
11150.0 0.0011348
11170.0 0.0010912
11190.0 0.0010519
11210.0 0.0010143
11230.0 0.00097909
11250.0 0.00094857
11270.0 0.00092201
11290.0 0.00089792
11310.0 0.00087725
11330.0 0.00086047
11350.0 0.00084542
11370.0 0.00083173
11390.0 0.00081943
11410.0 0.00080765
11430.0 0.00079496
11450.0 0.00078173
11470.0 0.00076782
11490.0 0.00075232
11510.0 0.00073485
11530.0 0.00071677
11550.0 0.00069771
11570.0 0.000677
11590.0 0.00065587
11610.0 0.00063516
11630.0 0.0006138
11650.0 0.00059236
11670.0 0.00057255
11690.0 0.00055364
11710.0 0.00053519
11730.0 0.00051811
11750.0 0.00050278
11770.0 0.000488
11790.0 0.00047411
11810.0 0.00046153
11830.0 0.0004497
11850.0 0.00043792
11870.0 0.00042689
11890.0 0.00041642
11910.0 0.00040576
11930.0 0.00039498
11950.0 0.00038448
11970.0 0.00037375
11990.0 0.00036245
12010.0 0.00035128
12030.0 0.00034029
12050.0 0.00032905
12070.0 0.0003178
12090.0 0.00030754
12110.0 0.00029771
12130.0 0.00028842
12150.0 0.00028031
12170.0 0.00027352
12190.0 0.00026776
12210.0 0.00026365
12230.0 0.00026127
12250.0 0.00026053
12270.0 0.00026161
12290.0 0.00026438
12310.0 0.00026856
12330.0 0.00027446
12350.0 0.00028169
12370.0 0.00028965
12390.0 0.00029849
12410.0 0.0003084
12430.0 0.00031788
12450.0 0.00032711
12470.0 0.00033628
12490.0 0.00034476
12510.0 0.00035198
12530.0 0.00035847
12550.0 0.00036397
12570.0 0.00036801
12590.0 0.0003708
12610.0 0.00037251
12630.0 0.00037293
12650.0 0.00037214
12670.0 0.00037036
12690.0 0.00036759
12710.0 0.00036401
12730.0 0.00035977
12750.0 0.00035472
12770.0 0.00034919
12790.0 0.00034337
12810.0 0.00033709
12830.0 0.00033034
12850.0 0.00032356
12870.0 0.00031656
12890.0 0.00030908
12910.0 0.00030139
12930.0 0.00029363
12950.0 0.0002853
12970.0 0.00027649
12990.0 0.00026776
13010.0 0.00025877
13030.0 0.00024932
13050.0 0.00023991
13070.0 0.00023085
13090.0 0.00022162
13110.0 0.00021262
13130.0 0.00020435
13150.0 0.00019664
13170.0 0.00018934
13190.0 0.00018313
13210.0 0.00017796
13230.0 0.0001736
13250.0 0.00017021
13270.0 0.00016787
13290.0 0.00016637
13310.0 0.00016571
13330.0 0.00016579
13350.0 0.00016644
13370.0 0.0001676
13390.0 0.00016913
13410.0 0.00017073
13430.0 0.00017243
13450.0 0.00017414
13470.0 0.00017567
13490.0 0.00017694
13510.0 0.00017809
13530.0 0.00017894
13550.0 0.00017951
13570.0 0.00017987
13590.0 0.00018007
13610.0 0.00018011
13630.0 0.00018005
13650.0 0.00017996
13670.0 0.00017986
13690.0 0.00017974
13710.0 0.00017965
13730.0 0.00017959
13750.0 0.00017952
13770.0 0.00017942
13790.0 0.00017929
13810.0 0.00017907
13830.0 0.00017873
13850.0 0.00017825
13870.0 0.00017757
13890.0 0.0001767
13910.0 0.00017563
13930.0 0.00017432
13950.0 0.00017282
13970.0 0.00017123
13990.0 0.00016949
14010.0 0.00016767
14030.0 0.00016589
14050.0 0.00016417
14070.0 0.00016246
14090.0 0.00016092
14110.0 0.00015957
14130.0 0.00015836
14150.0 0.00015732
14170.0 0.00015649
14190.0 0.00015583
14210.0 0.00015533
14230.0 0.00015501
14250.0 0.00015485
14270.0 0.00015488
14290.0 0.0001551
14310.0 0.00015551
14330.0 0.0001561
14350.0 0.00015694
14370.0 0.00015795
14390.0 0.0001591
14410.0 0.00016048
14430.0 0.00016203
14450.0 0.00016365
14470.0 0.00016539
14490.0 0.00016734
14510.0 0.00016933
14530.0 0.00017139
14550.0 0.00017368
14570.0 0.00017618
14590.0 0.00017882
14610.0 0.00018179
14630.0 0.00018526
14650.0 0.00018902
14670.0 0.00019314
14690.0 0.00019786
14710.0 0.00020314
14730.0 0.00020853
14750.0 0.0002144
14770.0 0.00022075
14790.0 0.00022715
14810.0 0.00023349
14830.0 0.00024023
14850.0 0.0002467
14870.0 0.00025263
14890.0 0.00025825
14910.0 0.00026346
14930.0 0.00026783
14950.0 0.0002714
14970.0 0.00027436
14990.0 0.00027647
15010.0 0.00027782
15030.0 0.00027857
15050.0 0.0002788
15070.0 0.00027863
15090.0 0.00027821
15110.0 0.00027762
15130.0 0.00027693
15150.0 0.00027623
15170.0 0.00027549
15190.0 0.00027472
15210.0 0.00027398
15230.0 0.00027325
15250.0 0.00027249
15270.0 0.00027175
15290.0 0.00027105
15310.0 0.00027033
15330.0 0.0002696
15350.0 0.0002689
15370.0 0.00026821
15390.0 0.00026748
15410.0 0.00026678
15430.0 0.0002661
15450.0 0.00026541
15470.0 0.0002647
15490.0 0.00026403
15510.0 0.00026337
15530.0 0.00026267
15550.0 0.000262
15570.0 0.00026135
15590.0 0.00026067
15610.0 0.00025997
15630.0 0.00025933
15650.0 0.00025867
15670.0 0.00025799
15690.0 0.00025734
15710.0 0.0002567
15730.0 0.00025604
15750.0 0.00025537
15770.0 0.00025473
15790.0 0.00025408
15810.0 0.0002534
15830.0 0.00025275
15850.0 0.00025212
15870.0 0.00025146
15890.0 0.00025079
15910.0 0.00025017
15930.0 0.00024952
15950.0 0.00024884
15970.0 0.00024819
15990.0 0.00024755
16010.0 0.00024689
16030.0 0.00024621
16050.0 0.00024558
16070.0 0.00024493
16090.0 0.00024426
16110.0 0.0002436
16130.0 0.00024297
16150.0 0.00024228
16170.0 0.0002416
16190.0 0.00024095
16210.0 0.00024029
16230.0 0.0002396
16250.0 0.00023894
16270.0 0.00023828
16290.0 0.00023759
16310.0 0.00023691
16330.0 0.00023625
16350.0 0.00023556
16370.0 0.00023484
16390.0 0.00023417
16410.0 0.00023349
16430.0 0.00023279
16450.0 0.00023208
16470.0 0.00023141
16490.0 0.0002307
16510.0 0.00022998
16530.0 0.00022928
16550.0 0.00022858
16570.0 0.00022784
16590.0 0.00022711
16610.0 0.00022642
16630.0 0.00022569
16650.0 0.00022495
16670.0 0.00022424
16690.0 0.00022352
16710.0 0.00022275
16730.0 0.000222
16750.0 0.00022128
16770.0 0.00022052
16790.0 0.00021975
16810.0 0.00021901
16830.0 0.00021826
16850.0 0.00021748
16870.0 0.00021672
16890.0 0.00021597
16910.0 0.00021518
16930.0 0.00021438
16950.0 0.00021361
16970.0 0.00021284
16990.0 0.00021203
17010.0 0.00021124
17030.0 0.00021047
17050.0 0.00020965
17070.0 0.00020884
17090.0 0.00020805
17110.0 0.00020724
17130.0 0.00020639
17150.0 0.00020558
17170.0 0.00020478
17190.0 0.00020394
17210.0 0.0002031
17230.0 0.0002023
17250.0 0.00020146
17270.0 0.00020059
17290.0 0.00019976
17310.0 0.00019892
17330.0 0.00019806
17350.0 0.00019719
17370.0 0.00019636
17390.0 0.0001955
17410.0 0.00019462
17430.0 0.00019376
17450.0 0.00019291
17470.0 0.00019201
17490.0 0.00019112
17510.0 0.00019026
17530.0 0.00018938
17550.0 0.00018847
17570.0 0.0001876
17590.0 0.00018673
17610.0 0.00018582
17630.0 0.00018491
17650.0 0.00018403
17670.0 0.00018313
17690.0 0.00018219
17710.0 0.0001813
17730.0 0.0001804
17750.0 0.00017947
17770.0 0.00017856
17790.0 0.00017767
17810.0 0.00017674
17830.0 0.0001758
17850.0 0.00017488
17870.0 0.00017397
17890.0 0.00017302
17910.0 0.00017208
17930.0 0.00017117
17950.0 0.00017023
17970.0 0.00016928
17990.0 0.00016836
18010.0 0.00016744
18030.0 0.00016646
18050.0 0.00016552
18070.0 0.00016459
18090.0 0.00016364
18110.0 0.00016267
18130.0 0.00016175
18150.0 0.00016081
18170.0 0.00015984
18190.0 0.00015889
18210.0 0.00015796
18230.0 0.00015699
18250.0 0.00015601
18270.0 0.00015507
18290.0 0.00015412
18310.0 0.00015315
18330.0 0.00015219
18350.0 0.00015126
18370.0 0.00015028
18390.0 0.00014931
18410.0 0.00014837
18430.0 0.00014741
18450.0 0.00014642
18470.0 0.00014546
18490.0 0.00014452
18510.0 0.00014355
18530.0 0.00014257
18550.0 0.00014164
18570.0 0.00014067
18590.0 0.00013968
18610.0 0.00013873
18630.0 0.00013778
18650.0 0.0001368
18670.0 0.00013582
18690.0 0.00013489
18710.0 0.00013393
18730.0 0.00013295
18750.0 0.000132
18770.0 0.00013106
18790.0 0.00013007
18810.0 0.0001291
18830.0 0.00012816
18850.0 0.00012721
18870.0 0.00012623
18890.0 0.00012529
18910.0 0.00012435
18930.0 0.00012338
18950.0 0.00012242
18970.0 0.00012148
18990.0 0.00012053
19010.0 0.00011954
19030.0 0.00011861
19050.0 0.00011768
19070.0 0.00011671
19090.0 0.00011577
19110.0 0.00011485
19130.0 0.00011389
19150.0 0.00011293
19170.0 0.000112
19190.0 0.00011107
19210.0 0.00011011
19230.0 0.00010917
19250.0 0.00010826
19270.0 0.00010732
19290.0 0.00010637
19310.0 0.00010546
19330.0 0.00010454
19350.0 0.00010358
19370.0 0.00010265
19390.0 0.00010175
19410.0 0.00010081
19430.0 9.9875e-05
19450.0 9.8977e-05
19470.0 9.8067e-05
19490.0 9.7133e-05
19510.0 9.6222e-05
19530.0 9.5328e-05
19550.0 9.4399e-05
19570.0 9.3469e-05
19590.0 9.2582e-05
19610.0 9.1681e-05
19630.0 9.0761e-05
19650.0 8.9866e-05
19670.0 8.8989e-05
19690.0 8.8073e-05
19710.0 8.7167e-05
19730.0 8.6289e-05
19750.0 8.5399e-05
19770.0 8.448e-05
19790.0 8.36e-05
19810.0 8.2731e-05
19830.0 8.1833e-05
19850.0 8.0936e-05
19870.0 8.006e-05
19890.0 7.9136e-05
19910.0 7.8147e-05
19930.0 7.7128e-05
19950.0 7.6018e-05
19970.0 7.4732e-05
19990.0 7.3281e-05
20010.0 7.173e-05
20030.0 6.9968e-05
20050.0 6.8042e-05
20070.0 6.6095e-05
20090.0 6.4145e-05
20110.0 6.2116e-05
20130.0 6.0238e-05
20150.0 5.8539e-05
20170.0 5.6939e-05
20190.0 5.548e-05
20210.0 5.4241e-05
20230.0 5.3157e-05
20250.0 5.2193e-05
20270.0 5.1407e-05
20290.0 5.0779e-05
20310.0 5.0271e-05
20330.0 4.9886e-05
20350.0 4.9643e-05
20370.0 4.9504e-05
20390.0 4.9474e-05
20410.0 4.9549e-05
20430.0 4.9715e-05
20450.0 4.9994e-05
20470.0 5.0379e-05
20490.0 5.0846e-05
20510.0 5.1411e-05
20530.0 5.21e-05
20550.0 5.2866e-05
20570.0 5.3682e-05
20590.0 5.4609e-05
20610.0 5.5606e-05
20630.0 5.6613e-05
20650.0 5.7666e-05
20670.0 5.8793e-05
20690.0 5.9868e-05
20710.0 6.0909e-05
20730.0 6.1956e-05
20750.0 6.2967e-05
20770.0 6.3885e-05
20790.0 6.4778e-05
20810.0 6.5655e-05
20830.0 6.6469e-05
20850.0 6.7244e-05
20870.0 6.8046e-05
20890.0 6.885e-05
20910.0 6.9625e-05
20930.0 7.0442e-05
20950.0 7.1309e-05
20970.0 7.2175e-05
20990.0 7.3048e-05
21010.0 7.3981e-05
21030.0 7.4897e-05
21050.0 7.5761e-05
21070.0 7.6602e-05
21090.0 7.7407e-05
21110.0 7.8089e-05
21130.0 7.8669e-05
21150.0 7.9162e-05
21170.0 7.9525e-05
21190.0 7.9753e-05
21210.0 7.9864e-05
21230.0 7.9841e-05
21250.0 7.969e-05
21270.0 7.9424e-05
21290.0 7.9034e-05
21310.0 7.8537e-05
21330.0 7.7967e-05
21350.0 7.7295e-05
21370.0 7.6534e-05
21390.0 7.5731e-05
21410.0 7.488e-05
21430.0 7.3935e-05
21450.0 7.2987e-05
21470.0 7.2049e-05
21490.0 7.1079e-05
21510.0 7.0102e-05
21530.0 6.9183e-05
21550.0 6.8288e-05
21570.0 6.7403e-05
21590.0 6.6595e-05
21610.0 6.587e-05
21630.0 6.5201e-05
21650.0 6.4608e-05
21670.0 6.4147e-05
21690.0 6.3777e-05
21710.0 6.3508e-05
21730.0 6.3359e-05
21750.0 6.3322e-05
21770.0 6.3405e-05
21790.0 6.361e-05
21810.0 6.3919e-05
21830.0 6.4339e-05
21850.0 6.4887e-05
21870.0 6.552e-05
21890.0 6.6221e-05
21910.0 6.7037e-05
21930.0 6.7931e-05
21950.0 6.8856e-05
21970.0 6.9851e-05
21990.0 7.0944e-05
22010.0 7.2019e-05
22030.0 7.3101e-05
22050.0 7.4232e-05
22070.0 7.5362e-05
22090.0 7.6426e-05
22110.0 7.7493e-05
22130.0 7.8548e-05
22150.0 7.9516e-05
22170.0 8.0409e-05
22190.0 8.1263e-05
22210.0 8.2016e-05
22230.0 8.2629e-05
22250.0 8.3145e-05
22270.0 8.3542e-05
22290.0 8.3789e-05
22310.0 8.3897e-05
22330.0 8.3855e-05
22350.0 8.3651e-05
22370.0 8.3297e-05
22390.0 8.2777e-05
22410.0 8.2071e-05
22430.0 8.1243e-05
22450.0 8.0277e-05
22470.0 7.9132e-05
22490.0 7.7865e-05
22510.0 7.6526e-05
22530.0 7.5022e-05
22550.0 7.3388e-05
22570.0 7.1743e-05
22590.0 7.0034e-05
22610.0 6.8214e-05
22630.0 6.6379e-05
22650.0 6.4601e-05
22670.0 6.2748e-05
22690.0 6.0882e-05
22710.0 5.91e-05
22730.0 5.7354e-05
22750.0 5.5557e-05
22770.0 5.3887e-05
22790.0 5.2333e-05
22810.0 5.0813e-05
22830.0 4.9373e-05
22850.0 4.8094e-05
22870.0 4.6908e-05
22890.0 4.5804e-05
22910.0 4.4863e-05
22930.0 4.4077e-05
22950.0 4.3412e-05
22970.0 4.2897e-05
