#lamb flux
1010.0 0.00012937
1030.0 0.00012937
1050.0 0.00012937
1070.0 0.00012937
1090.0 0.00012937
1110.0 0.00012937
1130.0 0.00012937
1150.0 0.00012937
1170.0 0.00012937
1190.0 0.00012937
1210.0 0.00012937
1230.0 0.00012937
1250.0 0.00012937
1270.0 0.00012937
1290.0 0.00012937
1310.0 0.00012937
1330.0 0.00012937
1350.0 0.00012937
1370.0 0.00012937
1390.0 0.00012937
1410.0 0.00012937
1430.0 0.00012937
1450.0 0.00012937
1470.0 0.00012937
1490.0 0.00012937
1510.0 0.00012937
1530.0 0.00012951
1550.0 0.00015364
1570.0 0.00018018
1590.0 0.00020918
1610.0 0.00024033
1630.0 0.00027373
1650.0 0.00031054
1670.0 0.00035058
1690.0 0.00039429
1710.0 0.00044261
1730.0 0.00049562
1750.0 0.00055273
1770.0 0.00061533
1790.0 0.00068367
1810.0 0.00075708
1830.0 0.00083574
1850.0 0.00092116
1870.0 0.0010116
1890.0 0.0011065
1910.0 0.0012067
1930.0 0.0013117
1950.0 0.0014192
1970.0 0.0015289
1990.0 0.0016416
2010.0 0.0017545
2030.0 0.0018658
2050.0 0.0019765
2070.0 0.0020855
2090.0 0.0021884
2110.0 0.0022861
2130.0 0.0023789
2150.0 0.0024639
2170.0 0.0025394
2190.0 0.0026079
2210.0 0.0026679
2230.0 0.0027172
2250.0 0.0027571
2270.0 0.0027897
2290.0 0.0028122
2310.0 0.0028245
2330.0 0.0028302
2350.0 0.0028287
2370.0 0.002819
2390.0 0.0028039
2410.0 0.0027857
2430.0 0.0027624
2450.0 0.0027354
2470.0 0.0027077
2490.0 0.0026805
2510.0 0.0026532
2530.0 0.0026335
2550.0 0.0026311
2570.0 0.0026547
2590.0 0.0027152
2610.0 0.0028421
2630.0 0.0030411
2650.0 0.0032999
2670.0 0.0036271
2690.0 0.004019
2710.0 0.0044293
2730.0 0.0048409
2750.0 0.0052781
2770.0 0.0057116
2790.0 0.0061285
2810.0 0.0065568
2830.0 0.0070205
2850.0 0.0074703
2870.0 0.0079321
2890.0 0.0084298
2910.0 0.0089471
2930.0 0.0094641
2950.0 0.010023
2970.0 0.010618
2990.0 0.011223
3010.0 0.011852
3030.0 0.012527
3050.0 0.013226
3070.0 0.013909
3090.0 0.014605
3110.0 0.015278
3130.0 0.015873
3150.0 0.016371
3170.0 0.016748
3190.0 0.016969
3210.0 0.017034
3230.0 0.017009
3250.0 0.017101
3270.0 0.017439
3290.0 0.017988
3310.0 0.018707
3330.0 0.019594
3350.0 0.020595
3370.0 0.021709
3390.0 0.022934
3410.0 0.024144
3430.0 0.026328
3450.0 0.027983
3470.0 0.029602
3490.0 0.03022
3510.0 0.029698
3530.0 0.033258
3550.0 0.039876
3570.0 0.043841
3590.0 0.045832
3610.0 0.046274
3630.0 0.044498
3650.0 0.048055
3670.0 0.057448
3690.0 0.064633
3710.0 0.067935
3730.0 0.07028
3750.0 0.07354
3770.0 0.073363
3790.0 0.070133
3810.0 0.065891
3830.0 0.061239
3850.0 0.060849
3870.0 0.065277
3890.0 0.069829
3910.0 0.073239
3930.0 0.074727
3950.0 0.080269
3970.0 0.085829
3990.0 0.08231
4010.0 0.073101
4030.0 0.06443
4050.0 0.061633
4070.0 0.06379
4090.0 0.064338
4110.0 0.062781
4130.0 0.06181
4150.0 0.06285
4170.0 0.069014
4190.0 0.075497
4210.0 0.074021
4230.0 0.069553
4250.0 0.067338
4270.0 0.066465
4290.0 0.06837
4310.0 0.070791
4330.0 0.067428
4350.0 0.058933
4370.0 0.051902
4390.0 0.047042
4410.0 0.042931
4430.0 0.042679
4450.0 0.046318
4470.0 0.049736
4490.0 0.054252
4510.0 0.061822
4530.0 0.077015
4550.0 0.095349
4570.0 0.1063
4590.0 0.11349
4610.0 0.12332
4630.0 0.12937
4650.0 0.12075
4670.0 0.099812
4690.0 0.083076
4710.0 0.076876
4730.0 0.074642
4750.0 0.067869
4770.0 0.062286
4790.0 0.065064
4810.0 0.070883
4830.0 0.071158
4850.0 0.066297
4870.0 0.064144
4890.0 0.067683
4910.0 0.071608
4930.0 0.07189
4950.0 0.069542
4970.0 0.065731
4990.0 0.059964
5010.0 0.0546
5030.0 0.051427
5050.0 0.049981
5070.0 0.048915
5090.0 0.047786
5110.0 0.047597
5130.0 0.048125
5150.0 0.05071
5170.0 0.056262
5190.0 0.063032
5210.0 0.070622
5230.0 0.075414
5250.0 0.077869
5270.0 0.082169
5290.0 0.086796
5310.0 0.088324
5330.0 0.084988
5350.0 0.080675
5370.0 0.08063
5390.0 0.085922
5410.0 0.091794
5430.0 0.094807
5450.0 0.094964
5470.0 0.09238
5490.0 0.088746
5510.0 0.086644
5530.0 0.086693
5550.0 0.087791
5570.0 0.08852
5590.0 0.086151
5610.0 0.081633
5630.0 0.07647
5650.0 0.071832
5670.0 0.069054
5690.0 0.066731
5710.0 0.065082
5730.0 0.065903
5750.0 0.065666
5770.0 0.064302
5790.0 0.064752
5810.0 0.065828
5830.0 0.067007
5850.0 0.06758
5870.0 0.066313
5890.0 0.063504
5910.0 0.05996
5930.0 0.054678
5950.0 0.050707
5970.0 0.050223
5990.0 0.052023
6010.0 0.052998
6030.0 0.051178
6050.0 0.049943
6070.0 0.051855
6090.0 0.055147
6110.0 0.056848
6130.0 0.055221
6150.0 0.052036
6170.0 0.049802
6190.0 0.047558
6210.0 0.044899
6230.0 0.042572
6250.0 0.041651
6270.0 0.042711
6290.0 0.044608
6310.0 0.047255
6330.0 0.050525
6350.0 0.053657
6370.0 0.055284
6390.0 0.055585
6410.0 0.056103
6430.0 0.056683
6450.0 0.057059
6470.0 0.058019
6490.0 0.059101
6510.0 0.059634
6530.0 0.059275
6550.0 0.057887
6570.0 0.055776
6590.0 0.053702
6610.0 0.052218
6630.0 0.05117
6650.0 0.049488
6670.0 0.047322
6690.0 0.045601
6710.0 0.04461
6730.0 0.044276
6750.0 0.043671
6770.0 0.042766
6790.0 0.042086
6810.0 0.041424
6830.0 0.041164
6850.0 0.04153
6870.0 0.041558
6890.0 0.041211
6910.0 0.040288
6930.0 0.03935
6950.0 0.03889
6970.0 0.037901
6990.0 0.036557
7010.0 0.035977
7030.0 0.03561
7050.0 0.034709
7070.0 0.033499
7090.0 0.032833
7110.0 0.03336
7130.0 0.035032
7150.0 0.036926
7170.0 0.038143
7190.0 0.037813
7210.0 0.036695
7230.0 0.036002
7250.0 0.03567
7270.0 0.0355
7290.0 0.035132
7310.0 0.035131
7330.0 0.035952
7350.0 0.03701
7370.0 0.037638
7390.0 0.037365
7410.0 0.03643
7430.0 0.035671
7450.0 0.034868
7470.0 0.033104
7490.0 0.031912
7510.0 0.030739
7530.0 0.029924
7550.0 0.029988
7570.0 0.030327
7590.0 0.030323
7610.0 0.03009
7630.0 0.029948
7650.0 0.029919
7670.0 0.030539
7690.0 0.031527
7710.0 0.032783
7730.0 0.033675
7750.0 0.034682
7770.0 0.035251
7790.0 0.035351
7810.0 0.035071
7830.0 0.035289
7850.0 0.035002
7870.0 0.033647
7890.0 0.032241
7910.0 0.031191
7930.0 0.030239
7950.0 0.02948
7970.0 0.029245
7990.0 0.02953
8010.0 0.028816
8030.0 0.028474
8050.0 0.028012
8070.0 0.027479
8090.0 0.026931
8110.0 0.026924
8130.0 0.027086
8150.0 0.026991
8170.0 0.026779
8190.0 0.026131
8210.0 0.024684
8230.0 0.023
8250.0 0.021987
8270.0 0.021287
8290.0 0.020728
8310.0 0.020623
8330.0 0.020784
8350.0 0.020286
8370.0 0.019867
8390.0 0.020331
8410.0 0.02138
8430.0 0.022828
8450.0 0.024282
8470.0 0.024983
8490.0 0.025559
8510.0 0.025854
8530.0 0.026166
8550.0 0.026559
8570.0 0.026779
8590.0 0.026991
8610.0 0.027709
8630.0 0.028
8650.0 0.027416
8670.0 0.027403
8690.0 0.027699
8710.0 0.027851
8730.0 0.027665
8750.0 0.026921
8770.0 0.026593
8790.0 0.026417
8810.0 0.026038
8830.0 0.02443
8850.0 0.022373
8870.0 0.020889
8890.0 0.020081
8910.0 0.018936
8930.0 0.01761
8950.0 0.016843
8970.0 0.016728
8990.0 0.016847
9010.0 0.016794
9030.0 0.016675
9050.0 0.016564
9070.0 0.016465
9090.0 0.016369
9110.0 0.016273
9130.0 0.016178
9150.0 0.016083
9170.0 0.015988
9190.0 0.015894
9210.0 0.015799
9230.0 0.015706
9250.0 0.015614
9270.0 0.015522
9290.0 0.01543
9310.0 0.015339
9330.0 0.015248
9350.0 0.015158
9370.0 0.015067
9390.0 0.014978
9410.0 0.014889
9430.0 0.014799
9450.0 0.014706
9470.0 0.014614
9490.0 0.014533
9510.0 0.014448
9530.0 0.014364
9550.0 0.014279
9570.0 0.014194
9590.0 0.01411
9610.0 0.014026
9630.0 0.013942
9650.0 0.013859
9670.0 0.013776
9690.0 0.013694
9710.0 0.013612
9730.0 0.01353
9750.0 0.013449
9770.0 0.013368
9790.0 0.013288
9810.0 0.013208
9830.0 0.013127
9850.0 0.013039
9870.0 0.012962
9890.0 0.012887
9910.0 0.01281
9930.0 0.012732
9950.0 0.012657
9970.0 0.01258
9990.0 0.012501
10010.0 0.012413
10030.0 0.012332
10050.0 0.012262
10070.0 0.01219
10090.0 0.012117
10110.0 0.012038
10130.0 0.01194
10150.0 0.011869
10170.0 0.011802
10190.0 0.01173
10210.0 0.011659
10230.0 0.011588
10250.0 0.011513
10270.0 0.011437
10290.0 0.011365
10310.0 0.011289
10330.0 0.011211
10350.0 0.011136
10370.0 0.011062
10390.0 0.010985
10410.0 0.010908
10430.0 0.010835
10450.0 0.010759
10470.0 0.010681
10490.0 0.010606
10510.0 0.010531
10530.0 0.010452
10550.0 0.010374
10570.0 0.010299
10590.0 0.010222
10610.0 0.010143
10630.0 0.010067
10650.0 0.0099903
10670.0 0.0099097
10690.0 0.0098309
10710.0 0.009754
10730.0 0.0096742
10750.0 0.0095914
10770.0 0.009514
10790.0 0.0094351
10810.0 0.009353
10830.0 0.0092724
10850.0 0.0091944
10870.0 0.009111
10890.0 0.0090277
10910.0 0.008948
10930.0 0.0088678
10950.0 0.0087854
10970.0 0.0087061
10990.0 0.0086313
11010.0 0.008629
11030.0 0.008556
11050.0 0.0084868
11070.0 0.0084177
11090.0 0.0083455
11110.0 0.0082776
11130.0 0.0082113
11150.0 0.008144
11170.0 0.0080781
11190.0 0.0080172
11210.0 0.0079573
11230.0 0.0078989
11250.0 0.0078456
11270.0 0.0077964
11290.0 0.0077487
11310.0 0.0077044
11330.0 0.0076654
11350.0 0.0076282
11370.0 0.0075924
11390.0 0.0075595
11410.0 0.0075281
11430.0 0.0074956
11450.0 0.0074637
11470.0 0.0074319
11490.0 0.0073983
11510.0 0.0073619
11530.0 0.0073245
11550.0 0.0072848
11570.0 0.0072406
11590.0 0.0071933
11610.0 0.007144
11630.0 0.0070892
11650.0 0.0070292
11670.0 0.0069678
11690.0 0.006903
11710.0 0.0068324
11730.0 0.0067592
11750.0 0.0066859
11770.0 0.0066073
11790.0 0.0065254
11810.0 0.006444
11830.0 0.0063613
11850.0 0.0062733
11870.0 0.006187
11890.0 0.0061032
11910.0 0.0060173
11930.0 0.0059312
11950.0 0.0058494
11970.0 0.0057686
11990.0 0.0056868
12010.0 0.0056095
12030.0 0.0055363
12050.0 0.0054639
12070.0 0.0053933
12090.0 0.0053298
12110.0 0.0052686
12130.0 0.0052095
12150.0 0.0051552
12170.0 0.0051061
12190.0 0.0050587
12210.0 0.0050163
12230.0 0.0049798
12250.0 0.0049476
12270.0 0.0049197
12290.0 0.0048974
12310.0 0.00488
12330.0 0.0048667
12350.0 0.0048578
12370.0 0.0048525
12390.0 0.0048504
12410.0 0.0048515
12430.0 0.004854
12450.0 0.0048577
12470.0 0.0048626
12490.0 0.0048675
12510.0 0.0048712
12530.0 0.0048742
12550.0 0.0048758
12570.0 0.0048747
12590.0 0.0048709
12610.0 0.004864
12630.0 0.0048532
12650.0 0.0048388
12670.0 0.0048202
12690.0 0.004797
12710.0 0.0047701
12730.0 0.0047396
12750.0 0.0047038
12770.0 0.0046649
12790.0 0.0046238
12810.0 0.0045794
12830.0 0.0045317
12850.0 0.0044841
12870.0 0.0044357
12890.0 0.0043851
12910.0 0.0043348
12930.0 0.0042859
12950.0 0.0042359
12970.0 0.0041857
12990.0 0.0041383
13010.0 0.0040916
13030.0 0.0040447
13050.0 0.0039995
13070.0 0.0039566
13090.0 0.0039135
13110.0 0.0038714
13130.0 0.0038317
13150.0 0.0037933
13170.0 0.0037549
13190.0 0.0037192
13210.0 0.003686
13230.0 0.0036536
13250.0 0.0036227
13270.0 0.0035943
13290.0 0.0035672
13310.0 0.0035406
13330.0 0.0035157
13350.0 0.0034921
13370.0 0.0034686
13390.0 0.003445
13410.0 0.0034226
13430.0 0.0033997
13450.0 0.003376
13470.0 0.0033521
13490.0 0.0033281
13510.0 0.0033022
13530.0 0.0032756
13550.0 0.003249
13570.0 0.0032215
13590.0 0.0031925
13610.0 0.0031637
13630.0 0.0031351
13650.0 0.0031051
13670.0 0.003075
13690.0 0.0030457
13710.0 0.003016
13730.0 0.002985
13750.0 0.0029557
13770.0 0.0029267
13790.0 0.0028969
13810.0 0.0028674
13830.0 0.0028391
13850.0 0.0028102
13870.0 0.002781
13890.0 0.0027529
13910.0 0.0027252
13930.0 0.0026969
13950.0 0.0026691
13970.0 0.002643
13990.0 0.0026166
14010.0 0.0025902
14030.0 0.0025651
14050.0 0.0025405
14070.0 0.0025151
14090.0 0.0024908
14110.0 0.0024675
14130.0 0.0024441
14150.0 0.0024207
14170.0 0.0023988
14190.0 0.0023775
14210.0 0.0023561
14230.0 0.0023358
14250.0 0.0023169
14270.0 0.002298
14290.0 0.0022797
14310.0 0.0022633
14330.0 0.0022477
14350.0 0.0022325
14370.0 0.0022186
14390.0 0.0022059
14410.0 0.0021934
14430.0 0.0021815
14450.0 0.0021707
14470.0 0.0021604
14490.0 0.00215
14510.0 0.0021403
14530.0 0.0021313
14550.0 0.002122
14570.0 0.0021128
14590.0 0.0021041
14610.0 0.0020951
14630.0 0.0020857
14650.0 0.0020767
14670.0 0.0020678
14690.0 0.0020588
14710.0 0.00205
14730.0 0.0020425
14750.0 0.0020358
14770.0 0.0020302
14790.0 0.0020265
14810.0 0.002025
14830.0 0.0020259
14850.0 0.0020298
14870.0 0.0020366
14890.0 0.0020463
14910.0 0.0020591
14930.0 0.0020736
14950.0 0.0020889
14970.0 0.0021048
14990.0 0.0021197
15010.0 0.0021325
15030.0 0.0021432
15050.0 0.0021518
15070.0 0.0021579
15090.0 0.0021624
15110.0 0.0021659
15130.0 0.0021686
15150.0 0.0021711
15170.0 0.0021734
15190.0 0.0021756
15210.0 0.0021779
15230.0 0.0021803
15250.0 0.0021827
15270.0 0.0021852
15290.0 0.0021878
15310.0 0.0021905
15330.0 0.0021932
15350.0 0.0021961
15370.0 0.002199
15390.0 0.0022019
15410.0 0.0022049
15430.0 0.0022081
15450.0 0.0022113
15470.0 0.0022145
15490.0 0.0022178
15510.0 0.0022213
15530.0 0.0022247
15550.0 0.0022282
15570.0 0.0022318
15590.0 0.0022355
15610.0 0.0022391
15630.0 0.0022429
15650.0 0.0022468
15670.0 0.0022506
15690.0 0.0022546
15710.0 0.0022586
15730.0 0.0022627
15750.0 0.0022667
15770.0 0.0022709
15790.0 0.0022752
15810.0 0.0022794
15830.0 0.0022837
15850.0 0.0022881
15870.0 0.0022925
15890.0 0.0022969
15910.0 0.0023014
15930.0 0.002306
15950.0 0.0023105
15970.0 0.0023151
15990.0 0.0023198
16010.0 0.0023245
16030.0 0.0023291
16050.0 0.0023339
16070.0 0.0023387
16090.0 0.0023435
16110.0 0.0023484
16130.0 0.0023533
16150.0 0.0023581
16170.0 0.002363
16190.0 0.002368
16210.0 0.002373
16230.0 0.0023779
16250.0 0.0023829
16270.0 0.002388
16290.0 0.002393
16310.0 0.002398
16330.0 0.0024031
16350.0 0.0024081
16370.0 0.0024131
16390.0 0.0024182
16410.0 0.0024234
16430.0 0.0024284
16450.0 0.0024335
16470.0 0.0024386
16490.0 0.0024437
16510.0 0.0024487
16530.0 0.0024538
16550.0 0.0024589
16570.0 0.0024639
16590.0 0.0024689
16610.0 0.002474
16630.0 0.002479
16650.0 0.002484
16670.0 0.002489
16690.0 0.002494
16710.0 0.0024988
16730.0 0.0025037
16750.0 0.0025087
16770.0 0.0025135
16790.0 0.0025183
16810.0 0.0025231
16830.0 0.002528
16850.0 0.0025326
16870.0 0.0025373
16890.0 0.0025421
16910.0 0.0025466
16930.0 0.0025511
16950.0 0.0025557
16970.0 0.0025602
16990.0 0.0025646
17010.0 0.002569
17030.0 0.0025734
17050.0 0.0025776
17070.0 0.0025818
17090.0 0.002586
17110.0 0.0025902
17130.0 0.0025941
17150.0 0.0025981
17170.0 0.0026021
17190.0 0.0026059
17210.0 0.0026097
17230.0 0.0026135
17250.0 0.0026171
17270.0 0.0026206
17290.0 0.0026242
17310.0 0.0026276
17330.0 0.0026309
17350.0 0.0026341
17370.0 0.0026374
17390.0 0.0026405
17410.0 0.0026435
17430.0 0.0026464
17450.0 0.0026493
17470.0 0.002652
17490.0 0.0026546
17510.0 0.0026572
17530.0 0.0026597
17550.0 0.002662
17570.0 0.0026643
17590.0 0.0026665
17610.0 0.0026685
17630.0 0.0026705
17650.0 0.0026724
17670.0 0.0026741
17690.0 0.0026756
17710.0 0.0026772
17730.0 0.0026787
17750.0 0.00268
17770.0 0.0026812
17790.0 0.0026823
17810.0 0.0026833
17830.0 0.002684
17850.0 0.0026848
17870.0 0.0026855
17890.0 0.0026859
17910.0 0.0026862
17930.0 0.0026865
17950.0 0.0026867
17970.0 0.0026866
17990.0 0.0026865
18010.0 0.0026863
18030.0 0.0026858
18050.0 0.0026853
18070.0 0.0026847
18090.0 0.0026839
18110.0 0.002683
18130.0 0.002682
18150.0 0.0026808
18170.0 0.0026795
18190.0 0.002678
18210.0 0.0026765
18230.0 0.0026748
18250.0 0.0026728
18270.0 0.0026709
18290.0 0.0026688
18310.0 0.0026665
18330.0 0.0026641
18350.0 0.0026617
18370.0 0.0026589
18390.0 0.0026561
18410.0 0.0026532
18430.0 0.0026501
18450.0 0.0026467
18470.0 0.0026434
18490.0 0.0026399
18510.0 0.0026363
18530.0 0.0026324
18550.0 0.0026286
18570.0 0.0026245
18590.0 0.0026202
18610.0 0.0026159
18630.0 0.0026114
18650.0 0.0026067
18670.0 0.0026019
18690.0 0.0025971
18710.0 0.002592
18730.0 0.0025868
18750.0 0.0025815
18770.0 0.0025761
18790.0 0.0025704
18810.0 0.0025647
18830.0 0.0025589
18850.0 0.0025529
18870.0 0.0025467
18890.0 0.0025405
18910.0 0.0025341
18930.0 0.0025275
18950.0 0.0025209
18970.0 0.0025142
18990.0 0.0025072
19010.0 0.0025001
19030.0 0.002493
19050.0 0.0024857
19070.0 0.0024782
19090.0 0.0024707
19110.0 0.0024631
19130.0 0.0024553
19150.0 0.0024473
19170.0 0.0024394
19190.0 0.0024313
19210.0 0.0024229
19230.0 0.0024145
19250.0 0.0024061
19270.0 0.0023975
19290.0 0.0023888
19310.0 0.00238
19330.0 0.0023712
19350.0 0.002362
19370.0 0.0023529
19390.0 0.0023437
19410.0 0.0023344
19430.0 0.0023249
19450.0 0.0023154
19470.0 0.0023058
19490.0 0.0022961
19510.0 0.0022863
19530.0 0.0022764
19550.0 0.0022664
19570.0 0.0022562
19590.0 0.0022461
19610.0 0.0022359
19630.0 0.0022255
19650.0 0.0022151
19670.0 0.0022047
19690.0 0.002194
19710.0 0.0021834
19730.0 0.0021727
19750.0 0.0021619
19770.0 0.002151
19790.0 0.0021401
19810.0 0.0021291
19830.0 0.002118
19850.0 0.0021067
19870.0 0.0020954
19890.0 0.0020836
19910.0 0.0020711
19930.0 0.0020579
19950.0 0.0020433
19970.0 0.0020266
19990.0 0.0020075
20010.0 0.0019863
20030.0 0.0019621
20050.0 0.001935
20070.0 0.0019064
20090.0 0.0018763
20110.0 0.0018438
20130.0 0.0018114
20150.0 0.0017795
20170.0 0.0017471
20190.0 0.0017147
20210.0 0.0016837
20230.0 0.0016534
20250.0 0.0016228
20270.0 0.0015937
20290.0 0.001566
20310.0 0.0015388
20330.0 0.0015121
20350.0 0.0014878
20370.0 0.0014644
20390.0 0.0014417
20410.0 0.0014206
20430.0 0.0014011
20450.0 0.0013821
20470.0 0.0013644
20490.0 0.0013482
20510.0 0.0013331
20530.0 0.0013188
20550.0 0.0013056
20570.0 0.0012936
20590.0 0.0012822
20610.0 0.0012716
20630.0 0.0012618
20650.0 0.0012526
20670.0 0.0012439
20690.0 0.0012356
20710.0 0.0012276
20730.0 0.0012199
20750.0 0.0012122
20770.0 0.0012046
20790.0 0.0011969
20810.0 0.0011891
20830.0 0.001181
20850.0 0.0011726
20870.0 0.0011638
20890.0 0.0011545
20910.0 0.0011448
20930.0 0.0011346
20950.0 0.0011238
20970.0 0.0011125
20990.0 0.0011008
21010.0 0.0010884
21030.0 0.0010755
21050.0 0.0010624
21070.0 0.0010488
21090.0 0.0010346
21110.0 0.0010205
21130.0 0.0010061
21150.0 0.00099142
21170.0 0.00097666
21190.0 0.00096212
21210.0 0.00094731
21230.0 0.00093241
21250.0 0.00091795
21270.0 0.00090367
21290.0 0.00088935
21310.0 0.00087534
21330.0 0.00086192
21350.0 0.00084855
21370.0 0.00083541
21390.0 0.00082281
21410.0 0.00081058
21430.0 0.00079835
21450.0 0.00078668
21470.0 0.00077551
21490.0 0.00076452
21510.0 0.0007538
21530.0 0.00074358
21550.0 0.00073362
21570.0 0.0007238
21590.0 0.00071434
21610.0 0.0007052
21630.0 0.0006962
21650.0 0.00068732
21670.0 0.00067884
21690.0 0.00067049
21710.0 0.00066221
21730.0 0.00065412
21750.0 0.00064622
21770.0 0.00063827
21790.0 0.00063043
21810.0 0.00062272
21830.0 0.00061503
21850.0 0.00060729
21870.0 0.00059963
21890.0 0.00059203
21910.0 0.00058433
21930.0 0.00057661
21950.0 0.00056896
21970.0 0.00056124
21990.0 0.00055336
22010.0 0.00054559
22030.0 0.00053784
22050.0 0.00052997
22070.0 0.00052209
22090.0 0.00051435
22110.0 0.00050655
22130.0 0.00049868
22150.0 0.00049094
22170.0 0.00048328
22190.0 0.00047552
22210.0 0.00046783
22230.0 0.00046036
22250.0 0.00045288
22270.0 0.0004454
22290.0 0.00043809
22310.0 0.00043089
22330.0 0.00042361
22350.0 0.00041644
22370.0 0.00040944
22390.0 0.00040243
22410.0 0.00039538
22430.0 0.00038854
22450.0 0.00038176
22470.0 0.00037492
22490.0 0.00036815
22510.0 0.00036154
22530.0 0.00035485
22550.0 0.00034814
22570.0 0.00034162
22590.0 0.00033516
22610.0 0.00032865
22630.0 0.00032227
22650.0 0.00031609
22670.0 0.0003099
22690.0 0.0003038
22710.0 0.00029791
22730.0 0.00029217
22750.0 0.00028642
22770.0 0.00028095
22790.0 0.00027571
22810.0 0.00027058
22830.0 0.00026562
22850.0 0.00026095
22870.0 0.00025646
22890.0 0.00025213
22910.0 0.00024807
22930.0 0.00024425
22950.0 0.00024063
22970.0 0.00023724
22990.0 0.00023411
23010.0 0.00023119
23030.0 0.00022846
23050.0 0.00022591
23070.0 0.00022351
23090.0 0.00022126
23110.0 0.0002191
23130.0 0.00021698
23150.0 0.00021488
23170.0 0.0002128
23190.0 0.00021066
23210.0 0.00020844
23230.0 0.00020616
23250.0 0.00020376
23270.0 0.00020126
23290.0 0.00019863
23310.0 0.00019586
23330.0 0.00019298
23350.0 0.00018999
23370.0 0.00018688
23390.0 0.00018365
23410.0 0.00018038
23430.0 0.00017702
23450.0 0.00017354
23470.0 0.00017005
23490.0 0.00016655
23510.0 0.00016299
23530.0 0.00015947
23550.0 0.00015604
23570.0 0.00015264
23590.0 0.00014931
23610.0 0.00014612
23630.0 0.00014309
23650.0 0.00014019
23670.0 0.00013754
23690.0 0.00013514
23710.0 0.00013303
23730.0 0.00013127
23750.0 0.00012984
23770.0 0.00012937
23790.0 0.00012937
23810.0 0.00012937
23830.0 0.00012937
23850.0 0.00012937
23870.0 0.00012937
23890.0 0.0001299
23910.0 0.00013099
23930.0 0.00013234
23950.0 0.00013372
23970.0 0.00013498
23990.0 0.00013636
24010.0 0.00013769
24030.0 0.00013875
24050.0 0.00013964
