#lamb flux
1010.0 4.3278e-06
1030.0 4.872e-06
1050.0 5.4612e-06
1070.0 6.1279e-06
1090.0 6.9003e-06
1110.0 7.6971e-06
1130.0 8.506e-06
1150.0 9.361e-06
1170.0 1.0254e-05
1190.0 1.1118e-05
1210.0 1.201e-05
1230.0 1.2951e-05
1250.0 1.3896e-05
1270.0 1.4843e-05
1290.0 1.5865e-05
1310.0 1.6917e-05
1330.0 1.7964e-05
1350.0 1.905e-05
1370.0 2.0196e-05
1390.0 2.1348e-05
1410.0 2.2499e-05
1430.0 2.3714e-05
1450.0 2.4951e-05
1470.0 2.6174e-05
1490.0 2.7421e-05
1510.0 2.8733e-05
1530.0 3e-05
1550.0 3.1255e-05
1570.0 3.2543e-05
1590.0 3.3825e-05
1610.0 3.5051e-05
1630.0 3.6286e-05
1650.0 3.7528e-05
1670.0 3.8709e-05
1690.0 3.9846e-05
1710.0 4.0985e-05
1730.0 4.209e-05
1750.0 4.3087e-05
1770.0 4.4064e-05
1790.0 4.5009e-05
1810.0 4.5865e-05
1830.0 4.6646e-05
1850.0 4.7429e-05
1870.0 4.8122e-05
1890.0 4.872e-05
1910.0 4.9275e-05
1930.0 4.979e-05
1950.0 5.0197e-05
1970.0 5.053e-05
1990.0 5.0835e-05
2010.0 5.106e-05
2030.0 5.1189e-05
2050.0 5.128e-05
2070.0 5.1328e-05
2090.0 5.1258e-05
2110.0 5.1118e-05
2130.0 5.0935e-05
2150.0 5.0666e-05
2170.0 5.0294e-05
2190.0 4.9882e-05
2210.0 4.9404e-05
2230.0 4.8829e-05
2250.0 4.8185e-05
2270.0 4.7508e-05
2290.0 4.6746e-05
2310.0 4.59e-05
2330.0 4.502e-05
2350.0 4.4092e-05
2370.0 4.3092e-05
2390.0 4.2052e-05
2410.0 4.0987e-05
2430.0 3.9852e-05
2450.0 3.8649e-05
2470.0 3.739e-05
2490.0 3.6065e-05
2510.0 3.4679e-05
2530.0 3.3308e-05
2550.0 3.206e-05
2570.0 3.1076e-05
2590.0 3.0503e-05
2610.0 3.0628e-05
2630.0 3.1534e-05
2650.0 3.3068e-05
2670.0 3.5219e-05
2690.0 3.782e-05
2710.0 4.0268e-05
2730.0 4.2256e-05
2750.0 4.378e-05
2770.0 4.4449e-05
2790.0 4.4177e-05
2810.0 4.3133e-05
2830.0 4.1381e-05
2850.0 3.9042e-05
2870.0 3.6328e-05
2890.0 3.332e-05
2910.0 3.0139e-05
2930.0 2.6927e-05
2950.0 2.3625e-05
2970.0 2.0272e-05
2990.0 1.6984e-05
3010.0 3.0914e-05
3030.0 2.3508e-05
3050.0 1.6114e-05
3070.0 8.9298e-06
3090.0 6.7248e-06
3110.0 6.7248e-06
3130.0 6.7248e-06
3150.0 6.7248e-06
3170.0 6.7248e-06
3190.0 6.7248e-06
3210.0 2.8279e-05
3230.0 0.00013196
3250.0 0.00026352
3270.0 0.00028652
3290.0 0.00035433
3310.0 0.00029861
3330.0 0.00030752
3350.0 0.0003402
3370.0 0.00038498
3390.0 0.0004366
3410.0 0.00049164
3430.0 0.0005587
3450.0 0.00062947
3470.0 0.00070412
3490.0 0.00075967
3510.0 0.00078772
3530.0 0.00083298
3550.0 0.00085519
3570.0 0.0008329
3590.0 0.00087792
3610.0 0.00083952
3630.0 0.0010284
3650.0 0.0011646
3670.0 0.0012495
3690.0 0.001151
3710.0 0.00090645
3730.0 0.00082206
3750.0 0.00071751
3770.0 0.00063716
3790.0 0.00055804
3810.0 0.00054445
3830.0 0.00067003
3850.0 0.00026482
3870.0 0.00061822
3890.0 0.00075205
3910.0 0.00079907
3930.0 0.00095072
3950.0 0.0010344
3970.0 0.0012303
3990.0 0.0015214
4010.0 0.0010653
4030.0 0.00085888
4050.0 0.00071208
4070.0 0.00076948
4090.0 0.0011984
4110.0 0.001109
4130.0 0.0011726
4150.0 0.0010969
4170.0 0.0010504
4190.0 0.00096777
4210.0 0.0014389
4230.0 0.001498
4250.0 0.0016107
4270.0 0.0015033
4290.0 0.001551
4310.0 0.0017699
4330.0 0.0020693
4350.0 0.0020268
4370.0 0.0019411
4390.0 0.0016949
4410.0 0.0015735
4430.0 0.001259
4450.0 0.0010865
4470.0 0.0012291
4490.0 0.0014869
4510.0 0.001545
4530.0 0.0016365
4550.0 0.0017471
4570.0 0.002413
4590.0 0.0035076
4610.0 0.0041718
4630.0 0.004162
4650.0 0.0042054
4670.0 0.0046952
4690.0 0.0051613
4710.0 0.0042271
4730.0 0.0032088
4750.0 0.0025747
4770.0 0.0023313
4790.0 0.0022488
4810.0 0.0021524
4830.0 0.0023652
4850.0 0.00271
4870.0 0.0029869
4890.0 0.0030644
4910.0 0.0027608
4930.0 0.0029062
4950.0 0.0036293
4970.0 0.0044402
4990.0 0.0046496
5010.0 0.0042655
5030.0 0.0035183
5050.0 0.0026496
5070.0 0.0020962
5090.0 0.0018809
5110.0 0.0018361
5130.0 0.0018813
5150.0 0.0018781
5170.0 0.0018393
5190.0 0.0017555
5210.0 0.0017284
5230.0 0.0019206
5250.0 0.0021658
5270.0 0.0025906
5290.0 0.0030317
5310.0 0.0031688
5330.0 0.0033832
5350.0 0.0037855
5370.0 0.0040859
5390.0 0.0037713
5410.0 0.003359
5430.0 0.0032452
5450.0 0.0037635
5470.0 0.0047545
5490.0 0.0057076
5510.0 0.0061808
5530.0 0.0061589
5550.0 0.0059025
5570.0 0.0057537
5590.0 0.0056272
5610.0 0.0056464
5630.0 0.0056617
5650.0 0.0056913
5670.0 0.0057505
5690.0 0.0054338
5710.0 0.004632
5730.0 0.0041024
5750.0 0.0038335
5770.0 0.0039343
5790.0 0.0041506
5810.0 0.0044261
5830.0 0.0045894
5850.0 0.0044417
5870.0 0.0041773
5890.0 0.0039501
5910.0 0.0040827
5930.0 0.0043981
5950.0 0.0042519
5970.0 0.0038527
5990.0 0.0033065
6010.0 0.0027024
6030.0 0.0024045
6050.0 0.0025313
6070.0 0.0027564
6090.0 0.0027562
6110.0 0.0024416
6130.0 0.0024162
6150.0 0.0027578
6170.0 0.0032329
6190.0 0.003663
6210.0 0.0037291
6230.0 0.0036252
6250.0 0.003329
6270.0 0.0028348
6290.0 0.0023617
6310.0 0.0020591
6330.0 0.001978
6350.0 0.0020439
6370.0 0.0020582
6390.0 0.0022154
6410.0 0.0026884
6430.0 0.0034062
6450.0 0.0040149
6470.0 0.0042304
6490.0 0.0041475
6510.0 0.0042238
6530.0 0.0044054
6550.0 0.0043665
6570.0 0.0045111
6590.0 0.0045709
6610.0 0.0046325
6630.0 0.0046509
6650.0 0.0044506
6670.0 0.0040969
6690.0 0.0036444
6710.0 0.0033436
6730.0 0.0033521
6750.0 0.0035189
6770.0 0.003649
6790.0 0.0037372
6810.0 0.0037807
6830.0 0.0037024
6850.0 0.0035726
6870.0 0.003358
6890.0 0.0032671
6910.0 0.0031052
6930.0 0.0031699
6950.0 0.0034052
6970.0 0.0035263
6990.0 0.0036295
7010.0 0.0035662
7030.0 0.0033066
7050.0 0.0029097
7070.0 0.0025004
7090.0 0.0022351
7110.0 0.0021978
7130.0 0.0022473
7150.0 0.0020944
7170.0 0.0019571
7190.0 0.0020521
7210.0 0.0023051
7230.0 0.0026749
7250.0 0.0029064
7270.0 0.0029347
7290.0 0.0027005
7310.0 0.0024549
7330.0 0.0023073
7350.0 0.0022983
7370.0 0.002354
7390.0 0.0024491
7410.0 0.0026706
7430.0 0.0030974
7450.0 0.0035551
7470.0 0.0038496
7490.0 0.0038722
7510.0 0.0036583
7530.0 0.0030415
7550.0 0.0026564
7570.0 0.0022957
7590.0 0.0021124
7610.0 0.0021915
7630.0 0.0024269
7650.0 0.002715
7670.0 0.0029783
7690.0 0.0031402
7710.0 0.0033259
7730.0 0.0035279
7750.0 0.0037042
7770.0 0.0036664
7790.0 0.003658
7810.0 0.0037321
7830.0 0.0037841
7850.0 0.0036699
7870.0 0.0035087
7890.0 0.0034252
7910.0 0.0032357
7930.0 0.0031685
7950.0 0.0030066
7970.0 0.0029369
7990.0 0.0028558
8010.0 0.0029516
8030.0 0.002962
8050.0 0.0029884
8070.0 0.0029468
8090.0 0.0029235
8110.0 0.0027919
8130.0 0.0027681
8150.0 0.0027077
8170.0 0.0026233
8190.0 0.0025679
8210.0 0.0025674
8230.0 0.0024717
8250.0 0.0023727
8270.0 0.0021006
8290.0 0.0016867
8310.0 0.0012515
8330.0 0.00094484
8350.0 0.00086343
8370.0 0.0010229
8390.0 0.0012395
8410.0 0.0013549
8430.0 0.0014141
8450.0 0.0014787
8470.0 0.0015612
8490.0 0.0017358
8510.0 0.0019698
8530.0 0.0022793
8550.0 0.002605
8570.0 0.0028903
8590.0 0.0031128
8610.0 0.0032576
8630.0 0.0033002
8650.0 0.0032819
8670.0 0.0032732
8690.0 0.0034007
8710.0 0.0035559
8730.0 0.0036762
8750.0 0.0036415
8770.0 0.0036691
8790.0 0.003629
8810.0 0.0033843
8830.0 0.0032191
8850.0 0.0029878
8870.0 0.0028001
8890.0 0.0027138
8910.0 0.0027301
8930.0 0.002579
8950.0 0.0024312
8970.0 0.002368
8990.0 0.0023297
9010.0 0.0022414
9030.0 0.0021902
9050.0 0.0021742
9070.0 0.0021667
9090.0 0.0021599
9110.0 0.0021534
9130.0 0.0021467
9150.0 0.0021401
9170.0 0.002132
9190.0 0.0021246
9210.0 0.0021299
9230.0 0.002119
9250.0 0.0021102
9270.0 0.0021023
9290.0 0.002095
9310.0 0.0020879
9330.0 0.002081
9350.0 0.0020745
9370.0 0.002068
9390.0 0.0020614
9410.0 0.0020549
9430.0 0.0020483
9450.0 0.0020398
9470.0 0.0020319
9490.0 0.0020274
9510.0 0.0020218
9530.0 0.0020159
9550.0 0.0020099
9570.0 0.0020038
9590.0 0.0019975
9610.0 0.0019912
9630.0 0.0019849
9650.0 0.0019786
9670.0 0.0019723
9690.0 0.001966
9710.0 0.0019597
9730.0 0.0019534
9750.0 0.0019471
9770.0 0.0019409
9790.0 0.0019345
9810.0 0.0019282
9830.0 0.0019219
9850.0 0.0019156
9870.0 0.0019092
9890.0 0.0019028
9910.0 0.0018965
9930.0 0.0018898
9950.0 0.0018679
9970.0 0.001866
9990.0 0.0018632
10010.0 0.0018599
10030.0 0.0018552
10050.0 0.0018495
10070.0 0.0018435
10090.0 0.0018376
10110.0 0.0018307
10130.0 0.0018243
10150.0 0.0018177
10170.0 0.0018106
10190.0 0.001803
10210.0 0.001796
10230.0 0.0017891
10250.0 0.0017816
10270.0 0.0017742
10290.0 0.0017672
10310.0 0.0017596
10330.0 0.0017515
10350.0 0.001744
10370.0 0.0017364
10390.0 0.0017282
10410.0 0.00172
10430.0 0.0017123
10450.0 0.001704
10470.0 0.0016953
10490.0 0.0016871
10510.0 0.0016787
10530.0 0.0016694
10550.0 0.0016603
10570.0 0.0016517
10590.0 0.0016424
10610.0 0.0016327
10630.0 0.0016236
10650.0 0.0016142
10670.0 0.001604
10690.0 0.001594
10710.0 0.0015842
10730.0 0.0015738
10750.0 0.0015627
10770.0 0.0015525
10790.0 0.0015419
10810.0 0.0015307
10830.0 0.0015195
10850.0 0.0015088
10870.0 0.0014967
10890.0 0.0014845
10910.0 0.0014725
10930.0 0.0014599
10950.0 0.001446
10970.0 0.0014317
10990.0 0.0014173
11010.0 0.0014213
11030.0 0.0014033
11050.0 0.0013859
11070.0 0.0013682
11090.0 0.0013496
11110.0 0.0013326
11130.0 0.0013164
11150.0 0.0013001
11170.0 0.0012843
11190.0 0.0012697
11210.0 0.0012551
11230.0 0.0012402
11250.0 0.0012261
11270.0 0.0012124
11290.0 0.0011981
11310.0 0.0011838
11330.0 0.0011706
11350.0 0.0011569
11370.0 0.0011428
11390.0 0.001129
11410.0 0.0011153
11430.0 0.0011003
11450.0 0.0010851
11470.0 0.0010699
11490.0 0.0010536
11510.0 0.001036
11530.0 0.0010186
11550.0 0.0010005
11570.0 0.00098097
11590.0 0.00096095
11610.0 0.00094111
11630.0 0.00092001
11650.0 0.00089801
11670.0 0.00087693
11690.0 0.00085587
11710.0 0.00083418
11730.0 0.00081307
11750.0 0.00079327
11770.0 0.0007732
11790.0 0.00075351
11810.0 0.00073521
11830.0 0.00071767
11850.0 0.00069997
11870.0 0.00068361
11890.0 0.00066854
11910.0 0.00065368
11930.0 0.00063933
11950.0 0.00062618
11970.0 0.00061347
11990.0 0.00060078
12010.0 0.000589
12030.0 0.00057799
12050.0 0.00056717
12070.0 0.00055671
12090.0 0.00054749
12110.0 0.00053875
12130.0 0.00053046
12150.0 0.00052314
12170.0 0.00051681
12190.0 0.000511
12210.0 0.00050622
12230.0 0.00050259
12250.0 0.00049991
12270.0 0.00049825
12290.0 0.00049773
12310.0 0.00049825
12330.0 0.00049989
12350.0 0.00050265
12370.0 0.00050635
12390.0 0.00051111
12410.0 0.0005172
12430.0 0.00052389
12450.0 0.00053129
12470.0 0.00053968
12490.0 0.00054867
12510.0 0.00055764
12530.0 0.00056715
12550.0 0.00057694
12570.0 0.00058623
12590.0 0.00059502
12610.0 0.00060356
12630.0 0.0006112
12650.0 0.00061737
12670.0 0.00062257
12690.0 0.0006265
12710.0 0.00062886
12730.0 0.00062978
12750.0 0.00062926
12770.0 0.00062724
12790.0 0.00062396
12810.0 0.00061942
12830.0 0.00061368
12850.0 0.00060731
12870.0 0.00060033
12890.0 0.00059263
12910.0 0.00058472
12930.0 0.00057691
12950.0 0.00056883
12970.0 0.0005607
12990.0 0.0005531
13010.0 0.00054571
13030.0 0.00053833
13050.0 0.00053128
13070.0 0.00052466
13090.0 0.00051795
13110.0 0.00051131
13130.0 0.00050496
13150.0 0.00049866
13170.0 0.00049213
13190.0 0.00048586
13210.0 0.00047986
13230.0 0.00047383
13250.0 0.00046801
13270.0 0.0004627
13290.0 0.00045775
13310.0 0.00045317
13330.0 0.00044935
13350.0 0.00044628
13370.0 0.00044387
13390.0 0.00044224
13410.0 0.00044137
13430.0 0.00044107
13450.0 0.00044128
13470.0 0.00044176
13490.0 0.00044231
13510.0 0.0004428
13530.0 0.00044292
13550.0 0.00044249
13570.0 0.00044138
13590.0 0.00043941
13610.0 0.0004366
13630.0 0.00043302
13650.0 0.00042848
13670.0 0.00042319
13690.0 0.00041749
13710.0 0.00041126
13730.0 0.00040445
13750.0 0.0003979
13770.0 0.00039148
13790.0 0.00038507
13810.0 0.00037904
13830.0 0.00037367
13850.0 0.00036861
13870.0 0.00036401
13890.0 0.00036009
13910.0 0.00035669
13930.0 0.00035365
13950.0 0.00035108
13970.0 0.00034898
13990.0 0.00034712
14010.0 0.00034547
14030.0 0.00034404
14050.0 0.00034271
14070.0 0.00034136
14090.0 0.00034001
14110.0 0.00033862
14130.0 0.00033709
14150.0 0.00033535
14170.0 0.0003335
14190.0 0.00033147
14210.0 0.00032919
14230.0 0.00032678
14250.0 0.00032431
14270.0 0.00032167
14290.0 0.00031897
14310.0 0.00031643
14330.0 0.00031397
14350.0 0.00031162
14370.0 0.00030952
14390.0 0.00030773
14410.0 0.00030615
14430.0 0.00030485
14450.0 0.00030387
14470.0 0.00030313
14490.0 0.00030262
14510.0 0.00030234
14530.0 0.00030222
14550.0 0.00030227
14570.0 0.00030248
14590.0 0.00030281
14610.0 0.00030331
14630.0 0.00030402
14650.0 0.0003049
14670.0 0.00030599
14690.0 0.00030739
14710.0 0.0003091
14730.0 0.00031099
14750.0 0.00031324
14770.0 0.00031588
14790.0 0.0003188
14810.0 0.00032199
14830.0 0.00032581
14850.0 0.00033
14870.0 0.00033444
14890.0 0.00033933
14910.0 0.00034468
14930.0 0.00034998
14950.0 0.00035508
14970.0 0.00036007
14990.0 0.00036441
15010.0 0.00036785
15030.0 0.00037052
15050.0 0.00037242
15070.0 0.00037348
15090.0 0.00037403
15110.0 0.00037422
15130.0 0.00037416
15150.0 0.00037398
15170.0 0.00037373
15190.0 0.00037345
15210.0 0.00037316
15230.0 0.00037287
15250.0 0.00037258
15270.0 0.00037229
15290.0 0.000372
15310.0 0.00037172
15330.0 0.00037143
15350.0 0.00037115
15370.0 0.00037087
15390.0 0.00037059
15410.0 0.00037031
15430.0 0.00037004
15450.0 0.00036976
15470.0 0.00036948
15490.0 0.00036921
15510.0 0.00036895
15530.0 0.00036867
15550.0 0.0003684
15570.0 0.00036814
15590.0 0.00036787
15610.0 0.00036759
15630.0 0.00036733
15650.0 0.00036706
15670.0 0.00036679
15690.0 0.00036653
15710.0 0.00036627
15730.0 0.000366
15750.0 0.00036573
15770.0 0.00036547
15790.0 0.0003652
15810.0 0.00036493
15830.0 0.00036466
15850.0 0.0003644
15870.0 0.00036413
15890.0 0.00036386
15910.0 0.00036359
15930.0 0.00036333
15950.0 0.00036305
15970.0 0.00036278
15990.0 0.00036251
16010.0 0.00036223
16030.0 0.00036195
16050.0 0.00036168
16070.0 0.0003614
16090.0 0.00036111
16110.0 0.00036083
16130.0 0.00036055
16150.0 0.00036026
16170.0 0.00035997
16190.0 0.00035968
16210.0 0.00035939
16230.0 0.00035909
16250.0 0.0003588
16270.0 0.0003585
16290.0 0.00035819
16310.0 0.00035789
16330.0 0.00035758
16350.0 0.00035727
16370.0 0.00035695
16390.0 0.00035664
16410.0 0.00035632
16430.0 0.00035599
16450.0 0.00035566
16470.0 0.00035534
16490.0 0.000355
16510.0 0.00035466
16530.0 0.00035432
16550.0 0.00035397
16570.0 0.00035362
16590.0 0.00035326
16610.0 0.00035291
16630.0 0.00035254
16650.0 0.00035217
16670.0 0.0003518
16690.0 0.00035143
16710.0 0.00035104
16730.0 0.00035065
16750.0 0.00035026
16770.0 0.00034986
16790.0 0.00034946
16810.0 0.00034905
16830.0 0.00034864
16850.0 0.00034822
16870.0 0.0003478
16890.0 0.00034737
16910.0 0.00034693
16930.0 0.00034649
16950.0 0.00034604
16970.0 0.00034559
16990.0 0.00034513
17010.0 0.00034466
17030.0 0.0003442
17050.0 0.00034372
17070.0 0.00034323
17090.0 0.00034274
17110.0 0.00034225
17130.0 0.00034174
17150.0 0.00034123
17170.0 0.00034072
17190.0 0.00034019
17210.0 0.00033966
17230.0 0.00033913
17250.0 0.00033859
17270.0 0.00033803
17290.0 0.00033748
17310.0 0.00033692
17330.0 0.00033634
17350.0 0.00033576
17370.0 0.00033518
17390.0 0.00033459
17410.0 0.00033399
17430.0 0.00033338
17450.0 0.00033277
17470.0 0.00033215
17490.0 0.00033152
17510.0 0.00033089
17530.0 0.00033024
17550.0 0.00032959
17570.0 0.00032894
17590.0 0.00032828
17610.0 0.0003276
17630.0 0.00032693
17650.0 0.00032624
17670.0 0.00032555
17690.0 0.00032485
17710.0 0.00032414
17730.0 0.00032343
17750.0 0.00032271
17770.0 0.00032198
17790.0 0.00032126
17810.0 0.00032051
17830.0 0.00031976
17850.0 0.00031901
17870.0 0.00031825
17890.0 0.00031748
17910.0 0.0003167
17930.0 0.00031593
17950.0 0.00031514
17970.0 0.00031435
17990.0 0.00031355
18010.0 0.00031275
18030.0 0.00031193
18050.0 0.00031111
18070.0 0.00031029
18090.0 0.00030946
18110.0 0.00030862
18130.0 0.00030778
18150.0 0.00030694
18170.0 0.00030608
18190.0 0.00030522
18210.0 0.00030436
18230.0 0.00030349
18250.0 0.00030261
18270.0 0.00030174
18290.0 0.00030085
18310.0 0.00029996
18330.0 0.00029907
18350.0 0.00029817
18370.0 0.00029727
18390.0 0.00029636
18410.0 0.00029545
18430.0 0.00029454
18450.0 0.00029361
18470.0 0.00029269
18490.0 0.00029177
18510.0 0.00029083
18530.0 0.0002899
18550.0 0.00028897
18570.0 0.00028802
18590.0 0.00028708
18610.0 0.00028613
18630.0 0.00028518
18650.0 0.00028423
18670.0 0.00028327
18690.0 0.00028232
18710.0 0.00028136
18730.0 0.00028039
18750.0 0.00027943
18770.0 0.00027846
18790.0 0.00027749
18810.0 0.00027652
18830.0 0.00027555
18850.0 0.00027458
18870.0 0.0002736
18890.0 0.00027263
18910.0 0.00027165
18930.0 0.00027067
18950.0 0.00026969
18970.0 0.00026872
18990.0 0.00026774
19010.0 0.00026675
19030.0 0.00026577
19050.0 0.0002648
19070.0 0.00026381
19090.0 0.00026283
19110.0 0.00026186
19130.0 0.00026087
19150.0 0.00025989
19170.0 0.00025891
19190.0 0.00025794
19210.0 0.00025695
19230.0 0.00025598
19250.0 0.000255
19270.0 0.00025403
19290.0 0.00025305
19310.0 0.00025208
19330.0 0.00025111
19350.0 0.00025014
19370.0 0.00024917
19390.0 0.00024821
19410.0 0.00024724
19430.0 0.00024627
19450.0 0.00024532
19470.0 0.00024436
19490.0 0.0002434
19510.0 0.00024245
19530.0 0.0002415
19550.0 0.00024055
19570.0 0.0002396
19590.0 0.00023865
19610.0 0.00023771
19630.0 0.00023677
19650.0 0.00023584
19670.0 0.00023491
19690.0 0.00023397
19710.0 0.00023305
19730.0 0.00023212
19750.0 0.0002312
19770.0 0.00023028
19790.0 0.00022937
19810.0 0.00022846
19830.0 0.00022754
19850.0 0.00022662
19870.0 0.00022569
19890.0 0.00022471
19910.0 0.00022364
19930.0 0.00022246
19950.0 0.00022108
19970.0 0.0002194
19990.0 0.00021736
20010.0 0.000215
20030.0 0.0002122
20050.0 0.00020897
20070.0 0.00020551
20090.0 0.00020186
20110.0 0.00019788
20130.0 0.00019393
20150.0 0.0001901
20170.0 0.00018623
20190.0 0.0001824
20210.0 0.0001788
20230.0 0.00017532
20250.0 0.00017186
20270.0 0.00016859
20290.0 0.00016552
20310.0 0.00016252
20330.0 0.00015957
20350.0 0.0001569
20370.0 0.00015433
20390.0 0.00015181
20410.0 0.00014945
20430.0 0.00014726
20450.0 0.0001451
20470.0 0.00014306
20490.0 0.00014121
20510.0 0.00013947
20530.0 0.00013781
20550.0 0.00013633
20570.0 0.00013501
20590.0 0.00013379
20610.0 0.00013271
20630.0 0.00013178
20650.0 0.00013098
20670.0 0.0001303
20690.0 0.00012976
20710.0 0.00012933
20730.0 0.00012901
20750.0 0.00012878
20770.0 0.00012863
20790.0 0.00012855
20810.0 0.00012853
20830.0 0.00012855
20850.0 0.00012859
20870.0 0.00012867
20890.0 0.00012874
20910.0 0.00012877
20930.0 0.00012878
20950.0 0.00012876
20970.0 0.00012866
20990.0 0.0001285
21010.0 0.00012827
21030.0 0.00012796
21050.0 0.00012755
21070.0 0.00012706
21090.0 0.00012647
21110.0 0.00012579
21130.0 0.00012504
21150.0 0.00012419
21170.0 0.00012327
21190.0 0.0001223
21210.0 0.00012124
21230.0 0.00012011
21250.0 0.00011897
21270.0 0.0001178
21290.0 0.00011656
21310.0 0.00011531
21330.0 0.0001141
21350.0 0.00011285
21370.0 0.00011159
21390.0 0.00011038
21410.0 0.00010921
21430.0 0.00010802
21450.0 0.00010691
21470.0 0.00010589
21490.0 0.0001049
21510.0 0.00010399
21530.0 0.00010319
21550.0 0.00010247
21570.0 0.00010183
21590.0 0.00010131
21610.0 0.00010089
21630.0 0.00010058
21650.0 0.00010038
21670.0 0.00010027
21690.0 0.00010026
21710.0 0.00010035
21730.0 0.00010051
21750.0 0.00010073
21770.0 0.00010105
21790.0 0.00010141
21810.0 0.00010178
21830.0 0.00010219
21850.0 0.00010262
21870.0 0.00010304
21890.0 0.00010342
21910.0 0.00010381
21930.0 0.00010416
21950.0 0.00010445
21970.0 0.0001047
21990.0 0.00010491
22010.0 0.00010505
22030.0 0.00010513
22050.0 0.00010516
22070.0 0.00010513
22090.0 0.00010504
22110.0 0.0001049
22130.0 0.00010472
22150.0 0.00010448
22170.0 0.00010421
22190.0 0.00010389
22210.0 0.00010352
22230.0 0.00010313
22250.0 0.00010269
22270.0 0.00010222
22290.0 0.00010171
22310.0 0.00010117
22330.0 0.00010058
22350.0 9.9942e-05
22370.0 9.9274e-05
22390.0 9.8548e-05
22410.0 9.775e-05
22430.0 9.6925e-05
22450.0 9.605e-05
22470.0 9.5092e-05
22490.0 9.4083e-05
22510.0 9.3048e-05
22530.0 9.1925e-05
22550.0 9.073e-05
22570.0 8.9534e-05
22590.0 8.8301e-05
22610.0 8.7002e-05
22630.0 8.5696e-05
22650.0 8.4427e-05
22670.0 8.3117e-05
22690.0 8.1806e-05
22710.0 8.0555e-05
22730.0 7.9337e-05
22750.0 7.81e-05
22770.0 7.6953e-05
22790.0 7.5888e-05
22810.0 7.4854e-05
22830.0 7.3876e-05
22850.0 7.2996e-05
22870.0 7.217e-05
22890.0 7.1384e-05
22910.0 7.0678e-05
22930.0 7.0038e-05
22950.0 6.9436e-05
22970.0 6.8873e-05
22990.0 6.8378e-05
23010.0 6.7909e-05
23030.0 6.7459e-05
23050.0 6.7037e-05
