#lamb flux
1010.0 2.6556e-07
1030.0 2.8823e-07
1050.0 3.1433e-07
1070.0 3.4372e-07
1090.0 3.7711e-07
1110.0 4.1138e-07
1130.0 4.459e-07
1150.0 4.8209e-07
1170.0 5.1944e-07
1190.0 5.5491e-07
1210.0 5.9089e-07
1230.0 6.2811e-07
1250.0 6.6462e-07
1270.0 7.0013e-07
1290.0 7.377e-07
1310.0 7.7528e-07
1330.0 8.114e-07
1350.0 8.4798e-07
1370.0 8.8579e-07
1390.0 9.2273e-07
1410.0 9.5865e-07
1430.0 9.9625e-07
1450.0 1.0339e-06
1470.0 1.0704e-06
1490.0 1.1073e-06
1510.0 1.1463e-06
1530.0 1.1834e-06
1550.0 1.22e-06
1570.0 1.2579e-06
1590.0 1.2959e-06
1610.0 1.3322e-06
1630.0 1.3696e-06
1650.0 1.408e-06
1670.0 1.4451e-06
1690.0 1.4817e-06
1710.0 1.5197e-06
1730.0 1.5577e-06
1750.0 1.5934e-06
1770.0 1.63e-06
1790.0 1.6671e-06
1810.0 1.7029e-06
1830.0 1.7378e-06
1850.0 1.7746e-06
1870.0 1.8102e-06
1890.0 1.8442e-06
1910.0 1.8786e-06
1930.0 1.9135e-06
1950.0 1.9463e-06
1970.0 1.9782e-06
1990.0 2.011e-06
2010.0 2.0427e-06
2030.0 2.0725e-06
2050.0 2.1029e-06
2070.0 2.1336e-06
2090.0 2.1616e-06
2110.0 2.1889e-06
2130.0 2.2166e-06
2150.0 2.2429e-06
2170.0 2.267e-06
2190.0 2.2917e-06
2210.0 2.3159e-06
2230.0 2.338e-06
2250.0 2.3592e-06
2270.0 2.3811e-06
2290.0 2.4011e-06
2310.0 2.419e-06
2330.0 2.4372e-06
2350.0 2.4548e-06
2370.0 2.4703e-06
2390.0 2.4853e-06
2410.0 2.5013e-06
2430.0 2.5158e-06
2450.0 2.5294e-06
2470.0 2.5447e-06
2490.0 2.563e-06
2510.0 2.5853e-06
2530.0 2.6217e-06
2550.0 2.6889e-06
2570.0 2.8036e-06
2590.0 2.9855e-06
2610.0 3.2857e-06
2630.0 3.7156e-06
2650.0 4.2498e-06
2670.0 4.8926e-06
2690.0 5.6178e-06
2710.0 6.3231e-06
2730.0 6.9598e-06
2750.0 7.5389e-06
2770.0 8.006e-06
2790.0 8.3576e-06
2810.0 8.6379e-06
2830.0 8.8799e-06
2850.0 9.0736e-06
2870.0 9.2525e-06
2890.0 9.4376e-06
2910.0 9.6236e-06
2930.0 9.801e-06
2950.0 9.9911e-06
2970.0 1.0191e-05
2990.0 1.0384e-05
3010.0 7.1255e-05
3030.0 7.2625e-05
3050.0 7.3961e-05
3070.0 7.5094e-05
3090.0 7.6035e-05
3110.0 7.6495e-05
3130.0 7.6131e-05
3150.0 7.4644e-05
3170.0 7.1439e-05
3190.0 6.6493e-05
3210.0 6.0005e-05
3230.0 5.2831e-05
3250.0 5.8317e-05
3270.0 5.115e-05
3290.0 6.5959e-05
3310.0 5.0402e-05
3330.0 5.0982e-05
3350.0 5.4047e-05
3370.0 5.7895e-05
3390.0 6.2279e-05
3410.0 6.6737e-05
3430.0 7.1465e-05
3450.0 7.6377e-05
3470.0 8.1092e-05
3490.0 8.5019e-05
3510.0 9.3306e-05
3530.0 0.00010617
3550.0 0.00010699
3570.0 0.00010111
3590.0 0.00011693
3610.0 0.00010203
3630.0 0.00012608
3650.0 0.00013828
3670.0 0.00015748
3690.0 0.00015232
3710.0 0.00012708
3730.0 0.00014008
3750.0 0.00014105
3770.0 0.00015231
3790.0 0.00016039
3810.0 0.00018107
3830.0 0.0002545
3850.0 0.00031853
3870.0 0.0003791
3890.0 0.00039209
3910.0 0.00037618
3930.0 0.00037987
3950.0 0.00039743
3970.0 0.00037013
3990.0 0.00022517
4010.0 0.00015225
4030.0 0.00025097
4050.0 0.00034115
4070.0 0.00032301
4090.0 0.00019242
4110.0 0.00015214
4130.0 0.00025011
4150.0 0.00028063
4170.0 0.00023439
4190.0 0.00019661
4210.0 0.00028212
4230.0 0.00025945
4250.0 0.00025019
4270.0 0.0002491
4290.0 0.00022445
4310.0 0.00027221
4330.0 0.00031391
4350.0 0.00032343
4370.0 0.00029865
4390.0 0.00031417
4410.0 0.00029545
4430.0 0.00022179
4450.0 0.00017433
4470.0 0.00020743
4490.0 0.00019622
4510.0 0.00028262
4530.0 0.00029075
4550.0 0.0002961
4570.0 0.0003695
4590.0 0.00042934
4610.0 0.00050841
4630.0 0.00067555
4650.0 0.00074412
4670.0 0.00075383
4690.0 0.00072253
4710.0 0.0007172
4730.0 0.00063487
4750.0 0.00046884
4770.0 0.0003807
4790.0 0.00029988
4810.0 0.00032254
4830.0 0.00037068
4850.0 0.00037478
4870.0 0.00033674
4890.0 0.00046042
4910.0 0.00047331
4930.0 0.00051281
4950.0 0.00060209
4970.0 0.00062212
4990.0 0.00070763
5010.0 0.00073334
5030.0 0.00067618
5050.0 0.00054111
5070.0 0.00039014
5090.0 0.00032865
5110.0 0.00033316
5130.0 0.0003485
5150.0 0.00033074
5170.0 0.00031828
5190.0 0.00033606
5210.0 0.00034568
5230.0 0.00038036
5250.0 0.00040826
5270.0 0.00039274
5290.0 0.0004542
5310.0 0.0005684
5330.0 0.0006217
5350.0 0.00058522
5370.0 0.00058955
5390.0 0.00063806
5410.0 0.0006401
5430.0 0.00062177
5450.0 0.00064688
5470.0 0.00071615
5490.0 0.00085223
5510.0 0.0010212
5530.0 0.0010647
5550.0 0.0010632
5570.0 0.0010481
5590.0 0.0010042
5610.0 0.00095132
5630.0 0.0009569
5650.0 0.00099336
5670.0 0.00096075
5690.0 0.00087107
5710.0 0.00085888
5730.0 0.00079504
5750.0 0.00070968
5770.0 0.00063231
5790.0 0.00067096
5810.0 0.0007181
5830.0 0.00079205
5850.0 0.00078109
5870.0 0.00076507
5890.0 0.00078666
5910.0 0.00072697
5930.0 0.00067134
5950.0 0.00067311
5970.0 0.00070315
5990.0 0.00062104
6010.0 0.00052538
6030.0 0.00045679
6050.0 0.0004134
6070.0 0.00038976
6090.0 0.00041652
6110.0 0.00046176
6130.0 0.00046386
6150.0 0.00046786
6170.0 0.0004908
6190.0 0.00052963
6210.0 0.00060864
6230.0 0.00070898
6250.0 0.000661
6270.0 0.00057904
6290.0 0.00049973
6310.0 0.00041433
6330.0 0.00036432
6350.0 0.00034962
6370.0 0.00037334
6390.0 0.00041659
6410.0 0.00049954
6430.0 0.00061364
6450.0 0.00071164
6470.0 0.00078856
6490.0 0.00089806
6510.0 0.00097891
6530.0 0.00094569
6550.0 0.00090467
6570.0 0.00091309
6590.0 0.00091248
6610.0 0.00090447
6630.0 0.00085095
6650.0 0.00076822
6670.0 0.00074228
6690.0 0.0007277
6710.0 0.00073699
6730.0 0.00064453
6750.0 0.0005533
6770.0 0.00054385
6790.0 0.00058001
6810.0 0.00064849
6830.0 0.00065721
6850.0 0.00060407
6870.0 0.00060181
6890.0 0.00059376
6910.0 0.00055927
6930.0 0.00056707
6950.0 0.000555
6970.0 0.00054744
6990.0 0.00056345
7010.0 0.00059837
7030.0 0.00058912
7050.0 0.00054146
7070.0 0.00051959
7090.0 0.00045914
7110.0 0.00039776
7130.0 0.00039176
7150.0 0.00041588
7170.0 0.00045385
7190.0 0.00045614
7210.0 0.00044294
7230.0 0.00048575
7250.0 0.00052382
7270.0 0.00054329
7290.0 0.0005555
7310.0 0.0005556
7330.0 0.00052332
7350.0 0.00048523
7370.0 0.00045192
7390.0 0.00044292
7410.0 0.00048595
7430.0 0.00056202
7450.0 0.00061713
7470.0 0.00067469
7490.0 0.00078132
7510.0 0.0007699
7530.0 0.00064355
7550.0 0.00055839
7570.0 0.00046794
7590.0 0.00040891
7610.0 0.00039724
7630.0 0.00039427
7650.0 0.00042696
7670.0 0.0004854
7690.0 0.00053255
7710.0 0.00060673
7730.0 0.00062981
7750.0 0.00065171
7770.0 0.00069797
7790.0 0.00072604
7810.0 0.00071498
7830.0 0.0006569
7850.0 0.00065151
7870.0 0.00063413
7890.0 0.00060614
7910.0 0.00056146
7930.0 0.00053144
7950.0 0.00044482
7970.0 0.0004294
7990.0 0.00043127
8010.0 0.00050062
8030.0 0.00050141
8050.0 0.00052871
8070.0 0.00051452
8090.0 0.00051581
8110.0 0.00050655
8130.0 0.00048729
8150.0 0.00045239
8170.0 0.00044769
8190.0 0.0004515
8210.0 0.00045618
8230.0 0.00041183
8250.0 0.0003815
8270.0 0.00033633
8290.0 0.00028231
8310.0 0.00023663
8330.0 0.00017807
8350.0 0.00013858
8370.0 0.00012968
8390.0 0.00013255
8410.0 0.00014733
8430.0 0.00018841
8450.0 0.00020754
8470.0 0.00022408
8490.0 0.00025538
8510.0 0.00027668
8530.0 0.00030974
8550.0 0.00036645
8570.0 0.00040906
8590.0 0.0004369
8610.0 0.00049562
8630.0 0.00057112
8650.0 0.00059363
8670.0 0.00060602
8690.0 0.00061571
8710.0 0.00059998
8730.0 0.00057606
8750.0 0.00053269
8770.0 0.00052818
8790.0 0.00051529
8810.0 0.00047521
8830.0 0.00046223
8850.0 0.00041088
8870.0 0.00038447
8890.0 0.00034876
8910.0 0.00038925
8930.0 0.00035907
8950.0 0.00036395
8970.0 0.00037254
8990.0 0.00036607
9010.0 0.00037278
9030.0 0.00035569
9050.0 0.0003544
9070.0 0.00035476
9090.0 0.00035509
9110.0 0.00035566
9130.0 0.00035596
9150.0 0.00035613
9170.0 0.00035554
9190.0 0.00035393
9210.0 0.00035882
9230.0 0.00035792
9250.0 0.00035761
9270.0 0.00035744
9290.0 0.00035736
9310.0 0.00035735
9330.0 0.00035737
9350.0 0.00035742
9370.0 0.00035747
9390.0 0.00035751
9410.0 0.00035756
9430.0 0.00035761
9450.0 0.00035764
9470.0 0.00035766
9490.0 0.0003577
9510.0 0.00035773
9530.0 0.00035774
9550.0 0.00035778
9570.0 0.00035783
9590.0 0.00035786
9610.0 0.00035791
9630.0 0.00035797
9650.0 0.00035804
9670.0 0.00035809
9690.0 0.00035817
9710.0 0.00035827
9730.0 0.00035836
9750.0 0.00035847
9770.0 0.00035862
9790.0 0.00035875
9810.0 0.00035889
9830.0 0.00035907
9850.0 0.00035926
9870.0 0.00035944
9890.0 0.00035964
9910.0 0.00035988
9930.0 0.00036012
9950.0 0.00036001
9970.0 0.0003604
9990.0 0.00036079
10010.0 0.00036113
10030.0 0.00036148
10050.0 0.0003617
10070.0 0.00036114
10090.0 0.00036181
10110.0 0.00036247
10130.0 0.00036306
10150.0 0.0003636
10170.0 0.00036408
10190.0 0.00036453
10210.0 0.00036499
10230.0 0.00036546
10250.0 0.00036591
10270.0 0.00036637
10290.0 0.00036686
10310.0 0.00036734
10330.0 0.0003678
10350.0 0.0003683
10370.0 0.00036881
10390.0 0.0003693
10410.0 0.0003698
10430.0 0.00037033
10450.0 0.00037084
10470.0 0.00037134
10490.0 0.00037186
10510.0 0.00037239
10530.0 0.00037288
10550.0 0.00037338
10570.0 0.0003739
10590.0 0.00037441
10610.0 0.00037489
10630.0 0.0003754
10650.0 0.0003759
10670.0 0.00037637
10690.0 0.00037684
10710.0 0.00037732
10730.0 0.00037777
10750.0 0.0003782
10770.0 0.00037866
10790.0 0.00037909
10810.0 0.00037949
10830.0 0.00037988
10850.0 0.00038024
10870.0 0.00038047
10890.0 0.00038051
10910.0 0.00038028
10930.0 0.00037954
10950.0 0.00037795
10970.0 0.00037535
10990.0 0.00037164
11010.0 0.00037975
11030.0 0.00037222
11050.0 0.00036351
11070.0 0.0003535
11090.0 0.00034194
11110.0 0.00033047
11130.0 0.00031904
11150.0 0.00030737
11170.0 0.0002961
11190.0 0.00028593
11210.0 0.00027622
11230.0 0.00026712
11250.0 0.00025921
11270.0 0.0002523
11290.0 0.000246
11310.0 0.00024054
11330.0 0.00023605
11350.0 0.00023198
11370.0 0.00022823
11390.0 0.00022483
11410.0 0.00022157
11430.0 0.00021807
11450.0 0.00021447
11470.0 0.00021072
11490.0 0.0002066
11510.0 0.00020201
11530.0 0.00019731
11550.0 0.00019239
11570.0 0.00018707
11590.0 0.00018166
11610.0 0.00017635
11630.0 0.00017086
11650.0 0.00016532
11670.0 0.00016017
11690.0 0.0001552
11710.0 0.00015028
11730.0 0.00014567
11750.0 0.00014145
11770.0 0.00013732
11790.0 0.00013337
11810.0 0.00012974
11830.0 0.00012628
11850.0 0.00012281
11870.0 0.00011955
11890.0 0.00011647
11910.0 0.00011335
11930.0 0.00011024
11950.0 0.00010726
11970.0 0.00010426
11990.0 0.00010114
12010.0 9.8119e-05
12030.0 9.5181e-05
12050.0 9.2204e-05
12070.0 8.9247e-05
12090.0 8.6573e-05
12110.0 8.4011e-05
12130.0 8.1584e-05
12150.0 7.9458e-05
12170.0 7.7664e-05
12190.0 7.6114e-05
12210.0 7.4973e-05
12230.0 7.4271e-05
12250.0 7.3984e-05
12270.0 7.4159e-05
12290.0 7.4781e-05
12310.0 7.5789e-05
12330.0 7.7252e-05
12350.0 7.9087e-05
12370.0 8.1151e-05
12390.0 8.3476e-05
12410.0 8.6111e-05
12430.0 8.8678e-05
12450.0 9.1215e-05
12470.0 9.3772e-05
12490.0 9.6183e-05
12510.0 9.8291e-05
12530.0 0.00010024
12550.0 0.00010195
12570.0 0.00010331
12590.0 0.00010436
12610.0 0.00010515
12630.0 0.00010563
12650.0 0.0001058
12670.0 0.00010573
12690.0 0.00010541
12710.0 0.00010489
12730.0 0.0001042
12750.0 0.00010331
12770.0 0.00010229
12790.0 0.00010117
12810.0 9.9918e-05
12830.0 9.8534e-05
12850.0 9.711e-05
12870.0 9.5602e-05
12890.0 9.3942e-05
12910.0 9.2195e-05
12930.0 9.0394e-05
12950.0 8.8413e-05
12970.0 8.6268e-05
12990.0 8.4107e-05
13010.0 8.1845e-05
13030.0 7.9425e-05
13050.0 7.6981e-05
13070.0 7.4599e-05
13090.0 7.2134e-05
13110.0 6.9697e-05
13130.0 6.7431e-05
13150.0 6.529e-05
13170.0 6.3223e-05
13190.0 6.1435e-05
13210.0 5.9922e-05
13230.0 5.8607e-05
13250.0 5.7548e-05
13270.0 5.6778e-05
13290.0 5.6234e-05
13310.0 5.5907e-05
13330.0 5.579e-05
13350.0 5.5833e-05
13370.0 5.6002e-05
13390.0 5.6264e-05
13410.0 5.6545e-05
13430.0 5.6833e-05
13450.0 5.7098e-05
13470.0 5.7294e-05
13490.0 5.741e-05
13510.0 5.7444e-05
13530.0 5.738e-05
13550.0 5.7231e-05
13570.0 5.7011e-05
13590.0 5.6727e-05
13610.0 5.6412e-05
13630.0 5.6088e-05
13650.0 5.5753e-05
13670.0 5.5436e-05
13690.0 5.5153e-05
13710.0 5.4899e-05
13730.0 5.4674e-05
13750.0 5.4489e-05
13770.0 5.4329e-05
13790.0 5.4179e-05
13810.0 5.4031e-05
13830.0 5.3875e-05
13850.0 5.3692e-05
13870.0 5.3469e-05
13890.0 5.3205e-05
13910.0 5.2894e-05
13930.0 5.2521e-05
13950.0 5.2098e-05
13970.0 5.1655e-05
13990.0 5.1173e-05
14010.0 5.0668e-05
14030.0 5.0179e-05
14050.0 4.9707e-05
14070.0 4.9242e-05
14090.0 4.8827e-05
14110.0 4.8468e-05
14130.0 4.8151e-05
14150.0 4.7883e-05
14170.0 4.7675e-05
14190.0 4.7515e-05
14210.0 4.74e-05
14230.0 4.7333e-05
14250.0 4.731e-05
14270.0 4.7337e-05
14290.0 4.7418e-05
14310.0 4.7544e-05
14330.0 4.7722e-05
14350.0 4.7964e-05
14370.0 4.8254e-05
14390.0 4.8577e-05
14410.0 4.8963e-05
14430.0 4.9392e-05
14450.0 4.9836e-05
14470.0 5.0308e-05
14490.0 5.0832e-05
14510.0 5.1358e-05
14530.0 5.1891e-05
14550.0 5.2476e-05
14570.0 5.3107e-05
14590.0 5.3759e-05
14610.0 5.449e-05
14630.0 5.5336e-05
14650.0 5.625e-05
14670.0 5.7249e-05
14690.0 5.84e-05
14710.0 5.9694e-05
14730.0 6.102e-05
14750.0 6.2478e-05
14770.0 6.4072e-05
14790.0 6.5693e-05
14810.0 6.7318e-05
14830.0 6.9071e-05
14850.0 7.0778e-05
14870.0 7.2367e-05
14890.0 7.3899e-05
14910.0 7.5344e-05
14930.0 7.6576e-05
14950.0 7.7598e-05
14970.0 7.8456e-05
14990.0 7.9076e-05
15010.0 7.9464e-05
15030.0 7.9672e-05
15050.0 7.9718e-05
15070.0 7.9632e-05
15090.0 7.9466e-05
15110.0 7.9241e-05
15130.0 7.8984e-05
15150.0 7.872e-05
15170.0 7.844e-05
15190.0 7.8154e-05
15210.0 7.7876e-05
15230.0 7.7598e-05
15250.0 7.7314e-05
15270.0 7.7032e-05
15290.0 7.6762e-05
15310.0 7.6486e-05
15330.0 7.6209e-05
15350.0 7.594e-05
15370.0 7.5673e-05
15390.0 7.5395e-05
15410.0 7.5125e-05
15430.0 7.4862e-05
15450.0 7.4594e-05
15470.0 7.4323e-05
15490.0 7.4063e-05
15510.0 7.3804e-05
15530.0 7.3538e-05
15550.0 7.3277e-05
15570.0 7.3023e-05
15590.0 7.2761e-05
15610.0 7.2498e-05
15630.0 7.2245e-05
15650.0 7.1992e-05
15670.0 7.1733e-05
15690.0 7.148e-05
15710.0 7.1235e-05
15730.0 7.098e-05
15750.0 7.0726e-05
15770.0 7.048e-05
15790.0 7.0234e-05
15810.0 6.9978e-05
15830.0 6.9731e-05
15850.0 6.9491e-05
15870.0 6.9243e-05
15890.0 6.8996e-05
15910.0 6.8758e-05
15930.0 6.8516e-05
15950.0 6.8267e-05
15970.0 6.8026e-05
15990.0 6.7789e-05
16010.0 6.7546e-05
16030.0 6.73e-05
16050.0 6.7068e-05
16070.0 6.683e-05
16090.0 6.6588e-05
16110.0 6.6353e-05
16130.0 6.6122e-05
16150.0 6.5878e-05
16170.0 6.5639e-05
16190.0 6.5408e-05
16210.0 6.5173e-05
16230.0 6.4933e-05
16250.0 6.4701e-05
16270.0 6.4472e-05
16290.0 6.4234e-05
16310.0 6.3999e-05
16330.0 6.3771e-05
16350.0 6.3538e-05
16370.0 6.3296e-05
16390.0 6.3067e-05
16410.0 6.2839e-05
16430.0 6.2603e-05
16450.0 6.237e-05
16470.0 6.2146e-05
16490.0 6.1912e-05
16510.0 6.1675e-05
16530.0 6.1447e-05
16550.0 6.1218e-05
16570.0 6.0981e-05
16590.0 6.0747e-05
16610.0 6.0523e-05
16630.0 6.0291e-05
16650.0 6.0056e-05
16670.0 5.9829e-05
16690.0 5.9602e-05
16710.0 5.9363e-05
16730.0 5.9131e-05
16750.0 5.8904e-05
16770.0 5.8671e-05
16790.0 5.8434e-05
16810.0 5.8207e-05
16830.0 5.7979e-05
16850.0 5.7742e-05
16870.0 5.751e-05
16890.0 5.7284e-05
16910.0 5.7048e-05
16930.0 5.6809e-05
16950.0 5.6581e-05
16970.0 5.635e-05
16990.0 5.6112e-05
17010.0 5.588e-05
17030.0 5.5653e-05
17050.0 5.5415e-05
17070.0 5.5178e-05
17090.0 5.4948e-05
17110.0 5.4715e-05
17130.0 5.4472e-05
17150.0 5.4239e-05
17170.0 5.4009e-05
17190.0 5.3771e-05
17210.0 5.3533e-05
17230.0 5.3304e-05
17250.0 5.3068e-05
17270.0 5.2825e-05
17290.0 5.259e-05
17310.0 5.2357e-05
17330.0 5.2116e-05
17350.0 5.1874e-05
17370.0 5.1644e-05
17390.0 5.1407e-05
17410.0 5.1164e-05
17430.0 5.0929e-05
17450.0 5.0696e-05
17470.0 5.0449e-05
17490.0 5.0208e-05
17510.0 4.9973e-05
17530.0 4.9734e-05
17550.0 4.9489e-05
17570.0 4.9252e-05
17590.0 4.9018e-05
17610.0 4.8773e-05
17630.0 4.8531e-05
17650.0 4.8295e-05
17670.0 4.8054e-05
17690.0 4.7803e-05
17710.0 4.7567e-05
17730.0 4.7329e-05
17750.0 4.7084e-05
17770.0 4.6841e-05
17790.0 4.6607e-05
17810.0 4.6362e-05
17830.0 4.6115e-05
17850.0 4.5876e-05
17870.0 4.5636e-05
17890.0 4.5388e-05
17910.0 4.5143e-05
17930.0 4.4907e-05
17950.0 4.4663e-05
17970.0 4.4417e-05
17990.0 4.4179e-05
18010.0 4.3939e-05
18030.0 4.3688e-05
18050.0 4.3445e-05
18070.0 4.3207e-05
18090.0 4.2962e-05
18110.0 4.2714e-05
18130.0 4.2476e-05
18150.0 4.2236e-05
18170.0 4.1988e-05
18190.0 4.1746e-05
18210.0 4.1508e-05
18230.0 4.1261e-05
18250.0 4.1012e-05
18270.0 4.0775e-05
18290.0 4.0534e-05
18310.0 4.0287e-05
18330.0 4.0046e-05
18350.0 3.981e-05
18370.0 3.9564e-05
18390.0 3.9319e-05
18410.0 3.9081e-05
18430.0 3.884e-05
18450.0 3.8591e-05
18470.0 3.8351e-05
18490.0 3.8115e-05
18510.0 3.7871e-05
18530.0 3.7629e-05
18550.0 3.7394e-05
18570.0 3.7154e-05
18590.0 3.6907e-05
18610.0 3.6669e-05
18630.0 3.6433e-05
18650.0 3.619e-05
18670.0 3.5947e-05
18690.0 3.5715e-05
18710.0 3.5477e-05
18730.0 3.5235e-05
18750.0 3.4999e-05
18770.0 3.4767e-05
18790.0 3.4522e-05
18810.0 3.4283e-05
18830.0 3.4051e-05
18850.0 3.3815e-05
18870.0 3.3574e-05
18890.0 3.3342e-05
18910.0 3.3112e-05
18930.0 3.2872e-05
18950.0 3.2637e-05
18970.0 3.2408e-05
18990.0 3.2173e-05
19010.0 3.1931e-05
19030.0 3.1704e-05
19050.0 3.1475e-05
19070.0 3.1239e-05
19090.0 3.1007e-05
19110.0 3.0784e-05
19130.0 3.055e-05
19150.0 3.0315e-05
19170.0 3.0089e-05
19190.0 2.9862e-05
19210.0 2.9628e-05
19230.0 2.9398e-05
19250.0 2.9177e-05
19270.0 2.8948e-05
19290.0 2.8719e-05
19310.0 2.8497e-05
19330.0 2.8274e-05
19350.0 2.8041e-05
19370.0 2.7816e-05
19390.0 2.7597e-05
19410.0 2.7371e-05
19430.0 2.7143e-05
19450.0 2.6926e-05
19470.0 2.6706e-05
19490.0 2.648e-05
19510.0 2.626e-05
19530.0 2.6045e-05
19550.0 2.582e-05
19570.0 2.5596e-05
19590.0 2.5382e-05
19610.0 2.5165e-05
19630.0 2.4943e-05
19650.0 2.4728e-05
19670.0 2.4517e-05
19690.0 2.4296e-05
19710.0 2.4078e-05
19730.0 2.3867e-05
19750.0 2.3654e-05
19770.0 2.3432e-05
19790.0 2.3221e-05
19810.0 2.3013e-05
19830.0 2.2797e-05
19850.0 2.2581e-05
19870.0 2.2371e-05
19890.0 2.2147e-05
19910.0 2.1907e-05
19930.0 2.1656e-05
19950.0 2.1379e-05
19970.0 2.1053e-05
19990.0 2.0679e-05
20010.0 2.0274e-05
20030.0 1.9809e-05
20050.0 1.9294e-05
20070.0 1.877e-05
20090.0 1.8241e-05
20110.0 1.7685e-05
20130.0 1.7167e-05
20150.0 1.6694e-05
20170.0 1.6245e-05
20190.0 1.583e-05
20210.0 1.5474e-05
20230.0 1.5158e-05
20250.0 1.4872e-05
20270.0 1.4635e-05
20290.0 1.4441e-05
20310.0 1.428e-05
20330.0 1.4153e-05
20350.0 1.4068e-05
20370.0 1.4014e-05
20390.0 1.3992e-05
20410.0 1.4002e-05
20430.0 1.4042e-05
20450.0 1.4117e-05
20470.0 1.4224e-05
20490.0 1.4359e-05
20510.0 1.4525e-05
20530.0 1.4729e-05
20550.0 1.4957e-05
20570.0 1.5202e-05
20590.0 1.5481e-05
20610.0 1.5781e-05
20630.0 1.6085e-05
20650.0 1.6402e-05
20670.0 1.674e-05
20690.0 1.7062e-05
20710.0 1.7372e-05
20730.0 1.7681e-05
20750.0 1.7978e-05
20770.0 1.8243e-05
20790.0 1.8497e-05
20810.0 1.8741e-05
20830.0 1.8961e-05
20850.0 1.9165e-05
20870.0 1.9368e-05
20890.0 1.9566e-05
20910.0 1.975e-05
20930.0 1.9939e-05
20950.0 2.0136e-05
20970.0 2.0328e-05
20990.0 2.0519e-05
21010.0 2.0721e-05
21030.0 2.0916e-05
21050.0 2.1096e-05
21070.0 2.1269e-05
21090.0 2.1429e-05
21110.0 2.156e-05
21130.0 2.1666e-05
21150.0 2.1749e-05
21170.0 2.18e-05
21190.0 2.1821e-05
21210.0 2.1814e-05
21230.0 2.1776e-05
21250.0 2.1712e-05
21270.0 2.1623e-05
21290.0 2.1508e-05
21310.0 2.1373e-05
21330.0 2.1227e-05
21350.0 2.1061e-05
21370.0 2.0881e-05
21390.0 2.0696e-05
21410.0 2.0507e-05
21430.0 2.0302e-05
21450.0 2.0103e-05
21470.0 1.9911e-05
21490.0 1.9717e-05
21510.0 1.9527e-05
21530.0 1.9353e-05
21550.0 1.9187e-05
21570.0 1.9029e-05
21590.0 1.8889e-05
21610.0 1.8769e-05
21630.0 1.8665e-05
21650.0 1.8579e-05
21670.0 1.8521e-05
21690.0 1.8484e-05
21710.0 1.8472e-05
21730.0 1.8485e-05
21750.0 1.8522e-05
21770.0 1.8589e-05
21790.0 1.8683e-05
21810.0 1.8798e-05
21830.0 1.8939e-05
21850.0 1.9111e-05
21870.0 1.9301e-05
21890.0 1.9505e-05
21910.0 1.9737e-05
21930.0 1.9987e-05
21950.0 2.0242e-05
21970.0 2.0513e-05
21990.0 2.0808e-05
22010.0 2.1095e-05
22030.0 2.1381e-05
22050.0 2.1677e-05
22070.0 2.1971e-05
22090.0 2.2245e-05
22110.0 2.2516e-05
22130.0 2.278e-05
22150.0 2.3019e-05
22170.0 2.3234e-05
22190.0 2.3436e-05
22210.0 2.3606e-05
22230.0 2.3739e-05
22250.0 2.3841e-05
22270.0 2.3909e-05
22290.0 2.3936e-05
22310.0 2.3924e-05
22330.0 2.387e-05
22350.0 2.3771e-05
22370.0 2.3634e-05
22390.0 2.3452e-05
22410.0 2.322e-05
22430.0 2.296e-05
22450.0 2.2664e-05
22470.0 2.2323e-05
22490.0 2.1952e-05
22510.0 2.1567e-05
22530.0 2.114e-05
22550.0 2.0684e-05
22570.0 2.023e-05
22590.0 1.9763e-05
22610.0 1.9271e-05
22630.0 1.878e-05
