#lamb flux
1010.0 2.2151e-09
1030.0 2.4499e-09
1050.0 2.72e-09
1070.0 3.024e-09
1090.0 3.3694e-09
1110.0 3.7236e-09
1130.0 4.0801e-09
1150.0 4.4535e-09
1170.0 4.8387e-09
1190.0 5.204e-09
1210.0 5.5742e-09
1230.0 5.9567e-09
1250.0 6.3315e-09
1270.0 6.6955e-09
1290.0 7.0801e-09
1310.0 7.4644e-09
1330.0 7.833e-09
1350.0 8.2057e-09
1370.0 8.5905e-09
1390.0 8.9657e-09
1410.0 9.3298e-09
1430.0 9.7104e-09
1450.0 1.0091e-08
1470.0 1.0459e-08
1490.0 1.0831e-08
1510.0 1.1223e-08
1530.0 1.1596e-08
1550.0 1.1963e-08
1570.0 1.2343e-08
1590.0 1.2723e-08
1610.0 1.3087e-08
1630.0 1.3462e-08
1650.0 1.3847e-08
1670.0 1.422e-08
1690.0 1.4588e-08
1710.0 1.4971e-08
1730.0 1.5356e-08
1750.0 1.5718e-08
1770.0 1.6091e-08
1790.0 1.6473e-08
1810.0 1.6843e-08
1830.0 1.7206e-08
1850.0 1.7593e-08
1870.0 1.797e-08
1890.0 1.8335e-08
1910.0 1.8709e-08
1930.0 1.9092e-08
1950.0 1.9458e-08
1970.0 1.9821e-08
1990.0 2.0198e-08
2010.0 2.057e-08
2030.0 2.093e-08
2050.0 2.1301e-08
2070.0 2.1683e-08
2090.0 2.2043e-08
2110.0 2.2404e-08
2130.0 2.2776e-08
2150.0 2.3141e-08
2170.0 2.3492e-08
2190.0 2.3856e-08
2210.0 2.4224e-08
2230.0 2.4577e-08
2250.0 2.4929e-08
2270.0 2.5297e-08
2290.0 2.5655e-08
2310.0 2.5998e-08
2330.0 2.6356e-08
2350.0 2.6723e-08
2370.0 2.7088e-08
2390.0 2.7484e-08
2410.0 2.7953e-08
2430.0 2.8492e-08
2450.0 2.9137e-08
2470.0 2.9963e-08
2490.0 3.1004e-08
2510.0 3.2188e-08
2530.0 3.3613e-08
2550.0 3.5396e-08
2570.0 3.7615e-08
2590.0 4.0501e-08
2610.0 4.4821e-08
2630.0 5.099e-08
2650.0 5.9056e-08
2670.0 6.9485e-08
2690.0 8.23e-08
2710.0 9.598e-08
2730.0 1.095e-07
2750.0 1.2281e-07
2770.0 1.3439e-07
2790.0 1.4359e-07
2810.0 1.5089e-07
2830.0 1.5659e-07
2850.0 1.6048e-07
2870.0 1.6334e-07
2890.0 1.656e-07
2910.0 1.6741e-07
2930.0 1.6888e-07
2950.0 1.7029e-07
2970.0 1.7166e-07
2990.0 1.7296e-07
3010.0 4.8887e-06
3030.0 4.9252e-06
3050.0 4.9606e-06
3070.0 4.9908e-06
3090.0 5.0168e-06
3110.0 5.033e-06
3130.0 5.0323e-06
3150.0 5.01e-06
3170.0 4.9563e-06
3190.0 4.872e-06
3210.0 4.7652e-06
3230.0 4.6429e-06
3250.0 4.5221e-06
3270.0 4.4339e-06
3290.0 4.3849e-06
3310.0 4.3928e-06
3330.0 4.4564e-06
3350.0 4.5672e-06
3370.0 4.7252e-06
3390.0 4.9244e-06
3410.0 5.1413e-06
3430.0 5.3847e-06
3450.0 5.6648e-06
3470.0 5.9709e-06
3490.0 6.2952e-06
3510.0 6.6617e-06
3530.0 7.0542e-06
3550.0 7.4516e-06
3570.0 7.8662e-06
3590.0 8.317e-06
3610.0 8.7816e-06
3630.0 9.2447e-06
3650.0 9.7252e-06
3670.0 1.0164e-05
3690.0 1.0492e-05
3710.0 1.068e-05
3730.0 1.0686e-05
3750.0 1.0537e-05
3770.0 1.0479e-05
3790.0 1.0416e-05
3810.0 1.0161e-05
3830.0 1.0475e-05
3850.0 1.1712e-05
3870.0 1.2391e-05
3890.0 1.2335e-05
3910.0 1.2387e-05
3930.0 1.2714e-05
3950.0 1.2914e-05
3970.0 1.1766e-05
3990.0 1.0124e-05
4010.0 3.0344e-05
4030.0 3.6766e-05
4050.0 4.215e-05
4070.0 3.6572e-05
4090.0 3.3123e-05
4110.0 2.9228e-05
4130.0 2.6901e-05
4150.0 2.8615e-05
4170.0 2.8187e-05
4190.0 3.0045e-05
4210.0 2.977e-05
4230.0 3.1489e-05
4250.0 3.7252e-05
4270.0 3.769e-05
4290.0 3.4731e-05
4310.0 3.6088e-05
4330.0 3.8387e-05
4350.0 4.3041e-05
4370.0 4.8982e-05
4390.0 4.5964e-05
4410.0 3.396e-05
4430.0 2.8749e-05
4450.0 2.6417e-05
4470.0 2.0276e-05
4490.0 2.188e-05
4510.0 3.3051e-05
4530.0 3.8117e-05
4550.0 3.8448e-05
4570.0 4.3264e-05
4590.0 4.9281e-05
4610.0 6.6469e-05
4630.0 8.6329e-05
4650.0 9.3623e-05
4670.0 8.6704e-05
4690.0 8.2731e-05
4710.0 8.7452e-05
4730.0 8.253e-05
4750.0 6.1702e-05
4770.0 4.5261e-05
4790.0 4.2265e-05
4810.0 4.0285e-05
4830.0 3.688e-05
4850.0 4.047e-05
4870.0 5.3465e-05
4890.0 6.305e-05
4910.0 5.5318e-05
4930.0 4.8949e-05
4950.0 5.3778e-05
4970.0 6.8966e-05
4990.0 9.3466e-05
5010.0 0.00010752
5030.0 9.4808e-05
5050.0 6.4144e-05
5070.0 4.2273e-05
5090.0 3.4087e-05
5110.0 3.5055e-05
5130.0 4.0459e-05
5150.0 4.3835e-05
5170.0 4.3177e-05
5190.0 4.0346e-05
5210.0 4.2171e-05
5230.0 4.4331e-05
5250.0 4.7777e-05
5270.0 5.1548e-05
5290.0 5.7126e-05
5310.0 6.6493e-05
5330.0 7.3583e-05
5350.0 7.3114e-05
5370.0 7.68e-05
5390.0 8.8129e-05
5410.0 8.805e-05
5430.0 7.7868e-05
5450.0 7.1543e-05
5470.0 7.5966e-05
5490.0 9.281e-05
5510.0 0.00011604
5530.0 0.0001331
5550.0 0.00012864
5570.0 0.00011694
5590.0 0.00010169
5610.0 9.3777e-05
5630.0 9.0934e-05
5650.0 8.6607e-05
5670.0 8.2067e-05
5690.0 7.3368e-05
5710.0 7.1535e-05
5730.0 6.5895e-05
5750.0 4.646e-05
5770.0 3.6246e-05
5790.0 4.1075e-05
5810.0 4.6381e-05
5830.0 5.6916e-05
5850.0 6.7753e-05
5870.0 7.5173e-05
5890.0 7.6447e-05
5910.0 7.5e-05
5930.0 7.1391e-05
5950.0 7.2747e-05
5970.0 8.2923e-05
5990.0 7.797e-05
6010.0 6.5362e-05
6030.0 5.5221e-05
6050.0 4.8091e-05
6070.0 4.7828e-05
6090.0 5.1862e-05
6110.0 5.799e-05
6130.0 5.8878e-05
6150.0 5.0659e-05
6170.0 4.4565e-05
6190.0 5.0151e-05
6210.0 6.6299e-05
6230.0 8.7003e-05
6250.0 9.4236e-05
6270.0 8.235e-05
6290.0 6.9285e-05
6310.0 5.4089e-05
6330.0 4.1443e-05
6350.0 3.6966e-05
6370.0 3.8873e-05
6390.0 4.494e-05
6410.0 5.5413e-05
6430.0 6.4707e-05
6450.0 7.4041e-05
6470.0 8.4779e-05
6490.0 0.00010241
6510.0 0.00011451
6530.0 0.00011234
6550.0 0.00010158
6570.0 8.6234e-05
6590.0 7.776e-05
6610.0 6.7049e-05
6630.0 6.0744e-05
6650.0 5.742e-05
6670.0 5.5783e-05
6690.0 5.0403e-05
6710.0 4.5817e-05
6730.0 3.3001e-05
6750.0 3.2717e-05
6770.0 3.5561e-05
6790.0 4.0875e-05
6810.0 3.7401e-05
6830.0 3.8513e-05
6850.0 3.6022e-05
6870.0 3.2906e-05
6890.0 3.1595e-05
6910.0 3.3668e-05
6930.0 3.1535e-05
6950.0 3.2444e-05
6970.0 3.4126e-05
6990.0 3.8735e-05
7010.0 3.9065e-05
7030.0 3.9686e-05
7050.0 3.7847e-05
7070.0 3.6061e-05
7090.0 3.6167e-05
7110.0 3.7213e-05
7130.0 4.0047e-05
7150.0 4.2533e-05
7170.0 4.6932e-05
7190.0 5.1592e-05
7210.0 5.0696e-05
7230.0 5.2116e-05
7250.0 5.6007e-05
7270.0 6.1034e-05
7290.0 7.2441e-05
7310.0 7.8606e-05
7330.0 7.5979e-05
7350.0 6.8718e-05
7370.0 5.9791e-05
7390.0 5.8005e-05
7410.0 6.1641e-05
7430.0 6.8507e-05
7450.0 7.4616e-05
7470.0 7.3931e-05
7490.0 6.7411e-05
7510.0 7.636e-05
7530.0 7.5524e-05
7550.0 6.7882e-05
7570.0 5.3028e-05
7590.0 3.6455e-05
7610.0 3.1289e-05
7630.0 3.5551e-05
7650.0 4.2034e-05
7670.0 5.2314e-05
7690.0 5.7568e-05
7710.0 5.9992e-05
7730.0 6.3044e-05
7750.0 7.0774e-05
7770.0 7.1887e-05
7790.0 6.6032e-05
7810.0 6.025e-05
7830.0 6.2131e-05
7850.0 6.0397e-05
7870.0 5.5374e-05
7890.0 4.6525e-05
7910.0 3.7818e-05
7930.0 3.6111e-05
7950.0 3.2898e-05
7970.0 3.0453e-05
7990.0 3.0279e-05
8010.0 2.2426e-06
8030.0 2.2134e-06
8050.0 2.1836e-06
8070.0 2.2121e-06
8090.0 2.3769e-06
8110.0 2.3364e-06
8130.0 1.9272e-06
8150.0 1.8769e-06
8170.0 1.6167e-06
8190.0 1.5321e-06
8210.0 1.9896e-06
8230.0 2.2152e-06
8250.0 1.9965e-06
8270.0 1.7377e-06
8290.0 1.694e-06
8310.0 1.3037e-06
8330.0 8.7872e-07
8350.0 6.2361e-07
8370.0 3.929e-07
8390.0 7.1822e-07
8410.0 8.3692e-07
8430.0 1.0316e-06
8450.0 1.2114e-06
8470.0 1.5057e-06
8490.0 1.4951e-06
8510.0 1.4707e-06
8530.0 1.5348e-06
8550.0 2.0708e-06
8570.0 2.4515e-06
8590.0 2.6452e-06
8610.0 3.3414e-06
8630.0 4.0252e-06
8650.0 4.2108e-06
8670.0 4.4748e-06
8690.0 4.4999e-06
8710.0 4.0752e-06
8730.0 3.7906e-06
8750.0 3.3459e-06
8770.0 3.1748e-06
8790.0 3.119e-06
8810.0 2.9887e-06
8830.0 2.39e-06
8850.0 1.7496e-06
8870.0 1.3397e-06
8890.0 1.3097e-06
8910.0 1.501e-06
8930.0 1.7072e-06
8950.0 1.7399e-06
8970.0 1.7482e-06
8990.0 1.5591e-06
9010.0 1.6339e-05
9030.0 1.4805e-05
9050.0 1.4877e-05
9070.0 1.4994e-05
9090.0 1.5097e-05
9110.0 1.5224e-05
9130.0 1.5322e-05
9150.0 1.5399e-05
9170.0 1.548e-05
9190.0 1.5567e-05
9210.0 1.5658e-05
9230.0 1.5755e-05
9250.0 1.5853e-05
9270.0 1.5955e-05
9290.0 1.6059e-05
9310.0 1.6165e-05
9330.0 1.6272e-05
9350.0 1.6384e-05
9370.0 1.6497e-05
9390.0 1.6611e-05
9410.0 1.6728e-05
9430.0 1.6849e-05
9450.0 1.6969e-05
9470.0 1.7092e-05
9490.0 1.7218e-05
9510.0 1.7346e-05
9530.0 1.7475e-05
9550.0 1.7608e-05
9570.0 1.7743e-05
9590.0 1.7878e-05
9610.0 1.8016e-05
9630.0 1.8158e-05
9650.0 1.8301e-05
9670.0 1.8444e-05
9690.0 1.8591e-05
9710.0 1.8741e-05
9730.0 1.889e-05
9750.0 1.9042e-05
9770.0 1.9198e-05
9790.0 1.9354e-05
9810.0 1.9511e-05
9830.0 1.9671e-05
9850.0 1.9834e-05
9870.0 1.9995e-05
9890.0 2.016e-05
9910.0 2.0327e-05
9930.0 2.0494e-05
9950.0 2.0662e-05
9970.0 2.0834e-05
9990.0 2.1007e-05
10010.0 1.8228e-05
10030.0 1.8378e-05
10050.0 1.8531e-05
10070.0 1.8689e-05
10090.0 1.8838e-05
10110.0 1.899e-05
10130.0 1.9143e-05
10150.0 1.9296e-05
10170.0 1.945e-05
10190.0 1.9608e-05
10210.0 1.9763e-05
10230.0 1.9918e-05
10250.0 2.0075e-05
10270.0 2.0232e-05
10290.0 2.0388e-05
10310.0 2.0545e-05
10330.0 2.0704e-05
10350.0 2.086e-05
10370.0 2.1015e-05
10390.0 2.1173e-05
10410.0 2.133e-05
10430.0 2.1483e-05
10450.0 2.1638e-05
10470.0 2.1794e-05
10490.0 2.1947e-05
10510.0 2.2098e-05
10530.0 2.2253e-05
10550.0 2.2405e-05
10570.0 2.2553e-05
10590.0 2.2703e-05
10610.0 2.2852e-05
10630.0 2.2998e-05
10650.0 2.3142e-05
10670.0 2.3288e-05
10690.0 2.3431e-05
10710.0 2.3571e-05
10730.0 2.3711e-05
10750.0 2.3852e-05
10770.0 2.3987e-05
10790.0 2.412e-05
10810.0 2.4254e-05
10830.0 2.4383e-05
10850.0 2.4506e-05
10870.0 2.4625e-05
10890.0 2.473e-05
10910.0 2.481e-05
10930.0 2.4856e-05
10950.0 2.4845e-05
10970.0 2.4761e-05
10990.0 2.4596e-05
11010.0 2.432e-05
11030.0 2.3933e-05
11050.0 2.3461e-05
11070.0 2.2897e-05
11090.0 2.222e-05
11110.0 2.1519e-05
11130.0 2.0788e-05
11150.0 2.0001e-05
11170.0 1.919e-05
11190.0 1.8403e-05
11210.0 1.759e-05
11230.0 1.6757e-05
11250.0 1.5961e-05
11270.0 1.5196e-05
11290.0 1.443e-05
11310.0 1.3704e-05
11330.0 1.3065e-05
11350.0 1.2462e-05
11370.0 1.1904e-05
11390.0 1.1421e-05
11410.0 1.0999e-05
11430.0 1.0606e-05
11450.0 1.0268e-05
11470.0 9.9759e-06
11490.0 9.7039e-06
11510.0 9.4418e-06
11530.0 9.1986e-06
11550.0 8.957e-06
11570.0 8.6992e-06
11590.0 8.4323e-06
11610.0 8.1606e-06
11630.0 7.8648e-06
11650.0 7.5482e-06
11670.0 7.2362e-06
11690.0 6.9198e-06
11710.0 6.5934e-06
11730.0 6.2771e-06
11750.0 5.9843e-06
11770.0 5.6972e-06
11790.0 5.4282e-06
11810.0 5.1914e-06
11830.0 4.9795e-06
11850.0 4.7844e-06
11870.0 4.6212e-06
11890.0 4.4856e-06
11910.0 4.3663e-06
11930.0 4.2639e-06
11950.0 4.1786e-06
11970.0 4.1023e-06
11990.0 4.0303e-06
12010.0 3.9636e-06
12030.0 3.8993e-06
12050.0 3.8329e-06
12070.0 3.7639e-06
12090.0 3.6973e-06
12110.0 3.6297e-06
12130.0 3.5619e-06
12150.0 3.4995e-06
12170.0 3.4449e-06
12190.0 3.3978e-06
12210.0 3.3649e-06
12230.0 3.349e-06
12250.0 3.3516e-06
12270.0 3.3768e-06
12290.0 3.4246e-06
12310.0 3.4931e-06
12330.0 3.589e-06
12350.0 3.7087e-06
12370.0 3.8449e-06
12390.0 4.002e-06
12410.0 4.186e-06
12430.0 4.3731e-06
12450.0 4.5668e-06
12470.0 4.7728e-06
12490.0 4.9797e-06
12510.0 5.1738e-06
12530.0 5.3669e-06
12550.0 5.5531e-06
12570.0 5.7176e-06
12590.0 5.8619e-06
12610.0 5.9905e-06
12630.0 6.0931e-06
12650.0 6.1638e-06
12670.0 6.2104e-06
12690.0 6.229e-06
12710.0 6.2187e-06
12730.0 6.1827e-06
12750.0 6.1184e-06
12770.0 6.0301e-06
12790.0 5.9231e-06
12810.0 5.7953e-06
12830.0 5.6474e-06
12850.0 5.4928e-06
12870.0 5.3293e-06
12890.0 5.1524e-06
12910.0 4.9725e-06
12930.0 4.7952e-06
12950.0 4.6103e-06
12970.0 4.422e-06
12990.0 4.2439e-06
13010.0 4.068e-06
13030.0 3.8901e-06
13050.0 3.7193e-06
13070.0 3.5592e-06
13090.0 3.3986e-06
13110.0 3.2432e-06
13130.0 3.1e-06
13150.0 2.9643e-06
13170.0 2.8315e-06
13190.0 2.7133e-06
13210.0 2.6093e-06
13230.0 2.5142e-06
13250.0 2.4323e-06
13270.0 2.3677e-06
13290.0 2.3175e-06
13310.0 2.2829e-06
13330.0 2.2671e-06
13350.0 2.2689e-06
13370.0 2.2893e-06
13390.0 2.3293e-06
13410.0 2.3833e-06
13430.0 2.4535e-06
13450.0 2.5403e-06
13470.0 2.6366e-06
13490.0 2.7386e-06
13510.0 2.8536e-06
13530.0 2.9702e-06
13550.0 3.0819e-06
13570.0 3.1919e-06
13590.0 3.2992e-06
13610.0 3.3946e-06
13630.0 3.4779e-06
13650.0 3.554e-06
13670.0 3.6171e-06
13690.0 3.6659e-06
13710.0 3.7037e-06
13730.0 3.7307e-06
13750.0 3.7441e-06
13770.0 3.7472e-06
13790.0 3.7404e-06
13810.0 3.7239e-06
13830.0 3.6995e-06
13850.0 3.6664e-06
13870.0 3.6247e-06
13890.0 3.5771e-06
13910.0 3.5233e-06
13930.0 3.4612e-06
13950.0 3.3933e-06
13970.0 3.3238e-06
13990.0 3.2482e-06
14010.0 3.1678e-06
14030.0 3.0876e-06
14050.0 3.0068e-06
14070.0 2.9215e-06
14090.0 2.8397e-06
14110.0 2.7629e-06
14130.0 2.6884e-06
14150.0 2.6183e-06
14170.0 2.5585e-06
14190.0 2.5067e-06
14210.0 2.4628e-06
14230.0 2.4303e-06
14250.0 2.4093e-06
14270.0 2.3991e-06
14290.0 2.4013e-06
14310.0 2.4147e-06
14330.0 2.4387e-06
14350.0 2.4741e-06
14370.0 2.5182e-06
14390.0 2.5682e-06
14410.0 2.6272e-06
14430.0 2.6919e-06
14450.0 2.758e-06
14470.0 2.8266e-06
14490.0 2.8995e-06
14510.0 2.9692e-06
14530.0 3.0355e-06
14550.0 3.1017e-06
14570.0 3.1653e-06
14590.0 3.2231e-06
14610.0 3.2791e-06
14630.0 3.3345e-06
14650.0 3.3861e-06
14670.0 3.4359e-06
14690.0 3.4878e-06
14710.0 3.5424e-06
14730.0 3.597e-06
14750.0 3.6575e-06
14770.0 3.7261e-06
14790.0 3.8005e-06
14810.0 3.8811e-06
14830.0 3.9766e-06
14850.0 4.0804e-06
14870.0 4.1887e-06
14890.0 4.3056e-06
14910.0 4.4297e-06
14930.0 4.549e-06
14950.0 4.6605e-06
14970.0 4.766e-06
14990.0 4.8546e-06
15010.0 4.9223e-06
15030.0 4.9724e-06
15050.0 5.0056e-06
15070.0 5.0217e-06
15090.0 5.0274e-06
15110.0 5.0258e-06
15130.0 5.0194e-06
15150.0 5.011e-06
15170.0 5.0009e-06
15190.0 4.9902e-06
15210.0 4.9796e-06
15230.0 4.969e-06
15250.0 4.958e-06
15270.0 4.9471e-06
15290.0 4.9369e-06
15310.0 4.9263e-06
15330.0 4.9157e-06
15350.0 4.9054e-06
15370.0 4.8953e-06
15390.0 4.8846e-06
15410.0 4.8742e-06
15430.0 4.8643e-06
15450.0 4.854e-06
15470.0 4.8436e-06
15490.0 4.8337e-06
15510.0 4.8239e-06
15530.0 4.8137e-06
15550.0 4.8037e-06
15570.0 4.7941e-06
15590.0 4.7841e-06
15610.0 4.7739e-06
15630.0 4.7643e-06
15650.0 4.7547e-06
15670.0 4.7447e-06
15690.0 4.735e-06
15710.0 4.7256e-06
15730.0 4.7159e-06
15750.0 4.7061e-06
15770.0 4.6967e-06
15790.0 4.6872e-06
15810.0 4.6772e-06
15830.0 4.6677e-06
15850.0 4.6585e-06
15870.0 4.6489e-06
15890.0 4.6393e-06
15910.0 4.6301e-06
15930.0 4.6208e-06
15950.0 4.611e-06
15970.0 4.6016e-06
15990.0 4.5924e-06
16010.0 4.5829e-06
16030.0 4.5732e-06
16050.0 4.5642e-06
16070.0 4.5549e-06
16090.0 4.5454e-06
16110.0 4.5361e-06
16130.0 4.5271e-06
16150.0 4.5174e-06
16170.0 4.5079e-06
16190.0 4.4988e-06
16210.0 4.4894e-06
16230.0 4.4798e-06
16250.0 4.4706e-06
16270.0 4.4616e-06
16290.0 4.452e-06
16310.0 4.4426e-06
16330.0 4.4335e-06
16350.0 4.4241e-06
16370.0 4.4143e-06
16390.0 4.4051e-06
16410.0 4.3959e-06
16430.0 4.3863e-06
16450.0 4.3768e-06
16470.0 4.3678e-06
16490.0 4.3583e-06
16510.0 4.3486e-06
16530.0 4.3393e-06
16550.0 4.3299e-06
16570.0 4.3202e-06
16590.0 4.3105e-06
16610.0 4.3014e-06
16630.0 4.2918e-06
16650.0 4.2821e-06
16670.0 4.2727e-06
16690.0 4.2633e-06
16710.0 4.2533e-06
16730.0 4.2437e-06
16750.0 4.2343e-06
16770.0 4.2245e-06
16790.0 4.2146e-06
16810.0 4.2051e-06
16830.0 4.1956e-06
16850.0 4.1856e-06
16870.0 4.1759e-06
16890.0 4.1664e-06
16910.0 4.1564e-06
16930.0 4.1462e-06
16950.0 4.1366e-06
16970.0 4.1268e-06
16990.0 4.1167e-06
17010.0 4.1068e-06
17030.0 4.0972e-06
17050.0 4.087e-06
17070.0 4.0768e-06
17090.0 4.067e-06
17110.0 4.0571e-06
17130.0 4.0466e-06
17150.0 4.0365e-06
17170.0 4.0266e-06
17190.0 4.0164e-06
17210.0 4.0061e-06
17230.0 3.9962e-06
17250.0 3.986e-06
17270.0 3.9754e-06
17290.0 3.9651e-06
17310.0 3.955e-06
17330.0 3.9445e-06
17350.0 3.9339e-06
17370.0 3.9238e-06
17390.0 3.9135e-06
17410.0 3.9028e-06
17430.0 3.8925e-06
17450.0 3.8823e-06
17470.0 3.8713e-06
17490.0 3.8607e-06
17510.0 3.8503e-06
17530.0 3.8397e-06
17550.0 3.8288e-06
17570.0 3.8184e-06
17590.0 3.8079e-06
17610.0 3.797e-06
17630.0 3.7862e-06
17650.0 3.7757e-06
17670.0 3.7649e-06
17690.0 3.7536e-06
17710.0 3.7431e-06
17730.0 3.7324e-06
17750.0 3.7213e-06
17770.0 3.7104e-06
17790.0 3.6999e-06
17810.0 3.6888e-06
17830.0 3.6776e-06
17850.0 3.6667e-06
17870.0 3.6559e-06
17890.0 3.6445e-06
17910.0 3.6334e-06
17930.0 3.6227e-06
17950.0 3.6115e-06
17970.0 3.6002e-06
17990.0 3.5893e-06
18010.0 3.5783e-06
18030.0 3.5667e-06
18050.0 3.5556e-06
18070.0 3.5446e-06
18090.0 3.5332e-06
18110.0 3.5217e-06
18130.0 3.5108e-06
18150.0 3.4996e-06
18170.0 3.4881e-06
18190.0 3.4768e-06
18210.0 3.4658e-06
18230.0 3.4542e-06
18250.0 3.4425e-06
18270.0 3.4314e-06
18290.0 3.4201e-06
18310.0 3.4084e-06
18330.0 3.3971e-06
18350.0 3.386e-06
18370.0 3.3743e-06
18390.0 3.3627e-06
18410.0 3.3514e-06
18430.0 3.34e-06
18450.0 3.3281e-06
18470.0 3.3167e-06
18490.0 3.3054e-06
18510.0 3.2937e-06
18530.0 3.2821e-06
18550.0 3.2709e-06
18570.0 3.2593e-06
18590.0 3.2474e-06
18610.0 3.2359e-06
18630.0 3.2245e-06
18650.0 3.2127e-06
18670.0 3.2008e-06
18690.0 3.1896e-06
18710.0 3.178e-06
18730.0 3.1661e-06
18750.0 3.1546e-06
18770.0 3.1433e-06
18790.0 3.1312e-06
18810.0 3.1194e-06
18830.0 3.108e-06
18850.0 3.0963e-06
18870.0 3.0844e-06
18890.0 3.0729e-06
18910.0 3.0615e-06
18930.0 3.0495e-06
18950.0 3.0378e-06
18970.0 3.0264e-06
18990.0 3.0146e-06
19010.0 3.0024e-06
19030.0 2.991e-06
19050.0 2.9795e-06
19070.0 2.9676e-06
19090.0 2.9559e-06
19110.0 2.9445e-06
19130.0 2.9326e-06
19150.0 2.9207e-06
19170.0 2.9092e-06
19190.0 2.8976e-06
19210.0 2.8855e-06
19230.0 2.8738e-06
19250.0 2.8624e-06
19270.0 2.8506e-06
19290.0 2.8388e-06
19310.0 2.8273e-06
19330.0 2.8158e-06
19350.0 2.8036e-06
19370.0 2.7919e-06
19390.0 2.7805e-06
19410.0 2.7687e-06
19430.0 2.7568e-06
19450.0 2.7454e-06
19470.0 2.7338e-06
19490.0 2.7219e-06
19510.0 2.7103e-06
19530.0 2.6989e-06
19550.0 2.6869e-06
19570.0 2.675e-06
19590.0 2.6636e-06
19610.0 2.652e-06
19630.0 2.6402e-06
19650.0 2.6286e-06
19670.0 2.6173e-06
19690.0 2.6054e-06
19710.0 2.5937e-06
19730.0 2.5823e-06
19750.0 2.5707e-06
19770.0 2.5587e-06
19790.0 2.5472e-06
19810.0 2.5358e-06
19830.0 2.524e-06
19850.0 2.5122e-06
19870.0 2.5005e-06
19890.0 2.488e-06
19910.0 2.4743e-06
19930.0 2.4596e-06
19950.0 2.4428e-06
19970.0 2.4222e-06
19990.0 2.3973e-06
20010.0 2.1328e-06
20030.0 2.102e-06
20050.0 2.0658e-06
20070.0 2.0267e-06
20090.0 1.9846e-06
20110.0 1.937e-06
20130.0 1.8887e-06
20150.0 1.841e-06
20170.0 1.7914e-06
20190.0 1.7412e-06
20210.0 1.6937e-06
20230.0 1.6474e-06
20250.0 1.601e-06
20270.0 1.5579e-06
20290.0 1.5186e-06
20310.0 1.4813e-06
20330.0 1.4464e-06
20350.0 1.4174e-06
20370.0 1.3917e-06
20390.0 1.3691e-06
20410.0 1.3509e-06
20430.0 1.3368e-06
20450.0 1.3257e-06
20470.0 1.3183e-06
20490.0 1.3142e-06
20510.0 1.3131e-06
20530.0 1.3147e-06
20550.0 1.3188e-06
20570.0 1.3247e-06
20590.0 1.3327e-06
20610.0 1.3424e-06
20630.0 1.353e-06
20650.0 1.365e-06
20670.0 1.3786e-06
20690.0 1.3925e-06
20710.0 1.4069e-06
20730.0 1.4224e-06
20750.0 1.4386e-06
20770.0 1.4545e-06
20790.0 1.4712e-06
20810.0 1.4889e-06
20830.0 1.5065e-06
20850.0 1.5241e-06
20870.0 1.5431e-06
20890.0 1.5624e-06
20910.0 1.581e-06
20930.0 1.6003e-06
20950.0 1.6203e-06
20970.0 1.6398e-06
20990.0 1.6591e-06
21010.0 1.6793e-06
21030.0 1.6991e-06
21050.0 1.718e-06
21070.0 1.7368e-06
21090.0 1.7557e-06
21110.0 1.773e-06
21130.0 1.7892e-06
21150.0 1.8049e-06
21170.0 1.8191e-06
21190.0 1.8313e-06
21210.0 1.8423e-06
21230.0 1.8515e-06
21250.0 1.858e-06
21270.0 1.8621e-06
21290.0 1.8637e-06
21310.0 1.8622e-06
21330.0 1.8578e-06
21350.0 1.8501e-06
21370.0 1.8388e-06
21390.0 1.8244e-06
21410.0 1.8067e-06
21430.0 1.7844e-06
21450.0 1.7593e-06
21470.0 1.732e-06
21490.0 1.7012e-06
21510.0 1.6673e-06
21530.0 1.6329e-06
21550.0 1.5969e-06
21570.0 1.5584e-06
21590.0 1.5206e-06
21610.0 1.4841e-06
21630.0 1.4475e-06
21650.0 1.4118e-06
21670.0 1.3808e-06
21690.0 1.3522e-06
21710.0 1.3265e-06
21730.0 1.3054e-06
21750.0 1.2892e-06
21770.0 1.2768e-06
21790.0 1.2697e-06
21810.0 1.2677e-06
21830.0 1.2705e-06
21850.0 1.2785e-06
21870.0 1.2908e-06
21890.0 1.3068e-06
21910.0 1.3274e-06
21930.0 1.3514e-06
21950.0 1.3775e-06
21970.0 1.4064e-06
21990.0 1.4388e-06
22010.0 1.4712e-06
22030.0 1.5041e-06
22050.0 1.5387e-06
22070.0 1.5734e-06
22090.0 1.6063e-06
22110.0 1.6395e-06
22130.0 1.6726e-06
22150.0 1.7035e-06
22170.0 1.7327e-06
22190.0 1.7616e-06
22210.0 1.7885e-06
22230.0 1.8122e-06
22250.0 1.8344e-06
22270.0 1.855e-06
22290.0 1.8725e-06
22310.0 1.8876e-06
22330.0 1.9008e-06
22350.0 1.9111e-06
22370.0 1.9183e-06
22390.0 1.9228e-06
22410.0 1.9242e-06
22430.0 1.9224e-06
22450.0 1.9174e-06
22470.0 1.9089e-06
22490.0 1.8969e-06
22510.0 1.8819e-06
22530.0 1.8627e-06
22550.0 1.8394e-06
22570.0 1.8135e-06
22590.0 1.7844e-06
22610.0 1.7508e-06
