#lamb flux
1010.0 2.4327e-05
1030.0 2.6188e-05
1050.0 2.9336e-05
1070.0 3.2877e-05
1090.0 3.6637e-05
1110.0 4.0534e-05
1130.0 4.4482e-05
1150.0 4.863e-05
1170.0 5.2895e-05
1190.0 5.6883e-05
1210.0 6.0841e-05
1230.0 6.4817e-05
1250.0 6.8614e-05
1270.0 7.2115e-05
1290.0 7.5642e-05
1310.0 7.8957e-05
1330.0 8.1907e-05
1350.0 8.473e-05
1370.0 8.7538e-05
1390.0 9.0151e-05
1410.0 9.2615e-05
1430.0 9.5259e-05
1450.0 9.7975e-05
1470.0 0.0001007
1490.0 0.00010365
1510.0 0.00010704
1530.0 0.00011052
1550.0 0.00011427
1570.0 0.0001185
1590.0 0.00012312
1610.0 0.00012801
1630.0 0.00013353
1650.0 0.00013958
1670.0 0.00014595
1690.0 0.00015269
1710.0 0.00015998
1730.0 0.00016765
1750.0 0.00017538
1770.0 0.00018347
1790.0 0.00019181
1810.0 0.00020008
1830.0 0.00020824
1850.0 0.00021652
1870.0 0.00022441
1890.0 0.00023177
1910.0 0.0002387
1930.0 0.00024513
1950.0 0.00025062
1970.0 0.00025525
1990.0 0.00025918
2010.0 0.00026211
2030.0 0.00026393
2050.0 0.00026496
2070.0 0.00026521
2090.0 0.00026434
2110.0 0.00026269
2130.0 0.00026048
2150.0 0.00025762
2170.0 0.00025414
2190.0 0.00025046
2210.0 0.00024659
2230.0 0.00024248
2250.0 0.00023837
2270.0 0.00023452
2290.0 0.00023078
2310.0 0.0002272
2330.0 0.00022409
2350.0 0.00022142
2370.0 0.00021912
2390.0 0.0002174
2410.0 0.00021643
2430.0 0.00021606
2450.0 0.00021639
2470.0 0.00021769
2490.0 0.00022006
2510.0 0.00022332
2530.0 0.00022816
2550.0 0.0002355
2570.0 0.00024618
2590.0 0.0002614
2610.0 0.00028477
2630.0 0.00031731
2650.0 0.00035787
2670.0 0.00040744
2690.0 0.00046491
2710.0 0.00052327
2730.0 0.00057869
2750.0 0.00063124
2770.0 0.00067589
2790.0 0.0007116
2810.0 0.00074101
2830.0 0.00076613
2850.0 0.00078779
2870.0 0.00080894
2890.0 0.0008313
2910.0 0.0008555
2930.0 0.00088165
2950.0 0.00091067
2970.0 0.00094266
2990.0 0.00097703
3010.0 0.0012489
3030.0 0.0012982
3050.0 0.0013505
3070.0 0.0014037
3090.0 0.0014576
3110.0 0.0015092
3130.0 0.0015547
3150.0 0.0015936
3170.0 0.0016175
3190.0 0.0017244
3210.0 0.0021534
3230.0 0.002835
3250.0 0.0031518
3270.0 0.0029028
3290.0 0.0024827
3310.0 0.0022611
3330.0 0.0021731
3350.0 0.00217
3370.0 0.0021921
3390.0 0.0022269
3410.0 0.002251
3430.0 0.00219
3450.0 0.0021752
3470.0 0.0021777
3490.0 0.0024064
3510.0 0.0030323
3530.0 0.003654
3550.0 0.0042379
3570.0 0.0048853
3590.0 0.0052459
3610.0 0.0052607
3630.0 0.0052069
3650.0 0.0053733
3670.0 0.0059954
3690.0 0.0070149
3710.0 0.0080363
3730.0 0.0088137
3750.0 0.0094633
3770.0 0.0094116
3790.0 0.0088213
3810.0 0.0081473
3830.0 0.0073781
3850.0 0.0069154
3870.0 0.0069579
3890.0 0.0076854
3910.0 0.0087167
3930.0 0.0098061
3950.0 0.010988
3970.0 0.01173
3990.0 0.011565
4010.0 0.010911
4030.0 0.0096711
4050.0 0.0084818
4070.0 0.0078682
4090.0 0.0077855
4110.0 0.0081103
4130.0 0.0082362
4150.0 0.0082793
4170.0 0.0084416
4190.0 0.0088041
4210.0 0.0088149
4230.0 0.0088892
4250.0 0.0090272
4270.0 0.0092975
4290.0 0.0096264
4310.0 0.0099651
4330.0 0.0099119
4350.0 0.0094932
4370.0 0.0088688
4390.0 0.0080337
4410.0 0.0070749
4430.0 0.0064463
4450.0 0.0062491
4470.0 0.0064053
4490.0 0.0068634
4510.0 0.0077839
4530.0 0.0094941
4550.0 0.012093
4570.0 0.014357
4590.0 0.016412
4610.0 0.018909
4630.0 0.020665
4650.0 0.020516
4670.0 0.01894
4690.0 0.016785
4710.0 0.014684
4730.0 0.012809
4750.0 0.011169
4770.0 0.010051
4790.0 0.010094
4810.0 0.010691
4830.0 0.011115
4850.0 0.011315
4870.0 0.011893
4890.0 0.012575
4910.0 0.013214
4930.0 0.01393
4950.0 0.014448
4970.0 0.014249
4990.0 0.013248
5010.0 0.011835
5030.0 0.010397
5050.0 0.0093441
5070.0 0.0086762
5090.0 0.0082737
5110.0 0.0081931
5130.0 0.0082072
5150.0 0.0082626
5170.0 0.0086338
5190.0 0.0093677
5210.0 0.01045
5230.0 0.011543
5250.0 0.012676
5270.0 0.013888
5290.0 0.014954
5310.0 0.015659
5330.0 0.015993
5350.0 0.015923
5370.0 0.015718
5390.0 0.015792
5410.0 0.016326
5430.0 0.01725
5450.0 0.018438
5470.0 0.019486
5490.0 0.019923
5510.0 0.019837
5530.0 0.019519
5550.0 0.019072
5570.0 0.018471
5590.0 0.017868
5610.0 0.017274
5630.0 0.016578
5650.0 0.015604
5670.0 0.014459
5690.0 0.013512
5710.0 0.012841
5730.0 0.0122
5750.0 0.011849
5770.0 0.01186
5790.0 0.011969
5810.0 0.011912
5830.0 0.011839
5850.0 0.011717
5870.0 0.011373
5890.0 0.011085
5910.0 0.010816
5930.0 0.010156
5950.0 0.0092287
5970.0 0.0083331
5990.0 0.0076252
6010.0 0.007164
6030.0 0.0069117
6050.0 0.0069382
6070.0 0.0072328
6090.0 0.0074345
6110.0 0.0074544
6130.0 0.0074572
6150.0 0.0075332
6170.0 0.0076369
6190.0 0.0076668
6210.0 0.0075307
6230.0 0.0071196
6250.0 0.0065599
6270.0 0.0060369
6290.0 0.0056382
6310.0 0.0056305
6330.0 0.0060285
6350.0 0.0065551
6370.0 0.0069935
6390.0 0.0074987
6410.0 0.0081582
6430.0 0.0086685
6450.0 0.0089656
6470.0 0.0092079
6490.0 0.0094321
6510.0 0.0095607
6530.0 0.0096158
6550.0 0.0097139
6570.0 0.0096765
6590.0 0.0094692
6610.0 0.0091839
6630.0 0.008826
6650.0 0.0083485
6670.0 0.0078416
6690.0 0.0074818
6710.0 0.0072379
6730.0 0.0069722
6750.0 0.0068043
6770.0 0.0068578
6790.0 0.0069384
6810.0 0.0068775
6830.0 0.0067471
6850.0 0.006686
6870.0 0.0066247
6890.0 0.0064917
6910.0 0.0064695
6930.0 0.0064783
6950.0 0.0064135
6970.0 0.006321
6990.0 0.0061934
7010.0 0.0060224
7030.0 0.0057545
7050.0 0.0053482
7070.0 0.0049833
7090.0 0.0049337
7110.0 0.0050902
7130.0 0.0051606
7150.0 0.005142
7170.0 0.0052399
7190.0 0.0054702
7210.0 0.0056423
7230.0 0.0057784
7250.0 0.0059109
7270.0 0.005831
7290.0 0.0056569
7310.0 0.0055891
7330.0 0.0057146
7350.0 0.0059339
7370.0 0.0060799
7390.0 0.0062415
7410.0 0.006485
7430.0 0.0066605
7450.0 0.0067237
7470.0 0.0066828
7490.0 0.0063864
7510.0 0.0060554
7530.0 0.0059616
7550.0 0.0058294
7570.0 0.0056939
7590.0 0.0056693
7610.0 0.0056837
7630.0 0.005779
7650.0 0.0060767
7670.0 0.0064739
7690.0 0.0068499
7710.0 0.0071189
7730.0 0.0073562
7750.0 0.0075785
7770.0 0.007771
7790.0 0.0079513
7810.0 0.0080091
7830.0 0.0078085
7850.0 0.0075388
7870.0 0.007316
7890.0 0.0071584
7910.0 0.0071231
7930.0 0.0070068
7950.0 0.0068468
7970.0 0.0066527
7990.0 0.0065301
8010.0 0.0061539
8030.0 0.0061476
8050.0 0.0061274
8070.0 0.0060574
8090.0 0.0060001
8110.0 0.0059662
8130.0 0.0059847
8150.0 0.0059574
8170.0 0.0058891
8190.0 0.0057257
8210.0 0.005463
8230.0 0.0052244
8250.0 0.0051287
8270.0 0.0049061
8290.0 0.0044406
8310.0 0.0039496
8330.0 0.0036233
8350.0 0.0035062
8370.0 0.003701
8390.0 0.0040683
8410.0 0.0043499
8430.0 0.0045963
8450.0 0.0049472
8470.0 0.0052995
8490.0 0.0057145
8510.0 0.0061545
8530.0 0.0065937
8550.0 0.0069422
8570.0 0.0072015
8590.0 0.0074018
8610.0 0.0075632
8630.0 0.0075845
8650.0 0.007458
8670.0 0.0074803
8690.0 0.0077995
8710.0 0.0082218
8730.0 0.0083886
8750.0 0.0082952
8770.0 0.0083367
8790.0 0.0083433
8810.0 0.0080762
8830.0 0.0074932
8850.0 0.0067694
8870.0 0.0062358
8890.0 0.006055
8910.0 0.0058787
8930.0 0.0054883
8950.0 0.0051168
8970.0 0.0049861
8990.0 0.0050346
9010.0 0.0050077
9030.0 0.0049414
9050.0 0.0048989
9070.0 0.0048726
9090.0 0.0048488
9110.0 0.0048256
9130.0 0.0048024
9150.0 0.0047796
9170.0 0.0047566
9190.0 0.0047355
9210.0 0.0047175
9230.0 0.0046936
9250.0 0.0046708
9270.0 0.0046487
9290.0 0.0046272
9310.0 0.0046061
9330.0 0.0045853
9350.0 0.0045649
9370.0 0.0045448
9390.0 0.0045248
9410.0 0.004505
9430.0 0.0044846
9450.0 0.0044594
9470.0 0.0044361
9490.0 0.0044225
9510.0 0.0044062
9530.0 0.0043897
9550.0 0.0043722
9570.0 0.0043544
9590.0 0.0043369
9610.0 0.0043194
9630.0 0.0043016
9650.0 0.0042841
9670.0 0.0042671
9690.0 0.0042499
9710.0 0.0042327
9730.0 0.0042159
9750.0 0.0041992
9770.0 0.0041821
9790.0 0.0041654
9810.0 0.0041491
9830.0 0.0041324
9850.0 0.0041154
9870.0 0.0040995
9890.0 0.0040833
9910.0 0.0040668
9930.0 0.0040505
9950.0 0.0040276
9970.0 0.0040131
9990.0 0.003998
10010.0 0.0039829
10030.0 0.0039672
10050.0 0.0039512
10070.0 0.0039354
10090.0 0.0039196
10110.0 0.0039017
10130.0 0.0038777
10150.0 0.0038623
10170.0 0.0038481
10190.0 0.0038318
10210.0 0.003816
10230.0 0.0038001
10250.0 0.0037824
10270.0 0.0037646
10290.0 0.0037477
10310.0 0.0037294
10330.0 0.00371
10350.0 0.0036918
10370.0 0.0036735
10390.0 0.0036539
10410.0 0.0036342
10430.0 0.0036157
10450.0 0.0035958
10470.0 0.003575
10490.0 0.0035551
10510.0 0.003535
10530.0 0.0035128
10550.0 0.0034911
10570.0 0.0034704
10590.0 0.0034482
10610.0 0.0034252
10630.0 0.0034033
10650.0 0.0033808
10670.0 0.0033564
10690.0 0.0033326
10710.0 0.0033092
10730.0 0.0032843
10750.0 0.0032581
10770.0 0.0032337
10790.0 0.0032084
10810.0 0.0031816
10830.0 0.0031552
10850.0 0.0031295
10870.0 0.0031012
10890.0 0.0030727
10910.0 0.0030452
10930.0 0.003017
10950.0 0.0029871
10970.0 0.0029578
10990.0 0.0029296
11010.0 0.0029748
11030.0 0.0029432
11050.0 0.0029135
11070.0 0.0028838
11090.0 0.0028528
11110.0 0.0028243
11130.0 0.002797
11150.0 0.0027693
11170.0 0.0027423
11190.0 0.0027176
11210.0 0.0026929
11230.0 0.0026685
11250.0 0.0026459
11270.0 0.0026246
11290.0 0.0026034
11310.0 0.0025832
11330.0 0.0025651
11350.0 0.0025471
11370.0 0.0025293
11390.0 0.0025123
11410.0 0.0024956
11430.0 0.0024776
11450.0 0.0024593
11470.0 0.0024408
11490.0 0.0024207
11510.0 0.0023985
11530.0 0.0023757
11550.0 0.0023516
11570.0 0.0023249
11590.0 0.0022969
11610.0 0.0022682
11630.0 0.0022371
11650.0 0.0022038
11670.0 0.0021708
11690.0 0.0021367
11710.0 0.0021005
11730.0 0.0020637
11750.0 0.0020274
11770.0 0.001989
11790.0 0.0019492
11810.0 0.00191
11830.0 0.0018702
11850.0 0.0018279
11870.0 0.0017862
11890.0 0.0017457
11910.0 0.001704
11930.0 0.0016621
11950.0 0.0016223
11970.0 0.0015829
11990.0 0.0015431
12010.0 0.0015056
12030.0 0.0014703
12050.0 0.0014357
12070.0 0.0014024
12090.0 0.0013728
12110.0 0.0013448
12130.0 0.0013184
12150.0 0.0012947
12170.0 0.0012739
12190.0 0.0012545
12210.0 0.0012379
12230.0 0.0012244
12250.0 0.0012133
12270.0 0.0012046
12290.0 0.0011987
12310.0 0.0011951
12330.0 0.0011938
12350.0 0.0011947
12370.0 0.0011971
12390.0 0.001201
12410.0 0.0012067
12430.0 0.0012129
12450.0 0.0012195
12470.0 0.0012268
12490.0 0.0012344
12510.0 0.0012413
12530.0 0.0012483
12550.0 0.0012551
12570.0 0.001261
12590.0 0.0012659
12610.0 0.0012702
12630.0 0.0012732
12650.0 0.0012744
12670.0 0.0012743
12690.0 0.0012724
12710.0 0.0012687
12730.0 0.0012631
12750.0 0.0012554
12770.0 0.0012458
12790.0 0.0012344
12810.0 0.0012213
12830.0 0.0012064
12850.0 0.0011907
12870.0 0.0011741
12890.0 0.0011563
12910.0 0.0011383
12930.0 0.0011206
12950.0 0.0011024
12970.0 0.0010843
12990.0 0.0010672
13010.0 0.0010506
13030.0 0.0010342
13050.0 0.0010186
13070.0 0.0010041
13090.0 0.00098976
13110.0 0.00097595
13130.0 0.00096306
13150.0 0.00095071
13170.0 0.0009385
13190.0 0.00092712
13210.0 0.00091649
13230.0 0.00090612
13250.0 0.00089619
13270.0 0.00088697
13290.0 0.00087807
13310.0 0.00086932
13330.0 0.00086108
13350.0 0.00085319
13370.0 0.00084535
13390.0 0.00083757
13410.0 0.00083019
13430.0 0.00082275
13450.0 0.00081518
13470.0 0.00080769
13490.0 0.00080028
13510.0 0.00079245
13530.0 0.00078459
13550.0 0.00077683
13570.0 0.0007689
13590.0 0.00076071
13610.0 0.00075264
13630.0 0.00074469
13650.0 0.00073646
13670.0 0.00072828
13690.0 0.00072035
13710.0 0.00071238
13730.0 0.00070416
13750.0 0.00069641
13770.0 0.00068882
13790.0 0.00068113
13810.0 0.0006736
13830.0 0.00066648
13850.0 0.00065931
13870.0 0.00065222
13890.0 0.00064553
13910.0 0.00063911
13930.0 0.00063272
13950.0 0.00062663
13970.0 0.00062107
13990.0 0.00061563
14010.0 0.00061039
14030.0 0.00060554
14050.0 0.00060096
14070.0 0.00059636
14090.0 0.00059206
14110.0 0.00058802
14130.0 0.00058404
14150.0 0.00058011
14170.0 0.00057645
14190.0 0.00057292
14210.0 0.00056939
14230.0 0.00056605
14250.0 0.00056293
14270.0 0.00055984
14290.0 0.00055687
14310.0 0.00055419
14330.0 0.00055166
14350.0 0.0005492
14370.0 0.00054694
14390.0 0.00054489
14410.0 0.00054286
14430.0 0.00054093
14450.0 0.00053916
14470.0 0.00053745
14490.0 0.0005357
14510.0 0.00053406
14530.0 0.00053249
14550.0 0.00053086
14570.0 0.00052921
14590.0 0.00052765
14610.0 0.00052606
14630.0 0.00052444
14650.0 0.00052297
14670.0 0.0005217
14690.0 0.00052062
14710.0 0.00051994
14730.0 0.00051984
14750.0 0.0005204
14770.0 0.00052184
14790.0 0.00052431
14810.0 0.00052786
14830.0 0.00053297
14850.0 0.00053953
14870.0 0.0005473
14890.0 0.00055651
14910.0 0.00056713
14930.0 0.00057817
14950.0 0.00058921
14970.0 0.00060033
14990.0 0.00061041
15010.0 0.00061893
15030.0 0.00062607
15050.0 0.00063183
15070.0 0.000636
15090.0 0.00063923
15110.0 0.00064181
15130.0 0.00064396
15150.0 0.00064589
15170.0 0.00064774
15190.0 0.00064956
15210.0 0.0006514
15230.0 0.00065326
15250.0 0.00065517
15270.0 0.00065711
15290.0 0.00065909
15310.0 0.00066111
15330.0 0.00066316
15350.0 0.00066526
15370.0 0.00066739
15390.0 0.00066956
15410.0 0.00067176
15430.0 0.000674
15450.0 0.00067628
15470.0 0.00067859
15490.0 0.00068093
15510.0 0.00068332
15530.0 0.00068573
15550.0 0.00068817
15570.0 0.00069065
15590.0 0.00069316
15610.0 0.00069569
15630.0 0.00069826
15650.0 0.00070086
15670.0 0.00070349
15690.0 0.00070615
15710.0 0.00070883
15730.0 0.00071154
15750.0 0.00071428
15770.0 0.00071704
15790.0 0.00071983
15810.0 0.00072264
15830.0 0.00072548
15850.0 0.00072833
15870.0 0.00073121
15890.0 0.00073411
15910.0 0.00073703
15930.0 0.00073997
15950.0 0.00074293
15970.0 0.0007459
15990.0 0.00074889
16010.0 0.0007519
16030.0 0.00075491
16050.0 0.00075795
16070.0 0.000761
16090.0 0.00076406
16110.0 0.00076713
16130.0 0.00077021
16150.0 0.00077329
16170.0 0.00077639
16190.0 0.00077949
16210.0 0.0007826
16230.0 0.00078571
16250.0 0.00078883
16270.0 0.00079195
16290.0 0.00079507
16310.0 0.00079819
16330.0 0.00080131
16350.0 0.00080443
16370.0 0.00080754
16390.0 0.00081065
16410.0 0.00081376
16430.0 0.00081685
16450.0 0.00081994
16470.0 0.00082303
16490.0 0.0008261
16510.0 0.00082916
16530.0 0.00083221
16550.0 0.00083525
16570.0 0.00083826
16590.0 0.00084127
16610.0 0.00084426
16630.0 0.00084722
16650.0 0.00085017
16670.0 0.0008531
16690.0 0.00085601
16710.0 0.00085889
16730.0 0.00086175
16750.0 0.00086459
16770.0 0.00086739
16790.0 0.00087017
16810.0 0.00087292
16830.0 0.00087564
16850.0 0.00087833
16870.0 0.00088098
16890.0 0.00088361
16910.0 0.0008862
16930.0 0.00088874
16950.0 0.00089126
16970.0 0.00089374
16990.0 0.00089617
17010.0 0.00089857
17030.0 0.00090093
17050.0 0.00090324
17070.0 0.0009055
17090.0 0.00090773
17110.0 0.00090991
17130.0 0.00091204
17150.0 0.00091412
17170.0 0.00091616
17190.0 0.00091814
17210.0 0.00092008
17230.0 0.00092196
17250.0 0.00092379
17270.0 0.00092557
17290.0 0.00092729
17310.0 0.00092896
17330.0 0.00093058
17350.0 0.00093213
17370.0 0.00093363
17390.0 0.00093507
17410.0 0.00093645
17430.0 0.00093778
17450.0 0.00093904
17470.0 0.00094024
17490.0 0.00094138
17510.0 0.00094246
17530.0 0.00094348
17550.0 0.00094443
17570.0 0.00094532
17590.0 0.00094614
17610.0 0.0009469
17630.0 0.0009476
17650.0 0.00094823
17670.0 0.00094879
17690.0 0.00094929
17710.0 0.00094972
17730.0 0.00095009
17750.0 0.00095038
17770.0 0.00095061
17790.0 0.00095078
17810.0 0.00095087
17830.0 0.0009509
17850.0 0.00095086
17870.0 0.00095075
17890.0 0.00095057
17910.0 0.00095032
17930.0 0.00095001
17950.0 0.00094963
17970.0 0.00094918
17990.0 0.00094866
18010.0 0.00094808
18030.0 0.00094742
18050.0 0.0009467
18070.0 0.00094592
18090.0 0.00094506
18110.0 0.00094414
18130.0 0.00094315
18150.0 0.00094209
18170.0 0.00094097
18190.0 0.00093978
18210.0 0.00093853
18230.0 0.00093721
18250.0 0.00093583
18270.0 0.00093438
18290.0 0.00093287
18310.0 0.0009313
18330.0 0.00092966
18350.0 0.00092796
18370.0 0.0009262
18390.0 0.00092438
18410.0 0.0009225
18430.0 0.00092056
18450.0 0.00091855
18470.0 0.00091649
18490.0 0.00091438
18510.0 0.0009122
18530.0 0.00090997
18550.0 0.00090768
18570.0 0.00090534
18590.0 0.00090293
18610.0 0.00090048
18630.0 0.00089798
18650.0 0.00089542
18670.0 0.00089281
18690.0 0.00089015
18710.0 0.00088744
18730.0 0.00088468
18750.0 0.00088188
18770.0 0.00087903
18790.0 0.00087612
18810.0 0.00087318
18830.0 0.00087019
18850.0 0.00086715
18870.0 0.00086407
18890.0 0.00086095
18910.0 0.00085779
18930.0 0.00085459
18950.0 0.00085135
18970.0 0.00084807
18990.0 0.00084475
19010.0 0.00084139
19030.0 0.00083801
19050.0 0.00083458
19070.0 0.00083112
19090.0 0.00082763
19110.0 0.00082411
19130.0 0.00082055
19150.0 0.00081697
19170.0 0.00081335
19190.0 0.00080971
19210.0 0.00080604
19230.0 0.00080234
19250.0 0.00079862
19270.0 0.00079487
19290.0 0.0007911
19310.0 0.0007873
19330.0 0.00078348
19350.0 0.00077964
19370.0 0.00077579
19390.0 0.00077191
19410.0 0.00076801
19430.0 0.0007641
19450.0 0.00076017
19470.0 0.00075622
19490.0 0.00075226
19510.0 0.00074828
19530.0 0.00074429
19550.0 0.00074029
19570.0 0.00073627
19590.0 0.00073225
19610.0 0.00072821
19630.0 0.00072417
19650.0 0.00072012
19670.0 0.00071606
19690.0 0.00071199
19710.0 0.00070791
19730.0 0.00070383
19750.0 0.00069975
19770.0 0.00069566
19790.0 0.00069157
19810.0 0.00068747
19830.0 0.00068335
19850.0 0.00067921
19870.0 0.00067501
19890.0 0.00067068
19910.0 0.00066612
19930.0 0.00066119
19950.0 0.00065574
19970.0 0.00064946
19990.0 0.00064219
20010.0 0.00063407
20030.0 0.00062477
20050.0 0.00061435
20070.0 0.00060334
20090.0 0.00059185
20110.0 0.0005795
20130.0 0.00056725
20150.0 0.0005553
20170.0 0.00054325
20190.0 0.00053128
20210.0 0.00051994
20230.0 0.00050889
20250.0 0.00049789
20270.0 0.00048746
20290.0 0.00047762
20310.0 0.00046803
20330.0 0.00045872
20350.0 0.0004503
20370.0 0.00044229
20390.0 0.00043462
20410.0 0.00042755
20430.0 0.00042109
20450.0 0.00041491
20470.0 0.00040923
20490.0 0.00040409
20510.0 0.00039934
20530.0 0.00039494
20550.0 0.00039094
20570.0 0.0003873
20590.0 0.00038391
20610.0 0.00038078
20630.0 0.00037787
20650.0 0.00037513
20670.0 0.00037252
20690.0 0.00037001
20710.0 0.00036755
20730.0 0.00036512
20750.0 0.00036267
20770.0 0.00036018
20790.0 0.00035762
20810.0 0.00035496
20830.0 0.00035219
20850.0 0.00034931
20870.0 0.00034627
20890.0 0.00034307
20910.0 0.00033977
20930.0 0.00033632
20950.0 0.00033271
20970.0 0.00032902
20990.0 0.00032525
21010.0 0.0003213
21030.0 0.0003173
21050.0 0.00031329
21070.0 0.00030921
21090.0 0.00030503
21110.0 0.00030094
21130.0 0.00029687
21150.0 0.00029275
21170.0 0.00028869
21190.0 0.00028474
21210.0 0.00028076
21230.0 0.00027682
21250.0 0.00027302
21270.0 0.0002693
21290.0 0.00026561
21310.0 0.00026203
21330.0 0.00025861
21350.0 0.00025524
21370.0 0.00025195
21390.0 0.00024883
21410.0 0.00024582
21430.0 0.00024285
21450.0 0.00024006
21470.0 0.00023742
21490.0 0.00023487
21510.0 0.00023243
21530.0 0.00023014
21550.0 0.00022795
21570.0 0.00022585
21590.0 0.00022387
21610.0 0.00022198
21630.0 0.00022016
21650.0 0.0002184
21670.0 0.00021672
21690.0 0.00021509
21710.0 0.00021349
21730.0 0.00021193
21750.0 0.0002104
21770.0 0.00020888
21790.0 0.00020738
21810.0 0.0002059
21830.0 0.00020442
21850.0 0.00020295
21870.0 0.00020148
21890.0 0.00020003
21910.0 0.00019858
21930.0 0.00019713
21950.0 0.00019568
21970.0 0.00019423
21990.0 0.00019278
22010.0 0.00019132
22030.0 0.00018986
22050.0 0.00018837
22070.0 0.00018687
22090.0 0.00018536
22110.0 0.00018382
22130.0 0.00018223
22150.0 0.00018063
22170.0 0.00017901
22190.0 0.00017732
22210.0 0.0001756
22230.0 0.00017387
22250.0 0.00017209
22270.0 0.00017026
22290.0 0.00016842
22310.0 0.00016656
22330.0 0.00016461
22350.0 0.00016265
22370.0 0.00016069
22390.0 0.00015867
22410.0 0.00015658
22430.0 0.00015451
22450.0 0.00015243
22470.0 0.00015027
22490.0 0.0001481
22510.0 0.00014595
22530.0 0.00014374
22550.0 0.00014148
22570.0 0.00013928
22590.0 0.00013708
22610.0 0.00013483
22630.0 0.00013263
22650.0 0.00013051
22670.0 0.00012837
22690.0 0.00012625
22710.0 0.00012424
22730.0 0.00012228
22750.0 0.00012032
22770.0 0.00011848
22790.0 0.00011674
22810.0 0.00011505
22830.0 0.00011342
22850.0 0.00011192
22870.0 0.00011048
22890.0 0.00010908
22910.0 0.00010778
22930.0 0.00010657
22950.0 0.00010539
22970.0 0.00010426
22990.0 0.00010322
23010.0 0.00010222
23030.0 0.00010124
23050.0 0.00010031
23070.0 9.9427e-05
23090.0 9.8543e-05
23110.0 9.769e-05
23130.0 9.6872e-05
23150.0 9.6067e-05
23170.0 9.5268e-05
23190.0 9.4495e-05
23210.0 9.3745e-05
