#lamb flux
1010.0 3.0735e-10
1030.0 3.8073e-10
1050.0 4.6077e-10
1070.0 5.4522e-10
1090.0 6.3436e-10
1110.0 7.1582e-10
1130.0 7.8673e-10
1150.0 8.5058e-10
1170.0 9.0528e-10
1190.0 9.432e-10
1210.0 9.7268e-10
1230.0 9.9715e-10
1250.0 1.0149e-09
1270.0 1.0293e-09
1290.0 1.0509e-09
1310.0 1.0796e-09
1330.0 1.1175e-09
1350.0 1.1724e-09
1370.0 1.2494e-09
1390.0 1.3476e-09
1410.0 1.4682e-09
1430.0 1.6171e-09
1450.0 1.7909e-09
1470.0 1.9853e-09
1490.0 2.2013e-09
1510.0 2.4404e-09
1530.0 2.6892e-09
1550.0 2.9471e-09
1570.0 3.2154e-09
1590.0 3.4879e-09
1610.0 3.7561e-09
1630.0 4.0262e-09
1650.0 4.2961e-09
1670.0 4.5567e-09
1690.0 4.8093e-09
1710.0 5.0599e-09
1730.0 5.3041e-09
1750.0 5.532e-09
1770.0 5.7563e-09
1790.0 5.9762e-09
1810.0 6.1842e-09
1830.0 6.3827e-09
1850.0 6.5556e-09
1870.0 6.6958e-09
1890.0 6.8334e-09
1910.0 6.9763e-09
1930.0 7.125e-09
1950.0 7.272e-09
1970.0 7.4195e-09
1990.0 7.5728e-09
2010.0 7.724e-09
2030.0 7.8702e-09
2050.0 8.0213e-09
2070.0 8.1812e-09
2090.0 8.3352e-09
2110.0 8.4908e-09
2130.0 8.6527e-09
2150.0 8.8137e-09
2170.0 8.9702e-09
2190.0 9.1339e-09
2210.0 9.2798e-09
2230.0 9.3955e-09
2250.0 9.5097e-09
2270.0 9.6299e-09
2290.0 9.7452e-09
2310.0 9.8546e-09
2330.0 9.9689e-09
2350.0 1.0085e-08
2370.0 1.0196e-08
2390.0 1.0309e-08
2410.0 1.043e-08
2430.0 1.0551e-08
2450.0 1.0676e-08
2470.0 1.0821e-08
2490.0 1.0998e-08
2510.0 1.1211e-08
2530.0 1.1498e-08
2550.0 1.1909e-08
2570.0 1.2469e-08
2590.0 1.3214e-08
2610.0 1.4283e-08
2630.0 1.5697e-08
2650.0 1.7418e-08
2670.0 1.9531e-08
2690.0 2.2076e-08
2710.0 2.4847e-08
2730.0 2.7751e-08
2750.0 3.088e-08
2770.0 3.3982e-08
2790.0 3.6875e-08
2810.0 3.9606e-08
2830.0 4.218e-08
2850.0 4.4378e-08
2870.0 4.6353e-08
2890.0 4.8219e-08
2910.0 4.9989e-08
2930.0 5.1697e-08
2950.0 5.3463e-08
2970.0 5.5307e-08
2990.0 5.7205e-08
3010.0 5.9189e-08
3030.0 6.1303e-08
3050.0 6.3518e-08
3070.0 6.5779e-08
3090.0 6.8167e-08
3110.0 7.0699e-08
3130.0 7.3408e-08
3150.0 7.6636e-08
3170.0 8.0645e-08
3190.0 8.5822e-08
3210.0 9.2521e-08
3230.0 1.0129e-07
3250.0 1.1203e-07
3270.0 1.2169e-07
3290.0 1.3794e-07
3310.0 1.7305e-07
3330.0 1.8448e-07
3350.0 1.8993e-07
3370.0 1.9514e-07
3390.0 2.0045e-07
3410.0 2.0589e-07
3430.0 2.1144e-07
3450.0 2.17e-07
3470.0 2.2243e-07
3490.0 2.2778e-07
3510.0 2.3308e-07
3530.0 2.3151e-07
3550.0 2.2501e-07
3570.0 2.2757e-07
3590.0 2.3997e-07
3610.0 2.608e-07
3630.0 2.6675e-07
3650.0 2.554e-07
3670.0 2.3555e-07
3690.0 2.251e-07
3710.0 2.292e-07
3730.0 2.3674e-07
3750.0 2.4065e-07
3770.0 2.4876e-07
3790.0 2.5786e-07
3810.0 2.5326e-07
3830.0 2.3617e-07
3850.0 2.2156e-07
3870.0 2.1473e-07
3890.0 2.1143e-07
3910.0 2.0602e-07
3930.0 2.0359e-07
3950.0 2.0905e-07
3970.0 2.1546e-07
3990.0 2.1771e-07
4010.0 2.0916e-07
4030.0 1.9778e-07
4050.0 1.9065e-07
4070.0 1.8461e-07
4090.0 1.7944e-07
4110.0 1.7251e-07
4130.0 1.6203e-07
4150.0 1.5171e-07
4170.0 1.456e-07
4190.0 1.354e-07
4210.0 1.2269e-07
4230.0 1.0973e-07
4250.0 9.7588e-08
4270.0 8.8728e-08
4290.0 8.1724e-08
4310.0 7.811e-08
4330.0 7.8012e-08
4350.0 7.7725e-08
4370.0 7.848e-08
4390.0 8.0966e-08
4410.0 8.2716e-08
4430.0 7.9409e-08
4450.0 7.2273e-08
4470.0 6.6241e-08
4490.0 6.2761e-08
4510.0 6.0654e-08
4530.0 5.9643e-08
4550.0 5.8821e-08
4570.0 5.8618e-08
4590.0 5.9413e-08
4610.0 6.1627e-08
4630.0 6.2953e-08
4650.0 6.3768e-08
4670.0 6.2208e-08
4690.0 5.8697e-08
4710.0 5.5096e-08
4730.0 5.2922e-08
4750.0 5.1555e-08
4770.0 5.1618e-08
4790.0 5.1428e-08
4810.0 5.0315e-08
4830.0 5.0225e-08
4850.0 5.1872e-08
4870.0 5.2333e-08
4890.0 5.1361e-08
4910.0 5.0342e-08
4930.0 4.7519e-08
4950.0 4.3197e-08
4970.0 4.0402e-08
4990.0 3.811e-08
5010.0 3.7578e-08
5030.0 3.8855e-08
5050.0 3.9878e-08
5070.0 4.1356e-08
5090.0 4.3863e-08
5110.0 4.4555e-08
5130.0 4.493e-08
5150.0 4.5802e-08
5170.0 4.6102e-08
5190.0 4.7321e-08
5210.0 4.7587e-08
5230.0 4.7072e-08
5250.0 4.7519e-08
5270.0 4.8232e-08
5290.0 4.8387e-08
5310.0 4.8008e-08
5330.0 4.7116e-08
5350.0 4.6383e-08
5370.0 4.5911e-08
5390.0 4.5356e-08
5410.0 4.4832e-08
5430.0 4.4879e-08
5450.0 4.546e-08
5470.0 4.6302e-08
5490.0 4.7345e-08
5510.0 4.8807e-08
5530.0 4.9392e-08
5550.0 5.0222e-08
5570.0 5.0147e-08
5590.0 4.8852e-08
5610.0 4.8474e-08
5630.0 4.8942e-08
5650.0 4.8312e-08
5670.0 4.7233e-08
5690.0 4.5711e-08
5710.0 4.5766e-08
5730.0 4.6158e-08
5750.0 4.4151e-08
5770.0 4.1919e-08
5790.0 3.8248e-08
5810.0 3.3189e-08
5830.0 3.5974e-08
5850.0 4.0238e-08
5870.0 4.1288e-08
5890.0 4.1527e-08
5910.0 4.1671e-08
5930.0 4.1655e-08
5950.0 4.0871e-08
5970.0 4.0361e-08
5990.0 3.9664e-08
6010.0 3.8492e-08
6030.0 3.7102e-08
6050.0 3.6538e-08
6070.0 3.6542e-08
6090.0 3.5871e-08
6110.0 3.4595e-08
6130.0 3.3484e-08
6150.0 3.2097e-08
6170.0 3.0682e-08
6190.0 2.9565e-08
6210.0 2.8471e-08
6230.0 2.7964e-08
6250.0 2.7372e-08
6270.0 2.6797e-08
6290.0 2.6474e-08
6310.0 2.6155e-08
6330.0 2.5541e-08
6350.0 2.4722e-08
6370.0 2.4186e-08
6390.0 2.3857e-08
6410.0 2.3117e-08
6430.0 2.2552e-08
6450.0 2.2e-08
6470.0 2.1471e-08
6490.0 2.1104e-08
6510.0 2.0874e-08
6530.0 2.0296e-08
6550.0 1.9842e-08
6570.0 1.9612e-08
6590.0 1.9491e-08
6610.0 1.9355e-08
6630.0 1.8674e-08
6650.0 1.8209e-08
6670.0 1.8063e-08
6690.0 1.78e-08
6710.0 1.7402e-08
6730.0 1.7277e-08
6750.0 1.7412e-08
6770.0 1.8569e-08
6790.0 2.1134e-08
6810.0 1.999e-08
6830.0 1.7283e-08
6850.0 1.6675e-08
6870.0 1.6416e-08
6890.0 1.6431e-08
6910.0 1.6473e-08
6930.0 1.6545e-08
6950.0 1.6431e-08
6970.0 1.6019e-08
6990.0 1.5874e-08
7010.0 1.6122e-08
7030.0 1.6142e-08
7050.0 1.5902e-08
7070.0 1.5894e-08
7090.0 1.6138e-08
7110.0 1.6497e-08
7130.0 1.6555e-08
7150.0 1.6585e-08
7170.0 1.6677e-08
7190.0 1.6922e-08
7210.0 1.7042e-08
7230.0 1.7102e-08
7250.0 1.7346e-08
7270.0 1.7492e-08
7290.0 1.7713e-08
7310.0 1.8148e-08
7330.0 1.8032e-08
7350.0 1.7674e-08
7370.0 1.7335e-08
7390.0 1.7172e-08
7410.0 1.7424e-08
7430.0 1.7614e-08
7450.0 1.7735e-08
7470.0 1.7877e-08
7490.0 1.7745e-08
7510.0 1.7637e-08
7530.0 1.7779e-08
7550.0 1.8586e-08
7570.0 1.8517e-08
7590.0 1.7515e-08
7610.0 1.7212e-08
7630.0 1.8301e-08
7650.0 1.858e-08
7670.0 1.8919e-08
7690.0 1.9712e-08
7710.0 2.0378e-08
7730.0 2.0523e-08
7750.0 2.1645e-08
7770.0 2.0989e-08
7790.0 2.0396e-08
7810.0 2.1756e-08
7830.0 2.2483e-08
7850.0 2.3232e-08
7870.0 2.3543e-08
7890.0 2.3822e-08
7910.0 2.364e-08
7930.0 2.3853e-08
7950.0 2.4884e-08
7970.0 2.4912e-08
7990.0 2.3184e-08
8010.0 2.4082e-08
8030.0 2.4401e-08
8050.0 2.4834e-08
8070.0 2.2643e-08
8090.0 1.5549e-08
8110.0 1.603e-08
8130.0 2.2155e-08
8150.0 2.3871e-08
8170.0 2.484e-08
8190.0 2.5501e-08
8210.0 2.5042e-08
8230.0 2.6918e-08
8250.0 2.7405e-08
8270.0 2.6151e-08
8290.0 2.5233e-08
8310.0 2.4746e-08
8330.0 2.5787e-08
8350.0 2.6997e-08
8370.0 2.6612e-08
8390.0 2.5409e-08
8410.0 2.5361e-08
8430.0 2.3815e-08
8450.0 2.4163e-08
8470.0 2.6422e-08
8490.0 2.6503e-08
8510.0 2.4558e-08
8530.0 2.3234e-08
8550.0 2.2344e-08
8570.0 2.0948e-08
8590.0 2.1553e-08
8610.0 2.271e-08
8630.0 2.3417e-08
8650.0 2.3805e-08
8670.0 2.3268e-08
8690.0 2.2717e-08
8710.0 2.1282e-08
8730.0 2.0459e-08
8750.0 2.1134e-08
8770.0 2.1399e-08
8790.0 2.1537e-08
8810.0 2.1234e-08
8830.0 2.1579e-08
8850.0 2.273e-08
8870.0 2.1244e-08
8890.0 1.9946e-08
8910.0 1.9668e-08
8930.0 1.8713e-08
8950.0 1.7876e-08
8970.0 1.7792e-08
8990.0 1.7056e-08
9010.0 1.5996e-08
9030.0 1.564e-08
9050.0 1.5515e-08
9070.0 1.5405e-08
9090.0 1.5293e-08
9110.0 1.5182e-08
9130.0 1.5069e-08
9150.0 1.4956e-08
9170.0 1.4842e-08
9190.0 1.4729e-08
9210.0 1.4614e-08
9230.0 1.45e-08
9250.0 1.4386e-08
9270.0 1.4272e-08
9290.0 1.4158e-08
9310.0 1.4046e-08
9330.0 1.3937e-08
9350.0 1.3827e-08
9370.0 1.3719e-08
9390.0 1.361e-08
9410.0 1.3502e-08
9430.0 1.3395e-08
9450.0 1.3288e-08
9470.0 1.3182e-08
9490.0 1.3077e-08
9510.0 1.2972e-08
9530.0 1.2867e-08
9550.0 1.2764e-08
9570.0 1.2661e-08
9590.0 1.2559e-08
9610.0 1.2461e-08
9630.0 1.2364e-08
9650.0 1.2267e-08
9670.0 1.2172e-08
9690.0 1.2077e-08
9710.0 1.1984e-08
9730.0 1.1891e-08
9750.0 1.1799e-08
9770.0 1.1708e-08
9790.0 1.1618e-08
9810.0 1.1529e-08
9830.0 1.144e-08
9850.0 1.1352e-08
9870.0 1.1264e-08
9890.0 1.118e-08
9910.0 1.1096e-08
9930.0 1.1012e-08
9950.0 1.093e-08
9970.0 1.0849e-08
9990.0 1.0768e-08
10010.0 1.0688e-08
10030.0 1.0609e-08
10050.0 1.0532e-08
10070.0 1.0454e-08
10090.0 1.0378e-08
10110.0 1.0303e-08
10130.0 1.0229e-08
10150.0 1.0155e-08
10170.0 1.0082e-08
10190.0 1.001e-08
10210.0 9.9395e-09
10230.0 9.8693e-09
10250.0 9.8e-09
10270.0 9.7314e-09
10290.0 9.6637e-09
10310.0 9.5968e-09
10330.0 9.5307e-09
10350.0 9.4653e-09
10370.0 9.4006e-09
10390.0 9.3358e-09
10410.0 9.2592e-09
10430.0 9.1791e-09
10450.0 9.1322e-09
10470.0 9.0778e-09
10490.0 9.0225e-09
10510.0 8.9663e-09
10530.0 8.9077e-09
10550.0 8.8498e-09
10570.0 8.7933e-09
10590.0 8.7363e-09
10610.0 8.6792e-09
10630.0 8.6241e-09
10650.0 8.5694e-09
10670.0 8.5139e-09
10690.0 8.4597e-09
10710.0 8.4069e-09
10730.0 8.3536e-09
10750.0 8.2999e-09
10770.0 8.2489e-09
10790.0 8.1979e-09
10810.0 8.1464e-09
10830.0 8.096e-09
10850.0 8.0472e-09
10870.0 7.9968e-09
10890.0 7.9468e-09
10910.0 7.8983e-09
10930.0 7.8494e-09
10950.0 7.7989e-09
10970.0 7.7486e-09
10990.0 7.6988e-09
11010.0 6.4583e-09
11030.0 6.4108e-09
11050.0 6.3646e-09
11070.0 6.3178e-09
11090.0 6.2685e-09
11110.0 6.221e-09
11130.0 6.1736e-09
11150.0 6.1245e-09
11170.0 6.0748e-09
11190.0 6.0267e-09
11210.0 5.9774e-09
11230.0 5.927e-09
11250.0 5.8783e-09
11270.0 5.8309e-09
11290.0 5.7828e-09
11310.0 5.7361e-09
11330.0 5.6932e-09
11350.0 5.6512e-09
11370.0 5.6104e-09
11390.0 5.5728e-09
11410.0 5.5375e-09
11430.0 5.5022e-09
11450.0 5.4692e-09
11470.0 5.4382e-09
11490.0 5.4077e-09
11510.0 5.3769e-09
11530.0 5.3477e-09
11550.0 5.3187e-09
11570.0 5.2885e-09
11590.0 5.2581e-09
11610.0 5.2282e-09
11630.0 5.1965e-09
11650.0 5.1633e-09
11670.0 5.1308e-09
11690.0 5.0976e-09
11710.0 5.0628e-09
11730.0 5.0277e-09
11750.0 4.9936e-09
11770.0 4.958e-09
11790.0 4.9218e-09
11810.0 4.8869e-09
11830.0 4.8523e-09
11850.0 4.8165e-09
11870.0 4.7824e-09
11890.0 4.7502e-09
11910.0 4.7181e-09
11930.0 4.6869e-09
11950.0 4.6582e-09
11970.0 4.6307e-09
11990.0 4.6037e-09
12010.0 4.5792e-09
12030.0 4.5567e-09
12050.0 4.5353e-09
12070.0 4.5152e-09
12090.0 4.4979e-09
12110.0 4.4817e-09
12130.0 4.4665e-09
12150.0 4.4528e-09
12170.0 4.4405e-09
12190.0 4.4281e-09
12210.0 4.4164e-09
12230.0 4.4052e-09
12250.0 4.3937e-09
12270.0 4.3812e-09
12290.0 4.3682e-09
12310.0 4.3544e-09
12330.0 4.3385e-09
12350.0 4.321e-09
12370.0 4.3022e-09
12390.0 4.2812e-09
12410.0 4.2569e-09
12430.0 4.2318e-09
12450.0 4.2051e-09
12470.0 4.1756e-09
12490.0 4.1443e-09
12510.0 4.1129e-09
12530.0 4.0792e-09
12550.0 4.0435e-09
12570.0 4.008e-09
12590.0 3.9722e-09
12610.0 3.9345e-09
12630.0 3.8965e-09
12650.0 3.8606e-09
12670.0 3.8239e-09
12690.0 3.7869e-09
12710.0 3.7518e-09
12730.0 3.718e-09
12750.0 3.6834e-09
12770.0 3.651e-09
12790.0 3.6208e-09
12810.0 3.5915e-09
12830.0 3.5632e-09
12850.0 3.5379e-09
12870.0 3.5145e-09
12890.0 3.4921e-09
12910.0 3.472e-09
12930.0 3.4545e-09
12950.0 3.4383e-09
12970.0 3.424e-09
12990.0 3.4125e-09
13010.0 3.403e-09
13030.0 3.3952e-09
13050.0 3.3894e-09
13070.0 3.3855e-09
13090.0 3.3828e-09
13110.0 3.3813e-09
13130.0 3.3806e-09
13150.0 3.3803e-09
13170.0 3.38e-09
13190.0 3.3791e-09
13210.0 3.3774e-09
13230.0 3.3744e-09
13250.0 3.3697e-09
13270.0 3.3634e-09
13290.0 3.3551e-09
13310.0 3.3442e-09
13330.0 3.3315e-09
13350.0 3.3169e-09
13370.0 3.2998e-09
13390.0 3.2802e-09
13410.0 3.26e-09
13430.0 3.2377e-09
13450.0 3.2132e-09
13470.0 3.1877e-09
13490.0 3.1617e-09
13510.0 3.1328e-09
13530.0 3.1031e-09
13550.0 3.0737e-09
13570.0 3.0431e-09
13590.0 3.0109e-09
13610.0 2.9791e-09
13630.0 2.9478e-09
13650.0 2.9147e-09
13670.0 2.8817e-09
13690.0 2.8497e-09
13710.0 2.8172e-09
13730.0 2.7833e-09
13750.0 2.7516e-09
13770.0 2.7206e-09
13790.0 2.6891e-09
13810.0 2.6585e-09
13830.0 2.63e-09
13850.0 2.6014e-09
13870.0 2.5732e-09
13890.0 2.5468e-09
13910.0 2.5217e-09
13930.0 2.4966e-09
13950.0 2.4726e-09
13970.0 2.4507e-09
13990.0 2.429e-09
14010.0 2.4079e-09
14030.0 2.3884e-09
14050.0 2.3698e-09
14070.0 2.3511e-09
14090.0 2.3337e-09
14110.0 2.3176e-09
14130.0 2.3019e-09
14150.0 2.2867e-09
14170.0 2.2728e-09
14190.0 2.2596e-09
14210.0 2.2465e-09
14230.0 2.2341e-09
14250.0 2.2226e-09
14270.0 2.2109e-09
14290.0 2.1995e-09
14310.0 2.1888e-09
14330.0 2.1783e-09
14350.0 2.1677e-09
14370.0 2.1574e-09
14390.0 2.1477e-09
14410.0 2.1376e-09
14430.0 2.1277e-09
14450.0 2.1181e-09
14470.0 2.1086e-09
14490.0 2.0988e-09
14510.0 2.0893e-09
14530.0 2.0801e-09
14550.0 2.0706e-09
14570.0 2.061e-09
14590.0 2.0517e-09
14610.0 2.0422e-09
14630.0 2.0323e-09
14650.0 2.0226e-09
14670.0 2.0129e-09
14690.0 2.0028e-09
14710.0 1.9925e-09
14730.0 1.9826e-09
14750.0 1.9723e-09
14770.0 1.9617e-09
14790.0 1.9511e-09
14810.0 1.9406e-09
14830.0 1.9293e-09
14850.0 1.918e-09
14870.0 1.9069e-09
14890.0 1.8956e-09
14910.0 1.8841e-09
14930.0 1.8731e-09
14950.0 1.8627e-09
14970.0 1.8525e-09
14990.0 1.8431e-09
15010.0 1.8349e-09
15030.0 1.8274e-09
15050.0 1.8205e-09
15070.0 1.8146e-09
15090.0 1.8092e-09
15110.0 1.8039e-09
15130.0 1.7989e-09
15150.0 1.7943e-09
15170.0 1.7895e-09
15190.0 1.7846e-09
15210.0 1.7799e-09
15230.0 1.7753e-09
15250.0 1.7705e-09
15270.0 1.7657e-09
15290.0 1.7611e-09
15310.0 1.7564e-09
15330.0 1.7517e-09
15350.0 1.747e-09
15370.0 1.7425e-09
15390.0 1.7376e-09
15410.0 1.733e-09
15430.0 1.7284e-09
15450.0 1.7237e-09
15470.0 1.719e-09
15490.0 1.7144e-09
15510.0 1.7099e-09
15530.0 1.7052e-09
15550.0 1.7006e-09
15570.0 1.6961e-09
15590.0 1.6914e-09
15610.0 1.6867e-09
15630.0 1.6822e-09
15650.0 1.6777e-09
15670.0 1.673e-09
15690.0 1.6685e-09
15710.0 1.664e-09
15730.0 1.6594e-09
15750.0 1.6548e-09
15770.0 1.6504e-09
15790.0 1.6459e-09
15810.0 1.6412e-09
15830.0 1.6367e-09
15850.0 1.6323e-09
15870.0 1.6278e-09
15890.0 1.6233e-09
15910.0 1.6189e-09
15930.0 1.6145e-09
15950.0 1.6099e-09
15970.0 1.6055e-09
15990.0 1.6011e-09
16010.0 1.5966e-09
16030.0 1.592e-09
16050.0 1.5878e-09
16070.0 1.5834e-09
16090.0 1.5789e-09
16110.0 1.5745e-09
16130.0 1.5703e-09
16150.0 1.5657e-09
16170.0 1.5613e-09
16190.0 1.557e-09
16210.0 1.5527e-09
16230.0 1.5482e-09
16250.0 1.5439e-09
16270.0 1.5397e-09
16290.0 1.5352e-09
16310.0 1.5309e-09
16330.0 1.5267e-09
16350.0 1.5223e-09
16370.0 1.5178e-09
16390.0 1.5136e-09
16410.0 1.5094e-09
16430.0 1.505e-09
16450.0 1.5007e-09
16470.0 1.4966e-09
16490.0 1.4922e-09
16510.0 1.4879e-09
16530.0 1.4837e-09
16550.0 1.4795e-09
16570.0 1.4751e-09
16590.0 1.4708e-09
16610.0 1.4667e-09
16630.0 1.4624e-09
16650.0 1.4581e-09
16670.0 1.4539e-09
16690.0 1.4498e-09
16710.0 1.4454e-09
16730.0 1.4412e-09
16750.0 1.437e-09
16770.0 1.4328e-09
16790.0 1.4285e-09
16810.0 1.4244e-09
16830.0 1.4202e-09
16850.0 1.4159e-09
16870.0 1.4117e-09
16890.0 1.4077e-09
16910.0 1.4034e-09
16930.0 1.3991e-09
16950.0 1.395e-09
16970.0 1.3909e-09
16990.0 1.3866e-09
17010.0 1.3824e-09
17030.0 1.3784e-09
17050.0 1.3741e-09
17070.0 1.3699e-09
17090.0 1.3658e-09
17110.0 1.3617e-09
17130.0 1.3573e-09
17150.0 1.3532e-09
17170.0 1.3491e-09
17190.0 1.3449e-09
17210.0 1.3407e-09
17230.0 1.3367e-09
17250.0 1.3325e-09
17270.0 1.3282e-09
17290.0 1.3241e-09
17310.0 1.32e-09
17330.0 1.3158e-09
17350.0 1.3116e-09
17370.0 1.3076e-09
17390.0 1.3034e-09
17410.0 1.2992e-09
17430.0 1.2951e-09
17450.0 1.291e-09
17470.0 1.2867e-09
17490.0 1.2825e-09
17510.0 1.2785e-09
17530.0 1.2743e-09
17550.0 1.2701e-09
17570.0 1.266e-09
17590.0 1.2619e-09
17610.0 1.2577e-09
17630.0 1.2535e-09
17650.0 1.2495e-09
17670.0 1.2453e-09
17690.0 1.241e-09
17710.0 1.2369e-09
17730.0 1.2328e-09
17750.0 1.2286e-09
17770.0 1.2244e-09
17790.0 1.2204e-09
17810.0 1.2162e-09
17830.0 1.2119e-09
17850.0 1.2078e-09
17870.0 1.2037e-09
17890.0 1.1994e-09
17910.0 1.1952e-09
17930.0 1.1912e-09
17950.0 1.187e-09
17970.0 1.1828e-09
17990.0 1.1787e-09
18010.0 1.1746e-09
18030.0 1.1702e-09
18050.0 1.1661e-09
18070.0 1.162e-09
18090.0 1.1578e-09
18110.0 1.1535e-09
18130.0 1.1494e-09
18150.0 1.1453e-09
18170.0 1.141e-09
18190.0 1.1368e-09
18210.0 1.1327e-09
18230.0 1.1285e-09
18250.0 1.1241e-09
18270.0 1.12e-09
18290.0 1.1159e-09
18310.0 1.1116e-09
18330.0 1.1074e-09
18350.0 1.1033e-09
18370.0 1.099e-09
18390.0 1.0948e-09
18410.0 1.0907e-09
18430.0 1.0865e-09
18450.0 1.0821e-09
18470.0 1.0779e-09
18490.0 1.0738e-09
18510.0 1.0695e-09
18530.0 1.0652e-09
18550.0 1.0611e-09
18570.0 1.0569e-09
18590.0 1.0525e-09
18610.0 1.0483e-09
18630.0 1.0442e-09
18650.0 1.0399e-09
18670.0 1.0355e-09
18690.0 1.0314e-09
18710.0 1.0272e-09
18730.0 1.0229e-09
18750.0 1.0187e-09
18770.0 1.0145e-09
18790.0 1.0101e-09
18810.0 1.0058e-09
18830.0 1.0017e-09
18850.0 9.9739e-10
18870.0 9.9302e-10
18890.0 9.8883e-10
18910.0 9.8466e-10
18930.0 9.8029e-10
18950.0 9.7599e-10
18970.0 9.7182e-10
18990.0 9.6752e-10
19010.0 9.6305e-10
19030.0 9.5888e-10
19050.0 9.5466e-10
19070.0 9.5029e-10
19090.0 9.46e-10
19110.0 9.4185e-10
19130.0 9.3748e-10
19150.0 9.3309e-10
19170.0 9.2886e-10
19190.0 9.2461e-10
19210.0 9.2018e-10
19230.0 9.1584e-10
19250.0 9.1168e-10
19270.0 9.0734e-10
19290.0 9.0296e-10
19310.0 8.9874e-10
19330.0 8.9448e-10
19350.0 8.8999e-10
19370.0 8.8568e-10
19390.0 8.8145e-10
19410.0 8.7708e-10
19430.0 8.7266e-10
19450.0 8.6845e-10
19470.0 8.6416e-10
19490.0 8.5974e-10
19510.0 8.5542e-10
19530.0 8.5119e-10
19550.0 8.4676e-10
19570.0 8.423e-10
19590.0 8.3807e-10
19610.0 8.3375e-10
19630.0 8.2932e-10
19650.0 8.2501e-10
19670.0 8.2078e-10
19690.0 8.1634e-10
19710.0 8.1193e-10
19730.0 8.0767e-10
19750.0 8.0332e-10
19770.0 7.988e-10
19790.0 7.9449e-10
19810.0 7.9024e-10
19830.0 7.8582e-10
19850.0 7.8144e-10
19870.0 7.7725e-10
19890.0 7.7295e-10
19910.0 7.6862e-10
19930.0 7.6461e-10
19950.0 7.6083e-10
19970.0 7.5722e-10
19990.0 7.5402e-10
20010.0 7.5139e-10
20030.0 7.491e-10
20050.0 7.4721e-10
20070.0 7.4574e-10
20090.0 7.4456e-10
20110.0 7.4352e-10
20130.0 7.4264e-10
20150.0 7.4185e-10
20170.0 7.4105e-10
20190.0 7.4023e-10
20210.0 7.3942e-10
20230.0 7.3856e-10
20250.0 7.3762e-10
20270.0 7.3665e-10
20290.0 7.3565e-10
20310.0 7.3455e-10
20330.0 7.3336e-10
20350.0 7.3218e-10
20370.0 7.3093e-10
20390.0 7.2958e-10
20410.0 7.2821e-10
20430.0 7.2684e-10
20450.0 7.2536e-10
20470.0 7.2384e-10
20490.0 7.2238e-10
20510.0 7.2089e-10
20530.0 7.1936e-10
20550.0 7.1788e-10
20570.0 7.1648e-10
20590.0 7.1506e-10
20610.0 7.1366e-10
20630.0 7.1235e-10
20650.0 7.1105e-10
20670.0 7.097e-10
20690.0 7.0842e-10
20710.0 7.0716e-10
20730.0 7.0583e-10
20750.0 7.0445e-10
20770.0 7.0307e-10
20790.0 7.0159e-10
20810.0 6.9997e-10
20830.0 6.9829e-10
20850.0 6.9652e-10
20870.0 6.9455e-10
20890.0 6.9243e-10
20910.0 6.9031e-10
20930.0 6.8803e-10
20950.0 6.8558e-10
20970.0 6.8312e-10
20990.0 6.8064e-10
21010.0 6.7796e-10
21030.0 6.7529e-10
21050.0 6.7269e-10
21070.0 6.7004e-10
21090.0 6.673e-10
21110.0 6.6473e-10
21130.0 6.6221e-10
21150.0 6.5962e-10
21170.0 6.5709e-10
21190.0 6.5469e-10
21210.0 6.5221e-10
21230.0 6.4968e-10
21250.0 6.4726e-10
21270.0 6.4483e-10
21290.0 6.423e-10
21310.0 6.3974e-10
21330.0 6.3727e-10
21350.0 6.3465e-10
21370.0 6.3192e-10
21390.0 6.2902e-10
21410.0 6.2607e-10
21430.0 6.2285e-10
21450.0 6.1967e-10
21470.0 6.165e-10
21490.0 6.1318e-10
21510.0 6.0974e-10
21530.0 6.0639e-10
21550.0 6.0297e-10
21570.0 5.9936e-10
21590.0 5.9581e-10
21610.0 5.9232e-10
21630.0 5.887e-10
21650.0 5.8497e-10
21670.0 5.8148e-10
21690.0 5.7793e-10
21710.0 5.7429e-10
21730.0 5.7072e-10
21750.0 5.6728e-10
21770.0 5.6365e-10
21790.0 5.6004e-10
21810.0 5.5656e-10
21830.0 5.5305e-10
21850.0 5.4942e-10
21870.0 5.4589e-10
21890.0 5.4247e-10
21910.0 5.3892e-10
21930.0 5.3538e-10
21950.0 5.3198e-10
21970.0 5.2855e-10
21990.0 5.2501e-10
22010.0 5.2168e-10
22030.0 5.1846e-10
22050.0 5.1521e-10
22070.0 5.1211e-10
22090.0 5.0934e-10
22110.0 5.0661e-10
22130.0 5.0392e-10
22150.0 5.0144e-10
22170.0 4.9911e-10
22190.0 4.968e-10
22210.0 4.9462e-10
22230.0 4.9266e-10
22250.0 4.9075e-10
22270.0 4.8888e-10
22290.0 4.8716e-10
22310.0 4.8553e-10
22330.0 4.8386e-10
22350.0 4.8226e-10
22370.0 4.8074e-10
22390.0 4.792e-10
22410.0 4.7761e-10
22430.0 4.7611e-10
22450.0 4.746e-10
22470.0 4.7302e-10
22490.0 4.7144e-10
22510.0 4.699e-10
22530.0 4.6828e-10
22550.0 4.6662e-10
22570.0 4.6502e-10
22590.0 4.6342e-10
