#lamb flux
1010.0 1.0376e-10
1030.0 1.3416e-10
1050.0 1.7183e-10
1070.0 2.1777e-10
1090.0 2.7419e-10
1110.0 3.3828e-10
1130.0 4.097e-10
1150.0 4.9104e-10
1170.0 5.819e-10
1190.0 6.7677e-10
1210.0 7.7852e-10
1230.0 8.874e-10
1250.0 9.9799e-10
1270.0 1.1071e-09
1290.0 1.2185e-09
1310.0 1.3253e-09
1330.0 1.4213e-09
1350.0 1.5079e-09
1370.0 1.5847e-09
1390.0 1.6452e-09
1410.0 1.6881e-09
1430.0 1.7187e-09
1450.0 1.7337e-09
1470.0 1.7317e-09
1490.0 1.7175e-09
1510.0 1.6957e-09
1530.0 1.6612e-09
1550.0 1.6193e-09
1570.0 1.5752e-09
1590.0 1.5286e-09
1610.0 1.4792e-09
1630.0 1.4324e-09
1650.0 1.3889e-09
1670.0 1.3472e-09
1690.0 1.3092e-09
1710.0 1.277e-09
1730.0 1.2497e-09
1750.0 1.2253e-09
1770.0 1.2068e-09
1790.0 1.1937e-09
1810.0 1.1842e-09
1830.0 1.1788e-09
1850.0 1.197e-09
1870.0 1.2326e-09
1890.0 1.2661e-09
1910.0 1.299e-09
1930.0 1.3315e-09
1950.0 1.3599e-09
1970.0 1.387e-09
1990.0 1.4154e-09
2010.0 1.4436e-09
2030.0 1.4712e-09
2050.0 1.4998e-09
2070.0 1.5264e-09
2090.0 1.5504e-09
2110.0 1.5737e-09
2130.0 1.5972e-09
2150.0 1.6198e-09
2170.0 1.6407e-09
2190.0 1.6622e-09
2210.0 1.6964e-09
2230.0 1.7455e-09
2250.0 1.7959e-09
2270.0 1.8487e-09
2290.0 1.9018e-09
2310.0 1.9547e-09
2330.0 2.0091e-09
2350.0 2.0642e-09
2370.0 2.1184e-09
2390.0 2.1729e-09
2410.0 2.2286e-09
2430.0 2.2833e-09
2450.0 2.3375e-09
2470.0 2.3937e-09
2490.0 2.4539e-09
2510.0 2.518e-09
2530.0 2.5938e-09
2550.0 2.691e-09
2570.0 2.8164e-09
2590.0 2.9791e-09
2610.0 3.2101e-09
2630.0 3.5189e-09
2650.0 3.9014e-09
2670.0 4.3807e-09
2690.0 4.9707e-09
2710.0 5.6274e-09
2730.0 6.3264e-09
2750.0 7.0901e-09
2770.0 7.8508e-09
2790.0 8.5533e-09
2810.0 9.2048e-09
2830.0 9.8042e-09
2850.0 1.0287e-08
2870.0 1.0694e-08
2890.0 1.1058e-08
2910.0 1.1381e-08
2930.0 1.1669e-08
2950.0 1.1959e-08
2970.0 1.2254e-08
2990.0 1.2546e-08
3010.0 1.2847e-08
3030.0 1.317e-08
3050.0 1.3509e-08
3070.0 1.3849e-08
3090.0 1.4214e-08
3110.0 1.4608e-08
3130.0 1.5035e-08
3150.0 1.5429e-08
3170.0 1.5998e-08
3190.0 1.6767e-08
3210.0 1.7821e-08
3230.0 1.9316e-08
3250.0 2.1466e-08
3270.0 2.3856e-08
3290.0 2.708e-08
3310.0 3.2545e-08
3330.0 3.4513e-08
3350.0 3.5582e-08
3370.0 3.6632e-08
3390.0 3.7691e-08
3410.0 3.8715e-08
3430.0 3.9709e-08
3450.0 4.0693e-08
3470.0 4.1678e-08
3490.0 4.256e-08
3510.0 4.3071e-08
3530.0 4.2372e-08
3550.0 4.1264e-08
3570.0 4.2338e-08
3590.0 4.6239e-08
3610.0 5.0856e-08
3630.0 5.4152e-08
3650.0 5.2521e-08
3670.0 4.7627e-08
3690.0 4.4101e-08
3710.0 4.3868e-08
3730.0 4.531e-08
3750.0 4.6175e-08
3770.0 4.7729e-08
3790.0 4.9441e-08
3810.0 4.9332e-08
3830.0 4.5881e-08
3850.0 4.2376e-08
3870.0 4.0644e-08
3890.0 4.0704e-08
3910.0 4.021e-08
3930.0 3.9779e-08
3950.0 4.1072e-08
3970.0 4.2574e-08
3990.0 4.2769e-08
4010.0 4.1548e-08
4030.0 3.9285e-08
4050.0 3.7714e-08
4070.0 3.6389e-08
4090.0 3.5495e-08
4110.0 3.4431e-08
4130.0 3.2473e-08
4150.0 3.0368e-08
4170.0 2.9111e-08
4190.0 2.7373e-08
4210.0 2.4713e-08
4230.0 2.2077e-08
4250.0 1.947e-08
4270.0 1.7396e-08
4290.0 1.6145e-08
4310.0 1.5425e-08
4330.0 1.538e-08
4350.0 1.5875e-08
4370.0 1.602e-08
4390.0 1.6871e-08
4410.0 1.7439e-08
4430.0 1.7111e-08
4450.0 1.5428e-08
4470.0 1.3828e-08
4490.0 1.3084e-08
4510.0 1.2525e-08
4530.0 1.2219e-08
4550.0 1.1928e-08
4570.0 1.185e-08
4590.0 1.2019e-08
4610.0 1.2144e-08
4630.0 1.2215e-08
4650.0 1.215e-08
4670.0 1.1861e-08
4690.0 1.1035e-08
4710.0 1.0278e-08
4730.0 9.6896e-09
4750.0 9.3472e-09
4770.0 9.4574e-09
4790.0 9.413e-09
4810.0 9.2177e-09
4830.0 9.3559e-09
4850.0 9.5969e-09
4870.0 9.7279e-09
4890.0 9.5716e-09
4910.0 9.2416e-09
4930.0 8.6887e-09
4950.0 8.0459e-09
4970.0 7.5026e-09
4990.0 7.0566e-09
5010.0 6.9863e-09
5030.0 7.2148e-09
5050.0 7.3833e-09
5070.0 7.6666e-09
5090.0 8.126e-09
5110.0 8.2344e-09
5130.0 8.315e-09
5150.0 8.4411e-09
5170.0 8.5657e-09
5190.0 8.7838e-09
5210.0 8.8167e-09
5230.0 8.7412e-09
5250.0 8.7702e-09
5270.0 8.8604e-09
5290.0 8.8694e-09
5310.0 8.8144e-09
5330.0 8.6342e-09
5350.0 8.5735e-09
5370.0 8.4687e-09
5390.0 8.3237e-09
5410.0 8.2439e-09
5430.0 8.2015e-09
5450.0 8.37e-09
5470.0 8.5274e-09
5490.0 8.938e-09
5510.0 9.1908e-09
5530.0 9.3146e-09
5550.0 9.3945e-09
5570.0 9.5295e-09
5590.0 9.4923e-09
5610.0 9.4379e-09
5630.0 9.4448e-09
5650.0 9.3545e-09
5670.0 9.1531e-09
5690.0 8.9464e-09
5710.0 8.8123e-09
5730.0 8.9626e-09
5750.0 8.6057e-09
5770.0 8.1437e-09
5790.0 7.6678e-09
5810.0 6.8754e-09
5830.0 7.2885e-09
5850.0 7.8106e-09
5870.0 7.8683e-09
5890.0 7.8994e-09
5910.0 8.0861e-09
5930.0 8.024e-09
5950.0 7.951e-09
5970.0 7.8696e-09
5990.0 7.8277e-09
6010.0 7.5674e-09
6030.0 7.3526e-09
6050.0 7.2278e-09
6070.0 7.0898e-09
6090.0 7.0547e-09
6110.0 6.8705e-09
6130.0 6.5951e-09
6150.0 6.3578e-09
6170.0 6.1375e-09
6190.0 5.7012e-09
6210.0 5.5316e-09
6230.0 5.51e-09
6250.0 5.3926e-09
6270.0 5.2817e-09
6290.0 5.3128e-09
6310.0 5.3708e-09
6330.0 5.2775e-09
6350.0 5.0984e-09
6370.0 5.0407e-09
6390.0 4.8489e-09
6410.0 4.7607e-09
6430.0 4.593e-09
6450.0 4.5264e-09
6470.0 4.4666e-09
6490.0 4.4233e-09
6510.0 4.2626e-09
6530.0 4.1841e-09
6550.0 4.0943e-09
6570.0 3.9833e-09
6590.0 4.0328e-09
6610.0 4.0159e-09
6630.0 3.9027e-09
6650.0 3.7531e-09
6670.0 3.6873e-09
6690.0 3.6156e-09
6710.0 3.5103e-09
6730.0 3.4614e-09
6750.0 3.4881e-09
6770.0 3.6188e-09
6790.0 3.8057e-09
6810.0 3.6636e-09
6830.0 3.3903e-09
6850.0 3.2094e-09
6870.0 3.1629e-09
6890.0 3.1553e-09
6910.0 3.1576e-09
6930.0 3.143e-09
6950.0 3.1725e-09
6970.0 3.0892e-09
6990.0 3.0618e-09
7010.0 3.0994e-09
7030.0 3.1489e-09
7050.0 3.1067e-09
7070.0 2.9798e-09
7090.0 2.9114e-09
7110.0 2.9893e-09
7130.0 2.9967e-09
7150.0 3.0272e-09
7170.0 3.041e-09
7190.0 3.0746e-09
7210.0 3.1475e-09
7230.0 3.2583e-09
7250.0 3.2917e-09
7270.0 3.333e-09
7290.0 3.4196e-09
7310.0 3.4149e-09
7330.0 3.3735e-09
7350.0 3.2898e-09
7370.0 3.3068e-09
7390.0 3.3746e-09
7410.0 3.2753e-09
7430.0 3.3328e-09
7450.0 3.3467e-09
7470.0 3.4622e-09
7490.0 3.4612e-09
7510.0 3.37e-09
7530.0 3.45e-09
7550.0 3.3973e-09
7570.0 3.4024e-09
7590.0 3.2553e-09
7610.0 3.3268e-09
7630.0 3.4443e-09
7650.0 3.568e-09
7670.0 3.4583e-09
7690.0 3.6428e-09
7710.0 3.7428e-09
7730.0 3.8106e-09
7750.0 3.9765e-09
7770.0 3.9389e-09
7790.0 3.9045e-09
7810.0 4.044e-09
7830.0 4.2659e-09
7850.0 4.2563e-09
7870.0 4.4317e-09
7890.0 4.4044e-09
7910.0 4.3768e-09
7930.0 4.3754e-09
7950.0 4.6015e-09
7970.0 4.5794e-09
7990.0 4.2778e-09
8010.0 2.9539e-09
8030.0 3.115e-09
8050.0 3.2383e-09
8070.0 2.8184e-09
8090.0 1.3831e-09
8110.0 1.5739e-09
8130.0 2.7076e-09
8150.0 2.9095e-09
8170.0 3.012e-09
8190.0 3.0012e-09
8210.0 3.0497e-09
8230.0 3.4507e-09
8250.0 3.5888e-09
8270.0 3.2468e-09
8290.0 3.0459e-09
8310.0 3.0763e-09
8330.0 3.4381e-09
8350.0 3.6073e-09
8370.0 3.461e-09
8390.0 3.281e-09
8410.0 3.2927e-09
8430.0 3.0517e-09
8450.0 3.228e-09
8470.0 3.5158e-09
8490.0 3.5262e-09
8510.0 3.2803e-09
8530.0 2.9383e-09
8550.0 2.7703e-09
8570.0 2.6802e-09
8590.0 2.7527e-09
8610.0 3.0217e-09
8630.0 3.0409e-09
8650.0 3.1042e-09
8670.0 2.946e-09
8690.0 2.8829e-09
8710.0 2.5855e-09
8730.0 2.5297e-09
8750.0 2.7337e-09
8770.0 2.8182e-09
8790.0 2.6814e-09
8810.0 2.7938e-09
8830.0 2.9206e-09
8850.0 3.0227e-09
8870.0 2.8106e-09
8890.0 2.7081e-09
8910.0 2.6576e-09
8930.0 2.3568e-09
8950.0 2.3654e-09
8970.0 2.4127e-09
8990.0 2.2936e-09
9010.0 2.1636e-09
9030.0 2.1098e-09
9050.0 2.0886e-09
9070.0 2.0695e-09
9090.0 2.0503e-09
9110.0 2.031e-09
9130.0 2.0115e-09
9150.0 1.9922e-09
9170.0 1.9727e-09
9190.0 1.9533e-09
9210.0 1.9338e-09
9230.0 1.9143e-09
9250.0 1.8949e-09
9270.0 1.8755e-09
9290.0 1.8561e-09
9310.0 1.8359e-09
9330.0 1.8143e-09
9350.0 1.7928e-09
9370.0 1.7715e-09
9390.0 1.7503e-09
9410.0 1.7293e-09
9430.0 1.7084e-09
9450.0 1.6877e-09
9470.0 1.6668e-09
9490.0 1.6463e-09
9510.0 1.6265e-09
9530.0 1.6068e-09
9550.0 1.5872e-09
9570.0 1.5678e-09
9590.0 1.5487e-09
9610.0 1.528e-09
9630.0 1.5074e-09
9650.0 1.487e-09
9670.0 1.4671e-09
9690.0 1.4473e-09
9710.0 1.4278e-09
9730.0 1.4087e-09
9750.0 1.3898e-09
9770.0 1.371e-09
9790.0 1.3527e-09
9810.0 1.3347e-09
9830.0 1.3168e-09
9850.0 1.2999e-09
9870.0 1.2838e-09
9890.0 1.2661e-09
9910.0 1.249e-09
9930.0 1.2325e-09
9950.0 1.2163e-09
9970.0 1.2002e-09
9990.0 1.1845e-09
10010.0 1.1691e-09
10030.0 1.154e-09
10050.0 1.1391e-09
10070.0 1.1245e-09
10090.0 1.1102e-09
10110.0 1.0961e-09
10130.0 1.0823e-09
10150.0 1.0687e-09
10170.0 1.0554e-09
10190.0 1.0422e-09
10210.0 1.0294e-09
10230.0 1.0167e-09
10250.0 1.0043e-09
10270.0 9.9203e-10
10290.0 9.8005e-10
10310.0 9.6824e-10
10330.0 9.5663e-10
10350.0 9.4524e-10
10370.0 9.3406e-10
10390.0 9.229e-10
10410.0 9.1001e-10
10430.0 8.9671e-10
10450.0 8.8854e-10
10470.0 8.7929e-10
10490.0 8.6998e-10
10510.0 8.606e-10
10530.0 8.5087e-10
10550.0 8.4134e-10
10570.0 8.3211e-10
10590.0 8.2283e-10
10610.0 8.1359e-10
10630.0 8.0473e-10
10650.0 7.9599e-10
10670.0 7.8713e-10
10690.0 7.7854e-10
10710.0 7.7022e-10
10730.0 7.6186e-10
10750.0 7.5346e-10
10770.0 7.4554e-10
10790.0 7.3766e-10
10810.0 7.2972e-10
10830.0 7.22e-10
10850.0 7.1457e-10
10870.0 7.0693e-10
10890.0 6.9943e-10
10910.0 6.9228e-10
10930.0 6.8524e-10
10950.0 6.7819e-10
10970.0 6.7149e-10
10990.0 6.6519e-10
11010.0 1.4008e-09
11030.0 1.3908e-09
11050.0 1.3805e-09
11070.0 1.3697e-09
11090.0 1.3582e-09
11110.0 1.3468e-09
11130.0 1.3354e-09
11150.0 1.3234e-09
11170.0 1.3114e-09
11190.0 1.2996e-09
11210.0 1.2876e-09
11230.0 1.2753e-09
11250.0 1.2634e-09
11270.0 1.2517e-09
11290.0 1.2399e-09
11310.0 1.2284e-09
11330.0 1.2177e-09
11350.0 1.2072e-09
11370.0 1.197e-09
11390.0 1.1874e-09
11410.0 1.1784e-09
11430.0 1.1694e-09
11450.0 1.1608e-09
11470.0 1.1528e-09
11490.0 1.1449e-09
11510.0 1.1369e-09
11530.0 1.1293e-09
11550.0 1.1218e-09
11570.0 1.1141e-09
11590.0 1.1063e-09
11610.0 1.0987e-09
11630.0 1.0907e-09
11650.0 1.0825e-09
11670.0 1.0744e-09
11690.0 1.0662e-09
11710.0 1.0576e-09
11730.0 1.049e-09
11750.0 1.0406e-09
11770.0 1.0319e-09
11790.0 1.023e-09
11810.0 1.0144e-09
11830.0 1.0059e-09
11850.0 9.9709e-10
11870.0 9.8865e-10
11890.0 9.8062e-10
11910.0 9.726e-10
11930.0 9.648e-10
11950.0 9.5754e-10
11970.0 9.5055e-10
11990.0 9.4371e-10
12010.0 9.374e-10
12030.0 9.3159e-10
12050.0 9.2605e-10
12070.0 9.2083e-10
12090.0 9.1624e-10
12110.0 9.1196e-10
12130.0 9.0794e-10
12150.0 9.0431e-10
12170.0 9.01e-10
12190.0 8.9779e-10
12210.0 8.9477e-10
12230.0 8.919e-10
12250.0 8.8903e-10
12270.0 8.8605e-10
12290.0 8.8299e-10
12310.0 8.7981e-10
12330.0 8.7627e-10
12350.0 8.7243e-10
12370.0 8.6834e-10
12390.0 8.6384e-10
12410.0 8.5873e-10
12430.0 8.5343e-10
12450.0 8.4779e-10
12470.0 8.4161e-10
12490.0 8.3505e-10
12510.0 8.2843e-10
12530.0 8.2134e-10
12550.0 8.1382e-10
12570.0 8.0628e-10
12590.0 7.9865e-10
12610.0 7.9059e-10
12630.0 7.8243e-10
12650.0 7.7463e-10
12670.0 7.6662e-10
12690.0 7.5852e-10
12710.0 7.5075e-10
12730.0 7.4319e-10
12750.0 7.3542e-10
12770.0 7.2804e-10
12790.0 7.211e-10
12810.0 7.1429e-10
12830.0 7.0764e-10
12850.0 7.0159e-10
12870.0 6.9591e-10
12890.0 6.904e-10
12910.0 6.8537e-10
12930.0 6.8087e-10
12950.0 6.7663e-10
12970.0 6.7279e-10
12990.0 6.6956e-10
13010.0 6.6677e-10
13030.0 6.6435e-10
13050.0 6.6242e-10
13070.0 6.6092e-10
13090.0 6.5974e-10
13110.0 6.5887e-10
13130.0 6.5825e-10
13150.0 6.578e-10
13170.0 6.5742e-10
13190.0 6.5705e-10
13210.0 6.5661e-10
13230.0 6.5601e-10
13250.0 6.5518e-10
13270.0 6.5412e-10
13290.0 6.5276e-10
13310.0 6.51e-10
13330.0 6.4892e-10
13350.0 6.4654e-10
13370.0 6.4372e-10
13390.0 6.4047e-10
13410.0 6.3708e-10
13430.0 6.3331e-10
13450.0 6.291e-10
13470.0 6.247e-10
13490.0 6.2016e-10
13510.0 6.1508e-10
13530.0 6.0982e-10
13550.0 6.0456e-10
13570.0 5.9907e-10
13590.0 5.9326e-10
13610.0 5.8751e-10
13630.0 5.8182e-10
13650.0 5.758e-10
13670.0 5.6976e-10
13690.0 5.639e-10
13710.0 5.5792e-10
13730.0 5.5165e-10
13750.0 5.4576e-10
13770.0 5.3996e-10
13790.0 5.3404e-10
13810.0 5.2822e-10
13830.0 5.2276e-10
13850.0 5.1723e-10
13870.0 5.1173e-10
13890.0 5.0656e-10
13910.0 5.0158e-10
13930.0 4.9656e-10
13950.0 4.9174e-10
13970.0 4.8735e-10
13990.0 4.8298e-10
14010.0 4.7871e-10
14030.0 4.7477e-10
14050.0 4.7104e-10
14070.0 4.6727e-10
14090.0 4.638e-10
14110.0 4.6061e-10
14130.0 4.575e-10
14150.0 4.545e-10
14170.0 4.518e-10
14190.0 4.4923e-10
14210.0 4.467e-10
14230.0 4.4433e-10
14250.0 4.4214e-10
14270.0 4.3993e-10
14290.0 4.3776e-10
14310.0 4.3577e-10
14330.0 4.3382e-10
14350.0 4.3186e-10
14370.0 4.2999e-10
14390.0 4.2824e-10
14410.0 4.2645e-10
14430.0 4.2468e-10
14450.0 4.2303e-10
14470.0 4.214e-10
14490.0 4.1971e-10
14510.0 4.1812e-10
14530.0 4.1659e-10
14550.0 4.1501e-10
14570.0 4.1343e-10
14590.0 4.1191e-10
14610.0 4.1035e-10
14630.0 4.0871e-10
14650.0 4.0712e-10
14670.0 4.0553e-10
14690.0 4.0386e-10
14710.0 4.0214e-10
14730.0 4.005e-10
14750.0 3.9879e-10
14770.0 3.9699e-10
14790.0 3.952e-10
14810.0 3.9343e-10
14830.0 3.9148e-10
14850.0 3.8951e-10
14870.0 3.876e-10
14890.0 3.8562e-10
14910.0 3.8358e-10
14930.0 3.8165e-10
14950.0 3.7984e-10
14970.0 3.7806e-10
14990.0 3.7646e-10
15010.0 3.7509e-10
15030.0 3.7387e-10
15050.0 3.7275e-10
15070.0 3.7186e-10
15090.0 3.7107e-10
15110.0 3.703e-10
15130.0 3.6959e-10
15150.0 3.6893e-10
15170.0 3.6825e-10
15190.0 3.6756e-10
15210.0 3.6689e-10
15230.0 3.6623e-10
15250.0 3.6552e-10
15270.0 3.6482e-10
15290.0 3.6417e-10
15310.0 3.6347e-10
15330.0 3.6276e-10
15350.0 3.6208e-10
15370.0 3.614e-10
15390.0 3.6066e-10
15410.0 3.5995e-10
15430.0 3.5925e-10
15450.0 3.5853e-10
15470.0 3.5778e-10
15490.0 3.5707e-10
15510.0 3.5636e-10
15530.0 3.556e-10
15550.0 3.5486e-10
15570.0 3.5414e-10
15590.0 3.5338e-10
15610.0 3.5259e-10
15630.0 3.5185e-10
15650.0 3.511e-10
15670.0 3.5031e-10
15690.0 3.4954e-10
15710.0 3.4879e-10
15730.0 3.48e-10
15750.0 3.472e-10
15770.0 3.4642e-10
15790.0 3.4563e-10
15810.0 3.448e-10
15830.0 3.4399e-10
15850.0 3.432e-10
15870.0 3.4238e-10
15890.0 3.4155e-10
15910.0 3.4075e-10
15930.0 3.3992e-10
15950.0 3.3906e-10
15970.0 3.3822e-10
15990.0 3.374e-10
16010.0 3.3653e-10
16030.0 3.3566e-10
16050.0 3.3483e-10
16070.0 3.3397e-10
16090.0 3.3308e-10
16110.0 3.3222e-10
16130.0 3.3137e-10
16150.0 3.3046e-10
16170.0 3.2956e-10
16190.0 3.2869e-10
16210.0 3.278e-10
16230.0 3.2688e-10
16250.0 3.2599e-10
16270.0 3.2511e-10
16290.0 3.2418e-10
16310.0 3.2326e-10
16330.0 3.2236e-10
16350.0 3.2144e-10
16370.0 3.2048e-10
16390.0 3.1956e-10
16410.0 3.1865e-10
16430.0 3.177e-10
16450.0 3.1675e-10
16470.0 3.1584e-10
16490.0 3.1488e-10
16510.0 3.1391e-10
16530.0 3.1297e-10
16550.0 3.1203e-10
16570.0 3.1104e-10
16590.0 3.1007e-10
16610.0 3.0913e-10
16630.0 3.0816e-10
16650.0 3.0718e-10
16670.0 3.0622e-10
16690.0 3.0526e-10
16710.0 3.0425e-10
16730.0 3.0326e-10
16750.0 3.023e-10
16770.0 3.013e-10
16790.0 3.0029e-10
16810.0 2.9932e-10
16830.0 2.9834e-10
16850.0 2.9733e-10
16870.0 2.9633e-10
16890.0 2.9536e-10
16910.0 2.9434e-10
16930.0 2.9331e-10
16950.0 2.9233e-10
16970.0 2.9133e-10
16990.0 2.903e-10
17010.0 2.893e-10
17030.0 2.8832e-10
17050.0 2.8729e-10
17070.0 2.8626e-10
17090.0 2.8526e-10
17110.0 2.8426e-10
17130.0 2.8321e-10
17150.0 2.8219e-10
17170.0 2.812e-10
17190.0 2.8017e-10
17210.0 2.7914e-10
17230.0 2.7814e-10
17250.0 2.7712e-10
17270.0 2.7607e-10
17290.0 2.7505e-10
17310.0 2.7405e-10
17330.0 2.7301e-10
17350.0 2.7196e-10
17370.0 2.7097e-10
17390.0 2.6994e-10
17410.0 2.689e-10
17430.0 2.6789e-10
17450.0 2.6688e-10
17470.0 2.6583e-10
17490.0 2.6479e-10
17510.0 2.6378e-10
17530.0 2.6276e-10
17550.0 2.6171e-10
17570.0 2.607e-10
17590.0 2.5969e-10
17610.0 2.5865e-10
17630.0 2.5762e-10
17650.0 2.5662e-10
17670.0 2.5559e-10
17690.0 2.5453e-10
17710.0 2.5352e-10
17730.0 2.5252e-10
17750.0 2.5148e-10
17770.0 2.5045e-10
17790.0 2.4946e-10
17810.0 2.4843e-10
17830.0 2.4739e-10
17850.0 2.4638e-10
17870.0 2.4538e-10
17890.0 2.4433e-10
17910.0 2.4331e-10
17930.0 2.4232e-10
17950.0 2.413e-10
17970.0 2.4027e-10
17990.0 2.3928e-10
18010.0 2.3828e-10
18030.0 2.3724e-10
18050.0 2.3623e-10
18070.0 2.3523e-10
18090.0 2.3422e-10
18110.0 2.3319e-10
18130.0 2.3221e-10
18150.0 2.3121e-10
18170.0 2.3019e-10
18190.0 2.2919e-10
18210.0 2.2821e-10
18230.0 2.272e-10
18250.0 2.2617e-10
18270.0 2.252e-10
18290.0 2.2421e-10
18310.0 2.2319e-10
18330.0 2.222e-10
18350.0 2.2124e-10
18370.0 2.2023e-10
18390.0 2.1923e-10
18410.0 2.1826e-10
18430.0 2.1727e-10
18450.0 2.1626e-10
18470.0 2.1528e-10
18490.0 2.1432e-10
18510.0 2.1333e-10
18530.0 2.1234e-10
18550.0 2.1138e-10
18570.0 2.1041e-10
18590.0 2.094e-10
18610.0 2.0844e-10
18630.0 2.0748e-10
18650.0 2.0649e-10
18670.0 2.055e-10
18690.0 2.0457e-10
18710.0 2.036e-10
18730.0 2.0262e-10
18750.0 2.0166e-10
18770.0 2.0072e-10
18790.0 1.9973e-10
18810.0 1.9876e-10
18830.0 1.9782e-10
18850.0 1.9687e-10
18870.0 1.9589e-10
18890.0 1.9495e-10
18910.0 1.9402e-10
18930.0 1.9305e-10
18950.0 1.921e-10
18970.0 1.9117e-10
18990.0 1.9022e-10
19010.0 1.8924e-10
19030.0 1.8831e-10
19050.0 1.8738e-10
19070.0 1.8643e-10
19090.0 1.8549e-10
19110.0 1.8458e-10
19130.0 1.8363e-10
19150.0 1.8268e-10
19170.0 1.8176e-10
19190.0 1.8083e-10
19210.0 1.7988e-10
19230.0 1.7894e-10
19250.0 1.7804e-10
19270.0 1.7711e-10
19290.0 1.7617e-10
19310.0 1.7527e-10
19330.0 1.7436e-10
19350.0 1.734e-10
19370.0 1.7248e-10
19390.0 1.7158e-10
19410.0 1.7066e-10
19430.0 1.6972e-10
19450.0 1.6883e-10
19470.0 1.6793e-10
19490.0 1.6699e-10
19510.0 1.6609e-10
19530.0 1.652e-10
19550.0 1.6427e-10
19570.0 1.6334e-10
19590.0 1.6245e-10
19610.0 1.6155e-10
19630.0 1.6063e-10
19650.0 1.5974e-10
19670.0 1.5886e-10
19690.0 1.5794e-10
19710.0 1.5703e-10
19730.0 1.5615e-10
19750.0 1.5525e-10
19770.0 1.5432e-10
19790.0 1.5343e-10
19810.0 1.5256e-10
19830.0 1.5165e-10
19850.0 1.5076e-10
19870.0 1.499e-10
19890.0 1.4902e-10
19910.0 1.4813e-10
19930.0 1.4731e-10
19950.0 1.4653e-10
19970.0 1.4578e-10
19990.0 1.4512e-10
20010.0 1.4456e-10
20030.0 1.4406e-10
20050.0 1.4365e-10
20070.0 1.4332e-10
20090.0 1.4305e-10
20110.0 1.4281e-10
20130.0 1.4261e-10
20150.0 1.4243e-10
20170.0 1.4225e-10
20190.0 1.4208e-10
20210.0 1.4192e-10
20230.0 1.4175e-10
20250.0 1.4157e-10
20270.0 1.4139e-10
20290.0 1.4121e-10
20310.0 1.4101e-10
20330.0 1.4079e-10
20350.0 1.4058e-10
20370.0 1.4035e-10
20390.0 1.401e-10
20410.0 1.3985e-10
20430.0 1.396e-10
20450.0 1.3932e-10
20470.0 1.3904e-10
20490.0 1.3876e-10
20510.0 1.3848e-10
20530.0 1.3819e-10
20550.0 1.3791e-10
20570.0 1.3764e-10
20590.0 1.3737e-10
20610.0 1.371e-10
20630.0 1.3685e-10
20650.0 1.366e-10
20670.0 1.3634e-10
20690.0 1.3609e-10
20710.0 1.3585e-10
20730.0 1.3559e-10
20750.0 1.3532e-10
20770.0 1.3506e-10
20790.0 1.3477e-10
20810.0 1.3446e-10
20830.0 1.3413e-10
20850.0 1.3378e-10
20870.0 1.3339e-10
20890.0 1.3298e-10
20910.0 1.3255e-10
20930.0 1.321e-10
20950.0 1.3161e-10
20970.0 1.3112e-10
20990.0 1.3061e-10
21010.0 1.3007e-10
21030.0 1.2953e-10
21050.0 1.2899e-10
21070.0 1.2845e-10
21090.0 1.2788e-10
21110.0 1.2734e-10
21130.0 1.2681e-10
21150.0 1.2626e-10
21170.0 1.2572e-10
21190.0 1.252e-10
21210.0 1.2466e-10
21230.0 1.2411e-10
21250.0 1.2358e-10
21270.0 1.2305e-10
21290.0 1.2249e-10
21310.0 1.2192e-10
21330.0 1.2137e-10
21350.0 1.2078e-10
21370.0 1.2017e-10
21390.0 1.1969e-10
21410.0 1.192e-10
21430.0 1.1866e-10
21450.0 1.1813e-10
21470.0 1.1761e-10
21490.0 1.1706e-10
21510.0 1.1649e-10
21530.0 1.1593e-10
21550.0 1.1537e-10
21570.0 1.1477e-10
21590.0 1.1419e-10
21610.0 1.1362e-10
21630.0 1.1302e-10
21650.0 1.1241e-10
21670.0 1.1184e-10
21690.0 1.1126e-10
21710.0 1.1067e-10
21730.0 1.101e-10
21750.0 1.0954e-10
21770.0 1.0896e-10
21790.0 1.0838e-10
21810.0 1.0782e-10
21830.0 1.0726e-10
21850.0 1.0668e-10
21870.0 1.0612e-10
21890.0 1.0558e-10
21910.0 1.0502e-10
21930.0 1.0446e-10
21950.0 1.0393e-10
21970.0 1.034e-10
21990.0 1.0284e-10
22010.0 1.0233e-10
22030.0 1.0183e-10
22050.0 1.0134e-10
22070.0 1.0082e-10
22090.0 1.0028e-10
22110.0 9.9756e-11
22130.0 9.9236e-11
22150.0 9.8755e-11
22170.0 9.8302e-11
22190.0 9.7851e-11
22210.0 9.7426e-11
22230.0 9.7041e-11
22250.0 9.6665e-11
22270.0 9.6299e-11
22290.0 9.5959e-11
22310.0 9.5635e-11
22330.0 9.5305e-11
22350.0 9.4988e-11
22370.0 9.4686e-11
22390.0 9.438e-11
22410.0 9.4065e-11
22430.0 9.3765e-11
22450.0 9.3464e-11
22470.0 9.315e-11
22490.0 9.2836e-11
22510.0 9.2529e-11
22530.0 9.2207e-11
22550.0 9.1876e-11
22570.0 9.1557e-11
22590.0 9.1238e-11
22610.0 9.0909e-11
22630.0 9.0586e-11
