#lamb flux
1010.0 8.2197e-05
1030.0 0.0001015
1050.0 0.00012226
1070.0 0.00014376
1090.0 0.00016592
1110.0 0.00018533
1130.0 0.00020091
1150.0 0.00021077
1170.0 0.00021623
1190.0 0.00021699
1210.0 0.00023892
1230.0 0.00026188
1250.0 0.00028468
1270.0 0.00030694
1290.0 0.00033009
1310.0 0.00035282
1330.0 0.00037403
1350.0 0.00039456
1370.0 0.00041467
1390.0 0.00043302
1410.0 0.00044946
1430.0 0.00046542
1450.0 0.00048003
1470.0 0.00049274
1490.0 0.00050453
1510.0 0.00056906
1530.0 0.00065684
1550.0 0.00074637
1570.0 0.00082753
1590.0 0.00091008
1610.0 0.00099153
1630.0 0.0010733
1650.0 0.0011548
1670.0 0.0012333
1690.0 0.0013093
1710.0 0.0013842
1730.0 0.0014568
1750.0 0.0015246
1770.0 0.0015908
1790.0 0.0016553
1810.0 0.0017161
1830.0 0.0017738
1850.0 0.0018318
1870.0 0.0018866
1890.0 0.001938
1910.0 0.0019884
1930.0 0.0020382
1950.0 0.0020844
1970.0 0.0021285
1990.0 0.0021728
2010.0 0.002215
2030.0 0.0022544
2050.0 0.0022939
2070.0 0.0023333
2090.0 0.0023693
2110.0 0.0024042
2130.0 0.0024394
2150.0 0.0024731
2170.0 0.0025044
2190.0 0.0025366
2210.0 0.0025686
2230.0 0.0025986
2250.0 0.0026282
2270.0 0.0026595
2290.0 0.0026895
2310.0 0.002718
2330.0 0.0027479
2350.0 0.0027783
2370.0 0.0028074
2390.0 0.0028373
2410.0 0.0028695
2430.0 0.0029015
2450.0 0.0029349
2470.0 0.0029737
2490.0 0.0030215
2510.0 0.0030791
2530.0 0.0031571
2550.0 0.0032688
2570.0 0.0034211
2590.0 0.0036235
2610.0 0.0039131
2630.0 0.0042947
2650.0 0.0047567
2670.0 0.0053209
2690.0 0.0059953
2710.0 0.0067228
2730.0 0.0074755
2750.0 0.0082768
2770.0 0.0090572
2790.0 0.0097677
2810.0 0.01042
2830.0 0.011015
2850.0 0.011496
2870.0 0.011903
2890.0 0.012265
2910.0 0.012586
2930.0 0.012873
2950.0 0.013155
2970.0 0.013436
2990.0 0.01371
3010.0 0.013982
3030.0 0.01426
3050.0 0.014537
3070.0 0.014799
3090.0 0.015063
3110.0 0.015331
3130.0 0.015608
3150.0 0.015987
3170.0 0.016489
3190.0 0.01719
3210.0 0.018141
3230.0 0.019416
3250.0 0.020922
3270.0 0.022045
3290.0 0.02433
3310.0 0.030026
3330.0 0.031237
3350.0 0.03134
3370.0 0.031371
3390.0 0.031401
3410.0 0.031455
3430.0 0.031528
3450.0 0.031609
3470.0 0.03168
3490.0 0.031761
3510.0 0.031938
3530.0 0.031415
3550.0 0.030126
3570.0 0.029579
3590.0 0.030272
3610.0 0.032252
3630.0 0.031969
3650.0 0.030051
3670.0 0.027645
3690.0 0.02658
3710.0 0.027171
3730.0 0.027935
3750.0 0.028292
3770.0 0.029232
3790.0 0.030355
3810.0 0.029732
3830.0 0.027937
3850.0 0.026603
3870.0 0.026172
3890.0 0.025909
3910.0 0.025468
3930.0 0.025577
3950.0 0.026694
3970.0 0.028021
3990.0 0.029022
4010.0 0.028448
4030.0 0.027609
4050.0 0.027399
4070.0 0.027337
4090.0 0.027352
4110.0 0.027054
4130.0 0.026221
4150.0 0.025391
4170.0 0.025221
4190.0 0.024217
4210.0 0.022743
4230.0 0.02108
4250.0 0.019458
4270.0 0.018379
4290.0 0.017518
4310.0 0.017338
4330.0 0.017931
4350.0 0.018409
4370.0 0.019225
4390.0 0.020461
4410.0 0.021564
4430.0 0.02132
4450.0 0.020006
4470.0 0.018891
4490.0 0.01839
4510.0 0.018234
4530.0 0.018364
4550.0 0.018521
4570.0 0.018841
4590.0 0.019457
4610.0 0.02053
4630.0 0.021291
4650.0 0.021852
4670.0 0.021559
4690.0 0.020534
4710.0 0.019427
4730.0 0.01877
4750.0 0.018356
4770.0 0.018635
4790.0 0.018558
4810.0 0.018148
4830.0 0.01847
4850.0 0.018735
4870.0 0.019141
4890.0 0.018448
4910.0 0.017652
4930.0 0.016441
4950.0 0.015054
4970.0 0.013851
4990.0 0.012864
5010.0 0.012641
5030.0 0.012931
5050.0 0.012868
5070.0 0.013158
5090.0 0.013714
5110.0 0.013671
5130.0 0.013576
5150.0 0.013543
5170.0 0.013536
5190.0 0.013705
5210.0 0.013434
5230.0 0.013126
5250.0 0.012916
5270.0 0.012718
5290.0 0.01256
5310.0 0.012379
5330.0 0.011944
5350.0 0.011711
5370.0 0.011407
5390.0 0.011052
5410.0 0.010832
5430.0 0.010613
5450.0 0.01077
5470.0 0.010875
5490.0 0.010863
5510.0 0.011133
5530.0 0.011194
5550.0 0.011343
5570.0 0.011263
5590.0 0.010914
5610.0 0.010807
5630.0 0.010918
5650.0 0.010777
5670.0 0.010563
5690.0 0.010236
5710.0 0.010318
5730.0 0.010444
5750.0 0.01005
5770.0 0.0096202
5790.0 0.0088139
5810.0 0.0076908
5830.0 0.0084381
5850.0 0.009582
5870.0 0.009964
5890.0 0.010147
5910.0 0.010294
5930.0 0.010442
5950.0 0.010379
5970.0 0.010404
5990.0 0.01037
6010.0 0.010228
6030.0 0.010011
6050.0 0.010017
6070.0 0.0102
6090.0 0.010173
6110.0 0.0099672
6130.0 0.0098118
6150.0 0.0095602
6170.0 0.0092866
6190.0 0.0091063
6210.0 0.0089142
6230.0 0.0088921
6250.0 0.0088403
6270.0 0.0087919
6290.0 0.0088139
6310.0 0.0088306
6330.0 0.0087487
6350.0 0.0085888
6370.0 0.0085136
6390.0 0.0085002
6410.0 0.0083371
6430.0 0.0082265
6450.0 0.0081099
6470.0 0.0079944
6490.0 0.0079345
6510.0 0.0079126
6530.0 0.0077571
6550.0 0.0076372
6570.0 0.0075937
6590.0 0.0075901
6610.0 0.0075719
6630.0 0.0073376
6650.0 0.0071766
6670.0 0.0071321
6690.0 0.0070332
6710.0 0.006878
6730.0 0.0068273
6750.0 0.0068745
6770.0 0.007313
6790.0 0.0083112
6810.0 0.0078107
6830.0 0.0067404
6850.0 0.0064728
6870.0 0.0063361
6890.0 0.0063017
6910.0 0.0062775
6930.0 0.0062553
6950.0 0.0061668
6970.0 0.005961
6990.0 0.0058534
7010.0 0.0058828
7030.0 0.0058308
7050.0 0.0056835
7070.0 0.005615
7090.0 0.0056312
7110.0 0.0057109
7130.0 0.0056393
7150.0 0.005577
7170.0 0.0055366
7190.0 0.0055712
7210.0 0.0055077
7230.0 0.0054453
7250.0 0.0054484
7270.0 0.0054106
7290.0 0.0053992
7310.0 0.0054549
7330.0 0.0053434
7350.0 0.0051606
7370.0 0.0049793
7390.0 0.0048519
7410.0 0.004861
7430.0 0.0048412
7450.0 0.0047988
7470.0 0.0047552
7490.0 0.0046412
7510.0 0.0045466
7530.0 0.0045121
7550.0 0.0046923
7570.0 0.0046418
7590.0 0.0042708
7610.0 0.004125
7630.0 0.0043324
7650.0 0.004329
7670.0 0.0043697
7690.0 0.0045696
7710.0 0.0046191
7730.0 0.0045462
7750.0 0.004778
7770.0 0.0045226
7790.0 0.0043295
7810.0 0.0045803
7830.0 0.0046663
7850.0 0.0047879
7870.0 0.0047842
7890.0 0.004801
7910.0 0.0047142
7930.0 0.0047422
7950.0 0.0049553
7970.0 0.0048736
7990.0 0.0044546
8010.0 0.0044715
8030.0 0.0044142
8050.0 0.0043322
8070.0 0.004226
8090.0 0.0038387
8110.0 0.0038417
8130.0 0.0041677
8150.0 0.0043454
8170.0 0.0044042
8190.0 0.0045433
8210.0 0.0044406
8230.0 0.0043896
8250.0 0.0043831
8270.0 0.0043062
8290.0 0.0042193
8310.0 0.0040174
8330.0 0.0040065
8350.0 0.0040811
8370.0 0.0041089
8390.0 0.0040731
8410.0 0.0040178
8430.0 0.0039367
8450.0 0.0039188
8470.0 0.0040958
8490.0 0.0041356
8510.0 0.003953
8530.0 0.0038257
8550.0 0.0038006
8570.0 0.003671
8590.0 0.0036255
8610.0 0.0036896
8630.0 0.0037131
8650.0 0.0036913
8670.0 0.0036697
8690.0 0.00362
8710.0 0.0034672
8730.0 0.0034454
8750.0 0.0033728
8770.0 0.0033828
8790.0 0.0033708
8810.0 0.0032679
8830.0 0.0032722
8850.0 0.0033158
8870.0 0.0031565
8890.0 0.0030169
8910.0 0.0029266
8930.0 0.0028126
8950.0 0.0027187
8970.0 0.0026054
8990.0 0.0025603
9010.0 0.002459
9030.0 0.0024294
9050.0 0.0024149
9070.0 0.0024012
9090.0 0.0023873
9110.0 0.0023731
9130.0 0.0023589
9150.0 0.0023449
9170.0 0.0023307
9190.0 0.0023165
9210.0 0.0023021
9230.0 0.0022876
9250.0 0.0022731
9270.0 0.0022585
9290.0 0.0022439
9310.0 0.0022296
9330.0 0.0022158
9350.0 0.002202
9370.0 0.0021882
9390.0 0.0021743
9410.0 0.0021604
9430.0 0.0021465
9450.0 0.0021326
9470.0 0.0021201
9490.0 0.0021068
9510.0 0.0020922
9530.0 0.0020778
9550.0 0.0020637
9570.0 0.0020498
9590.0 0.0020359
9610.0 0.0020226
9630.0 0.0020094
9650.0 0.0019963
9670.0 0.0019832
9690.0 0.0019701
9710.0 0.0019572
9730.0 0.0019442
9750.0 0.0019314
9770.0 0.0019187
9790.0 0.001906
9810.0 0.0018933
9830.0 0.0018808
9850.0 0.0018672
9870.0 0.0018534
9890.0 0.0018422
9910.0 0.0018307
9930.0 0.0018172
9950.0 0.0018052
9970.0 0.0017942
9990.0 0.0017829
10010.0 0.0017717
10030.0 0.0017604
10050.0 0.0017489
10070.0 0.0017377
10090.0 0.0017265
10110.0 0.0017153
10130.0 0.0017042
10150.0 0.0016934
10170.0 0.0016826
10190.0 0.0016719
10210.0 0.0016614
10230.0 0.001651
10250.0 0.0016407
10270.0 0.0016305
10290.0 0.0016205
10310.0 0.0016106
10330.0 0.0016007
10350.0 0.001591
10370.0 0.0015815
10390.0 0.001572
10410.0 0.0015617
10430.0 0.0015514
10450.0 0.0015433
10470.0 0.0015348
10490.0 0.0015263
10510.0 0.0015179
10530.0 0.0015092
10550.0 0.0015008
10570.0 0.0014926
10590.0 0.0014844
10610.0 0.0014762
10630.0 0.0014683
10650.0 0.0014605
10670.0 0.0014526
10690.0 0.0014449
10710.0 0.0014375
10730.0 0.00143
10750.0 0.0014225
10770.0 0.0014155
10790.0 0.0014084
10810.0 0.0014014
10830.0 0.0013945
10850.0 0.0013879
10870.0 0.0013811
10890.0 0.0013744
10910.0 0.0013679
10930.0 0.0013615
10950.0 0.0013549
10970.0 0.0013484
10990.0 0.001342
11010.0 0.0013571
11030.0 0.0013502
11050.0 0.0013436
11070.0 0.0013368
11090.0 0.0013296
11110.0 0.0013227
11130.0 0.0013159
11150.0 0.0013086
11170.0 0.0013012
11190.0 0.0012941
11210.0 0.0012868
11230.0 0.0012791
11250.0 0.0012718
11270.0 0.0012647
11290.0 0.0012574
11310.0 0.0012504
11330.0 0.0012442
11350.0 0.0012382
11370.0 0.0012324
11390.0 0.0012272
11410.0 0.0012225
11430.0 0.0012178
11450.0 0.0012136
11470.0 0.0012098
11490.0 0.0012061
11510.0 0.0012022
11530.0 0.0011987
11550.0 0.0011952
11570.0 0.0011914
11590.0 0.0011875
11610.0 0.0011837
11630.0 0.0011795
11650.0 0.0011749
11670.0 0.0011704
11690.0 0.0011657
11710.0 0.0011605
11730.0 0.0011553
11750.0 0.0011503
11770.0 0.0011449
11790.0 0.0011393
11810.0 0.0011339
11830.0 0.0011286
11850.0 0.0011229
11870.0 0.0011176
11890.0 0.0011128
11910.0 0.0011078
11930.0 0.0011031
11950.0 0.0010989
11970.0 0.0010949
11990.0 0.001091
12010.0 0.0010876
12030.0 0.0010847
12050.0 0.001082
12070.0 0.0010795
12090.0 0.0010777
12110.0 0.0010761
12130.0 0.0010747
12150.0 0.0010736
12170.0 0.0010728
12190.0 0.001072
12210.0 0.0010712
12230.0 0.0010706
12250.0 0.0010698
12270.0 0.0010688
12290.0 0.0010676
12310.0 0.0010661
12330.0 0.0010641
12350.0 0.0010617
12370.0 0.0010589
12390.0 0.0010555
12410.0 0.0010512
12430.0 0.0010467
12450.0 0.0010418
12470.0 0.0010361
12490.0 0.0010299
12510.0 0.0010236
12530.0 0.0010167
12550.0 0.0010093
12570.0 0.0010019
12590.0 0.00099432
12610.0 0.00098621
12630.0 0.000978
12650.0 0.00097026
12670.0 0.00096226
12690.0 0.00095416
12710.0 0.00094648
12730.0 0.00093908
12750.0 0.00093144
12770.0 0.00092428
12790.0 0.00091767
12810.0 0.00091123
12830.0 0.00090499
12850.0 0.00089948
12870.0 0.0008944
12890.0 0.00088955
12910.0 0.00088524
12930.0 0.00088154
12950.0 0.00087815
12970.0 0.00087521
12990.0 0.00087293
13010.0 0.00087112
13030.0 0.00086972
13050.0 0.00086879
13070.0 0.0008683
13090.0 0.00086809
13110.0 0.00086814
13130.0 0.00086836
13150.0 0.00086863
13170.0 0.00086885
13190.0 0.0008689
13210.0 0.0008687
13230.0 0.00086811
13250.0 0.00086706
13270.0 0.00086555
13290.0 0.00086349
13310.0 0.00086074
13330.0 0.00085746
13350.0 0.00085368
13370.0 0.0008492
13390.0 0.00084406
13410.0 0.00083872
13430.0 0.00083282
13450.0 0.00082631
13470.0 0.00081955
13490.0 0.00081262
13510.0 0.00080493
13530.0 0.00079703
13550.0 0.00078916
13570.0 0.00078098
13590.0 0.00077236
13610.0 0.00076384
13630.0 0.00075542
13650.0 0.00074655
13670.0 0.00073766
13690.0 0.00072903
13710.0 0.00072027
13730.0 0.00071114
13750.0 0.00070257
13770.0 0.00069418
13790.0 0.00068566
13810.0 0.00067736
13830.0 0.00066958
13850.0 0.00066178
13870.0 0.00065408
13890.0 0.00064687
13910.0 0.00063995
13930.0 0.00063303
13950.0 0.0006264
13970.0 0.00062031
13990.0 0.00061427
14010.0 0.00060837
14030.0 0.00060286
14050.0 0.00059759
14070.0 0.00059227
14090.0 0.0005873
14110.0 0.00058264
14130.0 0.00057808
14150.0 0.00057362
14170.0 0.00056952
14190.0 0.00056557
14210.0 0.00056164
14230.0 0.0005579
14250.0 0.00055436
14270.0 0.0005508
14290.0 0.00054727
14310.0 0.00054395
14330.0 0.00054066
14350.0 0.00053734
14370.0 0.00053412
14390.0 0.00053101
14410.0 0.00052783
14430.0 0.00052467
14450.0 0.00052161
14470.0 0.00051857
14490.0 0.00051543
14510.0 0.00051239
14530.0 0.00050941
14550.0 0.00050636
14570.0 0.00050329
14590.0 0.00050031
14610.0 0.00049727
14630.0 0.00049413
14650.0 0.00049104
14670.0 0.00048797
14690.0 0.00048481
14710.0 0.00048159
14730.0 0.00047848
14750.0 0.00047529
14770.0 0.00047201
14790.0 0.00046877
14810.0 0.00046554
14830.0 0.00046213
14850.0 0.00045872
14870.0 0.00045538
14890.0 0.000452
14910.0 0.00044856
14930.0 0.00044527
14950.0 0.00044213
14970.0 0.00043903
14990.0 0.00043616
15010.0 0.00043356
15030.0 0.00043113
15050.0 0.00042884
15070.0 0.00042681
15090.0 0.0004249
15110.0 0.00042303
15130.0 0.00042122
15150.0 0.00041949
15170.0 0.00041774
15190.0 0.00041599
15210.0 0.00041428
15230.0 0.00041259
15250.0 0.00041086
15270.0 0.00040915
15290.0 0.0004075
15310.0 0.00040582
15330.0 0.00040414
15350.0 0.0004025
15370.0 0.00040087
15390.0 0.00039919
15410.0 0.00039755
15430.0 0.00039595
15450.0 0.00039433
15470.0 0.0003927
15490.0 0.00039112
15510.0 0.00038955
15530.0 0.00038796
15550.0 0.00038639
15570.0 0.00038486
15590.0 0.0003833
15610.0 0.00038173
15630.0 0.00038022
15650.0 0.00037872
15670.0 0.00037719
15690.0 0.00037569
15710.0 0.00037423
15730.0 0.00037274
15750.0 0.00037126
15770.0 0.00036982
15790.0 0.00036838
15810.0 0.00036691
15830.0 0.00036548
15850.0 0.00036409
15870.0 0.00036268
15890.0 0.00036127
15910.0 0.00035991
15930.0 0.00035854
15950.0 0.00035714
15970.0 0.00035579
15990.0 0.00035446
16010.0 0.00035311
16030.0 0.00035176
16050.0 0.00035047
16070.0 0.00034917
16090.0 0.00034786
16110.0 0.00034658
16130.0 0.00034533
16150.0 0.00034403
16170.0 0.00034276
16190.0 0.00034153
16210.0 0.00034029
16230.0 0.00033904
16250.0 0.00033783
16270.0 0.00033664
16290.0 0.00033542
16310.0 0.00033423
16330.0 0.00033306
16350.0 0.00033189
16370.0 0.00033068
16390.0 0.00032954
16410.0 0.00032841
16430.0 0.00032726
16450.0 0.00032612
16470.0 0.00032503
16490.0 0.00032391
16510.0 0.00032278
16530.0 0.00032169
16550.0 0.00032062
16570.0 0.00031951
16590.0 0.00031842
16610.0 0.00031739
16630.0 0.00031633
16650.0 0.00031526
16670.0 0.00031423
16690.0 0.00031322
16710.0 0.00031215
16730.0 0.00031113
16750.0 0.00031014
16770.0 0.00030912
16790.0 0.0003081
16810.0 0.00030713
16830.0 0.00030615
16850.0 0.00030515
16870.0 0.00030418
16890.0 0.00030324
16910.0 0.00030226
16930.0 0.00030128
16950.0 0.00030035
16970.0 0.00029942
16990.0 0.00029846
17010.0 0.00029753
17030.0 0.00029664
17050.0 0.0002957
17070.0 0.00029477
17090.0 0.00029388
17110.0 0.00029298
17130.0 0.00029205
17150.0 0.00029116
17170.0 0.0002903
17190.0 0.0002894
17210.0 0.00028851
17230.0 0.00028766
17250.0 0.0002868
17270.0 0.0002859
17290.0 0.00028505
17310.0 0.00028421
17330.0 0.00028334
17350.0 0.00028247
17370.0 0.00028165
17390.0 0.00028082
17410.0 0.00027996
17430.0 0.00027914
17450.0 0.00027833
17470.0 0.00027747
17490.0 0.00027664
17510.0 0.00027584
17530.0 0.00027502
17550.0 0.00027418
17570.0 0.00027339
17590.0 0.0002726
17610.0 0.00027178
17630.0 0.00027097
17650.0 0.00027019
17670.0 0.00026939
17690.0 0.00026855
17710.0 0.00026778
17730.0 0.00026701
17750.0 0.0002662
17770.0 0.00026541
17790.0 0.00026466
17810.0 0.00026387
17830.0 0.00026307
17850.0 0.0002623
17870.0 0.00026154
17890.0 0.00026074
17910.0 0.00025995
17930.0 0.00025921
17950.0 0.00025844
17970.0 0.00025765
17990.0 0.0002569
18010.0 0.00025615
18030.0 0.00025535
18050.0 0.00025459
18070.0 0.00025384
18090.0 0.00025307
18110.0 0.00025229
18130.0 0.00025155
18150.0 0.0002508
18170.0 0.00025002
18190.0 0.00024927
18210.0 0.00024853
18230.0 0.00024776
18250.0 0.00024697
18270.0 0.00024624
18290.0 0.00024549
18310.0 0.00024471
18330.0 0.00024396
18350.0 0.00024323
18370.0 0.00024246
18390.0 0.00024169
18410.0 0.00024095
18430.0 0.0002402
18450.0 0.0002394
18470.0 0.00023865
18490.0 0.00023792
18510.0 0.00023715
18530.0 0.00023638
18550.0 0.00023565
18570.0 0.00023489
18590.0 0.0002341
18610.0 0.00023335
18630.0 0.00023261
18650.0 0.00023183
18670.0 0.00023104
18690.0 0.00023031
18710.0 0.00022955
18730.0 0.00022877
18750.0 0.00022801
18770.0 0.00022727
18790.0 0.00022647
18810.0 0.00022569
18830.0 0.00022494
18850.0 0.00022417
18870.0 0.00022337
18890.0 0.00022262
18910.0 0.00022186
18930.0 0.00022106
18950.0 0.00022028
18970.0 0.00021953
18990.0 0.00021874
19010.0 0.00021792
19030.0 0.00021716
19050.0 0.00021639
19070.0 0.00021559
19090.0 0.0002148
19110.0 0.00021404
19130.0 0.00021324
19150.0 0.00021242
19170.0 0.00021165
19190.0 0.00021086
19210.0 0.00021004
19230.0 0.00020923
19250.0 0.00020846
19270.0 0.00020765
19290.0 0.00020683
19310.0 0.00020605
19330.0 0.00020526
19350.0 0.00020441
19370.0 0.0002036
19390.0 0.00020281
19410.0 0.00020198
19430.0 0.00020114
19450.0 0.00020035
19470.0 0.00019954
19490.0 0.0001987
19510.0 0.00019788
19530.0 0.00019708
19550.0 0.00019622
19570.0 0.00019537
19590.0 0.00019456
19610.0 0.00019373
19630.0 0.00019287
19650.0 0.00019205
19670.0 0.00019123
19690.0 0.00019037
19710.0 0.00018951
19730.0 0.00018868
19750.0 0.00018784
19770.0 0.00018695
19790.0 0.00018611
19810.0 0.00018528
19830.0 0.00018441
19850.0 0.00018354
19870.0 0.00018272
19890.0 0.00018187
19910.0 0.00018102
19930.0 0.00018023
19950.0 0.0001795
19970.0 0.00017881
19990.0 0.00017822
20010.0 0.00017775
20030.0 0.00017737
20050.0 0.00017708
20070.0 0.00017689
20090.0 0.00017677
20110.0 0.00017667
20130.0 0.00017662
20150.0 0.00017658
20170.0 0.00017655
20190.0 0.0001765
20210.0 0.00017646
20230.0 0.00017641
20250.0 0.00017633
20270.0 0.00017625
20290.0 0.00017616
20310.0 0.00017604
20330.0 0.0001759
20350.0 0.00017576
20370.0 0.00017561
20390.0 0.00017543
20410.0 0.00017525
20430.0 0.00017506
20450.0 0.00017485
20470.0 0.00017463
20490.0 0.00017442
20510.0 0.0001742
20530.0 0.00017398
20550.0 0.00017376
20570.0 0.00017357
20590.0 0.00017336
20610.0 0.00017317
20630.0 0.00017299
20650.0 0.00017281
20670.0 0.00017263
20690.0 0.00017245
20710.0 0.00017229
20730.0 0.0001721
20750.0 0.0001719
20770.0 0.00017171
20790.0 0.00017148
20810.0 0.00017122
20830.0 0.00017095
20850.0 0.00017065
20870.0 0.0001703
20890.0 0.00016992
20910.0 0.00016953
20930.0 0.0001691
20950.0 0.00016864
20970.0 0.00016816
20990.0 0.00016769
21010.0 0.00016716
21030.0 0.00016663
21050.0 0.00016612
21070.0 0.0001656
21090.0 0.00016505
21110.0 0.00016455
21130.0 0.00016405
21150.0 0.00016354
21170.0 0.00016304
21190.0 0.00016257
21210.0 0.00016208
21230.0 0.00016158
21250.0 0.00016111
21270.0 0.00016063
21290.0 0.00016012
21310.0 0.00015961
21330.0 0.00015912
21350.0 0.00015859
21370.0 0.00015804
21390.0 0.00015749
21410.0 0.00015692
21430.0 0.0001563
21450.0 0.00015568
21470.0 0.00015506
21490.0 0.00015441
21510.0 0.00015373
21530.0 0.00015307
21550.0 0.0001524
21570.0 0.00015168
21590.0 0.00015097
21610.0 0.00015028
21630.0 0.00014956
21650.0 0.00014881
21670.0 0.00014812
21690.0 0.00014742
21710.0 0.0001467
21730.0 0.000146
21750.0 0.00014532
21770.0 0.0001446
21790.0 0.00014389
21810.0 0.00014321
21830.0 0.00014253
21850.0 0.00014182
21870.0 0.00014113
21890.0 0.00014047
21910.0 0.00013977
21930.0 0.00013908
21950.0 0.00013843
21970.0 0.00013777
21990.0 0.00013708
22010.0 0.00013645
22030.0 0.00013585
22050.0 0.00013523
22070.0 0.00013465
22090.0 0.00013412
22110.0 0.0001336
22130.0 0.0001331
22150.0 0.00013264
22170.0 0.00013223
22190.0 0.00013182
22210.0 0.00013144
22230.0 0.00013112
22250.0 0.00013081
22270.0 0.00013052
22290.0 0.00013026
22310.0 0.00013002
22330.0 0.00012978
22350.0 0.00012955
22370.0 0.00012934
22390.0 0.00012913
22410.0 0.00012891
22430.0 0.0001287
22450.0 0.0001285
22470.0 0.00012828
22490.0 0.00012806
22510.0 0.00012785
22530.0 0.00012762
22550.0 0.00012738
22570.0 0.00012715
22590.0 0.00012693
22610.0 0.0001267
22630.0 0.00012648
22650.0 0.00012628
22670.0 0.00012608
22690.0 0.00012588
22710.0 0.00012572
22730.0 0.00012558
22750.0 0.00012543
22770.0 0.00012532
22790.0 0.00012524
22810.0 0.00012518
22830.0 0.00012514
22850.0 0.00012514
22870.0 0.00012516
22890.0 0.00012519
22910.0 0.00012525
22930.0 0.00012534
22950.0 0.00012544
22970.0 0.00012556
22990.0 0.00012571
23010.0 0.00012587
23030.0 0.00012605
23050.0 0.00012624
23070.0 0.00012646
23090.0 0.00012668
23110.0 0.00012693
23130.0 0.0001272
23150.0 0.00012749
23170.0 0.00012782
23190.0 0.00012818
23210.0 0.00012856
23230.0 0.00012899
23250.0 0.00012945
23270.0 0.00012995
23290.0 0.00013048
23310.0 0.00013105
23330.0 0.00013165
23350.0 0.00013227
