#lamb flux
1010.0 3.2214e-05
1030.0 3.5844e-05
1050.0 4.076e-05
1070.0 4.8113e-05
1090.0 5.7757e-05
1110.0 6.8106e-05
1130.0 7.8924e-05
1150.0 9.0504e-05
1170.0 0.00010251
1190.0 0.00011372
1210.0 0.00012455
1230.0 0.00013485
1250.0 0.00014439
1270.0 0.00015214
1290.0 0.00015864
1310.0 0.00016316
1330.0 0.00016529
1350.0 0.00016557
1370.0 0.00016426
1390.0 0.00016112
1410.0 0.00015642
1430.0 0.00015096
1450.0 0.00014469
1470.0 0.00013775
1490.0 0.00013064
1510.0 0.00012375
1530.0 0.00011679
1550.0 0.00011011
1570.0 0.00010399
1590.0 9.8367e-05
1610.0 9.3455e-05
1630.0 9.0357e-05
1650.0 8.8128e-05
1670.0 8.6701e-05
1690.0 8.618e-05
1710.0 8.6724e-05
1730.0 8.8301e-05
1750.0 9.0806e-05
1770.0 9.4506e-05
1790.0 9.9444e-05
1810.0 0.00010556
1830.0 0.00011293
1850.0 0.00012183
1870.0 0.00013209
1890.0 0.00014369
1910.0 0.00015682
1930.0 0.00017148
1950.0 0.00018739
1970.0 0.00020458
1990.0 0.00022316
2010.0 0.00024277
2030.0 0.00026314
2050.0 0.00028437
2070.0 0.00030627
2090.0 0.00032813
2110.0 0.00035
2130.0 0.00037184
2150.0 0.00039315
2170.0 0.00041352
2190.0 0.00043332
2210.0 0.0004522
2230.0 0.00046974
2250.0 0.00048611
2270.0 0.00050167
2290.0 0.00051589
2310.0 0.00052874
2330.0 0.00054091
2350.0 0.0005524
2370.0 0.00056304
2390.0 0.00057358
2410.0 0.00058484
2430.0 0.00059672
2450.0 0.00060985
2470.0 0.00062558
2490.0 0.00064459
2510.0 0.00066604
2530.0 0.00069197
2550.0 0.00072454
2570.0 0.00076459
2590.0 0.0008143
2610.0 0.00088235
2630.0 0.00096974
2650.0 0.0010733
2670.0 0.0011962
2690.0 0.0013368
2710.0 0.0014807
2730.0 0.0016219
2750.0 0.0017653
2770.0 0.001903
2790.0 0.002034
2810.0 0.0021678
2830.0 0.0023131
2850.0 0.0024606
2870.0 0.0026168
2890.0 0.0027875
2910.0 0.0029673
2930.0 0.0031491
2950.0 0.0033433
2970.0 0.0035481
2990.0 0.0037547
3010.0 0.0039665
3030.0 0.004191
3050.0 0.0044213
3070.0 0.0046458
3090.0 0.0048743
3110.0 0.0050975
3130.0 0.0052999
3150.0 0.0054767
3170.0 0.0056219
3190.0 0.005727
3210.0 0.0058033
3230.0 0.0058569
3250.0 0.005887
3270.0 0.0059088
3290.0 0.0059354
3310.0 0.005976
3330.0 0.0060319
3350.0 0.0060986
3370.0 0.0061709
3390.0 0.0061947
3410.0 0.0062338
3430.0 0.0064221
3450.0 0.0065551
3470.0 0.0065809
3490.0 0.0068313
3510.0 0.0078356
3530.0 0.0096471
3550.0 0.010927
3570.0 0.011949
3590.0 0.013449
3610.0 0.013404
3630.0 0.012353
3650.0 0.012972
3670.0 0.015307
3690.0 0.017175
3710.0 0.017802
3730.0 0.017947
3750.0 0.019169
3770.0 0.019274
3790.0 0.018363
3810.0 0.017311
3830.0 0.01641
3850.0 0.016519
3870.0 0.017251
3890.0 0.017778
3910.0 0.01804
3930.0 0.018051
3950.0 0.019318
3970.0 0.020812
3990.0 0.020235
4010.0 0.018052
4030.0 0.016265
4050.0 0.016129
4070.0 0.016858
4090.0 0.01671
4110.0 0.016081
4130.0 0.015991
4150.0 0.016737
4170.0 0.018497
4190.0 0.019433
4210.0 0.018308
4230.0 0.016843
4250.0 0.01594
4270.0 0.015375
4290.0 0.015476
4310.0 0.01589
4330.0 0.01512
4350.0 0.0134
4370.0 0.011953
4390.0 0.010947
4410.0 0.010394
4430.0 0.010691
4450.0 0.011764
4470.0 0.01292
4490.0 0.013817
4510.0 0.015288
4530.0 0.017968
4550.0 0.02078
4570.0 0.022498
4590.0 0.023975
4610.0 0.025267
4630.0 0.025483
4650.0 0.023649
4670.0 0.020587
4690.0 0.018195
4710.0 0.017396
4730.0 0.016621
4750.0 0.014628
4770.0 0.013083
4790.0 0.013481
4810.0 0.014613
4830.0 0.014287
4850.0 0.012697
4870.0 0.012989
4890.0 0.013322
4910.0 0.013513
4930.0 0.013294
4950.0 0.013044
4970.0 0.012467
4990.0 0.011515
5010.0 0.01084
5030.0 0.010652
5050.0 0.010595
5070.0 0.010577
5090.0 0.010562
5110.0 0.010549
5130.0 0.010763
5150.0 0.011296
5170.0 0.012297
5190.0 0.013617
5210.0 0.014681
5230.0 0.015316
5250.0 0.015671
5270.0 0.016178
5290.0 0.016576
5310.0 0.016489
5330.0 0.015916
5350.0 0.015354
5370.0 0.015373
5390.0 0.015773
5410.0 0.016066
5430.0 0.015934
5450.0 0.015703
5470.0 0.015354
5490.0 0.015
5510.0 0.014868
5530.0 0.01494
5550.0 0.015095
5570.0 0.015151
5590.0 0.014747
5610.0 0.014007
5630.0 0.013317
5650.0 0.012696
5670.0 0.012264
5690.0 0.011771
5710.0 0.011483
5730.0 0.011535
5750.0 0.011415
5770.0 0.011211
5790.0 0.011314
5810.0 0.011642
5830.0 0.011894
5850.0 0.011964
5870.0 0.011666
5890.0 0.011198
5910.0 0.010782
5930.0 0.010239
5950.0 0.0097804
5970.0 0.0098331
5990.0 0.010071
6010.0 0.010065
6030.0 0.0097204
6050.0 0.0096576
6070.0 0.0099936
6090.0 0.010336
6110.0 0.010308
6130.0 0.0097935
6150.0 0.0091194
6170.0 0.0087463
6190.0 0.0085438
6210.0 0.008365
6230.0 0.0081978
6250.0 0.0081922
6270.0 0.0084251
6290.0 0.0087624
6310.0 0.0091429
6330.0 0.0095437
6350.0 0.0097877
6370.0 0.0098169
6390.0 0.0097617
6410.0 0.0098399
6430.0 0.0099635
6450.0 0.0099587
6470.0 0.0099791
6490.0 0.010037
6510.0 0.010034
6530.0 0.0099126
6550.0 0.0096608
6570.0 0.0093532
6590.0 0.0090839
6610.0 0.0088734
6630.0 0.0087002
6650.0 0.0084174
6670.0 0.0081047
6690.0 0.0078629
6710.0 0.0077243
6730.0 0.0076469
6750.0 0.0075727
6770.0 0.0074723
6790.0 0.007337
6810.0 0.0072057
6830.0 0.0071638
6850.0 0.0071268
6870.0 0.0070659
6890.0 0.0070555
6910.0 0.0069603
6930.0 0.006844
6950.0 0.0068279
6970.0 0.0067675
6990.0 0.0066268
7010.0 0.0065186
7030.0 0.0064024
7050.0 0.0062803
7070.0 0.0061311
7090.0 0.0060004
7110.0 0.0060874
7130.0 0.0062603
7150.0 0.0063965
7170.0 0.0064792
7190.0 0.0064685
7210.0 0.0063857
7230.0 0.0062817
7250.0 0.0062167
7270.0 0.0061071
7290.0 0.0060165
7310.0 0.0059664
7330.0 0.0060284
7350.0 0.0060458
7370.0 0.0060264
7390.0 0.005971
7410.0 0.0058784
7430.0 0.0058186
7450.0 0.0057577
7470.0 0.0055832
7490.0 0.0053963
7510.0 0.0051703
7530.0 0.0049888
7550.0 0.0048925
7570.0 0.0049587
7590.0 0.0049271
7610.0 0.004873
7630.0 0.004824
7650.0 0.0048485
7670.0 0.0049495
7690.0 0.0051513
7710.0 0.0052898
7730.0 0.0054873
7750.0 0.005612
7770.0 0.0057134
7790.0 0.0057236
7810.0 0.0056143
7830.0 0.0056316
7850.0 0.0055796
7870.0 0.00544
7890.0 0.0052568
7910.0 0.0051007
7930.0 0.0049834
7950.0 0.0049119
7970.0 0.0049143
7990.0 0.0049539
8010.0 0.0049404
8030.0 0.0048885
8050.0 0.0047989
8070.0 0.0047116
8090.0 0.0046155
8110.0 0.0046331
8130.0 0.0046741
8150.0 0.0046824
8170.0 0.0046435
8190.0 0.0045819
8210.0 0.0044023
8230.0 0.0041186
8250.0 0.0039441
8270.0 0.003843
8290.0 0.0037943
8310.0 0.0038116
8330.0 0.0038978
8350.0 0.0038295
8370.0 0.0037464
8390.0 0.0037983
8410.0 0.0039178
8430.0 0.00412
8450.0 0.0043053
8470.0 0.0043546
8490.0 0.0043949
8510.0 0.0043717
8530.0 0.004346
8550.0 0.0043793
8570.0 0.0043846
8590.0 0.0043715
8610.0 0.0044915
8630.0 0.0045254
8650.0 0.0044273
8670.0 0.0044187
8690.0 0.0044354
8710.0 0.0043745
8730.0 0.0043372
8750.0 0.0042048
8770.0 0.004149
8790.0 0.0041044
8810.0 0.0040638
8830.0 0.0038865
8850.0 0.0036071
8870.0 0.003391
8890.0 0.0032721
8910.0 0.0030719
8930.0 0.0028601
8950.0 0.0027846
8970.0 0.0027643
8990.0 0.0027674
9010.0 0.0027464
9030.0 0.0027268
9050.0 0.0027087
9070.0 0.0026911
9090.0 0.0026736
9110.0 0.0026561
9130.0 0.0026386
9150.0 0.0026212
9170.0 0.0026038
9190.0 0.0025864
9210.0 0.002569
9230.0 0.0025517
9250.0 0.0025345
9270.0 0.0025173
9290.0 0.0025001
9310.0 0.002483
9330.0 0.002466
9350.0 0.002449
9370.0 0.002432
9390.0 0.0024152
9410.0 0.0023983
9430.0 0.0023816
9450.0 0.0023646
9470.0 0.0023482
9490.0 0.002332
9510.0 0.0023155
9530.0 0.0022991
9550.0 0.0022828
9570.0 0.0022666
9590.0 0.0022505
9610.0 0.0022344
9630.0 0.0022185
9650.0 0.0022026
9670.0 0.0021869
9690.0 0.0021712
9710.0 0.0021556
9730.0 0.0021402
9750.0 0.0021248
9770.0 0.0021095
9790.0 0.0020942
9810.0 0.0020791
9830.0 0.0020637
9850.0 0.0020461
9870.0 0.0020318
9890.0 0.002018
9910.0 0.0020041
9930.0 0.0019892
9950.0 0.0019751
9970.0 0.0019611
9990.0 0.0019467
10010.0 0.0019308
10030.0 0.0019161
10050.0 0.0019031
10070.0 0.00189
10090.0 0.0018768
10110.0 0.0018629
10130.0 0.0018475
10150.0 0.0018344
10170.0 0.0018216
10190.0 0.0018083
10210.0 0.0017954
10230.0 0.0017825
10250.0 0.0017693
10270.0 0.0017561
10290.0 0.0017434
10310.0 0.0017304
10330.0 0.0017171
10350.0 0.0017043
10370.0 0.0016917
10390.0 0.0016788
10410.0 0.001666
10430.0 0.0016538
10450.0 0.0016412
10470.0 0.0016285
10490.0 0.0016163
10510.0 0.0016041
10530.0 0.0015914
10550.0 0.001579
10570.0 0.0015671
10590.0 0.0015549
10610.0 0.0015426
10630.0 0.0015307
10650.0 0.0015189
10670.0 0.0015066
10690.0 0.0014946
10710.0 0.0014829
10730.0 0.001471
10750.0 0.0014587
10770.0 0.0014472
10790.0 0.0014356
10810.0 0.0014236
10830.0 0.0014119
10850.0 0.0014006
10870.0 0.0013888
10890.0 0.001377
10910.0 0.0013658
10930.0 0.0013546
10950.0 0.0013433
10970.0 0.0013326
10990.0 0.0013226
11010.0 0.0013114
11030.0 0.0013026
11050.0 0.0012943
11070.0 0.0012862
11090.0 0.0012776
11110.0 0.0012694
11130.0 0.0012612
11150.0 0.0012526
11170.0 0.0012439
11190.0 0.0012354
11210.0 0.0012267
11230.0 0.0012177
11250.0 0.0012091
11270.0 0.0012007
11290.0 0.0011922
11310.0 0.0011839
11330.0 0.0011764
11350.0 0.0011689
11370.0 0.0011615
11390.0 0.0011547
11410.0 0.0011481
11430.0 0.0011415
11450.0 0.0011351
11470.0 0.001129
11490.0 0.0011227
11510.0 0.0011162
11530.0 0.0011099
11550.0 0.0011035
11570.0 0.0010966
11590.0 0.0010895
11610.0 0.0010823
11630.0 0.0010747
11650.0 0.0010666
11670.0 0.0010586
11690.0 0.0010505
11710.0 0.001042
11730.0 0.0010336
11750.0 0.0010255
11770.0 0.0010171
11790.0 0.0010088
11810.0 0.0010009
11830.0 0.00099324
11850.0 0.00098543
11870.0 0.00097812
11890.0 0.00097132
11910.0 0.0009646
11930.0 0.0009581
11950.0 0.00095217
11970.0 0.00094651
11990.0 0.00094096
12010.0 0.00093594
12030.0 0.00093142
12050.0 0.00092717
12070.0 0.00092332
12090.0 0.00092017
12110.0 0.00091746
12130.0 0.0009152
12150.0 0.00091354
12170.0 0.00091245
12190.0 0.00091185
12210.0 0.00091182
12230.0 0.00091233
12250.0 0.00091333
12270.0 0.00091484
12290.0 0.00091676
12310.0 0.00091896
12330.0 0.00092156
12350.0 0.00092439
12370.0 0.00092727
12390.0 0.00093025
12410.0 0.00093332
12430.0 0.00093611
12450.0 0.00093864
12470.0 0.00094091
12490.0 0.00094272
12510.0 0.00094398
12530.0 0.00094467
12550.0 0.00094465
12570.0 0.00094389
12590.0 0.00094239
12610.0 0.00093995
12630.0 0.00093662
12650.0 0.0009327
12670.0 0.00092788
12690.0 0.00092219
12710.0 0.00091603
12730.0 0.00090938
12750.0 0.0009018
12770.0 0.00089397
12790.0 0.00088609
12810.0 0.00087779
12830.0 0.00086912
12850.0 0.00086082
12870.0 0.00085257
12890.0 0.00084405
12910.0 0.00083576
12930.0 0.00082788
12950.0 0.00081981
12970.0 0.00081174
12990.0 0.00080423
13010.0 0.00079687
13030.0 0.00078943
13050.0 0.00078231
13070.0 0.00077565
13090.0 0.00076893
13110.0 0.0007624
13130.0 0.00075637
13150.0 0.00075061
13170.0 0.00074487
13190.0 0.00073967
13210.0 0.00073496
13230.0 0.0007304
13250.0 0.00072611
13270.0 0.00072227
13290.0 0.00071861
13310.0 0.00071498
13330.0 0.00071162
13350.0 0.00070842
13370.0 0.00070515
13390.0 0.00070181
13410.0 0.00069864
13430.0 0.00069534
13450.0 0.00069183
13470.0 0.0006883
13490.0 0.00068475
13510.0 0.00068081
13530.0 0.00067679
13550.0 0.00067282
13570.0 0.00066866
13590.0 0.00066426
13610.0 0.00065992
13630.0 0.00065561
13650.0 0.00065103
13670.0 0.00064641
13690.0 0.00064191
13710.0 0.00063729
13730.0 0.00063237
13750.0 0.00062771
13770.0 0.00062304
13790.0 0.00061816
13810.0 0.00061325
13830.0 0.0006085
13850.0 0.00060352
13870.0 0.00059834
13890.0 0.00059325
13910.0 0.00058812
13930.0 0.00058265
13950.0 0.00057709
13970.0 0.00057172
13990.0 0.00056607
14010.0 0.00056021
14030.0 0.00055447
14050.0 0.00054871
14070.0 0.00054257
14090.0 0.00053659
14110.0 0.0005308
14130.0 0.00052493
14150.0 0.00051903
14170.0 0.00051356
14190.0 0.00050824
14210.0 0.00050292
14230.0 0.0004979
14250.0 0.00049324
14270.0 0.00048858
14290.0 0.00048404
14310.0 0.00047989
14330.0 0.00047586
14350.0 0.00047183
14370.0 0.00046798
14390.0 0.00046434
14410.0 0.00046063
14430.0 0.00045697
14450.0 0.00045351
14470.0 0.00045012
14490.0 0.00044667
14510.0 0.00044344
14530.0 0.00044042
14550.0 0.00043741
14570.0 0.00043451
14590.0 0.00043184
14610.0 0.00042924
14630.0 0.00042666
14650.0 0.00042427
14670.0 0.00042203
14690.0 0.00041981
14710.0 0.00041766
14730.0 0.00041574
14750.0 0.00041389
14770.0 0.00041212
14790.0 0.00041054
14810.0 0.00040915
14830.0 0.00040786
14850.0 0.00040681
14870.0 0.00040599
14890.0 0.00040537
14910.0 0.00040494
14930.0 0.0004047
14950.0 0.00040457
14970.0 0.00040449
14990.0 0.00040441
15010.0 0.00040427
15030.0 0.00040402
15050.0 0.00040365
15070.0 0.00040319
15090.0 0.00040264
15110.0 0.00040202
15130.0 0.00040136
15150.0 0.00040069
15170.0 0.00039999
15190.0 0.00039927
15210.0 0.00039857
15230.0 0.00039787
15250.0 0.00039715
15270.0 0.00039643
15290.0 0.00039573
15310.0 0.00039502
15330.0 0.0003943
15350.0 0.0003936
15370.0 0.00039289
15390.0 0.00039216
15410.0 0.00039144
15430.0 0.00039074
15450.0 0.00039003
15470.0 0.0003893
15490.0 0.0003886
15510.0 0.0003879
15530.0 0.00038718
15550.0 0.00038647
15570.0 0.00038578
15590.0 0.00038506
15610.0 0.00038434
15630.0 0.00038365
15650.0 0.00038295
15670.0 0.00038224
15690.0 0.00038154
15710.0 0.00038086
15730.0 0.00038016
15750.0 0.00037946
15770.0 0.00037878
15790.0 0.0003781
15810.0 0.00037739
15830.0 0.00037671
15850.0 0.00037604
15870.0 0.00037536
15890.0 0.00037468
15910.0 0.00037402
15930.0 0.00037335
15950.0 0.00037267
15970.0 0.00037201
15990.0 0.00037136
16010.0 0.00037069
16030.0 0.00037002
16050.0 0.00036938
16070.0 0.00036874
16090.0 0.00036808
16110.0 0.00036745
16130.0 0.00036682
16150.0 0.00036617
16170.0 0.00036553
16190.0 0.00036491
16210.0 0.00036429
16230.0 0.00036365
16250.0 0.00036304
16270.0 0.00036244
16290.0 0.00036182
16310.0 0.00036121
16330.0 0.00036062
16350.0 0.00036002
16370.0 0.00035939
16390.0 0.00035881
16410.0 0.00035823
16430.0 0.00035763
16450.0 0.00035705
16470.0 0.00035648
16490.0 0.0003559
16510.0 0.00035531
16530.0 0.00035475
16550.0 0.00035419
16570.0 0.00035361
16590.0 0.00035304
16610.0 0.0003525
16630.0 0.00035194
16650.0 0.00035138
16670.0 0.00035084
16690.0 0.00035031
16710.0 0.00034974
16730.0 0.0003492
16750.0 0.00034867
16770.0 0.00034813
16790.0 0.00034758
16810.0 0.00034706
16830.0 0.00034654
16850.0 0.000346
16870.0 0.00034548
16890.0 0.00034497
16910.0 0.00034444
16930.0 0.0003439
16950.0 0.00034339
16970.0 0.00034288
16990.0 0.00034235
17010.0 0.00034184
17030.0 0.00034134
17050.0 0.00034082
17070.0 0.0003403
17090.0 0.0003398
17110.0 0.0003393
17130.0 0.00033877
17150.0 0.00033826
17170.0 0.00033777
17190.0 0.00033726
17210.0 0.00033674
17230.0 0.00033625
17250.0 0.00033574
17270.0 0.00033522
17290.0 0.00033471
17310.0 0.00033421
17330.0 0.0003337
17350.0 0.00033317
17370.0 0.00033268
17390.0 0.00033217
17410.0 0.00033165
17430.0 0.00033114
17450.0 0.00033064
17470.0 0.0003301
17490.0 0.00032957
17510.0 0.00032907
17530.0 0.00032854
17550.0 0.00032801
17570.0 0.00032749
17590.0 0.00032697
17610.0 0.00032643
17630.0 0.00032589
17650.0 0.00032537
17670.0 0.00032483
17690.0 0.00032426
17710.0 0.00032373
17730.0 0.00032319
17750.0 0.00032263
17770.0 0.00032208
17790.0 0.00032154
17810.0 0.00032097
17830.0 0.00032039
17850.0 0.00031983
17870.0 0.00031927
17890.0 0.00031868
17910.0 0.00031809
17930.0 0.00031752
17950.0 0.00031693
17970.0 0.00031633
17990.0 0.00031575
18010.0 0.00031515
18030.0 0.00031452
18050.0 0.00031391
18070.0 0.00031331
18090.0 0.00031268
18110.0 0.00031205
18130.0 0.00031143
18150.0 0.0003108
18170.0 0.00031015
18190.0 0.00030951
18210.0 0.00030887
18230.0 0.0003082
18250.0 0.00030752
18270.0 0.00030687
18290.0 0.0003062
18310.0 0.00030551
18330.0 0.00030483
18350.0 0.00030416
18370.0 0.00030346
18390.0 0.00030275
18410.0 0.00030205
18430.0 0.00030134
18450.0 0.00030061
18470.0 0.00029989
18490.0 0.00029917
18510.0 0.00029843
18530.0 0.00029769
18550.0 0.00029696
18570.0 0.0002962
18590.0 0.00029543
18610.0 0.00029467
18630.0 0.00029391
18650.0 0.00029312
18670.0 0.00029233
18690.0 0.00029156
18710.0 0.00029077
18730.0 0.00028996
18750.0 0.00028916
18770.0 0.00028837
18790.0 0.00028753
18810.0 0.0002867
18830.0 0.00028589
18850.0 0.00028506
18870.0 0.00028421
18890.0 0.00028337
18910.0 0.00028253
18930.0 0.00028167
18950.0 0.00028081
18970.0 0.00027995
18990.0 0.00027908
19010.0 0.00027818
19030.0 0.00027731
19050.0 0.00027643
19070.0 0.00027553
19090.0 0.00027464
19110.0 0.00027376
19130.0 0.00027284
19150.0 0.00027192
19170.0 0.00027101
19190.0 0.0002701
19210.0 0.00026916
19230.0 0.00026823
19250.0 0.00026731
19270.0 0.00026637
19290.0 0.00026542
19310.0 0.00026449
19330.0 0.00026355
19350.0 0.00026258
19370.0 0.00026162
19390.0 0.00026067
19410.0 0.0002597
19430.0 0.00025873
19450.0 0.00025777
19470.0 0.0002568
19490.0 0.00025582
19510.0 0.00025484
19530.0 0.00025387
19550.0 0.00025287
19570.0 0.00025187
19590.0 0.0002509
19610.0 0.00024991
19630.0 0.0002489
19650.0 0.00024791
19670.0 0.00024693
19690.0 0.00024592
19710.0 0.00024491
19730.0 0.00024392
19750.0 0.00024291
19770.0 0.00024189
19790.0 0.00024089
19810.0 0.00023989
19830.0 0.00023887
19850.0 0.00023784
19870.0 0.00023683
19890.0 0.00023577
19910.0 0.00023465
19930.0 0.00023348
19950.0 0.0002322
19970.0 0.00023073
19990.0 0.00022906
20010.0 0.00022722
20030.0 0.0002251
20050.0 0.00022272
20070.0 0.0002202
20090.0 0.00021755
20110.0 0.00021465
20130.0 0.00021176
20150.0 0.00020892
20170.0 0.00020602
20190.0 0.00020311
20210.0 0.00020036
20230.0 0.00019767
20250.0 0.00019496
20270.0 0.0001924
20290.0 0.00019
20310.0 0.00018764
20330.0 0.00018534
20350.0 0.00018328
20370.0 0.00018131
20390.0 0.00017941
20410.0 0.00017765
20430.0 0.00017605
20450.0 0.00017449
20470.0 0.00017304
20490.0 0.00017173
20510.0 0.00017051
20530.0 0.00016936
20550.0 0.00016831
20570.0 0.00016737
20590.0 0.00016648
20610.0 0.00016567
20630.0 0.00016493
20650.0 0.00016424
20670.0 0.00016359
20690.0 0.000163
20710.0 0.00016244
20730.0 0.0001619
20750.0 0.00016137
20770.0 0.00016084
20790.0 0.0001603
20810.0 0.00015974
20830.0 0.00015915
20850.0 0.00015853
20870.0 0.00015784
20890.0 0.00015709
20910.0 0.00015631
20930.0 0.00015544
20950.0 0.0001545
20970.0 0.0001535
20990.0 0.00015245
21010.0 0.0001513
21030.0 0.00015011
21050.0 0.00014889
21070.0 0.00014761
21090.0 0.00014625
21110.0 0.00014492
21130.0 0.00014358
21150.0 0.00014218
21170.0 0.00014079
21190.0 0.00013944
21210.0 0.00013806
21230.0 0.00013667
21250.0 0.00013535
21270.0 0.00013405
21290.0 0.00013274
21310.0 0.00013148
21330.0 0.0001303
21350.0 0.00012912
21370.0 0.00012796
21390.0 0.00012686
21410.0 0.00012581
21430.0 0.00012474
21450.0 0.00012373
21470.0 0.00012278
21490.0 0.00012182
21510.0 0.00012088
21530.0 0.00012
21550.0 0.00011912
21570.0 0.00011823
21590.0 0.00011738
21610.0 0.00011654
21630.0 0.0001157
21650.0 0.00011484
21670.0 0.00011404
21690.0 0.00011322
21710.0 0.00011239
21730.0 0.00011158
21750.0 0.00011079
21770.0 0.00010996
21790.0 0.00010913
21810.0 0.00010833
21830.0 0.00010752
21850.0 0.00010669
21870.0 0.00010587
21890.0 0.00010507
21910.0 0.00010424
21930.0 0.0001034
21950.0 0.00010259
21970.0 0.00010177
21990.0 0.0001009
22010.0 0.00010008
22030.0 9.9263e-05
22050.0 9.8427e-05
22070.0 9.7594e-05
22090.0 9.6806e-05
22110.0 9.6008e-05
22130.0 9.5202e-05
22150.0 9.4436e-05
22170.0 9.3698e-05
22190.0 9.2946e-05
22210.0 9.2222e-05
22230.0 9.1559e-05
22250.0 9.0905e-05
22270.0 9.0265e-05
22290.0 8.9675e-05
22310.0 8.9121e-05
22330.0 8.8563e-05
22350.0 8.8045e-05
22370.0 8.757e-05
22390.0 8.7106e-05
22410.0 8.6649e-05
22430.0 8.6238e-05
22450.0 8.5848e-05
22470.0 8.5456e-05
22490.0 8.5084e-05
22510.0 8.4741e-05
22530.0 8.4391e-05
22550.0 8.4044e-05
22570.0 8.3726e-05
22590.0 8.3418e-05
22610.0 8.3105e-05
22630.0 8.2809e-05
22650.0 8.2541e-05
22670.0 8.227e-05
22690.0 8.2008e-05
22710.0 8.1775e-05
22730.0 8.1558e-05
22750.0 8.1339e-05
22770.0 8.1155e-05
22790.0 8.1001e-05
22810.0 8.0861e-05
22830.0 8.0745e-05
22850.0 8.0668e-05
22870.0 8.0618e-05
22890.0 8.0594e-05
22910.0 8.0613e-05
22930.0 8.0674e-05
22950.0 8.0773e-05
22970.0 8.0917e-05
22990.0 8.1112e-05
23010.0 8.1354e-05
23030.0 8.1647e-05
23050.0 8.1988e-05
23070.0 8.2372e-05
23090.0 8.2814e-05
23110.0 8.3301e-05
23130.0 8.382e-05
23150.0 8.438e-05
23170.0 8.4986e-05
23190.0 8.5613e-05
23210.0 8.6256e-05
23230.0 8.6939e-05
23250.0 8.7642e-05
