#lamb flux
1010.0 9.7621e-05
1030.0 0.0001258
1050.0 0.00015864
1070.0 0.00019578
1090.0 0.00023768
1110.0 0.00027996
1130.0 0.00032105
1150.0 0.00036179
1170.0 0.00040061
1190.0 0.00043305
1210.0 0.00046127
1230.0 0.00048538
1250.0 0.00050281
1270.0 0.00051324
1290.0 0.00051969
1310.0 0.00052026
1330.0 0.00051422
1350.0 0.00050464
1370.0 0.00049505
1390.0 0.00048059
1410.0 0.00046221
1430.0 0.00044232
1450.0 0.00042067
1470.0 0.00039751
1490.0 0.00037431
1510.0 0.0003516
1530.0 0.00032826
1550.0 0.00030604
1570.0 0.00028562
1590.0 0.00026735
1610.0 0.00025212
1630.0 0.00023897
1650.0 0.00022772
1670.0 0.00021793
1690.0 0.00020971
1710.0 0.00020332
1730.0 0.00019831
1750.0 0.00019304
1770.0 0.00018906
1790.0 0.00018626
1810.0 0.00018438
1830.0 0.00018334
1850.0 0.00018113
1870.0 0.00018005
1890.0 0.00017971
1910.0 0.00018033
1930.0 0.00018197
1950.0 0.0001844
1970.0 0.00018785
1990.0 0.00019259
2010.0 0.00019856
2030.0 0.00020581
2050.0 0.00021479
2070.0 0.00022567
2090.0 0.00023832
2110.0 0.0002532
2130.0 0.0002707
2150.0 0.00029085
2170.0 0.00031375
2190.0 0.00034006
2210.0 0.00036985
2230.0 0.00040305
2250.0 0.00044001
2270.0 0.00048121
2290.0 0.00052621
2310.0 0.00057486
2330.0 0.0006277
2350.0 0.00068442
2370.0 0.00074428
2390.0 0.00080735
2410.0 0.00087353
2430.0 0.0009412
2450.0 0.0010095
2470.0 0.0010778
2490.0 0.0011447
2510.0 0.0012091
2530.0 0.0012719
2550.0 0.0013356
2570.0 0.001405
2590.0 0.001487
2610.0 0.0015969
2630.0 0.0017484
2650.0 0.001948
2670.0 0.002212
2690.0 0.0025549
2710.0 0.0029584
2730.0 0.0034091
2750.0 0.0039209
2770.0 0.0044526
2790.0 0.0049642
2810.0 0.0054554
2830.0 0.005921
2850.0 0.0063086
2870.0 0.0066419
2890.0 0.0069397
2910.0 0.0072008
2930.0 0.0074278
2950.0 0.0076463
2970.0 0.0078587
2990.0 0.0080574
3010.0 0.0082494
3030.0 0.0084446
3050.0 0.0086351
3070.0 0.008808
3090.0 0.0089768
3110.0 0.009133
3130.0 0.0092629
3150.0 0.0093673
3170.0 0.0094483
3190.0 0.0095004
3210.0 0.0095356
3230.0 0.009571
3250.0 0.0096228
3270.0 0.0097013
3290.0 0.009821
3310.0 0.0099955
3330.0 0.01021
3350.0 0.010448
3370.0 0.010712
3390.0 0.010987
3410.0 0.011242
3430.0 0.011475
3450.0 0.011662
3470.0 0.012259
3490.0 0.012228
3510.0 0.010919
3530.0 0.011404
3550.0 0.013522
3570.0 0.015146
3590.0 0.016615
3610.0 0.017747
3630.0 0.018512
3650.0 0.016736
3670.0 0.014892
3690.0 0.014766
3710.0 0.016269
3730.0 0.018548
3750.0 0.018492
3770.0 0.018571
3790.0 0.019258
3810.0 0.018101
3830.0 0.016017
3850.0 0.014406
3870.0 0.013733
3890.0 0.015353
3910.0 0.016693
3930.0 0.017158
3950.0 0.017456
3970.0 0.018081
3990.0 0.018982
4010.0 0.019095
4030.0 0.018011
4050.0 0.016348
4070.0 0.01621
4090.0 0.017147
4110.0 0.018178
4130.0 0.017707
4150.0 0.017231
4170.0 0.017046
4190.0 0.017801
4210.0 0.017635
4230.0 0.016276
4250.0 0.014538
4270.0 0.013105
4290.0 0.011947
4310.0 0.011104
4330.0 0.011013
4350.0 0.012016
4370.0 0.012349
4390.0 0.012746
4410.0 0.013262
4430.0 0.013482
4450.0 0.013225
4470.0 0.012903
4490.0 0.013363
4510.0 0.013687
4530.0 0.013991
4550.0 0.01424
4570.0 0.014363
4590.0 0.014759
4610.0 0.014961
4630.0 0.015407
4650.0 0.015943
4670.0 0.015517
4690.0 0.0145
4710.0 0.013216
4730.0 0.012666
4750.0 0.012503
4770.0 0.012093
4790.0 0.011577
4810.0 0.01114
4830.0 0.011461
4850.0 0.011857
4870.0 0.011061
4890.0 0.010749
4910.0 0.010159
4930.0 0.010345
4950.0 0.0095878
4970.0 0.0087394
4990.0 0.0085234
5010.0 0.0079507
5030.0 0.0074405
5050.0 0.0074879
5070.0 0.0080985
5090.0 0.0084022
5110.0 0.0093111
5130.0 0.0095948
5150.0 0.0099024
5170.0 0.01022
5190.0 0.010001
5210.0 0.010105
5230.0 0.010308
5250.0 0.010353
5270.0 0.010598
5290.0 0.010474
5310.0 0.010262
5330.0 0.0097257
5350.0 0.0092051
5370.0 0.0086401
5390.0 0.0087805
5410.0 0.0089225
5430.0 0.0089361
5450.0 0.0089939
5470.0 0.0088934
5490.0 0.008758
5510.0 0.0086411
5530.0 0.0084299
5550.0 0.0084314
5570.0 0.0085359
5590.0 0.0086538
5610.0 0.0086113
5630.0 0.0084217
5650.0 0.0083216
5670.0 0.008121
5690.0 0.0078868
5710.0 0.0076293
5730.0 0.007533
5750.0 0.0074937
5770.0 0.0073262
5790.0 0.0072471
5810.0 0.0071965
5830.0 0.0073449
5850.0 0.007454
5870.0 0.0074816
5890.0 0.0073783
5910.0 0.007368
5930.0 0.0073504
5950.0 0.0073507
5970.0 0.0072445
5990.0 0.0071156
6010.0 0.0072303
6030.0 0.0073031
6050.0 0.007152
6070.0 0.0071263
6090.0 0.0070833
6110.0 0.0071232
6130.0 0.0071212
6150.0 0.0069153
6170.0 0.006421
6190.0 0.0059349
6210.0 0.0056933
6230.0 0.0056098
6250.0 0.0056473
6270.0 0.0058464
6290.0 0.0060322
6310.0 0.0062789
6330.0 0.0064603
6350.0 0.0065423
6370.0 0.0065577
6390.0 0.0064193
6410.0 0.0062773
6430.0 0.0060856
6450.0 0.0059413
6470.0 0.0058687
6490.0 0.0058714
6510.0 0.0058565
6530.0 0.0058496
6550.0 0.0057379
6570.0 0.0056069
6590.0 0.0055739
6610.0 0.0054643
6630.0 0.0053652
6650.0 0.0052577
6670.0 0.0050965
6690.0 0.0049576
6710.0 0.0048176
6730.0 0.0047642
6750.0 0.0046876
6770.0 0.0046248
6790.0 0.0046385
6810.0 0.0045666
6830.0 0.0044966
6850.0 0.0044499
6870.0 0.0043553
6890.0 0.0043169
6910.0 0.0042826
6930.0 0.0042068
6950.0 0.0041944
6970.0 0.0041316
6990.0 0.004133
7010.0 0.0040701
7030.0 0.0040499
7050.0 0.0040094
7070.0 0.0039385
7090.0 0.0038523
7110.0 0.0037377
7130.0 0.0037313
7150.0 0.0037825
7170.0 0.0038201
7190.0 0.0038598
7210.0 0.0038986
7230.0 0.0039548
7250.0 0.0039687
7270.0 0.0039172
7290.0 0.0038841
7310.0 0.003799
7330.0 0.0036329
7350.0 0.0035789
7370.0 0.0035459
7390.0 0.0034884
7410.0 0.003493
7430.0 0.0034676
7450.0 0.0034135
7470.0 0.0033681
7490.0 0.0032878
7510.0 0.0031128
7530.0 0.0031563
7550.0 0.0031899
7570.0 0.0030901
7590.0 0.0028914
7610.0 0.0029334
7630.0 0.0029285
7650.0 0.0029246
7670.0 0.0029409
7690.0 0.0029678
7710.0 0.0029777
7730.0 0.0030744
7750.0 0.0031885
7770.0 0.0033225
7790.0 0.0034482
7810.0 0.0035483
7830.0 0.0036757
7850.0 0.0036887
7870.0 0.0037266
7890.0 0.0036774
7910.0 0.0035673
7930.0 0.0035011
7950.0 0.0034501
7970.0 0.0034225
7990.0 0.0034205
8010.0 0.0031113
8030.0 0.0030925
8050.0 0.0030308
8070.0 0.003002
8090.0 0.0029155
8110.0 0.0029378
8130.0 0.0029759
8150.0 0.0030287
8170.0 0.0029992
8190.0 0.0030465
8210.0 0.003006
8230.0 0.0028545
8250.0 0.0028063
8270.0 0.0027574
8290.0 0.0027106
8310.0 0.0026094
8330.0 0.0026402
8350.0 0.0026286
8370.0 0.0026326
8390.0 0.0026792
8410.0 0.0026639
8430.0 0.0026991
8450.0 0.0027318
8470.0 0.0027531
8490.0 0.0027871
8510.0 0.0027375
8530.0 0.0026401
8550.0 0.0026617
8570.0 0.0026636
8590.0 0.002582
8610.0 0.0026369
8630.0 0.0026002
8650.0 0.0025489
8670.0 0.0025319
8690.0 0.002527
8710.0 0.002424
8730.0 0.0024614
8750.0 0.0023789
8770.0 0.0023681
8790.0 0.0023013
8810.0 0.002273
8830.0 0.0022727
8850.0 0.0021717
8870.0 0.0020624
8890.0 0.0020358
8910.0 0.0019193
8930.0 0.0017723
8950.0 0.0017719
8970.0 0.0017105
8990.0 0.0016979
9010.0 0.0016826
9030.0 0.0016709
9050.0 0.0016591
9070.0 0.0016471
9090.0 0.0016351
9110.0 0.0016229
9130.0 0.0016107
9150.0 0.0015986
9170.0 0.0015865
9190.0 0.0015743
9210.0 0.0015621
9230.0 0.0015498
9250.0 0.0015376
9270.0 0.0015253
9290.0 0.001513
9310.0 0.0015008
9330.0 0.0014886
9350.0 0.0014764
9370.0 0.0014642
9390.0 0.001452
9410.0 0.0014399
9430.0 0.0014278
9450.0 0.0014157
9470.0 0.0014046
9490.0 0.001393
9510.0 0.0013806
9530.0 0.0013684
9550.0 0.0013564
9570.0 0.0013446
9590.0 0.0013328
9610.0 0.0013212
9630.0 0.0013097
9650.0 0.0012983
9670.0 0.0012869
9690.0 0.0012756
9710.0 0.0012644
9730.0 0.0012533
9750.0 0.0012423
9770.0 0.0012314
9790.0 0.0012206
9810.0 0.0012098
9830.0 0.001199
9850.0 0.0011868
9870.0 0.0011761
9890.0 0.0011666
9910.0 0.0011571
9930.0 0.0011454
9950.0 0.0011355
9970.0 0.0011264
9990.0 0.0011171
10010.0 0.0011078
10030.0 0.0010984
10050.0 0.001089
10070.0 0.0010798
10090.0 0.0010708
10110.0 0.0010616
10130.0 0.0010525
10150.0 0.0010437
10170.0 0.0010349
10190.0 0.0010262
10210.0 0.0010177
10230.0 0.0010093
10250.0 0.001001
10270.0 0.00099272
10290.0 0.00098474
10310.0 0.00097673
10330.0 0.0009687
10350.0 0.00096098
10370.0 0.00095339
10390.0 0.00094575
10410.0 0.00093817
10430.0 0.00093085
10450.0 0.00092371
10470.0 0.00091654
10490.0 0.00090961
10510.0 0.00090279
10530.0 0.00089582
10550.0 0.00088907
10570.0 0.00088257
10590.0 0.00087604
10610.0 0.00086954
10630.0 0.00086331
10650.0 0.00085715
10670.0 0.0008509
10690.0 0.00084485
10710.0 0.00083899
10730.0 0.0008331
10750.0 0.00082718
10770.0 0.00082161
10790.0 0.00081607
10810.0 0.00081048
10830.0 0.00080507
10850.0 0.00079988
10870.0 0.00079454
10890.0 0.00078931
10910.0 0.00078437
10930.0 0.00077953
10950.0 0.00077473
10970.0 0.00077021
10990.0 0.00076602
11010.0 0.00081388
11030.0 0.00081076
11050.0 0.00080771
11070.0 0.00080453
11090.0 0.00080098
11110.0 0.00079734
11130.0 0.00079351
11150.0 0.00078928
11170.0 0.00078481
11190.0 0.00078036
11210.0 0.00077566
11230.0 0.00077076
11250.0 0.00076599
11270.0 0.00076134
11290.0 0.00075659
11310.0 0.00075198
11330.0 0.00074783
11350.0 0.00074378
11370.0 0.00073987
11390.0 0.00073631
11410.0 0.00073302
11430.0 0.00072968
11450.0 0.00072656
11470.0 0.00072364
11490.0 0.00072066
11510.0 0.00071755
11530.0 0.00071454
11550.0 0.00071148
11570.0 0.00070813
11590.0 0.00070469
11610.0 0.00070128
11630.0 0.00069758
11650.0 0.00069365
11670.0 0.0006899
11690.0 0.00068611
11710.0 0.00068215
11730.0 0.00067827
11750.0 0.00067465
11770.0 0.0006709
11790.0 0.00066717
11810.0 0.00066368
11830.0 0.0006603
11850.0 0.00065675
11870.0 0.00065345
11890.0 0.00065042
11910.0 0.00064739
11930.0 0.00064446
11950.0 0.0006419
11970.0 0.00063952
11990.0 0.00063725
12010.0 0.00063539
12030.0 0.00063395
12050.0 0.00063278
12070.0 0.00063198
12090.0 0.00063173
12110.0 0.00063185
12130.0 0.00063234
12150.0 0.00063324
12170.0 0.00063449
12190.0 0.00063605
12210.0 0.0006379
12230.0 0.00063994
12250.0 0.00064215
12270.0 0.0006445
12290.0 0.00064688
12310.0 0.00064924
12330.0 0.0006516
12350.0 0.00065386
12370.0 0.00065598
12390.0 0.00065794
12410.0 0.00065968
12430.0 0.00066114
12450.0 0.00066231
12470.0 0.00066312
12490.0 0.00066351
12510.0 0.00066354
12530.0 0.00066307
12550.0 0.00066203
12570.0 0.00066057
12590.0 0.00065865
12610.0 0.00065606
12630.0 0.00065296
12650.0 0.00064964
12670.0 0.00064578
12690.0 0.00064142
12710.0 0.00063692
12730.0 0.00063222
12750.0 0.00062696
12770.0 0.00062168
12790.0 0.00061649
12810.0 0.00061113
12830.0 0.0006056
12850.0 0.00060046
12870.0 0.00059546
12890.0 0.0005904
12910.0 0.00058562
12930.0 0.00058124
12950.0 0.00057689
12970.0 0.00057269
12990.0 0.00056898
13010.0 0.00056548
13030.0 0.00056205
13050.0 0.00055889
13070.0 0.00055602
13090.0 0.00055315
13110.0 0.00055037
13130.0 0.00054781
13150.0 0.00054532
13170.0 0.00054276
13190.0 0.00054037
13210.0 0.00053812
13230.0 0.00053582
13250.0 0.00053353
13270.0 0.00053137
13290.0 0.00052917
13310.0 0.00052685
13330.0 0.00052456
13350.0 0.00052227
13370.0 0.0005198
13390.0 0.00051718
13410.0 0.0005146
13430.0 0.00051184
13450.0 0.00050886
13470.0 0.0005058
13490.0 0.0005027
13510.0 0.00049927
13530.0 0.00049574
13550.0 0.00049223
13570.0 0.00048857
13590.0 0.0004847
13610.0 0.00048086
13630.0 0.00047705
13650.0 0.000473
13670.0 0.0004689
13690.0 0.00046489
13710.0 0.00046076
13730.0 0.0004564
13750.0 0.00045222
13770.0 0.00044805
13790.0 0.00044373
13810.0 0.00043941
13830.0 0.00043525
13850.0 0.00043097
13870.0 0.00042663
13890.0 0.00042245
13910.0 0.00041833
13930.0 0.0004141
13950.0 0.00040994
13970.0 0.00040602
13990.0 0.00040205
14010.0 0.00039808
14030.0 0.00039428
14050.0 0.00039056
14070.0 0.00038671
14090.0 0.00038301
14110.0 0.00037942
14130.0 0.00037581
14150.0 0.00037216
14170.0 0.00036868
14190.0 0.00036523
14210.0 0.00036171
14230.0 0.00035827
14250.0 0.00035495
14270.0 0.00035157
14290.0 0.0003482
14310.0 0.00034502
14330.0 0.0003419
14350.0 0.00033878
14370.0 0.00033579
14390.0 0.00033296
14410.0 0.00033013
14430.0 0.00032738
14450.0 0.00032479
14470.0 0.00032226
14490.0 0.00031971
14510.0 0.0003173
14530.0 0.00031497
14550.0 0.00031264
14570.0 0.00031033
14590.0 0.0003081
14610.0 0.00030587
14630.0 0.0003036
14650.0 0.00030139
14670.0 0.00029922
14690.0 0.00029702
14710.0 0.00029482
14730.0 0.00029272
14750.0 0.00029061
14770.0 0.00028849
14790.0 0.00028644
14810.0 0.00028444
14830.0 0.0002824
14850.0 0.00028041
14870.0 0.00027848
14890.0 0.00027656
14910.0 0.00027464
14930.0 0.00027279
14950.0 0.000271
14970.0 0.00026921
14990.0 0.00026749
15010.0 0.00026586
15030.0 0.00026428
15050.0 0.00026272
15070.0 0.00026125
15090.0 0.00025982
15110.0 0.0002584
15130.0 0.000257
15150.0 0.00025563
15170.0 0.00025425
15190.0 0.00025287
15210.0 0.00025151
15230.0 0.00025017
15250.0 0.0002488
15270.0 0.00024744
15290.0 0.00024612
15310.0 0.00024479
15330.0 0.00024345
15350.0 0.00024213
15370.0 0.00024083
15390.0 0.0002395
15410.0 0.0002382
15430.0 0.00023691
15450.0 0.00023562
15470.0 0.00023433
15490.0 0.00023306
15510.0 0.00023181
15530.0 0.00023054
15550.0 0.00022929
15570.0 0.00022806
15590.0 0.00022682
15610.0 0.00022557
15630.0 0.00022436
15650.0 0.00022316
15670.0 0.00022194
15690.0 0.00022075
15710.0 0.00021958
15730.0 0.0002184
15750.0 0.00021722
15770.0 0.00021607
15790.0 0.00021492
15810.0 0.00021376
15830.0 0.00021263
15850.0 0.00021152
15870.0 0.00021039
15890.0 0.00020928
15910.0 0.0002082
15930.0 0.00020711
15950.0 0.00020601
15970.0 0.00020494
15990.0 0.00020389
16010.0 0.00020283
16030.0 0.00020177
16050.0 0.00020075
16070.0 0.00019973
16090.0 0.0001987
16110.0 0.0001977
16130.0 0.00019671
16150.0 0.0001957
16170.0 0.00019471
16190.0 0.00019375
16210.0 0.00019279
16230.0 0.00019182
16250.0 0.00019088
16270.0 0.00018996
16290.0 0.00018902
16310.0 0.0001881
16330.0 0.0001872
16350.0 0.0001863
16370.0 0.00018538
16390.0 0.00018451
16410.0 0.00018364
16430.0 0.00018276
16450.0 0.0001819
16470.0 0.00018107
16490.0 0.00018022
16510.0 0.00017938
16530.0 0.00017856
16550.0 0.00017775
16570.0 0.00017693
16590.0 0.00017612
16610.0 0.00017534
16630.0 0.00017455
16650.0 0.00017377
16670.0 0.00017301
16690.0 0.00017226
16710.0 0.00017149
16730.0 0.00017074
16750.0 0.00017001
16770.0 0.00016928
16790.0 0.00016854
16810.0 0.00016783
16830.0 0.00016713
16850.0 0.00016642
16870.0 0.00016573
16890.0 0.00016505
16910.0 0.00016436
16930.0 0.00016368
16950.0 0.00016302
16970.0 0.00016236
16990.0 0.0001617
17010.0 0.00016105
17030.0 0.00016043
17050.0 0.00015979
17070.0 0.00015915
17090.0 0.00015854
17110.0 0.00015792
17130.0 0.0001573
17150.0 0.0001567
17170.0 0.00015611
17190.0 0.00015551
17210.0 0.00015492
17230.0 0.00015435
17250.0 0.00015378
17270.0 0.00015319
17290.0 0.00015263
17310.0 0.00015208
17330.0 0.00015152
17350.0 0.00015096
17370.0 0.00015043
17390.0 0.00014989
17410.0 0.00014935
17430.0 0.00014882
17450.0 0.00014831
17470.0 0.00014777
17490.0 0.00014725
17510.0 0.00014675
17530.0 0.00014624
17550.0 0.00014573
17570.0 0.00014523
17590.0 0.00014475
17610.0 0.00014425
17630.0 0.00014376
17650.0 0.00014328
17670.0 0.0001428
17690.0 0.00014231
17710.0 0.00014184
17730.0 0.00014138
17750.0 0.0001409
17770.0 0.00014044
17790.0 0.00013999
17810.0 0.00013953
17830.0 0.00013906
17850.0 0.00013862
17870.0 0.00013817
17890.0 0.00013771
17910.0 0.00013727
17930.0 0.00013684
17950.0 0.0001364
17970.0 0.00013595
17990.0 0.00013553
18010.0 0.0001351
18030.0 0.00013465
18050.0 0.00013423
18070.0 0.00013381
18090.0 0.00013338
18110.0 0.00013295
18130.0 0.00013254
18150.0 0.00013212
18170.0 0.00013169
18190.0 0.00013128
18210.0 0.00013087
18230.0 0.00013045
18250.0 0.00013002
18270.0 0.00012962
18290.0 0.00012922
18310.0 0.0001288
18330.0 0.00012839
18350.0 0.00012799
18370.0 0.00012758
18390.0 0.00012716
18410.0 0.00012677
18430.0 0.00012636
18450.0 0.00012594
18470.0 0.00012554
18490.0 0.00012515
18510.0 0.00012473
18530.0 0.00012433
18550.0 0.00012394
18570.0 0.00012353
18590.0 0.00012311
18610.0 0.00012271
18630.0 0.00012231
18650.0 0.0001219
18670.0 0.00012149
18690.0 0.0001211
18710.0 0.00012069
18730.0 0.00012028
18750.0 0.00011988
18770.0 0.00011948
18790.0 0.00011905
18810.0 0.00011864
18830.0 0.00011824
18850.0 0.00011783
18870.0 0.00011741
18890.0 0.00011701
18910.0 0.0001166
18930.0 0.00011618
18950.0 0.00011576
18970.0 0.00011536
18990.0 0.00011494
19010.0 0.0001145
19030.0 0.00011409
19050.0 0.00011368
19070.0 0.00011325
19090.0 0.00011282
19110.0 0.00011241
19130.0 0.00011198
19150.0 0.00011154
19170.0 0.00011112
19190.0 0.00011069
19210.0 0.00011025
19230.0 0.00010981
19250.0 0.00010939
19270.0 0.00010895
19290.0 0.00010851
19310.0 0.00010808
19330.0 0.00010764
19350.0 0.00010718
19370.0 0.00010673
19390.0 0.00010629
19410.0 0.00010584
19430.0 0.00010538
19450.0 0.00010494
19470.0 0.00010449
19490.0 0.00010402
19510.0 0.00010356
19530.0 0.00010311
19550.0 0.00010264
19570.0 0.00010216
19590.0 0.00010171
19610.0 0.00010124
19630.0 0.00010076
19650.0 0.00010029
19670.0 9.9832e-05
19690.0 9.9344e-05
19710.0 9.886e-05
19730.0 9.8388e-05
19750.0 9.7907e-05
19770.0 9.7405e-05
19790.0 9.6923e-05
19810.0 9.6445e-05
19830.0 9.5948e-05
19850.0 9.5452e-05
19870.0 9.4972e-05
19890.0 9.4475e-05
19910.0 9.3966e-05
19930.0 9.3477e-05
19950.0 9.2995e-05
19970.0 9.2501e-05
19990.0 9.2016e-05
20010.0 9.1559e-05
20030.0 9.1094e-05
20050.0 9.0628e-05
20070.0 9.0179e-05
20090.0 8.9735e-05
20110.0 8.9266e-05
20130.0 8.8808e-05
20150.0 8.8361e-05
20170.0 8.79e-05
20190.0 8.743e-05
20210.0 8.6976e-05
20230.0 8.6521e-05
20250.0 8.6052e-05
20270.0 8.5595e-05
20290.0 8.5153e-05
20310.0 8.4707e-05
20330.0 8.4258e-05
20350.0 8.3844e-05
20370.0 8.3437e-05
20390.0 8.3033e-05
20410.0 8.265e-05
20430.0 8.229e-05
20450.0 8.1932e-05
20470.0 8.1593e-05
20490.0 8.128e-05
20510.0 8.0984e-05
20530.0 8.0701e-05
20550.0 8.0445e-05
20570.0 8.0215e-05
20590.0 8.0002e-05
20610.0 7.9813e-05
20630.0 7.9649e-05
20650.0 7.9508e-05
20670.0 7.9389e-05
20690.0 7.9293e-05
20710.0 7.9215e-05
20730.0 7.9155e-05
20750.0 7.911e-05
20770.0 7.9071e-05
20790.0 7.9039e-05
20810.0 7.9011e-05
20830.0 7.8976e-05
20850.0 7.8929e-05
20870.0 7.8872e-05
20890.0 7.8794e-05
20910.0 7.8689e-05
20930.0 7.8558e-05
20950.0 7.8394e-05
20970.0 7.8196e-05
20990.0 7.7965e-05
21010.0 7.7691e-05
21030.0 7.738e-05
21050.0 7.7037e-05
21070.0 7.6656e-05
21090.0 7.6232e-05
21110.0 7.5789e-05
21130.0 7.5324e-05
21150.0 7.4824e-05
21170.0 7.4308e-05
21190.0 7.3791e-05
21210.0 7.3248e-05
21230.0 7.2689e-05
21250.0 7.2142e-05
21270.0 7.1595e-05
21290.0 7.1034e-05
21310.0 7.0479e-05
21330.0 6.9943e-05
21350.0 6.9395e-05
21370.0 6.8844e-05
21390.0 6.8307e-05
21410.0 6.777e-05
21430.0 6.721e-05
21450.0 6.6659e-05
21470.0 6.6114e-05
21490.0 6.5553e-05
21510.0 6.4979e-05
21530.0 6.4414e-05
21550.0 6.3839e-05
21570.0 6.324e-05
21590.0 6.2644e-05
21610.0 6.2052e-05
21630.0 6.1443e-05
21650.0 6.0818e-05
21670.0 6.0222e-05
21690.0 5.9619e-05
21710.0 5.9006e-05
21730.0 5.8405e-05
21750.0 5.7824e-05
21770.0 5.7224e-05
21790.0 5.6635e-05
21810.0 5.6069e-05
21830.0 5.5508e-05
21850.0 5.4942e-05
21870.0 5.4396e-05
21890.0 5.387e-05
21910.0 5.3337e-05
21930.0 5.281e-05
21950.0 5.2302e-05
21970.0 5.1793e-05
21990.0 5.1272e-05
22010.0 5.0769e-05
22030.0 5.0271e-05
22050.0 4.9762e-05
22070.0 4.925e-05
22090.0 4.8752e-05
22110.0 4.8242e-05
22130.0 4.7719e-05
22150.0 4.7203e-05
22170.0 4.6687e-05
22190.0 4.6151e-05
22210.0 4.5612e-05
22230.0 4.509e-05
22250.0 4.4555e-05
22270.0 4.4011e-05
22290.0 4.348e-05
22310.0 4.2953e-05
22330.0 4.2408e-05
22350.0 4.1873e-05
22370.0 4.1353e-05
22390.0 4.083e-05
22410.0 4.0302e-05
22430.0 3.9799e-05
22450.0 3.9306e-05
22470.0 3.881e-05
22490.0 3.8328e-05
22510.0 3.7869e-05
22530.0 3.7408e-05
22550.0 3.6954e-05
22570.0 3.6526e-05
22590.0 3.6111e-05
22610.0 3.5699e-05
22630.0 3.5303e-05
22650.0 3.493e-05
22670.0 3.456e-05
22690.0 3.4198e-05
22710.0 3.3854e-05
22730.0 3.3521e-05
22750.0 3.3186e-05
22770.0 3.2869e-05
22790.0 3.2566e-05
22810.0 3.2267e-05
22830.0 3.1975e-05
22850.0 3.1701e-05
22870.0 3.1435e-05
22890.0 3.1173e-05
22910.0 3.0927e-05
22930.0 3.0696e-05
22950.0 3.0472e-05
22970.0 3.026e-05
22990.0 3.0069e-05
23010.0 2.9889e-05
23030.0 2.9722e-05
23050.0 2.9573e-05
23070.0 2.944e-05
23090.0 2.9321e-05
23110.0 2.922e-05
23130.0 2.9136e-05
