#lamb flux
1010.0 1.6467e-05
1030.0 1.8537e-05
1050.0 2.0779e-05
1070.0 2.3316e-05
1090.0 2.6255e-05
1110.0 2.9286e-05
1130.0 3.2364e-05
1150.0 3.5617e-05
1170.0 3.9015e-05
1190.0 4.2302e-05
1210.0 4.5697e-05
1230.0 4.9278e-05
1250.0 5.2873e-05
1270.0 5.6475e-05
1290.0 6.0364e-05
1310.0 6.4367e-05
1330.0 6.8349e-05
1350.0 7.2484e-05
1370.0 7.6844e-05
1390.0 8.1226e-05
1410.0 8.5605e-05
1430.0 9.0229e-05
1450.0 9.4935e-05
1470.0 9.9588e-05
1490.0 0.00010433
1510.0 0.00010933
1530.0 0.00011414
1550.0 0.00011892
1570.0 0.00012382
1590.0 0.0001287
1610.0 0.00013336
1630.0 0.00013806
1650.0 0.00014279
1670.0 0.00014728
1690.0 0.00015161
1710.0 0.00015594
1730.0 0.00016015
1750.0 0.00016394
1770.0 0.00016766
1790.0 0.00017125
1810.0 0.00017451
1830.0 0.00017748
1850.0 0.00018046
1870.0 0.0001831
1890.0 0.00018537
1910.0 0.00018748
1930.0 0.00018944
1950.0 0.00019099
1970.0 0.00019226
1990.0 0.00019342
2010.0 0.00019428
2030.0 0.00019477
2050.0 0.00019511
2070.0 0.0001953
2090.0 0.00019503
2110.0 0.0001945
2130.0 0.0001938
2150.0 0.00019278
2170.0 0.00019136
2190.0 0.00018979
2210.0 0.00018798
2230.0 0.00018579
2250.0 0.00018334
2270.0 0.00018076
2290.0 0.00017786
2310.0 0.00017464
2330.0 0.00017129
2350.0 0.00016777
2370.0 0.00016396
2390.0 0.00016
2410.0 0.00015595
2430.0 0.00015163
2450.0 0.00014705
2470.0 0.00014226
2490.0 0.00013722
2510.0 0.00013195
2530.0 0.00012673
2550.0 0.00012198
2570.0 0.00011824
2590.0 0.00011606
2610.0 0.00011653
2630.0 0.00011998
2650.0 0.00012582
2670.0 0.000134
2690.0 0.0001439
2710.0 0.00015321
2730.0 0.00016078
2750.0 0.00016658
2770.0 0.00016912
2790.0 0.00016809
2810.0 0.00016411
2830.0 0.00015745
2850.0 0.00014855
2870.0 0.00013822
2890.0 0.00012678
2910.0 0.00011467
2930.0 0.00010245
2950.0 8.9888e-05
2970.0 7.7133e-05
2990.0 6.462e-05
3010.0 0.00011762
3030.0 8.9445e-05
3050.0 6.131e-05
3070.0 3.3977e-05
3090.0 2.5587e-05
3110.0 2.5587e-05
3130.0 2.5587e-05
3150.0 2.5587e-05
3170.0 2.5587e-05
3190.0 2.5587e-05
3210.0 0.0001076
3230.0 0.00050211
3250.0 0.0010026
3270.0 0.0010902
3290.0 0.0013482
3310.0 0.0011362
3330.0 0.0011701
3350.0 0.0012944
3370.0 0.0014648
3390.0 0.0016612
3410.0 0.0018706
3430.0 0.0021258
3450.0 0.0023951
3470.0 0.0026791
3490.0 0.0028905
3510.0 0.0029971
3530.0 0.0031694
3550.0 0.0032539
3570.0 0.0031691
3590.0 0.0033404
3610.0 0.0031942
3630.0 0.0039131
3650.0 0.0044313
3670.0 0.004754
3690.0 0.0043793
3710.0 0.0034489
3730.0 0.0031278
3750.0 0.00273
3770.0 0.0024243
3790.0 0.0021233
3810.0 0.0020715
3830.0 0.0025494
3850.0 0.0010076
3870.0 0.0023522
3890.0 0.0028614
3910.0 0.0030403
3930.0 0.0036173
3950.0 0.0039357
3970.0 0.0046812
3990.0 0.0057887
4010.0 0.0040534
4030.0 0.0032679
4050.0 0.0027094
4070.0 0.0029278
4090.0 0.0045599
4110.0 0.0042196
4130.0 0.0044615
4150.0 0.0041736
4170.0 0.0039965
4190.0 0.0036822
4210.0 0.0054749
4230.0 0.0056995
4250.0 0.0061286
4270.0 0.0057199
4290.0 0.0059012
4310.0 0.0067343
4330.0 0.0078732
4350.0 0.0077117
4370.0 0.0073858
4390.0 0.0064489
4410.0 0.0059869
4430.0 0.0047902
4450.0 0.0041341
4470.0 0.0046767
4490.0 0.0056576
4510.0 0.0058785
4530.0 0.0062268
4550.0 0.0066476
4570.0 0.0091812
4590.0 0.013346
4610.0 0.015873
4630.0 0.015836
4650.0 0.016001
4670.0 0.017865
4690.0 0.019638
4710.0 0.016084
4730.0 0.012209
4750.0 0.0097964
4770.0 0.0088702
4790.0 0.0085562
4810.0 0.0081897
4830.0 0.0089992
4850.0 0.010311
4870.0 0.011365
4890.0 0.01166
4910.0 0.010504
4930.0 0.011058
4950.0 0.013809
4970.0 0.016894
4990.0 0.017691
5010.0 0.01623
5030.0 0.013386
5050.0 0.010081
5070.0 0.0079759
5090.0 0.0071567
5110.0 0.006986
5130.0 0.0071579
5150.0 0.0071459
5170.0 0.0069984
5190.0 0.0066793
5210.0 0.0065643
5230.0 0.0072674
5250.0 0.0081645
5270.0 0.0097288
5290.0 0.011342
5310.0 0.011808
5330.0 0.012558
5350.0 0.013995
5370.0 0.015045
5390.0 0.013829
5410.0 0.012266
5430.0 0.011801
5450.0 0.013627
5470.0 0.017141
5490.0 0.020487
5510.0 0.022086
5530.0 0.021909
5550.0 0.020901
5570.0 0.020279
5590.0 0.01974
5610.0 0.019712
5630.0 0.01967
5650.0 0.019675
5670.0 0.019781
5690.0 0.018596
5710.0 0.015771
5730.0 0.013894
5750.0 0.012915
5770.0 0.013183
5790.0 0.013831
5810.0 0.014667
5830.0 0.015122
5850.0 0.014551
5870.0 0.013605
5890.0 0.012788
5910.0 0.013138
5930.0 0.014066
5950.0 0.013513
5970.0 0.012167
5990.0 0.010374
6010.0 0.0084509
6030.0 0.0075193
6050.0 0.0079159
6070.0 0.00862
6090.0 0.0086193
6110.0 0.0076353
6130.0 0.007556
6150.0 0.0086242
6170.0 0.01011
6190.0 0.011455
6210.0 0.011662
6230.0 0.011337
6250.0 0.010411
6270.0 0.0088651
6290.0 0.0073856
6310.0 0.0064391
6330.0 0.0061857
6350.0 0.0063916
6370.0 0.0064364
6390.0 0.0069281
6410.0 0.0084073
6430.0 0.010652
6450.0 0.012555
6470.0 0.013229
6490.0 0.01297
6510.0 0.013209
6530.0 0.013777
6550.0 0.013655
6570.0 0.014107
6590.0 0.014294
6610.0 0.014487
6630.0 0.014544
6650.0 0.013918
6670.0 0.012812
6690.0 0.011397
6710.0 0.010456
6730.0 0.010483
6750.0 0.011004
6770.0 0.011411
6790.0 0.011687
6810.0 0.011823
6830.0 0.011578
6850.0 0.011172
6870.0 0.010501
6890.0 0.010217
6910.0 0.0097105
6930.0 0.0099129
6950.0 0.010649
6970.0 0.011028
6990.0 0.01135
7010.0 0.011152
7030.0 0.010341
7050.0 0.0090991
7070.0 0.0078194
7090.0 0.0069897
7110.0 0.0068731
7130.0 0.0070279
7150.0 0.0065498
7170.0 0.0061203
7190.0 0.0064173
7210.0 0.0072086
7230.0 0.008365
7250.0 0.0090891
7270.0 0.0091775
7290.0 0.008445
7310.0 0.007677
7330.0 0.0072154
7350.0 0.0071873
7370.0 0.0073615
7390.0 0.007659
7410.0 0.0083515
7430.0 0.0096861
7450.0 0.011117
7470.0 0.012038
7490.0 0.012109
7510.0 0.01146
7530.0 0.0095615
7550.0 0.0083798
7570.0 0.0072667
7590.0 0.0067094
7610.0 0.0069841
7630.0 0.0077601
7650.0 0.00871
7670.0 0.009586
7690.0 0.01014
7710.0 0.010774
7730.0 0.011465
7750.0 0.012076
7770.0 0.01199
7790.0 0.012
7810.0 0.012281
7830.0 0.01249
7850.0 0.01215
7870.0 0.011651
7890.0 0.011408
7910.0 0.010808
7930.0 0.010615
7950.0 0.010102
7970.0 0.009896
7990.0 0.00965
8010.0 0.010002
8030.0 0.010065
8050.0 0.010184
8070.0 0.01007
8090.0 0.010017
8110.0 0.0095921
8130.0 0.0095362
8150.0 0.0093529
8170.0 0.0090854
8190.0 0.0089169
8210.0 0.0089387
8230.0 0.0086276
8250.0 0.0083034
8270.0 0.00737
8290.0 0.0059326
8310.0 0.0044131
8330.0 0.00334
8350.0 0.0030597
8370.0 0.0036338
8390.0 0.004414
8410.0 0.0048364
8430.0 0.00506
8450.0 0.0053037
8470.0 0.0056127
8490.0 0.0062552
8510.0 0.0071148
8530.0 0.0082519
8550.0 0.0094526
8570.0 0.010512
8590.0 0.011346
8610.0 0.011901
8630.0 0.012083
8650.0 0.012043
8670.0 0.012037
8690.0 0.012533
8710.0 0.013134
8730.0 0.013608
8750.0 0.013508
8770.0 0.013639
8790.0 0.013518
8810.0 0.012633
8830.0 0.012041
8850.0 0.011199
8870.0 0.010517
8890.0 0.010214
8910.0 0.010295
8930.0 0.0097454
8950.0 0.0092052
8970.0 0.0089835
8990.0 0.0088554
9010.0 0.0085281
9030.0 0.0083336
9050.0 0.0082725
9070.0 0.0082438
9090.0 0.0082182
9110.0 0.0081935
9130.0 0.008168
9150.0 0.0081427
9170.0 0.0081119
9190.0 0.0080838
9210.0 0.0081038
9230.0 0.0080626
9250.0 0.008029
9270.0 0.0079988
9290.0 0.0079711
9310.0 0.0079441
9330.0 0.0079179
9350.0 0.0078932
9370.0 0.0078685
9390.0 0.0078433
9410.0 0.0078187
9430.0 0.0077937
9450.0 0.0077612
9470.0 0.0077312
9490.0 0.0077138
9510.0 0.0076926
9530.0 0.0076701
9550.0 0.0076473
9570.0 0.007624
9590.0 0.0076001
9610.0 0.0075762
9630.0 0.0075523
9650.0 0.0075284
9670.0 0.0075042
9690.0 0.0074803
9710.0 0.0074565
9730.0 0.0074324
9750.0 0.0074084
9770.0 0.0073847
9790.0 0.0073607
9810.0 0.0073365
9830.0 0.0073125
9850.0 0.0072887
9870.0 0.0072643
9890.0 0.00724
9910.0 0.0072157
9930.0 0.0071904
9950.0 0.0071072
9970.0 0.0070999
9990.0 0.0070894
10010.0 0.0070765
10030.0 0.0070589
10050.0 0.0070371
10070.0 0.0070141
10090.0 0.0069917
10110.0 0.0069655
10130.0 0.0069414
10150.0 0.0069162
10170.0 0.0068892
10190.0 0.0068601
10210.0 0.0068334
10230.0 0.0068073
10250.0 0.0067788
10270.0 0.0067505
10290.0 0.0067239
10310.0 0.006695
10330.0 0.0066641
10350.0 0.0066355
10370.0 0.0066067
10390.0 0.0065755
10410.0 0.0065442
10430.0 0.0065152
10450.0 0.0064836
10470.0 0.0064505
10490.0 0.006419
10510.0 0.0063873
10530.0 0.0063517
10550.0 0.0063172
10570.0 0.0062843
10590.0 0.0062491
10610.0 0.0062123
10630.0 0.0061775
10650.0 0.0061419
10670.0 0.0061029
10690.0 0.0060648
10710.0 0.0060276
10730.0 0.005988
10750.0 0.0059458
10770.0 0.005907
10790.0 0.0058669
10810.0 0.0058239
10830.0 0.0057815
10850.0 0.0057406
10870.0 0.0056948
10890.0 0.0056482
10910.0 0.0056027
10930.0 0.0055547
10950.0 0.0055018
10970.0 0.0054475
10990.0 0.0053926
11010.0 0.0054077
11030.0 0.0053393
11050.0 0.005273
11070.0 0.0052059
11090.0 0.0051349
11110.0 0.0050703
11130.0 0.0050087
11150.0 0.0049466
11170.0 0.0048864
11190.0 0.0048312
11210.0 0.0047755
11230.0 0.0047188
11250.0 0.0046652
11270.0 0.0046131
11290.0 0.0045587
11310.0 0.0045044
11330.0 0.004454
11350.0 0.0044019
11370.0 0.0043481
11390.0 0.0042958
11410.0 0.0042435
11430.0 0.0041863
11450.0 0.0041285
11470.0 0.0040707
11490.0 0.0040089
11510.0 0.003942
11530.0 0.0038755
11550.0 0.0038069
11570.0 0.0037325
11590.0 0.0036563
11610.0 0.0035808
11630.0 0.0035005
11650.0 0.0034168
11670.0 0.0033366
11690.0 0.0032565
11710.0 0.0031739
11730.0 0.0030936
11750.0 0.0030183
11770.0 0.0029419
11790.0 0.002867
11810.0 0.0027974
11830.0 0.0027306
11850.0 0.0026633
11870.0 0.0026011
11890.0 0.0025437
11910.0 0.0024872
11930.0 0.0024325
11950.0 0.0023825
11970.0 0.0023342
11990.0 0.0022859
12010.0 0.002241
12030.0 0.0021992
12050.0 0.002158
12070.0 0.0021182
12090.0 0.0020831
12110.0 0.0020499
12130.0 0.0020183
12150.0 0.0019905
12170.0 0.0019664
12190.0 0.0019443
12210.0 0.0019261
12230.0 0.0019123
12250.0 0.0019021
12270.0 0.0018958
12290.0 0.0018938
12310.0 0.0018958
12330.0 0.001902
12350.0 0.0019125
12370.0 0.0019266
12390.0 0.0019447
12410.0 0.0019679
12430.0 0.0019933
12450.0 0.0020215
12470.0 0.0020534
12490.0 0.0020876
12510.0 0.0021218
12530.0 0.0021579
12550.0 0.0021952
12570.0 0.0022305
12590.0 0.002264
12610.0 0.0022965
12630.0 0.0023255
12650.0 0.002349
12670.0 0.0023688
12690.0 0.0023837
12710.0 0.0023927
12730.0 0.0023962
12750.0 0.0023942
12770.0 0.0023865
12790.0 0.0023741
12810.0 0.0023568
12830.0 0.002335
12850.0 0.0023107
12870.0 0.0022842
12890.0 0.0022549
12910.0 0.0022248
12930.0 0.0021951
12950.0 0.0021643
12970.0 0.0021334
12990.0 0.0021045
13010.0 0.0020763
13030.0 0.0020483
13050.0 0.0020215
13070.0 0.0019963
13090.0 0.0019707
13110.0 0.0019455
13130.0 0.0019213
13150.0 0.0018973
13170.0 0.0018725
13190.0 0.0018486
13210.0 0.0018258
13230.0 0.0018029
13250.0 0.0017807
13270.0 0.0017605
13290.0 0.0017417
13310.0 0.0017242
13330.0 0.0017097
13350.0 0.001698
13370.0 0.0016889
13390.0 0.0016827
13410.0 0.0016793
13430.0 0.0016782
13450.0 0.001679
13470.0 0.0016808
13490.0 0.0016829
13510.0 0.0016848
13530.0 0.0016853
13550.0 0.0016836
13570.0 0.0016794
13590.0 0.0016719
13610.0 0.0016612
13630.0 0.0016476
13650.0 0.0016303
13670.0 0.0016102
13690.0 0.0015885
13710.0 0.0015648
13730.0 0.0015389
13750.0 0.001514
13770.0 0.0014895
13790.0 0.0014651
13810.0 0.0014422
13830.0 0.0014218
13850.0 0.0014025
13870.0 0.001385
13890.0 0.0013701
13910.0 0.0013571
13930.0 0.0013456
13950.0 0.0013358
13970.0 0.0013278
13990.0 0.0013207
14010.0 0.0013145
14030.0 0.001309
14050.0 0.0013039
14070.0 0.0012988
14090.0 0.0012937
14110.0 0.0012884
14130.0 0.0012826
14150.0 0.001276
14170.0 0.0012689
14190.0 0.0012612
14210.0 0.0012525
14230.0 0.0012434
14250.0 0.001234
14270.0 0.0012239
14290.0 0.0012136
14310.0 0.001204
14330.0 0.0011946
14350.0 0.0011857
14370.0 0.0011777
14390.0 0.0011709
14410.0 0.0011648
14430.0 0.0011599
14450.0 0.0011562
14470.0 0.0011534
14490.0 0.0011514
14510.0 0.0011503
14530.0 0.0011499
14550.0 0.0011501
14570.0 0.0011509
14590.0 0.0011522
14610.0 0.001154
14630.0 0.0011567
14650.0 0.0011601
14670.0 0.0011643
14690.0 0.0011696
14710.0 0.0011761
14730.0 0.0011833
14750.0 0.0011918
14770.0 0.0012019
14790.0 0.001213
14810.0 0.0012251
14830.0 0.0012397
14850.0 0.0012556
14870.0 0.0012725
14890.0 0.0012911
14910.0 0.0013115
14930.0 0.0013316
14950.0 0.001351
14970.0 0.00137
14990.0 0.0013865
15010.0 0.0013996
15030.0 0.0014098
15050.0 0.001417
15070.0 0.0014211
15090.0 0.0014231
15110.0 0.0014238
15130.0 0.0014236
15150.0 0.0014229
15170.0 0.001422
15190.0 0.0014209
15210.0 0.0014198
15230.0 0.0014187
15250.0 0.0014176
15270.0 0.0014165
15290.0 0.0014154
15310.0 0.0014143
15330.0 0.0014132
15350.0 0.0014122
15370.0 0.0014111
15390.0 0.00141
15410.0 0.001409
15430.0 0.0014079
15450.0 0.0014069
15470.0 0.0014058
15490.0 0.0014048
15510.0 0.0014038
15530.0 0.0014027
15550.0 0.0014017
15570.0 0.0014007
15590.0 0.0013997
15610.0 0.0013986
15630.0 0.0013976
15650.0 0.0013966
15670.0 0.0013956
15690.0 0.0013946
15710.0 0.0013936
15730.0 0.0013926
15750.0 0.0013916
15770.0 0.0013906
15790.0 0.0013895
15810.0 0.0013885
15830.0 0.0013875
15850.0 0.0013865
15870.0 0.0013855
15890.0 0.0013844
15910.0 0.0013834
15930.0 0.0013824
15950.0 0.0013813
15970.0 0.0013803
15990.0 0.0013793
16010.0 0.0013782
16030.0 0.0013772
16050.0 0.0013761
16070.0 0.0013751
16090.0 0.001374
16110.0 0.0013729
16130.0 0.0013719
16150.0 0.0013707
16170.0 0.0013696
16190.0 0.0013685
16210.0 0.0013674
16230.0 0.0013663
16250.0 0.0013652
16270.0 0.001364
16290.0 0.0013629
16310.0 0.0013617
16330.0 0.0013606
16350.0 0.0013594
16370.0 0.0013581
16390.0 0.0013569
16410.0 0.0013557
16430.0 0.0013545
16450.0 0.0013532
16470.0 0.001352
16490.0 0.0013507
16510.0 0.0013494
16530.0 0.0013481
16550.0 0.0013468
16570.0 0.0013455
16590.0 0.0013441
16610.0 0.0013428
16630.0 0.0013414
16650.0 0.00134
16670.0 0.0013385
16690.0 0.0013371
16710.0 0.0013356
16730.0 0.0013342
16750.0 0.0013327
16770.0 0.0013312
16790.0 0.0013296
16810.0 0.0013281
16830.0 0.0013265
16850.0 0.0013249
16870.0 0.0013233
16890.0 0.0013217
16910.0 0.00132
16930.0 0.0013183
16950.0 0.0013166
16970.0 0.0013149
16990.0 0.0013132
17010.0 0.0013114
17030.0 0.0013096
17050.0 0.0013078
17070.0 0.0013059
17090.0 0.0013041
17110.0 0.0013022
17130.0 0.0013003
17150.0 0.0012983
17170.0 0.0012964
17190.0 0.0012944
17210.0 0.0012924
17230.0 0.0012903
17250.0 0.0012883
17270.0 0.0012862
17290.0 0.001284
17310.0 0.0012819
17330.0 0.0012797
17350.0 0.0012775
17370.0 0.0012753
17390.0 0.0012731
17410.0 0.0012708
17430.0 0.0012685
17450.0 0.0012662
17470.0 0.0012638
17490.0 0.0012614
17510.0 0.001259
17530.0 0.0012565
17550.0 0.001254
17570.0 0.0012516
17590.0 0.0012491
17610.0 0.0012465
17630.0 0.0012439
17650.0 0.0012413
17670.0 0.0012387
17690.0 0.001236
17710.0 0.0012333
17730.0 0.0012306
17750.0 0.0012279
17770.0 0.0012251
17790.0 0.0012223
17810.0 0.0012195
17830.0 0.0012166
17850.0 0.0012138
17870.0 0.0012109
17890.0 0.001208
17910.0 0.001205
17930.0 0.0012021
17950.0 0.0011991
17970.0 0.001196
17990.0 0.001193
18010.0 0.00119
18030.0 0.0011868
18050.0 0.0011837
18070.0 0.0011806
18090.0 0.0011774
18110.0 0.0011742
18130.0 0.0011711
18150.0 0.0011678
18170.0 0.0011646
18190.0 0.0011613
18210.0 0.0011581
18230.0 0.0011547
18250.0 0.0011514
18270.0 0.0011481
18290.0 0.0011447
18310.0 0.0011413
18330.0 0.0011379
18350.0 0.0011345
18370.0 0.0011311
18390.0 0.0011276
18410.0 0.0011242
18430.0 0.0011207
18450.0 0.0011172
18470.0 0.0011136
18490.0 0.0011101
18510.0 0.0011066
18530.0 0.001103
18550.0 0.0010995
18570.0 0.0010959
18590.0 0.0010923
18610.0 0.0010887
18630.0 0.0010851
18650.0 0.0010814
18670.0 0.0010778
18690.0 0.0010742
18710.0 0.0010705
18730.0 0.0010668
18750.0 0.0010632
18770.0 0.0010595
18790.0 0.0010558
18810.0 0.0010521
18830.0 0.0010484
18850.0 0.0010447
18870.0 0.001041
18890.0 0.0010373
18910.0 0.0010336
18930.0 0.0010299
18950.0 0.0010261
18970.0 0.0010224
18990.0 0.0010187
19010.0 0.0010149
19030.0 0.0010112
19050.0 0.0010075
19070.0 0.0010038
19090.0 0.001
19110.0 0.00099632
19130.0 0.00099258
19150.0 0.00098884
19170.0 0.00098512
19190.0 0.00098141
19210.0 0.00097767
19230.0 0.00097395
19250.0 0.00097025
19270.0 0.00096654
19290.0 0.00096282
19310.0 0.00095913
19330.0 0.00095545
19350.0 0.00095174
19370.0 0.00094805
19390.0 0.00094439
19410.0 0.00094071
19430.0 0.00093704
19450.0 0.0009334
19470.0 0.00092975
19490.0 0.0009261
19510.0 0.00092247
19530.0 0.00091886
19550.0 0.00091524
19570.0 0.00091163
19590.0 0.00090804
19610.0 0.00090446
19630.0 0.00090088
19650.0 0.00089732
19670.0 0.00089379
19690.0 0.00089024
19710.0 0.0008867
19730.0 0.0008832
19750.0 0.00087969
19770.0 0.00087619
19790.0 0.00087271
19810.0 0.00086925
19830.0 0.00086576
19850.0 0.00086226
19870.0 0.00085871
19890.0 0.00085498
19910.0 0.00085093
19930.0 0.00084642
19950.0 0.00084118
19970.0 0.00083478
19990.0 0.00082701
20010.0 0.00081805
20030.0 0.00080738
20050.0 0.0007951
20070.0 0.00078195
20090.0 0.00076806
20110.0 0.0007529
20130.0 0.00073788
20150.0 0.0007233
20170.0 0.00070858
20190.0 0.00069399
20210.0 0.00068032
20230.0 0.00066708
20250.0 0.00065389
20270.0 0.00064146
20290.0 0.0006298
20310.0 0.00061836
20330.0 0.00060713
20350.0 0.00059699
20370.0 0.00058719
20390.0 0.00057761
20410.0 0.00056863
20430.0 0.00056031
20450.0 0.00055208
20470.0 0.00054434
20490.0 0.00053728
20510.0 0.00053065
20530.0 0.00052436
20550.0 0.0005187
20570.0 0.00051368
20590.0 0.00050904
20610.0 0.00050493
20630.0 0.00050142
20650.0 0.00049838
20670.0 0.00049579
20690.0 0.00049373
20710.0 0.00049209
20730.0 0.00049085
20750.0 0.00048999
20770.0 0.00048941
20790.0 0.0004891
20810.0 0.00048906
20830.0 0.00048913
20850.0 0.00048928
20870.0 0.00048957
20890.0 0.00048985
20910.0 0.00048996
20930.0 0.00049
20950.0 0.00048991
20970.0 0.00048955
20990.0 0.00048893
21010.0 0.00048807
21030.0 0.00048686
21050.0 0.00048533
21070.0 0.00048345
21090.0 0.00048119
21110.0 0.00047862
21130.0 0.00047576
21150.0 0.00047252
21170.0 0.00046901
21190.0 0.00046532
21210.0 0.00046131
21230.0 0.00045702
21250.0 0.00045267
21270.0 0.0004482
21290.0 0.0004435
21310.0 0.00043875
21330.0 0.00043412
21350.0 0.00042937
21370.0 0.00042459
21390.0 0.00042
21410.0 0.00041552
21430.0 0.000411
21450.0 0.00040679
21470.0 0.00040288
21490.0 0.00039914
21510.0 0.00039567
21530.0 0.00039262
21550.0 0.00038988
21570.0 0.00038746
21590.0 0.00038547
21610.0 0.00038389
21630.0 0.00038269
21650.0 0.00038192
21670.0 0.00038151
21690.0 0.00038147
21710.0 0.00038181
21730.0 0.00038244
21750.0 0.00038328
21770.0 0.00038447
21790.0 0.00038584
21810.0 0.00038726
21830.0 0.0003888
21850.0 0.00039047
21870.0 0.00039206
21890.0 0.00039351
21910.0 0.00039497
21930.0 0.00039631
21950.0 0.0003974
21970.0 0.00039835
21990.0 0.00039918
22010.0 0.00039971
22030.0 0.00040001
22050.0 0.00040012
22070.0 0.00040002
22090.0 0.00039967
22110.0 0.00039915
22130.0 0.00039844
22150.0 0.00039755
22170.0 0.00039649
22190.0 0.00039527
22210.0 0.00039389
22230.0 0.00039239
22250.0 0.00039074
22270.0 0.00038893
22290.0 0.000387
22310.0 0.00038495
22330.0 0.00038268
22350.0 0.00038027
22370.0 0.00037772
22390.0 0.00037496
22410.0 0.00037192
22430.0 0.00036879
22450.0 0.00036545
22470.0 0.00036181
22490.0 0.00035797
22510.0 0.00035404
22530.0 0.00034976
22550.0 0.00034522
22570.0 0.00034066
22590.0 0.00033597
22610.0 0.00033103
22630.0 0.00032606
22650.0 0.00032123
22670.0 0.00031625
22690.0 0.00031126
22710.0 0.0003065
22730.0 0.00030186
22750.0 0.00029716
22770.0 0.0002928
22790.0 0.00028874
22810.0 0.00028481
22830.0 0.00028109
22850.0 0.00027774
22870.0 0.0002746
22890.0 0.00027161
22910.0 0.00026892
22930.0 0.00026649
22950.0 0.00026419
22970.0 0.00026205
22990.0 0.00026017
23010.0 0.00025838
23030.0 0.00025667
23050.0 0.00025507
23070.0 0.00025354
23090.0 0.00025198
23110.0 0.00025043
23130.0 0.00024891
23150.0 0.00024733
23170.0 0.00024567
23190.0 0.000244
23210.0 0.00024231
23230.0 0.00024052
23250.0 0.0002387
23270.0 0.00023692
23290.0 0.0002351
23310.0 0.00023323
23330.0 0.00023146
23350.0 0.00022975
23370.0 0.00022806
23390.0 0.00022643
23410.0 0.00022492
23430.0 0.00022344
23450.0 0.00022199
23470.0 0.00022064
23490.0 0.00021934
23510.0 0.00021804
23530.0 0.00021678
23550.0 0.00021557
23570.0 0.00021437
23590.0 0.00021315
23610.0 0.00021198
