#lamb flux
1010.0 6.24e-07
1030.0 6.5359e-07
1050.0 7.2681e-07
1070.0 8.0829e-07
1090.0 8.9333e-07
1110.0 9.7832e-07
1130.0 1.0615e-06
1150.0 1.147e-06
1170.0 1.2332e-06
1190.0 1.3109e-06
1210.0 1.3869e-06
1230.0 1.4628e-06
1250.0 1.5344e-06
1270.0 1.5996e-06
1290.0 1.6663e-06
1310.0 1.7295e-06
1330.0 1.7861e-06
1350.0 1.8421e-06
1370.0 1.9004e-06
1390.0 1.9575e-06
1410.0 2.0149e-06
1430.0 2.0805e-06
1450.0 2.1524e-06
1470.0 2.2297e-06
1490.0 2.3179e-06
1510.0 2.4225e-06
1530.0 2.5359e-06
1550.0 2.663e-06
1570.0 2.8092e-06
1590.0 2.973e-06
1610.0 3.1516e-06
1630.0 3.3543e-06
1650.0 3.5796e-06
1670.0 3.8218e-06
1690.0 4.0826e-06
1710.0 4.3667e-06
1730.0 4.67e-06
1750.0 4.9825e-06
1770.0 5.3124e-06
1790.0 5.6562e-06
1810.0 6.0037e-06
1830.0 6.3524e-06
1850.0 6.7089e-06
1870.0 7.0564e-06
1890.0 7.3884e-06
1910.0 7.7078e-06
1930.0 8.0105e-06
1950.0 8.2808e-06
1970.0 8.5198e-06
1990.0 8.7318e-06
2010.0 8.9053e-06
2030.0 9.0355e-06
2050.0 9.1319e-06
2070.0 9.1938e-06
2090.0 9.2087e-06
2110.0 9.1875e-06
2130.0 9.1375e-06
2150.0 9.0546e-06
2170.0 8.9394e-06
2190.0 8.8073e-06
2210.0 8.6582e-06
2230.0 8.4903e-06
2250.0 8.3129e-06
2270.0 8.1357e-06
2290.0 7.9534e-06
2310.0 7.7691e-06
2330.0 7.5939e-06
2350.0 7.4282e-06
2370.0 7.2698e-06
2390.0 7.1269e-06
2410.0 7.0062e-06
2430.0 6.9033e-06
2450.0 6.8225e-06
2470.0 6.7733e-06
2490.0 6.7595e-06
2510.0 6.7766e-06
2530.0 6.8459e-06
2550.0 6.9956e-06
2570.0 7.2478e-06
2590.0 7.6357e-06
2610.0 8.2611e-06
2630.0 9.1475e-06
2650.0 1.026e-05
2670.0 1.1633e-05
2690.0 1.3245e-05
2710.0 1.4919e-05
2730.0 1.6572e-05
2750.0 1.8252e-05
2770.0 1.9849e-05
2790.0 2.1341e-05
2810.0 2.2832e-05
2830.0 2.4419e-05
2850.0 2.6018e-05
2870.0 2.7718e-05
2890.0 2.9592e-05
2910.0 3.1601e-05
2930.0 3.3681e-05
2950.0 3.5946e-05
2970.0 3.838e-05
2990.0 4.0896e-05
3010.0 4.538e-05
3030.0 4.8324e-05
3050.0 5.1383e-05
3070.0 5.4406e-05
3090.0 5.7465e-05
3110.0 6.0391e-05
3130.0 6.2945e-05
3150.0 6.5007e-05
3170.0 6.6354e-05
3190.0 6.7414e-05
3210.0 6.9559e-05
3230.0 7.2542e-05
3250.0 7.338e-05
3270.0 7.1511e-05
3290.0 6.8987e-05
3310.0 6.7858e-05
3330.0 6.7707e-05
3350.0 6.8174e-05
3370.0 6.8954e-05
3390.0 7.0267e-05
3410.0 7.1193e-05
3430.0 7.0435e-05
3450.0 7.0563e-05
3470.0 7.1201e-05
3490.0 7.8705e-05
3510.0 0.00010026
3530.0 0.00012399
3550.0 0.00014118
3570.0 0.00015469
3590.0 0.0001623
3610.0 0.00016083
3630.0 0.00015714
3650.0 0.00016759
3670.0 0.00019475
3690.0 0.00022139
3710.0 0.00024136
3730.0 0.00025915
3750.0 0.00027597
3770.0 0.00027192
3790.0 0.00025298
3810.0 0.00023486
3830.0 0.00021893
3850.0 0.00021527
3870.0 0.00023129
3890.0 0.00025259
3910.0 0.00026909
3930.0 0.00028636
3950.0 0.00031957
3970.0 0.00034621
3990.0 0.00033206
4010.0 0.0002936
4030.0 0.00025657
4050.0 0.00024211
4070.0 0.00023937
4090.0 0.00023468
4110.0 0.00023316
4130.0 0.00023103
4150.0 0.00023214
4170.0 0.0002464
4190.0 0.00026731
4210.0 0.00026657
4230.0 0.00025784
4250.0 0.00025565
4270.0 0.00026147
4290.0 0.00027693
4310.0 0.00029156
4330.0 0.00027996
4350.0 0.00024674
4370.0 0.00021822
4390.0 0.00019436
4410.0 0.00017294
4430.0 0.00016892
4450.0 0.00017882
4470.0 0.00018885
4490.0 0.0002024
4510.0 0.00023168
4530.0 0.0002954
4550.0 0.00038703
4570.0 0.0004466
4590.0 0.00048224
4610.0 0.00054168
4630.0 0.00058894
4650.0 0.00055989
4670.0 0.00047066
4690.0 0.00038761
4710.0 0.0003422
4730.0 0.00032176
4750.0 0.0002966
4770.0 0.00027588
4790.0 0.0002886
4810.0 0.00031483
4830.0 0.00032151
4850.0 0.00030602
4870.0 0.00030652
4890.0 0.00032958
4910.0 0.00035047
4930.0 0.00035809
4950.0 0.00035209
4970.0 0.00033164
4990.0 0.00029912
5010.0 0.00026862
5030.0 0.00024768
5050.0 0.00023551
5070.0 0.00022642
5090.0 0.00021749
5110.0 0.00021421
5130.0 0.0002141
5150.0 0.00021986
5170.0 0.00024074
5190.0 0.00027117
5210.0 0.0003074
5230.0 0.00033537
5250.0 0.00035439
5270.0 0.00037752
5290.0 0.00040485
5310.0 0.00041908
5330.0 0.00041142
5350.0 0.00039343
5370.0 0.00039159
5390.0 0.00041441
5410.0 0.00045085
5430.0 0.00048115
5450.0 0.0004982
5470.0 0.00050182
5490.0 0.00049309
5510.0 0.00048319
5530.0 0.00047765
5550.0 0.00047499
5570.0 0.00046962
5590.0 0.00045978
5610.0 0.00044465
5630.0 0.0004189
5650.0 0.00038509
5670.0 0.00035966
5690.0 0.00034891
5710.0 0.0003448
5730.0 0.00033892
5750.0 0.00033284
5770.0 0.00032951
5790.0 0.0003311
5810.0 0.00033104
5830.0 0.00033228
5850.0 0.00033409
5870.0 0.00032768
5890.0 0.00031693
5910.0 0.00030207
5930.0 0.00027527
5950.0 0.00024786
5970.0 0.0002342
5990.0 0.00023402
6010.0 0.00023495
6030.0 0.00022728
6050.0 0.00022004
6070.0 0.00022848
6090.0 0.00024604
6110.0 0.00025625
6130.0 0.00025225
6150.0 0.00024189
6170.0 0.00023479
6190.0 0.00022881
6210.0 0.00021775
6230.0 0.00020131
6250.0 0.00018937
6270.0 0.00018692
6290.0 0.00018711
6310.0 0.00019479
6330.0 0.00021251
6350.0 0.00023385
6370.0 0.00024759
6390.0 0.00025505
6410.0 0.00026292
6430.0 0.0002691
6450.0 0.00027475
6470.0 0.00028133
6490.0 0.00028808
6510.0 0.0002935
6530.0 0.00029545
6550.0 0.00029537
6570.0 0.00028879
6590.0 0.0002751
6610.0 0.00026394
6630.0 0.00025669
6650.0 0.00024727
6670.0 0.00023475
6690.0 0.00022416
6710.0 0.00021856
6730.0 0.00021381
6750.0 0.00020961
6770.0 0.0002078
6790.0 0.00020605
6810.0 0.0002014
6830.0 0.00019744
6850.0 0.00020086
6870.0 0.00020386
6890.0 0.00020091
6910.0 0.0001979
6930.0 0.00019555
6950.0 0.0001911
6970.0 0.00018432
6990.0 0.00017795
7010.0 0.00017401
7030.0 0.0001704
7050.0 0.00016263
7070.0 0.00015265
7090.0 0.00015008
7110.0 0.00015574
7130.0 0.00016464
7150.0 0.00017277
7170.0 0.00017907
7190.0 0.00018063
7210.0 0.00017545
7230.0 0.00017201
7250.0 0.00017419
7270.0 0.00017338
7290.0 0.0001712
7310.0 0.00017276
7330.0 0.00017862
7350.0 0.00018671
7370.0 0.0001918
7390.0 0.0001937
7410.0 0.00019367
7430.0 0.00018985
7450.0 0.00018369
7470.0 0.00017809
7490.0 0.00017153
7510.0 0.00016573
7530.0 0.00016383
7550.0 0.0001635
7570.0 0.00016346
7590.0 0.00016489
7610.0 0.00016477
7630.0 0.00016453
7650.0 0.00016901
7670.0 0.00017578
7690.0 0.00018241
7710.0 0.00018781
7730.0 0.00019274
7750.0 0.0001981
7770.0 0.00020325
7790.0 0.00020758
7810.0 0.00020916
7830.0 0.00020564
7850.0 0.00019869
7870.0 0.00018996
7890.0 0.0001814
7910.0 0.0001773
7930.0 0.00017448
7950.0 0.00017068
7970.0 0.00016691
7990.0 0.00016566
8010.0 0.00015598
8030.0 0.0001547
8050.0 0.00015313
8070.0 0.00015076
8090.0 0.00014849
8110.0 0.00014794
8130.0 0.00014824
8150.0 0.00014734
8170.0 0.00014578
8190.0 0.00014147
8210.0 0.00013336
8230.0 0.00012548
8250.0 0.00012143
8270.0 0.00011684
8290.0 0.00010954
8310.0 0.00010318
8330.0 9.935e-05
8350.0 9.6394e-05
8370.0 9.7472e-05
8390.0 0.00010319
8410.0 0.00010988
8430.0 0.00011725
8450.0 0.00012599
8470.0 0.00013275
8490.0 0.00013963
8510.0 0.00014595
8530.0 0.00015207
8550.0 0.00015716
8570.0 0.00016083
8590.0 0.00016375
8610.0 0.00016749
8630.0 0.00016852
8650.0 0.00016527
8670.0 0.0001654
8690.0 0.00016997
8710.0 0.00017566
8730.0 0.00017686
8750.0 0.00017348
8770.0 0.00017275
8790.0 0.00017223
8810.0 0.00016808
8830.0 0.00015606
8850.0 0.00014132
8870.0 0.00013068
8890.0 0.00012619
8910.0 0.00012069
8930.0 0.0001122
8950.0 0.00010549
8970.0 0.00010361
8990.0 0.00010471
9010.0 0.00010467
9030.0 0.00010368
9050.0 0.00010289
9070.0 0.00010231
9090.0 0.00010177
9110.0 0.00010124
9130.0 0.0001007
9150.0 0.00010018
9170.0 9.9655e-05
9190.0 9.9145e-05
9210.0 9.8655e-05
9230.0 9.8134e-05
9250.0 9.7622e-05
9270.0 9.7117e-05
9290.0 9.6619e-05
9310.0 9.6125e-05
9330.0 9.5636e-05
9350.0 9.5153e-05
9370.0 9.4673e-05
9390.0 9.4197e-05
9410.0 9.3724e-05
9430.0 9.3241e-05
9450.0 9.2692e-05
9470.0 9.2171e-05
9490.0 9.179e-05
9510.0 9.1372e-05
9530.0 9.0953e-05
9550.0 9.0518e-05
9570.0 9.0079e-05
9590.0 8.9648e-05
9610.0 8.9215e-05
9630.0 8.8779e-05
9650.0 8.8347e-05
9670.0 8.7927e-05
9690.0 8.7501e-05
9710.0 8.7076e-05
9730.0 8.6661e-05
9750.0 8.6246e-05
9770.0 8.5823e-05
9790.0 8.541e-05
9810.0 8.5003e-05
9830.0 8.4589e-05
9850.0 8.4159e-05
9870.0 8.3762e-05
9890.0 8.3364e-05
9910.0 8.2959e-05
9930.0 8.2558e-05
9950.0 8.212e-05
9970.0 8.1726e-05
9990.0 8.1324e-05
10010.0 8.0904e-05
10030.0 8.0496e-05
10050.0 8.011e-05
10070.0 7.9723e-05
10090.0 7.9337e-05
10110.0 7.8906e-05
10130.0 7.8323e-05
10150.0 7.7951e-05
10170.0 7.7612e-05
10190.0 7.723e-05
10210.0 7.6854e-05
10230.0 7.6473e-05
10250.0 7.6058e-05
10270.0 7.5642e-05
10290.0 7.5242e-05
10310.0 7.4818e-05
10330.0 7.4372e-05
10350.0 7.3952e-05
10370.0 7.3531e-05
10390.0 7.3084e-05
10410.0 7.2639e-05
10430.0 7.2219e-05
10450.0 7.1772e-05
10470.0 7.131e-05
10490.0 7.0866e-05
10510.0 7.0421e-05
10530.0 6.9935e-05
10550.0 6.9462e-05
10570.0 6.9008e-05
10590.0 6.853e-05
10610.0 6.8036e-05
10630.0 6.7564e-05
10650.0 6.7084e-05
10670.0 6.657e-05
10690.0 6.6066e-05
10710.0 6.5573e-05
10730.0 6.5055e-05
10750.0 6.4511e-05
10770.0 6.4005e-05
10790.0 6.3484e-05
10810.0 6.2936e-05
10830.0 6.2395e-05
10850.0 6.1871e-05
10870.0 6.1301e-05
10890.0 6.0728e-05
10910.0 6.0177e-05
10930.0 5.9616e-05
10950.0 5.903e-05
10970.0 5.846e-05
10990.0 5.7915e-05
11010.0 5.5575e-05
11030.0 5.4966e-05
11050.0 5.4399e-05
11070.0 5.3844e-05
11090.0 5.3278e-05
11110.0 5.2767e-05
11130.0 5.2288e-05
11150.0 5.1817e-05
11170.0 5.1373e-05
11190.0 5.0978e-05
11210.0 5.0602e-05
11230.0 5.0245e-05
11250.0 4.9932e-05
11270.0 4.9652e-05
11290.0 4.9388e-05
11310.0 4.9152e-05
11330.0 4.8952e-05
11350.0 4.8764e-05
11370.0 4.8586e-05
11390.0 4.8425e-05
11410.0 4.827e-05
11430.0 4.8105e-05
11450.0 4.7938e-05
11470.0 4.7765e-05
11490.0 4.7573e-05
11510.0 4.7356e-05
11530.0 4.7125e-05
11550.0 4.6873e-05
11570.0 4.6585e-05
11590.0 4.627e-05
11610.0 4.5938e-05
11630.0 4.5563e-05
11650.0 4.5145e-05
11670.0 4.4714e-05
11690.0 4.425e-05
11710.0 4.3737e-05
11730.0 4.3193e-05
11750.0 4.2636e-05
11770.0 4.2024e-05
11790.0 4.1368e-05
11810.0 4.07e-05
11830.0 4.0004e-05
11850.0 3.9244e-05
11870.0 3.8481e-05
11890.0 3.7727e-05
11910.0 3.694e-05
11930.0 3.6141e-05
11950.0 3.5376e-05
11970.0 3.4614e-05
11990.0 3.3839e-05
12010.0 3.3107e-05
12030.0 3.2415e-05
12050.0 3.1734e-05
12070.0 3.1074e-05
12090.0 3.0486e-05
12110.0 2.9925e-05
12130.0 2.9387e-05
12150.0 2.89e-05
12170.0 2.8464e-05
12190.0 2.8047e-05
12210.0 2.7679e-05
12230.0 2.7367e-05
12250.0 2.7097e-05
12270.0 2.6867e-05
12290.0 2.6689e-05
12310.0 2.6556e-05
12330.0 2.646e-05
12350.0 2.6404e-05
12370.0 2.6381e-05
12390.0 2.6386e-05
12410.0 2.6422e-05
12430.0 2.6473e-05
12450.0 2.6538e-05
12470.0 2.6617e-05
12490.0 2.6704e-05
12510.0 2.6789e-05
12530.0 2.6879e-05
12550.0 2.697e-05
12570.0 2.7051e-05
12590.0 2.7121e-05
12610.0 2.7185e-05
12630.0 2.7231e-05
12650.0 2.7251e-05
12670.0 2.7251e-05
12690.0 2.7223e-05
12710.0 2.7164e-05
12730.0 2.7074e-05
12750.0 2.6947e-05
12770.0 2.6785e-05
12790.0 2.6594e-05
12810.0 2.637e-05
12830.0 2.6112e-05
12850.0 2.5841e-05
12870.0 2.5553e-05
12890.0 2.5245e-05
12910.0 2.4932e-05
12930.0 2.4625e-05
12950.0 2.431e-05
12970.0 2.3996e-05
12990.0 2.3704e-05
13010.0 2.3421e-05
13030.0 2.3142e-05
13050.0 2.2881e-05
13070.0 2.2639e-05
13090.0 2.2401e-05
13110.0 2.2173e-05
13130.0 2.1963e-05
13150.0 2.1763e-05
13170.0 2.1565e-05
13190.0 2.1383e-05
13210.0 2.1215e-05
13230.0 2.1051e-05
13250.0 2.0894e-05
13270.0 2.0751e-05
13290.0 2.0613e-05
13310.0 2.0477e-05
13330.0 2.0348e-05
13350.0 2.0225e-05
13370.0 2.01e-05
13390.0 1.9973e-05
13410.0 1.9849e-05
13430.0 1.9721e-05
13450.0 1.9584e-05
13470.0 1.9442e-05
13490.0 1.9297e-05
13510.0 1.9136e-05
13530.0 1.8967e-05
13550.0 1.8795e-05
13570.0 1.8614e-05
13590.0 1.8419e-05
13610.0 1.8224e-05
13630.0 1.8028e-05
13650.0 1.782e-05
13670.0 1.7611e-05
13690.0 1.7407e-05
13710.0 1.7199e-05
13730.0 1.6983e-05
13750.0 1.6779e-05
13770.0 1.6578e-05
13790.0 1.6374e-05
13810.0 1.6174e-05
13830.0 1.5986e-05
13850.0 1.5796e-05
13870.0 1.5607e-05
13890.0 1.543e-05
13910.0 1.5262e-05
13930.0 1.5094e-05
13950.0 1.4936e-05
13970.0 1.4795e-05
13990.0 1.4658e-05
14010.0 1.4529e-05
14030.0 1.4414e-05
14050.0 1.4308e-05
14070.0 1.4205e-05
14090.0 1.4113e-05
14110.0 1.403e-05
14130.0 1.3951e-05
14150.0 1.3875e-05
14170.0 1.3807e-05
14190.0 1.3742e-05
14210.0 1.3678e-05
14230.0 1.3616e-05
14250.0 1.3558e-05
14270.0 1.3498e-05
14290.0 1.3437e-05
14310.0 1.3379e-05
14330.0 1.3321e-05
14350.0 1.3261e-05
14370.0 1.3202e-05
14390.0 1.3144e-05
14410.0 1.3084e-05
14430.0 1.3024e-05
14450.0 1.2967e-05
14470.0 1.2909e-05
14490.0 1.285e-05
14510.0 1.2794e-05
14530.0 1.274e-05
14550.0 1.2683e-05
14570.0 1.2626e-05
14590.0 1.2571e-05
14610.0 1.2512e-05
14630.0 1.245e-05
14650.0 1.2387e-05
14670.0 1.2325e-05
14690.0 1.2262e-05
14710.0 1.22e-05
14730.0 1.2149e-05
14750.0 1.2105e-05
14770.0 1.2074e-05
14790.0 1.2063e-05
14810.0 1.2074e-05
14830.0 1.2112e-05
14850.0 1.2182e-05
14870.0 1.2279e-05
14890.0 1.2408e-05
14910.0 1.2567e-05
14930.0 1.2741e-05
14950.0 1.292e-05
14970.0 1.3104e-05
14990.0 1.3273e-05
15010.0 1.3416e-05
15030.0 1.3535e-05
15050.0 1.363e-05
15070.0 1.3697e-05
15090.0 1.3746e-05
15110.0 1.3783e-05
15130.0 1.3811e-05
15150.0 1.3836e-05
15170.0 1.3859e-05
15190.0 1.3881e-05
15210.0 1.3904e-05
15230.0 1.3926e-05
15250.0 1.3949e-05
15270.0 1.3973e-05
15290.0 1.3997e-05
15310.0 1.4022e-05
15330.0 1.4047e-05
15350.0 1.4072e-05
15370.0 1.4099e-05
15390.0 1.4125e-05
15410.0 1.4152e-05
15430.0 1.418e-05
15450.0 1.4208e-05
15470.0 1.4236e-05
15490.0 1.4265e-05
15510.0 1.4295e-05
15530.0 1.4325e-05
15550.0 1.4355e-05
15570.0 1.4386e-05
15590.0 1.4417e-05
15610.0 1.4448e-05
15630.0 1.448e-05
15650.0 1.4513e-05
15670.0 1.4546e-05
15690.0 1.4579e-05
15710.0 1.4612e-05
15730.0 1.4646e-05
15750.0 1.468e-05
15770.0 1.4715e-05
15790.0 1.475e-05
15810.0 1.4785e-05
15830.0 1.4821e-05
15850.0 1.4857e-05
15870.0 1.4893e-05
15890.0 1.493e-05
15910.0 1.4966e-05
15930.0 1.5004e-05
15950.0 1.5041e-05
15970.0 1.5079e-05
15990.0 1.5116e-05
16010.0 1.5154e-05
16030.0 1.5193e-05
16050.0 1.5231e-05
16070.0 1.527e-05
16090.0 1.5309e-05
16110.0 1.5348e-05
16130.0 1.5387e-05
16150.0 1.5427e-05
16170.0 1.5466e-05
16190.0 1.5506e-05
16210.0 1.5546e-05
16230.0 1.5586e-05
16250.0 1.5626e-05
16270.0 1.5666e-05
16290.0 1.5706e-05
16310.0 1.5746e-05
16330.0 1.5786e-05
16350.0 1.5827e-05
16370.0 1.5867e-05
16390.0 1.5907e-05
16410.0 1.5948e-05
16430.0 1.5988e-05
16450.0 1.6028e-05
16470.0 1.6068e-05
16490.0 1.6108e-05
16510.0 1.6148e-05
16530.0 1.6188e-05
16550.0 1.6228e-05
16570.0 1.6267e-05
16590.0 1.6307e-05
16610.0 1.6346e-05
16630.0 1.6386e-05
16650.0 1.6424e-05
16670.0 1.6463e-05
16690.0 1.6502e-05
16710.0 1.654e-05
16730.0 1.6578e-05
16750.0 1.6616e-05
16770.0 1.6654e-05
16790.0 1.6691e-05
16810.0 1.6728e-05
16830.0 1.6765e-05
16850.0 1.6801e-05
16870.0 1.6837e-05
16890.0 1.6873e-05
16910.0 1.6908e-05
16930.0 1.6943e-05
16950.0 1.6977e-05
16970.0 1.7011e-05
16990.0 1.7045e-05
17010.0 1.7078e-05
17030.0 1.711e-05
17050.0 1.7143e-05
17070.0 1.7174e-05
17090.0 1.7205e-05
17110.0 1.7236e-05
17130.0 1.7266e-05
17150.0 1.7296e-05
17170.0 1.7325e-05
17190.0 1.7353e-05
17210.0 1.7381e-05
17230.0 1.7408e-05
17250.0 1.7435e-05
17270.0 1.746e-05
17290.0 1.7486e-05
17310.0 1.751e-05
17330.0 1.7534e-05
17350.0 1.7557e-05
17370.0 1.758e-05
17390.0 1.7602e-05
17410.0 1.7623e-05
17430.0 1.7643e-05
17450.0 1.7663e-05
17470.0 1.7682e-05
17490.0 1.77e-05
17510.0 1.7718e-05
17530.0 1.7734e-05
17550.0 1.775e-05
17570.0 1.7765e-05
17590.0 1.7779e-05
17610.0 1.7792e-05
17630.0 1.7805e-05
17650.0 1.7816e-05
17670.0 1.7827e-05
17690.0 1.7837e-05
17710.0 1.7846e-05
17730.0 1.7854e-05
17750.0 1.7861e-05
17770.0 1.7868e-05
17790.0 1.7873e-05
17810.0 1.7878e-05
17830.0 1.7882e-05
17850.0 1.7884e-05
17870.0 1.7886e-05
17890.0 1.7887e-05
17910.0 1.7887e-05
17930.0 1.7886e-05
17950.0 1.7884e-05
17970.0 1.7881e-05
17990.0 1.7877e-05
18010.0 1.7872e-05
18030.0 1.7866e-05
18050.0 1.7859e-05
18070.0 1.7852e-05
18090.0 1.7843e-05
18110.0 1.7833e-05
18130.0 1.7823e-05
18150.0 1.7811e-05
18170.0 1.7798e-05
18190.0 1.7785e-05
18210.0 1.777e-05
18230.0 1.7754e-05
18250.0 1.7738e-05
18270.0 1.772e-05
18290.0 1.7702e-05
18310.0 1.7682e-05
18330.0 1.7662e-05
18350.0 1.764e-05
18370.0 1.7618e-05
18390.0 1.7594e-05
18410.0 1.757e-05
18430.0 1.7545e-05
18450.0 1.7518e-05
18470.0 1.7491e-05
18490.0 1.7463e-05
18510.0 1.7433e-05
18530.0 1.7403e-05
18550.0 1.7372e-05
18570.0 1.734e-05
18590.0 1.7307e-05
18610.0 1.7273e-05
18630.0 1.7238e-05
18650.0 1.7203e-05
18670.0 1.7166e-05
18690.0 1.7128e-05
18710.0 1.709e-05
18730.0 1.705e-05
18750.0 1.701e-05
18770.0 1.6969e-05
18790.0 1.6927e-05
18810.0 1.6884e-05
18830.0 1.684e-05
18850.0 1.6796e-05
18870.0 1.675e-05
18890.0 1.6704e-05
18910.0 1.6657e-05
18930.0 1.6609e-05
18950.0 1.6561e-05
18970.0 1.6511e-05
18990.0 1.6461e-05
19010.0 1.641e-05
19030.0 1.6358e-05
19050.0 1.6306e-05
19070.0 1.6252e-05
19090.0 1.6198e-05
19110.0 1.6144e-05
19130.0 1.6088e-05
19150.0 1.6032e-05
19170.0 1.5975e-05
19190.0 1.5918e-05
19210.0 1.5859e-05
19230.0 1.5801e-05
19250.0 1.5741e-05
19270.0 1.5681e-05
19290.0 1.562e-05
19310.0 1.5559e-05
19330.0 1.5497e-05
19350.0 1.5435e-05
19370.0 1.5372e-05
19390.0 1.5308e-05
19410.0 1.5244e-05
19430.0 1.5179e-05
19450.0 1.5114e-05
19470.0 1.5048e-05
19490.0 1.4982e-05
19510.0 1.4915e-05
19530.0 1.4848e-05
19550.0 1.4781e-05
19570.0 1.4713e-05
19590.0 1.4644e-05
19610.0 1.4575e-05
19630.0 1.4506e-05
19650.0 1.4436e-05
19670.0 1.4366e-05
19690.0 1.4296e-05
19710.0 1.4225e-05
19730.0 1.4154e-05
19750.0 1.4082e-05
19770.0 1.401e-05
19790.0 1.3938e-05
19810.0 1.3866e-05
19830.0 1.3793e-05
19850.0 1.3719e-05
19870.0 1.3644e-05
19890.0 1.3566e-05
19910.0 1.3484e-05
19930.0 1.3395e-05
19950.0 1.3296e-05
19970.0 1.3181e-05
19990.0 1.3048e-05
20010.0 1.2899e-05
20030.0 1.2728e-05
20050.0 1.2537e-05
20070.0 1.2334e-05
20090.0 1.2121e-05
20110.0 1.1892e-05
20130.0 1.1665e-05
20150.0 1.1442e-05
20170.0 1.1217e-05
20190.0 1.0992e-05
20210.0 1.0778e-05
20230.0 1.0568e-05
20250.0 1.0358e-05
20270.0 1.0158e-05
20290.0 9.9672e-06
20310.0 9.78e-06
20330.0 9.5966e-06
20350.0 9.4294e-06
20370.0 9.2687e-06
20390.0 9.1135e-06
20410.0 8.969e-06
20430.0 8.8357e-06
20450.0 8.707e-06
20470.0 8.5876e-06
20490.0 8.4789e-06
20510.0 8.3778e-06
20530.0 8.2833e-06
20550.0 8.1974e-06
20570.0 8.1192e-06
20590.0 8.0463e-06
20610.0 7.9793e-06
20630.0 7.9176e-06
20650.0 7.86e-06
20670.0 7.8061e-06
20690.0 7.7551e-06
20710.0 7.7062e-06
20730.0 7.6587e-06
20750.0 7.6119e-06
20770.0 7.5648e-06
20790.0 7.5171e-06
20810.0 7.4684e-06
20830.0 7.4177e-06
20850.0 7.365e-06
20870.0 7.3096e-06
20890.0 7.2512e-06
20910.0 7.1902e-06
20930.0 7.126e-06
20950.0 7.0582e-06
20970.0 6.9878e-06
20990.0 6.9149e-06
21010.0 6.838e-06
21030.0 6.7588e-06
21050.0 6.6783e-06
21070.0 6.5952e-06
21090.0 6.509e-06
21110.0 6.4233e-06
21130.0 6.337e-06
21150.0 6.2485e-06
21170.0 6.16e-06
21190.0 6.0729e-06
21210.0 5.9843e-06
21230.0 5.8952e-06
21250.0 5.8087e-06
21270.0 5.7231e-06
21290.0 5.6371e-06
21310.0 5.5529e-06
21330.0 5.4719e-06
21350.0 5.3912e-06
21370.0 5.3119e-06
21390.0 5.2358e-06
21410.0 5.1621e-06
21430.0 5.0887e-06
21450.0 5.0192e-06
21470.0 4.9531e-06
21490.0 4.8889e-06
21510.0 4.8271e-06
21530.0 4.7691e-06
21550.0 4.7136e-06
21570.0 4.66e-06
21590.0 4.6095e-06
21610.0 4.5616e-06
21630.0 4.5156e-06
21650.0 4.4714e-06
21670.0 4.4295e-06
21690.0 4.389e-06
21710.0 4.3497e-06
21730.0 4.3115e-06
21750.0 4.2742e-06
21770.0 4.2374e-06
21790.0 4.2011e-06
21810.0 4.1652e-06
21830.0 4.1294e-06
21850.0 4.0936e-06
21870.0 4.0578e-06
21890.0 4.022e-06
21910.0 3.9859e-06
21930.0 3.9495e-06
21950.0 3.9131e-06
21970.0 3.8763e-06
21990.0 3.8388e-06
22010.0 3.8013e-06
22030.0 3.7634e-06
22050.0 3.7248e-06
22070.0 3.6856e-06
22090.0 3.6463e-06
22110.0 3.6062e-06
22130.0 3.565e-06
22150.0 3.5236e-06
22170.0 3.4817e-06
22190.0 3.4384e-06
22210.0 3.3943e-06
22230.0 3.3505e-06
22250.0 3.3055e-06
22270.0 3.2595e-06
22290.0 3.2135e-06
22310.0 3.1673e-06
22330.0 3.1195e-06
22350.0 3.0716e-06
22370.0 3.0241e-06
22390.0 2.9758e-06
22410.0 2.9265e-06
22430.0 2.8783e-06
22450.0 2.8303e-06
22470.0 2.7813e-06
22490.0 2.7329e-06
22510.0 2.6856e-06
22530.0 2.6376e-06
22550.0 2.5896e-06
22570.0 2.5434e-06
22590.0 2.498e-06
22610.0 2.4525e-06
22630.0 2.4084e-06
