#lamb flux
1010.0 2.7346e-06
1030.0 3.004e-06
1050.0 3.314e-06
1070.0 3.6629e-06
1090.0 4.0592e-06
1110.0 4.4656e-06
1130.0 4.8747e-06
1150.0 5.3033e-06
1170.0 5.7453e-06
1190.0 6.1644e-06
1210.0 6.5892e-06
1230.0 7.0282e-06
1250.0 7.4582e-06
1270.0 7.8759e-06
1290.0 8.3172e-06
1310.0 8.7581e-06
1330.0 9.181e-06
1350.0 9.6086e-06
1370.0 1.005e-05
1390.0 1.048e-05
1410.0 1.0898e-05
1430.0 1.1334e-05
1450.0 1.1771e-05
1470.0 1.2193e-05
1490.0 1.2619e-05
1510.0 1.3069e-05
1530.0 1.3495e-05
1550.0 1.3916e-05
1570.0 1.4351e-05
1590.0 1.4786e-05
1610.0 1.5202e-05
1630.0 1.563e-05
1650.0 1.607e-05
1670.0 1.6495e-05
1690.0 1.6914e-05
1710.0 1.7349e-05
1730.0 1.7786e-05
1750.0 1.8196e-05
1770.0 1.8617e-05
1790.0 1.9047e-05
1810.0 1.9462e-05
1830.0 1.9868e-05
1850.0 2.0299e-05
1870.0 2.0717e-05
1890.0 2.1119e-05
1910.0 2.1527e-05
1930.0 2.1944e-05
1950.0 2.2338e-05
1970.0 2.2724e-05
1990.0 2.3124e-05
2010.0 2.3512e-05
2030.0 2.3881e-05
2050.0 2.4259e-05
2070.0 2.4642e-05
2090.0 2.4995e-05
2110.0 2.5341e-05
2130.0 2.5692e-05
2150.0 2.6029e-05
2170.0 2.634e-05
2190.0 2.6657e-05
2210.0 2.6968e-05
2230.0 2.7252e-05
2250.0 2.7525e-05
2270.0 2.7804e-05
2290.0 2.8058e-05
2310.0 2.8284e-05
2330.0 2.851e-05
2350.0 2.8725e-05
2370.0 2.8913e-05
2390.0 2.9094e-05
2410.0 2.9288e-05
2430.0 2.947e-05
2450.0 2.9652e-05
2470.0 2.9873e-05
2490.0 3.0162e-05
2510.0 3.0525e-05
2530.0 3.1101e-05
2550.0 3.2101e-05
2570.0 3.3717e-05
2590.0 3.6172e-05
2610.0 4.0094e-05
2630.0 4.5552e-05
2650.0 5.217e-05
2670.0 5.9956e-05
2690.0 6.8537e-05
2710.0 7.6652e-05
2730.0 8.3741e-05
2750.0 8.9941e-05
2770.0 9.4657e-05
2790.0 9.7906e-05
2810.0 0.00010022
2830.0 0.00010199
2850.0 0.00010316
2870.0 0.0001041
2890.0 0.00010504
2910.0 0.00010592
2930.0 0.00010668
2950.0 0.00010751
2970.0 0.00010836
2990.0 0.00010911
3010.0 0.0010863
3030.0 0.0010938
3050.0 0.0011008
3070.0 0.0011056
3090.0 0.0011094
3110.0 0.0011106
3130.0 0.0011072
3150.0 0.0010986
3170.0 0.0010836
3190.0 0.0010628
3210.0 0.0010387
3230.0 0.0010139
3250.0 0.00099001
3270.0 0.00097755
3290.0 0.00097078
3310.0 0.00098364
3330.0 0.0010051
3350.0 0.0010354
3370.0 0.0010755
3390.0 0.0011236
3410.0 0.0011738
3430.0 0.0012278
3450.0 0.0012867
3470.0 0.0013473
3490.0 0.0014081
3510.0 0.0014725
3530.0 0.0015385
3550.0 0.0016078
3570.0 0.0016828
3590.0 0.0017613
3610.0 0.0018495
3630.0 0.001928
3650.0 0.0020068
3670.0 0.00207
3690.0 0.0021158
3710.0 0.0021426
3730.0 0.0021409
3750.0 0.0021407
3770.0 0.0021524
3790.0 0.0022156
3810.0 0.0023479
3830.0 0.002525
3850.0 0.0027787
3870.0 0.0031176
3890.0 0.0034999
3910.0 0.0038891
3930.0 0.0042065
3950.0 0.0044042
3970.0 0.0039259
3990.0 0.0030508
4010.0 0.0029428
4030.0 0.0035715
4050.0 0.0041492
4070.0 0.003663
4090.0 0.0025387
4110.0 0.002642
4130.0 0.0033365
4150.0 0.0036753
4170.0 0.0032637
4190.0 0.0029231
4210.0 0.003521
4230.0 0.0038214
4250.0 0.0037371
4270.0 0.0038037
4290.0 0.0035676
4310.0 0.003844
4330.0 0.0043963
4350.0 0.0051594
4370.0 0.0053481
4390.0 0.0051105
4410.0 0.0043977
4430.0 0.0035928
4450.0 0.0028053
4470.0 0.0028636
4490.0 0.0031975
4510.0 0.0041529
4530.0 0.0043993
4550.0 0.0044489
4570.0 0.0051316
4590.0 0.006592
4610.0 0.0090708
4630.0 0.010913
4650.0 0.01088
4670.0 0.01116
4690.0 0.012233
4710.0 0.012057
4730.0 0.0096477
4750.0 0.0069486
4770.0 0.005797
4790.0 0.0053372
4810.0 0.0049384
4830.0 0.0052124
4850.0 0.0060582
4870.0 0.0075175
4890.0 0.0079529
4910.0 0.0068583
4930.0 0.0068737
4950.0 0.0084919
4970.0 0.011025
4990.0 0.012886
5010.0 0.012884
5030.0 0.010613
5050.0 0.0074316
5070.0 0.0054683
5090.0 0.0047655
5110.0 0.0048576
5130.0 0.0053172
5150.0 0.0051299
5170.0 0.0051342
5190.0 0.0050651
5210.0 0.0050819
5230.0 0.0054318
5250.0 0.005642
5270.0 0.0063313
5290.0 0.0075949
5310.0 0.0083533
5330.0 0.0087232
5350.0 0.0091464
5370.0 0.0099247
5390.0 0.010214
5410.0 0.0092856
5430.0 0.008319
5450.0 0.0083769
5470.0 0.010083
5490.0 0.013088
5510.0 0.015806
5530.0 0.016789
5550.0 0.01623
5570.0 0.015149
5590.0 0.014022
5610.0 0.013447
5630.0 0.013641
5650.0 0.014007
5670.0 0.013628
5690.0 0.012972
5710.0 0.012571
5730.0 0.011031
5750.0 0.0085338
5770.0 0.0077615
5790.0 0.0087754
5810.0 0.0099702
5830.0 0.011183
5850.0 0.011693
5870.0 0.011457
5890.0 0.010639
5910.0 0.010039
5930.0 0.010217
5950.0 0.01088
5970.0 0.011084
5990.0 0.0099092
6010.0 0.0080461
6030.0 0.0064641
6050.0 0.0058738
6070.0 0.0063181
6090.0 0.0071259
6110.0 0.0071982
6130.0 0.0066474
6150.0 0.0065475
6170.0 0.0073094
6190.0 0.0087055
6210.0 0.01049
6230.0 0.011713
6250.0 0.011268
6270.0 0.0099004
6290.0 0.0081822
6310.0 0.0064554
6330.0 0.0054062
6350.0 0.0052953
6370.0 0.0058354
6390.0 0.0064871
6410.0 0.0075361
6430.0 0.0091272
6450.0 0.011229
6470.0 0.013507
6490.0 0.015553
6510.0 0.016383
6530.0 0.015677
6550.0 0.015055
6570.0 0.015088
6590.0 0.014848
6610.0 0.013918
6630.0 0.013057
6650.0 0.012305
6670.0 0.012289
6690.0 0.011985
6710.0 0.010808
6730.0 0.0094119
6750.0 0.0084972
6770.0 0.0088612
6790.0 0.0094665
6810.0 0.010134
6830.0 0.010328
6850.0 0.0098182
6870.0 0.0094351
6890.0 0.0092182
6910.0 0.0087275
6930.0 0.0083475
6950.0 0.0084541
6970.0 0.008718
6990.0 0.0093528
7010.0 0.010033
7030.0 0.00976
7050.0 0.0088585
7070.0 0.0078046
7090.0 0.0065997
7110.0 0.005976
7130.0 0.0063392
7150.0 0.0068335
7170.0 0.00687
7190.0 0.0066731
7210.0 0.0066462
7230.0 0.0075087
7250.0 0.0086883
7270.0 0.0095086
7290.0 0.0096633
7310.0 0.0090552
7330.0 0.0082221
7350.0 0.0075783
7370.0 0.0073042
7390.0 0.0073401
7410.0 0.0078001
7430.0 0.0088563
7450.0 0.0099132
7470.0 0.011158
7490.0 0.012443
7510.0 0.011542
7530.0 0.010101
7550.0 0.0085931
7570.0 0.0071936
7590.0 0.0058768
7610.0 0.0056494
7630.0 0.0060404
7650.0 0.0067612
7670.0 0.0077273
7690.0 0.0085167
7710.0 0.0095458
7730.0 0.010095
7750.0 0.010465
7770.0 0.010823
7790.0 0.010816
7810.0 0.010769
7830.0 0.010374
7850.0 0.010055
7870.0 0.0096364
7890.0 0.0088054
7910.0 0.0079633
7930.0 0.0071296
7950.0 0.0062631
7970.0 0.0059885
7990.0 0.0062323
8010.0 0.0069829
8030.0 0.0070403
8050.0 0.0072426
8070.0 0.0071478
8090.0 0.0071386
8110.0 0.0069338
8130.0 0.0065046
8150.0 0.00607
8170.0 0.0060142
8190.0 0.0061023
8210.0 0.0061666
8230.0 0.0058911
8250.0 0.005582
8270.0 0.0049148
8290.0 0.003988
8310.0 0.0030637
8330.0 0.0021411
8350.0 0.0015802
8370.0 0.0015078
8390.0 0.0017309
8410.0 0.0021
8430.0 0.0026078
8450.0 0.0028776
8470.0 0.0030652
8490.0 0.0033071
8510.0 0.0035228
8530.0 0.0038989
8550.0 0.004594
8570.0 0.0053037
8590.0 0.0059081
8610.0 0.0068365
8630.0 0.0079174
8650.0 0.0084098
8670.0 0.0084955
8690.0 0.0083656
8710.0 0.0080284
8730.0 0.0076957
8750.0 0.0072745
8770.0 0.0071196
8790.0 0.0068607
8810.0 0.0063522
8830.0 0.0059206
8850.0 0.0051188
8870.0 0.004633
8890.0 0.0042892
8910.0 0.0046432
8930.0 0.004452
8950.0 0.0045419
8970.0 0.0046128
8990.0 0.00461
9010.0 0.0046659
9030.0 0.0045344
9050.0 0.0045255
9070.0 0.0045296
9090.0 0.004534
9110.0 0.0045393
9130.0 0.0045441
9150.0 0.0045492
9170.0 0.0045494
9190.0 0.0045432
9210.0 0.0045824
9230.0 0.0045812
9250.0 0.0045845
9270.0 0.0045893
9290.0 0.0045952
9310.0 0.004602
9330.0 0.0046094
9350.0 0.0046174
9370.0 0.0046258
9390.0 0.0046345
9410.0 0.0046436
9430.0 0.0046531
9450.0 0.0046627
9470.0 0.0046728
9490.0 0.0046831
9510.0 0.0046938
9530.0 0.0047047
9550.0 0.004716
9570.0 0.0047276
9590.0 0.0047395
9610.0 0.0047517
9630.0 0.0047643
9650.0 0.0047771
9670.0 0.0047902
9690.0 0.0048036
9710.0 0.0048173
9730.0 0.0048312
9750.0 0.0048454
9770.0 0.00486
9790.0 0.0048747
9810.0 0.0048896
9830.0 0.0049049
9850.0 0.0049204
9870.0 0.0049359
9890.0 0.0049518
9910.0 0.0049678
9930.0 0.004984
9950.0 0.0049979
9970.0 0.0050152
9990.0 0.0050325
10010.0 0.0050479
10030.0 0.005065
10050.0 0.0050805
10070.0 0.0050876
10090.0 0.0051081
10110.0 0.0051281
10130.0 0.0051473
10150.0 0.0051659
10170.0 0.0051838
10190.0 0.0052008
10210.0 0.005218
10230.0 0.0052352
10250.0 0.0052518
10270.0 0.0052683
10290.0 0.0052851
10310.0 0.0053013
10330.0 0.005317
10350.0 0.005333
10370.0 0.0053489
10390.0 0.005364
10410.0 0.005379
10430.0 0.0053943
10450.0 0.0054088
10470.0 0.0054228
10490.0 0.0054369
10510.0 0.0054506
10530.0 0.0054634
10550.0 0.005476
10570.0 0.0054887
10590.0 0.0055006
10610.0 0.0055118
10630.0 0.0055231
10650.0 0.0055339
10670.0 0.0055437
10690.0 0.0055532
10710.0 0.0055625
10730.0 0.005571
10750.0 0.0055786
10770.0 0.0055863
10790.0 0.0055934
10810.0 0.0055994
10830.0 0.0056049
10850.0 0.0056097
10870.0 0.0056119
10890.0 0.0056111
10910.0 0.0056059
10930.0 0.0055929
10950.0 0.0055668
10970.0 0.0055255
10990.0 0.0054677
11010.0 0.0054176
11030.0 0.0053044
11050.0 0.005175
11070.0 0.0050268
11090.0 0.0048557
11110.0 0.0046858
11130.0 0.0045157
11150.0 0.0043412
11170.0 0.0041716
11190.0 0.0040179
11210.0 0.0038705
11230.0 0.0037318
11250.0 0.0036112
11270.0 0.0035059
11290.0 0.0034103
11310.0 0.0033283
11330.0 0.0032618
11350.0 0.0032026
11370.0 0.0031491
11390.0 0.0031016
11410.0 0.0030566
11430.0 0.0030085
11450.0 0.0029586
11470.0 0.0029062
11490.0 0.0028477
11510.0 0.0027814
11530.0 0.0027124
11550.0 0.0026394
11570.0 0.0025596
11590.0 0.0024779
11610.0 0.0023975
11630.0 0.0023143
11650.0 0.0022308
11670.0 0.0021537
11690.0 0.0020802
11710.0 0.0020088
11730.0 0.0019431
11750.0 0.0018847
11770.0 0.0018289
11790.0 0.0017771
11810.0 0.0017307
11830.0 0.0016877
11850.0 0.0016453
11870.0 0.001606
11890.0 0.0015688
11910.0 0.0015309
11930.0 0.0014925
11950.0 0.0014548
11970.0 0.001416
11990.0 0.0013748
12010.0 0.0013336
12030.0 0.0012927
12050.0 0.0012507
12070.0 0.0012083
12090.0 0.0011695
12110.0 0.0011321
12130.0 0.0010968
12150.0 0.001066
12170.0 0.0010402
12190.0 0.0010186
12210.0 0.0010033
12230.0 0.00099477
12250.0 0.00099261
12270.0 0.00099753
12290.0 0.0010089
12310.0 0.0010257
12330.0 0.001049
12350.0 0.0010774
12370.0 0.0011084
12390.0 0.0011427
12410.0 0.0011811
12430.0 0.0012176
12450.0 0.001253
12470.0 0.001288
12490.0 0.0013203
12510.0 0.0013476
12530.0 0.0013719
12550.0 0.0013923
12570.0 0.0014069
12590.0 0.0014165
12610.0 0.0014216
12630.0 0.0014217
12650.0 0.0014169
12670.0 0.0014081
12690.0 0.0013952
12710.0 0.0013792
12730.0 0.0013606
12750.0 0.0013386
12770.0 0.0013149
12790.0 0.0012901
12810.0 0.0012636
12830.0 0.0012354
12850.0 0.0012073
12870.0 0.0011785
12890.0 0.001148
12910.0 0.0011171
12930.0 0.0010861
12950.0 0.0010532
12970.0 0.0010187
12990.0 0.00098482
13010.0 0.00095019
13030.0 0.00091409
13050.0 0.00087837
13070.0 0.00084413
13090.0 0.00080944
13110.0 0.00077583
13130.0 0.00074506
13150.0 0.00071654
13170.0 0.00068971
13190.0 0.00066701
13210.0 0.0006483
13230.0 0.0006327
13250.0 0.00062087
13270.0 0.00061297
13290.0 0.00060836
13310.0 0.00060703
13330.0 0.00060859
13350.0 0.00061239
13370.0 0.00061834
13390.0 0.00062596
13410.0 0.00063386
13430.0 0.00064239
13450.0 0.00065125
13470.0 0.00065951
13490.0 0.00066691
13510.0 0.00067411
13530.0 0.00068024
13550.0 0.00068512
13570.0 0.00068923
13590.0 0.00069268
13610.0 0.00069523
13630.0 0.00069709
13650.0 0.00069866
13670.0 0.00069982
13690.0 0.00070056
13710.0 0.0007011
13730.0 0.00070149
13750.0 0.00070145
13770.0 0.00070108
13790.0 0.00070036
13810.0 0.00069911
13830.0 0.00069727
13850.0 0.00069476
13870.0 0.00069144
13890.0 0.00068736
13910.0 0.00068252
13930.0 0.00067674
13950.0 0.00067022
13970.0 0.00066341
13990.0 0.00065604
14010.0 0.00064833
14030.0 0.00064081
14050.0 0.00063349
14070.0 0.00062619
14090.0 0.00061956
14110.0 0.00061367
14130.0 0.00060835
14150.0 0.00060371
14170.0 0.00059998
14190.0 0.00059698
14210.0 0.00059469
14230.0 0.00059322
14250.0 0.0005925
14270.0 0.00059261
14290.0 0.00059361
14310.0 0.00059535
14330.0 0.00059791
14350.0 0.00060143
14370.0 0.00060565
14390.0 0.00061037
14410.0 0.00061595
14430.0 0.00062213
14450.0 0.00062853
14470.0 0.00063534
14490.0 0.00064292
14510.0 0.00065061
14530.0 0.00065852
14550.0 0.00066731
14570.0 0.00067694
14590.0 0.0006871
14610.0 0.00069859
14630.0 0.00071201
14650.0 0.00072662
14670.0 0.00074264
14690.0 0.00076105
14710.0 0.00078164
14730.0 0.00080266
14750.0 0.00082557
14770.0 0.00085032
14790.0 0.00087521
14810.0 0.00089983
14830.0 0.00092591
14850.0 0.00095084
14870.0 0.00097362
14890.0 0.00099509
14910.0 0.0010148
14930.0 0.0010313
14950.0 0.0010447
14970.0 0.0010556
14990.0 0.0010634
15010.0 0.0010682
15030.0 0.0010708
15050.0 0.0010715
15070.0 0.0010707
15090.0 0.0010691
15110.0 0.0010668
15130.0 0.0010641
15150.0 0.0010614
15170.0 0.0010586
15190.0 0.0010556
15210.0 0.0010528
15230.0 0.00105
15250.0 0.0010471
15270.0 0.0010443
15290.0 0.0010416
15310.0 0.0010389
15330.0 0.0010361
15350.0 0.0010335
15370.0 0.0010308
15390.0 0.0010281
15410.0 0.0010254
15430.0 0.0010228
15450.0 0.0010202
15470.0 0.0010175
15490.0 0.0010149
15510.0 0.0010124
15530.0 0.0010098
15550.0 0.0010072
15570.0 0.0010048
15590.0 0.0010022
15610.0 0.00099952
15630.0 0.00099706
15650.0 0.00099458
15670.0 0.000992
15690.0 0.00098949
15710.0 0.00098709
15730.0 0.00098455
15750.0 0.000982
15770.0 0.00097957
15790.0 0.00097711
15810.0 0.0009745
15830.0 0.00097202
15850.0 0.00096962
15870.0 0.0009671
15890.0 0.00096457
15910.0 0.00096218
15930.0 0.0009597
15950.0 0.00095711
15970.0 0.00095464
15990.0 0.0009522
16010.0 0.00094965
16030.0 0.00094706
16050.0 0.00094465
16070.0 0.00094216
16090.0 0.00093958
16110.0 0.00093708
16130.0 0.00093464
16150.0 0.00093199
16170.0 0.00092939
16190.0 0.00092691
16210.0 0.00092435
16230.0 0.0009217
16250.0 0.00091916
16270.0 0.00091666
16290.0 0.00091399
16310.0 0.00091136
16330.0 0.00090882
16350.0 0.00090619
16370.0 0.0009034
16390.0 0.00090081
16410.0 0.00089821
16430.0 0.00089548
16450.0 0.00089277
16470.0 0.00089019
16490.0 0.00088744
16510.0 0.00088464
16530.0 0.00088195
16550.0 0.00087925
16570.0 0.0008764
16590.0 0.00087357
16610.0 0.0008709
16630.0 0.00086808
16650.0 0.00086521
16670.0 0.00086245
16690.0 0.00085967
16710.0 0.00085668
16730.0 0.0008538
16750.0 0.00085099
16770.0 0.00084806
16790.0 0.00084506
16810.0 0.00084221
16830.0 0.00083932
16850.0 0.00083629
16870.0 0.00083333
16890.0 0.00083043
16910.0 0.00082736
16930.0 0.00082425
16950.0 0.00082129
16970.0 0.00081828
16990.0 0.00081514
17010.0 0.00081208
17030.0 0.0008091
17050.0 0.00080593
17070.0 0.00080277
17090.0 0.0007997
17110.0 0.00079657
17130.0 0.00079328
17150.0 0.00079012
17170.0 0.00078702
17190.0 0.00078378
17210.0 0.00078052
17230.0 0.00077739
17250.0 0.00077415
17270.0 0.00077078
17290.0 0.00076753
17310.0 0.00076431
17330.0 0.00076095
17350.0 0.00075756
17370.0 0.00075435
17390.0 0.00075102
17410.0 0.00074761
17430.0 0.00074428
17450.0 0.00074099
17470.0 0.00073748
17490.0 0.00073404
17510.0 0.00073071
17530.0 0.00072728
17550.0 0.00072377
17570.0 0.00072037
17590.0 0.00071699
17610.0 0.00071345
17630.0 0.00070995
17650.0 0.00070654
17670.0 0.00070304
17690.0 0.00069938
17710.0 0.00069593
17730.0 0.00069246
17750.0 0.00068886
17770.0 0.0006853
17790.0 0.00068186
17810.0 0.00067825
17830.0 0.0006746
17850.0 0.00067106
17870.0 0.00066751
17890.0 0.00066382
17910.0 0.00066018
17930.0 0.00065667
17950.0 0.00065303
17970.0 0.00064935
17990.0 0.00064579
18010.0 0.0006422
18030.0 0.00063842
18050.0 0.00063477
18070.0 0.00063118
18090.0 0.00062748
18110.0 0.00062373
18130.0 0.00062014
18150.0 0.0006165
18170.0 0.00061275
18190.0 0.00060907
18210.0 0.00060546
18230.0 0.00060169
18250.0 0.00059789
18270.0 0.00059427
18290.0 0.00059058
18310.0 0.0005868
18330.0 0.00058311
18350.0 0.00057949
18370.0 0.0005757
18390.0 0.00057193
18410.0 0.00056828
18430.0 0.00056457
18450.0 0.00056071
18470.0 0.00055701
18490.0 0.00055336
18510.0 0.00054959
18530.0 0.00054583
18550.0 0.00054219
18570.0 0.00053845
18590.0 0.00053462
18610.0 0.00053091
18630.0 0.00052724
18650.0 0.00052344
18670.0 0.00051965
18690.0 0.00051603
18710.0 0.0005123
18730.0 0.00050851
18750.0 0.00050483
18770.0 0.00050119
18790.0 0.00049734
18810.0 0.00049358
18830.0 0.00048994
18850.0 0.00048622
18870.0 0.00048243
18890.0 0.00047878
18910.0 0.00047514
18930.0 0.00047136
18950.0 0.00046764
18970.0 0.00046402
18990.0 0.00046031
19010.0 0.00045648
19030.0 0.00045287
19050.0 0.00044923
19070.0 0.00044549
19090.0 0.00044181
19110.0 0.00043825
19130.0 0.00043453
19150.0 0.00043079
19170.0 0.00042719
19190.0 0.00042357
19210.0 0.00041983
19230.0 0.00041616
19250.0 0.00041263
19270.0 0.00040897
19290.0 0.00040529
19310.0 0.00040174
19330.0 0.00039817
19350.0 0.00039443
19370.0 0.00039083
19390.0 0.0003873
19410.0 0.00038367
19430.0 0.00038002
19450.0 0.00037652
19470.0 0.00037298
19490.0 0.00036934
19510.0 0.00036579
19530.0 0.00036231
19550.0 0.00035869
19570.0 0.00035506
19590.0 0.00035161
19610.0 0.0003481
19630.0 0.00034451
19650.0 0.00034102
19670.0 0.0003376
19690.0 0.00033403
19710.0 0.00033049
19730.0 0.00032706
19750.0 0.00032359
19770.0 0.00032
19790.0 0.00031657
19810.0 0.00031317
19830.0 0.00030967
19850.0 0.00030617
19870.0 0.00030275
19890.0 0.00029916
19910.0 0.00029533
19930.0 0.00029141
19950.0 0.00028716
19970.0 0.0002823
19990.0 0.00027685
20010.0 0.00027107
20030.0 0.00026455
20050.0 0.00025743
20070.0 0.00025026
20090.0 0.00024309
20110.0 0.00023562
20130.0 0.0002287
20150.0 0.00022243
20170.0 0.00021651
20190.0 0.0002111
20210.0 0.00020648
20230.0 0.00020243
20250.0 0.00019882
20270.0 0.00019586
20290.0 0.00019348
20310.0 0.00019155
20330.0 0.00019008
20350.0 0.00018914
20370.0 0.0001886
20390.0 0.00018846
20410.0 0.00018871
20430.0 0.00018931
20450.0 0.00019032
20470.0 0.00019172
20490.0 0.00019342
20510.0 0.00019547
20530.0 0.00019796
20550.0 0.00020073
20570.0 0.00020367
20590.0 0.000207
20610.0 0.00021058
20630.0 0.00021419
20650.0 0.00021797
20670.0 0.00022201
20690.0 0.00022588
20710.0 0.00022963
20730.0 0.00023342
20750.0 0.00023711
20770.0 0.00024048
20790.0 0.00024379
20810.0 0.00024707
20830.0 0.00025015
20850.0 0.00025311
20870.0 0.00025622
20890.0 0.00025935
20910.0 0.00026239
20930.0 0.00026561
20950.0 0.00026903
20970.0 0.00027246
20990.0 0.00027591
21010.0 0.00027961
21030.0 0.00028325
21050.0 0.0002867
21070.0 0.00029007
21090.0 0.00029332
21110.0 0.00029611
21130.0 0.00029852
21150.0 0.00030061
21170.0 0.00030222
21190.0 0.0003033
21210.0 0.00030394
21230.0 0.00030406
21250.0 0.00030367
21270.0 0.00030282
21290.0 0.00030148
21310.0 0.00029969
21330.0 0.00029758
21350.0 0.00029504
21370.0 0.00029212
21390.0 0.000289
21410.0 0.00028565
21430.0 0.00028188
21450.0 0.00027807
21470.0 0.00027427
21490.0 0.0002703
21510.0 0.00026626
21530.0 0.00026244
21550.0 0.0002587
21570.0 0.00025496
21590.0 0.00025152
21610.0 0.00024841
21630.0 0.00024551
21650.0 0.0002429
21670.0 0.00024084
21690.0 0.00023913
21710.0 0.00023783
21730.0 0.00023702
21750.0 0.00023667
21770.0 0.00023678
21790.0 0.0002374
21810.0 0.00023844
21830.0 0.00023993
21850.0 0.00024193
21870.0 0.00024429
21890.0 0.00024692
21910.0 0.00025001
21930.0 0.00025341
21950.0 0.00025696
21970.0 0.00026079
21990.0 0.00026501
22010.0 0.00026919
22030.0 0.0002734
22050.0 0.00027782
22070.0 0.00028226
22090.0 0.00028646
22110.0 0.00029069
22130.0 0.00029489
22150.0 0.00029878
22170.0 0.00030239
22190.0 0.00030589
22210.0 0.00030901
22230.0 0.0003116
22250.0 0.00031384
22270.0 0.00031564
22290.0 0.00031686
22310.0 0.00031756
22330.0 0.00031771
22350.0 0.00031722
22370.0 0.00031616
22390.0 0.00031446
22410.0 0.00031205
22430.0 0.00030914
22450.0 0.00030569
22470.0 0.00030154
22490.0 0.0002969
22510.0 0.00029195
22530.0 0.00028635
22550.0 0.00028022
22570.0 0.00027402
22590.0 0.00026754
22610.0 0.0002606
22630.0 0.00025358
22650.0 0.00024675
22670.0 0.0002396
22690.0 0.00023238
22710.0 0.00022546
22730.0 0.00021866
22750.0 0.00021164
22770.0 0.00020511
22790.0 0.00019902
22810.0 0.00019305
22830.0 0.00018738
22850.0 0.00018235
22870.0 0.00017767
22890.0 0.00017331
22910.0 0.0001696
22930.0 0.00016649
22950.0 0.00016386
22970.0 0.00016182
22990.0 0.00016053
23010.0 0.00015981
23030.0 0.00015975
23050.0 0.00016032
23070.0 0.00016148
23090.0 0.00016332
23110.0 0.00016576
23130.0 0.00016864
23150.0 0.00017201
23170.0 0.00017594
23190.0 0.00018009
23210.0 0.00018438
23230.0 0.00018903
23250.0 0.00019375
