#lamb flux
1010.0 5.2225e-08
1030.0 5.8831e-08
1050.0 6.6429e-08
1070.0 7.4983e-08
1090.0 8.4699e-08
1110.0 9.4663e-08
1130.0 1.0469e-07
1150.0 1.152e-07
1170.0 1.2604e-07
1190.0 1.3631e-07
1210.0 1.4673e-07
1230.0 1.5749e-07
1250.0 1.6803e-07
1270.0 1.7827e-07
1290.0 1.8909e-07
1310.0 1.999e-07
1330.0 2.1027e-07
1350.0 2.2076e-07
1370.0 2.3158e-07
1390.0 2.4214e-07
1410.0 2.5237e-07
1430.0 2.6308e-07
1450.0 2.7378e-07
1470.0 2.8412e-07
1490.0 2.9457e-07
1510.0 3.0561e-07
1530.0 3.1606e-07
1550.0 3.2637e-07
1570.0 3.3703e-07
1590.0 3.477e-07
1610.0 3.5788e-07
1630.0 3.6838e-07
1650.0 3.7914e-07
1670.0 3.8953e-07
1690.0 3.9979e-07
1710.0 4.1042e-07
1730.0 4.211e-07
1750.0 4.3111e-07
1770.0 4.414e-07
1790.0 4.5187e-07
1810.0 4.6196e-07
1830.0 4.7184e-07
1850.0 4.823e-07
1870.0 4.9242e-07
1890.0 5.0213e-07
1910.0 5.1198e-07
1930.0 5.22e-07
1950.0 5.3145e-07
1970.0 5.4069e-07
1990.0 5.5019e-07
2010.0 5.5939e-07
2030.0 5.681e-07
2050.0 5.7695e-07
2070.0 5.8589e-07
2090.0 5.9405e-07
2110.0 6.0199e-07
2130.0 6.1e-07
2150.0 6.1757e-07
2170.0 6.2447e-07
2190.0 6.3145e-07
2210.0 6.382e-07
2230.0 6.4424e-07
2250.0 6.4991e-07
2270.0 6.5566e-07
2290.0 6.6073e-07
2310.0 6.6503e-07
2330.0 6.6925e-07
2350.0 6.7316e-07
2370.0 6.7634e-07
2390.0 6.7936e-07
2410.0 6.8271e-07
2430.0 6.8589e-07
2450.0 6.8921e-07
2470.0 6.936e-07
2490.0 6.9943e-07
2510.0 7.0619e-07
2530.0 7.1616e-07
2550.0 7.3256e-07
2570.0 7.5833e-07
2590.0 7.9786e-07
2610.0 8.6355e-07
2630.0 9.589e-07
2650.0 1.0793e-06
2670.0 1.2267e-06
2690.0 1.3957e-06
2710.0 1.5606e-06
2730.0 1.7082e-06
2750.0 1.8397e-06
2770.0 1.9393e-06
2790.0 2.0049e-06
2810.0 2.046e-06
2830.0 2.0693e-06
2850.0 2.0746e-06
2870.0 2.0709e-06
2890.0 2.063e-06
2910.0 2.0519e-06
2930.0 2.0383e-06
2950.0 2.0251e-06
2970.0 2.0123e-06
2990.0 1.999e-06
3010.0 4.6713e-05
3030.0 4.6401e-05
3050.0 4.6093e-05
3070.0 4.5753e-05
3090.0 4.5397e-05
3110.0 4.498e-05
3130.0 4.4446e-05
3150.0 4.3769e-05
3170.0 4.2893e-05
3190.0 4.1838e-05
3210.0 4.0687e-05
3230.0 3.9517e-05
3250.0 3.8485e-05
3270.0 3.7774e-05
3290.0 3.7471e-05
3310.0 3.7645e-05
3330.0 3.8312e-05
3350.0 3.9374e-05
3370.0 4.0853e-05
3390.0 4.2699e-05
3410.0 4.4705e-05
3430.0 4.6965e-05
3450.0 4.9567e-05
3470.0 5.2401e-05
3490.0 5.5394e-05
3510.0 5.8754e-05
3530.0 6.2345e-05
3550.0 6.6001e-05
3570.0 6.9873e-05
3590.0 7.4206e-05
3610.0 7.8782e-05
3630.0 8.3561e-05
3650.0 8.858e-05
3670.0 9.3276e-05
3690.0 9.6927e-05
3710.0 9.9111e-05
3730.0 9.9192e-05
3750.0 9.7125e-05
3770.0 9.0957e-05
3790.0 8.3087e-05
3810.0 7.4853e-05
3830.0 6.6309e-05
3850.0 5.5441e-05
3870.0 3.9648e-05
3890.0 5.7409e-05
3910.0 9.1096e-05
3930.0 0.0001113
3950.0 0.00011032
3970.0 0.00011665
3990.0 0.00013039
4010.0 0.0001735
4030.0 0.00017172
4050.0 0.00015129
4070.0 0.00014008
4090.0 0.0001332
4110.0 0.00015766
4130.0 0.0001695
4150.0 0.00017434
4170.0 0.00016953
4190.0 0.00016903
4210.0 0.00016966
4230.0 0.00019234
4250.0 0.00021226
4270.0 0.00021792
4290.0 0.00021711
4310.0 0.00021794
4330.0 0.00023743
4350.0 0.00027928
4370.0 0.00032009
4390.0 0.00029513
4410.0 0.00023068
4430.0 0.00019075
4450.0 0.00016472
4470.0 0.00015615
4490.0 0.00017769
4510.0 0.00021387
4530.0 0.00024045
4550.0 0.00027156
4570.0 0.00030967
4590.0 0.00036968
4610.0 0.00050149
4630.0 0.00062467
4650.0 0.00063194
4670.0 0.0005981
4690.0 0.00063718
4710.0 0.00067686
4730.0 0.00056906
4750.0 0.00039706
4770.0 0.00031805
4790.0 0.00031424
4810.0 0.00029577
4830.0 0.00028014
4850.0 0.00031815
4870.0 0.00041441
4890.0 0.00048062
4910.0 0.00040001
4930.0 0.00035537
4950.0 0.00039823
4970.0 0.00053613
4990.0 0.00070377
5010.0 0.0007616
5030.0 0.00062553
5050.0 0.00039542
5070.0 0.00027204
5090.0 0.00023783
5110.0 0.00024591
5130.0 0.00026763
5150.0 0.00027799
5170.0 0.00027601
5190.0 0.0002677
5210.0 0.00026183
5230.0 0.00027521
5250.0 0.0002978
5270.0 0.00033169
5290.0 0.00038071
5310.0 0.00043159
5330.0 0.00044385
5350.0 0.00044405
5370.0 0.0004853
5390.0 0.00053867
5410.0 0.00051506
5430.0 0.00043505
5450.0 0.00040259
5470.0 0.00045239
5490.0 0.00058057
5510.0 0.00074221
5530.0 0.00083294
5550.0 0.00079742
5570.0 0.00071882
5590.0 0.00063228
5610.0 0.00059133
5630.0 0.00057358
5650.0 0.0005792
5670.0 0.000561
5690.0 0.00050946
5710.0 0.00048821
5730.0 0.00044999
5750.0 0.0003061
5770.0 0.00026058
5790.0 0.00029713
5810.0 0.00035657
5830.0 0.00042131
5850.0 0.00047519
5870.0 0.00049237
5890.0 0.00047496
5910.0 0.000455
5930.0 0.00045388
5950.0 0.00047447
5970.0 0.00052007
5990.0 0.00048359
6010.0 0.00040129
6030.0 0.00033227
6050.0 0.00028826
6070.0 0.00029315
6090.0 0.00033201
6110.0 0.00036301
6130.0 0.00034736
6150.0 0.00031206
6170.0 0.00032818
6190.0 0.0003976
6210.0 0.00050026
6230.0 0.00059742
6250.0 0.00060464
6270.0 0.00052965
6290.0 0.00044004
6310.0 0.00034742
6330.0 0.00027254
6350.0 0.00024635
6370.0 0.0002644
6390.0 0.00031489
6410.0 0.00036945
6430.0 0.00043096
6450.0 0.0005057
6470.0 0.00060492
6490.0 0.00074517
6510.0 0.00082926
6530.0 0.0007776
6550.0 0.0007122
6570.0 0.00067515
6590.0 0.00065013
6610.0 0.00057199
6630.0 0.00052365
6650.0 0.00048265
6670.0 0.00049171
6690.0 0.00047436
6710.0 0.00042526
6730.0 0.00036576
6750.0 0.00033594
6770.0 0.00034023
6790.0 0.00038786
6810.0 0.00037976
6830.0 0.00039036
6850.0 0.00037687
6870.0 0.00036009
6890.0 0.00034733
6910.0 0.00034201
6930.0 0.00032001
6950.0 0.00033265
6970.0 0.00033625
6990.0 0.00037579
7010.0 0.00039841
7030.0 0.00037324
7050.0 0.0003474
7070.0 0.00033496
7090.0 0.00031352
7110.0 0.00029732
7130.0 0.00030792
7150.0 0.00032858
7170.0 0.00035196
7190.0 0.00035685
7210.0 0.00034619
7230.0 0.00035706
7250.0 0.00040585
7270.0 0.00047202
7290.0 0.00052105
7310.0 0.00051403
7330.0 0.00045861
7350.0 0.00040987
7370.0 0.00037995
7390.0 0.00038481
7410.0 0.00041178
7430.0 0.00045146
7450.0 0.00048832
7470.0 0.00052483
7490.0 0.0005699
7510.0 0.00060201
7530.0 0.00056167
7550.0 0.0004729
7570.0 0.00037174
7590.0 0.00027377
7610.0 0.0002431
7630.0 0.00026305
7650.0 0.00030465
7670.0 0.00035344
7690.0 0.00040081
7710.0 0.00042803
7730.0 0.00043977
7750.0 0.00045954
7770.0 0.00045792
7790.0 0.00044082
7810.0 0.00043952
7830.0 0.00043119
7850.0 0.00039376
7870.0 0.00035783
7890.0 0.00032117
7910.0 0.00027406
7930.0 0.00023931
7950.0 0.00021691
7970.0 0.00021102
7990.0 0.00021663
8010.0 0.00022835
8030.0 0.00022881
8050.0 0.00023046
8070.0 0.00022669
8090.0 0.00023221
8110.0 0.00021902
8130.0 0.00019167
8150.0 0.00018007
8170.0 0.00016595
8190.0 0.00016424
8210.0 0.00017606
8230.0 0.00018834
8250.0 0.00017453
8270.0 0.00015557
8290.0 0.00012781
8310.0 8.8087e-05
8330.0 5.7167e-05
8350.0 4.1637e-05
8370.0 4.4253e-05
8390.0 5.2406e-05
8410.0 6.6564e-05
8430.0 8.1334e-05
8450.0 8.9799e-05
8470.0 9.9626e-05
8490.0 9.7931e-05
8510.0 9.843e-05
8530.0 0.00010279
8550.0 0.00012444
8570.0 0.00015328
8590.0 0.00017513
8610.0 0.00021167
8630.0 0.00024535
8650.0 0.00025814
8670.0 0.00026241
8690.0 0.00026083
8710.0 0.00024388
8730.0 0.00023408
8750.0 0.00021661
8770.0 0.00020798
8790.0 0.00020633
8810.0 0.00019669
8830.0 0.00016544
8850.0 0.00013633
8870.0 0.00011368
8890.0 0.00011111
8910.0 0.00012
8930.0 0.00012735
8950.0 0.00014292
8970.0 0.00014515
8990.0 0.00014289
9010.0 0.00013741
9030.0 0.00013596
9050.0 0.0001373
9070.0 0.00013836
9090.0 0.00013915
9110.0 0.00013987
9130.0 0.0001405
9150.0 0.00014109
9170.0 0.00014173
9190.0 0.00014239
9210.0 0.00014312
9230.0 0.00014386
9250.0 0.00014465
9270.0 0.00014548
9290.0 0.00014634
9310.0 0.00014724
9330.0 0.00014817
9350.0 0.00014914
9370.0 0.00015014
9390.0 0.00015118
9410.0 0.00015225
9430.0 0.00015335
9450.0 0.0001545
9470.0 0.00015567
9490.0 0.00015687
9510.0 0.0001581
9530.0 0.00015938
9550.0 0.00016067
9570.0 0.00016199
9590.0 0.00016335
9610.0 0.00016473
9630.0 0.00016614
9650.0 0.00016757
9670.0 0.00016905
9690.0 0.00017054
9710.0 0.00017205
9730.0 0.00017359
9750.0 0.00017516
9770.0 0.00017673
9790.0 0.00017834
9810.0 0.00017997
9830.0 0.00018161
9850.0 0.00018327
9870.0 0.00018496
9890.0 0.00018666
9910.0 0.00018836
9930.0 0.00019009
9950.0 0.00019183
9970.0 0.00019357
9990.0 0.00019532
10010.0 0.00018809
10030.0 0.00018975
10050.0 0.0001914
10070.0 0.00019305
10090.0 0.00019473
10110.0 0.00019639
10130.0 0.00019805
10150.0 0.00019972
10170.0 0.00020139
10190.0 0.00020303
10210.0 0.00020468
10230.0 0.00020634
10250.0 0.00020796
10270.0 0.00020958
10290.0 0.0002112
10310.0 0.0002128
10330.0 0.00021437
10350.0 0.00021593
10370.0 0.00021749
10390.0 0.00021901
10410.0 0.00022051
10430.0 0.00022201
10450.0 0.00022347
10470.0 0.00022489
10490.0 0.0002263
10510.0 0.00022769
10530.0 0.00022903
10550.0 0.00023034
10570.0 0.00023164
10590.0 0.00023289
10610.0 0.0002341
10630.0 0.00023529
10650.0 0.00023644
10670.0 0.00023754
10690.0 0.0002386
10710.0 0.00023964
10730.0 0.00024062
10750.0 0.00024154
10770.0 0.00024245
10790.0 0.00024331
10810.0 0.00024411
10830.0 0.00024486
10850.0 0.00024556
10870.0 0.00024614
10890.0 0.00024657
10910.0 0.00024681
10930.0 0.00024673
10950.0 0.0002461
10970.0 0.00024485
10990.0 0.00024292
11010.0 0.00023592
11030.0 0.00023213
11050.0 0.00022763
11070.0 0.0002223
11090.0 0.00021589
11110.0 0.00020928
11130.0 0.00020239
11150.0 0.00019497
11170.0 0.00018736
11190.0 0.00018006
11210.0 0.0001726
11230.0 0.00016508
11250.0 0.00015804
11270.0 0.00015143
11290.0 0.00014495
11310.0 0.00013896
11330.0 0.00013381
11350.0 0.00012903
11370.0 0.00012469
11390.0 0.00012095
11410.0 0.00011768
11430.0 0.00011459
11450.0 0.00011183
11470.0 0.00010933
11490.0 0.00010685
11510.0 0.0001043
11530.0 0.00010178
11550.0 9.9159e-05
11570.0 9.6283e-05
11590.0 9.3264e-05
11610.0 9.0187e-05
11630.0 8.6866e-05
11650.0 8.3364e-05
11670.0 7.9972e-05
11690.0 7.6597e-05
11710.0 7.3187e-05
11730.0 6.9947e-05
11750.0 6.6999e-05
11770.0 6.4156e-05
11790.0 6.1531e-05
11810.0 5.924e-05
11830.0 5.7201e-05
11850.0 5.5322e-05
11870.0 5.3727e-05
11890.0 5.2363e-05
11910.0 5.1115e-05
11930.0 4.9974e-05
11950.0 4.8946e-05
11970.0 4.7949e-05
11990.0 4.6925e-05
12010.0 4.5905e-05
12030.0 4.487e-05
12050.0 4.3767e-05
12070.0 4.2601e-05
12090.0 4.1466e-05
12110.0 4.031e-05
12130.0 3.9142e-05
12150.0 3.8045e-05
12170.0 3.705e-05
12190.0 3.6121e-05
12210.0 3.5351e-05
12230.0 3.4775e-05
12250.0 3.4385e-05
12270.0 3.421e-05
12290.0 3.4261e-05
12310.0 3.4514e-05
12330.0 3.5001e-05
12350.0 3.5696e-05
12370.0 3.6536e-05
12390.0 3.7539e-05
12410.0 3.8739e-05
12430.0 3.9955e-05
12450.0 4.1203e-05
12470.0 4.2514e-05
12490.0 4.3802e-05
12510.0 4.4968e-05
12530.0 4.6091e-05
12550.0 4.7129e-05
12570.0 4.7984e-05
12590.0 4.8676e-05
12610.0 4.9232e-05
12630.0 4.9597e-05
12650.0 4.9753e-05
12670.0 4.9748e-05
12690.0 4.957e-05
12710.0 4.9229e-05
12730.0 4.8749e-05
12750.0 4.8118e-05
12770.0 4.7372e-05
12790.0 4.6542e-05
12810.0 4.5614e-05
12830.0 4.4592e-05
12850.0 4.3547e-05
12870.0 4.2461e-05
12890.0 4.1302e-05
12910.0 4.0124e-05
12930.0 3.8951e-05
12950.0 3.772e-05
12970.0 3.6448e-05
12990.0 3.5215e-05
13010.0 3.3974e-05
13030.0 3.2696e-05
13050.0 3.144e-05
13070.0 3.0239e-05
13090.0 2.9018e-05
13110.0 2.7822e-05
13130.0 2.6705e-05
13150.0 2.5643e-05
13170.0 2.4605e-05
13190.0 2.3682e-05
13210.0 2.2875e-05
13230.0 2.2148e-05
13250.0 2.1534e-05
13270.0 2.1059e-05
13290.0 2.0701e-05
13310.0 2.0467e-05
13330.0 2.037e-05
13350.0 2.0394e-05
13370.0 2.0543e-05
13390.0 2.0814e-05
13410.0 2.1158e-05
13430.0 2.1591e-05
13450.0 2.2107e-05
13470.0 2.2659e-05
13490.0 2.3223e-05
13510.0 2.3843e-05
13530.0 2.445e-05
13550.0 2.5012e-05
13570.0 2.5551e-05
13590.0 2.6061e-05
13610.0 2.6496e-05
13630.0 2.686e-05
13650.0 2.7177e-05
13670.0 2.7421e-05
13690.0 2.7586e-05
13710.0 2.7689e-05
13730.0 2.773e-05
13750.0 2.7702e-05
13770.0 2.7618e-05
13790.0 2.7481e-05
13810.0 2.7296e-05
13830.0 2.7074e-05
13850.0 2.6809e-05
13870.0 2.6503e-05
13890.0 2.6175e-05
13910.0 2.5822e-05
13930.0 2.5432e-05
13950.0 2.5023e-05
13970.0 2.4616e-05
13990.0 2.4187e-05
14010.0 2.3743e-05
14030.0 2.331e-05
14050.0 2.2885e-05
14070.0 2.2448e-05
14090.0 2.2038e-05
14110.0 2.1661e-05
14130.0 2.1305e-05
14150.0 2.098e-05
14170.0 2.0709e-05
14190.0 2.0484e-05
14210.0 2.0303e-05
14230.0 2.0179e-05
14250.0 2.0111e-05
14270.0 2.0099e-05
14290.0 2.0146e-05
14310.0 2.0244e-05
14330.0 2.0391e-05
14350.0 2.0591e-05
14370.0 2.083e-05
14390.0 2.1094e-05
14410.0 2.1399e-05
14430.0 2.1732e-05
14450.0 2.2072e-05
14470.0 2.2428e-05
14490.0 2.2815e-05
14510.0 2.3197e-05
14530.0 2.3578e-05
14550.0 2.3983e-05
14570.0 2.4405e-05
14590.0 2.4827e-05
14610.0 2.528e-05
14630.0 2.5781e-05
14650.0 2.6303e-05
14670.0 2.6855e-05
14690.0 2.7473e-05
14710.0 2.8153e-05
14730.0 2.8844e-05
14750.0 2.9599e-05
14770.0 3.0423e-05
14790.0 3.1269e-05
14810.0 3.2129e-05
14830.0 3.307e-05
14850.0 3.4011e-05
14870.0 3.4916e-05
14890.0 3.5818e-05
14910.0 3.6703e-05
14930.0 3.7496e-05
14950.0 3.8192e-05
14970.0 3.8812e-05
14990.0 3.9304e-05
15010.0 3.966e-05
15030.0 3.9908e-05
15050.0 4.0055e-05
15070.0 4.0114e-05
15090.0 4.0118e-05
15110.0 4.0082e-05
15130.0 4.0024e-05
15150.0 3.9958e-05
15170.0 3.9883e-05
15190.0 3.9803e-05
15210.0 3.9727e-05
15230.0 3.9651e-05
15250.0 3.9572e-05
15270.0 3.9494e-05
15290.0 3.9422e-05
15310.0 3.9346e-05
15330.0 3.927e-05
15350.0 3.9198e-05
15370.0 3.9126e-05
15390.0 3.9049e-05
15410.0 3.8976e-05
15430.0 3.8905e-05
15450.0 3.8832e-05
15470.0 3.8757e-05
15490.0 3.8687e-05
15510.0 3.8617e-05
15530.0 3.8543e-05
15550.0 3.8472e-05
15570.0 3.8403e-05
15590.0 3.833e-05
15610.0 3.8255e-05
15630.0 3.8186e-05
15650.0 3.8115e-05
15670.0 3.8041e-05
15690.0 3.797e-05
15710.0 3.7901e-05
15730.0 3.7827e-05
15750.0 3.7753e-05
15770.0 3.7682e-05
15790.0 3.7611e-05
15810.0 3.7533e-05
15830.0 3.746e-05
15850.0 3.7389e-05
15870.0 3.7314e-05
15890.0 3.7238e-05
15910.0 3.7166e-05
15930.0 3.7091e-05
15950.0 3.7012e-05
15970.0 3.6936e-05
15990.0 3.6861e-05
16010.0 3.6782e-05
16030.0 3.6701e-05
16050.0 3.6626e-05
16070.0 3.6548e-05
16090.0 3.6466e-05
16110.0 3.6387e-05
16130.0 3.6309e-05
16150.0 3.6224e-05
16170.0 3.614e-05
16190.0 3.606e-05
16210.0 3.5976e-05
16230.0 3.5889e-05
16250.0 3.5806e-05
16270.0 3.5723e-05
16290.0 3.5634e-05
16310.0 3.5546e-05
16330.0 3.5461e-05
16350.0 3.5372e-05
16370.0 3.5278e-05
16390.0 3.519e-05
16410.0 3.5101e-05
16430.0 3.5007e-05
16450.0 3.4914e-05
16470.0 3.4824e-05
16490.0 3.4728e-05
16510.0 3.4631e-05
16530.0 3.4536e-05
16550.0 3.4441e-05
16570.0 3.434e-05
16590.0 3.424e-05
16610.0 3.4144e-05
16630.0 3.4044e-05
16650.0 3.3941e-05
16670.0 3.3841e-05
16690.0 3.374e-05
16710.0 3.3632e-05
16730.0 3.3528e-05
16750.0 3.3425e-05
16770.0 3.3318e-05
16790.0 3.3208e-05
16810.0 3.3102e-05
16830.0 3.2995e-05
16850.0 3.2884e-05
16870.0 3.2773e-05
16890.0 3.2665e-05
16910.0 3.2551e-05
16930.0 3.2435e-05
16950.0 3.2323e-05
16970.0 3.221e-05
16990.0 3.2092e-05
17010.0 3.1976e-05
17030.0 3.1863e-05
17050.0 3.1743e-05
17070.0 3.1623e-05
17090.0 3.1506e-05
17110.0 3.1387e-05
17130.0 3.1262e-05
17150.0 3.1141e-05
17170.0 3.1021e-05
17190.0 3.0897e-05
17210.0 3.0772e-05
17230.0 3.0651e-05
17250.0 3.0526e-05
17270.0 3.0397e-05
17290.0 3.0271e-05
17310.0 3.0146e-05
17330.0 3.0016e-05
17350.0 2.9885e-05
17370.0 2.976e-05
17390.0 2.9631e-05
17410.0 2.9498e-05
17430.0 2.9369e-05
17450.0 2.924e-05
17470.0 2.9104e-05
17490.0 2.897e-05
17510.0 2.884e-05
17530.0 2.8706e-05
17550.0 2.857e-05
17570.0 2.8437e-05
17590.0 2.8304e-05
17610.0 2.8166e-05
17630.0 2.803e-05
17650.0 2.7896e-05
17670.0 2.7759e-05
17690.0 2.7617e-05
17710.0 2.7481e-05
17730.0 2.7345e-05
17750.0 2.7205e-05
17770.0 2.7066e-05
17790.0 2.693e-05
17810.0 2.6789e-05
17830.0 2.6647e-05
17850.0 2.6509e-05
17870.0 2.637e-05
17890.0 2.6226e-05
17910.0 2.6084e-05
17930.0 2.5947e-05
17950.0 2.5805e-05
17970.0 2.5661e-05
17990.0 2.5522e-05
18010.0 2.5382e-05
18030.0 2.5236e-05
18050.0 2.5093e-05
18070.0 2.4953e-05
18090.0 2.481e-05
18110.0 2.4665e-05
18130.0 2.4525e-05
18150.0 2.4383e-05
18170.0 2.4238e-05
18190.0 2.4096e-05
18210.0 2.3955e-05
18230.0 2.381e-05
18250.0 2.3664e-05
18270.0 2.3524e-05
18290.0 2.3382e-05
18310.0 2.3236e-05
18330.0 2.3094e-05
18350.0 2.2954e-05
18370.0 2.2809e-05
18390.0 2.2665e-05
18410.0 2.2525e-05
18430.0 2.2383e-05
18450.0 2.2236e-05
18470.0 2.2095e-05
18490.0 2.1955e-05
18510.0 2.1812e-05
18530.0 2.1669e-05
18550.0 2.153e-05
18570.0 2.1388e-05
18590.0 2.1243e-05
18610.0 2.1103e-05
18630.0 2.0964e-05
18650.0 2.0821e-05
18670.0 2.0679e-05
18690.0 2.0541e-05
18710.0 2.0402e-05
18730.0 2.026e-05
18750.0 2.0121e-05
18770.0 1.9985e-05
18790.0 1.9842e-05
18810.0 1.9702e-05
18830.0 1.9566e-05
18850.0 1.9427e-05
18870.0 1.9287e-05
18890.0 1.9151e-05
18910.0 1.9016e-05
18930.0 1.8877e-05
18950.0 1.874e-05
18970.0 1.8606e-05
18990.0 1.847e-05
19010.0 1.833e-05
19030.0 1.8197e-05
19050.0 1.8064e-05
19070.0 1.7928e-05
19090.0 1.7794e-05
19110.0 1.7664e-05
19130.0 1.7529e-05
19150.0 1.7394e-05
19170.0 1.7263e-05
19190.0 1.7132e-05
19210.0 1.6998e-05
19230.0 1.6866e-05
19250.0 1.6738e-05
19270.0 1.6607e-05
19290.0 1.6476e-05
19310.0 1.6349e-05
19330.0 1.6221e-05
19350.0 1.6089e-05
19370.0 1.5961e-05
19390.0 1.5835e-05
19410.0 1.5707e-05
19430.0 1.5579e-05
19450.0 1.5455e-05
19470.0 1.533e-05
19490.0 1.5203e-05
19510.0 1.5078e-05
19530.0 1.4956e-05
19550.0 1.483e-05
19570.0 1.4704e-05
19590.0 1.4584e-05
19610.0 1.4462e-05
19630.0 1.4338e-05
19650.0 1.4217e-05
19670.0 1.4099e-05
19690.0 1.3976e-05
19710.0 1.3855e-05
19730.0 1.3737e-05
19750.0 1.3618e-05
19770.0 1.3496e-05
19790.0 1.3379e-05
19810.0 1.3264e-05
19830.0 1.3145e-05
19850.0 1.3027e-05
19870.0 1.2911e-05
19890.0 1.2791e-05
19910.0 1.2664e-05
19930.0 1.2534e-05
19950.0 1.2394e-05
19970.0 1.2236e-05
19990.0 1.2058e-05
20010.0 1.2105e-05
20030.0 1.1883e-05
20050.0 1.1636e-05
20070.0 1.1379e-05
20090.0 1.1112e-05
20110.0 1.0821e-05
20130.0 1.0535e-05
20150.0 1.0258e-05
20170.0 9.9787e-06
20190.0 9.702e-06
20210.0 9.445e-06
20230.0 9.1983e-06
20250.0 8.9552e-06
20270.0 8.7319e-06
20290.0 8.5296e-06
20310.0 8.3391e-06
20330.0 8.1628e-06
20350.0 8.0164e-06
20370.0 7.8875e-06
20390.0 7.7759e-06
20410.0 7.6869e-06
20430.0 7.6193e-06
20450.0 7.5687e-06
20470.0 7.5381e-06
20490.0 7.5258e-06
20510.0 7.5298e-06
20530.0 7.5506e-06
20550.0 7.585e-06
20570.0 7.6294e-06
20590.0 7.6871e-06
20610.0 7.7548e-06
20630.0 7.8273e-06
20650.0 7.9072e-06
20670.0 7.9975e-06
20690.0 8.0876e-06
20710.0 8.1791e-06
20730.0 8.2764e-06
20750.0 8.3761e-06
20770.0 8.4717e-06
20790.0 8.5707e-06
20810.0 8.6738e-06
20830.0 8.7744e-06
20850.0 8.8739e-06
20870.0 8.9798e-06
20890.0 9.0869e-06
20910.0 9.1891e-06
20930.0 9.2951e-06
20950.0 9.4053e-06
20970.0 9.5127e-06
20990.0 9.6189e-06
21010.0 9.7317e-06
21030.0 9.8426e-06
21050.0 9.9486e-06
21070.0 1.0056e-05
21090.0 1.0164e-05
21110.0 1.0264e-05
21130.0 1.0358e-05
21150.0 1.0452e-05
21170.0 1.0538e-05
21190.0 1.0614e-05
21210.0 1.0687e-05
21230.0 1.0752e-05
21250.0 1.0805e-05
21270.0 1.0848e-05
21290.0 1.0881e-05
21310.0 1.0901e-05
21330.0 1.0908e-05
21350.0 1.0901e-05
21370.0 1.0879e-05
21390.0 1.0842e-05
21410.0 1.079e-05
21430.0 1.0717e-05
21450.0 1.0628e-05
21470.0 1.0526e-05
21490.0 1.0404e-05
21510.0 1.0264e-05
21530.0 1.0115e-05
21550.0 9.953e-06
21570.0 9.7738e-06
21590.0 9.59e-06
21610.0 9.4051e-06
21630.0 9.2123e-06
21650.0 9.0149e-06
21670.0 8.8342e-06
21690.0 8.6576e-06
21710.0 8.4867e-06
21730.0 8.3328e-06
21750.0 8.1984e-06
21770.0 8.0748e-06
21790.0 7.9729e-06
21810.0 7.8954e-06
21830.0 7.8387e-06
21850.0 7.804e-06
21870.0 7.7932e-06
21890.0 7.8038e-06
21910.0 7.8365e-06
21930.0 7.8906e-06
21950.0 7.9614e-06
21970.0 8.051e-06
21990.0 8.163e-06
22010.0 8.2846e-06
22030.0 8.4171e-06
22050.0 8.5655e-06
22070.0 8.7237e-06
22090.0 8.8815e-06
22110.0 9.0486e-06
22130.0 9.2236e-06
22150.0 9.3943e-06
22170.0 9.5617e-06
22190.0 9.7341e-06
22210.0 9.9002e-06
22230.0 1.0051e-05
22250.0 1.0196e-05
22270.0 1.0334e-05
22290.0 1.0453e-05
22310.0 1.0558e-05
22330.0 1.0651e-05
22350.0 1.0725e-05
22370.0 1.0777e-05
22390.0 1.0812e-05
22410.0 1.0826e-05
22430.0 1.0818e-05
22450.0 1.0789e-05
22470.0 1.0738e-05
22490.0 1.0665e-05
22510.0 1.0574e-05
22530.0 1.0458e-05
22550.0 1.0319e-05
22570.0 1.0165e-05
22590.0 9.9931e-06
22610.0 9.7966e-06
22630.0 9.585e-06
