#lamb flux
1010.0 3.1058e-05
1030.0 3.3227e-05
1050.0 3.6061e-05
1070.0 4.0525e-05
1090.0 4.695e-05
1110.0 5.3624e-05
1130.0 6.0409e-05
1150.0 6.7559e-05
1170.0 7.4864e-05
1190.0 8.1531e-05
1210.0 8.7908e-05
1230.0 9.3948e-05
1250.0 9.9403e-05
1270.0 0.00010375
1290.0 0.0001074
1310.0 0.00010989
1330.0 0.00011094
1350.0 0.00011094
1370.0 0.00011006
1390.0 0.00010812
1410.0 0.00010531
1430.0 0.00010215
1450.0 9.8594e-05
1470.0 9.4714e-05
1490.0 9.0856e-05
1510.0 8.7285e-05
1530.0 8.3783e-05
1550.0 8.0608e-05
1570.0 7.7962e-05
1590.0 7.5828e-05
1610.0 7.4297e-05
1630.0 7.4017e-05
1650.0 7.4557e-05
1670.0 7.5872e-05
1690.0 7.8072e-05
1710.0 8.1335e-05
1730.0 8.5668e-05
1750.0 9.0995e-05
1770.0 9.7595e-05
1790.0 0.00010554
1810.0 0.00011478
1830.0 0.00012541
1850.0 0.00013772
1870.0 0.00015152
1890.0 0.00016678
1910.0 0.00018367
1930.0 0.0002022
1950.0 0.000222
1970.0 0.00024307
1990.0 0.00026551
2010.0 0.00028887
2030.0 0.0003128
2050.0 0.00033741
2070.0 0.00036244
2090.0 0.00038705
2110.0 0.00041128
2130.0 0.00043508
2150.0 0.00045787
2170.0 0.00047917
2190.0 0.00049941
2210.0 0.00051821
2230.0 0.00053506
2250.0 0.00055019
2270.0 0.000564
2290.0 0.00057588
2310.0 0.00058583
2330.0 0.00059458
2350.0 0.00060211
2370.0 0.00060824
2390.0 0.00061368
2410.0 0.00061918
2430.0 0.0006245
2450.0 0.00063017
2470.0 0.0006373
2490.0 0.00064641
2510.0 0.00065694
2530.0 0.00067085
2550.0 0.00069037
2570.0 0.00071684
2590.0 0.0007526
2610.0 0.00080566
2630.0 0.00087707
2650.0 0.00096371
2670.0 0.0010682
2690.0 0.0011891
2710.0 0.0013136
2730.0 0.0014366
2750.0 0.0015634
2770.0 0.0016867
2790.0 0.0018046
2810.0 0.0019253
2830.0 0.0020562
2850.0 0.0021867
2870.0 0.002323
2890.0 0.0024708
2910.0 0.0026254
2930.0 0.0027804
2950.0 0.0029463
2970.0 0.0031214
2990.0 0.0032978
3010.0 0.0034791
3030.0 0.0036718
3050.0 0.0038699
3070.0 0.0040628
3090.0 0.0042593
3110.0 0.0044509
3130.0 0.0046237
3150.0 0.0047738
3170.0 0.0048963
3190.0 0.0049858
3210.0 0.0050553
3230.0 0.0051129
3250.0 0.0051592
3270.0 0.0052082
3290.0 0.0052754
3310.0 0.0053743
3330.0 0.0055021
3350.0 0.0056496
3370.0 0.0058116
3390.0 0.0059517
3410.0 0.0061032
3430.0 0.0064807
3450.0 0.0067544
3470.0 0.0069382
3490.0 0.0070964
3510.0 0.0075053
3530.0 0.0088949
3550.0 0.010302
3570.0 0.011273
3590.0 0.012424
3610.0 0.01244
3630.0 0.011602
3650.0 0.012359
3670.0 0.014724
3690.0 0.016517
3710.0 0.01715
3730.0 0.017398
3750.0 0.018504
3770.0 0.018596
3790.0 0.017761
3810.0 0.016726
3830.0 0.015745
3850.0 0.0158
3870.0 0.016601
3890.0 0.017285
3910.0 0.017762
3930.0 0.01785
3950.0 0.019053
3970.0 0.020443
3990.0 0.019786
4010.0 0.017667
4030.0 0.015815
4050.0 0.015453
4070.0 0.016138
4090.0 0.016129
4110.0 0.015579
4130.0 0.01544
4150.0 0.01603
4170.0 0.017744
4190.0 0.018932
4210.0 0.018071
4230.0 0.016744
4250.0 0.015981
4270.0 0.015505
4290.0 0.015683
4310.0 0.016129
4330.0 0.015339
4350.0 0.013531
4370.0 0.012011
4390.0 0.010959
4410.0 0.010258
4430.0 0.010408
4450.0 0.011396
4470.0 0.012439
4490.0 0.013423
4510.0 0.01503
4530.0 0.018034
4550.0 0.021286
4570.0 0.023249
4590.0 0.024847
4610.0 0.026444
4630.0 0.026972
4650.0 0.025054
4670.0 0.021402
4690.0 0.018569
4710.0 0.017635
4730.0 0.016943
4750.0 0.015006
4770.0 0.013487
4790.0 0.01395
4810.0 0.015155
4830.0 0.014936
4850.0 0.01349
4870.0 0.013558
4890.0 0.014009
4910.0 0.014418
4930.0 0.014288
4950.0 0.013974
4970.0 0.013358
4990.0 0.012319
5010.0 0.011451
5030.0 0.011052
5050.0 0.01087
5070.0 0.010759
5090.0 0.010665
5110.0 0.010647
5130.0 0.010842
5150.0 0.011427
5170.0 0.012538
5190.0 0.013942
5210.0 0.015234
5230.0 0.016007
5250.0 0.016419
5270.0 0.017117
5290.0 0.017738
5310.0 0.017785
5330.0 0.017139
5350.0 0.016455
5370.0 0.016466
5390.0 0.017116
5410.0 0.01767
5430.0 0.017704
5450.0 0.0175
5470.0 0.017022
5490.0 0.016489
5510.0 0.016254
5530.0 0.01634
5550.0 0.016562
5570.0 0.016683
5590.0 0.016183
5610.0 0.015269
5630.0 0.014429
5650.0 0.013765
5670.0 0.013334
5690.0 0.012764
5710.0 0.012362
5730.0 0.012495
5750.0 0.012428
5770.0 0.01218
5790.0 0.012287
5810.0 0.012617
5830.0 0.01289
5850.0 0.012968
5870.0 0.012662
5890.0 0.012125
5910.0 0.011578
5930.0 0.010841
5950.0 0.010287
5970.0 0.010319
5990.0 0.0106
6010.0 0.010646
6030.0 0.010265
6050.0 0.01017
6070.0 0.010555
6090.0 0.010981
6110.0 0.011046
6130.0 0.010581
6150.0 0.0099163
6170.0 0.0095193
6190.0 0.0092004
6210.0 0.008888
6230.0 0.008649
6250.0 0.0086043
6270.0 0.0088364
6290.0 0.0092184
6310.0 0.0096746
6330.0 0.010155
6350.0 0.010496
6370.0 0.010603
6390.0 0.010583
6410.0 0.010691
6430.0 0.010833
6450.0 0.010845
6470.0 0.010927
6490.0 0.011047
6510.0 0.01106
6530.0 0.01092
6550.0 0.010608
6570.0 0.010239
6590.0 0.0099635
6610.0 0.0097518
6630.0 0.0095608
6650.0 0.009235
6670.0 0.0088658
6690.0 0.0085898
6710.0 0.008422
6730.0 0.0083572
6750.0 0.0082665
6770.0 0.0081251
6790.0 0.0079901
6810.0 0.0078796
6830.0 0.0078589
6850.0 0.0078302
6870.0 0.0077487
6890.0 0.00772
6910.0 0.0075833
6930.0 0.0074249
6950.0 0.0074066
6970.0 0.007323
6990.0 0.0071315
7010.0 0.0070196
7030.0 0.0069106
7050.0 0.00677
7070.0 0.006607
7090.0 0.0064697
7110.0 0.0065412
7130.0 0.0067514
7150.0 0.0069647
7170.0 0.0070998
7190.0 0.0070665
7210.0 0.006967
7230.0 0.0068769
7250.0 0.0067877
7270.0 0.0066959
7290.0 0.0066
7310.0 0.0065424
7330.0 0.006631
7350.0 0.0066996
7370.0 0.0067203
7390.0 0.0066522
7410.0 0.006515
7430.0 0.0064577
7450.0 0.0064079
7470.0 0.006142
7490.0 0.0059163
7510.0 0.0056578
7530.0 0.0054619
7550.0 0.0053958
7570.0 0.0054692
7590.0 0.005427
7610.0 0.0053686
7630.0 0.0053333
7650.0 0.0053274
7670.0 0.0054292
7690.0 0.0056468
7710.0 0.0058497
7730.0 0.0060503
7750.0 0.0062042
7770.0 0.0062959
7790.0 0.0062794
7810.0 0.006158
7830.0 0.0062129
7850.0 0.006194
7870.0 0.006022
7890.0 0.0058193
7910.0 0.0056396
7930.0 0.0054707
7950.0 0.0053621
7970.0 0.0053568
7990.0 0.0054191
8010.0 0.0053998
8030.0 0.0053397
8050.0 0.0052444
8070.0 0.0051451
8090.0 0.0050394
8110.0 0.0050525
8130.0 0.005096
8150.0 0.0050961
8170.0 0.0050576
8190.0 0.0049708
8210.0 0.0047466
8230.0 0.0044324
8250.0 0.0042372
8270.0 0.0041198
8290.0 0.0040583
8310.0 0.0040817
8330.0 0.0041657
8350.0 0.0040845
8370.0 0.0039887
8390.0 0.0040487
8410.0 0.0042053
8430.0 0.0044502
8450.0 0.0046807
8470.0 0.0047573
8490.0 0.0048164
8510.0 0.0048113
8530.0 0.0048093
8550.0 0.0048535
8570.0 0.0048668
8590.0 0.0048727
8610.0 0.0050082
8630.0 0.0050569
8650.0 0.0049492
8670.0 0.0049434
8690.0 0.0049699
8710.0 0.0049299
8730.0 0.0048844
8750.0 0.0047407
8770.0 0.0046775
8790.0 0.004636
8810.0 0.0045867
8830.0 0.0043559
8850.0 0.004026
8870.0 0.0037788
8890.0 0.0036381
8910.0 0.0034187
8930.0 0.0031841
8950.0 0.0030821
8970.0 0.0030653
8990.0 0.0030749
9010.0 0.0030548
9030.0 0.0030331
9050.0 0.0030132
9070.0 0.0029943
9090.0 0.0029755
9110.0 0.0029567
9130.0 0.002938
9150.0 0.0029194
9170.0 0.0029008
9190.0 0.0028821
9210.0 0.0028635
9230.0 0.0028451
9250.0 0.0028267
9270.0 0.0028084
9290.0 0.0027902
9310.0 0.002772
9330.0 0.0027538
9350.0 0.0027358
9370.0 0.0027177
9390.0 0.0026999
9410.0 0.002682
9430.0 0.0026641
9450.0 0.002646
9470.0 0.0026283
9490.0 0.0026113
9510.0 0.0025939
9530.0 0.0025766
9550.0 0.0025594
9570.0 0.0025422
9590.0 0.0025251
9610.0 0.0025081
9630.0 0.0024912
9650.0 0.0024744
9670.0 0.0024577
9690.0 0.0024411
9710.0 0.0024245
9730.0 0.0024081
9750.0 0.0023918
9770.0 0.0023755
9790.0 0.0023593
9810.0 0.0023432
9830.0 0.0023269
9850.0 0.0023084
9870.0 0.0022931
9890.0 0.0022783
9910.0 0.0022633
9930.0 0.0022476
9950.0 0.0022326
9970.0 0.0022174
9990.0 0.0022019
10010.0 0.0021846
10030.0 0.0021686
10050.0 0.0021547
10070.0 0.0021406
10090.0 0.0021265
10110.0 0.0021113
10130.0 0.0020939
10150.0 0.0020798
10170.0 0.0020663
10190.0 0.002052
10210.0 0.002038
10230.0 0.0020242
10250.0 0.0020097
10270.0 0.0019953
10290.0 0.0019814
10310.0 0.0019671
10330.0 0.0019524
10350.0 0.0019384
10370.0 0.0019245
10390.0 0.0019102
10410.0 0.001896
10430.0 0.0018825
10450.0 0.0018685
10470.0 0.0018543
10490.0 0.0018406
10510.0 0.001827
10530.0 0.0018127
10550.0 0.0017987
10570.0 0.0017853
10590.0 0.0017715
10610.0 0.0017575
10630.0 0.0017441
10650.0 0.0017306
10670.0 0.0017166
10690.0 0.0017029
10710.0 0.0016895
10730.0 0.0016758
10750.0 0.0016616
10770.0 0.0016484
10790.0 0.0016349
10810.0 0.0016211
10830.0 0.0016075
10850.0 0.0015944
10870.0 0.0015805
10890.0 0.0015667
10910.0 0.0015535
10930.0 0.0015403
10950.0 0.001527
10970.0 0.0015142
10990.0 0.0015023
11010.0 0.0015247
11030.0 0.0015141
11050.0 0.0015041
11070.0 0.001494
11090.0 0.0014832
11110.0 0.0014729
11130.0 0.0014625
11150.0 0.0014516
11170.0 0.0014405
11190.0 0.0014299
11210.0 0.0014191
11230.0 0.0014081
11250.0 0.0013977
11270.0 0.0013877
11290.0 0.0013776
11310.0 0.0013679
11330.0 0.001359
11350.0 0.0013503
11370.0 0.0013418
11390.0 0.0013338
11410.0 0.0013262
11430.0 0.0013183
11450.0 0.0013107
11470.0 0.0013033
11490.0 0.0012957
11510.0 0.0012877
11530.0 0.0012797
11550.0 0.0012715
11570.0 0.0012627
11590.0 0.0012534
11610.0 0.0012441
11630.0 0.001234
11650.0 0.0012233
11670.0 0.0012126
11690.0 0.0012017
11710.0 0.0011901
11730.0 0.0011786
11750.0 0.0011674
11770.0 0.0011558
11790.0 0.0011442
11810.0 0.0011331
11830.0 0.0011222
11850.0 0.001111
11870.0 0.0011004
11890.0 0.0010905
11910.0 0.0010805
11930.0 0.0010709
11950.0 0.0010619
11970.0 0.0010532
11990.0 0.0010445
12010.0 0.0010365
12030.0 0.001029
12050.0 0.0010217
12070.0 0.0010148
12090.0 0.0010087
12110.0 0.001003
12130.0 0.00099777
12150.0 0.00099317
12170.0 0.00098923
12190.0 0.00098573
12210.0 0.00098292
12230.0 0.00098081
12250.0 0.00097931
12270.0 0.00097843
12290.0 0.00097817
12310.0 0.00097842
12330.0 0.00097922
12350.0 0.00098045
12370.0 0.00098195
12390.0 0.00098372
12410.0 0.00098579
12430.0 0.00098773
12450.0 0.00098956
12470.0 0.00099127
12490.0 0.00099265
12510.0 0.00099351
12530.0 0.00099389
12550.0 0.00099364
12570.0 0.00099263
12590.0 0.00099085
12610.0 0.00098816
12630.0 0.00098453
12650.0 0.00098019
12670.0 0.00097491
12690.0 0.00096869
12710.0 0.00096189
12730.0 0.00095453
12750.0 0.00094617
12770.0 0.00093748
12790.0 0.00092866
12810.0 0.00091938
12830.0 0.00090968
12850.0 0.00090029
12870.0 0.00089092
12890.0 0.00088125
12910.0 0.00087178
12930.0 0.00086268
12950.0 0.00085338
12970.0 0.00084403
12990.0 0.00083524
13010.0 0.00082656
13030.0 0.00081776
13050.0 0.00080925
13070.0 0.00080121
13090.0 0.00079305
13110.0 0.00078507
13130.0 0.00077759
13150.0 0.00077038
13170.0 0.00076317
13190.0 0.00075653
13210.0 0.00075042
13230.0 0.00074447
13250.0 0.00073884
13270.0 0.00073373
13290.0 0.00072885
13310.0 0.00072405
13330.0 0.00071959
13350.0 0.00071536
13370.0 0.00071112
13390.0 0.00070686
13410.0 0.00070284
13430.0 0.00069874
13450.0 0.00069448
13470.0 0.00069023
13490.0 0.00068602
13510.0 0.00068146
13530.0 0.00067686
13550.0 0.00067233
13570.0 0.00066767
13590.0 0.0006628
13610.0 0.00065801
13630.0 0.0006533
13650.0 0.00064835
13670.0 0.0006434
13690.0 0.00063858
13710.0 0.00063368
13730.0 0.00062852
13750.0 0.00062363
13770.0 0.00061874
13790.0 0.00061367
13810.0 0.00060858
13830.0 0.00060365
13850.0 0.00059851
13870.0 0.00059319
13890.0 0.00058797
13910.0 0.00058272
13930.0 0.00057716
13950.0 0.00057153
13970.0 0.00056609
13990.0 0.0005604
14010.0 0.00055451
14030.0 0.00054874
14050.0 0.00054295
14070.0 0.00053678
14090.0 0.00053075
14110.0 0.0005249
14130.0 0.00051895
14150.0 0.00051294
14170.0 0.00050732
14190.0 0.00050186
14210.0 0.00049638
14230.0 0.00049121
14250.0 0.0004864
14270.0 0.00048164
14290.0 0.00047704
14310.0 0.00047291
14330.0 0.00046897
14350.0 0.0004651
14370.0 0.00046151
14390.0 0.0004582
14410.0 0.0004549
14430.0 0.00045172
14450.0 0.00044878
14470.0 0.00044594
14490.0 0.00044306
14510.0 0.0004404
14530.0 0.0004379
14550.0 0.00043541
14570.0 0.000433
14590.0 0.00043078
14610.0 0.0004286
14630.0 0.00042642
14650.0 0.00042441
14670.0 0.00042252
14690.0 0.00042067
14710.0 0.00041891
14730.0 0.00041738
14750.0 0.00041595
14770.0 0.00041466
14790.0 0.00041361
14810.0 0.00041279
14830.0 0.00041218
14850.0 0.00041188
14870.0 0.00041188
14890.0 0.00041216
14910.0 0.00041273
14930.0 0.0004135
14950.0 0.00041439
14970.0 0.00041535
14990.0 0.00041623
15010.0 0.00041697
15030.0 0.00041752
15050.0 0.00041787
15070.0 0.00041802
15090.0 0.00041804
15110.0 0.00041795
15130.0 0.0004178
15150.0 0.00041764
15170.0 0.00041744
15190.0 0.00041724
15210.0 0.00041705
15230.0 0.00041688
15250.0 0.00041668
15270.0 0.0004165
15290.0 0.00041636
15310.0 0.0004162
15330.0 0.00041604
15350.0 0.00041591
15370.0 0.00041579
15390.0 0.00041564
15410.0 0.00041552
15430.0 0.00041542
15450.0 0.00041531
15470.0 0.00041519
15490.0 0.00041511
15510.0 0.00041504
15530.0 0.00041495
15550.0 0.00041488
15570.0 0.00041483
15590.0 0.00041477
15610.0 0.0004147
15630.0 0.00041467
15650.0 0.00041464
15670.0 0.0004146
15690.0 0.00041457
15710.0 0.00041457
15730.0 0.00041455
15750.0 0.00041454
15770.0 0.00041455
15790.0 0.00041457
15810.0 0.00041456
15830.0 0.00041458
15850.0 0.00041462
15870.0 0.00041465
15890.0 0.00041468
15910.0 0.00041474
15930.0 0.00041479
15950.0 0.00041483
15970.0 0.00041489
15990.0 0.00041497
16010.0 0.00041503
16030.0 0.00041509
16050.0 0.00041519
16070.0 0.00041528
16090.0 0.00041536
16110.0 0.00041546
16130.0 0.00041557
16150.0 0.00041566
16170.0 0.00041576
16190.0 0.00041588
16210.0 0.000416
16230.0 0.0004161
16250.0 0.00041623
16270.0 0.00041637
16290.0 0.00041649
16310.0 0.00041662
16330.0 0.00041676
16350.0 0.0004169
16370.0 0.00041702
16390.0 0.00041717
16410.0 0.00041733
16430.0 0.00041746
16450.0 0.00041761
16470.0 0.00041778
16490.0 0.00041792
16510.0 0.00041806
16530.0 0.00041822
16550.0 0.00041839
16570.0 0.00041853
16590.0 0.00041868
16610.0 0.00041885
16630.0 0.00041901
16650.0 0.00041915
16670.0 0.00041932
16690.0 0.00041949
16710.0 0.00041962
16730.0 0.00041977
16750.0 0.00041993
16770.0 0.00042008
16790.0 0.00042021
16810.0 0.00042038
16830.0 0.00042053
16850.0 0.00042066
16870.0 0.0004208
16890.0 0.00042095
16910.0 0.00042108
16930.0 0.00042119
16950.0 0.00042133
16970.0 0.00042146
16990.0 0.00042157
17010.0 0.00042168
17030.0 0.00042181
17050.0 0.00042191
17070.0 0.000422
17090.0 0.00042211
17110.0 0.0004222
17130.0 0.00042226
17150.0 0.00042234
17170.0 0.00042243
17190.0 0.00042249
17210.0 0.00042254
17230.0 0.00042261
17250.0 0.00042266
17270.0 0.00042268
17290.0 0.00042271
17310.0 0.00042275
17330.0 0.00042275
17350.0 0.00042274
17370.0 0.00042276
17390.0 0.00042275
17410.0 0.00042272
17430.0 0.0004227
17450.0 0.00042267
17470.0 0.0004226
17490.0 0.00042254
17510.0 0.00042248
17530.0 0.0004224
17550.0 0.0004223
17570.0 0.00042221
17590.0 0.00042211
17610.0 0.00042198
17630.0 0.00042184
17650.0 0.00042171
17670.0 0.00042155
17690.0 0.00042135
17710.0 0.00042119
17730.0 0.000421
17750.0 0.00042079
17770.0 0.00042057
17790.0 0.00042036
17810.0 0.0004201
17830.0 0.00041983
17850.0 0.00041957
17870.0 0.00041929
17890.0 0.00041898
17910.0 0.00041866
17930.0 0.00041835
17950.0 0.00041801
17970.0 0.00041765
17990.0 0.00041729
18010.0 0.00041692
18030.0 0.0004165
18050.0 0.00041608
18070.0 0.00041567
18090.0 0.00041522
18110.0 0.00041475
18130.0 0.00041429
18150.0 0.00041381
18170.0 0.0004133
18190.0 0.00041278
18210.0 0.00041226
18230.0 0.0004117
18250.0 0.00041112
18270.0 0.00041055
18290.0 0.00040996
18310.0 0.00040934
18330.0 0.00040871
18350.0 0.00040809
18370.0 0.00040741
18390.0 0.00040673
18410.0 0.00040605
18430.0 0.00040534
18450.0 0.0004046
18470.0 0.00040386
18490.0 0.00040312
18510.0 0.00040234
18530.0 0.00040155
18550.0 0.00040076
18570.0 0.00039994
18590.0 0.00039908
18610.0 0.00039824
18630.0 0.00039738
18650.0 0.00039648
18670.0 0.00039557
18690.0 0.00039468
18710.0 0.00039375
18730.0 0.00039279
18750.0 0.00039183
18770.0 0.00039087
18790.0 0.00038986
18810.0 0.00038884
18830.0 0.00038783
18850.0 0.00038679
18870.0 0.00038573
18890.0 0.00038467
18910.0 0.0003836
18930.0 0.00038249
18950.0 0.00038137
18970.0 0.00038026
18990.0 0.00037911
19010.0 0.00037793
19030.0 0.00037678
19050.0 0.0003756
19070.0 0.00037439
19090.0 0.00037318
19110.0 0.00037198
19130.0 0.00037073
19150.0 0.00036947
19170.0 0.00036821
19190.0 0.00036694
19210.0 0.00036564
19230.0 0.00036433
19250.0 0.00036304
19270.0 0.00036171
19290.0 0.00036036
19310.0 0.00035902
19330.0 0.00035767
19350.0 0.00035628
19370.0 0.00035489
19390.0 0.00035351
19410.0 0.0003521
19430.0 0.00035067
19450.0 0.00034927
19470.0 0.00034784
19490.0 0.00034638
19510.0 0.00034493
19530.0 0.00034348
19550.0 0.00034199
19570.0 0.00034049
19590.0 0.00033902
19610.0 0.00033752
19630.0 0.000336
19650.0 0.00033449
19670.0 0.00033298
19690.0 0.00033144
19710.0 0.0003299
19730.0 0.00032836
19750.0 0.00032681
19770.0 0.00032523
19790.0 0.00032367
19810.0 0.00032212
19830.0 0.00032053
19850.0 0.00031893
19870.0 0.00031732
19890.0 0.00031566
19910.0 0.0003139
19930.0 0.00031206
19950.0 0.00031004
19970.0 0.00030774
19990.0 0.00030513
20010.0 0.00030225
20030.0 0.00029897
20050.0 0.00029528
20070.0 0.00029139
20090.0 0.0002873
20110.0 0.00028286
20130.0 0.00027842
20150.0 0.00027406
20170.0 0.00026962
20190.0 0.00026517
20210.0 0.00026094
20230.0 0.0002568
20250.0 0.00025264
20270.0 0.00024868
20290.0 0.00024495
20310.0 0.00024129
20330.0 0.00023771
20350.0 0.00023449
20370.0 0.00023139
20390.0 0.00022841
20410.0 0.00022564
20430.0 0.00022309
20450.0 0.00022062
20470.0 0.00021832
20490.0 0.00021623
20510.0 0.00021426
20530.0 0.00021241
20550.0 0.00021071
20570.0 0.00020915
20590.0 0.00020768
20610.0 0.0002063
20630.0 0.00020504
20650.0 0.00020384
20670.0 0.0002027
20690.0 0.00020162
20710.0 0.00020059
20730.0 0.00019958
20750.0 0.00019858
20770.0 0.00019758
20790.0 0.00019657
20810.0 0.00019552
20830.0 0.00019444
20850.0 0.00019331
20870.0 0.0001921
20890.0 0.00019082
20910.0 0.00018947
20930.0 0.00018804
20950.0 0.00018651
20970.0 0.00018491
20990.0 0.00018325
21010.0 0.00018147
21030.0 0.00017962
21050.0 0.00017774
21070.0 0.00017579
21090.0 0.00017374
21110.0 0.00017171
21130.0 0.00016967
21150.0 0.00016757
21170.0 0.00016547
21190.0 0.00016342
21210.0 0.00016134
21230.0 0.00015924
21250.0 0.00015722
21270.0 0.00015525
21290.0 0.00015327
21310.0 0.00015134
21330.0 0.00014952
21350.0 0.00014771
21370.0 0.00014593
21390.0 0.00014424
21410.0 0.0001426
21430.0 0.00014096
21450.0 0.0001394
21470.0 0.0001379
21490.0 0.00013643
21510.0 0.00013497
21530.0 0.00013358
21550.0 0.00013222
21570.0 0.00013084
21590.0 0.00012951
21610.0 0.00012822
21630.0 0.00012691
21650.0 0.00012561
21670.0 0.00012436
21690.0 0.00012311
21710.0 0.00012186
21730.0 0.00012062
21750.0 0.00011942
21770.0 0.00011818
21790.0 0.00011695
21810.0 0.00011576
21830.0 0.00011455
21850.0 0.00011333
21870.0 0.00011212
21890.0 0.00011094
21910.0 0.00010973
21930.0 0.00010852
21950.0 0.00010733
21970.0 0.00010613
21990.0 0.0001049
22010.0 0.0001037
22030.0 0.00010251
22050.0 0.00010131
22070.0 0.00010011
22090.0 9.8953e-05
22110.0 9.7791e-05
22130.0 9.6624e-05
22150.0 9.55e-05
22170.0 9.4407e-05
22190.0 9.3304e-05
22210.0 9.2232e-05
22230.0 9.1222e-05
22250.0 9.0225e-05
22270.0 8.9243e-05
22290.0 8.8313e-05
22310.0 8.7419e-05
22330.0 8.6524e-05
22350.0 8.5667e-05
22370.0 8.4852e-05
22390.0 8.4048e-05
22410.0 8.3249e-05
22430.0 8.2493e-05
22450.0 8.1754e-05
22470.0 8.101e-05
22490.0 8.0283e-05
22510.0 7.9581e-05
22530.0 7.8867e-05
22550.0 7.815e-05
22570.0 7.7459e-05
22590.0 7.6773e-05
22610.0 7.6077e-05
22630.0 7.5393e-05
22650.0 7.4736e-05
22670.0 7.4071e-05
22690.0 7.3413e-05
22710.0 7.2783e-05
22730.0 7.217e-05
22750.0 7.1551e-05
22770.0 7.0969e-05
22790.0 7.0422e-05
22810.0 6.9889e-05
22830.0 6.9383e-05
22850.0 6.8923e-05
22870.0 6.8495e-05
22890.0 6.8095e-05
22910.0 6.7745e-05
22930.0 6.7443e-05
22950.0 6.7185e-05
22970.0 6.6977e-05
22990.0 6.6826e-05
23010.0 6.6725e-05
23030.0 6.6676e-05
23050.0 6.6677e-05
23070.0 6.6719e-05
23090.0 6.6813e-05
23110.0 6.6945e-05
23130.0 6.71e-05
23150.0 6.7283e-05
23170.0 6.7495e-05
23190.0 6.7714e-05
23210.0 6.7934e-05
23230.0 6.8173e-05
23250.0 6.8413e-05
23270.0 6.8642e-05
23290.0 6.8875e-05
