#lamb flux
1010.0 1.2337e-08
1030.0 1.3645e-08
1050.0 1.5149e-08
1070.0 1.6843e-08
1090.0 1.8766e-08
1110.0 2.0739e-08
1130.0 2.2724e-08
1150.0 2.4804e-08
1170.0 2.6949e-08
1190.0 2.8984e-08
1210.0 3.1046e-08
1230.0 3.3176e-08
1250.0 3.5264e-08
1270.0 3.7291e-08
1290.0 3.9433e-08
1310.0 4.1574e-08
1330.0 4.3626e-08
1350.0 4.5702e-08
1370.0 4.7846e-08
1390.0 4.9935e-08
1410.0 5.1963e-08
1430.0 5.4083e-08
1450.0 5.6202e-08
1470.0 5.8251e-08
1490.0 6.0322e-08
1510.0 6.251e-08
1530.0 6.4583e-08
1550.0 6.6628e-08
1570.0 6.8745e-08
1590.0 7.0864e-08
1610.0 7.289e-08
1630.0 7.4978e-08
1650.0 7.7123e-08
1670.0 7.9198e-08
1690.0 8.1249e-08
1710.0 8.338e-08
1730.0 8.5524e-08
1750.0 8.7542e-08
1770.0 8.9622e-08
1790.0 9.1747e-08
1810.0 9.3806e-08
1830.0 9.5832e-08
1850.0 9.7985e-08
1870.0 1.0009e-07
1890.0 1.0212e-07
1910.0 1.042e-07
1930.0 1.0633e-07
1950.0 1.0837e-07
1970.0 1.1039e-07
1990.0 1.125e-07
2010.0 1.1457e-07
2030.0 1.1657e-07
2050.0 1.1864e-07
2070.0 1.2076e-07
2090.0 1.2277e-07
2110.0 1.2478e-07
2130.0 1.2685e-07
2150.0 1.2889e-07
2170.0 1.3084e-07
2190.0 1.3287e-07
2210.0 1.3492e-07
2230.0 1.3688e-07
2250.0 1.3884e-07
2270.0 1.4089e-07
2290.0 1.4288e-07
2310.0 1.448e-07
2330.0 1.4679e-07
2350.0 1.4883e-07
2370.0 1.5087e-07
2390.0 1.5307e-07
2410.0 1.5568e-07
2430.0 1.5869e-07
2450.0 1.6228e-07
2470.0 1.6688e-07
2490.0 1.7268e-07
2510.0 1.7927e-07
2530.0 1.8721e-07
2550.0 1.9714e-07
2570.0 2.095e-07
2590.0 2.2557e-07
2610.0 2.4963e-07
2630.0 2.8399e-07
2650.0 3.2892e-07
2670.0 3.87e-07
2690.0 4.5838e-07
2710.0 5.3457e-07
2730.0 6.0985e-07
2750.0 6.8401e-07
2770.0 7.4851e-07
2790.0 7.9973e-07
2810.0 8.4037e-07
2830.0 8.7213e-07
2850.0 8.9381e-07
2870.0 9.0972e-07
2890.0 9.2232e-07
2910.0 9.3237e-07
2930.0 9.4059e-07
2950.0 9.4843e-07
2970.0 9.561e-07
2990.0 9.6329e-07
3010.0 2.7228e-05
3030.0 2.7431e-05
3050.0 2.7628e-05
3070.0 2.7797e-05
3090.0 2.7941e-05
3110.0 2.8031e-05
3130.0 2.8028e-05
3150.0 2.7903e-05
3170.0 2.7604e-05
3190.0 2.7135e-05
3210.0 2.654e-05
3230.0 2.5859e-05
3250.0 2.5186e-05
3270.0 2.4695e-05
3290.0 2.4422e-05
3310.0 2.4466e-05
3330.0 2.482e-05
3350.0 2.5437e-05
3370.0 2.6317e-05
3390.0 2.7427e-05
3410.0 2.8634e-05
3430.0 2.999e-05
3450.0 3.1551e-05
3470.0 3.3255e-05
3490.0 3.5061e-05
3510.0 3.7103e-05
3530.0 3.9289e-05
3550.0 4.1502e-05
3570.0 4.3811e-05
3590.0 4.6322e-05
3610.0 4.8909e-05
3630.0 5.1489e-05
3650.0 5.4165e-05
3670.0 5.6608e-05
3690.0 5.8434e-05
3710.0 5.9481e-05
3730.0 5.9516e-05
3750.0 5.8688e-05
3770.0 5.8362e-05
3790.0 5.8015e-05
3810.0 5.6589e-05
3830.0 5.8341e-05
3850.0 6.5232e-05
3870.0 6.9015e-05
3890.0 6.87e-05
3910.0 6.8993e-05
3930.0 7.0809e-05
3950.0 7.1927e-05
3970.0 6.5532e-05
3990.0 5.6388e-05
4010.0 0.000169
4030.0 0.00020477
4050.0 0.00023475
4070.0 0.00020369
4090.0 0.00018448
4110.0 0.00016279
4130.0 0.00014983
4150.0 0.00015937
4170.0 0.00015699
4190.0 0.00016734
4210.0 0.00016581
4230.0 0.00017538
4250.0 0.00020748
4270.0 0.00020992
4290.0 0.00019344
4310.0 0.00020099
4330.0 0.0002138
4350.0 0.00023972
4370.0 0.00027281
4390.0 0.000256
4410.0 0.00018914
4430.0 0.00016012
4450.0 0.00014713
4470.0 0.00011293
4490.0 0.00012186
4510.0 0.00018408
4530.0 0.0002123
4550.0 0.00021414
4570.0 0.00024096
4590.0 0.00027448
4610.0 0.0003702
4630.0 0.00048081
4650.0 0.00052144
4670.0 0.0004829
4690.0 0.00046077
4710.0 0.00048707
4730.0 0.00045966
4750.0 0.00034365
4770.0 0.00025208
4790.0 0.00023539
4810.0 0.00022437
4830.0 0.00020541
4850.0 0.0002254
4870.0 0.00029777
4890.0 0.00035116
4910.0 0.0003081
4930.0 0.00027262
4950.0 0.00029952
4970.0 0.00038411
4990.0 0.00052056
5010.0 0.00059884
5030.0 0.00052804
5050.0 0.00035725
5070.0 0.00023544
5090.0 0.00018985
5110.0 0.00019524
5130.0 0.00022534
5150.0 0.00024414
5170.0 0.00024048
5190.0 0.00022471
5210.0 0.00023487
5230.0 0.0002469
5250.0 0.00026609
5270.0 0.0002871
5290.0 0.00031816
5310.0 0.00037033
5330.0 0.00040982
5350.0 0.00040721
5370.0 0.00042773
5390.0 0.00049083
5410.0 0.00049039
5430.0 0.00043368
5450.0 0.00039845
5470.0 0.00042309
5490.0 0.0005169
5510.0 0.0006463
5530.0 0.00074128
5550.0 0.00071646
5570.0 0.00065131
5590.0 0.00056633
5610.0 0.00052228
5630.0 0.00050645
5650.0 0.00048235
5670.0 0.00045706
5690.0 0.00040861
5710.0 0.0003984
5730.0 0.00036699
5750.0 0.00025875
5770.0 0.00020187
5790.0 0.00022876
5810.0 0.00025831
5830.0 0.00031698
5850.0 0.00037734
5870.0 0.00041866
5890.0 0.00042575
5910.0 0.00041769
5930.0 0.0003976
5950.0 0.00040515
5970.0 0.00046182
5990.0 0.00043423
6010.0 0.00036402
6030.0 0.00030754
6050.0 0.00026783
6070.0 0.00026637
6090.0 0.00028883
6110.0 0.00032296
6130.0 0.00032791
6150.0 0.00028213
6170.0 0.00024819
6190.0 0.0002793
6210.0 0.00036923
6230.0 0.00048454
6250.0 0.00052482
6270.0 0.00045863
6290.0 0.00038587
6310.0 0.00030123
6330.0 0.0002308
6350.0 0.00020587
6370.0 0.00021649
6390.0 0.00025028
6410.0 0.00030861
6430.0 0.00036037
6450.0 0.00041235
6470.0 0.00047215
6490.0 0.00057033
6510.0 0.00063771
6530.0 0.00062563
6550.0 0.00056574
6570.0 0.00048026
6590.0 0.00043306
6610.0 0.00037341
6630.0 0.0003383
6650.0 0.00031979
6670.0 0.00031067
6690.0 0.0002807
6710.0 0.00025517
6730.0 0.00018379
6750.0 0.00018221
6770.0 0.00019805
6790.0 0.00022764
6810.0 0.0002083
6830.0 0.00021449
6850.0 0.00020062
6870.0 0.00018326
6890.0 0.00017596
6910.0 0.00018751
6930.0 0.00017563
6950.0 0.00018069
6970.0 0.00019005
6990.0 0.00021573
7010.0 0.00021756
7030.0 0.00022102
7050.0 0.00021078
7070.0 0.00020083
7090.0 0.00020142
7110.0 0.00020725
7130.0 0.00022303
7150.0 0.00023688
7170.0 0.00026138
7190.0 0.00028733
7210.0 0.00028234
7230.0 0.00029025
7250.0 0.00031192
7270.0 0.00033991
7290.0 0.00040344
7310.0 0.00043777
7330.0 0.00042314
7350.0 0.00038271
7370.0 0.00033299
7390.0 0.00032304
7410.0 0.00034329
7430.0 0.00038153
7450.0 0.00041556
7470.0 0.00041174
7490.0 0.00037543
7510.0 0.00042526
7530.0 0.00042061
7550.0 0.00037805
7570.0 0.00029533
7590.0 0.00020303
7610.0 0.00017426
7630.0 0.00019799
7650.0 0.0002341
7670.0 0.00029135
7690.0 0.00032061
7710.0 0.00033412
7730.0 0.00035111
7750.0 0.00039416
7770.0 0.00040036
7790.0 0.00036775
7810.0 0.00033555
7830.0 0.00034603
7850.0 0.00033637
7870.0 0.0003084
7890.0 0.00025911
7910.0 0.00021062
7930.0 0.00020111
7950.0 0.00018322
7970.0 0.0001696
7990.0 0.00016864
8010.0 1.249e-05
8030.0 1.2327e-05
8050.0 1.2161e-05
8070.0 1.232e-05
8090.0 1.3238e-05
8110.0 1.3012e-05
8130.0 1.0733e-05
8150.0 1.0453e-05
8170.0 9.0039e-06
8190.0 8.5331e-06
8210.0 1.1081e-05
8230.0 1.2337e-05
8250.0 1.112e-05
8270.0 9.678e-06
8290.0 9.4343e-06
8310.0 7.261e-06
8330.0 4.8939e-06
8350.0 3.4732e-06
8370.0 2.1882e-06
8390.0 4.0001e-06
8410.0 4.6612e-06
8430.0 5.7456e-06
8450.0 6.7469e-06
8470.0 8.386e-06
8490.0 8.3269e-06
8510.0 8.1907e-06
8530.0 8.5482e-06
8550.0 1.1533e-05
8570.0 1.3654e-05
8590.0 1.4732e-05
8610.0 1.861e-05
8630.0 2.2418e-05
8650.0 2.3452e-05
8670.0 2.4922e-05
8690.0 2.5062e-05
8710.0 2.2697e-05
8730.0 2.1112e-05
8750.0 1.8635e-05
8770.0 1.7682e-05
8790.0 1.7372e-05
8810.0 1.6646e-05
8830.0 1.3311e-05
8850.0 9.7445e-06
8870.0 7.4612e-06
8890.0 7.2946e-06
8910.0 8.3597e-06
8930.0 9.5086e-06
8950.0 9.6907e-06
8970.0 9.7365e-06
8990.0 8.6837e-06
9010.0 9.1001e-05
9030.0 8.2458e-05
9050.0 8.2856e-05
9070.0 8.351e-05
9090.0 8.4084e-05
9110.0 8.4792e-05
9130.0 8.5339e-05
9150.0 8.5764e-05
9170.0 8.6217e-05
9190.0 8.67e-05
9210.0 8.721e-05
9230.0 8.7747e-05
9250.0 8.8293e-05
9270.0 8.8859e-05
9290.0 8.9443e-05
9310.0 9.003e-05
9330.0 9.0629e-05
9350.0 9.1251e-05
9370.0 9.1879e-05
9390.0 9.2514e-05
9410.0 9.3167e-05
9430.0 9.3839e-05
9450.0 9.451e-05
9470.0 9.5194e-05
9490.0 9.5898e-05
9510.0 9.661e-05
9530.0 9.7325e-05
9550.0 9.8066e-05
9570.0 9.882e-05
9590.0 9.9575e-05
9610.0 0.00010034
9630.0 0.00010113
9650.0 0.00010193
9670.0 0.00010273
9690.0 0.00010354
9710.0 0.00010438
9730.0 0.00010521
9750.0 0.00010606
9770.0 0.00010693
9790.0 0.00010779
9810.0 0.00010867
9830.0 0.00010956
9850.0 0.00011046
9870.0 0.00011137
9890.0 0.00011228
9910.0 0.00011321
9930.0 0.00011414
9950.0 0.00011508
9970.0 0.00011603
9990.0 0.000117
10010.0 0.00010152
10030.0 0.00010236
10050.0 0.00010321
10070.0 0.00010409
10090.0 0.00010492
10110.0 0.00010577
10130.0 0.00010662
10150.0 0.00010747
10170.0 0.00010833
10190.0 0.00010921
10210.0 0.00011007
10230.0 0.00011093
10250.0 0.00011181
10270.0 0.00011269
10290.0 0.00011355
10310.0 0.00011443
10330.0 0.00011531
10350.0 0.00011618
10370.0 0.00011705
10390.0 0.00011792
10410.0 0.0001188
10430.0 0.00011965
10450.0 0.00012052
10470.0 0.00012138
10490.0 0.00012223
10510.0 0.00012308
10530.0 0.00012394
10550.0 0.00012478
10570.0 0.00012561
10590.0 0.00012644
10610.0 0.00012728
10630.0 0.00012809
10650.0 0.00012889
10670.0 0.0001297
10690.0 0.0001305
10710.0 0.00013128
10730.0 0.00013206
10750.0 0.00013284
10770.0 0.00013359
10790.0 0.00013434
10810.0 0.00013508
10830.0 0.0001358
10850.0 0.00013649
10870.0 0.00013715
10890.0 0.00013773
10910.0 0.00013818
10930.0 0.00013844
10950.0 0.00013838
10970.0 0.00013791
10990.0 0.00013699
11010.0 0.00013545
11030.0 0.0001333
11050.0 0.00013067
11070.0 0.00012753
11090.0 0.00012376
11110.0 0.00011985
11130.0 0.00011578
11150.0 0.0001114
11170.0 0.00010688
11190.0 0.0001025
11210.0 9.7971e-05
11230.0 9.333e-05
11250.0 8.8895e-05
11270.0 8.4636e-05
11290.0 8.0369e-05
11310.0 7.6327e-05
11330.0 7.2768e-05
11350.0 6.9405e-05
11370.0 6.6298e-05
11390.0 6.3609e-05
11410.0 6.1258e-05
11430.0 5.9072e-05
11450.0 5.7189e-05
11470.0 5.5561e-05
11490.0 5.4046e-05
11510.0 5.2587e-05
11530.0 5.1232e-05
11550.0 4.9886e-05
11570.0 4.8451e-05
11590.0 4.6964e-05
11610.0 4.5451e-05
11630.0 4.3804e-05
11650.0 4.204e-05
11670.0 4.0302e-05
11690.0 3.854e-05
11710.0 3.6722e-05
11730.0 3.496e-05
11750.0 3.333e-05
11770.0 3.1731e-05
11790.0 3.0233e-05
11810.0 2.8914e-05
11830.0 2.7734e-05
11850.0 2.6647e-05
11870.0 2.5738e-05
11890.0 2.4983e-05
11910.0 2.4319e-05
11930.0 2.3748e-05
11950.0 2.3273e-05
11970.0 2.2848e-05
11990.0 2.2447e-05
12010.0 2.2075e-05
12030.0 2.1718e-05
12050.0 2.1348e-05
12070.0 2.0963e-05
12090.0 2.0592e-05
12110.0 2.0216e-05
12130.0 1.9838e-05
12150.0 1.949e-05
12170.0 1.9187e-05
12190.0 1.8924e-05
12210.0 1.8741e-05
12230.0 1.8652e-05
12250.0 1.8667e-05
12270.0 1.8807e-05
12290.0 1.9073e-05
12310.0 1.9455e-05
12330.0 1.9989e-05
12350.0 2.0656e-05
12370.0 2.1414e-05
12390.0 2.2289e-05
12410.0 2.3314e-05
12430.0 2.4356e-05
12450.0 2.5435e-05
12470.0 2.6582e-05
12490.0 2.7735e-05
12510.0 2.8816e-05
12530.0 2.9891e-05
12550.0 3.0928e-05
12570.0 3.1844e-05
12590.0 3.2648e-05
12610.0 3.3365e-05
12630.0 3.3936e-05
12650.0 3.433e-05
12670.0 3.4589e-05
12690.0 3.4693e-05
12710.0 3.4636e-05
12730.0 3.4435e-05
12750.0 3.4077e-05
12770.0 3.3585e-05
12790.0 3.2989e-05
12810.0 3.2277e-05
12830.0 3.1454e-05
12850.0 3.0592e-05
12870.0 2.9682e-05
12890.0 2.8696e-05
12910.0 2.7695e-05
12930.0 2.6707e-05
12950.0 2.5677e-05
12970.0 2.4629e-05
12990.0 2.3637e-05
13010.0 2.2657e-05
13030.0 2.1666e-05
13050.0 2.0715e-05
13070.0 1.9823e-05
13090.0 1.8929e-05
13110.0 1.8063e-05
13130.0 1.7266e-05
13150.0 1.651e-05
13170.0 1.577e-05
13190.0 1.5112e-05
13210.0 1.4533e-05
13230.0 1.4003e-05
13250.0 1.3547e-05
13270.0 1.3187e-05
13290.0 1.2907e-05
13310.0 1.2715e-05
13330.0 1.2627e-05
13350.0 1.2637e-05
13370.0 1.275e-05
13390.0 1.2973e-05
13410.0 1.3274e-05
13430.0 1.3665e-05
13450.0 1.4148e-05
13470.0 1.4685e-05
13490.0 1.5253e-05
13510.0 1.5893e-05
13530.0 1.6543e-05
13550.0 1.7165e-05
13570.0 1.7778e-05
13590.0 1.8375e-05
13610.0 1.8906e-05
13630.0 1.937e-05
13650.0 1.9794e-05
13670.0 2.0146e-05
13690.0 2.0418e-05
13710.0 2.0628e-05
13730.0 2.0778e-05
13750.0 2.0853e-05
13770.0 2.087e-05
13790.0 2.0832e-05
13810.0 2.074e-05
13830.0 2.0605e-05
13850.0 2.042e-05
13870.0 2.0188e-05
13890.0 1.9923e-05
13910.0 1.9623e-05
13930.0 1.9277e-05
13950.0 1.8899e-05
13970.0 1.8512e-05
13990.0 1.8091e-05
14010.0 1.7643e-05
14030.0 1.7197e-05
14050.0 1.6746e-05
14070.0 1.6271e-05
14090.0 1.5816e-05
14110.0 1.5388e-05
14130.0 1.4973e-05
14150.0 1.4583e-05
14170.0 1.4249e-05
14190.0 1.3961e-05
14210.0 1.3717e-05
14230.0 1.3536e-05
14250.0 1.3419e-05
14270.0 1.3362e-05
14290.0 1.3374e-05
14310.0 1.3449e-05
14330.0 1.3583e-05
14350.0 1.378e-05
14370.0 1.4025e-05
14390.0 1.4304e-05
14410.0 1.4632e-05
14430.0 1.4993e-05
14450.0 1.5361e-05
14470.0 1.5743e-05
14490.0 1.6149e-05
14510.0 1.6537e-05
14530.0 1.6906e-05
14550.0 1.7275e-05
14570.0 1.7629e-05
14590.0 1.7951e-05
14610.0 1.8263e-05
14630.0 1.8571e-05
14650.0 1.8859e-05
14670.0 1.9136e-05
14690.0 1.9425e-05
14710.0 1.973e-05
14730.0 2.0034e-05
14750.0 2.0371e-05
14770.0 2.0753e-05
14790.0 2.1167e-05
14810.0 2.1616e-05
14830.0 2.2148e-05
14850.0 2.2726e-05
14870.0 2.3329e-05
14890.0 2.398e-05
14910.0 2.4671e-05
14930.0 2.5336e-05
14950.0 2.5957e-05
14970.0 2.6545e-05
14990.0 2.7038e-05
15010.0 2.7415e-05
15030.0 2.7694e-05
15050.0 2.7879e-05
15070.0 2.7969e-05
15090.0 2.8e-05
15110.0 2.7991e-05
15130.0 2.7956e-05
15150.0 2.7909e-05
15170.0 2.7853e-05
15190.0 2.7793e-05
15210.0 2.7734e-05
15230.0 2.7675e-05
15250.0 2.7614e-05
15270.0 2.7553e-05
15290.0 2.7496e-05
15310.0 2.7437e-05
15330.0 2.7378e-05
15350.0 2.7321e-05
15370.0 2.7264e-05
15390.0 2.7205e-05
15410.0 2.7147e-05
15430.0 2.7092e-05
15450.0 2.7035e-05
15470.0 2.6977e-05
15490.0 2.6922e-05
15510.0 2.6867e-05
15530.0 2.681e-05
15550.0 2.6755e-05
15570.0 2.6701e-05
15590.0 2.6645e-05
15610.0 2.6588e-05
15630.0 2.6535e-05
15650.0 2.6481e-05
15670.0 2.6426e-05
15690.0 2.6372e-05
15710.0 2.632e-05
15730.0 2.6265e-05
15750.0 2.6211e-05
15770.0 2.6158e-05
15790.0 2.6105e-05
15810.0 2.605e-05
15830.0 2.5997e-05
15850.0 2.5946e-05
15870.0 2.5892e-05
15890.0 2.5839e-05
15910.0 2.5788e-05
15930.0 2.5736e-05
15950.0 2.5681e-05
15970.0 2.5629e-05
15990.0 2.5578e-05
16010.0 2.5525e-05
16030.0 2.5471e-05
16050.0 2.5421e-05
16070.0 2.5369e-05
16090.0 2.5316e-05
16110.0 2.5264e-05
16130.0 2.5214e-05
16150.0 2.516e-05
16170.0 2.5107e-05
16190.0 2.5056e-05
16210.0 2.5004e-05
16230.0 2.4951e-05
16250.0 2.4899e-05
16270.0 2.4849e-05
16290.0 2.4796e-05
16310.0 2.4743e-05
16330.0 2.4692e-05
16350.0 2.464e-05
16370.0 2.4585e-05
16390.0 2.4534e-05
16410.0 2.4483e-05
16430.0 2.443e-05
16450.0 2.4377e-05
16470.0 2.4327e-05
16490.0 2.4274e-05
16510.0 2.422e-05
16530.0 2.4168e-05
16550.0 2.4116e-05
16570.0 2.4061e-05
16590.0 2.4008e-05
16610.0 2.3957e-05
16630.0 2.3903e-05
16650.0 2.3849e-05
16670.0 2.3797e-05
16690.0 2.3745e-05
16710.0 2.3689e-05
16730.0 2.3635e-05
16750.0 2.3583e-05
16770.0 2.3529e-05
16790.0 2.3473e-05
16810.0 2.3421e-05
16830.0 2.3368e-05
16850.0 2.3312e-05
16870.0 2.3258e-05
16890.0 2.3205e-05
16910.0 2.3149e-05
16930.0 2.3093e-05
16950.0 2.3039e-05
16970.0 2.2985e-05
16990.0 2.2928e-05
17010.0 2.2873e-05
17030.0 2.2819e-05
17050.0 2.2763e-05
17070.0 2.2706e-05
17090.0 2.2651e-05
17110.0 2.2596e-05
17130.0 2.2537e-05
17150.0 2.2482e-05
17170.0 2.2427e-05
17190.0 2.2369e-05
17210.0 2.2312e-05
17230.0 2.2257e-05
17250.0 2.22e-05
17270.0 2.2141e-05
17290.0 2.2084e-05
17310.0 2.2028e-05
17330.0 2.1969e-05
17350.0 2.191e-05
17370.0 2.1854e-05
17390.0 2.1796e-05
17410.0 2.1737e-05
17430.0 2.1679e-05
17450.0 2.1622e-05
17470.0 2.1562e-05
17490.0 2.1502e-05
17510.0 2.1445e-05
17530.0 2.1386e-05
17550.0 2.1325e-05
17570.0 2.1267e-05
17590.0 2.1209e-05
17610.0 2.1148e-05
17630.0 2.1088e-05
17650.0 2.1029e-05
17670.0 2.0969e-05
17690.0 2.0906e-05
17710.0 2.0847e-05
17730.0 2.0788e-05
17750.0 2.0726e-05
17770.0 2.0665e-05
17790.0 2.0607e-05
17810.0 2.0545e-05
17830.0 2.0482e-05
17850.0 2.0422e-05
17870.0 2.0362e-05
17890.0 2.0298e-05
17910.0 2.0236e-05
17930.0 2.0177e-05
17950.0 2.0114e-05
17970.0 2.0052e-05
17990.0 1.9991e-05
18010.0 1.993e-05
18030.0 1.9865e-05
18050.0 1.9803e-05
18070.0 1.9742e-05
18090.0 1.9679e-05
18110.0 1.9615e-05
18130.0 1.9553e-05
18150.0 1.9491e-05
18170.0 1.9427e-05
18190.0 1.9364e-05
18210.0 1.9303e-05
18230.0 1.9238e-05
18250.0 1.9173e-05
18270.0 1.9111e-05
18290.0 1.9048e-05
18310.0 1.8983e-05
18330.0 1.892e-05
18350.0 1.8858e-05
18370.0 1.8793e-05
18390.0 1.8729e-05
18410.0 1.8666e-05
18430.0 1.8602e-05
18450.0 1.8536e-05
18470.0 1.8472e-05
18490.0 1.841e-05
18510.0 1.8345e-05
18530.0 1.828e-05
18550.0 1.8217e-05
18570.0 1.8153e-05
18590.0 1.8086e-05
18610.0 1.8022e-05
18630.0 1.7959e-05
18650.0 1.7893e-05
18670.0 1.7827e-05
18690.0 1.7764e-05
18710.0 1.77e-05
18730.0 1.7634e-05
18750.0 1.757e-05
18770.0 1.7506e-05
18790.0 1.7439e-05
18810.0 1.7374e-05
18830.0 1.731e-05
18850.0 1.7245e-05
18870.0 1.7179e-05
18890.0 1.7115e-05
18910.0 1.7051e-05
18930.0 1.6985e-05
18950.0 1.6919e-05
18970.0 1.6855e-05
18990.0 1.679e-05
19010.0 1.6722e-05
19030.0 1.6659e-05
19050.0 1.6594e-05
19070.0 1.6528e-05
19090.0 1.6463e-05
19110.0 1.64e-05
19130.0 1.6333e-05
19150.0 1.6267e-05
19170.0 1.6203e-05
19190.0 1.6138e-05
19210.0 1.6071e-05
19230.0 1.6006e-05
19250.0 1.5942e-05
19270.0 1.5877e-05
19290.0 1.5811e-05
19310.0 1.5747e-05
19330.0 1.5682e-05
19350.0 1.5615e-05
19370.0 1.555e-05
19390.0 1.5486e-05
19410.0 1.542e-05
19430.0 1.5354e-05
19450.0 1.529e-05
19470.0 1.5226e-05
19490.0 1.516e-05
19510.0 1.5095e-05
19530.0 1.5031e-05
19550.0 1.4965e-05
19570.0 1.4899e-05
19590.0 1.4835e-05
19610.0 1.4771e-05
19630.0 1.4704e-05
19650.0 1.464e-05
19670.0 1.4577e-05
19690.0 1.4511e-05
19710.0 1.4445e-05
19730.0 1.4382e-05
19750.0 1.4317e-05
19770.0 1.4251e-05
19790.0 1.4187e-05
19810.0 1.4123e-05
19830.0 1.4058e-05
19850.0 1.3992e-05
19870.0 1.3927e-05
19890.0 1.3857e-05
19910.0 1.3781e-05
19930.0 1.3699e-05
19950.0 1.3606e-05
19970.0 1.349e-05
19990.0 1.3352e-05
20010.0 1.1879e-05
20030.0 1.1707e-05
20050.0 1.1506e-05
20070.0 1.1288e-05
20090.0 1.1053e-05
20110.0 1.0788e-05
20130.0 1.0519e-05
20150.0 1.0253e-05
20170.0 9.9773e-06
20190.0 9.6975e-06
20210.0 9.4331e-06
20230.0 9.1753e-06
20250.0 8.9169e-06
20270.0 8.677e-06
20290.0 8.4581e-06
20310.0 8.25e-06
20330.0 8.0556e-06
20350.0 7.8942e-06
20370.0 7.7509e-06
20390.0 7.6253e-06
20410.0 7.5238e-06
20430.0 7.4456e-06
20450.0 7.3836e-06
20470.0 7.3421e-06
20490.0 7.3198e-06
20510.0 7.3133e-06
20530.0 7.3224e-06
20550.0 7.345e-06
20570.0 7.3779e-06
20590.0 7.4224e-06
20610.0 7.4763e-06
20630.0 7.5357e-06
20650.0 7.6022e-06
20670.0 7.6781e-06
20690.0 7.7556e-06
20710.0 7.8356e-06
20730.0 7.922e-06
20750.0 8.0121e-06
20770.0 8.1008e-06
20790.0 8.1939e-06
20810.0 8.2923e-06
20830.0 8.3904e-06
20850.0 8.4888e-06
20870.0 8.5942e-06
20890.0 8.7017e-06
20910.0 8.8053e-06
20930.0 8.9129e-06
20950.0 9.0243e-06
20970.0 9.133e-06
20990.0 9.2402e-06
21010.0 9.353e-06
21030.0 9.4632e-06
21050.0 9.5683e-06
21070.0 9.6733e-06
21090.0 9.7787e-06
21110.0 9.8747e-06
21130.0 9.965e-06
21150.0 1.0052e-05
21170.0 1.0132e-05
21190.0 1.02e-05
21210.0 1.0261e-05
21230.0 1.0312e-05
21250.0 1.0348e-05
21270.0 1.0371e-05
21290.0 1.038e-05
21310.0 1.0372e-05
21330.0 1.0347e-05
21350.0 1.0304e-05
21370.0 1.0241e-05
21390.0 1.0161e-05
21410.0 1.0063e-05
21430.0 9.9383e-06
21450.0 9.7988e-06
21470.0 9.6467e-06
21490.0 9.4748e-06
21510.0 9.2861e-06
21530.0 9.0945e-06
21550.0 8.8937e-06
21570.0 8.6796e-06
21590.0 8.469e-06
21610.0 8.2656e-06
21630.0 8.0619e-06
21650.0 7.8629e-06
21670.0 7.6904e-06
21690.0 7.5313e-06
21710.0 7.388e-06
21730.0 7.2707e-06
21750.0 7.1802e-06
21770.0 7.1112e-06
21790.0 7.0715e-06
21810.0 7.0605e-06
21830.0 7.0762e-06
21850.0 7.1204e-06
21870.0 7.1894e-06
21890.0 7.2785e-06
21910.0 7.3928e-06
21930.0 7.5269e-06
21950.0 7.6721e-06
21970.0 7.833e-06
21990.0 8.0135e-06
22010.0 8.194e-06
22030.0 8.3773e-06
22050.0 8.5698e-06
22070.0 8.7633e-06
22090.0 8.9465e-06
22110.0 9.1313e-06
22130.0 9.3157e-06
22150.0 9.488e-06
22170.0 9.6504e-06
22190.0 9.8113e-06
22210.0 9.9611e-06
22230.0 1.0093e-05
22250.0 1.0217e-05
22270.0 1.0331e-05
22290.0 1.0429e-05
22310.0 1.0513e-05
22330.0 1.0587e-05
22350.0 1.0644e-05
22370.0 1.0684e-05
22390.0 1.0709e-05
22410.0 1.0717e-05
22430.0 1.0707e-05
22450.0 1.0679e-05
22470.0 1.0632e-05
22490.0 1.0565e-05
22510.0 1.0481e-05
22530.0 1.0374e-05
22550.0 1.0245e-05
22570.0 1.0101e-05
22590.0 9.9381e-06
22610.0 9.7512e-06
22630.0 9.5489e-06
