#lamb flux
1010.0 3.4654e-06
1030.0 3.7524e-06
1050.0 4.1576e-06
1070.0 4.6138e-06
1090.0 5.1112e-06
1110.0 5.6257e-06
1130.0 6.1466e-06
1150.0 6.6938e-06
1170.0 7.2575e-06
1190.0 7.7882e-06
1210.0 8.3194e-06
1230.0 8.8588e-06
1250.0 9.3791e-06
1270.0 9.8691e-06
1290.0 1.0372e-05
1310.0 1.0856e-05
1330.0 1.1302e-05
1350.0 1.1738e-05
1370.0 1.2178e-05
1390.0 1.2595e-05
1410.0 1.2992e-05
1430.0 1.3411e-05
1450.0 1.3833e-05
1470.0 1.4246e-05
1490.0 1.4677e-05
1510.0 1.5152e-05
1530.0 1.562e-05
1550.0 1.6104e-05
1570.0 1.663e-05
1590.0 1.7183e-05
1610.0 1.7746e-05
1630.0 1.8361e-05
1650.0 1.902e-05
1670.0 1.9694e-05
1690.0 2.0392e-05
1710.0 2.1137e-05
1730.0 2.191e-05
1750.0 2.2673e-05
1770.0 2.3466e-05
1790.0 2.4282e-05
1810.0 2.5082e-05
1830.0 2.5869e-05
1850.0 2.6676e-05
1870.0 2.7448e-05
1890.0 2.8169e-05
1910.0 2.8863e-05
1930.0 2.9523e-05
1950.0 3.0101e-05
1970.0 3.0612e-05
1990.0 3.1079e-05
2010.0 3.1467e-05
2030.0 3.1765e-05
2050.0 3.2011e-05
2070.0 3.2204e-05
2090.0 3.2303e-05
2110.0 3.2345e-05
2130.0 3.2353e-05
2150.0 3.231e-05
2170.0 3.2214e-05
2190.0 3.2113e-05
2210.0 3.2001e-05
2230.0 3.1864e-05
2250.0 3.1729e-05
2270.0 3.1625e-05
2290.0 3.1523e-05
2310.0 3.1427e-05
2330.0 3.1372e-05
2350.0 3.1355e-05
2370.0 3.1357e-05
2390.0 3.1406e-05
2410.0 3.1524e-05
2430.0 3.1683e-05
2450.0 3.1895e-05
2470.0 3.2193e-05
2490.0 3.2584e-05
2510.0 3.3051e-05
2530.0 3.3687e-05
2550.0 3.4627e-05
2570.0 3.6003e-05
2590.0 3.7998e-05
2610.0 4.1116e-05
2630.0 4.5514e-05
2650.0 5.1028e-05
2670.0 5.7776e-05
2690.0 6.5571e-05
2710.0 7.3391e-05
2730.0 8.0647e-05
2750.0 8.7254e-05
2770.0 9.2424e-05
2790.0 9.5966e-05
2810.0 9.8159e-05
2830.0 9.9154e-05
2850.0 9.9281e-05
2870.0 9.8945e-05
2890.0 9.8327e-05
2910.0 9.7664e-05
2930.0 9.716e-05
2950.0 9.6729e-05
2970.0 9.6433e-05
2990.0 9.6393e-05
3010.0 0.00012926
3030.0 0.00012966
3050.0 0.0001303
3070.0 0.00013126
3090.0 0.00013228
3110.0 0.00013327
3130.0 0.00013423
3150.0 0.00013551
3170.0 0.00013606
3190.0 0.0001572
3210.0 0.00024947
3230.0 0.00039785
3250.0 0.00047157
3270.0 0.0004237
3290.0 0.00034053
3310.0 0.00029586
3330.0 0.00028014
3350.0 0.00028253
3370.0 0.00029014
3390.0 0.00029899
3410.0 0.00030709
3430.0 0.00030774
3450.0 0.00031263
3470.0 0.00031943
3490.0 0.00034132
3510.0 0.00038251
3530.0 0.00043096
3550.0 0.00051768
3570.0 0.00062323
3590.0 0.00067899
3610.0 0.00069066
3630.0 0.00069259
3650.0 0.00070097
3670.0 0.00076208
3690.0 0.00090618
3710.0 0.001063
3730.0 0.0011723
3750.0 0.0012572
3770.0 0.0012617
3790.0 0.0011969
3810.0 0.001105
3830.0 0.00098073
3850.0 0.00088063
3870.0 0.00084097
3890.0 0.00093458
3910.0 0.0011158
3930.0 0.0013005
3950.0 0.0014481
3970.0 0.0015249
3990.0 0.0015404
4010.0 0.001519
4030.0 0.0013596
4050.0 0.001132
4070.0 0.0010111
4090.0 0.0010238
4110.0 0.0010992
4130.0 0.0011354
4150.0 0.0011424
4170.0 0.0011393
4190.0 0.0011549
4210.0 0.0011639
4230.0 0.0012037
4250.0 0.0012395
4270.0 0.0012711
4290.0 0.0012856
4310.0 0.0013109
4330.0 0.0013425
4350.0 0.0013608
4370.0 0.0013152
4390.0 0.0012067
4410.0 0.0010619
4430.0 0.00092612
4450.0 0.00084622
4470.0 0.00085239
4490.0 0.00091986
4510.0 0.0010331
4530.0 0.0012055
4550.0 0.0014717
4570.0 0.0017848
4590.0 0.0021475
4610.0 0.0025073
4630.0 0.0027278
4650.0 0.0027942
4670.0 0.0027541
4690.0 0.0025655
4710.0 0.0022424
4730.0 0.0018756
4750.0 0.001571
4770.0 0.0013776
4790.0 0.0013385
4810.0 0.0013809
4830.0 0.0014546
4850.0 0.0015579
4870.0 0.0016811
4890.0 0.0017535
4910.0 0.0018221
4930.0 0.0019583
4950.0 0.0021053
4970.0 0.0021449
4990.0 0.0020386
5010.0 0.0018212
5030.0 0.0015581
5050.0 0.0013503
5070.0 0.0012227
5090.0 0.0011611
5110.0 0.0011559
5130.0 0.0011621
5150.0 0.0011597
5170.0 0.0011729
5190.0 0.0012317
5210.0 0.0013533
5230.0 0.0015104
5250.0 0.0017105
5270.0 0.0019206
5290.0 0.0020805
5310.0 0.0022004
5330.0 0.0023124
5350.0 0.0023722
5370.0 0.0023438
5390.0 0.0022872
5410.0 0.0022825
5430.0 0.0023909
5450.0 0.0026172
5470.0 0.0028636
5490.0 0.0030136
5510.0 0.0030455
5530.0 0.0030056
5550.0 0.0029252
5570.0 0.00282
5590.0 0.0027202
5610.0 0.0026372
5630.0 0.0025712
5650.0 0.0024734
5670.0 0.0023053
5690.0 0.0021193
5710.0 0.00197
5730.0 0.0018486
5750.0 0.0017974
5770.0 0.0018206
5790.0 0.0018544
5810.0 0.0018578
5830.0 0.0018518
5850.0 0.0018263
5870.0 0.0017727
5890.0 0.0017455
5910.0 0.0017382
5930.0 0.0016738
5950.0 0.0015433
5970.0 0.0013771
5990.0 0.0012123
6010.0 0.001097
6030.0 0.0010552
6050.0 0.001086
6070.0 0.0011352
6090.0 0.0011303
6110.0 0.0011007
6130.0 0.001112
6150.0 0.0011633
6170.0 0.0012124
6190.0 0.0012378
6210.0 0.0012359
6230.0 0.0011862
6250.0 0.0010855
6270.0 0.00096332
6290.0 0.00086524
6310.0 0.00084098
6330.0 0.00088449
6350.0 0.00094716
6370.0 0.0010104
6390.0 0.001111
6410.0 0.0012523
6430.0 0.0013647
6450.0 0.0014232
6470.0 0.0014629
6490.0 0.0014965
6510.0 0.0015117
6530.0 0.0015191
6550.0 0.0015388
6570.0 0.0015489
6590.0 0.001542
6610.0 0.0015089
6630.0 0.0014436
6650.0 0.0013519
6670.0 0.0012617
6690.0 0.0012022
6710.0 0.0011579
6730.0 0.0011089
6750.0 0.0010817
6770.0 0.0010993
6790.0 0.0011245
6810.0 0.0011252
6830.0 0.0011058
6850.0 0.0010779
6870.0 0.0010501
6890.0 0.0010264
6910.0 0.0010276
6930.0 0.0010369
6950.0 0.0010377
6970.0 0.0010369
6990.0 0.001025
7010.0 0.00099434
7030.0 0.00093759
7050.0 0.00085928
7070.0 0.00079878
7090.0 0.00079202
7110.0 0.00081142
7130.0 0.00080144
7150.0 0.00077088
7170.0 0.00077503
7190.0 0.00082682
7210.0 0.00088742
7230.0 0.00093507
7250.0 0.00096051
7270.0 0.00094302
7290.0 0.00090459
7310.0 0.00088036
7330.0 0.00089153
7350.0 0.00091973
7370.0 0.00093982
7390.0 0.00097301
7410.0 0.0010329
7430.0 0.0010921
7450.0 0.0011318
7470.0 0.0011386
7490.0 0.0010849
7510.0 0.0010165
7530.0 0.00098871
7550.0 0.00095146
7570.0 0.0009127
7590.0 0.00089651
7610.0 0.00089708
7630.0 0.00091935
7650.0 0.00097457
7670.0 0.0010471
7690.0 0.0011146
7710.0 0.0011619
7730.0 0.0012021
7750.0 0.001237
7770.0 0.0012609
7790.0 0.0012844
7810.0 0.0012884
7830.0 0.00125
7850.0 0.0012054
7870.0 0.0011755
7890.0 0.001163
7910.0 0.0011622
7930.0 0.0011384
7950.0 0.0011066
7970.0 0.0010699
7990.0 0.001042
8010.0 0.00098524
8030.0 0.00098527
8050.0 0.00098255
8070.0 0.00097015
8090.0 0.00096063
8110.0 0.00095058
8130.0 0.000952
8150.0 0.00094601
8170.0 0.00093202
8190.0 0.00090552
8210.0 0.00086919
8230.0 0.00083633
8250.0 0.00082413
8270.0 0.0007827
8290.0 0.00069352
8310.0 0.00059596
8330.0 0.00052998
8350.0 0.00051068
8370.0 0.0005518
8390.0 0.00061801
8410.0 0.00065996
8430.0 0.00069094
8450.0 0.00074117
8470.0 0.00079743
8490.0 0.00086867
8510.0 0.00094795
8530.0 0.0010286
8550.0 0.0010921
8570.0 0.0011389
8590.0 0.0011743
8610.0 0.0011978
8630.0 0.0011969
8650.0 0.0011764
8670.0 0.0011788
8690.0 0.0012346
8710.0 0.0013096
8730.0 0.0013424
8750.0 0.0013301
8770.0 0.0013402
8790.0 0.0013409
8810.0 0.0012898
8830.0 0.001196
8850.0 0.0010791
8870.0 0.00099157
8890.0 0.00096356
8910.0 0.00094119
8930.0 0.00087971
8950.0 0.00081653
8970.0 0.00079205
8990.0 0.00079713
9010.0 0.00078835
9030.0 0.0007761
9050.0 0.00076911
9070.0 0.00076513
9090.0 0.00076157
9110.0 0.00075811
9130.0 0.00075466
9150.0 0.00075129
9170.0 0.00074785
9190.0 0.00074484
9210.0 0.00074257
9230.0 0.00073884
9250.0 0.00073536
9270.0 0.00073205
9290.0 0.00072886
9310.0 0.00072573
9330.0 0.00072266
9350.0 0.0007197
9370.0 0.00071676
9390.0 0.00071383
9410.0 0.00071095
9430.0 0.00070797
9450.0 0.00070412
9470.0 0.00070062
9490.0 0.00069881
9510.0 0.00069654
9530.0 0.00069421
9550.0 0.00069172
9570.0 0.00068918
9590.0 0.00068667
9610.0 0.00068416
9630.0 0.00068161
9650.0 0.0006791
9670.0 0.00067667
9690.0 0.0006742
9710.0 0.00067174
9730.0 0.00066935
9750.0 0.00066697
9770.0 0.00066451
9790.0 0.00066214
9810.0 0.00065981
9830.0 0.00065743
9850.0 0.00065501
9870.0 0.00065273
9890.0 0.00065041
9910.0 0.00064804
9930.0 0.0006457
9950.0 0.00064171
9970.0 0.00063984
9990.0 0.00063784
10010.0 0.00063585
10030.0 0.0006337
10050.0 0.00063141
10070.0 0.00062914
10090.0 0.00062689
10110.0 0.00062428
10130.0 0.0006209
10150.0 0.00061866
10170.0 0.00061653
10190.0 0.0006141
10210.0 0.00061177
10230.0 0.00060943
10250.0 0.00060681
10270.0 0.00060418
10290.0 0.00060168
10310.0 0.00059897
10330.0 0.00059605
10350.0 0.00059334
10370.0 0.00059062
10390.0 0.00058765
10410.0 0.00058468
10430.0 0.00058191
10450.0 0.00057889
10470.0 0.00057573
10490.0 0.0005727
10510.0 0.00056965
10530.0 0.00056623
10550.0 0.0005629
10570.0 0.00055971
10590.0 0.0005563
10610.0 0.00055273
10630.0 0.00054933
10650.0 0.00054585
10670.0 0.00054205
10690.0 0.00053831
10710.0 0.00053466
10730.0 0.00053076
10750.0 0.00052662
10770.0 0.00052279
10790.0 0.00051881
10810.0 0.00051457
10830.0 0.00051037
10850.0 0.0005063
10870.0 0.0005018
10890.0 0.00049724
10910.0 0.00049284
10930.0 0.00048831
10950.0 0.00048348
10970.0 0.00047873
10990.0 0.00047413
11010.0 0.00049638
11030.0 0.00049126
11050.0 0.00048639
11070.0 0.00048148
11090.0 0.00047627
11110.0 0.00047144
11130.0 0.00046676
11150.0 0.00046195
11170.0 0.00045719
11190.0 0.00045276
11210.0 0.00044828
11230.0 0.00044375
11250.0 0.0004395
11270.0 0.00043543
11290.0 0.00043129
11310.0 0.00042728
11330.0 0.00042362
11350.0 0.00041994
11370.0 0.00041624
11390.0 0.00041269
11410.0 0.00040917
11430.0 0.00040537
11450.0 0.00040152
11470.0 0.00039761
11490.0 0.00039341
11510.0 0.00038881
11530.0 0.00038413
11550.0 0.00037921
11570.0 0.00037382
11590.0 0.0003682
11610.0 0.00036252
11630.0 0.00035643
11650.0 0.00034999
11670.0 0.00034368
11690.0 0.00033725
11710.0 0.00033053
11730.0 0.00032381
11750.0 0.00031729
11770.0 0.0003105
11790.0 0.0003036
11810.0 0.00029688
11830.0 0.00029017
11850.0 0.00028314
11870.0 0.00027631
11890.0 0.00026971
11910.0 0.00026299
11930.0 0.00025629
11950.0 0.00024995
11970.0 0.00024371
11990.0 0.00023742
12010.0 0.0002315
12030.0 0.00022594
12050.0 0.00022051
12070.0 0.00021529
12090.0 0.00021066
12110.0 0.0002063
12130.0 0.0002022
12150.0 0.00019856
12170.0 0.00019537
12190.0 0.00019246
12210.0 0.00019001
12230.0 0.00018806
12250.0 0.00018651
12270.0 0.00018539
12290.0 0.00018471
12310.0 0.0001844
12330.0 0.00018449
12350.0 0.00018492
12370.0 0.00018559
12390.0 0.00018652
12410.0 0.00018776
12430.0 0.00018903
12450.0 0.00019037
12470.0 0.00019183
12490.0 0.00019331
12510.0 0.00019464
12530.0 0.00019598
12550.0 0.00019728
12570.0 0.00019836
12590.0 0.00019926
12610.0 0.00020004
12630.0 0.00020056
12650.0 0.00020075
12670.0 0.00020069
12690.0 0.00020033
12710.0 0.00019961
12730.0 0.00019858
12750.0 0.00019719
12770.0 0.00019547
12790.0 0.00019346
12810.0 0.00019116
12830.0 0.00018855
12850.0 0.00018582
12870.0 0.00018294
12890.0 0.00017988
12910.0 0.00017677
12930.0 0.00017372
12950.0 0.00017059
12970.0 0.00016745
12990.0 0.00016449
13010.0 0.00016161
13030.0 0.00015875
13050.0 0.00015603
13070.0 0.00015347
13090.0 0.00015094
13110.0 0.00014849
13130.0 0.00014619
13150.0 0.00014398
13170.0 0.00014179
13190.0 0.00013974
13210.0 0.00013781
13230.0 0.00013592
13250.0 0.0001341
13270.0 0.00013241
13290.0 0.00013078
13310.0 0.00012917
13330.0 0.00012766
13350.0 0.00012622
13370.0 0.00012481
13390.0 0.00012343
13410.0 0.00012214
13430.0 0.00012087
13450.0 0.00011961
13470.0 0.00011839
13490.0 0.00011721
13510.0 0.000116
13530.0 0.00011482
13550.0 0.00011367
13570.0 0.00011252
13590.0 0.00011136
13610.0 0.00011022
13630.0 0.00010911
13650.0 0.00010797
13670.0 0.00010684
13690.0 0.00010575
13710.0 0.00010465
13730.0 0.00010353
13750.0 0.00010246
13770.0 0.00010142
13790.0 0.00010037
13810.0 9.9339e-05
13830.0 9.8364e-05
13850.0 9.7389e-05
13870.0 9.6425e-05
13890.0 9.5513e-05
13910.0 9.4636e-05
13930.0 9.3761e-05
13950.0 9.292e-05
13970.0 9.2141e-05
13990.0 9.1367e-05
14010.0 9.0606e-05
14030.0 8.9884e-05
14050.0 8.9181e-05
14070.0 8.8457e-05
14090.0 8.7757e-05
14110.0 8.7078e-05
14130.0 8.639e-05
14150.0 8.5694e-05
14170.0 8.5034e-05
14190.0 8.4387e-05
14210.0 8.3734e-05
14230.0 8.3114e-05
14250.0 8.2539e-05
14270.0 8.1974e-05
14290.0 8.1442e-05
14310.0 8.0975e-05
14330.0 8.0549e-05
14350.0 8.0154e-05
14370.0 7.981e-05
14390.0 7.9517e-05
14410.0 7.9247e-05
14430.0 7.9007e-05
14450.0 7.8802e-05
14470.0 7.8615e-05
14490.0 7.8432e-05
14510.0 7.8268e-05
14530.0 7.8116e-05
14550.0 7.7962e-05
14570.0 7.781e-05
14590.0 7.7676e-05
14610.0 7.7549e-05
14630.0 7.7436e-05
14650.0 7.736e-05
14670.0 7.7332e-05
14690.0 7.7362e-05
14710.0 7.7477e-05
14730.0 7.7693e-05
14750.0 7.8031e-05
14770.0 7.8525e-05
14790.0 7.9179e-05
14810.0 7.9999e-05
14830.0 8.1075e-05
14850.0 8.2363e-05
14870.0 8.382e-05
14890.0 8.549e-05
14910.0 8.7366e-05
14930.0 8.928e-05
14950.0 9.1172e-05
14970.0 9.3061e-05
14990.0 9.4766e-05
15010.0 9.6204e-05
15030.0 9.7413e-05
15050.0 9.8393e-05
15070.0 9.9114e-05
15090.0 9.968e-05
15110.0 0.00010014
15130.0 0.00010054
15150.0 0.00010089
15170.0 0.00010124
15190.0 0.00010158
15210.0 0.00010193
15230.0 0.00010228
15250.0 0.00010263
15270.0 0.000103
15290.0 0.00010337
15310.0 0.00010375
15330.0 0.00010414
15350.0 0.00010453
15370.0 0.00010493
15390.0 0.00010534
15410.0 0.00010575
15430.0 0.00010617
15450.0 0.0001066
15470.0 0.00010703
15490.0 0.00010747
15510.0 0.00010792
15530.0 0.00010837
15550.0 0.00010883
15570.0 0.00010929
15590.0 0.00010976
15610.0 0.00011023
15630.0 0.00011071
15650.0 0.0001112
15670.0 0.00011169
15690.0 0.00011219
15710.0 0.00011269
15730.0 0.00011319
15750.0 0.00011371
15770.0 0.00011422
15790.0 0.00011474
15810.0 0.00011526
15830.0 0.00011579
15850.0 0.00011633
15870.0 0.00011686
15890.0 0.0001174
15910.0 0.00011795
15930.0 0.00011849
15950.0 0.00011904
15970.0 0.0001196
15990.0 0.00012015
16010.0 0.00012071
16030.0 0.00012127
16050.0 0.00012183
16070.0 0.0001224
16090.0 0.00012297
16110.0 0.00012354
16130.0 0.00012411
16150.0 0.00012468
16170.0 0.00012525
16190.0 0.00012583
16210.0 0.0001264
16230.0 0.00012698
16250.0 0.00012756
16270.0 0.00012813
16290.0 0.00012871
16310.0 0.00012929
16330.0 0.00012986
16350.0 0.00013044
16370.0 0.00013101
16390.0 0.00013158
16410.0 0.00013216
16430.0 0.00013273
16450.0 0.0001333
16470.0 0.00013386
16490.0 0.00013443
16510.0 0.00013499
16530.0 0.00013555
16550.0 0.00013611
16570.0 0.00013666
16590.0 0.00013721
16610.0 0.00013776
16630.0 0.0001383
16650.0 0.00013884
16670.0 0.00013938
16690.0 0.00013991
16710.0 0.00014044
16730.0 0.00014096
16750.0 0.00014147
16770.0 0.00014199
16790.0 0.00014249
16810.0 0.00014299
16830.0 0.00014349
16850.0 0.00014397
16870.0 0.00014446
16890.0 0.00014493
16910.0 0.0001454
16930.0 0.00014586
16950.0 0.00014632
16970.0 0.00014676
16990.0 0.0001472
17010.0 0.00014763
17030.0 0.00014806
17050.0 0.00014847
17070.0 0.00014888
17090.0 0.00014928
17110.0 0.00014967
17130.0 0.00015005
17150.0 0.00015042
17170.0 0.00015078
17190.0 0.00015113
17210.0 0.00015148
17230.0 0.00015181
17250.0 0.00015213
17270.0 0.00015245
17290.0 0.00015275
17310.0 0.00015304
17330.0 0.00015332
17350.0 0.00015359
17370.0 0.00015386
17390.0 0.00015411
17410.0 0.00015434
17430.0 0.00015457
17450.0 0.00015479
17470.0 0.00015499
17490.0 0.00015518
17510.0 0.00015537
17530.0 0.00015554
17550.0 0.00015569
17570.0 0.00015584
17590.0 0.00015598
17610.0 0.0001561
17630.0 0.00015621
17650.0 0.00015631
17670.0 0.00015639
17690.0 0.00015647
17710.0 0.00015653
17730.0 0.00015658
17750.0 0.00015661
17770.0 0.00015664
17790.0 0.00015665
17810.0 0.00015665
17830.0 0.00015664
17850.0 0.00015661
17870.0 0.00015658
17890.0 0.00015652
17910.0 0.00015646
17930.0 0.00015639
17950.0 0.0001563
17970.0 0.0001562
17990.0 0.00015609
18010.0 0.00015597
18030.0 0.00015583
18050.0 0.00015568
18070.0 0.00015552
18090.0 0.00015535
18110.0 0.00015516
18130.0 0.00015497
18150.0 0.00015476
18170.0 0.00015454
18190.0 0.00015431
18210.0 0.00015407
18230.0 0.00015381
18250.0 0.00015354
18270.0 0.00015327
18290.0 0.00015298
18310.0 0.00015268
18330.0 0.00015237
18350.0 0.00015205
18370.0 0.00015171
18390.0 0.00015137
18410.0 0.00015102
18430.0 0.00015065
18450.0 0.00015028
18470.0 0.0001499
18490.0 0.0001495
18510.0 0.0001491
18530.0 0.00014868
18550.0 0.00014826
18570.0 0.00014783
18590.0 0.00014739
18610.0 0.00014694
18630.0 0.00014648
18650.0 0.00014601
18670.0 0.00014553
18690.0 0.00014505
18710.0 0.00014455
18730.0 0.00014405
18750.0 0.00014354
18770.0 0.00014302
18790.0 0.0001425
18810.0 0.00014197
18830.0 0.00014143
18850.0 0.00014088
18870.0 0.00014033
18890.0 0.00013977
18910.0 0.0001392
18930.0 0.00013863
18950.0 0.00013805
18970.0 0.00013746
18990.0 0.00013687
19010.0 0.00013627
19030.0 0.00013567
19050.0 0.00013506
19070.0 0.00013445
19090.0 0.00013383
19110.0 0.00013321
19130.0 0.00013258
19150.0 0.00013195
19170.0 0.00013131
19190.0 0.00013067
19210.0 0.00013003
19230.0 0.00012938
19250.0 0.00012873
19270.0 0.00012807
19290.0 0.00012742
19310.0 0.00012675
19330.0 0.00012609
19350.0 0.00012542
19370.0 0.00012475
19390.0 0.00012408
19410.0 0.00012341
19430.0 0.00012273
19450.0 0.00012205
19470.0 0.00012137
19490.0 0.00012069
19510.0 0.00012001
19530.0 0.00011932
19550.0 0.00011864
19570.0 0.00011795
19590.0 0.00011726
19610.0 0.00011657
19630.0 0.00011588
19650.0 0.00011519
19670.0 0.0001145
19690.0 0.00011381
19710.0 0.00011312
19730.0 0.00011243
19750.0 0.00011174
19770.0 0.00011105
19790.0 0.00011036
19810.0 0.00010967
19830.0 0.00010897
19850.0 0.00010828
19870.0 0.00010757
19890.0 0.00010685
19910.0 0.00010609
19930.0 0.00010527
19950.0 0.00010436
19970.0 0.00010331
19990.0 0.00010211
20010.0 0.00010076
20030.0 9.9221e-05
20050.0 9.7497e-05
20070.0 9.5676e-05
20090.0 9.3775e-05
20110.0 9.1734e-05
20130.0 8.9712e-05
20150.0 8.7742e-05
20170.0 8.5759e-05
20190.0 8.3793e-05
20210.0 8.1933e-05
20230.0 8.0127e-05
20250.0 7.8333e-05
20270.0 7.6637e-05
20290.0 7.5044e-05
20310.0 7.3496e-05
20330.0 7.2e-05
20350.0 7.0652e-05
20370.0 6.9374e-05
20390.0 6.8156e-05
20410.0 6.7037e-05
20430.0 6.6018e-05
20450.0 6.5046e-05
20470.0 6.4156e-05
20490.0 6.3352e-05
20510.0 6.2612e-05
20530.0 6.1925e-05
20550.0 6.1302e-05
20570.0 6.0734e-05
20590.0 6.0204e-05
20610.0 5.9713e-05
20630.0 5.9255e-05
20650.0 5.8821e-05
20670.0 5.8406e-05
20690.0 5.8004e-05
20710.0 5.7608e-05
20730.0 5.7214e-05
20750.0 5.6815e-05
20770.0 5.6408e-05
20790.0 5.5988e-05
20810.0 5.5552e-05
20830.0 5.5098e-05
20850.0 5.4625e-05
20870.0 5.4127e-05
20890.0 5.3605e-05
20910.0 5.3069e-05
20930.0 5.251e-05
20950.0 5.1926e-05
20970.0 5.1333e-05
20990.0 5.0729e-05
21010.0 5.01e-05
21030.0 4.9466e-05
21050.0 4.8834e-05
21070.0 4.8193e-05
21090.0 4.754e-05
21110.0 4.6905e-05
21130.0 4.6276e-05
21150.0 4.5642e-05
21170.0 4.5019e-05
21190.0 4.4417e-05
21210.0 4.3814e-05
21230.0 4.3217e-05
21250.0 4.2646e-05
21270.0 4.209e-05
21290.0 4.154e-05
21310.0 4.1008e-05
21330.0 4.0503e-05
21350.0 4.0007e-05
21370.0 3.9525e-05
21390.0 3.9069e-05
21410.0 3.8631e-05
21430.0 3.8202e-05
21450.0 3.7798e-05
21470.0 3.7417e-05
21490.0 3.705e-05
21510.0 3.6701e-05
21530.0 3.6372e-05
21550.0 3.6058e-05
21570.0 3.5757e-05
21590.0 3.5472e-05
21610.0 3.52e-05
21630.0 3.4938e-05
21650.0 3.4685e-05
21670.0 3.4442e-05
21690.0 3.4205e-05
21710.0 3.3974e-05
21730.0 3.3747e-05
21750.0 3.3524e-05
21770.0 3.3304e-05
21790.0 3.3087e-05
21810.0 3.2872e-05
21830.0 3.2659e-05
21850.0 3.2448e-05
21870.0 3.2239e-05
21890.0 3.2032e-05
21910.0 3.1826e-05
21930.0 3.1621e-05
21950.0 3.1418e-05
21970.0 3.1215e-05
21990.0 3.1012e-05
22010.0 3.0809e-05
22030.0 3.0605e-05
22050.0 3.0399e-05
22070.0 3.019e-05
22090.0 2.998e-05
22110.0 2.9766e-05
22130.0 2.9546e-05
22150.0 2.9324e-05
22170.0 2.9097e-05
22190.0 2.8863e-05
22210.0 2.8624e-05
22230.0 2.8383e-05
22250.0 2.8135e-05
22270.0 2.788e-05
22290.0 2.7622e-05
22310.0 2.7361e-05
22330.0 2.7088e-05
22350.0 2.681e-05
22370.0 2.6531e-05
22390.0 2.6241e-05
22410.0 2.594e-05
22430.0 2.5639e-05
22450.0 2.5332e-05
22470.0 2.5011e-05
22490.0 2.4685e-05
22510.0 2.4359e-05
22530.0 2.4018e-05
22550.0 2.3666e-05
22570.0 2.332e-05
22590.0 2.297e-05
22610.0 2.2609e-05
22630.0 2.2251e-05
22650.0 2.1904e-05
22670.0 2.155e-05
22690.0 2.1198e-05
22710.0 2.086e-05
22730.0 2.053e-05
22750.0 2.0196e-05
22770.0 1.9881e-05
22790.0 1.9584e-05
22810.0 1.9292e-05
