#lamb flux
1010.0 0.00020217
1030.0 0.00026785
1050.0 0.00034865
1070.0 0.00044596
1090.0 0.00056364
1110.0 0.00069436
1130.0 0.00083635
1150.0 0.0009939
1170.0 0.0011652
1190.0 0.0013383
1210.0 0.0015186
1230.0 0.0017068
1250.0 0.0018925
1270.0 0.0020705
1290.0 0.0022488
1310.0 0.0024155
1330.0 0.0025604
1350.0 0.0026877
1370.0 0.0027973
1390.0 0.0028787
1410.0 0.0029303
1430.0 0.0029618
1450.0 0.0029676
1470.0 0.0029451
1490.0 0.0029022
1510.0 0.0028453
1530.0 0.0027653
1550.0 0.0026719
1570.0 0.0025728
1590.0 0.0024676
1610.0 0.0023558
1630.0 0.0022462
1650.0 0.0021398
1670.0 0.0020347
1690.0 0.0019338
1710.0 0.0018409
1730.0 0.0017545
1750.0 0.0016709
1770.0 0.0015957
1790.0 0.0015285
1810.0 0.0014671
1830.0 0.0014122
1850.0 0.0013662
1870.0 0.0013259
1890.0 0.0012911
1910.0 0.0012632
1930.0 0.001242
1950.0 0.0012256
1970.0 0.0012149
1990.0 0.0012111
2010.0 0.0012129
2030.0 0.0012201
2050.0 0.0012342
2070.0 0.0012556
2090.0 0.0012826
2110.0 0.001317
2130.0 0.0013599
2150.0 0.0014107
2170.0 0.0014694
2190.0 0.0015386
2210.0 0.0016183
2230.0 0.0017078
2250.0 0.0018086
2270.0 0.001923
2290.0 0.0020493
2310.0 0.0021876
2330.0 0.0023406
2350.0 0.0025079
2370.0 0.0026878
2390.0 0.0028818
2410.0 0.003091
2430.0 0.0033112
2450.0 0.0035415
2470.0 0.0037823
2490.0 0.0040317
2510.0 0.0042871
2530.0 0.004555
2550.0 0.0048465
2570.0 0.0051766
2590.0 0.005568
2610.0 0.006078
2630.0 0.0067508
2650.0 0.0076081
2670.0 0.0087144
2690.0 0.010129
2710.0 0.011787
2730.0 0.013638
2750.0 0.015731
2770.0 0.017893
2790.0 0.019961
2810.0 0.021913
2830.0 0.023712
2850.0 0.02517
2870.0 0.026375
2890.0 0.027393
2910.0 0.028231
2930.0 0.028915
2950.0 0.029523
2970.0 0.030068
2990.0 0.030535
3010.0 0.030944
3030.0 0.031319
3050.0 0.03164
3070.0 0.031879
3090.0 0.032072
3110.0 0.032198
3130.0 0.03222
3150.0 0.032528
3170.0 0.032659
3190.0 0.032703
3210.0 0.032619
3230.0 0.032283
3250.0 0.031069
3270.0 0.028932
3290.0 0.027217
3310.0 0.026817
3330.0 0.027531
3350.0 0.028457
3370.0 0.029329
3390.0 0.030138
3410.0 0.030884
3430.0 0.031589
3450.0 0.032337
3470.0 0.033231
3490.0 0.033647
3510.0 0.033136
3530.0 0.033654
3550.0 0.035603
3570.0 0.039876
3590.0 0.04423
3610.0 0.047621
3630.0 0.051065
3650.0 0.049377
3670.0 0.043912
3690.0 0.03979
3710.0 0.0396
3730.0 0.042107
3750.0 0.043759
3770.0 0.044699
3790.0 0.045357
3810.0 0.04447
3830.0 0.040819
3850.0 0.036734
3870.0 0.03473
3890.0 0.036175
3910.0 0.037572
3930.0 0.037824
3950.0 0.038933
3970.0 0.040739
3990.0 0.041898
4010.0 0.042611
4030.0 0.041562
4050.0 0.040193
4070.0 0.039698
4090.0 0.040056
4110.0 0.040437
4130.0 0.03957
4150.0 0.03836
4170.0 0.037964
4190.0 0.038108
4210.0 0.036494
4230.0 0.033793
4250.0 0.030464
4270.0 0.02729
4290.0 0.025249
4310.0 0.024207
4330.0 0.024723
4350.0 0.026933
4370.0 0.028588
4390.0 0.030845
4410.0 0.032895
4430.0 0.033698
4450.0 0.032316
4470.0 0.03065
4490.0 0.030233
4510.0 0.030258
4530.0 0.030453
4550.0 0.030358
4570.0 0.030492
4590.0 0.031353
4610.0 0.032154
4630.0 0.03286
4650.0 0.033386
4670.0 0.033185
4690.0 0.031513
4710.0 0.029618
4730.0 0.028509
4750.0 0.027817
4770.0 0.02688
4790.0 0.026449
4810.0 0.025948
4830.0 0.026119
4850.0 0.026306
4870.0 0.027006
4890.0 0.025911
4910.0 0.024585
4930.0 0.023129
4950.0 0.021
4970.0 0.019451
4990.0 0.01845
5010.0 0.017474
5030.0 0.017292
5050.0 0.017834
5070.0 0.018747
5090.0 0.019768
5110.0 0.020619
5130.0 0.021152
5150.0 0.021477
5170.0 0.021442
5190.0 0.021487
5210.0 0.021434
5230.0 0.021181
5250.0 0.021214
5270.0 0.021487
5290.0 0.021204
5310.0 0.020511
5330.0 0.019634
5350.0 0.018734
5370.0 0.018279
5390.0 0.018026
5410.0 0.018149
5430.0 0.01819
5450.0 0.018087
5470.0 0.018022
5490.0 0.018297
5510.0 0.01833
5530.0 0.018074
5550.0 0.018083
5570.0 0.018272
5590.0 0.018416
5610.0 0.018161
5630.0 0.017884
5650.0 0.017511
5670.0 0.017331
5690.0 0.016933
5710.0 0.016671
5730.0 0.01649
5750.0 0.016205
5770.0 0.015889
5790.0 0.015536
5810.0 0.015373
5830.0 0.015452
5850.0 0.015537
5870.0 0.0155
5890.0 0.01549
5910.0 0.015653
5930.0 0.015858
5950.0 0.015808
5970.0 0.015906
5990.0 0.015995
6010.0 0.015998
6030.0 0.015827
6050.0 0.015564
6070.0 0.015539
6090.0 0.015576
6110.0 0.015402
6130.0 0.015128
6150.0 0.014701
6170.0 0.01406
6190.0 0.0133
6210.0 0.012995
6230.0 0.012824
6250.0 0.012771
6270.0 0.012994
6290.0 0.013243
6310.0 0.013458
6330.0 0.013647
6350.0 0.013743
6370.0 0.013658
6390.0 0.013321
6410.0 0.013053
6430.0 0.012769
6450.0 0.012535
6470.0 0.01238
6490.0 0.012372
6510.0 0.012257
6530.0 0.012168
6550.0 0.012005
6570.0 0.011858
6590.0 0.011766
6610.0 0.011596
6630.0 0.01145
6650.0 0.011241
6670.0 0.010989
6690.0 0.010687
6710.0 0.010457
6730.0 0.010306
6750.0 0.01021
6770.0 0.010175
6790.0 0.0099615
6810.0 0.0099078
6830.0 0.0098242
6850.0 0.0096583
6870.0 0.0094632
6890.0 0.0093394
6910.0 0.0092741
6930.0 0.0090952
6950.0 0.0090944
6970.0 0.0090116
6990.0 0.0089383
7010.0 0.008773
7030.0 0.0087111
7050.0 0.0086448
7070.0 0.0084302
7090.0 0.0081803
7110.0 0.0081193
7130.0 0.008157
7150.0 0.0081808
7170.0 0.0082198
7190.0 0.0082809
7210.0 0.0084369
7230.0 0.0085003
7250.0 0.008577
7270.0 0.0084136
7290.0 0.0083604
7310.0 0.0081689
7330.0 0.0080171
7350.0 0.0078163
7370.0 0.0077393
7390.0 0.0077283
7410.0 0.0076106
7430.0 0.0075972
7450.0 0.0074454
7470.0 0.0073994
7490.0 0.0071961
7510.0 0.0070004
7530.0 0.0070386
7550.0 0.0068056
7570.0 0.006753
7590.0 0.006509
7610.0 0.0066412
7630.0 0.0065697
7650.0 0.0066533
7670.0 0.0064768
7690.0 0.0065106
7710.0 0.0064604
7730.0 0.0067316
7750.0 0.0067121
7770.0 0.0070196
7790.0 0.0072263
7810.0 0.007299
7830.0 0.007582
7850.0 0.0074948
7870.0 0.0077629
7890.0 0.0076231
7910.0 0.0074884
7930.0 0.0073372
7950.0 0.0072393
7970.0 0.0072458
7990.0 0.0071978
8010.0 0.0069252
8030.0 0.0068682
8050.0 0.006725
8070.0 0.0066291
8090.0 0.0062461
8110.0 0.0062825
8130.0 0.0065463
8150.0 0.0067409
8170.0 0.0067442
8190.0 0.0069166
8210.0 0.0068127
8230.0 0.0065904
8250.0 0.0065551
8270.0 0.0064301
8290.0 0.006302
8310.0 0.0060009
8330.0 0.0060298
8350.0 0.0060697
8370.0 0.0061056
8390.0 0.0061487
8410.0 0.0060667
8430.0 0.0060426
8450.0 0.0060638
8470.0 0.0062081
8490.0 0.0062888
8510.0 0.0061039
8530.0 0.0058644
8550.0 0.0058774
8570.0 0.0058037
8590.0 0.0056446
8610.0 0.0057541
8630.0 0.0056973
8650.0 0.0056182
8670.0 0.0055763
8690.0 0.0055334
8710.0 0.00528
8730.0 0.0053425
8750.0 0.0051876
8770.0 0.0051977
8790.0 0.0050756
8810.0 0.0049773
8830.0 0.0050069
8850.0 0.0049202
8870.0 0.0046913
8890.0 0.0045829
8910.0 0.004379
8930.0 0.0041004
8950.0 0.0040566
8970.0 0.0038852
8990.0 0.003838
9010.0 0.0037534
9030.0 0.0037193
9050.0 0.0036945
9070.0 0.00367
9090.0 0.0036453
9110.0 0.00362
9130.0 0.0035948
9150.0 0.00357
9170.0 0.0035449
9190.0 0.0035198
9210.0 0.0034944
9230.0 0.0034689
9250.0 0.0034435
9270.0 0.0034179
9290.0 0.0033922
9310.0 0.0033667
9330.0 0.0033414
9350.0 0.0033161
9370.0 0.0032908
9390.0 0.0032655
9410.0 0.0032402
9430.0 0.003215
9450.0 0.0031898
9470.0 0.0031669
9490.0 0.003143
9510.0 0.0031168
9530.0 0.0030909
9550.0 0.0030657
9570.0 0.0030408
9590.0 0.003016
9610.0 0.0029917
9630.0 0.0029676
9650.0 0.0029436
9670.0 0.0029197
9690.0 0.002896
9710.0 0.0028726
9730.0 0.0028492
9750.0 0.0028259
9770.0 0.0028031
9790.0 0.0027803
9810.0 0.0027576
9830.0 0.0027351
9850.0 0.0027105
9870.0 0.0026867
9890.0 0.0026667
9910.0 0.0026464
9930.0 0.0026217
9950.0 0.0026005
9970.0 0.0025815
9990.0 0.0025619
10010.0 0.0025425
10030.0 0.0025228
10050.0 0.0025028
10070.0 0.0024833
10090.0 0.002464
10110.0 0.0024446
10130.0 0.0024254
10150.0 0.0024068
10170.0 0.0023883
10190.0 0.0023698
10210.0 0.0023518
10230.0 0.0023342
10250.0 0.0023166
10270.0 0.0022992
10290.0 0.0022824
10310.0 0.0022655
10330.0 0.0022487
10350.0 0.0022324
10370.0 0.0022165
10390.0 0.0022004
10410.0 0.0021841
10430.0 0.002168
10450.0 0.0021536
10470.0 0.0021389
10490.0 0.0021246
10510.0 0.0021104
10530.0 0.002096
10550.0 0.002082
10570.0 0.0020685
10590.0 0.0020549
10610.0 0.0020415
10630.0 0.0020285
10650.0 0.0020158
10670.0 0.0020029
10690.0 0.0019904
10710.0 0.0019784
10730.0 0.0019663
10750.0 0.0019542
10770.0 0.0019427
10790.0 0.0019314
10810.0 0.00192
10830.0 0.001909
10850.0 0.0018985
10870.0 0.0018876
10890.0 0.001877
10910.0 0.0018669
10930.0 0.001857
10950.0 0.001847
10970.0 0.0018374
10990.0 0.0018283
11010.0 0.0018361
11030.0 0.001825
11050.0 0.001814
11070.0 0.0018027
11090.0 0.0017907
11110.0 0.001779
11130.0 0.0017673
11150.0 0.0017552
11170.0 0.0017429
11190.0 0.001731
11210.0 0.0017189
11230.0 0.0017065
11250.0 0.0016946
11270.0 0.0016831
11290.0 0.0016714
11310.0 0.0016602
11330.0 0.00165
11350.0 0.0016402
11370.0 0.0016307
11390.0 0.0016222
11410.0 0.0016143
11430.0 0.0016065
11450.0 0.0015994
11470.0 0.0015929
11490.0 0.0015866
11510.0 0.0015802
11530.0 0.0015743
11550.0 0.0015686
11570.0 0.0015625
11590.0 0.0015566
11610.0 0.0015508
11630.0 0.0015446
11650.0 0.0015381
11670.0 0.001532
11690.0 0.0015257
11710.0 0.0015191
11730.0 0.0015125
11750.0 0.0015062
11770.0 0.0014996
11790.0 0.0014928
11810.0 0.0014865
11830.0 0.0014802
11850.0 0.0014736
11870.0 0.0014675
11890.0 0.001462
11910.0 0.0014566
11930.0 0.0014515
11950.0 0.0014473
11970.0 0.0014436
11990.0 0.0014402
12010.0 0.0014379
12030.0 0.0014364
12050.0 0.0014356
12070.0 0.0014356
12090.0 0.0014367
12110.0 0.0014386
12130.0 0.0014413
12150.0 0.0014447
12170.0 0.0014489
12190.0 0.0014536
12210.0 0.0014589
12230.0 0.0014645
12250.0 0.0014702
12270.0 0.0014761
12290.0 0.0014819
12310.0 0.0014875
12330.0 0.0014928
12350.0 0.0014976
12370.0 0.001502
12390.0 0.0015058
12410.0 0.0015087
12430.0 0.0015111
12450.0 0.0015128
12470.0 0.0015135
12490.0 0.0015134
12510.0 0.0015129
12530.0 0.0015113
12550.0 0.0015087
12570.0 0.0015056
12590.0 0.0015019
12610.0 0.001497
12630.0 0.0014914
12650.0 0.0014859
12670.0 0.0014796
12690.0 0.0014725
12710.0 0.0014654
12730.0 0.0014582
12750.0 0.0014501
12770.0 0.0014421
12790.0 0.0014345
12810.0 0.0014266
12830.0 0.0014185
12850.0 0.0014112
12870.0 0.0014043
12890.0 0.0013973
12910.0 0.001391
12930.0 0.0013856
12950.0 0.0013804
12970.0 0.0013756
12990.0 0.0013722
13010.0 0.0013695
13030.0 0.0013674
13050.0 0.0013663
13070.0 0.0013661
13090.0 0.0013665
13110.0 0.0013676
13130.0 0.0013694
13150.0 0.0013717
13170.0 0.0013742
13190.0 0.0013772
13210.0 0.0013803
13230.0 0.0013834
13250.0 0.0013864
13270.0 0.0013894
13290.0 0.0013921
13310.0 0.0013944
13330.0 0.0013963
13350.0 0.0013979
13370.0 0.0013988
13390.0 0.0013989
13410.0 0.0013986
13430.0 0.0013976
13450.0 0.0013956
13470.0 0.0013929
13490.0 0.0013897
13510.0 0.0013852
13530.0 0.00138
13550.0 0.0013744
13570.0 0.0013681
13590.0 0.0013609
13610.0 0.0013535
13630.0 0.0013458
13650.0 0.0013372
13670.0 0.0013282
13690.0 0.0013192
13710.0 0.0013097
13730.0 0.0012991
13750.0 0.001289
13770.0 0.0012786
13790.0 0.0012675
13810.0 0.0012561
13830.0 0.0012452
13850.0 0.0012337
13870.0 0.0012218
13890.0 0.0012103
13910.0 0.001199
13930.0 0.0011873
13950.0 0.0011757
13970.0 0.001165
13990.0 0.0011542
14010.0 0.0011434
14030.0 0.0011332
14050.0 0.0011234
14070.0 0.0011134
14090.0 0.0011038
14110.0 0.0010948
14130.0 0.0010858
14150.0 0.0010767
14170.0 0.0010683
14190.0 0.0010599
14210.0 0.0010513
14230.0 0.001043
14250.0 0.0010349
14270.0 0.0010266
14290.0 0.0010182
14310.0 0.0010103
14330.0 0.0010024
14350.0 0.00099443
14370.0 0.00098671
14390.0 0.00097934
14410.0 0.00097189
14430.0 0.00096458
14450.0 0.00095761
14470.0 0.00095075
14490.0 0.00094379
14510.0 0.00093709
14530.0 0.00093055
14550.0 0.00092388
14570.0 0.00091717
14590.0 0.00091058
14610.0 0.00090384
14630.0 0.00089686
14650.0 0.0008899
14670.0 0.00088289
14690.0 0.00087564
14710.0 0.0008682
14730.0 0.00086089
14750.0 0.00085338
14770.0 0.00084563
14790.0 0.00083788
14810.0 0.00083011
14830.0 0.00082194
14850.0 0.00081372
14870.0 0.00080557
14890.0 0.00079727
14910.0 0.00078882
14930.0 0.00078057
14950.0 0.00077253
14970.0 0.00076454
14990.0 0.00075688
15010.0 0.00074968
15030.0 0.00074276
15050.0 0.00073604
15070.0 0.00072974
15090.0 0.00072362
15110.0 0.00071756
15130.0 0.00071157
15150.0 0.00070568
15170.0 0.00069974
15190.0 0.00069375
15210.0 0.00068782
15230.0 0.00068189
15250.0 0.00067588
15270.0 0.00066988
15290.0 0.00066396
15310.0 0.00065797
15330.0 0.00065196
15350.0 0.00064601
15370.0 0.00064006
15390.0 0.00063403
15410.0 0.00062805
15430.0 0.00062212
15450.0 0.00061616
15470.0 0.00061017
15490.0 0.00060427
15510.0 0.00059838
15530.0 0.00059245
15550.0 0.00058656
15570.0 0.00058073
15590.0 0.00057486
15610.0 0.00056899
15630.0 0.00056321
15650.0 0.00055745
15670.0 0.00055166
15690.0 0.00054593
15710.0 0.00054027
15730.0 0.00053457
15750.0 0.0005289
15770.0 0.00052331
15790.0 0.00051774
15810.0 0.00051214
15830.0 0.00050662
15850.0 0.00050117
15870.0 0.00049571
15890.0 0.00049028
15910.0 0.00048494
15930.0 0.00047961
15950.0 0.00047427
15970.0 0.00046902
15990.0 0.00046382
16010.0 0.00045862
16030.0 0.00045345
16050.0 0.0004484
16070.0 0.00044335
16090.0 0.00043831
16110.0 0.00043336
16130.0 0.00042847
16150.0 0.00042354
16170.0 0.00041869
16190.0 0.00041393
16210.0 0.00040918
16230.0 0.00040445
16250.0 0.00039981
16270.0 0.00039523
16290.0 0.00039064
16310.0 0.00038612
16330.0 0.00038167
16350.0 0.00037725
16370.0 0.00037282
16390.0 0.00036852
16410.0 0.00036425
16430.0 0.00036
16450.0 0.0003558
16470.0 0.00035169
16490.0 0.00034759
16510.0 0.00034352
16530.0 0.00033953
16550.0 0.00033559
16570.0 0.00033165
16590.0 0.00032778
16610.0 0.00032399
16630.0 0.00032022
16650.0 0.00031648
16670.0 0.00031282
16690.0 0.00030921
16710.0 0.00030559
16730.0 0.00030205
16750.0 0.00029857
16770.0 0.00029511
16790.0 0.00029168
16810.0 0.00028834
16830.0 0.00028504
16850.0 0.00028175
16870.0 0.00027852
16890.0 0.00027536
16910.0 0.0002722
16930.0 0.00026907
16950.0 0.00026603
16970.0 0.00026302
16990.0 0.00026003
17010.0 0.0002571
17030.0 0.00025423
17050.0 0.00025137
17070.0 0.00024854
17090.0 0.00024579
17110.0 0.00024306
17130.0 0.00024034
17150.0 0.00023769
17170.0 0.00023509
17190.0 0.0002325
17210.0 0.00022995
17230.0 0.00022747
17250.0 0.00022501
17270.0 0.00022255
17290.0 0.00022017
17310.0 0.00021782
17330.0 0.00021549
17350.0 0.00021318
17370.0 0.00021095
17390.0 0.00020874
17410.0 0.00020654
17430.0 0.00020439
17450.0 0.00020229
17470.0 0.00020018
17490.0 0.00019812
17510.0 0.00019611
17530.0 0.00019412
17550.0 0.00019215
17570.0 0.00019023
17590.0 0.00018835
17610.0 0.00018646
17630.0 0.00018462
17650.0 0.00018283
17670.0 0.00018104
17690.0 0.00017926
17710.0 0.00017755
17730.0 0.00017586
17750.0 0.00017418
17770.0 0.00017254
17790.0 0.00017094
17810.0 0.00016935
17830.0 0.00016777
17850.0 0.00016624
17870.0 0.00016474
17890.0 0.00016323
17910.0 0.00016176
17930.0 0.00016034
17950.0 0.00015892
17970.0 0.00015752
17990.0 0.00015617
18010.0 0.00015483
18030.0 0.00015349
18050.0 0.00015219
18070.0 0.00015092
18090.0 0.00014966
18110.0 0.00014841
18130.0 0.00014721
18150.0 0.00014602
18170.0 0.00014484
18190.0 0.00014369
18210.0 0.00014257
18230.0 0.00014145
18250.0 0.00014034
18270.0 0.00013928
18290.0 0.00013823
18310.0 0.00013718
18330.0 0.00013616
18350.0 0.00013518
18370.0 0.00013419
18390.0 0.00013321
18410.0 0.00013228
18430.0 0.00013135
18450.0 0.00013041
18470.0 0.00012952
18490.0 0.00012865
18510.0 0.00012778
18530.0 0.00012693
18550.0 0.00012611
18570.0 0.00012529
18590.0 0.00012448
18610.0 0.00012369
18630.0 0.00012293
18650.0 0.00012216
18670.0 0.00012141
18690.0 0.0001207
18710.0 0.00011998
18730.0 0.00011927
18750.0 0.00011859
18770.0 0.00011793
18790.0 0.00011725
18810.0 0.0001166
18830.0 0.00011597
18850.0 0.00011535
18870.0 0.00011473
18890.0 0.00011414
18910.0 0.00011356
18930.0 0.00011298
18950.0 0.00011242
18970.0 0.00011188
18990.0 0.00011134
19010.0 0.00011079
19030.0 0.00011028
19050.0 0.00010979
19070.0 0.00010928
19090.0 0.0001088
19110.0 0.00010834
19130.0 0.00010787
19150.0 0.00010741
19170.0 0.00010697
19190.0 0.00010655
19210.0 0.00010611
19230.0 0.00010569
19250.0 0.00010531
19270.0 0.00010491
19290.0 0.00010452
19310.0 0.00010416
19330.0 0.0001038
19350.0 0.00010342
19370.0 0.00010307
19390.0 0.00010274
19410.0 0.00010241
19430.0 0.00010207
19450.0 0.00010177
19470.0 0.00010147
19490.0 0.00010116
19510.0 0.00010088
19530.0 0.00010061
19550.0 0.00010032
19570.0 0.00010004
19590.0 9.9794e-05
19610.0 9.9546e-05
19630.0 9.929e-05
19650.0 9.9058e-05
19670.0 9.8843e-05
19690.0 9.8608e-05
19710.0 9.8385e-05
19730.0 9.8186e-05
19750.0 9.7985e-05
19770.0 9.7768e-05
19790.0 9.7584e-05
19810.0 9.7414e-05
19830.0 9.723e-05
19850.0 9.7057e-05
19870.0 9.6912e-05
19890.0 9.6759e-05
19910.0 9.6607e-05
19930.0 9.6497e-05
19950.0 9.6419e-05
19970.0 9.6362e-05
19990.0 9.6356e-05
20010.0 9.6427e-05
20030.0 9.6543e-05
20050.0 9.6716e-05
20070.0 9.6957e-05
20090.0 9.7251e-05
20110.0 9.758e-05
20130.0 9.7956e-05
20150.0 9.837e-05
20170.0 9.8808e-05
20190.0 9.9271e-05
20210.0 9.9759e-05
20230.0 0.00010027
20250.0 0.00010079
20270.0 0.00010132
20290.0 0.00010187
20310.0 0.00010243
20330.0 0.00010299
20350.0 0.00010357
20370.0 0.00010415
20390.0 0.00010473
20410.0 0.00010531
20430.0 0.0001059
20450.0 0.00010649
20470.0 0.00010709
20490.0 0.00010769
20510.0 0.00010831
20530.0 0.00010893
20550.0 0.00010957
20570.0 0.00011024
20590.0 0.00011091
20610.0 0.00011161
20630.0 0.00011232
20650.0 0.00011306
20670.0 0.00011382
20690.0 0.0001146
20710.0 0.00011539
20730.0 0.0001162
20750.0 0.00011702
20770.0 0.00011786
20790.0 0.00011869
20810.0 0.00011953
20830.0 0.00012036
20850.0 0.0001212
20870.0 0.00012202
20890.0 0.00012282
20910.0 0.00012363
20930.0 0.00012442
20950.0 0.00012519
20970.0 0.00012596
20990.0 0.00012673
21010.0 0.00012747
21030.0 0.0001282
21050.0 0.00012895
21070.0 0.00012969
21090.0 0.00013041
21110.0 0.00013116
21130.0 0.00013192
21150.0 0.00013267
21170.0 0.00013342
21190.0 0.0001342
21210.0 0.00013497
21230.0 0.00013573
21250.0 0.00013651
21270.0 0.00013729
21290.0 0.00013805
21310.0 0.00013881
21330.0 0.00013959
21350.0 0.00014034
21370.0 0.00014107
21390.0 0.00014181
21410.0 0.00014254
21430.0 0.00014321
21450.0 0.00014389
21470.0 0.00014459
21490.0 0.00014524
21510.0 0.00014587
21530.0 0.00014653
21550.0 0.00014717
21570.0 0.00014776
21590.0 0.00014836
21610.0 0.00014898
21630.0 0.00014957
21650.0 0.00015011
21670.0 0.00015072
21690.0 0.00015131
21710.0 0.00015186
21730.0 0.00015243
21750.0 0.00015303
21770.0 0.00015356
21790.0 0.00015409
21810.0 0.00015466
21830.0 0.00015521
21850.0 0.00015572
21870.0 0.00015626
21890.0 0.00015684
21910.0 0.00015737
21930.0 0.00015791
21950.0 0.0001585
21970.0 0.00015908
21990.0 0.00015962
22010.0 0.00016023
22030.0 0.00016089
22050.0 0.00016153
22070.0 0.0001622
22090.0 0.00016295
22110.0 0.00016372
22130.0 0.00016449
22150.0 0.00016534
22170.0 0.00016624
22190.0 0.00016714
22210.0 0.00016808
22230.0 0.00016912
22250.0 0.00017017
22270.0 0.00017124
22290.0 0.00017237
22310.0 0.00017355
22330.0 0.00017471
22350.0 0.00017591
22370.0 0.00017717
22390.0 0.00017842
22410.0 0.00017967
22430.0 0.00018098
22450.0 0.00018232
22470.0 0.00018363
22490.0 0.00018498
22510.0 0.00018639
22530.0 0.00018777
22550.0 0.00018916
22570.0 0.00019062
22590.0 0.0001921
22610.0 0.00019358
22630.0 0.0001951
22650.0 0.00019668
22670.0 0.00019827
22690.0 0.00019988
22710.0 0.00020155
22730.0 0.00020326
22750.0 0.00020496
22770.0 0.00020673
22790.0 0.00020857
22810.0 0.00021042
22830.0 0.00021232
22850.0 0.00021431
22870.0 0.00021635
22890.0 0.00021843
22910.0 0.0002206
22930.0 0.00022286
22950.0 0.00022518
22970.0 0.00022758
22990.0 0.00023012
23010.0 0.00023274
23030.0 0.00023546
23050.0 0.00023831
23070.0 0.00024127
23090.0 0.00024435
23110.0 0.00024756
23130.0 0.0002509
23150.0 0.00025437
23170.0 0.00025799
23190.0 0.00026174
23210.0 0.0002656
23230.0 0.00026962
23250.0 0.00027376
23270.0 0.000278
23290.0 0.00028237
23310.0 0.00028687
23330.0 0.00029144
23350.0 0.00029607
23370.0 0.0003008
23390.0 0.00030559
23410.0 0.00031039
23430.0 0.00031524
23450.0 0.00032015
23470.0 0.00032505
23490.0 0.00032996
23510.0 0.00033493
23530.0 0.00033991
