#lamb flux
1010.0 9.7811e-10
1030.0 1.2168e-09
1050.0 1.4813e-09
1070.0 1.766e-09
1090.0 2.0738e-09
1110.0 2.3666e-09
1130.0 2.6358e-09
1150.0 2.8937e-09
1170.0 3.1342e-09
1190.0 3.33e-09
1210.0 3.508e-09
1230.0 3.6781e-09
1250.0 3.8303e-09
1270.0 3.9718e-09
1290.0 4.1357e-09
1310.0 4.3162e-09
1330.0 4.513e-09
1350.0 4.7502e-09
1370.0 5.0419e-09
1390.0 5.3793e-09
1410.0 5.7651e-09
1430.0 6.2209e-09
1450.0 6.734e-09
1470.0 7.2907e-09
1490.0 7.8982e-09
1510.0 8.5652e-09
1530.0 9.2484e-09
1550.0 9.9512e-09
1570.0 1.0681e-08
1590.0 1.1422e-08
1610.0 1.2147e-08
1630.0 1.288e-08
1650.0 1.3616e-08
1670.0 1.4326e-08
1690.0 1.5017e-08
1710.0 1.5708e-08
1730.0 1.6384e-08
1750.0 1.7017e-08
1770.0 1.7644e-08
1790.0 1.8264e-08
1810.0 1.8853e-08
1830.0 1.9418e-08
1850.0 1.9932e-08
1870.0 2.0367e-08
1890.0 2.0793e-08
1910.0 2.1234e-08
1930.0 2.1691e-08
1950.0 2.2139e-08
1970.0 2.2588e-08
1990.0 2.3054e-08
2010.0 2.3514e-08
2030.0 2.396e-08
2050.0 2.442e-08
2070.0 2.4904e-08
2090.0 2.5368e-08
2110.0 2.5837e-08
2130.0 2.6323e-08
2150.0 2.6807e-08
2170.0 2.7275e-08
2190.0 2.7765e-08
2210.0 2.8216e-08
2230.0 2.8593e-08
2250.0 2.8968e-08
2270.0 2.9361e-08
2290.0 2.9741e-08
2310.0 3.0104e-08
2330.0 3.0482e-08
2350.0 3.0866e-08
2370.0 3.1234e-08
2390.0 3.1609e-08
2410.0 3.2009e-08
2430.0 3.2406e-08
2450.0 3.2815e-08
2470.0 3.3283e-08
2490.0 3.3847e-08
2510.0 3.4517e-08
2530.0 3.5412e-08
2550.0 3.668e-08
2570.0 3.8404e-08
2590.0 4.0696e-08
2610.0 4.3979e-08
2630.0 4.8323e-08
2650.0 5.3617e-08
2670.0 6.0129e-08
2690.0 6.7979e-08
2710.0 7.6545e-08
2730.0 8.5526e-08
2750.0 9.5216e-08
2770.0 1.0483e-07
2790.0 1.1378e-07
2810.0 1.2223e-07
2830.0 1.3017e-07
2850.0 1.3693e-07
2870.0 1.4298e-07
2890.0 1.4867e-07
2910.0 1.5405e-07
2930.0 1.5922e-07
2950.0 1.6456e-07
2970.0 1.7013e-07
2990.0 1.7585e-07
3010.0 1.8182e-07
3030.0 1.882e-07
3050.0 1.9487e-07
3070.0 2.0168e-07
3090.0 2.0887e-07
3110.0 2.1651e-07
3130.0 2.2468e-07
3150.0 2.3432e-07
3170.0 2.4636e-07
3190.0 2.6194e-07
3210.0 2.8215e-07
3230.0 3.0871e-07
3250.0 3.4153e-07
3270.0 3.715e-07
3290.0 4.2113e-07
3310.0 5.2702e-07
3330.0 5.6164e-07
3350.0 5.7829e-07
3370.0 5.9422e-07
3390.0 6.1044e-07
3410.0 6.2702e-07
3430.0 6.4386e-07
3450.0 6.6074e-07
3470.0 6.7725e-07
3490.0 6.9341e-07
3510.0 7.0913e-07
3530.0 7.0396e-07
3550.0 6.8428e-07
3570.0 6.9263e-07
3590.0 7.3181e-07
3610.0 7.9589e-07
3630.0 8.1601e-07
3650.0 7.8191e-07
3670.0 7.2039e-07
3690.0 6.8713e-07
3710.0 6.987e-07
3730.0 7.217e-07
3750.0 7.3373e-07
3770.0 7.5845e-07
3790.0 7.8614e-07
3810.0 7.7283e-07
3830.0 7.2059e-07
3850.0 6.7537e-07
3870.0 6.5417e-07
3890.0 6.4476e-07
3910.0 6.2877e-07
3930.0 6.2137e-07
3950.0 6.3825e-07
3970.0 6.5804e-07
3990.0 6.6469e-07
4010.0 6.3899e-07
4030.0 6.0423e-07
4050.0 5.8231e-07
4070.0 5.6375e-07
4090.0 5.4806e-07
4110.0 5.2718e-07
4130.0 4.9529e-07
4150.0 4.637e-07
4170.0 4.4499e-07
4190.0 4.1411e-07
4210.0 3.7514e-07
4230.0 3.3548e-07
4250.0 2.9822e-07
4270.0 2.7086e-07
4290.0 2.4959e-07
4310.0 2.3855e-07
4330.0 2.3823e-07
4350.0 2.3786e-07
4370.0 2.4016e-07
4390.0 2.4808e-07
4410.0 2.5363e-07
4430.0 2.4383e-07
4450.0 2.2178e-07
4470.0 2.0299e-07
4490.0 1.9231e-07
4510.0 1.8574e-07
4530.0 1.8256e-07
4550.0 1.7993e-07
4570.0 1.7927e-07
4590.0 1.8171e-07
4610.0 1.8819e-07
4630.0 1.9206e-07
4650.0 1.9434e-07
4670.0 1.896e-07
4690.0 1.7875e-07
4710.0 1.6771e-07
4730.0 1.6093e-07
4750.0 1.5669e-07
4770.0 1.5697e-07
4790.0 1.5638e-07
4810.0 1.53e-07
4830.0 1.5287e-07
4850.0 1.5782e-07
4870.0 1.5927e-07
4890.0 1.5633e-07
4910.0 1.531e-07
4930.0 1.4449e-07
4950.0 1.3148e-07
4970.0 1.2295e-07
4990.0 1.1596e-07
5010.0 1.1437e-07
5030.0 1.1824e-07
5050.0 1.2134e-07
5070.0 1.2584e-07
5090.0 1.3347e-07
5110.0 1.3556e-07
5130.0 1.367e-07
5150.0 1.3933e-07
5170.0 1.403e-07
5190.0 1.4401e-07
5210.0 1.448e-07
5230.0 1.4325e-07
5250.0 1.4456e-07
5270.0 1.4669e-07
5290.0 1.4715e-07
5310.0 1.4601e-07
5330.0 1.4328e-07
5350.0 1.4112e-07
5370.0 1.3967e-07
5390.0 1.3794e-07
5410.0 1.3636e-07
5430.0 1.3646e-07
5450.0 1.3828e-07
5470.0 1.4084e-07
5490.0 1.4422e-07
5510.0 1.4865e-07
5530.0 1.5044e-07
5550.0 1.529e-07
5570.0 1.5281e-07
5590.0 1.4905e-07
5610.0 1.4792e-07
5630.0 1.4927e-07
5650.0 1.4737e-07
5670.0 1.4409e-07
5690.0 1.3953e-07
5710.0 1.3956e-07
5730.0 1.4083e-07
5750.0 1.3474e-07
5770.0 1.279e-07
5790.0 1.1692e-07
5810.0 1.0165e-07
5830.0 1.1003e-07
5850.0 1.2276e-07
5870.0 1.2583e-07
5890.0 1.2655e-07
5910.0 1.2713e-07
5930.0 1.2703e-07
5950.0 1.2471e-07
5970.0 1.2317e-07
5990.0 1.2113e-07
6010.0 1.1752e-07
6030.0 1.1333e-07
6050.0 1.116e-07
6070.0 1.1148e-07
6090.0 1.0952e-07
6110.0 1.0569e-07
6130.0 1.0224e-07
6150.0 9.8042e-08
6170.0 9.3776e-08
6190.0 9.0166e-08
6210.0 8.6866e-08
6230.0 8.5391e-08
6250.0 8.3584e-08
6270.0 8.183e-08
6290.0 8.0929e-08
6310.0 8.0066e-08
6330.0 7.8215e-08
6350.0 7.5701e-08
6370.0 7.4107e-08
6390.0 7.2986e-08
6410.0 7.0779e-08
6430.0 6.9001e-08
6450.0 6.7356e-08
6470.0 6.5779e-08
6490.0 6.4687e-08
6510.0 6.3878e-08
6530.0 6.2146e-08
6550.0 6.076e-08
6570.0 5.9998e-08
6590.0 5.9693e-08
6610.0 5.9287e-08
6630.0 5.7227e-08
6650.0 5.5754e-08
6670.0 5.5274e-08
6690.0 5.4454e-08
6710.0 5.3214e-08
6730.0 5.281e-08
6750.0 5.3221e-08
6770.0 5.6666e-08
6790.0 6.4207e-08
6810.0 6.0788e-08
6830.0 5.2762e-08
6850.0 5.085e-08
6870.0 5.0062e-08
6890.0 5.0097e-08
6910.0 5.0221e-08
6930.0 5.0415e-08
6950.0 5.0115e-08
6970.0 4.8854e-08
6990.0 4.8411e-08
7010.0 4.9161e-08
7030.0 4.9263e-08
7050.0 4.8536e-08
7070.0 4.8396e-08
7090.0 4.9032e-08
7110.0 5.0137e-08
7130.0 5.031e-08
7150.0 5.0424e-08
7170.0 5.0702e-08
7190.0 5.1436e-08
7210.0 5.1846e-08
7230.0 5.2121e-08
7250.0 5.2852e-08
7270.0 5.331e-08
7290.0 5.4025e-08
7310.0 5.527e-08
7330.0 5.4898e-08
7350.0 5.3793e-08
7370.0 5.2834e-08
7390.0 5.2427e-08
7410.0 5.3061e-08
7430.0 5.3661e-08
7450.0 5.4019e-08
7470.0 5.4535e-08
7490.0 5.4153e-08
7510.0 5.376e-08
7530.0 5.4243e-08
7550.0 5.6511e-08
7570.0 5.6319e-08
7590.0 5.3305e-08
7610.0 5.25e-08
7630.0 5.5735e-08
7650.0 5.6651e-08
7670.0 5.7524e-08
7690.0 5.9971e-08
7710.0 6.1977e-08
7730.0 6.2455e-08
7750.0 6.5833e-08
7770.0 6.3912e-08
7790.0 6.2177e-08
7810.0 6.6212e-08
7830.0 6.8504e-08
7850.0 7.0648e-08
7870.0 7.1702e-08
7890.0 7.2479e-08
7910.0 7.1929e-08
7930.0 7.2541e-08
7950.0 7.5709e-08
7970.0 7.577e-08
7990.0 7.053e-08
8010.0 7.1897e-08
8030.0 7.2961e-08
8050.0 7.4316e-08
8070.0 6.7637e-08
8090.0 4.5941e-08
8110.0 4.7496e-08
8130.0 6.6135e-08
8150.0 7.125e-08
8170.0 7.4128e-08
8190.0 7.6017e-08
8210.0 7.4741e-08
8230.0 8.0499e-08
8250.0 8.2026e-08
8270.0 7.8107e-08
8290.0 7.5288e-08
8310.0 7.3916e-08
8330.0 7.7239e-08
8350.0 8.0869e-08
8370.0 7.9629e-08
8390.0 7.6007e-08
8410.0 7.5881e-08
8430.0 7.1217e-08
8450.0 7.2379e-08
8470.0 7.9134e-08
8490.0 7.9375e-08
8510.0 7.3564e-08
8530.0 6.9444e-08
8550.0 6.6735e-08
8570.0 6.2642e-08
8590.0 6.4447e-08
8610.0 6.8016e-08
8630.0 7.0065e-08
8650.0 7.1238e-08
8670.0 6.955e-08
8690.0 6.791e-08
8710.0 6.3513e-08
8730.0 6.1098e-08
8750.0 6.3224e-08
8770.0 6.4062e-08
8790.0 6.4333e-08
8810.0 6.3566e-08
8830.0 6.4675e-08
8850.0 6.8074e-08
8870.0 6.361e-08
8890.0 5.9787e-08
8910.0 5.8944e-08
8930.0 5.5923e-08
8950.0 5.3528e-08
8970.0 5.3327e-08
8990.0 5.1106e-08
9010.0 4.7939e-08
9030.0 4.6868e-08
9050.0 4.6491e-08
9070.0 4.6156e-08
9090.0 4.5818e-08
9110.0 4.5479e-08
9130.0 4.5138e-08
9150.0 4.4795e-08
9170.0 4.4451e-08
9190.0 4.4106e-08
9210.0 4.376e-08
9230.0 4.3415e-08
9250.0 4.3069e-08
9270.0 4.2724e-08
9290.0 4.2378e-08
9310.0 4.2038e-08
9330.0 4.1703e-08
9350.0 4.137e-08
9370.0 4.1037e-08
9390.0 4.0706e-08
9410.0 4.0377e-08
9430.0 4.0049e-08
9450.0 3.9723e-08
9470.0 3.9401e-08
9490.0 3.9079e-08
9510.0 3.8759e-08
9530.0 3.844e-08
9550.0 3.8125e-08
9570.0 3.7812e-08
9590.0 3.7502e-08
9610.0 3.7201e-08
9630.0 3.6903e-08
9650.0 3.6608e-08
9670.0 3.6315e-08
9690.0 3.6025e-08
9710.0 3.5738e-08
9730.0 3.5454e-08
9750.0 3.5172e-08
9770.0 3.4894e-08
9790.0 3.4618e-08
9810.0 3.4345e-08
9830.0 3.4076e-08
9850.0 3.3807e-08
9870.0 3.3539e-08
9890.0 3.328e-08
9910.0 3.3024e-08
9930.0 3.2769e-08
9950.0 3.2517e-08
9970.0 3.2269e-08
9990.0 3.2023e-08
10010.0 3.178e-08
10030.0 3.1539e-08
10050.0 3.1302e-08
10070.0 3.1067e-08
10090.0 3.0835e-08
10110.0 3.0605e-08
10130.0 3.0379e-08
10150.0 3.0155e-08
10170.0 2.9934e-08
10190.0 2.9716e-08
10210.0 2.95e-08
10230.0 2.9287e-08
10250.0 2.9076e-08
10270.0 2.8868e-08
10290.0 2.8663e-08
10310.0 2.8459e-08
10330.0 2.8259e-08
10350.0 2.806e-08
10370.0 2.7864e-08
10390.0 2.7668e-08
10410.0 2.7436e-08
10430.0 2.7194e-08
10450.0 2.7051e-08
10470.0 2.6887e-08
10490.0 2.6719e-08
10510.0 2.6549e-08
10530.0 2.6372e-08
10550.0 2.6197e-08
10570.0 2.6026e-08
10590.0 2.5854e-08
10610.0 2.5682e-08
10630.0 2.5515e-08
10650.0 2.535e-08
10670.0 2.5182e-08
10690.0 2.5019e-08
10710.0 2.4859e-08
10730.0 2.4699e-08
10750.0 2.4537e-08
10770.0 2.4383e-08
10790.0 2.4229e-08
10810.0 2.4074e-08
10830.0 2.3922e-08
10850.0 2.3775e-08
10870.0 2.3623e-08
10890.0 2.3473e-08
10910.0 2.3327e-08
10930.0 2.318e-08
10950.0 2.3028e-08
10970.0 2.2878e-08
10990.0 2.2729e-08
11010.0 1.9839e-08
11030.0 1.9693e-08
11050.0 1.9551e-08
11070.0 1.9407e-08
11090.0 1.9254e-08
11110.0 1.9107e-08
11130.0 1.8961e-08
11150.0 1.8809e-08
11170.0 1.8655e-08
11190.0 1.8506e-08
11210.0 1.8353e-08
11230.0 1.8197e-08
11250.0 1.8046e-08
11270.0 1.79e-08
11290.0 1.7751e-08
11310.0 1.7606e-08
11330.0 1.7473e-08
11350.0 1.7343e-08
11370.0 1.7216e-08
11390.0 1.7099e-08
11410.0 1.6989e-08
11430.0 1.688e-08
11450.0 1.6777e-08
11470.0 1.6681e-08
11490.0 1.6586e-08
11510.0 1.649e-08
11530.0 1.6399e-08
11550.0 1.6309e-08
11570.0 1.6215e-08
11590.0 1.6121e-08
11610.0 1.6028e-08
11630.0 1.5929e-08
11650.0 1.5826e-08
11670.0 1.5726e-08
11690.0 1.5623e-08
11710.0 1.5515e-08
11730.0 1.5406e-08
11750.0 1.53e-08
11770.0 1.519e-08
11790.0 1.5078e-08
11810.0 1.497e-08
11830.0 1.4863e-08
11850.0 1.4752e-08
11870.0 1.4646e-08
11890.0 1.4546e-08
11910.0 1.4447e-08
11930.0 1.435e-08
11950.0 1.4261e-08
11970.0 1.4175e-08
11990.0 1.4092e-08
12010.0 1.4015e-08
12030.0 1.3945e-08
12050.0 1.3879e-08
12070.0 1.3816e-08
12090.0 1.3762e-08
12110.0 1.3712e-08
12130.0 1.3665e-08
12150.0 1.3622e-08
12170.0 1.3583e-08
12190.0 1.3545e-08
12210.0 1.3508e-08
12230.0 1.3474e-08
12250.0 1.3438e-08
12270.0 1.3399e-08
12290.0 1.3359e-08
12310.0 1.3317e-08
12330.0 1.3268e-08
12350.0 1.3214e-08
12370.0 1.3156e-08
12390.0 1.3092e-08
12410.0 1.3017e-08
12430.0 1.294e-08
12450.0 1.2858e-08
12470.0 1.2768e-08
12490.0 1.2672e-08
12510.0 1.2576e-08
12530.0 1.2472e-08
12550.0 1.2363e-08
12570.0 1.2254e-08
12590.0 1.2144e-08
12610.0 1.2028e-08
12630.0 1.1912e-08
12650.0 1.1802e-08
12670.0 1.1689e-08
12690.0 1.1575e-08
12710.0 1.1467e-08
12730.0 1.1363e-08
12750.0 1.1257e-08
12770.0 1.1157e-08
12790.0 1.1064e-08
12810.0 1.0973e-08
12830.0 1.0886e-08
12850.0 1.0807e-08
12870.0 1.0735e-08
12890.0 1.0666e-08
12910.0 1.0603e-08
12930.0 1.0549e-08
12950.0 1.0498e-08
12970.0 1.0454e-08
12990.0 1.0418e-08
13010.0 1.0388e-08
13030.0 1.0363e-08
13050.0 1.0345e-08
13070.0 1.0332e-08
13090.0 1.0324e-08
13110.0 1.0318e-08
13130.0 1.0316e-08
13150.0 1.0315e-08
13170.0 1.0313e-08
13190.0 1.031e-08
13210.0 1.0305e-08
13230.0 1.0296e-08
13250.0 1.0282e-08
13270.0 1.0263e-08
13290.0 1.0237e-08
13310.0 1.0205e-08
13330.0 1.0166e-08
13350.0 1.0122e-08
13370.0 1.007e-08
13390.0 1.0011e-08
13410.0 9.95e-09
13430.0 9.8825e-09
13450.0 9.8081e-09
13470.0 9.7309e-09
13490.0 9.652e-09
13510.0 9.5643e-09
13530.0 9.4743e-09
13550.0 9.3849e-09
13570.0 9.292e-09
13590.0 9.1941e-09
13610.0 9.0975e-09
13630.0 9.0023e-09
13650.0 8.9018e-09
13670.0 8.8013e-09
13690.0 8.704e-09
13710.0 8.6052e-09
13730.0 8.502e-09
13750.0 8.4056e-09
13770.0 8.3112e-09
13790.0 8.2154e-09
13810.0 8.1222e-09
13830.0 8.0352e-09
13850.0 7.9479e-09
13870.0 7.8617e-09
13890.0 7.7814e-09
13910.0 7.7047e-09
13930.0 7.6278e-09
13950.0 7.5544e-09
13970.0 7.4875e-09
13990.0 7.4213e-09
14010.0 7.3568e-09
14030.0 7.297e-09
14050.0 7.2403e-09
14070.0 7.183e-09
14090.0 7.13e-09
14110.0 7.0808e-09
14130.0 7.0329e-09
14150.0 6.9862e-09
14170.0 6.944e-09
14190.0 6.9036e-09
14210.0 6.8636e-09
14230.0 6.826e-09
14250.0 6.7907e-09
14270.0 6.7553e-09
14290.0 6.7203e-09
14310.0 6.6878e-09
14330.0 6.6559e-09
14350.0 6.6236e-09
14370.0 6.5924e-09
14390.0 6.5628e-09
14410.0 6.5323e-09
14430.0 6.502e-09
14450.0 6.4731e-09
14470.0 6.4444e-09
14490.0 6.4145e-09
14510.0 6.3858e-09
14530.0 6.358e-09
14550.0 6.3292e-09
14570.0 6.3002e-09
14590.0 6.2722e-09
14610.0 6.2435e-09
14630.0 6.2134e-09
14650.0 6.184e-09
14670.0 6.1548e-09
14690.0 6.1243e-09
14710.0 6.093e-09
14730.0 6.0631e-09
14750.0 6.0321e-09
14770.0 5.9998e-09
14790.0 5.9678e-09
14810.0 5.9361e-09
14830.0 5.9018e-09
14850.0 5.8674e-09
14870.0 5.8339e-09
14890.0 5.7996e-09
14910.0 5.7645e-09
14930.0 5.7312e-09
14950.0 5.6997e-09
14970.0 5.6686e-09
14990.0 5.6403e-09
15010.0 5.6155e-09
15030.0 5.5929e-09
15050.0 5.5719e-09
15070.0 5.5542e-09
15090.0 5.5379e-09
15110.0 5.5221e-09
15130.0 5.5072e-09
15150.0 5.4931e-09
15170.0 5.4787e-09
15190.0 5.4641e-09
15210.0 5.45e-09
15230.0 5.4361e-09
15250.0 5.4216e-09
15270.0 5.4072e-09
15290.0 5.3935e-09
15310.0 5.3794e-09
15330.0 5.365e-09
15350.0 5.3512e-09
15370.0 5.3374e-09
15390.0 5.3228e-09
15410.0 5.3087e-09
15430.0 5.295e-09
15450.0 5.2809e-09
15470.0 5.2665e-09
15490.0 5.2529e-09
15510.0 5.2391e-09
15530.0 5.2249e-09
15550.0 5.211e-09
15570.0 5.1974e-09
15590.0 5.1833e-09
15610.0 5.169e-09
15630.0 5.1555e-09
15650.0 5.1418e-09
15670.0 5.1277e-09
15690.0 5.1139e-09
15710.0 5.1005e-09
15730.0 5.0865e-09
15750.0 5.0726e-09
15770.0 5.0591e-09
15790.0 5.0455e-09
15810.0 5.0313e-09
15830.0 5.0176e-09
15850.0 5.0043e-09
15870.0 4.9905e-09
15890.0 4.9767e-09
15910.0 4.9635e-09
15930.0 4.95e-09
15950.0 4.936e-09
15970.0 4.9225e-09
15990.0 4.9092e-09
16010.0 4.8955e-09
16030.0 4.8816e-09
16050.0 4.8686e-09
16070.0 4.8552e-09
16090.0 4.8415e-09
16110.0 4.8281e-09
16130.0 4.8151e-09
16150.0 4.8012e-09
16170.0 4.7877e-09
16190.0 4.7746e-09
16210.0 4.7613e-09
16230.0 4.7476e-09
16250.0 4.7344e-09
16270.0 4.7214e-09
16290.0 4.7079e-09
16310.0 4.6945e-09
16330.0 4.6816e-09
16350.0 4.6683e-09
16370.0 4.6545e-09
16390.0 4.6415e-09
16410.0 4.6285e-09
16430.0 4.6151e-09
16450.0 4.6018e-09
16470.0 4.5891e-09
16490.0 4.5758e-09
16510.0 4.5624e-09
16530.0 4.5494e-09
16550.0 4.5365e-09
16570.0 4.523e-09
16590.0 4.5097e-09
16610.0 4.4971e-09
16630.0 4.4839e-09
16650.0 4.4707e-09
16670.0 4.4579e-09
16690.0 4.445e-09
16710.0 4.4315e-09
16730.0 4.4185e-09
16750.0 4.4057e-09
16770.0 4.3926e-09
16790.0 4.3793e-09
16810.0 4.3666e-09
16830.0 4.3538e-09
16850.0 4.3405e-09
16870.0 4.3276e-09
16890.0 4.315e-09
16910.0 4.3018e-09
16930.0 4.2884e-09
16950.0 4.2758e-09
16970.0 4.263e-09
16990.0 4.2497e-09
17010.0 4.2369e-09
17030.0 4.2243e-09
17050.0 4.2112e-09
17070.0 4.1981e-09
17090.0 4.1854e-09
17110.0 4.1726e-09
17130.0 4.1592e-09
17150.0 4.1464e-09
17170.0 4.1338e-09
17190.0 4.1208e-09
17210.0 4.1078e-09
17230.0 4.0953e-09
17250.0 4.0824e-09
17270.0 4.0691e-09
17290.0 4.0563e-09
17310.0 4.0437e-09
17330.0 4.0306e-09
17350.0 4.0174e-09
17370.0 4.005e-09
17390.0 3.9922e-09
17410.0 3.979e-09
17430.0 3.9663e-09
17450.0 3.9538e-09
17470.0 3.9405e-09
17490.0 3.9274e-09
17510.0 3.9149e-09
17530.0 3.902e-09
17550.0 3.8888e-09
17570.0 3.8762e-09
17590.0 3.8636e-09
17610.0 3.8505e-09
17630.0 3.8375e-09
17650.0 3.8249e-09
17670.0 3.812e-09
17690.0 3.7986e-09
17710.0 3.786e-09
17730.0 3.7733e-09
17750.0 3.7602e-09
17770.0 3.7473e-09
17790.0 3.7349e-09
17810.0 3.7218e-09
17830.0 3.7086e-09
17850.0 3.6959e-09
17870.0 3.6832e-09
17890.0 3.6699e-09
17910.0 3.6569e-09
17930.0 3.6444e-09
17950.0 3.6314e-09
17970.0 3.6183e-09
17990.0 3.6057e-09
18010.0 3.593e-09
18030.0 3.5795e-09
18050.0 3.5666e-09
18070.0 3.554e-09
18090.0 3.5409e-09
18110.0 3.5277e-09
18130.0 3.5151e-09
18150.0 3.5023e-09
18170.0 3.4891e-09
18190.0 3.4762e-09
18210.0 3.4635e-09
18230.0 3.4503e-09
18250.0 3.437e-09
18270.0 3.4243e-09
18290.0 3.4114e-09
18310.0 3.3982e-09
18330.0 3.3853e-09
18350.0 3.3727e-09
18370.0 3.3594e-09
18390.0 3.3463e-09
18410.0 3.3335e-09
18430.0 3.3206e-09
18450.0 3.3071e-09
18470.0 3.2941e-09
18490.0 3.2814e-09
18510.0 3.2682e-09
18530.0 3.2551e-09
18550.0 3.2424e-09
18570.0 3.2294e-09
18590.0 3.2159e-09
18610.0 3.203e-09
18630.0 3.1901e-09
18650.0 3.1768e-09
18670.0 3.1635e-09
18690.0 3.1508e-09
18710.0 3.1378e-09
18730.0 3.1244e-09
18750.0 3.1115e-09
18770.0 3.0988e-09
18790.0 3.0851e-09
18810.0 3.0719e-09
18830.0 3.0591e-09
18850.0 3.046e-09
18870.0 3.0325e-09
18890.0 3.0196e-09
18910.0 3.0068e-09
18930.0 2.9933e-09
18950.0 2.9801e-09
18970.0 2.9673e-09
18990.0 2.9541e-09
19010.0 2.9403e-09
19030.0 2.9275e-09
19050.0 2.9145e-09
19070.0 2.9011e-09
19090.0 2.8879e-09
19110.0 2.8751e-09
19130.0 2.8617e-09
19150.0 2.8482e-09
19170.0 2.8352e-09
19190.0 2.8222e-09
19210.0 2.8086e-09
19230.0 2.7953e-09
19250.0 2.7825e-09
19270.0 2.7691e-09
19290.0 2.7557e-09
19310.0 2.7427e-09
19330.0 2.7297e-09
19350.0 2.7159e-09
19370.0 2.7027e-09
19390.0 2.6897e-09
19410.0 2.6763e-09
19430.0 2.6627e-09
19450.0 2.6498e-09
19470.0 2.6367e-09
19490.0 2.6231e-09
19510.0 2.6099e-09
19530.0 2.5969e-09
19550.0 2.5833e-09
19570.0 2.5697e-09
19590.0 2.5567e-09
19610.0 2.5435e-09
19630.0 2.5299e-09
19650.0 2.5167e-09
19670.0 2.5037e-09
19690.0 2.4901e-09
19710.0 2.4766e-09
19730.0 2.4636e-09
19750.0 2.4503e-09
19770.0 2.4364e-09
19790.0 2.4232e-09
19810.0 2.4102e-09
19830.0 2.3967e-09
19850.0 2.3833e-09
19870.0 2.3704e-09
19890.0 2.3573e-09
19910.0 2.344e-09
19930.0 2.3318e-09
19950.0 2.3202e-09
19970.0 2.3091e-09
19990.0 2.2993e-09
20010.0 2.2913e-09
20030.0 2.2842e-09
20050.0 2.2784e-09
20070.0 2.2739e-09
20090.0 2.2702e-09
20110.0 2.267e-09
20130.0 2.2643e-09
20150.0 2.2619e-09
20170.0 2.2594e-09
20190.0 2.2569e-09
20210.0 2.2544e-09
20230.0 2.2518e-09
20250.0 2.249e-09
20270.0 2.246e-09
20290.0 2.243e-09
20310.0 2.2396e-09
20330.0 2.236e-09
20350.0 2.2324e-09
20370.0 2.2286e-09
20390.0 2.2245e-09
20410.0 2.2203e-09
20430.0 2.2162e-09
20450.0 2.2117e-09
20470.0 2.2071e-09
20490.0 2.2026e-09
20510.0 2.1981e-09
20530.0 2.1934e-09
20550.0 2.1889e-09
20570.0 2.1846e-09
20590.0 2.1803e-09
20610.0 2.176e-09
20630.0 2.172e-09
20650.0 2.1681e-09
20670.0 2.1639e-09
20690.0 2.16e-09
20710.0 2.1562e-09
20730.0 2.1521e-09
20750.0 2.1479e-09
20770.0 2.1437e-09
20790.0 2.1392e-09
20810.0 2.1343e-09
20830.0 2.1291e-09
20850.0 2.1237e-09
20870.0 2.1177e-09
20890.0 2.1113e-09
20910.0 2.1048e-09
20930.0 2.0978e-09
20950.0 2.0903e-09
20970.0 2.0828e-09
20990.0 2.0752e-09
21010.0 2.067e-09
21030.0 2.0588e-09
21050.0 2.0509e-09
21070.0 2.0428e-09
21090.0 2.0344e-09
21110.0 2.0265e-09
21130.0 2.0188e-09
21150.0 2.0108e-09
21170.0 2.0031e-09
21190.0 1.9957e-09
21210.0 1.9881e-09
21230.0 1.9803e-09
21250.0 1.9729e-09
21270.0 1.9654e-09
21290.0 1.9576e-09
21310.0 1.9497e-09
21330.0 1.9421e-09
21350.0 1.9341e-09
21370.0 1.9257e-09
21390.0 1.9169e-09
21410.0 1.908e-09
21430.0 1.8982e-09
21450.0 1.8886e-09
21470.0 1.879e-09
21490.0 1.869e-09
21510.0 1.8586e-09
21530.0 1.8484e-09
21550.0 1.8381e-09
21570.0 1.8272e-09
21590.0 1.8164e-09
21610.0 1.8059e-09
21630.0 1.7949e-09
21650.0 1.7837e-09
21670.0 1.7731e-09
21690.0 1.7624e-09
21710.0 1.7514e-09
21730.0 1.7406e-09
21750.0 1.7302e-09
21770.0 1.7192e-09
21790.0 1.7083e-09
21810.0 1.6978e-09
21830.0 1.6872e-09
21850.0 1.6763e-09
21870.0 1.6656e-09
21890.0 1.6553e-09
21910.0 1.6446e-09
21930.0 1.6339e-09
21950.0 1.6236e-09
21970.0 1.6133e-09
21990.0 1.6026e-09
22010.0 1.5926e-09
22030.0 1.5829e-09
22050.0 1.5731e-09
22070.0 1.5637e-09
22090.0 1.5553e-09
22110.0 1.5469e-09
22130.0 1.5387e-09
22150.0 1.5312e-09
22170.0 1.5241e-09
22190.0 1.517e-09
22210.0 1.5104e-09
22230.0 1.5044e-09
22250.0 1.4985e-09
22270.0 1.4928e-09
22290.0 1.4876e-09
22310.0 1.4826e-09
22330.0 1.4775e-09
22350.0 1.4726e-09
22370.0 1.468e-09
22390.0 1.4633e-09
22410.0 1.4584e-09
22430.0 1.4538e-09
22450.0 1.4492e-09
22470.0 1.4444e-09
22490.0 1.4395e-09
22510.0 1.4348e-09
22530.0 1.4299e-09
22550.0 1.4248e-09
22570.0 1.4199e-09
22590.0 1.415e-09
22610.0 1.41e-09
22630.0 1.4051e-09
