#lamb flux
1010.0 2.2216e-06
1030.0 2.4482e-06
1050.0 2.7088e-06
1070.0 3.0021e-06
1090.0 3.3353e-06
1110.0 3.677e-06
1130.0 4.021e-06
1150.0 4.3813e-06
1170.0 4.7529e-06
1190.0 5.1054e-06
1210.0 5.4625e-06
1230.0 5.8316e-06
1250.0 6.1933e-06
1270.0 6.5445e-06
1290.0 6.9156e-06
1310.0 7.2864e-06
1330.0 7.642e-06
1350.0 8.0016e-06
1370.0 8.3729e-06
1390.0 8.7348e-06
1410.0 9.086e-06
1430.0 9.4532e-06
1450.0 9.8202e-06
1470.0 1.0175e-05
1490.0 1.0534e-05
1510.0 1.0912e-05
1530.0 1.1271e-05
1550.0 1.1625e-05
1570.0 1.1991e-05
1590.0 1.2357e-05
1610.0 1.2707e-05
1630.0 1.3067e-05
1650.0 1.3437e-05
1670.0 1.3794e-05
1690.0 1.4147e-05
1710.0 1.4513e-05
1730.0 1.4881e-05
1750.0 1.5226e-05
1770.0 1.5581e-05
1790.0 1.5942e-05
1810.0 1.6291e-05
1830.0 1.6633e-05
1850.0 1.6996e-05
1870.0 1.7347e-05
1890.0 1.7685e-05
1910.0 1.8029e-05
1930.0 1.838e-05
1950.0 1.8711e-05
1970.0 1.9037e-05
1990.0 1.9373e-05
2010.0 1.97e-05
2030.0 2.0011e-05
2050.0 2.0329e-05
2070.0 2.0652e-05
2090.0 2.0949e-05
2110.0 2.1241e-05
2130.0 2.1537e-05
2150.0 2.1821e-05
2170.0 2.2084e-05
2190.0 2.2352e-05
2210.0 2.2614e-05
2230.0 2.2855e-05
2250.0 2.3086e-05
2270.0 2.3323e-05
2290.0 2.3539e-05
2310.0 2.3732e-05
2330.0 2.3925e-05
2350.0 2.4111e-05
2370.0 2.4275e-05
2390.0 2.4436e-05
2410.0 2.4614e-05
2430.0 2.4792e-05
2450.0 2.4983e-05
2470.0 2.5229e-05
2490.0 2.5559e-05
2510.0 2.5979e-05
2530.0 2.6614e-05
2550.0 2.765e-05
2570.0 2.9239e-05
2590.0 3.1558e-05
2610.0 3.5148e-05
2630.0 4.0024e-05
2650.0 4.5825e-05
2670.0 5.2536e-05
2690.0 5.9811e-05
2710.0 6.6572e-05
2730.0 7.2369e-05
2750.0 7.7327e-05
2770.0 8.0984e-05
2790.0 8.3395e-05
2810.0 8.5012e-05
2830.0 8.6147e-05
2850.0 8.6807e-05
2870.0 8.7286e-05
2890.0 8.7754e-05
2910.0 8.8189e-05
2930.0 8.8541e-05
2950.0 8.8947e-05
2970.0 8.9383e-05
2990.0 8.9756e-05
3010.0 0.0010529
3030.0 0.0010576
3050.0 0.0010619
3070.0 0.0010645
3090.0 0.0010663
3110.0 0.001066
3130.0 0.0010617
3150.0 0.0010527
3170.0 0.0010381
3190.0 0.001018
3210.0 0.00099484
3230.0 0.00097116
3250.0 0.00095228
3270.0 0.00094063
3290.0 0.00094122
3310.0 0.00095183
3330.0 0.00097594
3350.0 0.0010097
3370.0 0.0010538
3390.0 0.0011065
3410.0 0.0011618
3430.0 0.0012219
3450.0 0.0012884
3470.0 0.0013578
3490.0 0.0014283
3510.0 0.0015051
3530.0 0.001585
3550.0 0.0016631
3570.0 0.0017427
3590.0 0.0018302
3610.0 0.0019158
3630.0 0.0020041
3650.0 0.0020916
3670.0 0.0021715
3690.0 0.0022329
3710.0 0.0022741
3730.0 0.0022961
3750.0 0.0023032
3770.0 0.0021457
3790.0 0.0019914
3810.0 0.0017495
3830.0 0.0013079
3850.0 0.00095248
3870.0 0.00093209
3890.0 0.0011705
3910.0 0.0018186
3930.0 0.0024187
3950.0 0.0027282
3970.0 0.0028647
3990.0 0.0030586
4010.0 0.0033872
4030.0 0.003384
4050.0 0.0031849
4070.0 0.0029556
4090.0 0.002829
4110.0 0.0030364
4130.0 0.0031209
4150.0 0.0031238
4170.0 0.0032106
4190.0 0.0032111
4210.0 0.0032806
4230.0 0.003548
4250.0 0.0038792
4270.0 0.0040435
4290.0 0.0040052
4310.0 0.0040805
4330.0 0.004361
4350.0 0.0050523
4370.0 0.005681
4390.0 0.0053381
4410.0 0.0043949
4430.0 0.0037611
4450.0 0.0031825
4470.0 0.0029462
4490.0 0.0033275
4510.0 0.0039524
4530.0 0.0043729
4550.0 0.0048283
4570.0 0.0056448
4590.0 0.0069181
4610.0 0.0090844
4630.0 0.01096
4650.0 0.011101
4670.0 0.011009
4690.0 0.011685
4710.0 0.011798
4730.0 0.009811
4750.0 0.0074012
4770.0 0.0059974
4790.0 0.0058044
4810.0 0.0055162
4830.0 0.0055004
4850.0 0.006489
4870.0 0.008071
4890.0 0.0086554
4910.0 0.0075015
4930.0 0.0070677
4950.0 0.0081995
4970.0 0.010795
4990.0 0.013217
5010.0 0.013519
5030.0 0.010842
5050.0 0.0074091
5070.0 0.0054511
5090.0 0.0047054
5110.0 0.0046425
5130.0 0.0050331
5150.0 0.0052125
5170.0 0.0051437
5190.0 0.0051043
5210.0 0.0049895
5230.0 0.0052437
5250.0 0.0057306
5270.0 0.0065595
5290.0 0.0075889
5310.0 0.0082599
5330.0 0.0085344
5350.0 0.0090532
5370.0 0.0099171
5390.0 0.010269
5410.0 0.0094543
5430.0 0.0083532
5450.0 0.0082235
5470.0 0.0097984
5490.0 0.012408
5510.0 0.015077
5530.0 0.016299
5550.0 0.015789
5570.0 0.014622
5590.0 0.01323
5610.0 0.012672
5630.0 0.012717
5650.0 0.012776
5670.0 0.012525
5690.0 0.011831
5710.0 0.011301
5730.0 0.010029
5750.0 0.0077079
5770.0 0.0067625
5790.0 0.0073206
5810.0 0.0085428
5830.0 0.0096992
5850.0 0.010381
5870.0 0.010411
5890.0 0.0097016
5910.0 0.0093993
5930.0 0.0095047
5950.0 0.0099703
5970.0 0.010298
5990.0 0.0094016
6010.0 0.0077632
6030.0 0.0064263
6050.0 0.0058895
6070.0 0.0061272
6090.0 0.0067691
6110.0 0.0069065
6130.0 0.0064348
6150.0 0.0062654
6170.0 0.0068738
6190.0 0.0082252
6210.0 0.0098787
6230.0 0.01101
6250.0 0.010919
6270.0 0.0096589
6290.0 0.0079659
6310.0 0.006384
6330.0 0.0052807
6350.0 0.005001
6370.0 0.0054881
6390.0 0.0063069
6410.0 0.0073262
6430.0 0.0084663
6450.0 0.0099481
6470.0 0.0123
6490.0 0.014999
6510.0 0.015878
6530.0 0.014965
6550.0 0.014278
6570.0 0.014111
6590.0 0.013538
6610.0 0.012476
6630.0 0.011612
6650.0 0.011143
6670.0 0.011123
6690.0 0.010806
6710.0 0.0097216
6730.0 0.008431
6750.0 0.0077328
6770.0 0.0081382
6790.0 0.0087438
6810.0 0.0090128
6830.0 0.0091318
6850.0 0.0088016
6870.0 0.0083934
6890.0 0.00813
6910.0 0.007746
6930.0 0.0074856
6950.0 0.0075534
6970.0 0.00783
6990.0 0.0086043
7010.0 0.0089839
7030.0 0.0085769
7050.0 0.0078587
7070.0 0.0068445
7090.0 0.0058172
7110.0 0.0054505
7130.0 0.0056895
7150.0 0.0059344
7170.0 0.0060923
7190.0 0.0059761
7210.0 0.0059463
7230.0 0.0066584
7250.0 0.0077376
7270.0 0.0086936
7290.0 0.0091833
7310.0 0.0085905
7330.0 0.0076769
7350.0 0.0070003
7370.0 0.0068333
7390.0 0.0071515
7410.0 0.0076871
7430.0 0.0084546
7450.0 0.0093502
7470.0 0.010165
7490.0 0.010349
7510.0 0.0089977
7530.0 0.0089199
7550.0 0.0080794
7570.0 0.0068984
7590.0 0.0055505
7610.0 0.005186
7630.0 0.0056509
7650.0 0.0065838
7670.0 0.0075463
7690.0 0.0083356
7710.0 0.0091518
7730.0 0.0098826
7750.0 0.010407
7770.0 0.010251
7790.0 0.01019
7810.0 0.010375
7830.0 0.010276
7850.0 0.0098694
7870.0 0.0092716
7890.0 0.0085342
7910.0 0.0075566
7930.0 0.0067055
7950.0 0.0061728
7970.0 0.0060299
7990.0 0.0062402
8010.0 0.0063776
8030.0 0.0064619
8050.0 0.0065278
8070.0 0.0064566
8090.0 0.0064359
8110.0 0.0062047
8130.0 0.005797
8150.0 0.0054742
8170.0 0.005415
8190.0 0.0055081
8210.0 0.0055601
8230.0 0.0055123
8250.0 0.0053259
8270.0 0.0047023
8290.0 0.0037179
8310.0 0.002706
8330.0 0.0018204
8350.0 0.0013006
8370.0 0.0013205
8390.0 0.0016013
8410.0 0.0020228
8430.0 0.0024695
8450.0 0.0027133
8470.0 0.0028486
8490.0 0.0029859
8510.0 0.0031439
8530.0 0.0034895
8550.0 0.0040635
8570.0 0.0047781
8590.0 0.0055195
8610.0 0.0064406
8630.0 0.007482
8650.0 0.0081161
8670.0 0.0081169
8690.0 0.0078337
8710.0 0.0074373
8730.0 0.0071282
8750.0 0.0068404
8770.0 0.0066573
8790.0 0.0063944
8810.0 0.0059372
8830.0 0.0054297
8850.0 0.0046608
8870.0 0.0041252
8890.0 0.0038277
8910.0 0.0040203
8930.0 0.0039454
8950.0 0.0040549
8970.0 0.0041032
8990.0 0.0041615
9010.0 0.004233
9030.0 0.0041758
9050.0 0.004172
9070.0 0.004175
9090.0 0.0041783
9110.0 0.0041803
9130.0 0.0041842
9150.0 0.00419
9170.0 0.0041937
9190.0 0.0041945
9210.0 0.0042175
9230.0 0.004221
9250.0 0.0042272
9270.0 0.0042344
9290.0 0.0042425
9310.0 0.0042514
9330.0 0.0042611
9350.0 0.0042712
9370.0 0.004282
9390.0 0.0042934
9410.0 0.0043052
9430.0 0.0043174
9450.0 0.0043302
9470.0 0.0043435
9490.0 0.0043571
9510.0 0.0043713
9530.0 0.004386
9550.0 0.0044009
9570.0 0.0044163
9590.0 0.0044322
9610.0 0.0044485
9630.0 0.004465
9650.0 0.0044821
9670.0 0.0044995
9690.0 0.0045172
9710.0 0.0045353
9730.0 0.0045537
9750.0 0.0045725
9770.0 0.0045913
9790.0 0.0046106
9810.0 0.0046302
9830.0 0.0046499
9850.0 0.0046698
9870.0 0.0046901
9890.0 0.0047105
9910.0 0.004731
9930.0 0.0047517
9950.0 0.0047714
9970.0 0.0047926
9990.0 0.0048138
10010.0 0.0048297
10030.0 0.0048509
10050.0 0.004871
10070.0 0.0048858
10090.0 0.0049093
10110.0 0.0049321
10130.0 0.0049544
10150.0 0.0049764
10170.0 0.0049977
10190.0 0.0050182
10210.0 0.005039
10230.0 0.0050596
10250.0 0.0050795
10270.0 0.0050993
10290.0 0.0051193
10310.0 0.0051385
10330.0 0.0051571
10350.0 0.0051759
10370.0 0.0051944
10390.0 0.0052121
10410.0 0.0052295
10430.0 0.0052471
10450.0 0.0052638
10470.0 0.0052797
10490.0 0.0052957
10510.0 0.0053112
10530.0 0.0053255
10550.0 0.0053395
10570.0 0.0053535
10590.0 0.0053665
10610.0 0.0053787
10630.0 0.0053909
10650.0 0.0054024
10670.0 0.0054126
10690.0 0.0054225
10710.0 0.005432
10730.0 0.0054405
10750.0 0.0054479
10770.0 0.0054554
10790.0 0.0054621
10810.0 0.0054674
10830.0 0.0054721
10850.0 0.0054761
10870.0 0.0054773
10890.0 0.0054753
10910.0 0.0054693
10930.0 0.0054555
10950.0 0.005429
10970.0 0.0053878
10990.0 0.005331
11010.0 0.0051533
11030.0 0.005048
11050.0 0.0049271
11070.0 0.0047881
11090.0 0.0046264
11110.0 0.0044645
11130.0 0.0043009
11150.0 0.0041313
11170.0 0.0039646
11190.0 0.0038114
11210.0 0.0036626
11230.0 0.0035206
11250.0 0.0033952
11270.0 0.0032842
11290.0 0.0031821
11310.0 0.0030936
11330.0 0.0030216
11350.0 0.0029576
11370.0 0.0029008
11390.0 0.0028517
11410.0 0.0028067
11430.0 0.0027604
11450.0 0.0027139
11470.0 0.002666
11490.0 0.0026128
11510.0 0.0025527
11530.0 0.0024896
11550.0 0.0024222
11570.0 0.0023477
11590.0 0.0022703
11610.0 0.0021934
11630.0 0.0021131
11650.0 0.0020318
11670.0 0.0019563
11690.0 0.0018843
11710.0 0.0018145
11730.0 0.0017508
11750.0 0.0016949
11770.0 0.0016424
11790.0 0.001595
11810.0 0.0015539
11830.0 0.001517
11850.0 0.001482
11870.0 0.0014505
11890.0 0.0014214
11910.0 0.0013923
11930.0 0.0013627
11950.0 0.0013336
11970.0 0.0013031
11990.0 0.00127
12010.0 0.0012363
12030.0 0.0012022
12050.0 0.0011664
12070.0 0.0011297
12090.0 0.0010956
12110.0 0.0010625
12130.0 0.0010309
12150.0 0.0010032
12170.0 0.00098009
12190.0 0.00096067
12210.0 0.00094713
12230.0 0.00093974
12250.0 0.00093826
12270.0 0.00094334
12290.0 0.00095434
12310.0 0.00097025
12330.0 0.00099219
12350.0 0.0010187
12370.0 0.0010476
12390.0 0.0010795
12410.0 0.001115
12430.0 0.0011489
12450.0 0.0011818
12470.0 0.0012144
12490.0 0.0012444
12510.0 0.0012698
12530.0 0.0012924
12550.0 0.0013111
12570.0 0.0013244
12590.0 0.0013327
12610.0 0.0013366
12630.0 0.0013353
12650.0 0.0013294
12670.0 0.0013193
12690.0 0.0013051
12710.0 0.0012879
12730.0 0.001268
12750.0 0.0012448
12770.0 0.0012199
12790.0 0.0011943
12810.0 0.001167
12830.0 0.0011384
12850.0 0.0011102
12870.0 0.0010818
12890.0 0.0010521
12910.0 0.0010224
12930.0 0.0009932
12950.0 0.00096268
12970.0 0.00093123
12990.0 0.00090079
13010.0 0.00087012
13030.0 0.00083854
13050.0 0.00080763
13070.0 0.00077828
13090.0 0.00074876
13110.0 0.00072034
13130.0 0.00069447
13150.0 0.00067061
13170.0 0.00064829
13190.0 0.00062956
13210.0 0.00061428
13230.0 0.00060181
13250.0 0.00059273
13270.0 0.00058716
13290.0 0.00058471
13310.0 0.0005855
13330.0 0.00058913
13350.0 0.00059509
13370.0 0.0006035
13390.0 0.00061399
13410.0 0.00062499
13430.0 0.00063709
13450.0 0.00065006
13470.0 0.00066271
13490.0 0.00067468
13510.0 0.00068695
13530.0 0.00069814
13550.0 0.00070781
13570.0 0.00071654
13590.0 0.00072434
13610.0 0.00073059
13630.0 0.00073548
13650.0 0.00073955
13670.0 0.00074244
13690.0 0.00074416
13710.0 0.00074502
13730.0 0.00074506
13750.0 0.00074412
13770.0 0.0007424
13790.0 0.00073991
13810.0 0.00073662
13830.0 0.00073266
13850.0 0.00072788
13870.0 0.00072223
13890.0 0.00071595
13910.0 0.00070901
13930.0 0.00070117
13950.0 0.00069273
13970.0 0.00068419
13990.0 0.0006751
14010.0 0.0006657
14030.0 0.00065654
14050.0 0.0006476
14070.0 0.00063858
14090.0 0.00063028
14110.0 0.00062279
14130.0 0.00061592
14150.0 0.00060984
14170.0 0.00060494
14190.0 0.00060103
14210.0 0.0005981
14230.0 0.00059634
14250.0 0.00059566
14270.0 0.00059613
14290.0 0.0005978
14310.0 0.00060037
14330.0 0.0006039
14350.0 0.00060848
14370.0 0.00061372
14390.0 0.00061933
14410.0 0.00062571
14430.0 0.00063249
14450.0 0.00063925
14470.0 0.0006462
14490.0 0.00065367
14510.0 0.00066102
14530.0 0.00066838
14550.0 0.00067641
14570.0 0.00068511
14590.0 0.00069419
14610.0 0.00070447
14630.0 0.00071651
14650.0 0.00072968
14670.0 0.0007442
14690.0 0.000761
14710.0 0.00077991
14730.0 0.00079929
14750.0 0.00082051
14770.0 0.00084353
14790.0 0.00086675
14810.0 0.00088974
14830.0 0.00091414
14850.0 0.00093747
14870.0 0.00095876
14890.0 0.00097881
14910.0 0.0009972
14930.0 0.0010124
14950.0 0.0010247
14970.0 0.0010346
14990.0 0.0010415
15010.0 0.0010456
15030.0 0.0010476
15050.0 0.0010478
15070.0 0.0010465
15090.0 0.0010444
15110.0 0.0010417
15130.0 0.0010387
15150.0 0.0010357
15170.0 0.0010324
15190.0 0.0010291
15210.0 0.001026
15230.0 0.0010228
15250.0 0.0010196
15270.0 0.0010164
15290.0 0.0010134
15310.0 0.0010103
15330.0 0.0010071
15350.0 0.0010041
15370.0 0.0010011
15390.0 0.00099798
15410.0 0.00099495
15430.0 0.00099202
15450.0 0.00098902
15470.0 0.00098597
15490.0 0.00098308
15510.0 0.00098019
15530.0 0.0009772
15550.0 0.00097429
15570.0 0.00097147
15590.0 0.00096852
15610.0 0.00096554
15630.0 0.00096273
15650.0 0.00095989
15670.0 0.00095697
15690.0 0.00095412
15710.0 0.00095137
15730.0 0.00094849
15750.0 0.00094561
15770.0 0.00094284
15790.0 0.00094005
15810.0 0.00093711
15830.0 0.0009343
15850.0 0.00093157
15870.0 0.00092873
15890.0 0.00092588
15910.0 0.00092316
15930.0 0.00092038
15950.0 0.00091748
15970.0 0.00091469
15990.0 0.00091195
16010.0 0.0009091
16030.0 0.00090621
16050.0 0.0009035
16070.0 0.00090072
16090.0 0.00089785
16110.0 0.00089507
16130.0 0.00089234
16150.0 0.00088942
16170.0 0.00088655
16190.0 0.0008838
16210.0 0.00088097
16230.0 0.00087806
16250.0 0.00087526
16270.0 0.0008725
16290.0 0.00086959
16310.0 0.00086672
16330.0 0.00086393
16350.0 0.00086107
16370.0 0.00085805
16390.0 0.00085524
16410.0 0.00085241
16430.0 0.00084947
16450.0 0.00084655
16470.0 0.00084375
16490.0 0.00084081
16510.0 0.00083781
16530.0 0.00083492
16550.0 0.00083203
16570.0 0.000829
16590.0 0.00082601
16610.0 0.00082315
16630.0 0.00082017
16650.0 0.00081714
16670.0 0.00081421
16690.0 0.00081128
16710.0 0.00080815
16730.0 0.00080513
16750.0 0.00080218
16770.0 0.00079912
16790.0 0.000796
16810.0 0.00079303
16830.0 0.00079002
16850.0 0.00078689
16870.0 0.00078381
16890.0 0.00078081
16910.0 0.00077766
16930.0 0.00077446
16950.0 0.00077142
16970.0 0.00076832
16990.0 0.00076512
17010.0 0.00076199
17030.0 0.00075894
17050.0 0.00075573
17070.0 0.00075251
17090.0 0.00074939
17110.0 0.00074623
17130.0 0.00074292
17150.0 0.00073973
17170.0 0.00073659
17190.0 0.00073334
17210.0 0.00073007
17230.0 0.00072692
17250.0 0.00072368
17270.0 0.00072033
17290.0 0.00071708
17310.0 0.00071387
17330.0 0.00071053
17350.0 0.00070717
17370.0 0.00070398
17390.0 0.00070069
17410.0 0.00069731
17430.0 0.00069403
17450.0 0.00069079
17470.0 0.00068734
17490.0 0.00068396
17510.0 0.00068068
17530.0 0.00067733
17550.0 0.00067389
17570.0 0.00067057
17590.0 0.00066727
17610.0 0.00066383
17630.0 0.00066042
17650.0 0.0006571
17670.0 0.0006537
17690.0 0.00065016
17710.0 0.00064681
17730.0 0.00064345
17750.0 0.00063998
17770.0 0.00063654
17790.0 0.00063322
17810.0 0.00062975
17830.0 0.00062624
17850.0 0.00062284
17870.0 0.00061943
17890.0 0.0006159
17910.0 0.00061241
17930.0 0.00060905
17950.0 0.00060557
17970.0 0.00060206
17990.0 0.00059866
18010.0 0.00059524
18030.0 0.00059165
18050.0 0.00058817
18070.0 0.00058476
18090.0 0.00058125
18110.0 0.00057769
18130.0 0.00057429
18150.0 0.00057084
18170.0 0.00056729
18190.0 0.00056381
18210.0 0.0005604
18230.0 0.00055685
18250.0 0.00055327
18270.0 0.00054985
18290.0 0.00054638
18310.0 0.00054282
18330.0 0.00053935
18350.0 0.00053595
18370.0 0.00053239
18390.0 0.00052886
18410.0 0.00052543
18430.0 0.00052195
18450.0 0.00051834
18470.0 0.00051488
18490.0 0.00051147
18510.0 0.00050794
18530.0 0.00050442
18550.0 0.00050103
18570.0 0.00049754
18590.0 0.00049397
18610.0 0.00049051
18630.0 0.00048709
18650.0 0.00048355
18670.0 0.00048002
18690.0 0.00047665
18710.0 0.00047319
18730.0 0.00046967
18750.0 0.00046624
18770.0 0.00046286
18790.0 0.00045929
18810.0 0.0004558
18830.0 0.00045243
18850.0 0.00044898
18870.0 0.00044547
18890.0 0.00044208
18910.0 0.00043871
18930.0 0.00043521
18950.0 0.00043177
18970.0 0.00042842
18990.0 0.00042498
19010.0 0.00042144
19030.0 0.0004181
19050.0 0.00041474
19070.0 0.00041129
19090.0 0.00040789
19110.0 0.0004046
19130.0 0.00040116
19150.0 0.00039771
19170.0 0.00039438
19190.0 0.00039104
19210.0 0.00038759
19230.0 0.00038421
19250.0 0.00038095
19270.0 0.00037758
19290.0 0.00037419
19310.0 0.00037091
19330.0 0.00036762
19350.0 0.00036417
19370.0 0.00036085
19390.0 0.0003576
19410.0 0.00035425
19430.0 0.00035089
19450.0 0.00034767
19470.0 0.0003444
19490.0 0.00034105
19510.0 0.00033778
19530.0 0.00033457
19550.0 0.00033124
19570.0 0.0003279
19590.0 0.00032471
19610.0 0.00032148
19630.0 0.00031817
19650.0 0.00031496
19670.0 0.0003118
19690.0 0.00030851
19710.0 0.00030525
19730.0 0.0003021
19750.0 0.0002989
19770.0 0.00029559
19790.0 0.00029242
19810.0 0.00028929
19830.0 0.00028606
19850.0 0.00028284
19870.0 0.00027971
19890.0 0.00027643
19910.0 0.00027297
19930.0 0.00026947
19950.0 0.00026576
19970.0 0.00026159
19990.0 0.00025702
20010.0 0.00025224
20030.0 0.0002469
20050.0 0.00024112
20070.0 0.00023529
20090.0 0.00022943
20110.0 0.00022328
20130.0 0.0002175
20150.0 0.00021216
20170.0 0.00020704
20190.0 0.00020223
20210.0 0.00019803
20230.0 0.00019424
20250.0 0.00019075
20270.0 0.00018779
20290.0 0.00018534
20310.0 0.00018325
20330.0 0.00018156
20350.0 0.00018039
20370.0 0.00017959
20390.0 0.00017918
20410.0 0.00017916
20430.0 0.00017949
20450.0 0.0001802
20470.0 0.00018128
20490.0 0.00018265
20510.0 0.00018432
20530.0 0.00018637
20550.0 0.00018865
20570.0 0.00019106
20590.0 0.00019379
20610.0 0.0001967
20630.0 0.00019963
20650.0 0.00020268
20670.0 0.00020596
20690.0 0.0002091
20710.0 0.00021217
20730.0 0.0002153
20750.0 0.00021838
20770.0 0.00022124
20790.0 0.00022409
20810.0 0.00022697
20830.0 0.00022972
20850.0 0.0002324
20870.0 0.00023523
20890.0 0.0002381
20910.0 0.00024087
20930.0 0.00024379
20950.0 0.00024687
20970.0 0.00024993
20990.0 0.00025299
21010.0 0.00025626
21030.0 0.00025947
21050.0 0.00026252
21070.0 0.00026552
21090.0 0.00026845
21110.0 0.00027101
21130.0 0.00027329
21150.0 0.00027533
21170.0 0.000277
21190.0 0.00027823
21210.0 0.00027911
21230.0 0.00027957
21250.0 0.00027957
21270.0 0.00027916
21290.0 0.00027831
21310.0 0.00027703
21330.0 0.00027543
21350.0 0.0002734
21370.0 0.00027098
21390.0 0.00026832
21410.0 0.0002654
21430.0 0.00026203
21450.0 0.00025856
21470.0 0.00025503
21490.0 0.00025129
21510.0 0.00024744
21530.0 0.00024373
21550.0 0.00024005
21570.0 0.00023633
21590.0 0.00023286
21610.0 0.00022968
21630.0 0.00022666
21650.0 0.0002239
21670.0 0.00022167
21690.0 0.00021977
21710.0 0.00021824
21730.0 0.00021719
21750.0 0.0002166
21770.0 0.00021644
21790.0 0.00021677
21810.0 0.00021754
21830.0 0.00021875
21850.0 0.00022045
21870.0 0.00022251
21890.0 0.00022486
21910.0 0.00022767
21930.0 0.0002308
21950.0 0.00023409
21970.0 0.00023767
21990.0 0.00024166
22010.0 0.00024563
22030.0 0.00024968
22050.0 0.00025395
22070.0 0.00025827
22090.0 0.0002624
22110.0 0.00026659
22130.0 0.0002708
22150.0 0.00027474
22170.0 0.00027845
22190.0 0.00028209
22210.0 0.00028541
22230.0 0.00028824
22250.0 0.00029078
22270.0 0.00029294
22290.0 0.00029456
22310.0 0.0002957
22330.0 0.00029636
22350.0 0.00029642
22370.0 0.00029594
22390.0 0.00029486
22410.0 0.00029313
22430.0 0.0002909
22450.0 0.00028814
22470.0 0.00028471
22490.0 0.00028079
22510.0 0.00027654
22530.0 0.00027166
22550.0 0.00026624
22570.0 0.0002607
22590.0 0.00025485
22610.0 0.00024853
22630.0 0.00024209
22650.0 0.00023577
22670.0 0.00022912
22690.0 0.00022235
22710.0 0.00021584
22730.0 0.0002094
22750.0 0.00020272
22770.0 0.00019647
22790.0 0.00019062
22810.0 0.00018486
22830.0 0.00017936
22850.0 0.00017445
22870.0 0.00016988
22890.0 0.00016558
22910.0 0.00016189
22930.0 0.00015877
22950.0 0.0001561
22970.0 0.00015397
22990.0 0.00015257
23010.0 0.00015171
23030.0 0.00015146
23050.0 0.00015183
23070.0 0.00015275
23090.0 0.00015433
23110.0 0.00015648
23130.0 0.00015907
23150.0 0.00016214
23170.0 0.00016575
23190.0 0.00016961
23210.0 0.00017362
