#lamb flux
1010.0 1.0689e-05
1030.0 1.123e-05
1050.0 1.1856e-05
1070.0 1.2563e-05
1090.0 1.3366e-05
1110.0 1.4194e-05
1130.0 1.5031e-05
1150.0 1.5911e-05
1170.0 1.6823e-05
1190.0 1.7695e-05
1210.0 1.8584e-05
1230.0 1.9508e-05
1250.0 2.042e-05
1270.0 2.1315e-05
1290.0 2.2265e-05
1310.0 2.3223e-05
1330.0 2.4151e-05
1350.0 2.5099e-05
1370.0 2.6084e-05
1390.0 2.7056e-05
1410.0 2.8012e-05
1430.0 2.9016e-05
1450.0 3.0032e-05
1470.0 3.1026e-05
1490.0 3.2039e-05
1510.0 3.3114e-05
1530.0 3.4146e-05
1550.0 3.5174e-05
1570.0 3.6241e-05
1590.0 3.7314e-05
1610.0 3.835e-05
1630.0 3.9416e-05
1650.0 4.0509e-05
1670.0 4.1569e-05
1690.0 4.2613e-05
1710.0 4.3689e-05
1730.0 4.4762e-05
1750.0 4.5768e-05
1770.0 4.6787e-05
1790.0 4.7811e-05
1810.0 4.8786e-05
1830.0 4.9724e-05
1850.0 5.0698e-05
1870.0 5.1621e-05
1890.0 5.2486e-05
1910.0 5.3341e-05
1930.0 5.419e-05
1950.0 5.4965e-05
1970.0 5.5698e-05
1990.0 5.6436e-05
2010.0 5.7128e-05
2030.0 5.7757e-05
2050.0 5.8387e-05
2070.0 5.9014e-05
2090.0 5.9566e-05
2110.0 6.0096e-05
2130.0 6.0635e-05
2150.0 6.1146e-05
2170.0 6.1612e-05
2190.0 6.2107e-05
2210.0 6.2609e-05
2230.0 6.3085e-05
2250.0 6.3571e-05
2270.0 6.4113e-05
2290.0 6.4653e-05
2310.0 6.519e-05
2330.0 6.5789e-05
2350.0 6.6438e-05
2370.0 6.7101e-05
2390.0 6.7826e-05
2410.0 6.8649e-05
2430.0 6.951e-05
2450.0 7.0423e-05
2470.0 7.1435e-05
2490.0 7.2558e-05
2510.0 7.3789e-05
2530.0 7.5331e-05
2550.0 7.7523e-05
2570.0 8.0764e-05
2590.0 8.5564e-05
2610.0 9.3154e-05
2630.0 0.00010406
2650.0 0.00011797
2670.0 0.00013524
2690.0 0.00015557
2710.0 0.00017667
2730.0 0.00019735
2750.0 0.00021797
2770.0 0.000237
2790.0 0.00025406
2810.0 0.00027025
2830.0 0.00028646
2850.0 0.00030199
2870.0 0.00031782
2890.0 0.0003347
2910.0 0.00035236
2930.0 0.00037035
2950.0 0.00038962
2970.0 0.00041004
2990.0 0.00043084
3010.0 0.00098839
3030.0 0.0010375
3050.0 0.0010867
3070.0 0.0011319
3090.0 0.0011708
3110.0 0.0011938
3130.0 0.0011893
3150.0 0.0011441
3170.0 0.001032
3190.0 0.00085012
3210.0 0.00060074
3230.0 0.0003193
3250.0 0.00062219
3270.0 0.0002814
3290.0 0.00098304
3310.0 0.00021628
3330.0 0.00021097
3350.0 0.00030561
3370.0 0.00041617
3390.0 0.00053509
3410.0 0.00065375
3430.0 0.00077837
3450.0 0.00090312
3470.0 0.0010173
3490.0 0.0010929
3510.0 0.0013688
3530.0 0.0018723
3550.0 0.0018243
3570.0 0.0014595
3590.0 0.0021063
3610.0 0.0012403
3630.0 0.0021964
3650.0 0.0025765
3670.0 0.0033728
3690.0 0.0031346
3710.0 0.0020313
3730.0 0.0027649
3750.0 0.002858
3770.0 0.0030043
3790.0 0.0027707
3810.0 0.0026071
3830.0 0.0040509
3850.0 0.0047295
3870.0 0.0059116
3890.0 0.0055784
3910.0 0.0048937
3930.0 0.0050793
3950.0 0.0056281
3970.0 0.0069167
3990.0 0.0049034
4010.0 0.0027534
4030.0 0.0044176
4050.0 0.0053926
4070.0 0.0061013
4090.0 0.0048254
4110.0 0.0030159
4130.0 0.0045126
4150.0 0.0043069
4170.0 0.0043554
4190.0 0.0041855
4210.0 0.0055985
4230.0 0.0038081
4250.0 0.0044428
4270.0 0.0044268
4290.0 0.0043645
4310.0 0.0055438
4330.0 0.0057749
4350.0 0.0044078
4370.0 0.0036644
4390.0 0.0046817
4410.0 0.0048947
4430.0 0.0036573
4450.0 0.0035818
4470.0 0.0043357
4490.0 0.0031195
4510.0 0.0040821
4530.0 0.0043217
4550.0 0.0056045
4570.0 0.0082314
4590.0 0.0077803
4610.0 0.005022
4630.0 0.0086389
4650.0 0.012543
4670.0 0.01161
4690.0 0.006869
4710.0 0.0075925
4730.0 0.0098499
4750.0 0.0086122
4770.0 0.0064512
4790.0 0.0042166
4810.0 0.0062587
4830.0 0.0073293
4850.0 0.006267
4870.0 0.0017104
4890.0 0.006841
4910.0 0.0097239
4930.0 0.010477
4950.0 0.010257
4970.0 0.006034
4990.0 0.0071158
5010.0 0.0087046
5030.0 0.0098492
5050.0 0.009754
5070.0 0.0069104
5090.0 0.0055708
5110.0 0.0052444
5130.0 0.0047278
5150.0 0.0052631
5170.0 0.0045501
5190.0 0.0057006
5210.0 0.0057173
5230.0 0.0063007
5250.0 0.0078614
5270.0 0.0063308
5290.0 0.0062265
5310.0 0.0095585
5330.0 0.011142
5350.0 0.0090867
5370.0 0.0077991
5390.0 0.0091701
5410.0 0.011674
5430.0 0.012823
5450.0 0.013565
5470.0 0.013343
5490.0 0.012965
5510.0 0.015382
5530.0 0.015956
5550.0 0.01718
5570.0 0.018367
5590.0 0.018176
5610.0 0.017012
5630.0 0.016382
5650.0 0.016805
5670.0 0.016527
5690.0 0.013912
5710.0 0.013605
5730.0 0.013951
5750.0 0.015232
5770.0 0.01303
5790.0 0.011926
5810.0 0.012042
5830.0 0.01279
5850.0 0.011648
5870.0 0.011798
5890.0 0.014279
5910.0 0.01345
5930.0 0.010774
5950.0 0.0093057
5970.0 0.010197
5990.0 0.0093924
6010.0 0.008855
6030.0 0.0090642
6050.0 0.0083927
6070.0 0.0061493
6090.0 0.0055391
6110.0 0.0074253
6130.0 0.008637
6150.0 0.0090197
6170.0 0.0086249
6190.0 0.0079367
6210.0 0.0078638
6230.0 0.0095061
6250.0 0.0087836
6270.0 0.0080194
6290.0 0.0074196
6310.0 0.0069815
6330.0 0.0066096
6350.0 0.0057542
6370.0 0.0057116
6390.0 0.0067755
6410.0 0.0084861
6430.0 0.0098098
6450.0 0.0092128
6470.0 0.0089604
6490.0 0.011356
6510.0 0.013241
6530.0 0.012479
6550.0 0.011859
6570.0 0.012048
6590.0 0.011729
6610.0 0.012764
6630.0 0.011894
6650.0 0.010289
6670.0 0.0092822
6690.0 0.0091724
6710.0 0.011493
6730.0 0.010392
6750.0 0.0085797
6770.0 0.0075519
6790.0 0.007978
6810.0 0.0091069
6830.0 0.0089534
6850.0 0.0080177
6870.0 0.0083914
6890.0 0.0083238
6910.0 0.0078307
6930.0 0.0090191
6950.0 0.008261
6970.0 0.0075833
6990.0 0.007504
7010.0 0.0072887
7030.0 0.0069616
7050.0 0.0067885
7070.0 0.0075554
7090.0 0.0071797
7110.0 0.0061063
7130.0 0.0049273
7150.0 0.0045745
7170.0 0.0061785
7190.0 0.0067162
7210.0 0.0063641
7230.0 0.0065854
7250.0 0.0060953
7270.0 0.0057788
7290.0 0.0064617
7310.0 0.0073379
7330.0 0.0072322
7350.0 0.0067309
7370.0 0.006293
7390.0 0.0064658
7410.0 0.0075592
7430.0 0.008345
7450.0 0.0088031
7470.0 0.0086187
7490.0 0.0091609
7510.0 0.0089307
7530.0 0.0086677
7550.0 0.0085731
7570.0 0.0075385
7590.0 0.0074318
7610.0 0.0071826
7630.0 0.0065311
7650.0 0.0070728
7670.0 0.0077463
7690.0 0.0084177
7710.0 0.0095369
7730.0 0.010115
7750.0 0.010557
7770.0 0.010713
7790.0 0.011783
7810.0 0.012073
7830.0 0.010911
7850.0 0.011001
7870.0 0.010518
7890.0 0.011046
7910.0 0.010472
7930.0 0.010562
7950.0 0.0090745
7970.0 0.0092685
7990.0 0.0088736
8010.0 0.0092106
8030.0 0.0091705
8050.0 0.0097084
8070.0 0.0093135
8090.0 0.0093574
8110.0 0.0091893
8130.0 0.0091808
8150.0 0.0087184
8170.0 0.0085131
8190.0 0.0084451
8210.0 0.0085251
8230.0 0.0074732
8250.0 0.0068258
8270.0 0.0060255
8290.0 0.0050914
8310.0 0.0044765
8330.0 0.0035901
8350.0 0.0029677
8370.0 0.0029575
8390.0 0.0029065
8410.0 0.0030326
8430.0 0.0038292
8450.0 0.0041351
8470.0 0.0044149
8490.0 0.0051435
8510.0 0.0056002
8530.0 0.0064219
8550.0 0.0075999
8570.0 0.008384
8590.0 0.0088795
8610.0 0.0097669
8630.0 0.010952
8650.0 0.011182
8670.0 0.01137
8690.0 0.011848
8710.0 0.011662
8730.0 0.011413
8750.0 0.010635
8770.0 0.010658
8790.0 0.010531
8810.0 0.0096977
8830.0 0.0097494
8850.0 0.0090691
8870.0 0.0087005
8890.0 0.0078465
8910.0 0.0086017
8930.0 0.0078004
8950.0 0.0077479
8970.0 0.0078505
8990.0 0.007599
9010.0 0.0077965
9030.0 0.0074311
9050.0 0.0073919
9070.0 0.0073893
9090.0 0.0073851
9110.0 0.0073848
9130.0 0.007378
9150.0 0.007368
9170.0 0.0073381
9190.0 0.0072776
9210.0 0.0073821
9230.0 0.0073444
9250.0 0.0073198
9270.0 0.0072973
9290.0 0.0072762
9310.0 0.007256
9330.0 0.0072358
9350.0 0.0072154
9370.0 0.0071944
9390.0 0.0071727
9410.0 0.0071504
9430.0 0.0071274
9450.0 0.0071035
9470.0 0.0070791
9490.0 0.0070544
9510.0 0.0070291
9530.0 0.0070032
9550.0 0.006977
9570.0 0.0069504
9590.0 0.0069234
9610.0 0.0068962
9630.0 0.0068688
9650.0 0.0068412
9670.0 0.0068133
9690.0 0.0067854
9710.0 0.0067575
9730.0 0.0067294
9750.0 0.0067013
9770.0 0.0066736
9790.0 0.0066457
9810.0 0.0066178
9830.0 0.0065903
9850.0 0.0065629
9870.0 0.0065356
9890.0 0.0065085
9910.0 0.0064819
9930.0 0.0064552
9950.0 0.0064154
9970.0 0.0063937
9990.0 0.0063718
10010.0 0.0063493
10030.0 0.0063263
10050.0 0.0063011
10070.0 0.0062668
10090.0 0.0062476
10110.0 0.0062279
10130.0 0.0062078
10150.0 0.0061877
10170.0 0.0061671
10190.0 0.006146
10210.0 0.0061259
10230.0 0.0061064
10250.0 0.0060868
10270.0 0.0060678
10290.0 0.0060499
10310.0 0.006032
10330.0 0.0060141
10350.0 0.0059976
10370.0 0.0059816
10390.0 0.0059657
10410.0 0.0059505
10430.0 0.0059364
10450.0 0.0059224
10470.0 0.0059087
10490.0 0.005896
10510.0 0.005884
10530.0 0.0058717
10550.0 0.0058603
10570.0 0.00585
10590.0 0.0058398
10610.0 0.0058299
10630.0 0.0058211
10650.0 0.0058127
10670.0 0.0058043
10690.0 0.0057967
10710.0 0.00579
10730.0 0.0057833
10750.0 0.0057769
10770.0 0.0057717
10790.0 0.0057667
10810.0 0.0057619
10830.0 0.0057575
10850.0 0.0057535
10870.0 0.0057483
10890.0 0.0057415
10910.0 0.0057319
10930.0 0.0057165
10950.0 0.005691
10970.0 0.0056536
10990.0 0.0056031
11010.0 0.0056266
11030.0 0.0055385
11050.0 0.0054348
11070.0 0.0053146
11090.0 0.0051751
11110.0 0.0050355
11130.0 0.0048955
11150.0 0.0047514
11170.0 0.0046103
11190.0 0.0044807
11210.0 0.0043541
11230.0 0.0042318
11250.0 0.0041217
11270.0 0.0040214
11290.0 0.0039256
11310.0 0.0038385
11330.0 0.0037639
11350.0 0.003694
11370.0 0.0036286
11390.0 0.0035702
11410.0 0.0035161
11430.0 0.003461
11450.0 0.0034082
11470.0 0.0033571
11490.0 0.0033039
11510.0 0.0032471
11530.0 0.0031907
11550.0 0.0031325
11570.0 0.0030691
11590.0 0.0030037
11610.0 0.0029383
11630.0 0.0028682
11650.0 0.0027944
11670.0 0.0027231
11690.0 0.0026514
11710.0 0.0025771
11730.0 0.0025044
11750.0 0.0024362
11770.0 0.002367
11790.0 0.0022991
11810.0 0.0022364
11830.0 0.0021767
11850.0 0.0021167
11870.0 0.002062
11890.0 0.0020121
11910.0 0.0019633
11930.0 0.0019165
11950.0 0.0018741
11970.0 0.0018333
11990.0 0.0017923
12010.0 0.0017543
12030.0 0.0017186
12050.0 0.001683
12070.0 0.0016479
12090.0 0.0016167
12110.0 0.0015867
12130.0 0.0015575
12150.0 0.0015315
12170.0 0.0015091
12190.0 0.0014883
12210.0 0.0014718
12230.0 0.0014605
12250.0 0.0014538
12270.0 0.0014524
12290.0 0.0014571
12310.0 0.0014677
12330.0 0.0014846
12350.0 0.0015077
12370.0 0.0015357
12390.0 0.0015688
12410.0 0.0016079
12430.0 0.0016486
12450.0 0.0016911
12470.0 0.001736
12490.0 0.0017809
12510.0 0.0018234
12530.0 0.0018653
12550.0 0.0019056
12570.0 0.0019419
12590.0 0.0019746
12610.0 0.0020047
12630.0 0.0020309
12650.0 0.0020525
12670.0 0.0020711
12690.0 0.0020864
12710.0 0.0020983
12730.0 0.0021073
12750.0 0.0021134
12770.0 0.0021168
12790.0 0.002118
12810.0 0.0021166
12830.0 0.0021126
12850.0 0.0021068
12870.0 0.002099
12890.0 0.0020881
12910.0 0.0020751
12930.0 0.0020605
12950.0 0.0020426
12970.0 0.0020215
12990.0 0.0019993
13010.0 0.0019749
13030.0 0.0019471
13050.0 0.0019179
13070.0 0.0018885
13090.0 0.0018563
13110.0 0.001823
13130.0 0.0017909
13150.0 0.0017591
13170.0 0.0017264
13190.0 0.0016968
13210.0 0.0016706
13230.0 0.0016463
13250.0 0.0016253
13270.0 0.001609
13290.0 0.0015963
13310.0 0.0015869
13330.0 0.0015819
13350.0 0.0015802
13370.0 0.0015812
13390.0 0.0015842
13410.0 0.0015884
13430.0 0.0015929
13450.0 0.0015967
13470.0 0.0015992
13490.0 0.0015997
13510.0 0.0015974
13530.0 0.0015921
13550.0 0.0015842
13570.0 0.0015734
13590.0 0.0015595
13610.0 0.0015439
13630.0 0.0015274
13650.0 0.0015089
13670.0 0.0014901
13690.0 0.001472
13710.0 0.001454
13730.0 0.0014359
13750.0 0.0014199
13770.0 0.001405
13790.0 0.0013905
13810.0 0.0013771
13830.0 0.001365
13850.0 0.0013529
13870.0 0.0013409
13890.0 0.0013295
13910.0 0.001318
13930.0 0.0013059
13950.0 0.0012937
13970.0 0.001282
13990.0 0.0012698
14010.0 0.0012575
14030.0 0.0012459
14050.0 0.0012348
14070.0 0.0012238
14090.0 0.001214
14110.0 0.0012053
14130.0 0.0011976
14150.0 0.001191
14170.0 0.0011858
14190.0 0.0011819
14210.0 0.0011791
14230.0 0.0011776
14250.0 0.0011772
14270.0 0.0011781
14290.0 0.0011803
14310.0 0.0011834
14330.0 0.0011876
14350.0 0.0011928
14370.0 0.0011988
14390.0 0.001205
14410.0 0.0012121
14430.0 0.0012195
14450.0 0.0012265
14470.0 0.0012334
14490.0 0.0012405
14510.0 0.0012468
14530.0 0.0012524
14550.0 0.0012579
14570.0 0.0012633
14590.0 0.0012682
14610.0 0.0012734
14630.0 0.0012795
14650.0 0.0012861
14670.0 0.0012935
14690.0 0.0013027
14710.0 0.0013138
14730.0 0.0013258
14750.0 0.0013401
14770.0 0.0013569
14790.0 0.0013752
14810.0 0.0013946
14830.0 0.0014173
14850.0 0.0014408
14870.0 0.0014642
14890.0 0.0014881
14910.0 0.0015123
14930.0 0.001534
14950.0 0.0015527
14970.0 0.0015691
14990.0 0.001581
15010.0 0.0015881
15030.0 0.0015911
15050.0 0.0015904
15070.0 0.0015863
15090.0 0.00158
15110.0 0.0015722
15130.0 0.0015635
15150.0 0.0015543
15170.0 0.0015449
15190.0 0.0015353
15210.0 0.0015257
15230.0 0.0015162
15250.0 0.0015065
15270.0 0.0014969
15290.0 0.0014874
15310.0 0.0014778
15330.0 0.0014682
15350.0 0.0014588
15370.0 0.0014493
15390.0 0.0014398
15410.0 0.0014303
15430.0 0.001421
15450.0 0.0014116
15470.0 0.0014021
15490.0 0.0013929
15510.0 0.0013836
15530.0 0.0013743
15550.0 0.0013651
15570.0 0.001356
15590.0 0.0013469
15610.0 0.0013377
15630.0 0.0013287
15650.0 0.0013197
15670.0 0.0013107
15690.0 0.0013018
15710.0 0.001293
15730.0 0.0012842
15750.0 0.0012754
15770.0 0.0012667
15790.0 0.0012581
15810.0 0.0012494
15830.0 0.0012408
15850.0 0.0012324
15870.0 0.0012239
15890.0 0.0012155
15910.0 0.0012072
15930.0 0.001199
15950.0 0.0011907
15970.0 0.0011825
15990.0 0.0011745
16010.0 0.0011664
16030.0 0.0011583
16050.0 0.0011505
16070.0 0.0011426
16090.0 0.0011348
16110.0 0.001127
16130.0 0.0011194
16150.0 0.0011117
16170.0 0.0011041
16190.0 0.0010966
16210.0 0.0010892
16230.0 0.0010817
16250.0 0.0010744
16270.0 0.0010672
16290.0 0.00106
16310.0 0.0010528
16330.0 0.0010458
16350.0 0.0010388
16370.0 0.0010317
16390.0 0.0010248
16410.0 0.001018
16430.0 0.0010112
16450.0 0.0010045
16470.0 0.00099789
16490.0 0.00099126
16510.0 0.00098466
16530.0 0.0009782
16550.0 0.00097181
16570.0 0.00096537
16590.0 0.00095903
16610.0 0.00095285
16630.0 0.00094665
16650.0 0.00094047
16670.0 0.00093444
16690.0 0.00092846
16710.0 0.0009224
16730.0 0.00091648
16750.0 0.00091067
16770.0 0.00090485
16790.0 0.00089904
16810.0 0.0008934
16830.0 0.0008878
16850.0 0.00088216
16870.0 0.00087663
16890.0 0.00087121
16910.0 0.00086574
16930.0 0.00086029
16950.0 0.00085502
16970.0 0.00084976
16990.0 0.00084449
17010.0 0.00083932
17030.0 0.00083426
17050.0 0.00082915
17070.0 0.00082408
17090.0 0.00081914
17110.0 0.00081423
17130.0 0.00080925
17150.0 0.00080442
17170.0 0.00079969
17190.0 0.00079491
17210.0 0.00079019
17230.0 0.00078559
17250.0 0.00078098
17270.0 0.00077634
17290.0 0.00077183
17310.0 0.00076739
17330.0 0.0007629
17350.0 0.00075845
17370.0 0.00075417
17390.0 0.00074986
17410.0 0.00074554
17430.0 0.00074133
17450.0 0.00073719
17470.0 0.00073295
17490.0 0.00072881
17510.0 0.00072478
17530.0 0.00072074
17550.0 0.00071668
17570.0 0.00071274
17590.0 0.00070886
17610.0 0.00070492
17630.0 0.00070105
17650.0 0.00069728
17670.0 0.00069349
17690.0 0.00068963
17710.0 0.00068596
17730.0 0.00068231
17750.0 0.00067862
17770.0 0.000675
17790.0 0.00067148
17810.0 0.0006679
17830.0 0.00066433
17850.0 0.00066087
17870.0 0.00065743
17890.0 0.00065395
17910.0 0.00065052
17930.0 0.00064722
17950.0 0.00064387
17970.0 0.00064053
17990.0 0.00063729
18010.0 0.00063407
18030.0 0.00063077
18050.0 0.00062757
18070.0 0.00062445
18090.0 0.00062129
18110.0 0.00061812
18130.0 0.00061509
18150.0 0.00061205
18170.0 0.00060897
18190.0 0.00060597
18210.0 0.00060304
18230.0 0.00060003
18250.0 0.00059704
18270.0 0.00059418
18290.0 0.00059131
18310.0 0.0005884
18330.0 0.00058558
18350.0 0.00058282
18370.0 0.00057999
18390.0 0.00057719
18410.0 0.00057448
18430.0 0.00057177
18450.0 0.00056898
18470.0 0.00056632
18490.0 0.00056371
18510.0 0.00056104
18530.0 0.0005584
18550.0 0.00055586
18570.0 0.00055328
18590.0 0.00055066
18610.0 0.00054814
18630.0 0.00054565
18650.0 0.00054312
18670.0 0.0005406
18690.0 0.0005382
18710.0 0.00053576
18730.0 0.0005333
18750.0 0.00053092
18770.0 0.00052858
18790.0 0.00052613
18810.0 0.00052375
18830.0 0.00052146
18850.0 0.00051914
18870.0 0.00051679
18890.0 0.00051454
18910.0 0.00051231
18930.0 0.00051001
18950.0 0.00050777
18970.0 0.00050559
18990.0 0.00050337
19010.0 0.00050109
19030.0 0.00049897
19050.0 0.00049684
19070.0 0.00049465
19090.0 0.00049252
19110.0 0.00049047
19130.0 0.00048833
19150.0 0.0004862
19170.0 0.00048415
19190.0 0.00048211
19210.0 0.00048
19230.0 0.00047795
19250.0 0.00047599
19270.0 0.00047397
19290.0 0.00047194
19310.0 0.00047
19330.0 0.00046805
19350.0 0.00046601
19370.0 0.00046406
19390.0 0.00046217
19410.0 0.00046022
19430.0 0.00045826
19450.0 0.00045641
19470.0 0.00045454
19490.0 0.00045261
19510.0 0.00045075
19530.0 0.00044894
19550.0 0.00044704
19570.0 0.00044515
19590.0 0.00044337
19610.0 0.00044156
19630.0 0.00043971
19650.0 0.00043793
19670.0 0.00043619
19690.0 0.00043437
19710.0 0.00043257
19730.0 0.00043084
19750.0 0.00042909
19770.0 0.00042728
19790.0 0.00042556
19810.0 0.00042387
19830.0 0.00042211
19850.0 0.00042035
19870.0 0.00041863
19890.0 0.00041676
19910.0 0.00041468
19930.0 0.00041243
19950.0 0.00040981
19970.0 0.00040652
19990.0 0.00040253
20010.0 0.00039798
20030.0 0.00039249
20050.0 0.00038611
20070.0 0.00037933
20090.0 0.00037218
20110.0 0.00036425
20130.0 0.00035646
20150.0 0.00034896
20170.0 0.00034138
20190.0 0.0003339
20210.0 0.00032703
20230.0 0.00032049
20250.0 0.00031409
20270.0 0.00030831
20290.0 0.00030318
20310.0 0.00029846
20330.0 0.00029422
20350.0 0.00029092
20370.0 0.00028821
20390.0 0.00028612
20410.0 0.0002848
20430.0 0.00028421
20450.0 0.00028431
20470.0 0.00028517
20490.0 0.0002867
20510.0 0.0002889
20530.0 0.00029183
20550.0 0.0002953
20570.0 0.00029915
20590.0 0.00030359
20610.0 0.00030842
20630.0 0.00031335
20650.0 0.0003185
20670.0 0.00032398
20690.0 0.0003292
20710.0 0.00033421
20730.0 0.00033917
20750.0 0.00034384
20770.0 0.00034796
20790.0 0.00035177
20810.0 0.00035523
20830.0 0.00035815
20850.0 0.00036059
20870.0 0.00036269
20890.0 0.00036436
20910.0 0.00036559
20930.0 0.00036652
20950.0 0.00036716
20970.0 0.00036752
20990.0 0.00036765
21010.0 0.00036754
21030.0 0.00036721
21050.0 0.0003667
21070.0 0.00036597
21090.0 0.00036501
21110.0 0.00036391
21130.0 0.00036266
21150.0 0.00036119
21170.0 0.00035958
21190.0 0.00035794
21210.0 0.00035614
21230.0 0.00035425
21250.0 0.00035244
21270.0 0.00035067
21290.0 0.00034891
21310.0 0.00034728
21330.0 0.00034588
21350.0 0.00034459
21370.0 0.00034349
21390.0 0.00034267
21410.0 0.00034208
21430.0 0.00034171
21450.0 0.00034164
21470.0 0.00034183
21490.0 0.00034227
21510.0 0.00034298
21530.0 0.00034389
21550.0 0.00034502
21570.0 0.00034641
21590.0 0.00034798
21610.0 0.00034969
21630.0 0.00035162
21650.0 0.00035378
21670.0 0.00035597
21690.0 0.00035833
21710.0 0.00036092
21730.0 0.00036361
21750.0 0.00036636
21770.0 0.00036942
21790.0 0.00037262
21810.0 0.00037586
21830.0 0.00037928
21850.0 0.00038296
21870.0 0.0003867
21890.0 0.00039044
21910.0 0.00039445
21930.0 0.00039855
21950.0 0.00040259
21970.0 0.00040673
21990.0 0.00041108
22010.0 0.0004152
22030.0 0.0004192
22050.0 0.00042322
22070.0 0.00042707
22090.0 0.00043055
22110.0 0.00043386
22130.0 0.00043692
22150.0 0.00043953
22170.0 0.0004417
22190.0 0.00044349
22210.0 0.00044473
22230.0 0.00044538
22250.0 0.00044549
22270.0 0.00044498
22290.0 0.00044387
22310.0 0.00044219
22330.0 0.00043977
22350.0 0.00043675
22370.0 0.00043325
22390.0 0.0004291
22410.0 0.00042424
22430.0 0.00041914
22450.0 0.00041364
22470.0 0.00040755
22490.0 0.00040119
22510.0 0.0003948
22530.0 0.00038794
22550.0 0.0003808
22570.0 0.00037389
22590.0 0.00036697
22610.0 0.00035985
22630.0 0.00035293
22650.0 0.00034644
22670.0 0.00033987
22690.0 0.00033346
22710.0 0.00032751
22730.0 0.00032184
22750.0 0.00031614
22770.0 0.00031097
22790.0 0.00030626
22810.0 0.0003017
22830.0 0.00029742
22850.0 0.00029364
22870.0 0.00029012
22890.0 0.00028679
22910.0 0.00028387
22930.0 0.00028132
22950.0 0.00027901
22970.0 0.00027698
22990.0 0.0002754
23010.0 0.0002741
23030.0 0.00027308
23050.0 0.00027242
23070.0 0.00027206
23090.0 0.000272
23110.0 0.00027224
23130.0 0.00027275
23150.0 0.0002735
23170.0 0.00027451
23190.0 0.00027568
23210.0 0.00027697
23230.0 0.00027844
23250.0 0.00027999
23270.0 0.00028155
23290.0 0.00028317
23310.0 0.00028486
23330.0 0.00028644
23350.0 0.00028795
23370.0 0.00028945
23390.0 0.00029085
