#lamb flux
1010.0 1.238e-07
1030.0 1.3869e-07
1050.0 1.5346e-07
1070.0 1.7016e-07
1090.0 1.8988e-07
1110.0 2.1009e-07
1130.0 2.3049e-07
1150.0 2.5197e-07
1170.0 2.7436e-07
1190.0 2.96e-07
1210.0 3.1842e-07
1230.0 3.4218e-07
1250.0 3.6608e-07
1270.0 3.9021e-07
1290.0 4.1648e-07
1310.0 4.4374e-07
1330.0 4.7106e-07
1350.0 4.9958e-07
1370.0 5.2973e-07
1390.0 5.6007e-07
1410.0 5.9036e-07
1430.0 6.222e-07
1450.0 6.5439e-07
1470.0 6.8594e-07
1490.0 7.1776e-07
1510.0 7.5084e-07
1530.0 7.8226e-07
1550.0 8.1289e-07
1570.0 8.4379e-07
1590.0 8.74e-07
1610.0 9.0213e-07
1630.0 9.2979e-07
1650.0 9.5702e-07
1670.0 9.8216e-07
1690.0 1.0057e-06
1710.0 1.0288e-06
1730.0 1.0507e-06
1750.0 1.0696e-06
1770.0 1.0879e-06
1790.0 1.1054e-06
1810.0 1.1208e-06
1830.0 1.1346e-06
1850.0 1.1489e-06
1870.0 1.1617e-06
1890.0 1.1731e-06
1910.0 1.1844e-06
1930.0 1.1959e-06
1950.0 1.2061e-06
1970.0 1.2159e-06
1990.0 1.2266e-06
2010.0 1.2369e-06
2030.0 1.2465e-06
2050.0 1.2568e-06
2070.0 1.2675e-06
2090.0 1.2767e-06
2110.0 1.2855e-06
2130.0 1.2944e-06
2150.0 1.3021e-06
2170.0 1.3079e-06
2190.0 1.3134e-06
2210.0 1.3176e-06
2230.0 1.3196e-06
2250.0 1.3198e-06
2270.0 1.319e-06
2290.0 1.3158e-06
2310.0 1.3099e-06
2330.0 1.3027e-06
2350.0 1.2936e-06
2370.0 1.2819e-06
2390.0 1.2684e-06
2410.0 1.2535e-06
2430.0 1.236e-06
2450.0 1.2158e-06
2470.0 1.1936e-06
2490.0 1.169e-06
2510.0 1.1423e-06
2530.0 1.1162e-06
2550.0 1.0946e-06
2570.0 1.0826e-06
2590.0 1.0854e-06
2610.0 1.1145e-06
2630.0 1.1732e-06
2650.0 1.2561e-06
2670.0 1.3632e-06
2690.0 1.4877e-06
2710.0 1.6048e-06
2730.0 1.7002e-06
2750.0 1.7696e-06
2770.0 1.7938e-06
2790.0 1.7674e-06
2810.0 1.6934e-06
2830.0 1.5698e-06
2850.0 1.4105e-06
2870.0 1.2241e-06
2890.0 1.0119e-06
2910.0 7.8468e-07
2930.0 5.5504e-07
2950.0 3.1278e-07
2970.0 8.5002e-08
2990.0 8.5002e-08
3010.0 1.7261e-07
3030.0 1.7261e-07
3050.0 1.7261e-07
3070.0 1.7261e-07
3090.0 1.7261e-07
3110.0 1.7261e-07
3130.0 1.7261e-07
3150.0 1.7261e-07
3170.0 1.7261e-07
3190.0 1.7261e-07
3210.0 1.7261e-07
3230.0 7.0167e-06
3250.0 1.2499e-05
3270.0 1.1725e-05
3290.0 1.0945e-05
3310.0 8.3193e-06
3330.0 8.0742e-06
3350.0 8.9171e-06
3370.0 1.0174e-05
3390.0 1.1558e-05
3410.0 1.3042e-05
3430.0 1.4998e-05
3450.0 1.6913e-05
3470.0 1.8896e-05
3490.0 1.9624e-05
3510.0 1.7824e-05
3530.0 1.7143e-05
3550.0 1.8968e-05
3570.0 2.0369e-05
3590.0 2.2076e-05
3610.0 2.1554e-05
3630.0 2.6112e-05
3650.0 2.8508e-05
3670.0 3.0108e-05
3690.0 2.9914e-05
3710.0 2.7082e-05
3730.0 2.6743e-05
3750.0 2.5404e-05
3770.0 2.4536e-05
3790.0 2.3107e-05
3810.0 2.1978e-05
3830.0 2.2679e-05
3850.0 1.2018e-05
3870.0 1.6122e-05
3890.0 1.8691e-05
3910.0 2.2977e-05
3930.0 2.9492e-05
3950.0 3.197e-05
3970.0 3.5714e-05
3990.0 4.2783e-05
4010.0 3.6276e-05
4030.0 3.121e-05
4050.0 2.2538e-05
4070.0 2.1241e-05
4090.0 3.1306e-05
4110.0 3.1308e-05
4130.0 3.4078e-05
4150.0 3.266e-05
4170.0 3.0926e-05
4190.0 2.8069e-05
4210.0 3.7817e-05
4230.0 3.9936e-05
4250.0 4.3524e-05
4270.0 4.1437e-05
4290.0 4.085e-05
4310.0 4.4374e-05
4330.0 5.2118e-05
4350.0 5.44e-05
4370.0 5.4073e-05
4390.0 4.9337e-05
4410.0 4.5519e-05
4430.0 3.5485e-05
4450.0 2.8894e-05
4470.0 3.1199e-05
4490.0 3.6582e-05
4510.0 3.8082e-05
4530.0 3.8383e-05
4550.0 3.883e-05
4570.0 5.5327e-05
4590.0 8.2813e-05
4610.0 9.7304e-05
4630.0 9.8564e-05
4650.0 0.00010629
4670.0 0.00012392
4690.0 0.00013433
4710.0 0.00011198
4730.0 8.5415e-05
4750.0 6.6909e-05
4770.0 5.769e-05
4790.0 5.2769e-05
4810.0 5.0027e-05
4830.0 5.545e-05
4850.0 6.5522e-05
4870.0 7.1847e-05
4890.0 7.5038e-05
4910.0 7.0674e-05
4930.0 7.6411e-05
4950.0 9.3259e-05
4970.0 0.00010865
4990.0 0.00011267
5010.0 0.00010376
5030.0 8.6168e-05
5050.0 6.6369e-05
5070.0 5.2934e-05
5090.0 4.7805e-05
5110.0 4.7057e-05
5130.0 4.7925e-05
5150.0 4.7587e-05
5170.0 4.4748e-05
5190.0 4.198e-05
5210.0 4.1421e-05
5230.0 4.7355e-05
5250.0 5.6954e-05
5270.0 6.8738e-05
5290.0 7.9111e-05
5310.0 8.5442e-05
5330.0 9.5151e-05
5350.0 0.00010666
5370.0 0.00011166
5390.0 0.00010224
5410.0 9.1827e-05
5430.0 9.0881e-05
5450.0 0.00010711
5470.0 0.00013362
5490.0 0.0001571
5510.0 0.00016886
5530.0 0.00016847
5550.0 0.00016301
5570.0 0.00015966
5590.0 0.00015587
5610.0 0.00015515
5630.0 0.00015664
5650.0 0.00015931
5670.0 0.00015859
5690.0 0.0001459
5710.0 0.00012505
5730.0 0.00011366
5750.0 0.00011074
5770.0 0.00011511
5790.0 0.00012067
5810.0 0.00012703
5830.0 0.00013103
5850.0 0.00012713
5870.0 0.00012207
5890.0 0.00012098
5910.0 0.00012738
5930.0 0.00013476
5950.0 0.00012904
5970.0 0.00011586
5990.0 9.7467e-05
6010.0 7.9715e-05
6030.0 7.3601e-05
6050.0 7.9712e-05
6070.0 8.4735e-05
6090.0 8.0782e-05
6110.0 7.13e-05
6130.0 7.2962e-05
6150.0 8.4887e-05
6170.0 9.7591e-05
6190.0 0.00010712
6210.0 0.00010867
6230.0 0.00010696
6250.0 9.7676e-05
6270.0 8.1643e-05
6290.0 6.7405e-05
6310.0 5.9822e-05
6330.0 5.8447e-05
6350.0 5.9496e-05
6370.0 6.0304e-05
6390.0 6.7822e-05
6410.0 8.4595e-05
6430.0 0.0001044
6450.0 0.00011713
6470.0 0.00012076
6490.0 0.00011993
6510.0 0.00012241
6530.0 0.00012616
6550.0 0.00012554
6570.0 0.00013028
6590.0 0.00013357
6610.0 0.00013584
6630.0 0.00013357
6650.0 0.00012474
6670.0 0.00011381
6690.0 0.0001035
6710.0 9.795e-05
6730.0 9.6748e-05
6750.0 9.85e-05
6770.0 0.0001012
6790.0 0.00010449
6810.0 0.0001067
6830.0 0.00010467
6850.0 9.9612e-05
6870.0 9.332e-05
6890.0 9.1221e-05
6910.0 8.8473e-05
6930.0 9.1564e-05
6950.0 9.7019e-05
6970.0 9.9586e-05
6990.0 0.00010143
7010.0 9.8532e-05
7030.0 9.0603e-05
7050.0 8.0165e-05
7070.0 7.1531e-05
7090.0 6.6938e-05
7110.0 6.6357e-05
7130.0 6.4764e-05
7150.0 5.7887e-05
7170.0 5.4922e-05
7190.0 6.0088e-05
7210.0 6.9483e-05
7230.0 8.0123e-05
7250.0 8.4816e-05
7270.0 8.3836e-05
7290.0 7.7323e-05
7310.0 7.1375e-05
7330.0 6.8491e-05
7350.0 6.8683e-05
7370.0 6.998e-05
7390.0 7.3305e-05
7410.0 8.1223e-05
7430.0 9.3869e-05
7450.0 0.00010598
7470.0 0.00011179
7490.0 0.00010918
7510.0 0.00010131
7530.0 8.7423e-05
7550.0 7.8844e-05
7570.0 6.9863e-05
7590.0 6.5261e-05
7610.0 6.6454e-05
7630.0 7.1282e-05
7650.0 7.8218e-05
7670.0 8.5136e-05
7690.0 8.9738e-05
7710.0 9.4505e-05
7730.0 9.9353e-05
7750.0 0.00010326
7770.0 0.00010156
7790.0 0.00010139
7810.0 0.00010235
7830.0 0.00010113
7850.0 9.7074e-05
7870.0 9.3278e-05
7890.0 9.3106e-05
7910.0 8.989e-05
7930.0 8.7885e-05
7950.0 8.2695e-05
7970.0 7.9785e-05
7990.0 7.6349e-05
8010.0 7.6901e-05
8030.0 7.6959e-05
8050.0 7.6942e-05
8070.0 7.5541e-05
8090.0 7.4535e-05
8110.0 7.1397e-05
8130.0 7.081e-05
8150.0 6.9438e-05
8170.0 6.722e-05
8190.0 6.5366e-05
8210.0 6.4679e-05
8230.0 6.2683e-05
8250.0 6.101e-05
8270.0 5.4945e-05
8290.0 4.4628e-05
8310.0 3.3369e-05
8330.0 2.5652e-05
8350.0 2.3862e-05
8370.0 2.8304e-05
8390.0 3.4136e-05
8410.0 3.6686e-05
8430.0 3.7441e-05
8450.0 3.9161e-05
8470.0 4.1735e-05
8490.0 4.6507e-05
8510.0 5.2797e-05
8530.0 6.0313e-05
8550.0 6.7254e-05
8570.0 7.2857e-05
8590.0 7.7023e-05
8610.0 7.9203e-05
8630.0 7.8938e-05
8650.0 7.777e-05
8670.0 7.7379e-05
8690.0 8.0852e-05
8710.0 8.5579e-05
8730.0 8.8573e-05
8750.0 8.7802e-05
8770.0 8.8573e-05
8790.0 8.7797e-05
8810.0 8.2059e-05
8830.0 7.6937e-05
8850.0 7.0314e-05
8870.0 6.4953e-05
8890.0 6.3004e-05
8910.0 6.2805e-05
8930.0 5.9066e-05
8950.0 5.4883e-05
8970.0 5.3018e-05
8990.0 5.2331e-05
9010.0 5.0221e-05
9030.0 4.9093e-05
9050.0 4.8678e-05
9070.0 4.8487e-05
9090.0 4.8322e-05
9110.0 4.8163e-05
9130.0 4.8003e-05
9150.0 4.7846e-05
9170.0 4.7669e-05
9190.0 4.7539e-05
9210.0 4.7598e-05
9230.0 4.7357e-05
9250.0 4.7157e-05
9270.0 4.6981e-05
9290.0 4.682e-05
9310.0 4.6664e-05
9330.0 4.6514e-05
9350.0 4.6376e-05
9370.0 4.6238e-05
9390.0 4.6096e-05
9410.0 4.5961e-05
9430.0 4.5822e-05
9450.0 4.5624e-05
9470.0 4.5447e-05
9490.0 4.5374e-05
9510.0 4.5272e-05
9530.0 4.516e-05
9550.0 4.5045e-05
9570.0 4.4926e-05
9590.0 4.4804e-05
9610.0 4.4682e-05
9630.0 4.456e-05
9650.0 4.4438e-05
9670.0 4.4317e-05
9690.0 4.4196e-05
9710.0 4.4077e-05
9730.0 4.3957e-05
9750.0 4.3837e-05
9770.0 4.3718e-05
9790.0 4.3599e-05
9810.0 4.348e-05
9830.0 4.3361e-05
9850.0 4.3243e-05
9870.0 4.3122e-05
9890.0 4.3002e-05
9910.0 4.2881e-05
9930.0 4.2755e-05
9950.0 4.2302e-05
9970.0 4.2277e-05
9990.0 4.2233e-05
10010.0 4.2177e-05
10030.0 4.2093e-05
10050.0 4.1985e-05
10070.0 4.1872e-05
10090.0 4.1759e-05
10110.0 4.1622e-05
10130.0 4.1492e-05
10150.0 4.1364e-05
10170.0 4.1225e-05
10190.0 4.1072e-05
10210.0 4.0933e-05
10230.0 4.0797e-05
10250.0 4.0645e-05
10270.0 4.0493e-05
10290.0 4.0351e-05
10310.0 4.0194e-05
10330.0 4.0024e-05
10350.0 3.9867e-05
10370.0 3.9708e-05
10390.0 3.9533e-05
10410.0 3.9358e-05
10430.0 3.9195e-05
10450.0 3.9016e-05
10470.0 3.8826e-05
10490.0 3.8645e-05
10510.0 3.8462e-05
10530.0 3.8254e-05
10550.0 3.8052e-05
10570.0 3.7859e-05
10590.0 3.765e-05
10610.0 3.7431e-05
10630.0 3.7223e-05
10650.0 3.7009e-05
10670.0 3.6772e-05
10690.0 3.6541e-05
10710.0 3.6314e-05
10730.0 3.6071e-05
10750.0 3.581e-05
10770.0 3.5571e-05
10790.0 3.5321e-05
10810.0 3.5053e-05
10830.0 3.4788e-05
10850.0 3.4531e-05
10870.0 3.4243e-05
10890.0 3.3949e-05
10910.0 3.3664e-05
10930.0 3.3366e-05
10950.0 3.304e-05
10970.0 3.2712e-05
10990.0 3.2385e-05
11010.0 3.4172e-05
11030.0 3.3779e-05
11050.0 3.3396e-05
11070.0 3.3005e-05
11090.0 3.2589e-05
11110.0 3.2205e-05
11130.0 3.1837e-05
11150.0 3.1461e-05
11170.0 3.1092e-05
11190.0 3.075e-05
11210.0 3.0402e-05
11230.0 3.0047e-05
11250.0 2.971e-05
11270.0 2.9381e-05
11290.0 2.9037e-05
11310.0 2.8694e-05
11330.0 2.8374e-05
11350.0 2.8043e-05
11370.0 2.77e-05
11390.0 2.7365e-05
11410.0 2.7028e-05
11430.0 2.6658e-05
11450.0 2.628e-05
11470.0 2.59e-05
11490.0 2.5491e-05
11510.0 2.5048e-05
11530.0 2.4603e-05
11550.0 2.4143e-05
11570.0 2.3645e-05
11590.0 2.3135e-05
11610.0 2.2629e-05
11630.0 2.2094e-05
11650.0 2.154e-05
11670.0 2.1009e-05
11690.0 2.048e-05
11710.0 1.994e-05
11730.0 1.9416e-05
11750.0 1.8923e-05
11770.0 1.8426e-05
11790.0 1.7939e-05
11810.0 1.7485e-05
11830.0 1.7047e-05
11850.0 1.6604e-05
11870.0 1.6191e-05
11890.0 1.5807e-05
11910.0 1.5425e-05
11930.0 1.5054e-05
11950.0 1.4709e-05
11970.0 1.4375e-05
11990.0 1.404e-05
12010.0 1.3728e-05
12030.0 1.3434e-05
12050.0 1.3147e-05
12070.0 1.2871e-05
12090.0 1.2626e-05
12110.0 1.2395e-05
12130.0 1.2178e-05
12150.0 1.1988e-05
12170.0 1.1823e-05
12190.0 1.1674e-05
12210.0 1.1553e-05
12230.0 1.146e-05
12250.0 1.1392e-05
12270.0 1.1351e-05
12290.0 1.1336e-05
12310.0 1.1344e-05
12330.0 1.1378e-05
12350.0 1.1437e-05
12370.0 1.1513e-05
12390.0 1.1611e-05
12410.0 1.1736e-05
12430.0 1.1869e-05
12450.0 1.2014e-05
12470.0 1.2177e-05
12490.0 1.2349e-05
12510.0 1.2516e-05
12530.0 1.2692e-05
12550.0 1.2872e-05
12570.0 1.3038e-05
12590.0 1.3192e-05
12610.0 1.3338e-05
12630.0 1.3464e-05
12650.0 1.3556e-05
12670.0 1.3627e-05
12690.0 1.3669e-05
12710.0 1.3677e-05
12730.0 1.3654e-05
12750.0 1.3598e-05
12770.0 1.351e-05
12790.0 1.3396e-05
12810.0 1.3254e-05
12830.0 1.3086e-05
12850.0 1.2905e-05
12870.0 1.2713e-05
12890.0 1.2506e-05
12910.0 1.2295e-05
12930.0 1.2089e-05
12950.0 1.1878e-05
12970.0 1.1669e-05
12990.0 1.1473e-05
13010.0 1.1284e-05
13030.0 1.1097e-05
13050.0 1.092e-05
13070.0 1.0755e-05
13090.0 1.059e-05
13110.0 1.0429e-05
13130.0 1.0276e-05
13150.0 1.0126e-05
13170.0 9.9733e-06
13190.0 9.8264e-06
13210.0 9.6851e-06
13230.0 9.543e-06
13250.0 9.4036e-06
13270.0 9.2729e-06
13290.0 9.1468e-06
13310.0 9.0249e-06
13330.0 8.9153e-06
13350.0 8.8179e-06
13370.0 8.7305e-06
13390.0 8.6558e-06
13410.0 8.5966e-06
13430.0 8.5484e-06
13450.0 8.5108e-06
13470.0 8.482e-06
13490.0 8.4588e-06
13510.0 8.4386e-06
13530.0 8.4175e-06
13550.0 8.3923e-06
13570.0 8.3604e-06
13590.0 8.3186e-06
13610.0 8.2663e-06
13630.0 8.2039e-06
13650.0 8.128e-06
13670.0 8.0412e-06
13690.0 7.9477e-06
13710.0 7.846e-06
13730.0 7.7349e-06
13750.0 7.627e-06
13770.0 7.5204e-06
13790.0 7.4136e-06
13810.0 7.3124e-06
13830.0 7.2211e-06
13850.0 7.1347e-06
13870.0 7.0555e-06
13890.0 6.987e-06
13910.0 6.9267e-06
13930.0 6.8722e-06
13950.0 6.8247e-06
13970.0 6.7842e-06
13990.0 6.7468e-06
14010.0 6.7118e-06
14030.0 6.6791e-06
14050.0 6.6469e-06
14070.0 6.6124e-06
14090.0 6.5764e-06
14110.0 6.5386e-06
14130.0 6.4965e-06
14150.0 6.4494e-06
14170.0 6.4002e-06
14190.0 6.3475e-06
14210.0 6.2896e-06
14230.0 6.23e-06
14250.0 6.1705e-06
14270.0 6.1082e-06
14290.0 6.0458e-06
14310.0 5.9885e-06
14330.0 5.9344e-06
14350.0 5.8833e-06
14370.0 5.8389e-06
14390.0 5.8019e-06
14410.0 5.77e-06
14430.0 5.7448e-06
14450.0 5.7268e-06
14470.0 5.7144e-06
14490.0 5.7071e-06
14510.0 5.705e-06
14530.0 5.7068e-06
14550.0 5.7123e-06
14570.0 5.7214e-06
14590.0 5.7336e-06
14610.0 5.7496e-06
14630.0 5.7706e-06
14650.0 5.796e-06
14670.0 5.8262e-06
14690.0 5.8635e-06
14710.0 5.9084e-06
14730.0 5.9578e-06
14750.0 6.0153e-06
14770.0 6.0821e-06
14790.0 6.1553e-06
14810.0 6.2348e-06
14830.0 6.3282e-06
14850.0 6.43e-06
14870.0 6.5371e-06
14890.0 6.6543e-06
14910.0 6.7814e-06
14930.0 6.9074e-06
14950.0 7.0296e-06
14970.0 7.1498e-06
14990.0 7.2564e-06
15010.0 7.3442e-06
15030.0 7.416e-06
15050.0 7.4719e-06
15070.0 7.5101e-06
15090.0 7.5375e-06
15110.0 7.5577e-06
15130.0 7.5729e-06
15150.0 7.5856e-06
15170.0 7.5972e-06
15190.0 7.6082e-06
15210.0 7.6193e-06
15230.0 7.6306e-06
15250.0 7.6421e-06
15270.0 7.6537e-06
15290.0 7.6658e-06
15310.0 7.678e-06
15330.0 7.6904e-06
15350.0 7.7031e-06
15370.0 7.7161e-06
15390.0 7.7291e-06
15410.0 7.7424e-06
15430.0 7.756e-06
15450.0 7.7698e-06
15470.0 7.7837e-06
15490.0 7.7979e-06
15510.0 7.8122e-06
15530.0 7.8267e-06
15550.0 7.8414e-06
15570.0 7.8563e-06
15590.0 7.8713e-06
15610.0 7.8864e-06
15630.0 7.9018e-06
15650.0 7.9173e-06
15670.0 7.9329e-06
15690.0 7.9486e-06
15710.0 7.9646e-06
15730.0 7.9805e-06
15750.0 7.9966e-06
15770.0 8.0128e-06
15790.0 8.0291e-06
15810.0 8.0454e-06
15830.0 8.0619e-06
15850.0 8.0786e-06
15870.0 8.0952e-06
15890.0 8.1118e-06
15910.0 8.1286e-06
15930.0 8.1455e-06
15950.0 8.1622e-06
15970.0 8.1791e-06
15990.0 8.1961e-06
16010.0 8.2129e-06
16030.0 8.2298e-06
16050.0 8.2468e-06
16070.0 8.2638e-06
16090.0 8.2807e-06
16110.0 8.2976e-06
16130.0 8.3146e-06
16150.0 8.3313e-06
16170.0 8.3481e-06
16190.0 8.3649e-06
16210.0 8.3816e-06
16230.0 8.3982e-06
16250.0 8.4147e-06
16270.0 8.4313e-06
16290.0 8.4476e-06
16310.0 8.4639e-06
16330.0 8.4801e-06
16350.0 8.4962e-06
16370.0 8.512e-06
16390.0 8.5278e-06
16410.0 8.5435e-06
16430.0 8.559e-06
16450.0 8.5743e-06
16470.0 8.5896e-06
16490.0 8.6045e-06
16510.0 8.6193e-06
16530.0 8.6339e-06
16550.0 8.6484e-06
16570.0 8.6625e-06
16590.0 8.6765e-06
16610.0 8.6903e-06
16630.0 8.7039e-06
16650.0 8.7171e-06
16670.0 8.7302e-06
16690.0 8.743e-06
16710.0 8.7554e-06
16730.0 8.7676e-06
16750.0 8.7796e-06
16770.0 8.7912e-06
16790.0 8.8025e-06
16810.0 8.8136e-06
16830.0 8.8244e-06
16850.0 8.8347e-06
16870.0 8.8448e-06
16890.0 8.8546e-06
16910.0 8.8639e-06
16930.0 8.8729e-06
16950.0 8.8816e-06
16970.0 8.8899e-06
16990.0 8.8978e-06
17010.0 8.9053e-06
17030.0 8.9125e-06
17050.0 8.9192e-06
17070.0 8.9255e-06
17090.0 8.9315e-06
17110.0 8.9371e-06
17130.0 8.9421e-06
17150.0 8.9468e-06
17170.0 8.9511e-06
17190.0 8.9548e-06
17210.0 8.9582e-06
17230.0 8.9612e-06
17250.0 8.9636e-06
17270.0 8.9656e-06
17290.0 8.9671e-06
17310.0 8.9682e-06
17330.0 8.9688e-06
17350.0 8.9689e-06
17370.0 8.9686e-06
17390.0 8.9678e-06
17410.0 8.9664e-06
17430.0 8.9646e-06
17450.0 8.9624e-06
17470.0 8.9595e-06
17490.0 8.9562e-06
17510.0 8.9525e-06
17530.0 8.9482e-06
17550.0 8.9434e-06
17570.0 8.9381e-06
17590.0 8.9324e-06
17610.0 8.9261e-06
17630.0 8.9192e-06
17650.0 8.912e-06
17670.0 8.9042e-06
17690.0 8.8957e-06
17710.0 8.887e-06
17730.0 8.8777e-06
17750.0 8.8678e-06
17770.0 8.8575e-06
17790.0 8.8467e-06
17810.0 8.8353e-06
17830.0 8.8234e-06
17850.0 8.8111e-06
17870.0 8.7983e-06
17890.0 8.7849e-06
17910.0 8.771e-06
17930.0 8.7568e-06
17950.0 8.742e-06
17970.0 8.7266e-06
17990.0 8.7109e-06
18010.0 8.6947e-06
18030.0 8.6779e-06
18050.0 8.6607e-06
18070.0 8.6431e-06
18090.0 8.625e-06
18110.0 8.6064e-06
18130.0 8.5874e-06
18150.0 8.568e-06
18170.0 8.548e-06
18190.0 8.5277e-06
18210.0 8.507e-06
18230.0 8.4857e-06
18250.0 8.464e-06
18270.0 8.442e-06
18290.0 8.4196e-06
18310.0 8.3967e-06
18330.0 8.3735e-06
18350.0 8.35e-06
18370.0 8.3259e-06
18390.0 8.3015e-06
18410.0 8.2768e-06
18430.0 8.2517e-06
18450.0 8.2261e-06
18470.0 8.2003e-06
18490.0 8.1742e-06
18510.0 8.1477e-06
18530.0 8.1209e-06
18550.0 8.0938e-06
18570.0 8.0663e-06
18590.0 8.0385e-06
18610.0 8.0105e-06
18630.0 7.9822e-06
18650.0 7.9535e-06
18670.0 7.9246e-06
18690.0 7.8955e-06
18710.0 7.8661e-06
18730.0 7.8364e-06
18750.0 7.8065e-06
18770.0 7.7765e-06
18790.0 7.746e-06
18810.0 7.7154e-06
18830.0 7.6847e-06
18850.0 7.6537e-06
18870.0 7.6224e-06
18890.0 7.5911e-06
18910.0 7.5596e-06
18930.0 7.5278e-06
18950.0 7.4959e-06
18970.0 7.464e-06
18990.0 7.4318e-06
19010.0 7.3993e-06
19030.0 7.3669e-06
19050.0 7.3344e-06
19070.0 7.3017e-06
19090.0 7.2689e-06
19110.0 7.236e-06
19130.0 7.203e-06
19150.0 7.1699e-06
19170.0 7.1367e-06
19190.0 7.1035e-06
19210.0 7.0702e-06
19230.0 7.0368e-06
19250.0 7.0035e-06
19270.0 6.97e-06
19290.0 6.9365e-06
19310.0 6.903e-06
19330.0 6.8695e-06
19350.0 6.8359e-06
19370.0 6.8023e-06
19390.0 6.7688e-06
19410.0 6.7352e-06
19430.0 6.7016e-06
19450.0 6.6681e-06
19470.0 6.6346e-06
19490.0 6.6011e-06
19510.0 6.5676e-06
19530.0 6.5342e-06
19550.0 6.5008e-06
19570.0 6.4674e-06
19590.0 6.4342e-06
19610.0 6.401e-06
19630.0 6.3678e-06
19650.0 6.3347e-06
19670.0 6.3018e-06
19690.0 6.2688e-06
19710.0 6.2359e-06
19730.0 6.2032e-06
19750.0 6.1705e-06
19770.0 6.1379e-06
19790.0 6.1054e-06
19810.0 6.0731e-06
19830.0 6.0406e-06
19850.0 6.008e-06
19870.0 5.9751e-06
19890.0 5.941e-06
19910.0 5.9046e-06
19930.0 5.8649e-06
19950.0 5.8202e-06
19970.0 5.7673e-06
19990.0 5.7048e-06
20010.0 5.6341e-06
20030.0 5.5516e-06
20050.0 5.458e-06
20070.0 5.3585e-06
20090.0 5.2542e-06
20110.0 5.1413e-06
20130.0 5.0297e-06
20150.0 4.9213e-06
20170.0 4.8124e-06
20190.0 4.7047e-06
20210.0 4.6036e-06
20230.0 4.5059e-06
20250.0 4.4089e-06
20270.0 4.3176e-06
20290.0 4.232e-06
20310.0 4.1486e-06
20330.0 4.0673e-06
20350.0 3.9939e-06
20370.0 3.9234e-06
20390.0 3.8551e-06
20410.0 3.7913e-06
20430.0 3.7324e-06
20450.0 3.6746e-06
20470.0 3.6204e-06
20490.0 3.5707e-06
20510.0 3.524e-06
20530.0 3.4797e-06
20550.0 3.4392e-06
20570.0 3.4026e-06
20590.0 3.3682e-06
20610.0 3.3368e-06
20630.0 3.3087e-06
20650.0 3.2832e-06
20670.0 3.2599e-06
20690.0 3.2394e-06
20710.0 3.221e-06
20730.0 3.2045e-06
20750.0 3.1897e-06
20770.0 3.1763e-06
20790.0 3.1641e-06
20810.0 3.1529e-06
20830.0 3.1422e-06
20850.0 3.1317e-06
20870.0 3.1216e-06
20890.0 3.1113e-06
20910.0 3.1004e-06
20930.0 3.0889e-06
20950.0 3.0766e-06
20970.0 3.0632e-06
20990.0 3.0487e-06
21010.0 3.0328e-06
21030.0 3.0155e-06
21050.0 2.9969e-06
21070.0 2.9768e-06
21090.0 2.9549e-06
21110.0 2.9321e-06
21130.0 2.908e-06
21150.0 2.8823e-06
21170.0 2.8555e-06
21190.0 2.8282e-06
21210.0 2.7995e-06
21230.0 2.7696e-06
21250.0 2.7398e-06
21270.0 2.7095e-06
21290.0 2.6783e-06
21310.0 2.647e-06
21330.0 2.6166e-06
21350.0 2.5856e-06
21370.0 2.5546e-06
21390.0 2.5248e-06
21410.0 2.4956e-06
21430.0 2.4663e-06
21450.0 2.4387e-06
21470.0 2.4127e-06
21490.0 2.3876e-06
21510.0 2.364e-06
21530.0 2.3425e-06
21550.0 2.3227e-06
21570.0 2.3044e-06
21590.0 2.2883e-06
21610.0 2.2743e-06
21630.0 2.2622e-06
21650.0 2.2521e-06
21670.0 2.2439e-06
21690.0 2.2375e-06
21710.0 2.233e-06
21730.0 2.2299e-06
21750.0 2.2278e-06
21770.0 2.2275e-06
21790.0 2.2281e-06
21810.0 2.2291e-06
21830.0 2.2307e-06
21850.0 2.233e-06
21870.0 2.235e-06
21890.0 2.2366e-06
21910.0 2.2383e-06
21930.0 2.2394e-06
21950.0 2.2397e-06
21970.0 2.2394e-06
21990.0 2.2385e-06
22010.0 2.2365e-06
22030.0 2.2335e-06
22050.0 2.2297e-06
22070.0 2.2251e-06
22090.0 2.2195e-06
22110.0 2.2132e-06
22130.0 2.2063e-06
22150.0 2.1986e-06
22170.0 2.1904e-06
22190.0 2.1816e-06
22210.0 2.1723e-06
22230.0 2.1627e-06
22250.0 2.1525e-06
22270.0 2.1419e-06
22290.0 2.1308e-06
22310.0 2.1193e-06
22330.0 2.1069e-06
22350.0 2.0938e-06
22370.0 2.0802e-06
22390.0 2.0656e-06
22410.0 2.0496e-06
22430.0 2.033e-06
22450.0 2.0152e-06
22470.0 1.9959e-06
22490.0 1.9753e-06
22510.0 1.9539e-06
22530.0 1.9307e-06
22550.0 1.9058e-06
22570.0 1.8805e-06
22590.0 1.8543e-06
22610.0 1.8265e-06
