#lamb flux
1010.0 8.8387e-08
1030.0 9.7559e-08
1050.0 1.0811e-07
1070.0 1.1998e-07
1090.0 1.3347e-07
1110.0 1.473e-07
1130.0 1.6123e-07
1150.0 1.7581e-07
1170.0 1.9086e-07
1190.0 2.0512e-07
1210.0 2.1958e-07
1230.0 2.3452e-07
1250.0 2.4916e-07
1270.0 2.6338e-07
1290.0 2.784e-07
1310.0 2.9341e-07
1330.0 3.0781e-07
1350.0 3.2236e-07
1370.0 3.3739e-07
1390.0 3.5205e-07
1410.0 3.6626e-07
1430.0 3.8113e-07
1450.0 3.9599e-07
1470.0 4.1036e-07
1490.0 4.2488e-07
1510.0 4.4022e-07
1530.0 4.5476e-07
1550.0 4.691e-07
1570.0 4.8394e-07
1590.0 4.9879e-07
1610.0 5.1299e-07
1630.0 5.2764e-07
1650.0 5.4267e-07
1670.0 5.5722e-07
1690.0 5.7158e-07
1710.0 5.8652e-07
1730.0 6.0154e-07
1750.0 6.1568e-07
1770.0 6.3024e-07
1790.0 6.4512e-07
1810.0 6.5953e-07
1830.0 6.7371e-07
1850.0 6.8877e-07
1870.0 7.0347e-07
1890.0 7.1769e-07
1910.0 7.3221e-07
1930.0 7.471e-07
1950.0 7.6134e-07
1970.0 7.7543e-07
1990.0 7.9008e-07
2010.0 8.045e-07
2030.0 8.1843e-07
2050.0 8.328e-07
2070.0 8.4755e-07
2090.0 8.6148e-07
2110.0 8.7538e-07
2130.0 8.897e-07
2150.0 9.0377e-07
2170.0 9.1722e-07
2190.0 9.3119e-07
2210.0 9.4524e-07
2230.0 9.5872e-07
2250.0 9.7212e-07
2270.0 9.8613e-07
2290.0 9.9968e-07
2310.0 1.0127e-06
2330.0 1.0262e-06
2350.0 1.04e-06
2370.0 1.0538e-06
2390.0 1.0687e-06
2410.0 1.0865e-06
2430.0 1.1071e-06
2450.0 1.1318e-06
2470.0 1.1637e-06
2490.0 1.2041e-06
2510.0 1.25e-06
2530.0 1.3055e-06
2550.0 1.3751e-06
2570.0 1.4617e-06
2590.0 1.5743e-06
2610.0 1.7429e-06
2630.0 1.9831e-06
2650.0 2.2967e-06
2670.0 2.7016e-06
2690.0 3.1983e-06
2710.0 3.7275e-06
2730.0 4.2493e-06
2750.0 4.7621e-06
2770.0 5.2067e-06
2790.0 5.5581e-06
2810.0 5.8355e-06
2830.0 6.0506e-06
2850.0 6.1955e-06
2870.0 6.3003e-06
2890.0 6.382e-06
2910.0 6.4461e-06
2930.0 6.4975e-06
2950.0 6.5464e-06
2970.0 6.5942e-06
2990.0 6.6388e-06
3010.0 0.00019041
3030.0 0.00019168
3050.0 0.0001929
3070.0 0.00019394
3090.0 0.00019481
3110.0 0.00019531
3130.0 0.00019516
3150.0 0.00019417
3170.0 0.00019198
3190.0 0.0001886
3210.0 0.00018435
3230.0 0.0001795
3250.0 0.00017469
3270.0 0.00017116
3290.0 0.00016912
3310.0 0.00016933
3330.0 0.00017166
3350.0 0.00017582
3370.0 0.00018181
3390.0 0.00018938
3410.0 0.00019765
3430.0 0.00020693
3450.0 0.00021763
3470.0 0.00022932
3490.0 0.00024173
3510.0 0.00025576
3530.0 0.0002708
3550.0 0.00028611
3570.0 0.00030214
3590.0 0.00031961
3610.0 0.00033773
3630.0 0.00035577
3650.0 0.00037452
3670.0 0.0003916
3690.0 0.00040435
3710.0 0.00041156
3730.0 0.00041141
3750.0 0.00040492
3770.0 0.00040396
3790.0 0.00040143
3810.0 0.00038492
3830.0 0.0003957
3850.0 0.00045312
3870.0 0.00047791
3890.0 0.00046555
3910.0 0.00046369
3930.0 0.00048132
3950.0 0.00049575
3970.0 0.00045933
3990.0 0.00038465
4010.0 0.0011241
4030.0 0.0013486
4050.0 0.0015458
4070.0 0.0013607
4090.0 0.0012352
4110.0 0.0010842
4130.0 0.0010179
4150.0 0.0011086
4170.0 0.0010686
4190.0 0.0011227
4210.0 0.001124
4230.0 0.0012045
4250.0 0.0014288
4270.0 0.0014561
4290.0 0.0013341
4310.0 0.0013715
4330.0 0.0014484
4350.0 0.0016424
4370.0 0.0018819
4390.0 0.0017382
4410.0 0.0012542
4430.0 0.0010499
4450.0 0.00096693
4470.0 0.00072934
4490.0 0.00081058
4510.0 0.0012726
4530.0 0.0014775
4550.0 0.0014751
4570.0 0.0016233
4590.0 0.0018376
4610.0 0.0025743
4630.0 0.0033775
4650.0 0.0036095
4670.0 0.0033237
4690.0 0.003188
4710.0 0.003364
4730.0 0.0031358
4750.0 0.0023178
4770.0 0.0016872
4790.0 0.0015976
4810.0 0.0015389
4830.0 0.00142
4850.0 0.0015553
4870.0 0.0020552
4890.0 0.0024185
4910.0 0.0020985
4930.0 0.0018755
4950.0 0.002071
4970.0 0.0026641
4990.0 0.0036098
5010.0 0.0041586
5030.0 0.0036319
5050.0 0.0024364
5070.0 0.001617
5090.0 0.0012938
5110.0 0.0013183
5130.0 0.0015291
5150.0 0.0016413
5170.0 0.0016099
5190.0 0.0014972
5210.0 0.0015752
5230.0 0.0016811
5250.0 0.0018263
5270.0 0.0019405
5290.0 0.0021437
5310.0 0.0025302
5330.0 0.002795
5350.0 0.0027752
5370.0 0.0029332
5390.0 0.0033972
5410.0 0.0033418
5430.0 0.0029197
5450.0 0.0027055
5470.0 0.0028966
5490.0 0.0035448
5510.0 0.0044172
5530.0 0.0050729
5550.0 0.0048715
5570.0 0.004424
5590.0 0.0038264
5610.0 0.0035601
5630.0 0.0035068
5650.0 0.0033244
5670.0 0.0031389
5690.0 0.0027771
5710.0 0.0027228
5730.0 0.0025214
5750.0 0.0017363
5770.0 0.0013431
5790.0 0.0015329
5810.0 0.0017189
5830.0 0.0021562
5850.0 0.0025933
5870.0 0.0028702
5890.0 0.0029018
5910.0 0.0028456
5930.0 0.0027098
5950.0 0.0027638
5970.0 0.0031799
5990.0 0.0029489
6010.0 0.002453
6030.0 0.0020666
6050.0 0.0018041
6070.0 0.0018257
6090.0 0.0019859
6110.0 0.0021994
6130.0 0.0022143
6150.0 0.0018897
6170.0 0.0016414
6190.0 0.0018564
6210.0 0.0024957
6230.0 0.003319
6250.0 0.0035965
6270.0 0.0031008
6290.0 0.002614
6310.0 0.0020359
6330.0 0.0015523
6350.0 0.0013976
6370.0 0.0014694
6390.0 0.0017034
6410.0 0.0021124
6430.0 0.0024749
6450.0 0.0028533
6470.0 0.0032357
6490.0 0.0039031
6510.0 0.0043651
6530.0 0.0043049
6550.0 0.0039003
6570.0 0.0032847
6590.0 0.0029762
6610.0 0.0025548
6630.0 0.0023517
6650.0 0.0022324
6670.0 0.0021387
6690.0 0.0018978
6710.0 0.0017387
6730.0 0.0011939
6750.0 0.0012153
6770.0 0.0013779
6790.0 0.0016139
6810.0 0.001428
6830.0 0.0014689
6850.0 0.0013554
6870.0 0.0012402
6890.0 0.0011753
6910.0 0.0012711
6930.0 0.0011916
6950.0 0.0012469
6970.0 0.001311
6990.0 0.0014844
7010.0 0.0014876
7030.0 0.0015358
7050.0 0.0014478
7070.0 0.0013581
7090.0 0.0013733
7110.0 0.00142
7130.0 0.0015413
7150.0 0.0016498
7170.0 0.0018249
7190.0 0.002001
7210.0 0.0019439
7230.0 0.0019952
7250.0 0.0021419
7270.0 0.0023274
7290.0 0.0027771
7310.0 0.0030082
7330.0 0.0029002
7350.0 0.0026208
7370.0 0.0022418
7390.0 0.0021867
7410.0 0.0023593
7430.0 0.0026305
7450.0 0.0028617
7470.0 0.0028069
7490.0 0.0025161
7510.0 0.0029667
7530.0 0.0029076
7550.0 0.002633
7570.0 0.0020235
7590.0 0.0013348
7610.0 0.0011298
7630.0 0.0013121
7650.0 0.0015699
7670.0 0.0020063
7690.0 0.0022098
7710.0 0.0022666
7730.0 0.0023694
7750.0 0.0027067
7770.0 0.002754
7790.0 0.0025275
7810.0 0.0022739
7830.0 0.0023587
7850.0 0.0023261
7870.0 0.00215
7890.0 0.0017895
7910.0 0.0014245
7930.0 0.0013733
7950.0 0.0012503
7970.0 0.0011457
7990.0 0.0011287
8010.0 0.00015537
8030.0 0.00014454
8050.0 0.00015147
8070.0 0.00016834
8090.0 0.00020235
8110.0 0.00019367
8130.0 0.00012329
8150.0 0.00012802
8170.0 8.0599e-05
8190.0 5.7594e-05
8210.0 0.00012311
8230.0 0.00014608
8250.0 7.924e-05
8270.0 6.4488e-05
8290.0 9.6555e-05
8310.0 8.3011e-05
8330.0 5.3161e-05
8350.0 4.0359e-05
8370.0 1.3048e-05
8390.0 4.4682e-05
8410.0 5.0994e-05
8430.0 6.285e-05
8450.0 7.2386e-05
8470.0 0.00011156
8490.0 9.758e-05
8510.0 8.2152e-05
8530.0 5.9555e-05
8550.0 0.00013692
8570.0 0.00019308
8590.0 0.0001557
8610.0 0.00022067
8630.0 0.00025083
8650.0 0.00018526
8670.0 0.00023241
8690.0 0.00030045
8710.0 0.00026119
8730.0 0.00026557
8750.0 0.00021622
8770.0 0.00019636
8790.0 0.00020774
8810.0 0.00021648
8830.0 0.0001362
8850.0 7.2453e-05
8870.0 5.2268e-05
8890.0 8.9229e-05
8910.0 0.00013021
8930.0 0.00016793
8950.0 0.00018041
8970.0 0.00017459
8990.0 0.00013286
9010.0 0.0005661
9030.0 0.00049195
9050.0 0.00049711
9070.0 0.00050392
9090.0 0.00050971
9110.0 0.00051687
9130.0 0.0005222
9150.0 0.00052616
9170.0 0.00053038
9190.0 0.00053488
9210.0 0.00053962
9230.0 0.00054463
9250.0 0.00054968
9270.0 0.00055491
9290.0 0.00056029
9310.0 0.00056567
9330.0 0.00057114
9350.0 0.0005768
9370.0 0.00058251
9390.0 0.00058824
9410.0 0.00059412
9430.0 0.00060019
9450.0 0.00060619
9470.0 0.0006123
9490.0 0.00061859
9510.0 0.00062493
9530.0 0.00063128
9550.0 0.00063786
9570.0 0.00064454
9590.0 0.00065121
9610.0 0.000658
9630.0 0.00066497
9650.0 0.00067198
9670.0 0.00067898
9690.0 0.00068618
9710.0 0.00069349
9730.0 0.00070079
9750.0 0.0007082
9770.0 0.00071585
9790.0 0.00072346
9810.0 0.0007311
9830.0 0.00073891
9850.0 0.00074682
9870.0 0.00075468
9890.0 0.00076267
9910.0 0.00077082
9930.0 0.00077897
9950.0 0.00078713
9970.0 0.00079548
9990.0 0.00080391
10010.0 0.00069989
10030.0 0.00070718
10050.0 0.00071461
10070.0 0.00072214
10090.0 0.00072944
10110.0 0.00073692
10130.0 0.00074442
10150.0 0.00075187
10170.0 0.00075941
10190.0 0.00076709
10210.0 0.00077465
10230.0 0.0007822
10250.0 0.00078988
10270.0 0.00079754
10290.0 0.0008051
10310.0 0.00081276
10330.0 0.00082052
10350.0 0.00082812
10370.0 0.0008357
10390.0 0.00084338
10410.0 0.00085102
10430.0 0.0008585
10450.0 0.00086606
10470.0 0.00087364
10490.0 0.00088109
10510.0 0.00088848
10530.0 0.000896
10550.0 0.0009034
10570.0 0.00091063
10590.0 0.0009179
10610.0 0.00092517
10630.0 0.00093224
10650.0 0.00093926
10670.0 0.00094636
10690.0 0.00095331
10710.0 0.0009601
10730.0 0.00096691
10750.0 0.00097374
10770.0 0.00098026
10790.0 0.00098673
10810.0 0.0009932
10830.0 0.00099946
10850.0 0.0010054
10870.0 0.0010112
10890.0 0.0010164
10910.0 0.0010205
10930.0 0.0010231
10950.0 0.0010234
10970.0 0.0010204
10990.0 0.001014
11010.0 0.00095286
11030.0 0.00093777
11050.0 0.0009193
11070.0 0.00089717
11090.0 0.00087057
11110.0 0.00084303
11130.0 0.00081431
11150.0 0.00078341
11170.0 0.00075158
11190.0 0.00072073
11210.0 0.00068889
11230.0 0.00065627
11250.0 0.00062512
11270.0 0.00059522
11290.0 0.00056529
11310.0 0.00053694
11330.0 0.00051196
11350.0 0.00048836
11370.0 0.00046654
11390.0 0.00044763
11410.0 0.00043106
11430.0 0.00041565
11450.0 0.00040233
11470.0 0.00039077
11490.0 0.00038
11510.0 0.00036961
11530.0 0.00035995
11550.0 0.00035035
11570.0 0.00034013
11590.0 0.00032956
11610.0 0.00031883
11630.0 0.00030716
11650.0 0.0002947
11670.0 0.00028243
11690.0 0.00027
11710.0 0.00025718
11730.0 0.00024477
11750.0 0.00023328
11770.0 0.00022201
11790.0 0.00021144
11810.0 0.00020212
11830.0 0.00019377
11850.0 0.00018607
11870.0 0.0001796
11890.0 0.00017421
11910.0 0.00016945
11930.0 0.00016535
11950.0 0.00016191
11970.0 0.00015884
11990.0 0.00015592
12010.0 0.00015323
12030.0 0.00015063
12050.0 0.00014796
12070.0 0.00014519
12090.0 0.00014251
12110.0 0.00013981
12130.0 0.00013709
12150.0 0.00013459
12170.0 0.00013238
12190.0 0.00013046
12210.0 0.00012909
12230.0 0.00012836
12250.0 0.00012834
12270.0 0.00012918
12290.0 0.00013089
12310.0 0.00013339
12330.0 0.00013693
12350.0 0.00014138
12370.0 0.00014646
12390.0 0.00015234
12410.0 0.00015924
12430.0 0.00016626
12450.0 0.00017353
12470.0 0.00018127
12490.0 0.00018904
12510.0 0.00019633
12530.0 0.00020357
12550.0 0.00021056
12570.0 0.00021673
12590.0 0.00022213
12610.0 0.00022694
12630.0 0.00023076
12650.0 0.00023337
12670.0 0.00023507
12690.0 0.00023572
12710.0 0.00023526
12730.0 0.00023384
12750.0 0.00023134
12770.0 0.00022794
12790.0 0.00022383
12810.0 0.00021894
12830.0 0.00021328
12850.0 0.00020738
12870.0 0.00020114
12890.0 0.0001944
12910.0 0.00018756
12930.0 0.00018082
12950.0 0.00017379
12970.0 0.00016664
12990.0 0.00015989
13010.0 0.00015322
13030.0 0.00014648
13050.0 0.00014001
13070.0 0.00013395
13090.0 0.00012787
13110.0 0.00012198
13130.0 0.00011656
13150.0 0.00011142
13170.0 0.00010638
13190.0 0.00010189
13210.0 9.7939e-05
13230.0 9.4317e-05
13250.0 9.1189e-05
13270.0 8.8711e-05
13290.0 8.6769e-05
13310.0 8.5413e-05
13330.0 8.4764e-05
13350.0 8.4777e-05
13370.0 8.5485e-05
13390.0 8.6931e-05
13410.0 8.8911e-05
13430.0 9.1503e-05
13450.0 9.472e-05
13470.0 9.8303e-05
13490.0 0.00010211
13510.0 0.00010641
13530.0 0.00011078
13550.0 0.00011497
13570.0 0.00011911
13590.0 0.00012316
13610.0 0.00012676
13630.0 0.00012991
13650.0 0.0001328
13670.0 0.0001352
13690.0 0.00013706
13710.0 0.00013851
13730.0 0.00013955
13750.0 0.00014008
13770.0 0.00014022
13790.0 0.00013999
13810.0 0.00013938
13830.0 0.00013848
13850.0 0.00013725
13870.0 0.00013569
13890.0 0.0001339
13910.0 0.00013189
13930.0 0.00012956
13950.0 0.00012701
13970.0 0.0001244
13990.0 0.00012156
14010.0 0.00011855
14030.0 0.00011554
14050.0 0.00011251
14070.0 0.00010931
14090.0 0.00010624
14110.0 0.00010336
14130.0 0.00010056
14150.0 9.7933e-05
14170.0 9.5685e-05
14190.0 9.374e-05
14210.0 9.2088e-05
14230.0 9.0861e-05
14250.0 9.0064e-05
14270.0 8.9671e-05
14290.0 8.9739e-05
14310.0 9.0229e-05
14330.0 9.1118e-05
14350.0 9.2434e-05
14370.0 9.4076e-05
14390.0 9.5947e-05
14410.0 9.8153e-05
14430.0 0.00010058
14450.0 0.00010306
14470.0 0.00010564
14490.0 0.00010839
14510.0 0.00011102
14530.0 0.00011352
14550.0 0.00011602
14570.0 0.00011842
14590.0 0.00012061
14610.0 0.00012273
14630.0 0.00012483
14650.0 0.00012678
14670.0 0.00012867
14690.0 0.00013063
14710.0 0.0001327
14730.0 0.00013476
14750.0 0.00013704
14770.0 0.00013963
14790.0 0.00014243
14810.0 0.00014548
14830.0 0.00014908
14850.0 0.000153
14870.0 0.0001571
14890.0 0.00016152
14910.0 0.00016622
14930.0 0.00017074
14950.0 0.00017497
14970.0 0.00017897
14990.0 0.00018234
15010.0 0.00018492
15030.0 0.00018684
15050.0 0.00018811
15070.0 0.00018875
15090.0 0.00018899
15110.0 0.00018896
15130.0 0.00018874
15150.0 0.00018845
15170.0 0.0001881
15190.0 0.00018772
15210.0 0.00018734
15230.0 0.00018697
15250.0 0.00018658
15270.0 0.0001862
15290.0 0.00018584
15310.0 0.00018547
15330.0 0.00018509
15350.0 0.00018473
15370.0 0.00018438
15390.0 0.000184
15410.0 0.00018364
15430.0 0.00018329
15450.0 0.00018293
15470.0 0.00018257
15490.0 0.00018222
15510.0 0.00018188
15530.0 0.00018152
15550.0 0.00018117
15570.0 0.00018084
15590.0 0.00018049
15610.0 0.00018013
15630.0 0.0001798
15650.0 0.00017946
15670.0 0.00017911
15690.0 0.00017877
15710.0 0.00017845
15730.0 0.00017811
15750.0 0.00017776
15770.0 0.00017744
15790.0 0.0001771
15810.0 0.00017676
15830.0 0.00017642
15850.0 0.0001761
15870.0 0.00017577
15890.0 0.00017543
15910.0 0.00017511
15930.0 0.00017478
15950.0 0.00017444
15970.0 0.00017411
15990.0 0.00017379
16010.0 0.00017346
16030.0 0.00017312
16050.0 0.0001728
16070.0 0.00017248
16090.0 0.00017214
16110.0 0.00017182
16130.0 0.0001715
16150.0 0.00017116
16170.0 0.00017082
16190.0 0.0001705
16210.0 0.00017017
16230.0 0.00016983
16250.0 0.00016951
16270.0 0.00016919
16290.0 0.00016885
16310.0 0.00016851
16330.0 0.00016819
16350.0 0.00016786
16370.0 0.00016751
16390.0 0.00016718
16410.0 0.00016685
16430.0 0.00016651
16450.0 0.00016617
16470.0 0.00016585
16490.0 0.00016551
16510.0 0.00016516
16530.0 0.00016483
16550.0 0.00016449
16570.0 0.00016414
16590.0 0.0001638
16610.0 0.00016347
16630.0 0.00016312
16650.0 0.00016277
16670.0 0.00016243
16690.0 0.00016209
16710.0 0.00016173
16730.0 0.00016138
16750.0 0.00016104
16770.0 0.00016068
16790.0 0.00016032
16810.0 0.00015998
16830.0 0.00015963
16850.0 0.00015926
16870.0 0.00015891
16890.0 0.00015856
16910.0 0.00015819
16930.0 0.00015782
16950.0 0.00015747
16970.0 0.00015711
16990.0 0.00015673
17010.0 0.00015637
17030.0 0.00015601
17050.0 0.00015564
17070.0 0.00015526
17090.0 0.0001549
17110.0 0.00015453
17130.0 0.00015414
17150.0 0.00015376
17170.0 0.0001534
17190.0 0.00015301
17210.0 0.00015263
17230.0 0.00015226
17250.0 0.00015188
17270.0 0.00015148
17290.0 0.0001511
17310.0 0.00015072
17330.0 0.00015032
17350.0 0.00014992
17370.0 0.00014955
17390.0 0.00014916
17410.0 0.00014875
17430.0 0.00014836
17450.0 0.00014798
17470.0 0.00014756
17490.0 0.00014716
17510.0 0.00014677
17530.0 0.00014637
17550.0 0.00014595
17570.0 0.00014556
17590.0 0.00014516
17610.0 0.00014475
17630.0 0.00014433
17650.0 0.00014394
17670.0 0.00014352
17690.0 0.00014309
17710.0 0.00014269
17730.0 0.00014228
17750.0 0.00014186
17770.0 0.00014144
17790.0 0.00014104
17810.0 0.00014061
17830.0 0.00014018
17850.0 0.00013977
17870.0 0.00013935
17890.0 0.00013891
17910.0 0.00013848
17930.0 0.00013807
17950.0 0.00013764
17970.0 0.00013721
17990.0 0.00013679
18010.0 0.00013637
18030.0 0.00013592
18050.0 0.00013549
18070.0 0.00013506
18090.0 0.00013462
18110.0 0.00013418
18130.0 0.00013375
18150.0 0.00013332
18170.0 0.00013288
18190.0 0.00013244
18210.0 0.00013201
18230.0 0.00013156
18250.0 0.00013111
18270.0 0.00013068
18290.0 0.00013024
18310.0 0.00012979
18330.0 0.00012935
18350.0 0.00012892
18370.0 0.00012846
18390.0 0.00012801
18410.0 0.00012757
18430.0 0.00012713
18450.0 0.00012667
18470.0 0.00012622
18490.0 0.00012578
18510.0 0.00012533
18530.0 0.00012487
18550.0 0.00012444
18570.0 0.00012399
18590.0 0.00012352
18610.0 0.00012307
18630.0 0.00012263
18650.0 0.00012217
18670.0 0.00012171
18690.0 0.00012127
18710.0 0.00012081
18730.0 0.00012035
18750.0 0.0001199
18770.0 0.00011946
18790.0 0.00011899
18810.0 0.00011853
18830.0 0.00011808
18850.0 0.00011763
18870.0 0.00011716
18890.0 0.00011671
18910.0 0.00011627
18930.0 0.0001158
18950.0 0.00011534
18970.0 0.00011489
18990.0 0.00011443
19010.0 0.00011396
19030.0 0.00011351
19050.0 0.00011306
19070.0 0.0001126
19090.0 0.00011214
19110.0 0.0001117
19130.0 0.00011123
19150.0 0.00011076
19170.0 0.00011031
19190.0 0.00010986
19210.0 0.00010939
19230.0 0.00010893
19250.0 0.00010849
19270.0 0.00010803
19290.0 0.00010756
19310.0 0.00010712
19330.0 0.00010666
19350.0 0.00010619
19370.0 0.00010573
19390.0 0.00010529
19410.0 0.00010483
19430.0 0.00010436
19450.0 0.00010392
19470.0 0.00010346
19490.0 0.000103
19510.0 0.00010255
19530.0 0.0001021
19550.0 0.00010164
19570.0 0.00010117
19590.0 0.00010073
19610.0 0.00010027
19630.0 9.9811e-05
19650.0 9.936e-05
19670.0 9.8919e-05
19690.0 9.8456e-05
19710.0 9.7997e-05
19730.0 9.7553e-05
19750.0 9.7102e-05
19770.0 9.6634e-05
19790.0 9.6186e-05
19810.0 9.5744e-05
19830.0 9.5284e-05
19850.0 9.4824e-05
19870.0 9.4371e-05
19890.0 9.3886e-05
19910.0 9.3355e-05
19930.0 9.2788e-05
19950.0 9.2141e-05
19970.0 9.1349e-05
19990.0 9.0398e-05
20010.0 8.0596e-05
20030.0 7.9419e-05
20050.0 7.8044e-05
20070.0 7.6557e-05
20090.0 7.4957e-05
20110.0 7.3151e-05
20130.0 7.1323e-05
20150.0 6.9513e-05
20170.0 6.7637e-05
20190.0 6.5736e-05
20210.0 6.394e-05
20230.0 6.2189e-05
20250.0 6.0435e-05
20270.0 5.8807e-05
20290.0 5.7321e-05
20310.0 5.5908e-05
20330.0 5.4587e-05
20350.0 5.349e-05
20370.0 5.2515e-05
20390.0 5.1659e-05
20410.0 5.0966e-05
20430.0 5.043e-05
20450.0 5.0003e-05
20470.0 4.9715e-05
20490.0 4.9557e-05
20510.0 4.9507e-05
20530.0 4.9561e-05
20550.0 4.9707e-05
20570.0 4.9924e-05
20590.0 5.0221e-05
20610.0 5.0582e-05
20630.0 5.098e-05
20650.0 5.1427e-05
20670.0 5.1939e-05
20690.0 5.2461e-05
20710.0 5.3002e-05
20730.0 5.3586e-05
20750.0 5.4195e-05
20770.0 5.4794e-05
20790.0 5.5423e-05
20810.0 5.6089e-05
20830.0 5.675e-05
20850.0 5.7414e-05
20870.0 5.8124e-05
20890.0 5.8847e-05
20910.0 5.9545e-05
20930.0 6.0268e-05
20950.0 6.1016e-05
20970.0 6.1746e-05
20990.0 6.2465e-05
21010.0 6.3221e-05
21030.0 6.3959e-05
21050.0 6.4663e-05
21070.0 6.5366e-05
21090.0 6.6071e-05
21110.0 6.6713e-05
21130.0 6.7316e-05
21150.0 6.79e-05
21170.0 6.8428e-05
21190.0 6.8882e-05
21210.0 6.929e-05
21230.0 6.9628e-05
21250.0 6.9868e-05
21270.0 7.002e-05
21290.0 7.0074e-05
21310.0 7.0015e-05
21330.0 6.9847e-05
21350.0 6.9554e-05
21370.0 6.9127e-05
21390.0 6.8584e-05
21410.0 6.792e-05
21430.0 6.708e-05
21450.0 6.6138e-05
21470.0 6.5112e-05
21490.0 6.3952e-05
21510.0 6.268e-05
21530.0 6.1387e-05
21550.0 6.0034e-05
21570.0 5.859e-05
21590.0 5.717e-05
21610.0 5.5799e-05
21630.0 5.4426e-05
21650.0 5.3084e-05
21670.0 5.1921e-05
21690.0 5.0849e-05
21710.0 4.9882e-05
21730.0 4.909e-05
21750.0 4.8479e-05
21770.0 4.8012e-05
21790.0 4.7742e-05
21810.0 4.7665e-05
21830.0 4.7767e-05
21850.0 4.8061e-05
21870.0 4.852e-05
21890.0 4.9115e-05
21910.0 4.9879e-05
21930.0 5.0775e-05
21950.0 5.1747e-05
21970.0 5.2823e-05
21990.0 5.4032e-05
22010.0 5.524e-05
22030.0 5.6467e-05
22050.0 5.7756e-05
22070.0 5.9052e-05
22090.0 6.0279e-05
22110.0 6.1517e-05
22130.0 6.2752e-05
22150.0 6.3906e-05
22170.0 6.4994e-05
22190.0 6.6072e-05
22210.0 6.7076e-05
22230.0 6.7958e-05
22250.0 6.8789e-05
22270.0 6.9554e-05
22290.0 7.0208e-05
22310.0 7.0768e-05
22330.0 7.1261e-05
22350.0 7.1642e-05
22370.0 7.191e-05
22390.0 7.2076e-05
22410.0 7.2127e-05
22430.0 7.2056e-05
22450.0 7.1868e-05
22470.0 7.1546e-05
22490.0 7.1094e-05
22510.0 7.0531e-05
22530.0 6.9813e-05
22550.0 6.8939e-05
22570.0 6.797e-05
22590.0 6.6878e-05
22610.0 6.5622e-05
22630.0 6.4262e-05
22650.0 6.2858e-05
22670.0 6.1304e-05
22690.0 5.9646e-05
22710.0 5.7974e-05
22730.0 5.6251e-05
22750.0 5.4383e-05
22770.0 5.2557e-05
22790.0 5.0775e-05
22810.0 4.8945e-05
22830.0 4.712e-05
22850.0 4.5411e-05
