#lamb flux
1010.0 1.1752e-05
1030.0 1.2425e-05
1050.0 1.3204e-05
1070.0 1.4082e-05
1090.0 1.508e-05
1110.0 1.6107e-05
1130.0 1.7145e-05
1150.0 1.8236e-05
1170.0 1.9365e-05
1190.0 2.0443e-05
1210.0 2.154e-05
1230.0 2.2679e-05
1250.0 2.3802e-05
1270.0 2.4901e-05
1290.0 2.6067e-05
1310.0 2.724e-05
1330.0 2.8376e-05
1350.0 2.9532e-05
1370.0 3.0733e-05
1390.0 3.1915e-05
1410.0 3.3074e-05
1430.0 3.4292e-05
1450.0 3.5519e-05
1470.0 3.6718e-05
1490.0 3.7939e-05
1510.0 3.9232e-05
1530.0 4.0471e-05
1550.0 4.1703e-05
1570.0 4.2981e-05
1590.0 4.4264e-05
1610.0 4.5501e-05
1630.0 4.6774e-05
1650.0 4.8079e-05
1670.0 4.9344e-05
1690.0 5.0591e-05
1710.0 5.1876e-05
1730.0 5.316e-05
1750.0 5.4362e-05
1770.0 5.5585e-05
1790.0 5.6815e-05
1810.0 5.7989e-05
1830.0 5.9122e-05
1850.0 6.0301e-05
1870.0 6.1424e-05
1890.0 6.248e-05
1910.0 6.3529e-05
1930.0 6.4576e-05
1950.0 6.5537e-05
1970.0 6.6452e-05
1990.0 6.7376e-05
2010.0 6.8248e-05
2030.0 6.9048e-05
2050.0 6.985e-05
2070.0 7.0651e-05
2090.0 7.136e-05
2110.0 7.2041e-05
2130.0 7.2733e-05
2150.0 7.3386e-05
2170.0 7.3979e-05
2190.0 7.4602e-05
2210.0 7.5225e-05
2230.0 7.5805e-05
2250.0 7.6386e-05
2270.0 7.7021e-05
2290.0 7.7639e-05
2310.0 7.8235e-05
2330.0 7.8888e-05
2350.0 7.958e-05
2370.0 8.0266e-05
2390.0 8.1002e-05
2410.0 8.1829e-05
2430.0 8.2676e-05
2450.0 8.3558e-05
2470.0 8.4536e-05
2490.0 8.5633e-05
2510.0 8.686e-05
2530.0 8.8485e-05
2550.0 9.0954e-05
2570.0 9.4775e-05
2590.0 0.00010057
2610.0 0.00010989
2630.0 0.00012329
2650.0 0.0001403
2670.0 0.00016126
2690.0 0.00018569
2710.0 0.00021064
2730.0 0.00023462
2750.0 0.00025804
2770.0 0.00027908
2790.0 0.00029734
2810.0 0.0003142
2830.0 0.00033075
2850.0 0.00034627
2870.0 0.00036193
2890.0 0.00037859
2910.0 0.00039597
2930.0 0.00041357
2950.0 0.00043244
2970.0 0.00045243
2990.0 0.00047272
3010.0 0.0013226
3030.0 0.0013812
3050.0 0.0014398
3070.0 0.0014931
3090.0 0.0015387
3110.0 0.0015645
3130.0 0.0015562
3150.0 0.0014982
3170.0 0.0013586
3190.0 0.0011342
3210.0 0.00082874
3230.0 0.00048493
3250.0 0.00085342
3270.0 0.00045216
3290.0 0.0013073
3310.0 0.00038357
3330.0 0.00037608
3350.0 0.00049016
3370.0 0.00062497
3390.0 0.00077108
3410.0 0.00091713
3430.0 0.0010708
3450.0 0.0012252
3470.0 0.0013668
3490.0 0.0014627
3510.0 0.0018014
3530.0 0.0024102
3550.0 0.0023411
3570.0 0.0018834
3590.0 0.0026518
3610.0 0.0016047
3630.0 0.0027779
3650.0 0.0032616
3670.0 0.0042305
3690.0 0.0039177
3710.0 0.0025418
3730.0 0.0033971
3750.0 0.0034963
3770.0 0.0037154
3790.0 0.003505
3810.0 0.0034492
3830.0 0.0054495
3850.0 0.0065474
3870.0 0.0081412
3890.0 0.0077799
3910.0 0.0068597
3930.0 0.0070175
3950.0 0.0076795
3970.0 0.0089688
3990.0 0.0060225
4010.0 0.0032593
4030.0 0.0055765
4050.0 0.0071202
4070.0 0.00787
4090.0 0.0058627
4110.0 0.0036378
4130.0 0.0057413
4150.0 0.005656
4170.0 0.0055002
4190.0 0.0051458
4210.0 0.0070999
4230.0 0.0049717
4250.0 0.005612
4270.0 0.0055829
4290.0 0.0054017
4310.0 0.0069223
4330.0 0.0073293
4350.0 0.0057856
4370.0 0.0048153
4390.0 0.0060696
4410.0 0.0063126
4430.0 0.0046671
4450.0 0.0044217
4470.0 0.0054258
4490.0 0.0039818
4510.0 0.0053951
4530.0 0.0056556
4550.0 0.0070522
4570.0 0.010199
4590.0 0.0097804
4610.0 0.0068522
4630.0 0.011509
4650.0 0.016157
4670.0 0.01514
4690.0 0.0096665
4710.0 0.010509
4730.0 0.012876
4750.0 0.010966
4770.0 0.0082719
4790.0 0.0054394
4810.0 0.007837
4830.0 0.0092174
4850.0 0.0079248
4870.0 0.0025373
4890.0 0.0087992
4910.0 0.012154
4930.0 0.013152
4950.0 0.01313
4970.0 0.0082579
4990.0 0.0097043
5010.0 0.011669
5030.0 0.012967
5050.0 0.01255
5070.0 0.0088652
5090.0 0.0071511
5110.0 0.0068102
5130.0 0.0062808
5150.0 0.0067816
5170.0 0.0059335
5190.0 0.0072956
5210.0 0.0073597
5230.0 0.0081383
5250.0 0.009942
5270.0 0.0080506
5290.0 0.0081041
5310.0 0.012301
5330.0 0.014278
5350.0 0.011733
5370.0 0.010245
5390.0 0.012036
5410.0 0.014968
5430.0 0.016252
5450.0 0.017141
5470.0 0.016973
5490.0 0.016867
5510.0 0.020126
5530.0 0.020896
5550.0 0.022351
5570.0 0.023761
5590.0 0.02346
5610.0 0.02194
5630.0 0.021247
5650.0 0.021896
5670.0 0.021472
5690.0 0.018171
5710.0 0.0179
5730.0 0.018221
5750.0 0.019539
5770.0 0.016739
5790.0 0.015576
5810.0 0.015816
5830.0 0.016935
5850.0 0.015557
5870.0 0.015725
5890.0 0.018806
5910.0 0.017632
5930.0 0.014257
5950.0 0.012535
5970.0 0.01375
5990.0 0.012595
6010.0 0.011733
6030.0 0.011813
6050.0 0.010876
6070.0 0.0081129
6090.0 0.0074697
6110.0 0.0098841
6130.0 0.01135
6150.0 0.011793
6170.0 0.011326
6190.0 0.01054
6210.0 0.010673
6230.0 0.012987
6250.0 0.011997
6270.0 0.010882
6290.0 0.010005
6310.0 0.0092684
6330.0 0.0087015
6350.0 0.0076491
6370.0 0.0076547
6390.0 0.0090111
6410.0 0.011259
6430.0 0.013142
6450.0 0.012677
6470.0 0.012516
6490.0 0.015641
6510.0 0.018158
6530.0 0.017165
6550.0 0.01628
6570.0 0.016531
6590.0 0.016187
6610.0 0.017421
6630.0 0.016223
6650.0 0.01402
6670.0 0.012765
6690.0 0.012658
6710.0 0.01554
6730.0 0.013941
6750.0 0.01144
6770.0 0.010144
6790.0 0.01075
6810.0 0.012346
6830.0 0.012209
6850.0 0.010919
6870.0 0.011397
6890.0 0.011326
6910.0 0.010647
6930.0 0.01209
6950.0 0.011127
6970.0 0.01025
6990.0 0.010161
7010.0 0.010036
7030.0 0.0096692
7050.0 0.0093671
7070.0 0.010301
7090.0 0.0097138
7110.0 0.0082327
7130.0 0.0068121
7150.0 0.0064918
7170.0 0.0085401
7190.0 0.0091869
7210.0 0.008689
7230.0 0.0090453
7250.0 0.0085345
7270.0 0.0081838
7290.0 0.0090372
7310.0 0.010134
7330.0 0.009947
7350.0 0.0092381
7370.0 0.0085784
7390.0 0.0087084
7410.0 0.010115
7430.0 0.011268
7450.0 0.011919
7470.0 0.011835
7490.0 0.012873
7510.0 0.012646
7530.0 0.011875
7550.0 0.011536
7570.0 0.010069
7590.0 0.0097851
7610.0 0.009448
7630.0 0.0086086
7650.0 0.0092756
7670.0 0.010207
7690.0 0.011098
7710.0 0.01263
7730.0 0.013325
7750.0 0.013877
7770.0 0.014241
7790.0 0.015589
7810.0 0.015847
7830.0 0.014239
7850.0 0.014333
7870.0 0.013747
7890.0 0.014301
7910.0 0.013521
7930.0 0.013554
7950.0 0.011494
7970.0 0.011651
7990.0 0.011189
8010.0 0.011871
8030.0 0.011816
8050.0 0.012539
8070.0 0.012016
8090.0 0.012069
8110.0 0.011871
8130.0 0.011809
8150.0 0.01115
8170.0 0.010908
8190.0 0.010844
8210.0 0.010946
8230.0 0.0095615
8250.0 0.0087293
8270.0 0.0077123
8290.0 0.0065445
8310.0 0.0057793
8330.0 0.0046155
8350.0 0.0037762
8370.0 0.003701
8390.0 0.003596
8410.0 0.0037435
8430.0 0.0047806
8450.0 0.0051831
8470.0 0.0055567
8490.0 0.0064991
8510.0 0.0070722
8530.0 0.0080764
8550.0 0.0095532
8570.0 0.0105
8590.0 0.011063
8610.0 0.012219
8630.0 0.013806
8650.0 0.014123
8670.0 0.014389
8690.0 0.014974
8710.0 0.014703
8730.0 0.014305
8750.0 0.013238
8770.0 0.013255
8790.0 0.013085
8810.0 0.012034
8830.0 0.012089
8850.0 0.011161
8870.0 0.010677
8890.0 0.0095801
8910.0 0.0106
8930.0 0.0095846
8950.0 0.0095631
8970.0 0.0097295
8990.0 0.0094264
9010.0 0.0096846
9030.0 0.0092066
9050.0 0.0091597
9070.0 0.0091603
9090.0 0.009159
9110.0 0.0091632
9130.0 0.0091588
9150.0 0.0091501
9170.0 0.009116
9190.0 0.0090441
9210.0 0.0091829
9230.0 0.0091386
9250.0 0.0091113
9270.0 0.0090871
9290.0 0.0090649
9310.0 0.0090439
9330.0 0.0090231
9350.0 0.009002
9370.0 0.0089804
9390.0 0.008958
9410.0 0.0089347
9430.0 0.0089109
9450.0 0.0088859
9470.0 0.0088603
9490.0 0.0088342
9510.0 0.0088075
9530.0 0.00878
9550.0 0.0087523
9570.0 0.0087242
9590.0 0.0086956
9610.0 0.0086667
9630.0 0.0086377
9650.0 0.0086085
9670.0 0.0085788
9690.0 0.0085494
9710.0 0.0085199
9730.0 0.0084902
9750.0 0.0084605
9770.0 0.0084315
9790.0 0.0084021
9810.0 0.0083728
9830.0 0.008344
9850.0 0.0083156
9870.0 0.0082869
9890.0 0.0082587
9910.0 0.0082313
9930.0 0.0082037
9950.0 0.0081618
9970.0 0.0081399
9990.0 0.0081178
10010.0 0.008095
10030.0 0.0080717
10050.0 0.0080457
10070.0 0.008006
10090.0 0.0079885
10110.0 0.0079707
10130.0 0.0079519
10150.0 0.0079329
10170.0 0.0079132
10190.0 0.0078929
10210.0 0.0078737
10230.0 0.0078552
10250.0 0.0078365
10270.0 0.0078186
10290.0 0.0078019
10310.0 0.0077853
10330.0 0.0077689
10350.0 0.0077539
10370.0 0.0077397
10390.0 0.0077255
10410.0 0.0077121
10430.0 0.0077001
10450.0 0.0076882
10470.0 0.0076766
10490.0 0.0076663
10510.0 0.0076566
10530.0 0.0076468
10550.0 0.007638
10570.0 0.0076303
10590.0 0.0076228
10610.0 0.0076158
10630.0 0.0076099
10650.0 0.0076045
10670.0 0.0075992
10690.0 0.0075947
10710.0 0.0075912
10730.0 0.0075878
10750.0 0.0075848
10770.0 0.0075829
10790.0 0.0075814
10810.0 0.0075801
10830.0 0.0075792
10850.0 0.0075785
10870.0 0.0075763
10890.0 0.0075716
10910.0 0.0075627
10930.0 0.0075456
10950.0 0.0075142
10970.0 0.0074657
10990.0 0.0073985
11010.0 0.007485
11030.0 0.0073612
11050.0 0.0072153
11070.0 0.0070462
11090.0 0.0068498
11110.0 0.0066537
11130.0 0.0064571
11150.0 0.0062554
11170.0 0.0060586
11190.0 0.0058787
11210.0 0.0057043
11230.0 0.005537
11250.0 0.0053877
11270.0 0.0052532
11290.0 0.005126
11310.0 0.0050116
11330.0 0.0049145
11350.0 0.004824
11370.0 0.0047397
11390.0 0.0046642
11410.0 0.0045936
11430.0 0.0045212
11450.0 0.0044505
11470.0 0.0043812
11490.0 0.004308
11510.0 0.0042292
11530.0 0.0041504
11550.0 0.0040689
11570.0 0.0039803
11590.0 0.0038893
11610.0 0.0037989
11630.0 0.0037028
11650.0 0.0036026
11670.0 0.0035067
11690.0 0.0034111
11710.0 0.0033129
11730.0 0.0032176
11750.0 0.0031286
11770.0 0.0030387
11790.0 0.002951
11810.0 0.0028699
11830.0 0.0027926
11850.0 0.0027148
11870.0 0.0026434
11890.0 0.0025778
11910.0 0.0025132
11930.0 0.0024507
11950.0 0.0023935
11970.0 0.0023378
11990.0 0.0022816
12010.0 0.0022289
12030.0 0.002179
12050.0 0.0021291
12070.0 0.0020799
12090.0 0.002036
12110.0 0.0019937
12130.0 0.001953
12150.0 0.0019167
12170.0 0.0018856
12190.0 0.0018572
12210.0 0.0018349
12230.0 0.0018199
12250.0 0.0018114
12270.0 0.0018105
12290.0 0.0018178
12310.0 0.001833
12330.0 0.0018566
12350.0 0.0018883
12370.0 0.0019262
12390.0 0.0019705
12410.0 0.0020224
12430.0 0.0020758
12450.0 0.0021309
12470.0 0.0021885
12490.0 0.0022456
12510.0 0.0022988
12530.0 0.0023508
12550.0 0.0024
12570.0 0.0024436
12590.0 0.0024823
12610.0 0.0025171
12630.0 0.0025467
12650.0 0.0025703
12670.0 0.0025898
12690.0 0.0026049
12710.0 0.0026157
12730.0 0.0026229
12750.0 0.0026263
12770.0 0.0026265
12790.0 0.002624
12810.0 0.0026183
12830.0 0.0026093
12850.0 0.0025983
12870.0 0.0025847
12890.0 0.0025674
12910.0 0.0025474
12930.0 0.0025254
12950.0 0.002499
12970.0 0.0024685
12990.0 0.0024368
13010.0 0.0024021
13030.0 0.0023631
13050.0 0.0023224
13070.0 0.0022818
13090.0 0.0022378
13110.0 0.0021927
13130.0 0.0021494
13150.0 0.0021071
13170.0 0.0020641
13190.0 0.0020255
13210.0 0.0019916
13230.0 0.0019605
13250.0 0.001934
13270.0 0.0019136
13290.0 0.0018978
13310.0 0.0018865
13330.0 0.0018805
13350.0 0.0018787
13370.0 0.0018799
13390.0 0.0018836
13410.0 0.0018886
13430.0 0.0018938
13450.0 0.0018981
13470.0 0.0019005
13490.0 0.0019006
13510.0 0.0018973
13530.0 0.0018906
13550.0 0.0018808
13570.0 0.0018677
13590.0 0.0018513
13610.0 0.0018333
13630.0 0.0018142
13650.0 0.0017934
13670.0 0.0017724
13690.0 0.0017524
13710.0 0.0017329
13730.0 0.0017134
13750.0 0.0016964
13770.0 0.0016807
13790.0 0.0016657
13810.0 0.0016516
13830.0 0.0016389
13850.0 0.001626
13870.0 0.001613
13890.0 0.0016003
13910.0 0.0015874
13930.0 0.0015735
13950.0 0.0015591
13970.0 0.0015451
13990.0 0.0015304
14010.0 0.0015155
14030.0 0.0015013
14050.0 0.0014876
14070.0 0.0014742
14090.0 0.0014621
14110.0 0.0014516
14130.0 0.0014422
14150.0 0.0014343
14170.0 0.0014281
14190.0 0.0014234
14210.0 0.0014202
14230.0 0.0014186
14250.0 0.0014184
14270.0 0.0014197
14290.0 0.0014226
14310.0 0.0014267
14330.0 0.001432
14350.0 0.0014389
14370.0 0.0014466
14390.0 0.0014548
14410.0 0.0014641
14430.0 0.001474
14450.0 0.0014835
14470.0 0.001493
14490.0 0.0015029
14510.0 0.001512
14530.0 0.0015203
14550.0 0.0015289
14570.0 0.0015374
14590.0 0.0015455
14610.0 0.0015542
14630.0 0.0015643
14650.0 0.0015752
14670.0 0.0015873
14690.0 0.0016019
14710.0 0.0016192
14730.0 0.0016374
14750.0 0.0016585
14770.0 0.001683
14790.0 0.0017089
14810.0 0.0017361
14830.0 0.0017673
14850.0 0.0017992
14870.0 0.0018303
14890.0 0.0018619
14910.0 0.0018932
14930.0 0.001921
14950.0 0.0019447
14970.0 0.0019653
14990.0 0.0019803
15010.0 0.0019891
15030.0 0.0019929
15050.0 0.0019922
15070.0 0.0019873
15090.0 0.0019799
15110.0 0.0019706
15130.0 0.0019602
15150.0 0.0019494
15170.0 0.0019382
15190.0 0.0019268
15210.0 0.0019155
15230.0 0.0019041
15250.0 0.0018927
15270.0 0.0018812
15290.0 0.00187
15310.0 0.0018587
15330.0 0.0018474
15350.0 0.0018362
15370.0 0.001825
15390.0 0.0018137
15410.0 0.0018025
15430.0 0.0017915
15450.0 0.0017804
15470.0 0.0017692
15490.0 0.0017583
15510.0 0.0017474
15530.0 0.0017364
15550.0 0.0017256
15570.0 0.0017148
15590.0 0.001704
15610.0 0.0016932
15630.0 0.0016826
15650.0 0.001672
15670.0 0.0016613
15690.0 0.0016508
15710.0 0.0016405
15730.0 0.00163
15750.0 0.0016196
15770.0 0.0016094
15790.0 0.0015992
15810.0 0.0015889
15830.0 0.0015788
15850.0 0.0015689
15870.0 0.0015589
15890.0 0.0015489
15910.0 0.0015392
15930.0 0.0015294
15950.0 0.0015196
15970.0 0.0015099
15990.0 0.0015004
16010.0 0.0014908
16030.0 0.0014813
16050.0 0.001472
16070.0 0.0014627
16090.0 0.0014533
16110.0 0.0014442
16130.0 0.0014352
16150.0 0.001426
16170.0 0.0014169
16190.0 0.0014081
16210.0 0.0013992
16230.0 0.0013904
16250.0 0.0013817
16270.0 0.0013731
16290.0 0.0013645
16310.0 0.0013559
16330.0 0.0013476
16350.0 0.0013392
16370.0 0.0013307
16390.0 0.0013225
16410.0 0.0013144
16430.0 0.0013062
16450.0 0.0012981
16470.0 0.0012902
16490.0 0.0012823
16510.0 0.0012743
16530.0 0.0012666
16550.0 0.0012589
16570.0 0.0012511
16590.0 0.0012435
16610.0 0.001236
16630.0 0.0012285
16650.0 0.0012211
16670.0 0.0012138
16690.0 0.0012065
16710.0 0.0011992
16730.0 0.001192
16750.0 0.0011849
16770.0 0.0011778
16790.0 0.0011708
16810.0 0.0011639
16830.0 0.0011571
16850.0 0.0011502
16870.0 0.0011434
16890.0 0.0011367
16910.0 0.00113
16930.0 0.0011233
16950.0 0.0011168
16970.0 0.0011104
16990.0 0.0011038
17010.0 0.0010975
17030.0 0.0010912
17050.0 0.0010849
17070.0 0.0010786
17090.0 0.0010724
17110.0 0.0010663
17130.0 0.0010601
17150.0 0.0010541
17170.0 0.0010482
17190.0 0.0010422
17210.0 0.0010363
17230.0 0.0010305
17250.0 0.0010247
17270.0 0.0010188
17290.0 0.0010131
17310.0 0.0010075
17330.0 0.0010019
17350.0 0.0009962
17370.0 0.00099077
17390.0 0.00098529
17410.0 0.00097977
17430.0 0.00097439
17450.0 0.00096911
17470.0 0.00096366
17490.0 0.00095833
17510.0 0.00095316
17530.0 0.00094795
17550.0 0.0009427
17570.0 0.00093762
17590.0 0.0009326
17610.0 0.00092748
17630.0 0.00092244
17650.0 0.00091754
17670.0 0.00091259
17690.0 0.00090753
17710.0 0.00090273
17730.0 0.00089794
17750.0 0.00089309
17770.0 0.0008883
17790.0 0.00088368
17810.0 0.00087893
17830.0 0.0008742
17850.0 0.00086961
17870.0 0.00086504
17890.0 0.00086038
17910.0 0.00085581
17930.0 0.00085141
17950.0 0.00084691
17970.0 0.00084242
17990.0 0.00083807
18010.0 0.00083373
18030.0 0.00082926
18050.0 0.00082493
18070.0 0.0008207
18090.0 0.0008164
18110.0 0.00081209
18130.0 0.00080796
18150.0 0.00080381
18170.0 0.00079959
18190.0 0.00079547
18210.0 0.00079145
18230.0 0.00078731
18250.0 0.00078317
18270.0 0.00077922
18290.0 0.00077525
18310.0 0.00077121
18330.0 0.00076729
18350.0 0.00076346
18370.0 0.0007595
18390.0 0.00075558
18410.0 0.00075179
18430.0 0.00074799
18450.0 0.00074407
18470.0 0.00074032
18490.0 0.00073664
18510.0 0.00073287
18530.0 0.00072913
18550.0 0.00072554
18570.0 0.00072187
18590.0 0.00071813
18610.0 0.00071454
18630.0 0.00071099
18650.0 0.00070736
18670.0 0.00070374
18690.0 0.00070031
18710.0 0.0006968
18730.0 0.00069325
18750.0 0.00068981
18770.0 0.00068643
18790.0 0.00068289
18810.0 0.00067944
18830.0 0.00067612
18850.0 0.00067274
18870.0 0.00066931
18890.0 0.00066603
18910.0 0.00066277
18930.0 0.00065941
18950.0 0.00065611
18970.0 0.00065292
18990.0 0.00064966
19010.0 0.0006463
19030.0 0.00064316
19050.0 0.00064001
19070.0 0.00063678
19090.0 0.00063362
19110.0 0.00063058
19130.0 0.0006274
19150.0 0.00062423
19170.0 0.00062118
19190.0 0.00061814
19210.0 0.00061499
19230.0 0.00061193
19250.0 0.00060899
19270.0 0.00060595
19290.0 0.00060291
19310.0 0.00059999
19330.0 0.00059706
19350.0 0.00059399
19370.0 0.00059106
19390.0 0.00058819
19410.0 0.00058525
19430.0 0.00058229
19450.0 0.00057948
19470.0 0.00057664
19490.0 0.00057372
19510.0 0.00057089
19530.0 0.00056813
19550.0 0.00056525
19570.0 0.00056237
19590.0 0.00055965
19610.0 0.00055689
19630.0 0.00055406
19650.0 0.00055133
19670.0 0.00054867
19690.0 0.00054587
19710.0 0.00054312
19730.0 0.00054047
19750.0 0.00053778
19770.0 0.00053499
19790.0 0.00053235
19810.0 0.00052974
19830.0 0.00052704
19850.0 0.00052433
19870.0 0.00052169
19890.0 0.00051883
19910.0 0.00051569
19930.0 0.00051232
19950.0 0.00050846
19970.0 0.0005037
19990.0 0.000498
20010.0 0.00049161
20030.0 0.00048397
20050.0 0.00047521
20070.0 0.00046599
20090.0 0.00045637
20110.0 0.00044584
20130.0 0.00043562
20150.0 0.00042589
20170.0 0.00041619
20190.0 0.00040674
20210.0 0.00039817
20230.0 0.00039013
20250.0 0.00038236
20270.0 0.00037544
20290.0 0.0003694
20310.0 0.00036391
20330.0 0.00035909
20350.0 0.00035541
20370.0 0.00035249
20390.0 0.00035036
20410.0 0.00034918
20430.0 0.00034888
20450.0 0.00034947
20470.0 0.000351
20490.0 0.00035335
20510.0 0.00035654
20530.0 0.00036067
20550.0 0.00036547
20570.0 0.00037073
20590.0 0.00037677
20610.0 0.0003833
20630.0 0.00038995
20650.0 0.00039689
20670.0 0.00040427
20690.0 0.00041128
20710.0 0.00041802
20730.0 0.00042468
20750.0 0.00043097
20770.0 0.00043653
20790.0 0.0004417
20810.0 0.00044644
20830.0 0.0004505
20850.0 0.00045396
20870.0 0.00045706
20890.0 0.00045966
20910.0 0.00046174
20930.0 0.00046352
20950.0 0.00046502
20970.0 0.00046621
20990.0 0.00046714
21010.0 0.00046787
21030.0 0.00046834
21050.0 0.00046856
21070.0 0.00046853
21090.0 0.00046819
21110.0 0.00046758
21130.0 0.0004667
21150.0 0.0004655
21170.0 0.00046403
21190.0 0.00046238
21210.0 0.00046046
21230.0 0.00045831
21250.0 0.00045614
21270.0 0.00045392
21290.0 0.0004516
21310.0 0.00044934
21330.0 0.00044728
21350.0 0.00044527
21370.0 0.00044342
21390.0 0.00044184
21410.0 0.0004405
21430.0 0.00043935
21450.0 0.00043854
21470.0 0.00043804
21490.0 0.0004378
21510.0 0.00043787
21530.0 0.00043822
21550.0 0.00043884
21570.0 0.00043977
21590.0 0.00044095
21610.0 0.00044236
21630.0 0.00044407
21650.0 0.00044609
21670.0 0.00044825
21690.0 0.00045067
21710.0 0.00045342
21730.0 0.00045638
21750.0 0.00045949
21770.0 0.00046305
21790.0 0.00046686
21810.0 0.0004708
21830.0 0.00047503
21850.0 0.00047967
21870.0 0.00048443
21890.0 0.00048926
21910.0 0.00049448
21930.0 0.00049989
21950.0 0.00050525
21970.0 0.00051078
21990.0 0.00051663
22010.0 0.00052222
22030.0 0.00052768
22050.0 0.00053319
22070.0 0.00053853
22090.0 0.00054338
22110.0 0.00054804
22130.0 0.00055242
22150.0 0.00055619
22170.0 0.00055942
22190.0 0.00056216
22210.0 0.0005642
22230.0 0.00056545
22250.0 0.000566
22270.0 0.00056573
22290.0 0.00056466
22310.0 0.00056282
22330.0 0.00056
22350.0 0.00055637
22370.0 0.00055206
22390.0 0.00054688
22410.0 0.00054074
22430.0 0.00053421
22450.0 0.00052713
22470.0 0.00051922
22490.0 0.00051092
22510.0 0.00050253
22530.0 0.00049346
22550.0 0.00048399
22570.0 0.00047478
22590.0 0.00046552
22610.0 0.00045595
22630.0 0.0004466
22650.0 0.00043779
22670.0 0.00042885
22690.0 0.00042008
22710.0 0.00041192
22730.0 0.0004041
22750.0 0.00039622
22770.0 0.00038905
22790.0 0.00038249
22810.0 0.00037614
22830.0 0.00037018
22850.0 0.00036491
22870.0 0.00036001
22890.0 0.0003554
22910.0 0.00035138
22930.0 0.00034791
22950.0 0.00034481
22970.0 0.00034216
22990.0 0.00034017
23010.0 0.00033861
23030.0 0.00033752
23050.0 0.00033696
23070.0 0.00033687
23090.0 0.00033726
23110.0 0.00033812
23130.0 0.00033936
23150.0 0.000341
23170.0 0.00034303
23190.0 0.0003453
23210.0 0.00034773
23230.0 0.00035043
23250.0 0.00035324
23270.0 0.00035602
23290.0 0.00035886
23310.0 0.00036177
23330.0 0.00036445
23350.0 0.00036698
23370.0 0.00036941
23390.0 0.00037163
23410.0 0.00037353
23430.0 0.00037523
23450.0 0.00037669
23470.0 0.00037781
23490.0 0.00037862
23510.0 0.00037916
23530.0 0.00037936
