#lamb flux
1010.0 1.4923e-05
1030.0 1.5677e-05
1050.0 1.6552e-05
1070.0 1.7539e-05
1090.0 1.8661e-05
1110.0 1.9816e-05
1130.0 2.0984e-05
1150.0 2.2213e-05
1170.0 2.3487e-05
1190.0 2.4704e-05
1210.0 2.5945e-05
1230.0 2.7235e-05
1250.0 2.8509e-05
1270.0 2.9757e-05
1290.0 3.1084e-05
1310.0 3.2421e-05
1330.0 3.3717e-05
1350.0 3.504e-05
1370.0 3.6416e-05
1390.0 3.7773e-05
1410.0 3.9106e-05
1430.0 4.0509e-05
1450.0 4.1927e-05
1470.0 4.3315e-05
1490.0 4.473e-05
1510.0 4.6229e-05
1530.0 4.7671e-05
1550.0 4.9106e-05
1570.0 5.0595e-05
1590.0 5.2094e-05
1610.0 5.3539e-05
1630.0 5.5028e-05
1650.0 5.6553e-05
1670.0 5.8033e-05
1690.0 5.9492e-05
1710.0 6.0993e-05
1730.0 6.2492e-05
1750.0 6.3895e-05
1770.0 6.5319e-05
1790.0 6.6748e-05
1810.0 6.8109e-05
1830.0 6.9419e-05
1850.0 7.0778e-05
1870.0 7.2067e-05
1890.0 7.3274e-05
1910.0 7.4468e-05
1930.0 7.5654e-05
1950.0 7.6735e-05
1970.0 7.7759e-05
1990.0 7.8789e-05
2010.0 7.9755e-05
2030.0 8.0634e-05
2050.0 8.1513e-05
2070.0 8.2389e-05
2090.0 8.3159e-05
2110.0 8.3898e-05
2130.0 8.4652e-05
2150.0 8.5365e-05
2170.0 8.6015e-05
2190.0 8.6706e-05
2210.0 8.7408e-05
2230.0 8.8072e-05
2250.0 8.875e-05
2270.0 8.9507e-05
2290.0 9.0261e-05
2310.0 9.1011e-05
2330.0 9.1847e-05
2350.0 9.2753e-05
2370.0 9.3679e-05
2390.0 9.4691e-05
2410.0 9.5839e-05
2430.0 9.7042e-05
2450.0 9.8316e-05
2470.0 9.9729e-05
2490.0 0.0001013
2510.0 0.00010302
2530.0 0.00010517
2550.0 0.00010823
2570.0 0.00011275
2590.0 0.00011945
2610.0 0.00013005
2630.0 0.00014527
2650.0 0.0001647
2670.0 0.00018881
2690.0 0.00021719
2710.0 0.00024665
2730.0 0.00027552
2750.0 0.0003043
2770.0 0.00033087
2790.0 0.00035469
2810.0 0.00037729
2830.0 0.00039993
2850.0 0.0004216
2870.0 0.0004437
2890.0 0.00046727
2910.0 0.00049193
2930.0 0.00051704
2950.0 0.00054394
2970.0 0.00057244
2990.0 0.00060149
3010.0 0.0013799
3030.0 0.0014485
3050.0 0.0015171
3070.0 0.0015802
3090.0 0.0016346
3110.0 0.0016667
3130.0 0.0016603
3150.0 0.0015972
3170.0 0.0014408
3190.0 0.0011868
3210.0 0.00083868
3230.0 0.00044577
3250.0 0.00086863
3270.0 0.00039286
3290.0 0.0013724
3310.0 0.00030195
3330.0 0.00029453
3350.0 0.00042666
3370.0 0.00058101
3390.0 0.00074703
3410.0 0.00091269
3430.0 0.0010867
3450.0 0.0012608
3470.0 0.0014202
3490.0 0.0015258
3510.0 0.0019109
3530.0 0.0026139
3550.0 0.0025469
3570.0 0.0020376
3590.0 0.0029405
3610.0 0.0017315
3630.0 0.0030664
3650.0 0.003597
3670.0 0.0047087
3690.0 0.0043761
3710.0 0.0028359
3730.0 0.00386
3750.0 0.00399
3770.0 0.0041943
3790.0 0.0038681
3810.0 0.0036397
3830.0 0.0056553
3850.0 0.0066028
3870.0 0.008253
3890.0 0.0077879
3910.0 0.006832
3930.0 0.0070911
3950.0 0.0078573
3970.0 0.0096563
3990.0 0.0068456
4010.0 0.0038439
4030.0 0.0061674
4050.0 0.0075285
4070.0 0.0085179
4090.0 0.0067367
4110.0 0.0042104
4130.0 0.0063
4150.0 0.0060128
4170.0 0.0060806
4190.0 0.0058433
4210.0 0.007816
4230.0 0.0053165
4250.0 0.0062025
4270.0 0.0061802
4290.0 0.0060932
4310.0 0.0077396
4330.0 0.0080622
4350.0 0.0061536
4370.0 0.0051158
4390.0 0.0065361
4410.0 0.0068334
4430.0 0.0051059
4450.0 0.0050006
4470.0 0.006053
4490.0 0.0043551
4510.0 0.0056989
4530.0 0.0060335
4550.0 0.0078244
4570.0 0.011492
4590.0 0.010862
4610.0 0.0070111
4630.0 0.012061
4650.0 0.017511
4670.0 0.016208
4690.0 0.0095898
4710.0 0.0106
4730.0 0.013751
4750.0 0.012023
4770.0 0.0090064
4790.0 0.0058867
4810.0 0.0087376
4830.0 0.010232
4850.0 0.0087492
4870.0 0.0023878
4890.0 0.0095507
4910.0 0.013575
4930.0 0.014627
4950.0 0.01432
4970.0 0.008424
4990.0 0.0099343
5010.0 0.012152
5030.0 0.01375
5050.0 0.013617
5070.0 0.0096475
5090.0 0.0077773
5110.0 0.0073216
5130.0 0.0066004
5150.0 0.0073478
5170.0 0.0063523
5190.0 0.0079585
5210.0 0.0079869
5230.0 0.0088132
5250.0 0.01101
5270.0 0.0088781
5290.0 0.0087431
5310.0 0.01344
5330.0 0.015687
5350.0 0.01281
5370.0 0.01101
5390.0 0.012963
5410.0 0.016526
5430.0 0.018176
5450.0 0.019256
5470.0 0.018967
5490.0 0.018456
5510.0 0.021928
5530.0 0.022778
5550.0 0.024562
5570.0 0.026297
5590.0 0.026062
5610.0 0.024431
5630.0 0.02356
5650.0 0.024206
5670.0 0.023842
5690.0 0.020101
5710.0 0.019688
5730.0 0.02022
5750.0 0.022112
5770.0 0.018946
5790.0 0.017369
5810.0 0.017566
5830.0 0.018688
5850.0 0.017048
5870.0 0.017296
5890.0 0.020969
5910.0 0.019786
5930.0 0.015876
5950.0 0.013737
5970.0 0.015079
5990.0 0.013914
6010.0 0.01313
6030.0 0.01344
6050.0 0.012444
6070.0 0.0091179
6090.0 0.0082131
6110.0 0.01101
6130.0 0.012806
6150.0 0.013374
6170.0 0.012789
6190.0 0.011768
6210.0 0.01166
6230.0 0.014095
6250.0 0.013024
6270.0 0.011891
6290.0 0.011001
6310.0 0.010352
6330.0 0.0098004
6350.0 0.008532
6370.0 0.0084689
6390.0 0.010046
6410.0 0.012583
6430.0 0.014545
6450.0 0.01366
6470.0 0.013286
6490.0 0.016838
6510.0 0.019634
6530.0 0.018503
6550.0 0.017583
6570.0 0.017864
6590.0 0.017392
6610.0 0.018925
6630.0 0.017636
6650.0 0.015256
6670.0 0.013763
6690.0 0.0136
6710.0 0.017041
6730.0 0.015408
6750.0 0.012722
6770.0 0.011198
6790.0 0.011829
6810.0 0.013503
6830.0 0.013276
6850.0 0.011888
6870.0 0.012442
6890.0 0.012342
6910.0 0.011611
6930.0 0.013373
6950.0 0.012249
6970.0 0.011244
6990.0 0.011126
7010.0 0.010807
7030.0 0.010322
7050.0 0.010066
7070.0 0.011203
7090.0 0.010646
7110.0 0.0090541
7130.0 0.0073059
7150.0 0.0067829
7170.0 0.0091612
7190.0 0.0099584
7210.0 0.0094363
7230.0 0.0097644
7250.0 0.0090378
7270.0 0.0085685
7290.0 0.009581
7310.0 0.01088
7330.0 0.010724
7350.0 0.0099802
7370.0 0.009331
7390.0 0.0095871
7410.0 0.011208
7430.0 0.012374
7450.0 0.013053
7470.0 0.012779
7490.0 0.013583
7510.0 0.013236
7530.0 0.012834
7550.0 0.012681
7570.0 0.011141
7590.0 0.010973
7610.0 0.010595
7630.0 0.0096248
7650.0 0.010414
7670.0 0.011395
7690.0 0.012371
7710.0 0.014003
7730.0 0.014839
7750.0 0.015473
7770.0 0.015688
7790.0 0.017239
7810.0 0.017647
7830.0 0.015935
7850.0 0.016052
7870.0 0.015334
7890.0 0.01609
7910.0 0.01524
7930.0 0.015358
7950.0 0.013184
7970.0 0.013454
7990.0 0.01287
8010.0 0.013348
8030.0 0.013278
8050.0 0.014045
8070.0 0.013463
8090.0 0.013515
8110.0 0.013261
8130.0 0.013238
8150.0 0.012561
8170.0 0.012255
8190.0 0.012148
8210.0 0.012253
8230.0 0.010732
8250.0 0.0097948
8270.0 0.0086395
8290.0 0.0072944
8310.0 0.0064083
8330.0 0.0051355
8350.0 0.0042419
8370.0 0.0042239
8390.0 0.0041479
8410.0 0.0043245
8430.0 0.0054564
8450.0 0.0058876
8470.0 0.0062814
8490.0 0.0073124
8510.0 0.0079557
8530.0 0.0091162
8550.0 0.01078
8570.0 0.011884
8590.0 0.012577
8610.0 0.013824
8630.0 0.015489
8650.0 0.015803
8670.0 0.016057
8690.0 0.016721
8710.0 0.016446
8730.0 0.016084
8750.0 0.014977
8770.0 0.014998
8790.0 0.014809
8810.0 0.013627
8830.0 0.013691
8850.0 0.012726
8870.0 0.012201
8890.0 0.010995
8910.0 0.012045
8930.0 0.010916
8950.0 0.010835
8970.0 0.010971
8990.0 0.010612
9010.0 0.010885
9030.0 0.010374
9050.0 0.01032
9070.0 0.010316
9090.0 0.01031
9110.0 0.01031
9130.0 0.0103
9150.0 0.010286
9170.0 0.010245
9190.0 0.01016
9210.0 0.010306
9230.0 0.010253
9250.0 0.010219
9270.0 0.010188
9290.0 0.010158
9310.0 0.01013
9330.0 0.010102
9350.0 0.010073
9370.0 0.010044
9390.0 0.010014
9410.0 0.0099825
9430.0 0.0099504
9450.0 0.0099171
9470.0 0.0098831
9490.0 0.0098485
9510.0 0.0098132
9530.0 0.0097771
9550.0 0.0097405
9570.0 0.0097033
9590.0 0.0096657
9610.0 0.0096277
9630.0 0.0095894
9650.0 0.0095509
9670.0 0.0095119
9690.0 0.009473
9710.0 0.009434
9730.0 0.0093948
9750.0 0.0093556
9770.0 0.0093169
9790.0 0.0092779
9810.0 0.009239
9830.0 0.0092006
9850.0 0.0091624
9870.0 0.0091242
9890.0 0.0090864
9910.0 0.0090492
9930.0 0.009012
9950.0 0.0089565
9970.0 0.0089262
9990.0 0.0088955
10010.0 0.0088642
10030.0 0.008832
10050.0 0.0087969
10070.0 0.008749
10090.0 0.0087222
10110.0 0.0086947
10130.0 0.0086666
10150.0 0.0086385
10170.0 0.0086097
10190.0 0.0085803
10210.0 0.0085522
10230.0 0.0085251
10250.0 0.0084976
10270.0 0.0084711
10290.0 0.0084461
10310.0 0.0084211
10330.0 0.0083962
10350.0 0.0083731
10370.0 0.0083509
10390.0 0.0083286
10410.0 0.0083073
10430.0 0.0082877
10450.0 0.0082682
10470.0 0.008249
10490.0 0.0082313
10510.0 0.0082145
10530.0 0.0081973
10550.0 0.0081815
10570.0 0.008167
10590.0 0.0081528
10610.0 0.008139
10630.0 0.0081267
10650.0 0.008115
10670.0 0.0081033
10690.0 0.0080927
10710.0 0.0080833
10730.0 0.008074
10750.0 0.008065
10770.0 0.0080577
10790.0 0.0080508
10810.0 0.0080441
10830.0 0.008038
10850.0 0.0080324
10870.0 0.0080251
10890.0 0.0080156
10910.0 0.0080022
10930.0 0.0079807
10950.0 0.0079451
10970.0 0.0078929
10990.0 0.0078225
11010.0 0.0078551
11030.0 0.0077322
11050.0 0.0075874
11070.0 0.0074196
11090.0 0.0072248
11110.0 0.00703
11130.0 0.0068345
11150.0 0.0066333
11170.0 0.0064364
11190.0 0.0062554
11210.0 0.0060787
11230.0 0.005908
11250.0 0.0057542
11270.0 0.0056142
11290.0 0.0054805
11310.0 0.0053588
11330.0 0.0052547
11350.0 0.0051571
11370.0 0.0050659
11390.0 0.0049843
11410.0 0.0049087
11430.0 0.0048319
11450.0 0.0047581
11470.0 0.0046868
11490.0 0.0046125
11510.0 0.0045332
11530.0 0.0044545
11550.0 0.0043733
11570.0 0.0042847
11590.0 0.0041934
11610.0 0.0041021
11630.0 0.0040043
11650.0 0.0039012
11670.0 0.0038017
11690.0 0.0037016
11710.0 0.0035978
11730.0 0.0034964
11750.0 0.0034012
11770.0 0.0033045
11790.0 0.0032098
11810.0 0.0031223
11830.0 0.0030389
11850.0 0.0029552
11870.0 0.0028787
11890.0 0.0028091
11910.0 0.0027409
11930.0 0.0026756
11950.0 0.0026164
11970.0 0.0025594
11990.0 0.0025022
12010.0 0.0024491
12030.0 0.0023993
12050.0 0.0023496
12070.0 0.0023005
12090.0 0.0022571
12110.0 0.0022151
12130.0 0.0021744
12150.0 0.0021381
12170.0 0.0021069
12190.0 0.0020778
12210.0 0.0020547
12230.0 0.0020389
12250.0 0.0020296
12270.0 0.0020276
12290.0 0.0020343
12310.0 0.0020491
12330.0 0.0020726
12350.0 0.0021049
12370.0 0.0021439
12390.0 0.0021902
12410.0 0.0022448
12430.0 0.0023016
12450.0 0.0023609
12470.0 0.0024236
12490.0 0.0024863
12510.0 0.0025456
12530.0 0.0026042
12550.0 0.0026604
12570.0 0.002711
12590.0 0.0027567
12610.0 0.0027987
12630.0 0.0028352
12650.0 0.0028655
12670.0 0.0028914
12690.0 0.0029128
12710.0 0.0029294
12730.0 0.0029419
12750.0 0.0029504
12770.0 0.0029552
12790.0 0.0029569
12810.0 0.002955
12830.0 0.0029493
12850.0 0.0029413
12870.0 0.0029303
12890.0 0.0029152
12910.0 0.0028971
12930.0 0.0028767
12950.0 0.0028517
12970.0 0.0028222
12990.0 0.0027913
13010.0 0.0027571
13030.0 0.0027183
13050.0 0.0026775
13070.0 0.0026365
13090.0 0.0025916
13110.0 0.0025451
13130.0 0.0025002
13150.0 0.0024558
13170.0 0.0024102
13190.0 0.0023689
13210.0 0.0023324
13230.0 0.0022984
13250.0 0.0022691
13270.0 0.0022463
13290.0 0.0022285
13310.0 0.0022155
13330.0 0.0022084
13350.0 0.0022061
13370.0 0.0022074
13390.0 0.0022117
13410.0 0.0022176
13430.0 0.0022238
13450.0 0.0022292
13470.0 0.0022326
13490.0 0.0022334
13510.0 0.0022301
13530.0 0.0022227
13550.0 0.0022117
13570.0 0.0021966
13590.0 0.0021771
13610.0 0.0021555
13630.0 0.0021323
13650.0 0.0021066
13670.0 0.0020803
13690.0 0.002055
13710.0 0.0020299
13730.0 0.0020046
13750.0 0.0019823
13770.0 0.0019615
13790.0 0.0019413
13810.0 0.0019226
13830.0 0.0019056
13850.0 0.0018888
13870.0 0.0018721
13890.0 0.001856
13910.0 0.0018401
13930.0 0.0018232
13950.0 0.0018062
13970.0 0.0017898
13990.0 0.0017728
14010.0 0.0017556
14030.0 0.0017394
14050.0 0.0017239
14070.0 0.0017085
14090.0 0.0016948
14110.0 0.0016827
14130.0 0.0016719
14150.0 0.0016627
14170.0 0.0016555
14190.0 0.00165
14210.0 0.0016461
14230.0 0.001644
14250.0 0.0016435
14270.0 0.0016448
14290.0 0.0016479
14310.0 0.0016522
14330.0 0.0016579
14350.0 0.0016653
14370.0 0.0016736
14390.0 0.0016823
14410.0 0.0016922
14430.0 0.0017025
14450.0 0.0017123
14470.0 0.0017219
14490.0 0.0017318
14510.0 0.0017406
14530.0 0.0017484
14550.0 0.0017561
14570.0 0.0017636
14590.0 0.0017705
14610.0 0.0017778
14630.0 0.0017863
14650.0 0.0017954
14670.0 0.0018058
14690.0 0.0018186
14710.0 0.0018342
14730.0 0.001851
14750.0 0.0018709
14770.0 0.0018944
14790.0 0.0019199
14810.0 0.0019469
14830.0 0.0019786
14850.0 0.0020115
14870.0 0.0020441
14890.0 0.0020776
14910.0 0.0021114
14930.0 0.0021416
14950.0 0.0021677
14970.0 0.0021906
14990.0 0.0022073
15010.0 0.0022171
15030.0 0.0022213
15050.0 0.0022204
15070.0 0.0022146
15090.0 0.0022058
15110.0 0.0021949
15130.0 0.0021827
15150.0 0.00217
15170.0 0.0021568
15190.0 0.0021434
15210.0 0.00213
15230.0 0.0021167
15250.0 0.0021032
15270.0 0.0020897
15290.0 0.0020765
15310.0 0.0020632
15330.0 0.0020498
15350.0 0.0020366
15370.0 0.0020234
15390.0 0.00201
15410.0 0.0019968
15430.0 0.0019838
15450.0 0.0019707
15470.0 0.0019575
15490.0 0.0019446
15510.0 0.0019317
15530.0 0.0019187
15550.0 0.0019058
15570.0 0.0018932
15590.0 0.0018803
15610.0 0.0018675
15630.0 0.001855
15650.0 0.0018425
15670.0 0.0018299
15690.0 0.0018175
15710.0 0.0018052
15730.0 0.0017929
15750.0 0.0017806
15770.0 0.0017685
15790.0 0.0017564
15810.0 0.0017443
15830.0 0.0017323
15850.0 0.0017205
15870.0 0.0017087
15890.0 0.001697
15910.0 0.0016854
15930.0 0.0016739
15950.0 0.0016623
15970.0 0.0016509
15990.0 0.0016397
16010.0 0.0016284
16030.0 0.0016171
16050.0 0.0016062
16070.0 0.0015952
16090.0 0.0015842
16110.0 0.0015734
16130.0 0.0015628
16150.0 0.001552
16170.0 0.0015414
16190.0 0.001531
16210.0 0.0015206
16230.0 0.0015102
16250.0 0.0015
16270.0 0.00149
16290.0 0.0014798
16310.0 0.0014698
16330.0 0.00146
16350.0 0.0014502
16370.0 0.0014403
16390.0 0.0014308
16410.0 0.0014213
16430.0 0.0014117
16450.0 0.0014023
16470.0 0.0013931
16490.0 0.0013839
16510.0 0.0013747
16530.0 0.0013657
16550.0 0.0013567
16570.0 0.0013477
16590.0 0.0013389
16610.0 0.0013303
16630.0 0.0013216
16650.0 0.001313
16670.0 0.0013046
16690.0 0.0012962
16710.0 0.0012877
16730.0 0.0012795
16750.0 0.0012714
16770.0 0.0012632
16790.0 0.0012551
16810.0 0.0012473
16830.0 0.0012394
16850.0 0.0012316
16870.0 0.0012239
16890.0 0.0012163
16910.0 0.0012086
16930.0 0.001201
16950.0 0.0011937
16970.0 0.0011863
16990.0 0.001179
17010.0 0.0011718
17030.0 0.0011647
17050.0 0.0011576
17070.0 0.0011505
17090.0 0.0011436
17110.0 0.0011367
17130.0 0.0011298
17150.0 0.001123
17170.0 0.0011164
17190.0 0.0011098
17210.0 0.0011032
17230.0 0.0010968
17250.0 0.0010903
17270.0 0.0010838
17290.0 0.0010775
17310.0 0.0010713
17330.0 0.0010651
17350.0 0.0010589
17370.0 0.0010529
17390.0 0.0010469
17410.0 0.0010408
17430.0 0.001035
17450.0 0.0010292
17470.0 0.0010233
17490.0 0.0010175
17510.0 0.0010119
17530.0 0.0010062
17550.0 0.0010005
17570.0 0.00099505
17590.0 0.00098963
17610.0 0.00098413
17630.0 0.00097873
17650.0 0.00097346
17670.0 0.00096816
17690.0 0.00096279
17710.0 0.00095766
17730.0 0.00095257
17750.0 0.00094741
17770.0 0.00094235
17790.0 0.00093745
17810.0 0.00093244
17830.0 0.00092746
17850.0 0.00092263
17870.0 0.00091783
17890.0 0.00091296
17910.0 0.00090818
17930.0 0.00090358
17950.0 0.0008989
17970.0 0.00089423
17990.0 0.00088971
18010.0 0.00088522
18030.0 0.0008806
18050.0 0.00087614
18070.0 0.00087178
18090.0 0.00086737
18110.0 0.00086295
18130.0 0.00085871
18150.0 0.00085448
18170.0 0.00085018
18190.0 0.00084598
18210.0 0.00084189
18230.0 0.0008377
18250.0 0.00083352
18270.0 0.00082952
18290.0 0.00082552
18310.0 0.00082146
18330.0 0.00081751
18350.0 0.00081367
18370.0 0.00080971
18390.0 0.0008058
18410.0 0.00080202
18430.0 0.00079823
18450.0 0.00079435
18470.0 0.00079063
18490.0 0.00078698
18510.0 0.00078326
18530.0 0.00077958
18550.0 0.00077603
18570.0 0.00077243
18590.0 0.00076877
18610.0 0.00076525
18630.0 0.00076178
18650.0 0.00075824
18670.0 0.00075472
18690.0 0.00075137
18710.0 0.00074797
18730.0 0.00074453
18750.0 0.0007412
18770.0 0.00073794
18790.0 0.00073452
18810.0 0.0007312
18830.0 0.00072801
18850.0 0.00072477
18870.0 0.00072148
18890.0 0.00071834
18910.0 0.00071523
18930.0 0.00071202
18950.0 0.00070888
18970.0 0.00070585
18990.0 0.00070275
19010.0 0.00069957
19030.0 0.0006966
19050.0 0.00069362
19070.0 0.00069058
19090.0 0.0006876
19110.0 0.00068474
19130.0 0.00068175
19150.0 0.00067877
19170.0 0.00067591
19190.0 0.00067306
19210.0 0.00067012
19230.0 0.00066726
19250.0 0.00066452
19270.0 0.0006617
19290.0 0.00065887
19310.0 0.00065615
19330.0 0.00065344
19350.0 0.00065059
19370.0 0.00064787
19390.0 0.00064522
19410.0 0.0006425
19430.0 0.00063977
19450.0 0.00063719
19470.0 0.00063457
19490.0 0.00063189
19510.0 0.00062929
19530.0 0.00062676
19550.0 0.00062411
19570.0 0.00062147
19590.0 0.00061898
19610.0 0.00061646
19630.0 0.00061387
19650.0 0.00061138
19670.0 0.00060896
19690.0 0.00060641
19710.0 0.0006039
19730.0 0.00060149
19750.0 0.00059905
19770.0 0.00059651
19790.0 0.00059411
19810.0 0.00059175
19830.0 0.0005893
19850.0 0.00058684
19870.0 0.00058444
19890.0 0.00058183
19910.0 0.00057893
19930.0 0.00057578
19950.0 0.00057213
19970.0 0.00056754
19990.0 0.00056196
20010.0 0.00055562
20030.0 0.00054795
20050.0 0.00053905
20070.0 0.00052958
20090.0 0.00051959
20110.0 0.00050853
20130.0 0.00049765
20150.0 0.00048718
20170.0 0.0004766
20190.0 0.00046615
20210.0 0.00045656
20230.0 0.00044743
20250.0 0.00043849
20270.0 0.00043043
20290.0 0.00042327
20310.0 0.00041668
20330.0 0.00041076
20350.0 0.00040615
20370.0 0.00040236
20390.0 0.00039944
20410.0 0.0003976
20430.0 0.00039678
20450.0 0.00039691
20470.0 0.00039812
20490.0 0.00040026
20510.0 0.00040333
20530.0 0.00040742
20550.0 0.00041227
20570.0 0.00041764
20590.0 0.00042384
20610.0 0.00043058
20630.0 0.00043746
20650.0 0.00044465
20670.0 0.0004523
20690.0 0.00045959
20710.0 0.00046659
20730.0 0.00047351
20750.0 0.00048003
20770.0 0.00048578
20790.0 0.0004911
20810.0 0.00049593
20830.0 0.0005
20850.0 0.00050341
20870.0 0.00050634
20890.0 0.00050867
20910.0 0.0005104
20930.0 0.0005117
20950.0 0.00051259
20970.0 0.00051309
20990.0 0.00051326
21010.0 0.00051311
21030.0 0.00051265
21050.0 0.00051194
21070.0 0.00051093
21090.0 0.00050959
21110.0 0.00050805
21130.0 0.0005063
21150.0 0.00050425
21170.0 0.00050201
21190.0 0.00049971
21210.0 0.0004972
21230.0 0.00049457
21250.0 0.00049204
21270.0 0.00048957
21290.0 0.00048711
21310.0 0.00048483
21330.0 0.00048287
21350.0 0.00048107
21370.0 0.00047954
21390.0 0.00047839
21410.0 0.00047757
21430.0 0.00047706
21450.0 0.00047696
21470.0 0.00047723
21490.0 0.00047784
21510.0 0.00047883
21530.0 0.0004801
21550.0 0.00048168
21570.0 0.00048362
21590.0 0.00048581
21610.0 0.00048819
21630.0 0.00049089
21650.0 0.00049391
21670.0 0.00049696
21690.0 0.00050026
21710.0 0.00050388
21730.0 0.00050763
21750.0 0.00051147
21770.0 0.00051574
21790.0 0.00052021
21810.0 0.00052473
21830.0 0.00052951
21850.0 0.00053465
21870.0 0.00053986
21890.0 0.00054509
21910.0 0.00055068
21930.0 0.00055641
21950.0 0.00056205
21970.0 0.00056783
21990.0 0.0005739
22010.0 0.00057965
22030.0 0.00058524
22050.0 0.00059085
22070.0 0.00059622
22090.0 0.00060108
22110.0 0.0006057
22130.0 0.00060998
22150.0 0.00061362
22170.0 0.00061665
22190.0 0.00061915
22210.0 0.00062088
22230.0 0.00062179
22250.0 0.00062194
22270.0 0.00062122
22290.0 0.00061968
22310.0 0.00061733
22330.0 0.00061395
22350.0 0.00060974
22370.0 0.00060485
22390.0 0.00059906
22410.0 0.00059228
22430.0 0.00058515
22450.0 0.00057748
22470.0 0.00056897
22490.0 0.0005601
22510.0 0.00055118
22530.0 0.00054159
22550.0 0.00053162
22570.0 0.00052198
22590.0 0.00051232
22610.0 0.00050239
22630.0 0.00049272
22650.0 0.00048366
22670.0 0.00047449
22690.0 0.00046554
22710.0 0.00045724
22730.0 0.00044932
22750.0 0.00044136
22770.0 0.00043415
22790.0 0.00042756
22810.0 0.0004212
22830.0 0.00041523
22850.0 0.00040995
22870.0 0.00040503
22890.0 0.00040038
22910.0 0.00039631
22930.0 0.00039275
22950.0 0.00038952
22970.0 0.00038668
22990.0 0.00038448
23010.0 0.00038266
23030.0 0.00038125
23050.0 0.00038032
23070.0 0.00037983
23090.0 0.00037974
23110.0 0.00038008
23130.0 0.00038078
23150.0 0.00038183
23170.0 0.00038323
23190.0 0.00038487
23210.0 0.00038667
23230.0 0.00038872
23250.0 0.00039089
23270.0 0.00039307
23290.0 0.00039533
23310.0 0.00039769
23330.0 0.00039989
23350.0 0.00040201
23370.0 0.00040409
23390.0 0.00040605
23410.0 0.00040777
23430.0 0.00040937
23450.0 0.00041081
23470.0 0.000412
23490.0 0.00041295
23510.0 0.00041371
23530.0 0.0004142
23550.0 0.00041444
23570.0 0.00041445
23590.0 0.00041423
