#lamb flux
1010.0 3.4733e-07
1030.0 3.8783e-07
1050.0 4.3442e-07
1070.0 4.8687e-07
1090.0 5.4644e-07
1110.0 6.0754e-07
1130.0 6.6904e-07
1150.0 7.3347e-07
1170.0 7.9993e-07
1190.0 8.6295e-07
1210.0 9.2682e-07
1230.0 9.9283e-07
1250.0 1.0575e-06
1270.0 1.1203e-06
1290.0 1.1867e-06
1310.0 1.253e-06
1330.0 1.3166e-06
1350.0 1.381e-06
1370.0 1.4474e-06
1390.0 1.5122e-06
1410.0 1.575e-06
1430.0 1.6407e-06
1450.0 1.7064e-06
1470.0 1.7699e-06
1490.0 1.8341e-06
1510.0 1.9018e-06
1530.0 1.9661e-06
1550.0 2.0294e-06
1570.0 2.0949e-06
1590.0 2.1604e-06
1610.0 2.223e-06
1630.0 2.2875e-06
1650.0 2.3536e-06
1670.0 2.4175e-06
1690.0 2.4806e-06
1710.0 2.546e-06
1730.0 2.6116e-06
1750.0 2.6732e-06
1770.0 2.7365e-06
1790.0 2.801e-06
1810.0 2.8631e-06
1830.0 2.9239e-06
1850.0 2.9883e-06
1870.0 3.0507e-06
1890.0 3.1106e-06
1910.0 3.1714e-06
1930.0 3.2332e-06
1950.0 3.2916e-06
1970.0 3.3487e-06
1990.0 3.4076e-06
2010.0 3.4646e-06
2030.0 3.5187e-06
2050.0 3.5738e-06
2070.0 3.6295e-06
2090.0 3.6805e-06
2110.0 3.7302e-06
2130.0 3.7806e-06
2150.0 3.8284e-06
2170.0 3.8721e-06
2190.0 3.9166e-06
2210.0 3.9598e-06
2230.0 3.9988e-06
2250.0 4.0358e-06
2270.0 4.0734e-06
2290.0 4.107e-06
2310.0 4.1362e-06
2330.0 4.1649e-06
2350.0 4.1919e-06
2370.0 4.2144e-06
2390.0 4.2355e-06
2410.0 4.258e-06
2430.0 4.2783e-06
2450.0 4.2981e-06
2470.0 4.3227e-06
2490.0 4.3553e-06
2510.0 4.3956e-06
2530.0 4.4609e-06
2550.0 4.5767e-06
2570.0 4.7659e-06
2590.0 5.057e-06
2610.0 5.5293e-06
2630.0 6.1938e-06
2650.0 7.0049e-06
2670.0 7.9642e-06
2690.0 9.024e-06
2710.0 1.0023e-05
2730.0 1.0888e-05
2750.0 1.1634e-05
2770.0 1.2184e-05
2790.0 1.2541e-05
2810.0 1.2771e-05
2830.0 1.2918e-05
2850.0 1.2984e-05
2870.0 1.3015e-05
2890.0 1.3038e-05
2910.0 1.3053e-05
2930.0 1.3055e-05
2950.0 1.3063e-05
2970.0 1.3077e-05
2990.0 1.3083e-05
3010.0 0.00020267
3030.0 0.0002025
3050.0 0.0002023
3070.0 0.00020185
3090.0 0.00020131
3110.0 0.00020041
3130.0 0.00019887
3150.0 0.00019656
3170.0 0.00019326
3190.0 0.00018905
3210.0 0.00018434
3230.0 0.00017961
3250.0 0.00017663
3270.0 0.00017416
3290.0 0.0001753
3310.0 0.00017633
3330.0 0.0001808
3350.0 0.00018718
3370.0 0.00019551
3390.0 0.00020553
3410.0 0.00021614
3430.0 0.00022786
3450.0 0.00024106
3470.0 0.0002551
3490.0 0.00026958
3510.0 0.00028581
3530.0 0.00030308
3550.0 0.0003193
3570.0 0.00033546
3590.0 0.00035463
3610.0 0.00037178
3630.0 0.00039221
3650.0 0.00041221
3670.0 0.00043137
3690.0 0.00044504
3710.0 0.00045261
3730.0 0.000457
3750.0 0.00045574
3770.0 0.00041633
3790.0 0.00037537
3810.0 0.00034906
3830.0 0.00030262
3850.0 0.0002323
3870.0 0.00020341
3890.0 0.00030482
3910.0 0.00045308
3930.0 0.00054955
3950.0 0.00056641
3970.0 0.00055933
3990.0 0.00062382
4010.0 0.00074427
4030.0 0.00077797
4050.0 0.00072017
4070.0 0.00062762
4090.0 0.00057706
4110.0 0.00067546
4130.0 0.00070741
4150.0 0.00067705
4170.0 0.00069436
4190.0 0.0007065
4210.0 0.00070749
4230.0 0.00076032
4250.0 0.00082659
4270.0 0.00083762
4290.0 0.00084322
4310.0 0.0008824
4330.0 0.0009724
4350.0 0.0011052
4370.0 0.0012454
4390.0 0.0012026
4410.0 0.001015
4430.0 0.00085248
4450.0 0.00072022
4470.0 0.00070473
4490.0 0.00076715
4510.0 0.0008518
4530.0 0.00092862
4550.0 0.0010682
4570.0 0.0012841
4590.0 0.0015792
4610.0 0.0019935
4630.0 0.0023828
4650.0 0.0024604
4670.0 0.002438
4690.0 0.0025915
4710.0 0.0026737
4730.0 0.0022647
4750.0 0.0016652
4770.0 0.0013668
4790.0 0.001296
4810.0 0.0012128
4830.0 0.0011658
4850.0 0.0013457
4870.0 0.0016944
4890.0 0.0018968
4910.0 0.0016463
4930.0 0.0014989
4950.0 0.0017033
4970.0 0.002248
4990.0 0.002833
5010.0 0.0029349
5030.0 0.0024233
5050.0 0.0016246
5070.0 0.001139
5090.0 0.0010056
5110.0 0.001042
5130.0 0.0011188
5150.0 0.0011701
5170.0 0.001167
5190.0 0.0011489
5210.0 0.0011191
5230.0 0.0011455
5250.0 0.0012246
5270.0 0.001429
5290.0 0.0016515
5310.0 0.0017963
5330.0 0.0018495
5350.0 0.0018943
5370.0 0.0020634
5390.0 0.002178
5410.0 0.0020947
5430.0 0.0018468
5450.0 0.0017431
5470.0 0.0019921
5490.0 0.0025458
5510.0 0.0031908
5530.0 0.0034946
5550.0 0.0034218
5570.0 0.0031465
5590.0 0.0028512
5610.0 0.0026497
5630.0 0.0025484
5650.0 0.0026134
5670.0 0.0025624
5690.0 0.0024166
5710.0 0.0022836
5730.0 0.0020383
5750.0 0.0015532
5770.0 0.0013692
5790.0 0.0015215
5810.0 0.0018179
5830.0 0.002033
5850.0 0.0021736
5870.0 0.0022096
5890.0 0.0021189
5910.0 0.0020317
5930.0 0.0020496
5950.0 0.0021568
5970.0 0.0022411
5990.0 0.0021094
6010.0 0.0017826
6030.0 0.0014802
6050.0 0.001303
6070.0 0.0013055
6090.0 0.0014582
6110.0 0.0015655
6130.0 0.0014988
6150.0 0.0014264
6170.0 0.0015879
6190.0 0.0019047
6210.0 0.0022723
6230.0 0.0025384
6250.0 0.0025147
6270.0 0.00226
6290.0 0.0018733
6310.0 0.0014981
6330.0 0.0012124
6350.0 0.0011165
6370.0 0.0012246
6390.0 0.0014263
6410.0 0.0016339
6430.0 0.0018936
6450.0 0.0022102
6470.0 0.0027292
6490.0 0.0033236
6510.0 0.0036188
6530.0 0.003383
6550.0 0.0031467
6570.0 0.0031089
6590.0 0.0029922
6610.0 0.0027329
6630.0 0.0024724
6650.0 0.0023032
6670.0 0.0023693
6690.0 0.0023467
6710.0 0.00209
6730.0 0.0019261
6750.0 0.0017174
6770.0 0.0016779
6790.0 0.0017937
6810.0 0.0018982
6830.0 0.0019391
6850.0 0.001897
6870.0 0.0018219
6890.0 0.0017823
6910.0 0.0016869
6930.0 0.001605
6950.0 0.0016091
6970.0 0.0016515
6990.0 0.0018285
7010.0 0.001936
7030.0 0.0017764
7050.0 0.0016526
7070.0 0.0015588
7090.0 0.0013837
7110.0 0.0012862
7130.0 0.001314
7150.0 0.0013599
7170.0 0.0014255
7190.0 0.0014216
7210.0 0.0014328
7230.0 0.0015284
7250.0 0.0017624
7270.0 0.0020404
7290.0 0.0021712
7310.0 0.0020897
7330.0 0.0018619
7350.0 0.0016803
7370.0 0.0016562
7390.0 0.0016786
7410.0 0.0017484
7430.0 0.0019249
7450.0 0.0020906
7470.0 0.0023121
7490.0 0.0025151
7510.0 0.0022498
7530.0 0.0021604
7550.0 0.001842
7570.0 0.0015672
7590.0 0.0013029
7610.0 0.0012025
7630.0 0.0012633
7650.0 0.0014504
7670.0 0.0015879
7690.0 0.0017809
7710.0 0.0019867
7730.0 0.0020866
7750.0 0.0021041
7770.0 0.0021035
7790.0 0.0020873
7810.0 0.00216
7830.0 0.0020895
7850.0 0.0018918
7870.0 0.0017269
7890.0 0.0016086
7910.0 0.0014508
7930.0 0.0012518
7950.0 0.0011458
7970.0 0.0011327
7990.0 0.0011818
8010.0 0.0012548
8030.0 0.0012739
8050.0 0.0012696
8070.0 0.0012347
8090.0 0.0012239
8110.0 0.0011675
8130.0 0.0010985
8150.0 0.0010341
8170.0 0.0010183
8190.0 0.0010419
8210.0 0.0010372
8230.0 0.0010617
8250.0 0.0010571
8270.0 0.00094198
8290.0 0.00072112
8310.0 0.00049811
8330.0 0.00033138
8350.0 0.00023493
8370.0 0.00027391
8390.0 0.00030523
8410.0 0.00038895
8430.0 0.00047114
8450.0 0.00051514
8470.0 0.00053045
8490.0 0.00055095
8510.0 0.00057904
8530.0 0.00065195
8550.0 0.00072058
8570.0 0.00084031
8590.0 0.0010245
8610.0 0.0011927
8630.0 0.0013924
8650.0 0.0015655
8670.0 0.0015402
8690.0 0.0014416
8710.0 0.0013644
8730.0 0.0012903
8750.0 0.0012389
8770.0 0.001204
8790.0 0.0011604
8810.0 0.0010765
8830.0 0.00098278
8850.0 0.00085439
8870.0 0.0007382
8890.0 0.0006636
8910.0 0.00067115
8930.0 0.00066077
8950.0 0.00070376
8970.0 0.00071846
8990.0 0.0007469
9010.0 0.00077897
9030.0 0.00078281
9050.0 0.00078427
9070.0 0.00078559
9090.0 0.00078661
9110.0 0.0007869
9130.0 0.00078775
9150.0 0.00078917
9170.0 0.00079045
9190.0 0.00079152
9210.0 0.00079452
9230.0 0.00079593
9250.0 0.0007977
9270.0 0.00079962
9290.0 0.00080167
9310.0 0.00080395
9330.0 0.00080639
9350.0 0.0008089
9370.0 0.00081159
9390.0 0.00081445
9410.0 0.00081741
9430.0 0.00082043
9450.0 0.00082369
9470.0 0.00082705
9490.0 0.00083049
9510.0 0.00083406
9530.0 0.00083782
9550.0 0.00084159
9570.0 0.00084547
9590.0 0.00084953
9610.0 0.00085367
9630.0 0.00085786
9650.0 0.00086217
9670.0 0.00086665
9690.0 0.00087114
9710.0 0.00087571
9730.0 0.00088043
9750.0 0.00088521
9770.0 0.00088996
9790.0 0.00089487
9810.0 0.00089987
9830.0 0.00090488
9850.0 0.00090993
9870.0 0.00091512
9890.0 0.00092032
9910.0 0.0009255
9930.0 0.00093077
9950.0 0.00093601
9970.0 0.00094132
9990.0 0.00094664
10010.0 0.0009382
10030.0 0.00094346
10050.0 0.00094859
10070.0 0.00095338
10090.0 0.00095886
10110.0 0.00096417
10130.0 0.00096946
10150.0 0.00097478
10170.0 0.00097998
10190.0 0.00098504
10210.0 0.00099018
10230.0 0.0009953
10250.0 0.0010003
10270.0 0.0010052
10290.0 0.0010101
10310.0 0.0010149
10330.0 0.0010196
10350.0 0.0010243
10370.0 0.0010289
10390.0 0.0010333
10410.0 0.0010377
10430.0 0.0010421
10450.0 0.0010462
10470.0 0.0010502
10490.0 0.0010542
10510.0 0.0010581
10530.0 0.0010617
10550.0 0.0010653
10570.0 0.0010688
10590.0 0.0010721
10610.0 0.0010752
10630.0 0.0010782
10650.0 0.0010812
10670.0 0.0010838
10690.0 0.0010863
10710.0 0.0010887
10730.0 0.0010909
10750.0 0.0010928
10770.0 0.0010948
10790.0 0.0010965
10810.0 0.001098
10830.0 0.0010992
10850.0 0.0011004
10870.0 0.0011009
10890.0 0.0011008
10910.0 0.0010999
10930.0 0.0010976
10950.0 0.0010929
10970.0 0.0010854
10990.0 0.0010749
11010.0 0.0010458
11030.0 0.0010265
11050.0 0.0010042
11070.0 0.00097825
11090.0 0.00094765
11110.0 0.00091655
11130.0 0.00088465
11150.0 0.00085093
11170.0 0.00081706
11190.0 0.00078524
11210.0 0.00075353
11230.0 0.00072239
11250.0 0.00069407
11270.0 0.0006682
11290.0 0.00064362
11310.0 0.00062156
11330.0 0.00060309
11350.0 0.00058632
11370.0 0.00057127
11390.0 0.00055839
11410.0 0.00054694
11430.0 0.00053576
11450.0 0.00052526
11470.0 0.00051512
11490.0 0.00050446
11510.0 0.00049286
11530.0 0.00048096
11550.0 0.00046834
11570.0 0.00045437
11590.0 0.00043975
11610.0 0.00042501
11630.0 0.00040935
11650.0 0.00039317
11670.0 0.00037785
11690.0 0.00036293
11710.0 0.00034819
11730.0 0.00033448
11750.0 0.00032224
11770.0 0.00031064
11790.0 0.00030007
11810.0 0.00029092
11830.0 0.00028277
11850.0 0.0002752
11870.0 0.00026863
11890.0 0.00026282
11910.0 0.00025725
11930.0 0.00025186
11950.0 0.00024673
11970.0 0.0002415
11990.0 0.00023593
12010.0 0.00023027
12030.0 0.00022449
12050.0 0.00021836
12070.0 0.00021197
12090.0 0.0002059
12110.0 0.00019987
12130.0 0.00019395
12150.0 0.00018858
12170.0 0.0001839
12190.0 0.00017975
12210.0 0.00017655
12230.0 0.00017442
12250.0 0.0001733
12270.0 0.00017333
12290.0 0.00017447
12310.0 0.00017657
12330.0 0.0001798
12350.0 0.00018395
12370.0 0.00018868
12390.0 0.00019406
12410.0 0.00020026
12430.0 0.00020632
12450.0 0.00021235
12470.0 0.0002185
12490.0 0.00022432
12510.0 0.00022942
12530.0 0.00023412
12550.0 0.00023825
12570.0 0.00024142
12590.0 0.00024373
12610.0 0.0002453
12630.0 0.00024593
12650.0 0.00024564
12670.0 0.00024458
12690.0 0.00024276
12710.0 0.00024028
12730.0 0.00023726
12750.0 0.00023359
12770.0 0.00022954
12790.0 0.00022523
12810.0 0.00022058
12830.0 0.00021559
12850.0 0.0002106
12870.0 0.0002055
12890.0 0.00020011
12910.0 0.00019466
12930.0 0.00018926
12950.0 0.00018358
12970.0 0.0001777
12990.0 0.00017198
13010.0 0.00016621
13030.0 0.00016024
13050.0 0.00015437
13070.0 0.00014876
13090.0 0.00014308
13110.0 0.00013756
13130.0 0.00013246
13150.0 0.00012768
13170.0 0.00012311
13190.0 0.00011916
13210.0 0.00011582
13230.0 0.00011294
13250.0 0.00011068
13270.0 0.00010908
13290.0 0.00010808
13310.0 0.00010769
13330.0 0.00010791
13350.0 0.00010864
13370.0 0.00010991
13390.0 0.00011166
13410.0 0.00011362
13430.0 0.00011588
13450.0 0.00011841
13470.0 0.00012096
13490.0 0.00012345
13510.0 0.00012608
13530.0 0.00012854
13550.0 0.00013072
13570.0 0.00013274
13590.0 0.00013457
13610.0 0.00013606
13630.0 0.00013724
13650.0 0.00013823
13670.0 0.00013892
13690.0 0.00013932
13710.0 0.00013949
13730.0 0.00013944
13750.0 0.00013915
13770.0 0.00013868
13790.0 0.00013801
13810.0 0.00013716
13830.0 0.00013619
13850.0 0.00013505
13870.0 0.00013375
13890.0 0.00013235
13910.0 0.00013084
13930.0 0.00012917
13950.0 0.00012741
13970.0 0.00012565
13990.0 0.0001238
14010.0 0.00012189
14030.0 0.00012004
14050.0 0.00011822
14070.0 0.00011638
14090.0 0.00011467
14110.0 0.00011312
14130.0 0.00011168
14150.0 0.0001104
14170.0 0.00010936
14190.0 0.00010852
14210.0 0.00010789
14230.0 0.00010751
14250.0 0.00010736
14270.0 0.00010746
14290.0 0.00010781
14310.0 0.00010836
14330.0 0.00010912
14350.0 0.00011009
14370.0 0.00011121
14390.0 0.00011241
14410.0 0.00011378
14430.0 0.00011524
14450.0 0.0001167
14470.0 0.00011821
14490.0 0.00011983
14510.0 0.00012143
14530.0 0.00012303
14550.0 0.00012476
14570.0 0.0001266
14590.0 0.00012849
14610.0 0.00013058
14630.0 0.00013298
14650.0 0.00013556
14670.0 0.00013836
14690.0 0.00014157
14710.0 0.00014515
14730.0 0.0001488
14750.0 0.00015281
14770.0 0.00015716
14790.0 0.00016158
14810.0 0.000166
14830.0 0.00017074
14850.0 0.00017535
14870.0 0.00017965
14890.0 0.0001838
14910.0 0.00018771
14930.0 0.00019107
14950.0 0.0001939
14970.0 0.00019631
14990.0 0.00019811
15010.0 0.00019932
15030.0 0.00020007
15050.0 0.00020042
15070.0 0.00020043
15090.0 0.00020024
15110.0 0.0001999
15130.0 0.00019947
15150.0 0.00019903
15170.0 0.00019855
15190.0 0.00019806
15210.0 0.00019758
15230.0 0.00019711
15250.0 0.00019661
15270.0 0.00019612
15290.0 0.00019567
15310.0 0.0001952
15330.0 0.00019472
15350.0 0.00019426
15370.0 0.00019381
15390.0 0.00019332
15410.0 0.00019286
15430.0 0.00019241
15450.0 0.00019195
15470.0 0.00019148
15490.0 0.00019104
15510.0 0.00019059
15530.0 0.00019013
15550.0 0.00018967
15570.0 0.00018924
15590.0 0.00018878
15610.0 0.00018831
15630.0 0.00018787
15650.0 0.00018742
15670.0 0.00018696
15690.0 0.00018651
15710.0 0.00018608
15730.0 0.00018562
15750.0 0.00018515
15770.0 0.00018471
15790.0 0.00018426
15810.0 0.00018378
15830.0 0.00018333
15850.0 0.00018289
15870.0 0.00018242
15890.0 0.00018196
15910.0 0.00018151
15930.0 0.00018105
15950.0 0.00018057
15970.0 0.00018011
15990.0 0.00017965
16010.0 0.00017917
16030.0 0.00017868
16050.0 0.00017823
16070.0 0.00017776
16090.0 0.00017727
16110.0 0.00017679
16130.0 0.00017633
16150.0 0.00017582
16170.0 0.00017533
16190.0 0.00017485
16210.0 0.00017436
16230.0 0.00017385
16250.0 0.00017336
16270.0 0.00017288
16290.0 0.00017236
16310.0 0.00017185
16330.0 0.00017136
16350.0 0.00017085
16370.0 0.00017031
16390.0 0.0001698
16410.0 0.00016929
16430.0 0.00016876
16450.0 0.00016823
16470.0 0.00016772
16490.0 0.00016718
16510.0 0.00016663
16530.0 0.0001661
16550.0 0.00016557
16570.0 0.00016501
16590.0 0.00016445
16610.0 0.00016392
16630.0 0.00016336
16650.0 0.0001628
16670.0 0.00016225
16690.0 0.00016169
16710.0 0.00016111
16730.0 0.00016053
16750.0 0.00015997
16770.0 0.00015939
16790.0 0.0001588
16810.0 0.00015823
16830.0 0.00015765
16850.0 0.00015705
16870.0 0.00015646
16890.0 0.00015588
16910.0 0.00015527
16930.0 0.00015465
16950.0 0.00015406
16970.0 0.00015346
16990.0 0.00015284
17010.0 0.00015222
17030.0 0.00015163
17050.0 0.000151
17070.0 0.00015037
17090.0 0.00014975
17110.0 0.00014913
17130.0 0.00014848
17150.0 0.00014785
17170.0 0.00014723
17190.0 0.00014658
17210.0 0.00014593
17230.0 0.00014531
17250.0 0.00014466
17270.0 0.000144
17290.0 0.00014335
17310.0 0.00014271
17330.0 0.00014204
17350.0 0.00014137
17370.0 0.00014073
17390.0 0.00014007
17410.0 0.00013939
17430.0 0.00013873
17450.0 0.00013808
17470.0 0.00013739
17490.0 0.00013671
17510.0 0.00013605
17530.0 0.00013537
17550.0 0.00013468
17570.0 0.00013401
17590.0 0.00013334
17610.0 0.00013265
17630.0 0.00013196
17650.0 0.00013129
17670.0 0.0001306
17690.0 0.00012988
17710.0 0.00012921
17730.0 0.00012853
17750.0 0.00012782
17770.0 0.00012713
17790.0 0.00012645
17810.0 0.00012575
17830.0 0.00012504
17850.0 0.00012435
17870.0 0.00012366
17890.0 0.00012295
17910.0 0.00012224
17930.0 0.00012156
17950.0 0.00012085
17970.0 0.00012014
17990.0 0.00011945
18010.0 0.00011876
18030.0 0.00011803
18050.0 0.00011733
18070.0 0.00011664
18090.0 0.00011593
18110.0 0.00011521
18130.0 0.00011452
18150.0 0.00011382
18170.0 0.00011311
18190.0 0.00011241
18210.0 0.00011172
18230.0 0.000111
18250.0 0.00011028
18270.0 0.00010959
18290.0 0.00010889
18310.0 0.00010818
18330.0 0.00010748
18350.0 0.00010679
18370.0 0.00010608
18390.0 0.00010537
18410.0 0.00010468
18430.0 0.00010398
18450.0 0.00010326
18470.0 0.00010257
18490.0 0.00010188
18510.0 0.00010118
18530.0 0.00010048
18550.0 9.9795e-05
18570.0 9.91e-05
18590.0 9.8389e-05
18610.0 9.7701e-05
18630.0 9.7018e-05
18650.0 9.6317e-05
18670.0 9.5617e-05
18690.0 9.4946e-05
18710.0 9.426e-05
18730.0 9.3563e-05
18750.0 9.2885e-05
18770.0 9.2215e-05
18790.0 9.1512e-05
18810.0 9.0825e-05
18830.0 9.0158e-05
18850.0 8.9479e-05
18870.0 8.879e-05
18890.0 8.8124e-05
18910.0 8.7461e-05
18930.0 8.6777e-05
18950.0 8.6103e-05
18970.0 8.5446e-05
18990.0 8.4776e-05
19010.0 8.4087e-05
19030.0 8.3435e-05
19050.0 8.278e-05
19070.0 8.211e-05
19090.0 8.145e-05
19110.0 8.081e-05
19130.0 8.0145e-05
19150.0 7.9479e-05
19170.0 7.8835e-05
19190.0 7.8189e-05
19210.0 7.7526e-05
19230.0 7.6875e-05
19250.0 7.6246e-05
19270.0 7.5599e-05
19290.0 7.495e-05
19310.0 7.4321e-05
19330.0 7.369e-05
19350.0 7.3034e-05
19370.0 7.2401e-05
19390.0 7.178e-05
19410.0 7.1144e-05
19430.0 7.0505e-05
19450.0 6.9893e-05
19470.0 6.9273e-05
19490.0 6.864e-05
19510.0 6.8022e-05
19530.0 6.7416e-05
19550.0 6.6788e-05
19570.0 6.616e-05
19590.0 6.5561e-05
19610.0 6.4953e-05
19630.0 6.4334e-05
19650.0 6.3732e-05
19670.0 6.3142e-05
19690.0 6.2529e-05
19710.0 6.1922e-05
19730.0 6.1333e-05
19750.0 6.0738e-05
19770.0 6.0126e-05
19790.0 5.9538e-05
19810.0 5.8959e-05
19830.0 5.8362e-05
19850.0 5.7768e-05
19870.0 5.7189e-05
19890.0 5.6584e-05
19910.0 5.5947e-05
19930.0 5.53e-05
19950.0 5.4611e-05
19970.0 5.3833e-05
19990.0 5.2971e-05
20010.0 5.2553e-05
20030.0 5.1518e-05
20050.0 5.0383e-05
20070.0 4.9221e-05
20090.0 4.8035e-05
20110.0 4.6766e-05
20130.0 4.5547e-05
20150.0 4.4394e-05
20170.0 4.3256e-05
20190.0 4.2156e-05
20210.0 4.116e-05
20230.0 4.0228e-05
20250.0 3.9334e-05
20270.0 3.8537e-05
20290.0 3.7837e-05
20310.0 3.7202e-05
20330.0 3.6639e-05
20350.0 3.6196e-05
20370.0 3.583e-05
20390.0 3.5545e-05
20410.0 3.535e-05
20430.0 3.524e-05
20450.0 3.521e-05
20470.0 3.5262e-05
20490.0 3.5384e-05
20510.0 3.5574e-05
20530.0 3.584e-05
20550.0 3.6158e-05
20570.0 3.6511e-05
20590.0 3.6924e-05
20610.0 3.7376e-05
20630.0 3.7838e-05
20650.0 3.8327e-05
20670.0 3.886e-05
20690.0 3.9377e-05
20710.0 3.9887e-05
20730.0 4.0416e-05
20750.0 4.0944e-05
20770.0 4.1441e-05
20790.0 4.1944e-05
20810.0 4.246e-05
20830.0 4.2957e-05
20850.0 4.3446e-05
20870.0 4.3964e-05
20890.0 4.4489e-05
20910.0 4.4996e-05
20930.0 4.5525e-05
20950.0 4.6082e-05
20970.0 4.663e-05
20990.0 4.7178e-05
21010.0 4.7761e-05
21030.0 4.8336e-05
21050.0 4.8885e-05
21070.0 4.9432e-05
21090.0 4.9979e-05
21110.0 5.0469e-05
21130.0 5.0921e-05
21150.0 5.135e-05
21170.0 5.1727e-05
21190.0 5.2039e-05
21210.0 5.231e-05
21230.0 5.2526e-05
21250.0 5.2668e-05
21270.0 5.2748e-05
21290.0 5.2766e-05
21310.0 5.2713e-05
21330.0 5.2597e-05
21350.0 5.2413e-05
21370.0 5.2155e-05
21390.0 5.1839e-05
21410.0 5.1462e-05
21430.0 5.0996e-05
21450.0 5.048e-05
21470.0 4.9924e-05
21490.0 4.9302e-05
21510.0 4.8623e-05
21530.0 4.7934e-05
21550.0 4.7212e-05
21570.0 4.6441e-05
21590.0 4.5679e-05
21610.0 4.4936e-05
21630.0 4.4186e-05
21650.0 4.3442e-05
21670.0 4.2783e-05
21690.0 4.2162e-05
21710.0 4.1584e-05
21730.0 4.1088e-05
21750.0 4.0679e-05
21770.0 4.0334e-05
21790.0 4.0084e-05
21810.0 3.9935e-05
21830.0 3.9876e-05
21850.0 3.9914e-05
21870.0 4.0047e-05
21890.0 4.0262e-05
21910.0 4.0573e-05
21930.0 4.0969e-05
21950.0 4.1425e-05
21970.0 4.1957e-05
21990.0 4.2584e-05
22010.0 4.3239e-05
22030.0 4.3931e-05
22050.0 4.4686e-05
22070.0 4.5475e-05
22090.0 4.6248e-05
22110.0 4.7053e-05
22130.0 4.7883e-05
22150.0 4.8681e-05
22170.0 4.9451e-05
22190.0 5.0229e-05
22210.0 5.0964e-05
22230.0 5.1615e-05
22250.0 5.2227e-05
22270.0 5.2784e-05
22290.0 5.3246e-05
22310.0 5.3625e-05
22330.0 5.393e-05
22350.0 5.4129e-05
22370.0 5.4223e-05
22390.0 5.4216e-05
22410.0 5.4093e-05
22430.0 5.3867e-05
22450.0 5.354e-05
22470.0 5.3092e-05
22490.0 5.2543e-05
22510.0 5.1918e-05
22530.0 5.117e-05
22550.0 5.0312e-05
22570.0 4.9407e-05
22590.0 4.8428e-05
22610.0 4.7342e-05
22630.0 4.6207e-05
22650.0 4.5069e-05
22670.0 4.3844e-05
22690.0 4.2568e-05
22710.0 4.131e-05
22730.0 4.0039e-05
22750.0 3.8688e-05
22770.0 3.7392e-05
22790.0 3.6149e-05
22810.0 3.4893e-05
22830.0 3.3663e-05
22850.0 3.2533e-05
22870.0 3.1448e-05
22890.0 3.0393e-05
