#lamb flux
1010.0 4.0229e-06
1030.0 4.3977e-06
1050.0 4.8307e-06
1070.0 5.32e-06
1090.0 5.8776e-06
1110.0 6.4532e-06
1130.0 7.0369e-06
1150.0 7.6527e-06
1170.0 8.2932e-06
1190.0 8.9083e-06
1210.0 9.5383e-06
1230.0 1.0196e-05
1250.0 1.085e-05
1270.0 1.1495e-05
1290.0 1.2183e-05
1310.0 1.2881e-05
1330.0 1.3564e-05
1350.0 1.4264e-05
1370.0 1.4996e-05
1390.0 1.5724e-05
1410.0 1.6445e-05
1430.0 1.7205e-05
1450.0 1.7977e-05
1470.0 1.8739e-05
1490.0 1.9518e-05
1510.0 2.0343e-05
1530.0 2.1142e-05
1550.0 2.1939e-05
1570.0 2.2765e-05
1590.0 2.3596e-05
1610.0 2.44e-05
1630.0 2.5225e-05
1650.0 2.6066e-05
1670.0 2.6881e-05
1690.0 2.7679e-05
1710.0 2.8494e-05
1730.0 2.93e-05
1750.0 3.0047e-05
1770.0 3.0795e-05
1790.0 3.1535e-05
1810.0 3.2226e-05
1830.0 3.2876e-05
1850.0 3.3536e-05
1870.0 3.4143e-05
1890.0 3.4688e-05
1910.0 3.5206e-05
1930.0 3.5699e-05
1950.0 3.6116e-05
1970.0 3.6479e-05
1990.0 3.682e-05
2010.0 3.7101e-05
2030.0 3.7312e-05
2050.0 3.7494e-05
2070.0 3.7644e-05
2090.0 3.771e-05
2110.0 3.773e-05
2130.0 3.7723e-05
2150.0 3.7664e-05
2170.0 3.7539e-05
2190.0 3.7399e-05
2210.0 3.7228e-05
2230.0 3.7004e-05
2250.0 3.6749e-05
2270.0 3.6492e-05
2290.0 3.6195e-05
2310.0 3.586e-05
2330.0 3.5524e-05
2350.0 3.5178e-05
2370.0 3.4802e-05
2390.0 3.442e-05
2410.0 3.4048e-05
2430.0 3.3647e-05
2450.0 3.3218e-05
2470.0 3.2768e-05
2490.0 3.2281e-05
2510.0 3.1744e-05
2530.0 3.1212e-05
2550.0 3.0767e-05
2570.0 3.0534e-05
2590.0 3.0663e-05
2610.0 3.1458e-05
2630.0 3.3067e-05
2650.0 3.5417e-05
2670.0 3.8572e-05
2690.0 4.2453e-05
2710.0 4.6496e-05
2730.0 5.0409e-05
2750.0 5.4294e-05
2770.0 5.7773e-05
2790.0 6.073e-05
2810.0 6.344e-05
2830.0 6.6129e-05
2850.0 6.8548e-05
2870.0 7.0945e-05
2890.0 7.3504e-05
2910.0 7.612e-05
2930.0 7.8655e-05
2950.0 8.1365e-05
2970.0 8.4203e-05
2990.0 8.6981e-05
3010.0 0.00019888
3030.0 0.00020551
3050.0 0.00021227
3070.0 0.00021875
3090.0 0.00022552
3110.0 0.0002324
3130.0 0.00023892
3150.0 0.00024511
3170.0 0.00025125
3190.0 0.00025654
3210.0 0.00026059
3230.0 0.00026429
3250.0 0.00025998
3270.0 0.00026284
3290.0 0.00026037
3310.0 0.00028301
3330.0 0.00030379
3350.0 0.00032648
3370.0 0.00035263
3390.0 0.00038208
3410.0 0.00041271
3430.0 0.00044562
3450.0 0.00048199
3470.0 0.00052054
3490.0 0.00056082
3510.0 0.00060341
3530.0 0.00064889
3550.0 0.0007074
3570.0 0.00077495
3590.0 0.00083101
3610.0 0.00089387
3630.0 0.00091755
3650.0 0.00093626
3670.0 0.00094787
3690.0 0.00097447
3710.0 0.0010046
3730.0 0.00098803
3750.0 0.00095882
3770.0 0.00091872
3790.0 0.00087197
3810.0 0.00081278
3830.0 0.0007189
3850.0 0.00044914
3870.0 0.00062403
3890.0 0.00085079
3910.0 0.0010498
3930.0 0.0012106
3950.0 0.0012851
3970.0 0.0013399
3990.0 0.0016097
4010.0 0.0015219
4030.0 0.0013328
4050.0 0.0011823
4070.0 0.0010644
4090.0 0.001247
4110.0 0.0013295
4130.0 0.0013407
4150.0 0.0013238
4170.0 0.0012452
4190.0 0.0011765
4210.0 0.0013889
4230.0 0.0015735
4250.0 0.0016025
4270.0 0.0015458
4290.0 0.0015748
4310.0 0.0016717
4330.0 0.0018973
4350.0 0.0020369
4370.0 0.0020082
4390.0 0.0016934
4410.0 0.0014498
4430.0 0.0012292
4450.0 0.0010684
4470.0 0.0011113
4490.0 0.0013863
4510.0 0.0015024
4530.0 0.0016508
4550.0 0.0017764
4570.0 0.0021988
4590.0 0.0031964
4610.0 0.0041754
4630.0 0.0041865
4650.0 0.003921
4670.0 0.0042203
4690.0 0.0047596
4710.0 0.0040234
4730.0 0.0029193
4750.0 0.0022696
4770.0 0.0021216
4790.0 0.0021646
4810.0 0.002012
4830.0 0.0021875
4850.0 0.0026691
4870.0 0.0032711
4890.0 0.0029832
4910.0 0.0025487
4930.0 0.0027464
4950.0 0.0036138
4970.0 0.0047656
4990.0 0.0049322
5010.0 0.0043119
5030.0 0.0033126
5050.0 0.0023676
5070.0 0.0019567
5090.0 0.0018255
5110.0 0.0018276
5130.0 0.0019094
5150.0 0.0018778
5170.0 0.0019229
5190.0 0.0018382
5210.0 0.0018694
5230.0 0.0020111
5250.0 0.0021668
5270.0 0.002678
5290.0 0.0031156
5310.0 0.0030871
5330.0 0.0031726
5350.0 0.0036087
5370.0 0.00392
5390.0 0.0036062
5410.0 0.0030631
5430.0 0.0028764
5450.0 0.0033132
5470.0 0.0042985
5490.0 0.0053379
5510.0 0.0058074
5530.0 0.0058472
5550.0 0.0055209
5570.0 0.005175
5590.0 0.0050057
5610.0 0.0050622
5630.0 0.0051269
5650.0 0.005101
5670.0 0.0050736
5690.0 0.0049291
5710.0 0.0043052
5730.0 0.0036088
5750.0 0.0030573
5770.0 0.0031141
5790.0 0.0033985
5810.0 0.0036508
5830.0 0.0037635
5850.0 0.0037127
5870.0 0.0034072
5890.0 0.0029642
5910.0 0.0029406
5930.0 0.0032349
5950.0 0.0032709
5970.0 0.0029552
5990.0 0.0025349
6010.0 0.0020632
6030.0 0.0017313
6050.0 0.0017442
6070.0 0.0020127
6090.0 0.0021216
6110.0 0.0018865
6130.0 0.001752
6150.0 0.0019059
6170.0 0.0023
6190.0 0.0027387
6210.0 0.002914
6230.0 0.0027888
6250.0 0.0025607
6270.0 0.0022074
6290.0 0.0018303
6310.0 0.0015303
6330.0 0.0014114
6350.0 0.0014917
6370.0 0.0015732
6390.0 0.0016663
6410.0 0.0019162
6430.0 0.0024142
6450.0 0.0030428
6470.0 0.0033945
6490.0 0.0033273
6510.0 0.0032753
6530.0 0.0033949
6550.0 0.0034327
6570.0 0.0034905
6590.0 0.0035039
6610.0 0.0034416
6630.0 0.0034801
6650.0 0.0034631
6670.0 0.0032885
6690.0 0.002916
6710.0 0.0024776
6730.0 0.002435
6750.0 0.0026411
6770.0 0.0028445
6790.0 0.0029157
6810.0 0.0028901
6830.0 0.0028431
6850.0 0.0027847
6870.0 0.0026154
6890.0 0.0024915
6910.0 0.002365
6930.0 0.0023043
6950.0 0.0024851
6970.0 0.0026694
6990.0 0.0027984
7010.0 0.0028132
7030.0 0.002646
7050.0 0.0022978
7070.0 0.0018648
7090.0 0.0015894
7110.0 0.0015532
7130.0 0.0016635
7150.0 0.0016553
7170.0 0.0015011
7190.0 0.001487
7210.0 0.0016472
7230.0 0.0019104
7250.0 0.0021721
7270.0 0.0022687
7290.0 0.0021007
7310.0 0.0018558
7330.0 0.0017032
7350.0 0.0016818
7370.0 0.0017325
7390.0 0.0018005
7410.0 0.0019224
7430.0 0.0022094
7450.0 0.0025744
7470.0 0.0029147
7490.0 0.0030507
7510.0 0.002947
7530.0 0.002472
7550.0 0.0020369
7570.0 0.0017089
7590.0 0.0015185
7610.0 0.0015868
7630.0 0.001844
7650.0 0.0021142
7670.0 0.0023754
7690.0 0.0025724
7710.0 0.002737
7730.0 0.0028966
7750.0 0.003048
7770.0 0.0031264
7790.0 0.0031208
7810.0 0.0031745
7830.0 0.0032973
7850.0 0.0032725
7870.0 0.0031697
7890.0 0.0029694
7910.0 0.0027839
7930.0 0.0026787
7950.0 0.0026487
7970.0 0.002619
7990.0 0.0026294
8010.0 0.0026873
8030.0 0.0027046
8050.0 0.0027654
8070.0 0.0027355
8090.0 0.0027349
8110.0 0.0026255
8130.0 0.0026111
8150.0 0.0025501
8170.0 0.002481
8190.0 0.0024471
8210.0 0.0024659
8230.0 0.0023433
8250.0 0.002218
8270.0 0.0019461
8290.0 0.0015662
8310.0 0.0011922
8330.0 0.00090866
8350.0 0.00081344
8370.0 0.00093721
8390.0 0.0011105
8410.0 0.0012295
8430.0 0.0013365
8450.0 0.0014066
8470.0 0.0014777
8490.0 0.0016428
8510.0 0.0018476
8530.0 0.0021514
8550.0 0.0025114
8570.0 0.0028397
8590.0 0.0031048
8610.0 0.0033134
8630.0 0.0034387
8650.0 0.0034571
8670.0 0.003465
8690.0 0.003589
8710.0 0.0036955
8730.0 0.003798
8750.0 0.0037465
8770.0 0.0037699
8790.0 0.0037261
8810.0 0.0034777
8830.0 0.003364
8850.0 0.0031663
8870.0 0.0030131
8890.0 0.0029024
8910.0 0.0029579
8930.0 0.002796
8950.0 0.0026788
8970.0 0.0026336
8990.0 0.002583
9010.0 0.0025171
9030.0 0.0024555
9050.0 0.0024398
9070.0 0.0024324
9090.0 0.0024254
9110.0 0.0024188
9130.0 0.0024116
9150.0 0.0024043
9170.0 0.0023944
9190.0 0.0023826
9210.0 0.002392
9230.0 0.0023797
9250.0 0.0023698
9270.0 0.0023606
9290.0 0.0023519
9310.0 0.0023434
9330.0 0.0023351
9350.0 0.002327
9370.0 0.0023188
9390.0 0.0023105
9410.0 0.0023022
9430.0 0.0022937
9450.0 0.002284
9470.0 0.0022746
9490.0 0.0022673
9510.0 0.0022594
9530.0 0.0022512
9550.0 0.0022428
9570.0 0.0022344
9590.0 0.0022258
9610.0 0.0022172
9630.0 0.0022085
9650.0 0.0021998
9670.0 0.0021911
9690.0 0.0021824
9710.0 0.0021737
9730.0 0.0021649
9750.0 0.0021561
9770.0 0.0021474
9790.0 0.0021386
9810.0 0.0021298
9830.0 0.002121
9850.0 0.0021123
9870.0 0.0021035
9890.0 0.0020946
9910.0 0.0020858
9930.0 0.0020768
9950.0 0.0020531
9970.0 0.0020486
9990.0 0.0020434
10010.0 0.0020376
10030.0 0.0020306
10050.0 0.0020226
10070.0 0.002014
10090.0 0.002006
10110.0 0.0019971
10130.0 0.0019887
10150.0 0.0019801
10170.0 0.001971
10190.0 0.0019614
10210.0 0.0019525
10230.0 0.0019438
10250.0 0.0019346
10270.0 0.0019254
10290.0 0.0019167
10310.0 0.0019075
10330.0 0.0018978
10350.0 0.0018888
10370.0 0.0018798
10390.0 0.0018703
10410.0 0.0018608
10430.0 0.0018519
10450.0 0.0018424
10470.0 0.0018327
10490.0 0.0018234
10510.0 0.0018141
10530.0 0.0018038
10550.0 0.001794
10570.0 0.0017846
10590.0 0.0017747
10610.0 0.0017645
10630.0 0.0017548
10650.0 0.001745
10670.0 0.0017344
10690.0 0.0017241
10710.0 0.0017142
10730.0 0.0017036
10750.0 0.0016925
10770.0 0.0016824
10790.0 0.0016719
10810.0 0.0016608
10830.0 0.0016499
10850.0 0.0016395
10870.0 0.0016278
10890.0 0.0016159
10910.0 0.0016042
10930.0 0.0015917
10950.0 0.0015776
10970.0 0.0015627
10990.0 0.0015471
11010.0 0.0014346
11030.0 0.0014155
11050.0 0.0013972
11070.0 0.0013787
11090.0 0.0013592
11110.0 0.0013414
11130.0 0.0013244
11150.0 0.0013071
11170.0 0.00129
11190.0 0.0012744
11210.0 0.0012584
11230.0 0.0012419
11250.0 0.0012263
11270.0 0.0012111
11290.0 0.0011952
11310.0 0.0011795
11330.0 0.0011652
11350.0 0.0011506
11370.0 0.0011359
11390.0 0.0011219
11410.0 0.0011085
11430.0 0.0010941
11450.0 0.0010801
11470.0 0.0010665
11490.0 0.0010522
11510.0 0.001037
11530.0 0.0010221
11550.0 0.0010068
11570.0 0.00099011
11590.0 0.0009729
11610.0 0.00095574
11630.0 0.00093713
11650.0 0.00091733
11670.0 0.00089815
11690.0 0.00087865
11710.0 0.00085815
11730.0 0.00083791
11750.0 0.00081877
11770.0 0.00079908
11790.0 0.00077959
11810.0 0.00076147
11830.0 0.00074409
11850.0 0.00072646
11870.0 0.00071035
11890.0 0.00069569
11910.0 0.00068134
11930.0 0.00066763
11950.0 0.00065533
11970.0 0.0006436
11990.0 0.00063196
12010.0 0.00062134
12030.0 0.00061158
12050.0 0.000602
12070.0 0.00059276
12090.0 0.00058475
12110.0 0.00057715
12130.0 0.00056989
12150.0 0.00056352
12170.0 0.00055807
12190.0 0.00055298
12210.0 0.00054887
12230.0 0.00054593
12250.0 0.00054394
12270.0 0.00054301
12290.0 0.00054339
12310.0 0.00054501
12330.0 0.00054796
12350.0 0.0005523
12370.0 0.00055787
12390.0 0.00056477
12410.0 0.00057331
12430.0 0.00058264
12450.0 0.00059284
12470.0 0.00060416
12490.0 0.00061611
12510.0 0.00062798
12530.0 0.00064032
12550.0 0.00065283
12570.0 0.00066465
12590.0 0.00067581
12610.0 0.00068656
12630.0 0.00069624
12650.0 0.00070438
12670.0 0.00071145
12690.0 0.00071721
12710.0 0.0007214
12730.0 0.00072419
12750.0 0.00072554
12770.0 0.00072543
12790.0 0.00072408
12810.0 0.00072148
12830.0 0.00071762
12850.0 0.00071306
12870.0 0.00070777
12890.0 0.00070158
12910.0 0.00069498
12930.0 0.00068826
12950.0 0.00068096
12970.0 0.00067328
12990.0 0.00066589
13010.0 0.00065839
13030.0 0.00065053
13050.0 0.00064273
13070.0 0.00063518
13090.0 0.00062721
13110.0 0.00061909
13130.0 0.00061123
13150.0 0.00060337
13170.0 0.00059515
13190.0 0.00058741
13210.0 0.00058022
13230.0 0.00057321
13250.0 0.00056677
13270.0 0.00056133
13290.0 0.00055668
13310.0 0.00055289
13330.0 0.00055035
13350.0 0.00054896
13370.0 0.00054862
13390.0 0.00054935
13410.0 0.00055086
13430.0 0.00055297
13450.0 0.00055547
13470.0 0.00055792
13490.0 0.00056003
13510.0 0.00056162
13530.0 0.00056226
13550.0 0.00056177
13570.0 0.00056003
13590.0 0.00055684
13610.0 0.00055241
13630.0 0.00054692
13650.0 0.00054007
13670.0 0.00053233
13690.0 0.0005242
13710.0 0.0005155
13730.0 0.00050615
13750.0 0.00049736
13770.0 0.00048886
13790.0 0.00048048
13810.0 0.00047266
13830.0 0.00046573
13850.0 0.0004592
13870.0 0.00045323
13890.0 0.0004481
13910.0 0.0004436
13930.0 0.0004395
13950.0 0.00043597
13970.0 0.00043303
13990.0 0.00043038
14010.0 0.00042804
14030.0 0.00042603
14050.0 0.00042423
14070.0 0.00042252
14090.0 0.00042095
14110.0 0.00041945
14130.0 0.00041793
14150.0 0.00041634
14170.0 0.00041473
14190.0 0.00041303
14210.0 0.00041119
14230.0 0.00040929
14250.0 0.00040736
14270.0 0.00040535
14290.0 0.00040333
14310.0 0.00040144
14330.0 0.00039964
14350.0 0.00039795
14370.0 0.00039646
14390.0 0.00039518
14410.0 0.00039406
14430.0 0.00039312
14450.0 0.00039234
14470.0 0.00039168
14490.0 0.00039112
14510.0 0.00039061
14530.0 0.00039014
14550.0 0.0003897
14570.0 0.0003893
14590.0 0.00038894
14610.0 0.00038867
14630.0 0.00038856
14650.0 0.00038863
14670.0 0.00038892
14690.0 0.00038956
14710.0 0.00039061
14730.0 0.00039196
14750.0 0.0003938
14770.0 0.00039623
14790.0 0.00039911
14810.0 0.00040245
14830.0 0.00040667
14850.0 0.00041147
14870.0 0.00041663
14890.0 0.0004224
14910.0 0.00042874
14930.0 0.00043495
14950.0 0.00044084
14970.0 0.00044651
14990.0 0.00045125
15010.0 0.00045477
15030.0 0.00045724
15050.0 0.00045868
15070.0 0.00045903
15090.0 0.0004587
15110.0 0.00045791
15130.0 0.0004568
15150.0 0.00045553
15170.0 0.00045416
15190.0 0.00045274
15210.0 0.00045131
15230.0 0.00044987
15250.0 0.00044841
15270.0 0.00044696
15290.0 0.00044551
15310.0 0.00044406
15330.0 0.00044259
15350.0 0.00044114
15370.0 0.00043968
15390.0 0.0004382
15410.0 0.00043674
15430.0 0.00043528
15450.0 0.0004338
15470.0 0.00043233
15490.0 0.00043086
15510.0 0.00042939
15530.0 0.00042792
15550.0 0.00042644
15570.0 0.00042498
15590.0 0.0004235
15610.0 0.00042202
15630.0 0.00042055
15650.0 0.00041908
15670.0 0.0004176
15690.0 0.00041613
15710.0 0.00041467
15730.0 0.00041319
15750.0 0.00041172
15770.0 0.00041026
15790.0 0.00040879
15810.0 0.00040731
15830.0 0.00040585
15850.0 0.0004044
15870.0 0.00040293
15890.0 0.00040147
15910.0 0.00040002
15930.0 0.00039857
15950.0 0.00039711
15970.0 0.00039566
15990.0 0.00039422
16010.0 0.00039277
16030.0 0.00039132
16050.0 0.00038989
16070.0 0.00038845
16090.0 0.00038701
16110.0 0.00038558
16130.0 0.00038416
16150.0 0.00038273
16170.0 0.0003813
16190.0 0.00037989
16210.0 0.00037848
16230.0 0.00037706
16250.0 0.00037566
16270.0 0.00037426
16290.0 0.00037286
16310.0 0.00037146
16330.0 0.00037007
16350.0 0.00036869
16370.0 0.00036729
16390.0 0.00036591
16410.0 0.00036454
16430.0 0.00036317
16450.0 0.0003618
16470.0 0.00036045
16490.0 0.00035909
16510.0 0.00035773
16530.0 0.00035638
16550.0 0.00035504
16570.0 0.00035369
16590.0 0.00035235
16610.0 0.00035103
16630.0 0.00034971
16650.0 0.00034838
16670.0 0.00034707
16690.0 0.00034576
16710.0 0.00034445
16730.0 0.00034315
16750.0 0.00034186
16770.0 0.00034056
16790.0 0.00033927
16810.0 0.000338
16830.0 0.00033673
16850.0 0.00033545
16870.0 0.00033419
16890.0 0.00033293
16910.0 0.00033167
16930.0 0.00033042
16950.0 0.00032918
16970.0 0.00032794
16990.0 0.0003267
17010.0 0.00032548
17030.0 0.00032426
17050.0 0.00032304
17070.0 0.00032183
17090.0 0.00032063
17110.0 0.00031943
17130.0 0.00031822
17150.0 0.00031704
17170.0 0.00031586
17190.0 0.00031468
17210.0 0.0003135
17230.0 0.00031234
17250.0 0.00031118
17270.0 0.00031002
17290.0 0.00030887
17310.0 0.00030773
17330.0 0.00030659
17350.0 0.00030545
17370.0 0.00030433
17390.0 0.00030321
17410.0 0.00030209
17430.0 0.00030098
17450.0 0.00029988
17470.0 0.00029877
17490.0 0.00029767
17510.0 0.00029659
17530.0 0.00029551
17550.0 0.00029443
17570.0 0.00029336
17590.0 0.0002923
17610.0 0.00029123
17630.0 0.00029017
17650.0 0.00028913
17670.0 0.00028809
17690.0 0.00028704
17710.0 0.00028601
17730.0 0.00028499
17750.0 0.00028396
17770.0 0.00028294
17790.0 0.00028194
17810.0 0.00028093
17830.0 0.00027993
17850.0 0.00027894
17870.0 0.00027795
17890.0 0.00027696
17910.0 0.00027598
17930.0 0.00027502
17950.0 0.00027405
17970.0 0.00027308
17990.0 0.00027213
18010.0 0.00027118
18030.0 0.00027023
18050.0 0.00026929
18070.0 0.00026836
18090.0 0.00026743
18110.0 0.0002665
18130.0 0.00026558
18150.0 0.00026467
18170.0 0.00026376
18190.0 0.00026286
18210.0 0.00026196
18230.0 0.00026106
18250.0 0.00026017
18270.0 0.00025929
18290.0 0.00025842
18310.0 0.00025754
18330.0 0.00025667
18350.0 0.00025582
18370.0 0.00025495
18390.0 0.0002541
18410.0 0.00025325
18430.0 0.00025241
18450.0 0.00025157
18470.0 0.00025073
18490.0 0.00024991
18510.0 0.00024908
18530.0 0.00024826
18550.0 0.00024746
18570.0 0.00024665
18590.0 0.00024583
18610.0 0.00024504
18630.0 0.00024425
18650.0 0.00024345
18670.0 0.00024266
18690.0 0.00024189
18710.0 0.00024111
18730.0 0.00024033
18750.0 0.00023957
18770.0 0.00023881
18790.0 0.00023805
18810.0 0.00023729
18830.0 0.00023655
18850.0 0.0002358
18870.0 0.00023506
18890.0 0.00023432
18910.0 0.00023359
18930.0 0.00023286
18950.0 0.00023214
18970.0 0.00023142
18990.0 0.00023071
19010.0 0.00022999
19030.0 0.00022929
19050.0 0.00022859
19070.0 0.00022789
19090.0 0.00022719
19110.0 0.00022651
19130.0 0.00022582
19150.0 0.00022514
19170.0 0.00022446
19190.0 0.00022379
19210.0 0.00022312
19230.0 0.00022245
19250.0 0.00022179
19270.0 0.00022113
19290.0 0.00022048
19310.0 0.00021983
19330.0 0.00021919
19350.0 0.00021854
19370.0 0.0002179
19390.0 0.00021727
19410.0 0.00021664
19430.0 0.00021601
19450.0 0.00021539
19470.0 0.00021477
19490.0 0.00021415
19510.0 0.00021354
19530.0 0.00021293
19550.0 0.00021232
19570.0 0.00021172
19590.0 0.00021112
19610.0 0.00021053
19630.0 0.00020994
19650.0 0.00020935
19670.0 0.00020877
19690.0 0.00020818
19710.0 0.0002076
19730.0 0.00020703
19750.0 0.00020646
19770.0 0.00020589
19790.0 0.00020533
19810.0 0.00020477
19830.0 0.0002042
19850.0 0.00020363
19870.0 0.00020306
19890.0 0.00020244
19910.0 0.00020174
19930.0 0.00020094
19950.0 0.00019998
19970.0 0.00019875
19990.0 0.0001972
20010.0 0.00019537
20030.0 0.00019314
20050.0 0.00019052
20070.0 0.00018769
20090.0 0.00018468
20110.0 0.00018133
20130.0 0.000178
20150.0 0.00017475
20170.0 0.00017144
20190.0 0.00016814
20210.0 0.00016504
20230.0 0.00016203
20250.0 0.00015902
20270.0 0.00015619
20290.0 0.00015356
20310.0 0.00015099
20330.0 0.00014849
20350.0 0.00014628
20370.0 0.00014419
20390.0 0.00014219
20410.0 0.00014037
20430.0 0.00013875
20450.0 0.00013721
20470.0 0.00013582
20490.0 0.00013463
20510.0 0.00013358
20530.0 0.00013266
20550.0 0.0001319
20570.0 0.00013129
20590.0 0.00013081
20610.0 0.00013045
20630.0 0.00013021
20650.0 0.00013008
20670.0 0.00013006
20690.0 0.00013012
20710.0 0.00013024
20730.0 0.00013043
20750.0 0.00013068
20770.0 0.00013093
20790.0 0.00013121
20810.0 0.0001315
20830.0 0.00013177
20850.0 0.00013202
20870.0 0.00013225
20890.0 0.00013242
20910.0 0.00013253
20930.0 0.00013257
20950.0 0.00013255
20970.0 0.00013244
20990.0 0.00013225
21010.0 0.00013197
21030.0 0.0001316
21050.0 0.00013115
21070.0 0.00013061
21090.0 0.00012998
21110.0 0.00012929
21130.0 0.00012855
21150.0 0.00012773
21170.0 0.00012687
21190.0 0.00012599
21210.0 0.00012506
21230.0 0.0001241
21250.0 0.00012317
21270.0 0.00012224
21290.0 0.00012129
21310.0 0.00012037
21330.0 0.00011952
21350.0 0.00011868
21370.0 0.00011787
21390.0 0.00011714
21410.0 0.00011646
21430.0 0.00011582
21450.0 0.00011526
21470.0 0.00011479
21490.0 0.00011438
21510.0 0.00011405
21530.0 0.00011381
21550.0 0.00011365
21570.0 0.00011357
21590.0 0.00011359
21610.0 0.00011368
21630.0 0.00011387
21650.0 0.00011415
21670.0 0.00011448
21690.0 0.0001149
21710.0 0.00011539
21730.0 0.00011594
21750.0 0.00011651
21770.0 0.00011717
21790.0 0.00011786
21810.0 0.00011855
21830.0 0.00011925
21850.0 0.00011999
21870.0 0.00012069
21890.0 0.00012135
21910.0 0.00012202
21930.0 0.00012265
21950.0 0.00012321
21970.0 0.00012374
21990.0 0.00012423
22010.0 0.00012464
22030.0 0.00012497
22050.0 0.00012525
22070.0 0.00012545
22090.0 0.00012557
22110.0 0.00012563
22130.0 0.0001256
22150.0 0.0001255
22170.0 0.00012533
22190.0 0.00012507
22210.0 0.00012473
22230.0 0.00012432
22250.0 0.00012384
22270.0 0.00012327
22290.0 0.00012264
22310.0 0.00012195
22330.0 0.00012115
22350.0 0.0001203
22370.0 0.00011939
22390.0 0.00011841
22410.0 0.00011733
22430.0 0.00011623
22450.0 0.00011509
22470.0 0.00011385
22490.0 0.00011258
22510.0 0.0001113
22530.0 0.00010994
22550.0 0.00010852
22570.0 0.00010714
22590.0 0.00010574
22610.0 0.00010429
22630.0 0.00010286
22650.0 0.00010149
22670.0 0.0001001
22690.0 9.8728e-05
22710.0 9.7434e-05
22730.0 9.6186e-05
22750.0 9.4922e-05
22770.0 9.376e-05
22790.0 9.2686e-05
22810.0 9.1641e-05
22830.0 9.0651e-05
22850.0 8.976e-05
22870.0 8.8918e-05
22890.0 8.8107e-05
22910.0 8.7373e-05
22930.0 8.6705e-05
22950.0 8.6065e-05
22970.0 8.5459e-05
22990.0 8.4928e-05
23010.0 8.4421e-05
