#lamb flux
1010.0 8.8085e-07
1030.0 9.254e-07
1050.0 9.7703e-07
1070.0 1.0353e-06
1090.0 1.1015e-06
1110.0 1.1697e-06
1130.0 1.2386e-06
1150.0 1.3112e-06
1170.0 1.3864e-06
1190.0 1.4582e-06
1210.0 1.5315e-06
1230.0 1.6076e-06
1250.0 1.6828e-06
1270.0 1.7565e-06
1290.0 1.8348e-06
1310.0 1.9137e-06
1330.0 1.9903e-06
1350.0 2.0683e-06
1370.0 2.1495e-06
1390.0 2.2296e-06
1410.0 2.3084e-06
1430.0 2.3912e-06
1450.0 2.4748e-06
1470.0 2.5568e-06
1490.0 2.6403e-06
1510.0 2.7288e-06
1530.0 2.8139e-06
1550.0 2.8986e-06
1570.0 2.9865e-06
1590.0 3.075e-06
1610.0 3.1603e-06
1630.0 3.2482e-06
1650.0 3.3382e-06
1670.0 3.4256e-06
1690.0 3.5117e-06
1710.0 3.6003e-06
1730.0 3.6888e-06
1750.0 3.7716e-06
1770.0 3.8556e-06
1790.0 3.94e-06
1810.0 4.0203e-06
1830.0 4.0977e-06
1850.0 4.1779e-06
1870.0 4.2539e-06
1890.0 4.3252e-06
1910.0 4.3957e-06
1930.0 4.4657e-06
1950.0 4.5295e-06
1970.0 4.59e-06
1990.0 4.6507e-06
2010.0 4.7077e-06
2030.0 4.7596e-06
2050.0 4.8115e-06
2070.0 4.8632e-06
2090.0 4.9087e-06
2110.0 4.9523e-06
2130.0 4.9968e-06
2150.0 5.0389e-06
2170.0 5.0773e-06
2190.0 5.1181e-06
2210.0 5.1595e-06
2230.0 5.1987e-06
2250.0 5.2387e-06
2270.0 5.2834e-06
2290.0 5.3279e-06
2310.0 5.3721e-06
2330.0 5.4215e-06
2350.0 5.475e-06
2370.0 5.5296e-06
2390.0 5.5894e-06
2410.0 5.6572e-06
2430.0 5.7281e-06
2450.0 5.8034e-06
2470.0 5.8868e-06
2490.0 5.9793e-06
2510.0 6.0807e-06
2530.0 6.2079e-06
2550.0 6.3885e-06
2570.0 6.6556e-06
2590.0 7.0511e-06
2610.0 7.6766e-06
2630.0 8.575e-06
2650.0 9.7217e-06
2670.0 1.1145e-05
2690.0 1.282e-05
2710.0 1.4559e-05
2730.0 1.6264e-05
2750.0 1.7962e-05
2770.0 1.953e-05
2790.0 2.0936e-05
2810.0 2.227e-05
2830.0 2.3607e-05
2850.0 2.4886e-05
2870.0 2.6191e-05
2890.0 2.7582e-05
2910.0 2.9037e-05
2930.0 3.052e-05
2950.0 3.2107e-05
2970.0 3.379e-05
2990.0 3.5505e-05
3010.0 8.1451e-05
3030.0 8.5499e-05
3050.0 8.955e-05
3070.0 9.3273e-05
3090.0 9.6484e-05
3110.0 9.838e-05
3130.0 9.8003e-05
3150.0 9.428e-05
3170.0 8.5046e-05
3190.0 7.0056e-05
3210.0 4.9505e-05
3230.0 2.6313e-05
3250.0 5.1273e-05
3270.0 2.319e-05
3290.0 8.101e-05
3310.0 1.7823e-05
3330.0 1.7386e-05
3350.0 2.5185e-05
3370.0 3.4296e-05
3390.0 4.4096e-05
3410.0 5.3874e-05
3430.0 6.4143e-05
3450.0 7.4424e-05
3470.0 8.383e-05
3490.0 9.0067e-05
3510.0 0.0001128
3530.0 0.00015429
3550.0 0.00015034
3570.0 0.00012028
3590.0 0.00017357
3610.0 0.00010221
3630.0 0.000181
3650.0 0.00021233
3670.0 0.00027794
3690.0 0.00025831
3710.0 0.0001674
3730.0 0.00022785
3750.0 0.00023552
3770.0 0.00024758
3790.0 0.00022833
3810.0 0.00021484
3830.0 0.00033382
3850.0 0.00038974
3870.0 0.00048716
3890.0 0.0004597
3910.0 0.00040327
3930.0 0.00041857
3950.0 0.00046379
3970.0 0.00056999
3990.0 0.00040408
4010.0 0.0002269
4030.0 0.00036405
4050.0 0.00044439
4070.0 0.00050279
4090.0 0.00039765
4110.0 0.00024853
4130.0 0.00037187
4150.0 0.00035492
4170.0 0.00035892
4190.0 0.00034492
4210.0 0.00046136
4230.0 0.00031382
4250.0 0.00036612
4270.0 0.0003648
4290.0 0.00035967
4310.0 0.00045685
4330.0 0.00047589
4350.0 0.00036323
4370.0 0.00030197
4390.0 0.00038581
4410.0 0.00040336
4430.0 0.00030139
4450.0 0.00029517
4470.0 0.0003573
4490.0 0.00025707
4510.0 0.00033639
4530.0 0.00035614
4550.0 0.00046185
4570.0 0.00067833
4590.0 0.00064115
4610.0 0.00041385
4630.0 0.00071191
4650.0 0.0010337
4670.0 0.00095672
4690.0 0.00056606
4710.0 0.00062568
4730.0 0.00081171
4750.0 0.00070971
4770.0 0.00053163
4790.0 0.00034748
4810.0 0.00051576
4830.0 0.00060399
4850.0 0.00051645
4870.0 0.00014095
4890.0 0.00056375
4910.0 0.00080132
4930.0 0.0008634
4950.0 0.00084525
4970.0 0.00049725
4990.0 0.0005864
5010.0 0.00071732
5030.0 0.00081165
5050.0 0.0008038
5070.0 0.00056947
5090.0 0.00045908
5110.0 0.00043218
5130.0 0.00038961
5150.0 0.00043372
5170.0 0.00037496
5190.0 0.00046977
5210.0 0.00047233
5230.0 0.00052315
5250.0 0.00065604
5270.0 0.000531
5290.0 0.00052491
5310.0 0.00080994
5330.0 0.00094899
5350.0 0.00077794
5370.0 0.00067118
5390.0 0.00079328
5410.0 0.0010152
5430.0 0.001121
5450.0 0.0011922
5470.0 0.0011789
5490.0 0.0011516
5510.0 0.0013736
5530.0 0.0014325
5550.0 0.0015508
5570.0 0.0016669
5590.0 0.0016586
5610.0 0.001561
5630.0 0.0015114
5650.0 0.0015591
5670.0 0.0015418
5690.0 0.0013052
5710.0 0.0012835
5730.0 0.0013236
5750.0 0.0014533
5770.0 0.0012504
5790.0 0.0011511
5810.0 0.0011689
5830.0 0.0012487
5850.0 0.0011439
5870.0 0.0011654
5890.0 0.0014188
5910.0 0.0013443
5930.0 0.0010833
5950.0 0.00094125
5970.0 0.0010376
5990.0 0.00096153
6010.0 0.00090927
6030.0 0.00093075
6050.0 0.0008618
6070.0 0.00063144
6090.0 0.00056878
6110.0 0.00076246
6130.0 0.00088688
6150.0 0.00092618
6170.0 0.00088564
6190.0 0.00081498
6210.0 0.00080749
6230.0 0.00097613
6250.0 0.00090193
6270.0 0.00082347
6290.0 0.00076187
6310.0 0.00071689
6330.0 0.0006787
6350.0 0.00059086
6370.0 0.00058649
6390.0 0.00069574
6410.0 0.00087138
6430.0 0.0010073
6450.0 0.00094601
6470.0 0.00092009
6490.0 0.0011661
6510.0 0.0013597
6530.0 0.0012814
6550.0 0.0012177
6570.0 0.0012372
6590.0 0.0012044
6610.0 0.0013106
6630.0 0.0012214
6650.0 0.0010565
6670.0 0.00095314
6690.0 0.00094186
6710.0 0.0011801
6730.0 0.0010671
6750.0 0.000881
6770.0 0.00077546
6790.0 0.00081922
6810.0 0.00093513
6830.0 0.00091937
6850.0 0.00082329
6870.0 0.00086166
6890.0 0.00085472
6910.0 0.00080409
6930.0 0.00092612
6950.0 0.00084827
6970.0 0.00077869
6990.0 0.00077054
7010.0 0.00074843
7030.0 0.00071485
7050.0 0.00069708
7070.0 0.00077582
7090.0 0.00073724
7110.0 0.00062702
7130.0 0.00050595
7150.0 0.00046973
7170.0 0.00063443
7190.0 0.00068965
7210.0 0.00065349
7230.0 0.00067621
7250.0 0.00062589
7270.0 0.00059339
7290.0 0.00066351
7310.0 0.00075349
7330.0 0.00074263
7350.0 0.00069116
7370.0 0.0006462
7390.0 0.00066393
7410.0 0.00077621
7430.0 0.0008569
7450.0 0.00090394
7470.0 0.00088501
7490.0 0.00094068
7510.0 0.00091556
7530.0 0.00088573
7550.0 0.00087325
7570.0 0.00076541
7590.0 0.00075216
7610.0 0.00072463
7630.0 0.00065681
7650.0 0.00070904
7670.0 0.0007741
7690.0 0.00083854
7710.0 0.00094705
7730.0 0.0010013
7750.0 0.0010418
7770.0 0.0010539
7790.0 0.0011556
7810.0 0.0011803
7830.0 0.0010634
7850.0 0.0010689
7870.0 0.0010188
7890.0 0.0010667
7910.0 0.0010082
7930.0 0.0010137
7950.0 0.00086832
7970.0 0.0008842
7990.0 0.00084397
8010.0 0.00087338
8030.0 0.00086696
8050.0 0.00091506
8070.0 0.00087521
8090.0 0.00087672
8110.0 0.0008584
8130.0 0.00085506
8150.0 0.00080959
8170.0 0.00078819
8190.0 0.00077959
8210.0 0.00078466
8230.0 0.00068583
8250.0 0.00062459
8270.0 0.00054975
8290.0 0.00046317
8310.0 0.00040605
8330.0 0.00032471
8350.0 0.00026764
8370.0 0.00026595
8390.0 0.00026062
8410.0 0.00027114
8430.0 0.00034139
8450.0 0.00036761
8470.0 0.00039137
8490.0 0.00045466
8510.0 0.00049363
8530.0 0.00056447
8550.0 0.00066613
8570.0 0.00073279
8590.0 0.00077393
8610.0 0.0008489
8630.0 0.00094921
8650.0 0.00096648
8670.0 0.00098001
8690.0 0.0010184
8710.0 0.00099961
8730.0 0.00097561
8750.0 0.0009066
8770.0 0.00090603
8790.0 0.00089281
8810.0 0.00081992
8830.0 0.00082205
8850.0 0.00076261
8870.0 0.00072963
8890.0 0.00065623
8910.0 0.00071745
8930.0 0.00064887
8950.0 0.00064277
8970.0 0.00064954
8990.0 0.00062705
9010.0 0.00064249
9030.0 0.00061238
9050.0 0.00060915
9070.0 0.00060894
9090.0 0.00060859
9110.0 0.00060856
9130.0 0.000608
9150.0 0.00060718
9170.0 0.00060471
9190.0 0.00059973
9210.0 0.00060834
9230.0 0.00060524
9250.0 0.0006032
9270.0 0.00060136
9290.0 0.00059961
9310.0 0.00059795
9330.0 0.00059629
9350.0 0.0005946
9370.0 0.00059287
9390.0 0.00059109
9410.0 0.00058925
9430.0 0.00058735
9450.0 0.00058538
9470.0 0.00058337
9490.0 0.00058134
9510.0 0.00057925
9530.0 0.00057712
9550.0 0.00057496
9570.0 0.00057277
9590.0 0.00057054
9610.0 0.0005683
9630.0 0.00056604
9650.0 0.00056376
9670.0 0.00056146
9690.0 0.00055917
9710.0 0.00055687
9730.0 0.00055455
9750.0 0.00055224
9770.0 0.00054995
9790.0 0.00054765
9810.0 0.00054536
9830.0 0.00054309
9850.0 0.00054084
9870.0 0.00053858
9890.0 0.00053635
9910.0 0.00053416
9930.0 0.00053196
9950.0 0.00052868
9970.0 0.00052689
9990.0 0.00052508
10010.0 0.00052323
10030.0 0.00052133
10050.0 0.00051926
10070.0 0.00051643
10090.0 0.00051485
10110.0 0.00051323
10130.0 0.00051157
10150.0 0.00050991
10170.0 0.00050821
10190.0 0.00050647
10210.0 0.00050482
10230.0 0.00050322
10250.0 0.0005016
10270.0 0.00050003
10290.0 0.00049855
10310.0 0.00049708
10330.0 0.00049561
10350.0 0.00049425
10370.0 0.00049293
10390.0 0.00049162
10410.0 0.00049036
10430.0 0.00048921
10450.0 0.00048805
10470.0 0.00048692
10490.0 0.00048588
10510.0 0.00048488
10530.0 0.00048387
10550.0 0.00048293
10570.0 0.00048208
10590.0 0.00048124
10610.0 0.00048043
10630.0 0.0004797
10650.0 0.00047901
10670.0 0.00047832
10690.0 0.00047769
10710.0 0.00047714
10730.0 0.00047659
10750.0 0.00047606
10770.0 0.00047563
10790.0 0.00047522
10810.0 0.00047482
10830.0 0.00047446
10850.0 0.00047413
10870.0 0.00047371
10890.0 0.00047314
10910.0 0.00047235
10930.0 0.00047108
10950.0 0.00046898
10970.0 0.0004659
10990.0 0.00046174
11010.0 0.00046367
11030.0 0.00045641
11050.0 0.00044787
11070.0 0.00043796
11090.0 0.00042646
11110.0 0.00041496
11130.0 0.00040343
11150.0 0.00039155
11170.0 0.00037992
11190.0 0.00036924
11210.0 0.00035881
11230.0 0.00034873
11250.0 0.00033966
11270.0 0.00033139
11290.0 0.0003235
11310.0 0.00031632
11330.0 0.00031017
11350.0 0.00030441
11370.0 0.00029903
11390.0 0.00029421
11410.0 0.00028975
11430.0 0.00028521
11450.0 0.00028086
11470.0 0.00027665
11490.0 0.00027227
11510.0 0.00026758
11530.0 0.00026294
11550.0 0.00025814
11570.0 0.00025292
11590.0 0.00024752
11610.0 0.00024214
11630.0 0.00023636
11650.0 0.00023028
11670.0 0.00022441
11690.0 0.0002185
11710.0 0.00021237
11730.0 0.00020638
11750.0 0.00020076
11770.0 0.00019506
11790.0 0.00018947
11810.0 0.0001843
11830.0 0.00017938
11850.0 0.00017444
11870.0 0.00016992
11890.0 0.00016581
11910.0 0.00016179
11930.0 0.00015794
11950.0 0.00015444
11970.0 0.00015108
11990.0 0.0001477
12010.0 0.00014456
12030.0 0.00014162
12050.0 0.00013869
12070.0 0.0001358
12090.0 0.00013323
12110.0 0.00013075
12130.0 0.00012835
12150.0 0.00012621
12170.0 0.00012436
12190.0 0.00012265
12210.0 0.00012129
12230.0 0.00012035
12250.0 0.0001198
12270.0 0.00011969
12290.0 0.00012008
12310.0 0.00012095
12330.0 0.00012234
12350.0 0.00012424
12370.0 0.00012655
12390.0 0.00012928
12410.0 0.0001325
12430.0 0.00013586
12450.0 0.00013936
12470.0 0.00014306
12490.0 0.00014676
12510.0 0.00015026
12530.0 0.00015372
12550.0 0.00015704
12570.0 0.00016002
12590.0 0.00016272
12610.0 0.0001652
12630.0 0.00016736
12650.0 0.00016914
12670.0 0.00017068
12690.0 0.00017193
12710.0 0.00017291
12730.0 0.00017366
12750.0 0.00017416
12770.0 0.00017444
12790.0 0.00017454
12810.0 0.00017443
12830.0 0.00017409
12850.0 0.00017362
12870.0 0.00017297
12890.0 0.00017208
12910.0 0.00017101
12930.0 0.0001698
12950.0 0.00016833
12970.0 0.00016659
12990.0 0.00016476
13010.0 0.00016275
13030.0 0.00016046
13050.0 0.00015805
13070.0 0.00015563
13090.0 0.00015298
13110.0 0.00015023
13130.0 0.00014758
13150.0 0.00014496
13170.0 0.00014227
13190.0 0.00013983
13210.0 0.00013767
13230.0 0.00013567
13250.0 0.00013394
13270.0 0.0001326
13290.0 0.00013154
13310.0 0.00013077
13330.0 0.00013036
13350.0 0.00013022
13370.0 0.0001303
13390.0 0.00013055
13410.0 0.0001309
13430.0 0.00013127
13450.0 0.00013158
13470.0 0.00013179
13490.0 0.00013183
13510.0 0.00013164
13530.0 0.0001312
13550.0 0.00013055
13570.0 0.00012966
13590.0 0.00012851
13610.0 0.00012723
13630.0 0.00012587
13650.0 0.00012434
13670.0 0.00012279
13690.0 0.0001213
13710.0 0.00011982
13730.0 0.00011833
13750.0 0.00011701
13770.0 0.00011578
13790.0 0.00011459
13810.0 0.00011349
13830.0 0.00011249
13850.0 0.00011149
13870.0 0.0001105
13890.0 0.00010956
13910.0 0.00010861
13930.0 0.00010762
13950.0 0.00010661
13970.0 0.00010565
13990.0 0.00010464
14010.0 0.00010363
14030.0 0.00010267
14050.0 0.00010176
14070.0 0.00010085
14090.0 0.00010004
14110.0 9.9327e-05
14130.0 9.8691e-05
14150.0 9.8147e-05
14170.0 9.7722e-05
14190.0 9.7395e-05
14210.0 9.7166e-05
14230.0 9.7042e-05
14250.0 9.7012e-05
14270.0 9.7087e-05
14290.0 9.7269e-05
14310.0 9.7524e-05
14330.0 9.7863e-05
14350.0 9.83e-05
14370.0 9.879e-05
14390.0 9.9304e-05
14410.0 9.9886e-05
14430.0 0.00010049
14450.0 0.00010107
14470.0 0.00010164
14490.0 0.00010222
14510.0 0.00010274
14530.0 0.0001032
14550.0 0.00010366
14570.0 0.0001041
14590.0 0.00010451
14610.0 0.00010494
14630.0 0.00010544
14650.0 0.00010598
14670.0 0.00010659
14690.0 0.00010735
14710.0 0.00010827
14730.0 0.00010926
14750.0 0.00011043
14770.0 0.00011182
14790.0 0.00011332
14810.0 0.00011492
14830.0 0.00011679
14850.0 0.00011874
14870.0 0.00012066
14890.0 0.00012263
14910.0 0.00012463
14930.0 0.00012641
14950.0 0.00012795
14970.0 0.00012931
14990.0 0.00013029
15010.0 0.00013087
15030.0 0.00013112
15050.0 0.00013106
15070.0 0.00013072
15090.0 0.0001302
15110.0 0.00012956
15130.0 0.00012884
15150.0 0.00012809
15170.0 0.00012731
15190.0 0.00012652
15210.0 0.00012573
15230.0 0.00012494
15250.0 0.00012415
15270.0 0.00012335
15290.0 0.00012257
15310.0 0.00012178
15330.0 0.00012099
15350.0 0.00012021
15370.0 0.00011944
15390.0 0.00011865
15410.0 0.00011787
15430.0 0.0001171
15450.0 0.00011632
15470.0 0.00011555
15490.0 0.00011478
15510.0 0.00011402
15530.0 0.00011326
15550.0 0.0001125
15570.0 0.00011175
15590.0 0.00011099
15610.0 0.00011024
15630.0 0.0001095
15650.0 0.00010876
15670.0 0.00010801
15690.0 0.00010728
15710.0 0.00010656
15730.0 0.00010583
15750.0 0.0001051
15770.0 0.00010439
15790.0 0.00010368
15810.0 0.00010296
15830.0 0.00010225
15850.0 0.00010156
15870.0 0.00010086
15890.0 0.00010017
15910.0 9.9486e-05
15930.0 9.8805e-05
15950.0 9.8121e-05
15970.0 9.7449e-05
15990.0 9.6785e-05
16010.0 9.6119e-05
16030.0 9.5455e-05
16050.0 9.4808e-05
16070.0 9.4161e-05
16090.0 9.3513e-05
16110.0 9.2876e-05
16130.0 9.2248e-05
16150.0 9.1612e-05
16170.0 9.0985e-05
16190.0 9.0371e-05
16210.0 8.9757e-05
16230.0 8.9143e-05
16250.0 8.8542e-05
16270.0 8.7948e-05
16290.0 8.735e-05
16310.0 8.676e-05
16330.0 8.6181e-05
16350.0 8.5602e-05
16370.0 8.5019e-05
16390.0 8.4454e-05
16410.0 8.3893e-05
16430.0 8.3331e-05
16450.0 8.2776e-05
16470.0 8.2233e-05
16490.0 8.1687e-05
16510.0 8.1143e-05
16530.0 8.0611e-05
16550.0 8.0084e-05
16570.0 7.9554e-05
16590.0 7.9031e-05
16610.0 7.8522e-05
16630.0 7.8011e-05
16650.0 7.7502e-05
16670.0 7.7005e-05
16690.0 7.6512e-05
16710.0 7.6012e-05
16730.0 7.5525e-05
16750.0 7.5046e-05
16770.0 7.4566e-05
16790.0 7.4088e-05
16810.0 7.3623e-05
16830.0 7.3161e-05
16850.0 7.2697e-05
16870.0 7.2241e-05
16890.0 7.1794e-05
16910.0 7.1343e-05
16930.0 7.0894e-05
16950.0 7.046e-05
16970.0 7.0027e-05
16990.0 6.9592e-05
17010.0 6.9166e-05
17030.0 6.8749e-05
17050.0 6.8328e-05
17070.0 6.7911e-05
17090.0 6.7504e-05
17110.0 6.7098e-05
17130.0 6.6689e-05
17150.0 6.6291e-05
17170.0 6.59e-05
17190.0 6.5507e-05
17210.0 6.5117e-05
17230.0 6.4739e-05
17250.0 6.4359e-05
17270.0 6.3976e-05
17290.0 6.3604e-05
17310.0 6.3238e-05
17330.0 6.2869e-05
17350.0 6.2502e-05
17370.0 6.2149e-05
17390.0 6.1794e-05
17410.0 6.1438e-05
17430.0 6.1091e-05
17450.0 6.075e-05
17470.0 6.0401e-05
17490.0 6.0059e-05
17510.0 5.9727e-05
17530.0 5.9394e-05
17550.0 5.906e-05
17570.0 5.8735e-05
17590.0 5.8416e-05
17610.0 5.8091e-05
17630.0 5.7772e-05
17650.0 5.7461e-05
17670.0 5.7148e-05
17690.0 5.6831e-05
17710.0 5.6528e-05
17730.0 5.6228e-05
17750.0 5.5924e-05
17770.0 5.5625e-05
17790.0 5.5335e-05
17810.0 5.504e-05
17830.0 5.4746e-05
17850.0 5.446e-05
17870.0 5.4178e-05
17890.0 5.389e-05
17910.0 5.3608e-05
17930.0 5.3336e-05
17950.0 5.306e-05
17970.0 5.2784e-05
17990.0 5.2518e-05
18010.0 5.2253e-05
18030.0 5.198e-05
18050.0 5.1716e-05
18070.0 5.1459e-05
18090.0 5.1199e-05
18110.0 5.0938e-05
18130.0 5.0688e-05
18150.0 5.0438e-05
18170.0 5.0184e-05
18190.0 4.9936e-05
18210.0 4.9695e-05
18230.0 4.9447e-05
18250.0 4.92e-05
18270.0 4.8965e-05
18290.0 4.8728e-05
18310.0 4.8489e-05
18330.0 4.8256e-05
18350.0 4.8029e-05
18370.0 4.7795e-05
18390.0 4.7565e-05
18410.0 4.7342e-05
18430.0 4.7118e-05
18450.0 4.6888e-05
18470.0 4.6669e-05
18490.0 4.6454e-05
18510.0 4.6234e-05
18530.0 4.6016e-05
18550.0 4.5807e-05
18570.0 4.5595e-05
18590.0 4.5378e-05
18610.0 4.5171e-05
18630.0 4.4966e-05
18650.0 4.4757e-05
18670.0 4.4549e-05
18690.0 4.4352e-05
18710.0 4.4151e-05
18730.0 4.3948e-05
18750.0 4.3751e-05
18770.0 4.3559e-05
18790.0 4.3357e-05
18810.0 4.3161e-05
18830.0 4.2973e-05
18850.0 4.2781e-05
18870.0 4.2588e-05
18890.0 4.2402e-05
18910.0 4.2219e-05
18930.0 4.2029e-05
18950.0 4.1844e-05
18970.0 4.1664e-05
18990.0 4.1482e-05
19010.0 4.1294e-05
19030.0 4.1119e-05
19050.0 4.0943e-05
19070.0 4.0763e-05
19090.0 4.0587e-05
19110.0 4.0418e-05
19130.0 4.0242e-05
19150.0 4.0066e-05
19170.0 3.9898e-05
19190.0 3.9729e-05
19210.0 3.9556e-05
19230.0 3.9387e-05
19250.0 3.9225e-05
19270.0 3.9058e-05
19290.0 3.8891e-05
19310.0 3.8731e-05
19330.0 3.8571e-05
19350.0 3.8403e-05
19370.0 3.8242e-05
19390.0 3.8086e-05
19410.0 3.7925e-05
19430.0 3.7764e-05
19450.0 3.7612e-05
19470.0 3.7457e-05
19490.0 3.7299e-05
19510.0 3.7145e-05
19530.0 3.6996e-05
19550.0 3.684e-05
19570.0 3.6684e-05
19590.0 3.6537e-05
19610.0 3.6388e-05
19630.0 3.6236e-05
19650.0 3.6089e-05
19670.0 3.5946e-05
19690.0 3.5795e-05
19710.0 3.5647e-05
19730.0 3.5505e-05
19750.0 3.5361e-05
19770.0 3.5211e-05
19790.0 3.5069e-05
19810.0 3.493e-05
19830.0 3.4785e-05
19850.0 3.464e-05
19870.0 3.4498e-05
19890.0 3.4344e-05
19910.0 3.4173e-05
19930.0 3.3987e-05
19950.0 3.3771e-05
19970.0 3.3501e-05
19990.0 3.3171e-05
20010.0 3.2797e-05
20030.0 3.2344e-05
20050.0 3.1819e-05
20070.0 3.126e-05
20090.0 3.067e-05
20110.0 3.0017e-05
20130.0 2.9375e-05
20150.0 2.8757e-05
20170.0 2.8133e-05
20190.0 2.7516e-05
20210.0 2.695e-05
20230.0 2.6411e-05
20250.0 2.5883e-05
20270.0 2.5407e-05
20290.0 2.4985e-05
20310.0 2.4595e-05
20330.0 2.4246e-05
20350.0 2.3974e-05
20370.0 2.375e-05
20390.0 2.3578e-05
20410.0 2.3469e-05
20430.0 2.3421e-05
20450.0 2.3429e-05
20470.0 2.35e-05
20490.0 2.3626e-05
20510.0 2.3807e-05
20530.0 2.4049e-05
20550.0 2.4335e-05
20570.0 2.4652e-05
20590.0 2.5018e-05
20610.0 2.5416e-05
20630.0 2.5822e-05
20650.0 2.6247e-05
20670.0 2.6698e-05
20690.0 2.7129e-05
20710.0 2.7542e-05
20730.0 2.795e-05
20750.0 2.8335e-05
20770.0 2.8674e-05
20790.0 2.8988e-05
20810.0 2.9274e-05
20830.0 2.9514e-05
20850.0 2.9715e-05
20870.0 2.9888e-05
20890.0 3.0026e-05
20910.0 3.0127e-05
20930.0 3.0204e-05
20950.0 3.0257e-05
20970.0 3.0286e-05
20990.0 3.0297e-05
21010.0 3.0288e-05
21030.0 3.0261e-05
21050.0 3.0219e-05
21070.0 3.0159e-05
21090.0 3.008e-05
21110.0 2.9989e-05
21130.0 2.9886e-05
21150.0 2.9764e-05
21170.0 2.9632e-05
21190.0 2.9497e-05
21210.0 2.9349e-05
21230.0 2.9193e-05
21250.0 2.9044e-05
21270.0 2.8898e-05
21290.0 2.8753e-05
21310.0 2.8619e-05
21330.0 2.8503e-05
21350.0 2.8397e-05
21370.0 2.8306e-05
21390.0 2.8238e-05
21410.0 2.819e-05
21430.0 2.816e-05
21450.0 2.8154e-05
21470.0 2.817e-05
21490.0 2.8206e-05
21510.0 2.8264e-05
21530.0 2.8339e-05
21550.0 2.8433e-05
21570.0 2.8547e-05
21590.0 2.8676e-05
21610.0 2.8817e-05
21630.0 2.8976e-05
21650.0 2.9154e-05
21670.0 2.9334e-05
21690.0 2.9529e-05
21710.0 2.9743e-05
21730.0 2.9964e-05
21750.0 3.0191e-05
21770.0 3.0443e-05
21790.0 3.0707e-05
21810.0 3.0974e-05
21830.0 3.1255e-05
21850.0 3.1559e-05
21870.0 3.1867e-05
21890.0 3.2175e-05
21910.0 3.2505e-05
21930.0 3.2844e-05
21950.0 3.3177e-05
21970.0 3.3518e-05
21990.0 3.3876e-05
22010.0 3.4215e-05
22030.0 3.4545e-05
22050.0 3.4876e-05
22070.0 3.5194e-05
22090.0 3.5481e-05
22110.0 3.5753e-05
22130.0 3.6006e-05
22150.0 3.622e-05
22170.0 3.6399e-05
22190.0 3.6547e-05
22210.0 3.6649e-05
22230.0 3.6703e-05
22250.0 3.6712e-05
22270.0 3.6669e-05
22290.0 3.6578e-05
22310.0 3.644e-05
22330.0 3.624e-05
22350.0 3.5991e-05
22370.0 3.5703e-05
22390.0 3.5361e-05
22410.0 3.4961e-05
22430.0 3.454e-05
22450.0 3.4087e-05
22470.0 3.3585e-05
22490.0 3.3061e-05
22510.0 3.2535e-05
22530.0 3.1969e-05
22550.0 3.138e-05
22570.0 3.0811e-05
22590.0 3.0241e-05
22610.0 2.9655e-05
22630.0 2.9084e-05
22650.0 2.8549e-05
22670.0 2.8008e-05
