#lamb flux
1010.0 7.9332e-06
1030.0 8.2918e-06
1050.0 8.7063e-06
1070.0 9.1735e-06
1090.0 9.7045e-06
1110.0 1.0251e-05
1130.0 1.0802e-05
1150.0 1.1381e-05
1170.0 1.1981e-05
1190.0 1.2552e-05
1210.0 1.3133e-05
1230.0 1.3736e-05
1250.0 1.433e-05
1270.0 1.4911e-05
1290.0 1.5526e-05
1310.0 1.6145e-05
1330.0 1.6743e-05
1350.0 1.7351e-05
1370.0 1.7982e-05
1390.0 1.8603e-05
1410.0 1.921e-05
1430.0 1.9848e-05
1450.0 2.049e-05
1470.0 2.1117e-05
1490.0 2.1754e-05
1510.0 2.2429e-05
1530.0 2.3075e-05
1550.0 2.3717e-05
1570.0 2.4382e-05
1590.0 2.5051e-05
1610.0 2.5695e-05
1630.0 2.6359e-05
1650.0 2.704e-05
1670.0 2.7702e-05
1690.0 2.8354e-05
1710.0 2.9029e-05
1730.0 2.9705e-05
1750.0 3.0341e-05
1770.0 3.0989e-05
1790.0 3.1646e-05
1810.0 3.2277e-05
1830.0 3.2891e-05
1850.0 3.3534e-05
1870.0 3.4153e-05
1890.0 3.4743e-05
1910.0 3.5337e-05
1930.0 3.5937e-05
1950.0 3.65e-05
1970.0 3.7048e-05
1990.0 3.761e-05
2010.0 3.8155e-05
2030.0 3.8673e-05
2050.0 3.9204e-05
2070.0 3.9747e-05
2090.0 4.0254e-05
2110.0 4.0759e-05
2130.0 4.1286e-05
2150.0 4.1806e-05
2170.0 4.231e-05
2190.0 4.2845e-05
2210.0 4.3399e-05
2230.0 4.3946e-05
2250.0 4.4511e-05
2270.0 4.5124e-05
2290.0 4.5747e-05
2310.0 4.6375e-05
2330.0 4.7055e-05
2350.0 4.7777e-05
2370.0 4.8515e-05
2390.0 4.9303e-05
2410.0 5.0166e-05
2430.0 5.1058e-05
2450.0 5.1981e-05
2470.0 5.2953e-05
2490.0 5.3949e-05
2510.0 5.493e-05
2530.0 5.5974e-05
2550.0 5.7217e-05
2570.0 5.8865e-05
2590.0 6.1221e-05
2610.0 6.4935e-05
2630.0 7.042e-05
2650.0 7.768e-05
2670.0 8.7004e-05
2690.0 9.8392e-05
2710.0 0.00011074
2730.0 0.00012339
2750.0 0.0001366
2770.0 0.00014942
2790.0 0.00016149
2810.0 0.00017336
2830.0 0.00018555
2850.0 0.00019738
2870.0 0.00020945
2890.0 0.00022227
2910.0 0.00023558
2930.0 0.000249
2950.0 0.00026324
2970.0 0.00027819
2990.0 0.00029327
3010.0 0.00054525
3030.0 0.00057373
3050.0 0.00060242
3070.0 0.00062943
3090.0 0.00065464
3110.0 0.00067437
3130.0 0.00068374
3150.0 0.00067773
3170.0 0.00064638
3190.0 0.0005868
3210.0 0.00049903
3230.0 0.00039725
3250.0 0.00047265
3270.0 0.00029149
3290.0 0.00049713
3310.0 0.00022
3330.0 0.00023545
3350.0 0.00028846
3370.0 0.00034645
3390.0 0.00040681
3410.0 0.00046688
3430.0 0.00052892
3450.0 0.0005906
3470.0 0.00064799
3490.0 0.00068718
3510.0 0.00079429
3530.0 0.0010064
3550.0 0.0010815
3570.0 0.0010785
3590.0 0.0014185
3610.0 0.0011755
3630.0 0.0014812
3650.0 0.0015495
3670.0 0.0018309
3690.0 0.0018775
3710.0 0.0016844
3730.0 0.0020665
3750.0 0.0021536
3770.0 0.0021888
3790.0 0.002026
3810.0 0.0017568
3830.0 0.0019045
3850.0 0.0018128
3870.0 0.002125
3890.0 0.0021731
3910.0 0.0022668
3930.0 0.0025787
3950.0 0.0028641
3970.0 0.0035587
3990.0 0.0033422
4010.0 0.0028178
4030.0 0.0031335
4050.0 0.0030421
4070.0 0.0031836
4090.0 0.0030194
4110.0 0.0025003
4130.0 0.0028815
4150.0 0.0026904
4170.0 0.0027969
4190.0 0.002786
4210.0 0.0031581
4230.0 0.0026165
4250.0 0.0029753
4270.0 0.0029717
4290.0 0.0030119
4310.0 0.0033974
4330.0 0.0035357
4350.0 0.0031649
4370.0 0.002969
4390.0 0.0031086
4410.0 0.0029233
4430.0 0.0023679
4450.0 0.0022946
4470.0 0.0024828
4490.0 0.002167
4510.0 0.0024935
4530.0 0.0027289
4550.0 0.003448
4570.0 0.0047545
4590.0 0.0052067
4610.0 0.0046649
4630.0 0.006004
4650.0 0.0074156
4670.0 0.007162
4690.0 0.0054535
4710.0 0.0053499
4730.0 0.0056225
4750.0 0.0048466
4770.0 0.0038829
4790.0 0.0031137
4810.0 0.0038527
4830.0 0.0043443
4850.0 0.0044107
4870.0 0.0030934
4890.0 0.0047679
4910.0 0.0056842
4930.0 0.0061346
4950.0 0.0066103
4970.0 0.0057381
4990.0 0.0062125
5010.0 0.0062366
5030.0 0.0058269
5050.0 0.0052204
5070.0 0.0039713
5090.0 0.0034305
5110.0 0.0032857
5130.0 0.003081
5150.0 0.0033812
5170.0 0.0031226
5190.0 0.0035413
5210.0 0.0035687
5230.0 0.0038641
5250.0 0.0047297
5270.0 0.0046279
5290.0 0.0048115
5310.0 0.0060307
5330.0 0.0067401
5350.0 0.0063621
5370.0 0.0060303
5390.0 0.0062476
5410.0 0.006862
5430.0 0.0072653
5450.0 0.007984
5470.0 0.0087379
5490.0 0.0093326
5510.0 0.010607
5530.0 0.010945
5550.0 0.011225
5570.0 0.011372
5590.0 0.011192
5610.0 0.010883
5630.0 0.01072
5650.0 0.010836
5670.0 0.010737
5690.0 0.0096551
5710.0 0.0089913
5730.0 0.0085027
5750.0 0.008601
5770.0 0.0078218
5790.0 0.0075796
5810.0 0.0078535
5830.0 0.0081706
5850.0 0.007728
5870.0 0.0075375
5890.0 0.0080877
5910.0 0.007816
5930.0 0.007076
5950.0 0.0065673
5970.0 0.0065854
5990.0 0.0059456
6010.0 0.0053773
6030.0 0.0052064
6050.0 0.0049727
6070.0 0.0043188
6090.0 0.0041161
6110.0 0.0046313
6130.0 0.0049828
6150.0 0.0052714
6170.0 0.005502
6190.0 0.0056613
6210.0 0.0057517
6230.0 0.0061227
6250.0 0.0056465
6270.0 0.0050713
6290.0 0.0044921
6310.0 0.0040885
6330.0 0.0038392
6350.0 0.0035473
6370.0 0.0036275
6390.0 0.0041771
6410.0 0.0050348
6430.0 0.0058834
6450.0 0.0061287
6470.0 0.0063989
6490.0 0.0072986
6510.0 0.0078507
6530.0 0.0076306
6550.0 0.007537
6570.0 0.0076323
6590.0 0.0074614
6610.0 0.0077911
6630.0 0.0075182
6650.0 0.0070307
6670.0 0.0064957
6690.0 0.0060686
6710.0 0.0064895
6730.0 0.0060795
6750.0 0.0057104
6770.0 0.005559
6790.0 0.0057754
6810.0 0.0060606
6830.0 0.005923
6850.0 0.0055697
6870.0 0.0055366
6890.0 0.0053366
6910.0 0.0050673
6930.0 0.0054688
6950.0 0.0053273
6970.0 0.0053112
6990.0 0.0054356
7010.0 0.0052919
7030.0 0.0049671
7050.0 0.0045816
7070.0 0.0044277
7090.0 0.0040519
7110.0 0.0036618
7130.0 0.0032514
7150.0 0.0030547
7170.0 0.0035192
7190.0 0.0037144
7210.0 0.0037735
7230.0 0.0040675
7250.0 0.0040995
7270.0 0.0040763
7290.0 0.004214
7310.0 0.0042981
7330.0 0.0041156
7350.0 0.0039282
7370.0 0.0038795
7390.0 0.0040934
7410.0 0.0046373
7430.0 0.0051125
7450.0 0.005625
7470.0 0.0058446
7490.0 0.0059917
7510.0 0.0057323
7530.0 0.0055057
7550.0 0.0050953
7570.0 0.0044165
7590.0 0.0042376
7610.0 0.0041911
7630.0 0.0042074
7650.0 0.0047128
7670.0 0.0052008
7690.0 0.0056691
7710.0 0.0061859
7730.0 0.0065746
7750.0 0.0068758
7770.0 0.0069237
7790.0 0.0073274
7810.0 0.0075362
7830.0 0.0072861
7850.0 0.0073213
7870.0 0.0070133
7890.0 0.0070344
7910.0 0.0066513
7930.0 0.006584
7950.0 0.0061395
7970.0 0.0062457
7990.0 0.0060937
8010.0 0.0059826
8030.0 0.0059781
8050.0 0.006198
8070.0 0.0060449
8090.0 0.0060523
8110.0 0.0058546
8130.0 0.005833
8150.0 0.0056297
8170.0 0.0054695
8190.0 0.0053963
8210.0 0.0054344
8230.0 0.0049663
8250.0 0.0045897
8270.0 0.0040073
8290.0 0.0032733
8310.0 0.002666
8330.0 0.0020918
8350.0 0.0018003
8370.0 0.0019357
8390.0 0.002107
8410.0 0.0022925
8430.0 0.0026692
8450.0 0.0028323
8470.0 0.0029709
8490.0 0.0033401
8510.0 0.0036715
8530.0 0.0042501
8550.0 0.0050158
8570.0 0.0056595
8590.0 0.0061581
8610.0 0.0066738
8630.0 0.0071671
8650.0 0.0072559
8670.0 0.0072967
8690.0 0.0075463
8710.0 0.0075595
8730.0 0.0075981
8750.0 0.0073282
8770.0 0.0073333
8790.0 0.0072242
8810.0 0.0067005
8830.0 0.0066092
8850.0 0.0062398
8870.0 0.005991
8890.0 0.005609
8910.0 0.0058596
8930.0 0.0054467
8950.0 0.0052996
8970.0 0.0052601
8990.0 0.0051064
9010.0 0.0051062
9030.0 0.0049416
9050.0 0.0049135
9070.0 0.0049032
9090.0 0.0048924
9110.0 0.0048827
9130.0 0.0048707
9150.0 0.0048578
9170.0 0.0048359
9190.0 0.0048005
9210.0 0.004838
9230.0 0.0048125
9250.0 0.0047928
9270.0 0.004774
9290.0 0.0047558
9310.0 0.004738
9330.0 0.0047202
9350.0 0.0047022
9370.0 0.004684
9390.0 0.0046656
9410.0 0.0046467
9430.0 0.0046274
9450.0 0.0046072
9470.0 0.0045869
9490.0 0.0045676
9510.0 0.0045478
9530.0 0.0045277
9550.0 0.0045071
9570.0 0.0044863
9590.0 0.0044654
9610.0 0.0044443
9630.0 0.004423
9650.0 0.0044016
9670.0 0.0043802
9690.0 0.0043587
9710.0 0.004337
9730.0 0.0043154
9750.0 0.0042938
9770.0 0.004272
9790.0 0.0042504
9810.0 0.0042287
9830.0 0.0042071
9850.0 0.0041855
9870.0 0.004164
9890.0 0.0041425
9910.0 0.004121
9930.0 0.0040995
9950.0 0.0040599
9970.0 0.0040442
9990.0 0.0040276
10010.0 0.0040106
10030.0 0.0039921
10050.0 0.0039721
10070.0 0.0039498
10090.0 0.0039314
10110.0 0.0039117
10130.0 0.0038926
10150.0 0.0038735
10170.0 0.0038539
10190.0 0.0038336
10210.0 0.0038145
10230.0 0.0037958
10250.0 0.0037765
10270.0 0.0037575
10290.0 0.0037395
10310.0 0.0037209
10330.0 0.0037019
10350.0 0.003684
10370.0 0.0036665
10390.0 0.0036483
10410.0 0.0036305
10430.0 0.0036138
10450.0 0.0035966
10470.0 0.0035792
10490.0 0.0035626
10510.0 0.0035464
10530.0 0.0035291
10550.0 0.0035126
10570.0 0.003497
10590.0 0.0034809
10610.0 0.0034646
10630.0 0.0034494
10650.0 0.0034343
10670.0 0.0034183
10690.0 0.0034031
10710.0 0.0033884
10730.0 0.0033733
10750.0 0.0033578
10770.0 0.0033437
10790.0 0.0033294
10810.0 0.0033146
10830.0 0.0033003
10850.0 0.0032866
10870.0 0.0032714
10890.0 0.0032557
10910.0 0.0032397
10930.0 0.0032214
10950.0 0.0031991
10970.0 0.003173
10990.0 0.0031432
11010.0 0.0029774
11030.0 0.0029383
11050.0 0.0028958
11070.0 0.0028487
11090.0 0.0027953
11110.0 0.0027431
11130.0 0.002691
11150.0 0.0026369
11170.0 0.002583
11190.0 0.0025327
11210.0 0.002482
11230.0 0.0024309
11250.0 0.0023831
11270.0 0.0023378
11290.0 0.0022923
11310.0 0.0022489
11330.0 0.0022107
11350.0 0.0021735
11370.0 0.0021379
11390.0 0.0021059
11410.0 0.0020765
11430.0 0.0020468
11450.0 0.0020192
11470.0 0.0019936
11490.0 0.0019677
11510.0 0.0019406
11530.0 0.0019145
11550.0 0.0018877
11570.0 0.0018581
11590.0 0.0018273
11610.0 0.001796
11630.0 0.0017615
11650.0 0.001724
11670.0 0.001687
11690.0 0.0016488
11710.0 0.0016082
11730.0 0.0015677
11750.0 0.0015292
11770.0 0.0014894
11790.0 0.0014501
11810.0 0.0014136
11830.0 0.0013789
11850.0 0.001344
11870.0 0.0013125
11890.0 0.0012843
11910.0 0.0012571
11930.0 0.0012315
11950.0 0.001209
11970.0 0.0011878
11990.0 0.0011671
12010.0 0.0011484
12030.0 0.0011313
12050.0 0.0011145
12070.0 0.0010982
12090.0 0.001084
12110.0 0.0010704
12130.0 0.0010571
12150.0 0.0010453
12170.0 0.0010351
12190.0 0.0010252
12210.0 0.0010172
12230.0 0.0010116
12250.0 0.001008
12270.0 0.0010067
12290.0 0.0010084
12310.0 0.0010131
12330.0 0.0010209
12350.0 0.001032
12370.0 0.0010462
12390.0 0.0010634
12410.0 0.0010843
12430.0 0.0011068
12450.0 0.0011311
12470.0 0.0011575
12490.0 0.0011848
12510.0 0.0012116
12530.0 0.0012388
12550.0 0.0012658
12570.0 0.001291
12590.0 0.0013147
12610.0 0.0013372
12630.0 0.0013575
12650.0 0.0013751
12670.0 0.0013908
12690.0 0.0014044
12710.0 0.0014155
12730.0 0.0014245
12750.0 0.0014313
12770.0 0.0014361
12790.0 0.0014389
12810.0 0.0014399
12830.0 0.0014388
12850.0 0.0014364
12870.0 0.0014325
12890.0 0.0014268
12910.0 0.0014198
12930.0 0.0014121
12950.0 0.0014025
12970.0 0.0013914
12990.0 0.00138
13010.0 0.0013675
13030.0 0.0013533
13050.0 0.0013384
13070.0 0.0013233
13090.0 0.0013067
13110.0 0.0012892
13130.0 0.0012719
13150.0 0.0012545
13170.0 0.0012361
13190.0 0.001219
13210.0 0.0012034
13230.0 0.0011885
13250.0 0.0011752
13270.0 0.0011646
13290.0 0.0011561
13310.0 0.0011496
13330.0 0.0011461
13350.0 0.001145
13370.0 0.001146
13390.0 0.0011488
13410.0 0.0011529
13430.0 0.0011576
13450.0 0.0011625
13470.0 0.0011666
13490.0 0.0011695
13510.0 0.0011705
13530.0 0.0011693
13550.0 0.0011657
13570.0 0.0011596
13590.0 0.0011505
13610.0 0.0011395
13630.0 0.0011269
13650.0 0.001112
13670.0 0.001096
13690.0 0.0010799
13710.0 0.0010633
13730.0 0.0010459
13750.0 0.00103
13770.0 0.0010149
13790.0 0.001
13810.0 0.00098625
13830.0 0.00097394
13850.0 0.00096209
13870.0 0.00095087
13890.0 0.00094078
13910.0 0.0009314
13930.0 0.00092222
13950.0 0.00091361
13970.0 0.00090584
13990.0 0.00089822
14010.0 0.00089089
14030.0 0.00088418
14050.0 0.00087789
14070.0 0.00087175
14090.0 0.00086622
14110.0 0.00086129
14130.0 0.00085674
14150.0 0.00085264
14170.0 0.00084917
14190.0 0.00084619
14210.0 0.00084367
14230.0 0.00084169
14250.0 0.00084022
14270.0 0.00083928
14290.0 0.00083892
14310.0 0.00083901
14330.0 0.00083958
14350.0 0.00084069
14370.0 0.00084213
14390.0 0.00084373
14410.0 0.00084567
14430.0 0.0008477
14450.0 0.00084954
14470.0 0.00085123
14490.0 0.00085284
14510.0 0.00085395
14530.0 0.00085462
14550.0 0.00085505
14570.0 0.00085518
14590.0 0.00085501
14610.0 0.00085482
14630.0 0.00085482
14650.0 0.00085502
14670.0 0.00085564
14690.0 0.00085705
14710.0 0.00085946
14730.0 0.00086257
14750.0 0.00086694
14770.0 0.00087285
14790.0 0.00087991
14810.0 0.00088804
14830.0 0.00089839
14850.0 0.00090992
14870.0 0.00092203
14890.0 0.00093524
14910.0 0.00094935
14930.0 0.00096264
14950.0 0.00097468
14970.0 0.00098576
14990.0 0.00099434
15010.0 0.00099989
15030.0 0.0010029
15050.0 0.0010035
15070.0 0.0010016
15090.0 0.00099829
15110.0 0.00099389
15130.0 0.00098881
15150.0 0.00098341
15170.0 0.00097778
15190.0 0.00097204
15210.0 0.0009663
15230.0 0.00096055
15250.0 0.00095475
15270.0 0.00094895
15290.0 0.00094322
15310.0 0.00093744
15330.0 0.00093166
15350.0 0.00092592
15370.0 0.00092019
15390.0 0.0009144
15410.0 0.00090866
15430.0 0.00090295
15450.0 0.00089723
15470.0 0.0008915
15490.0 0.00088583
15510.0 0.00088018
15530.0 0.0008745
15550.0 0.00086886
15570.0 0.00086327
15590.0 0.00085765
15610.0 0.00085203
15630.0 0.00084649
15650.0 0.00084096
15670.0 0.00083542
15690.0 0.00082993
15710.0 0.00082449
15730.0 0.00081903
15750.0 0.00081359
15770.0 0.00080822
15790.0 0.00080286
15810.0 0.00079748
15830.0 0.00079218
15850.0 0.00078692
15870.0 0.00078166
15890.0 0.00077643
15910.0 0.00077126
15930.0 0.00076611
15950.0 0.00076095
15970.0 0.00075586
15990.0 0.00075082
16010.0 0.00074577
16030.0 0.00074075
16050.0 0.00073582
16070.0 0.00073089
16090.0 0.00072598
16110.0 0.00072113
16130.0 0.00071634
16150.0 0.00071151
16170.0 0.00070675
16190.0 0.00070205
16210.0 0.00069737
16230.0 0.0006927
16250.0 0.00068811
16270.0 0.00068356
16290.0 0.000679
16310.0 0.0006745
16330.0 0.00067006
16350.0 0.00066564
16370.0 0.00066121
16390.0 0.00065688
16410.0 0.00065258
16430.0 0.00064829
16450.0 0.00064405
16470.0 0.00063988
16490.0 0.00063571
16510.0 0.00063157
16530.0 0.00062749
16550.0 0.00062345
16570.0 0.00061942
16590.0 0.00061543
16610.0 0.00061152
16630.0 0.00060762
16650.0 0.00060374
16670.0 0.00059993
16690.0 0.00059616
16710.0 0.00059237
16730.0 0.00058865
16750.0 0.00058499
16770.0 0.00058134
16790.0 0.00057772
16810.0 0.00057417
16830.0 0.00057064
16850.0 0.00056713
16870.0 0.00056367
16890.0 0.00056026
16910.0 0.00055685
16930.0 0.00055347
16950.0 0.00055017
16970.0 0.00054689
16990.0 0.00054362
17010.0 0.0005404
17030.0 0.00053724
17050.0 0.00053408
17070.0 0.00053095
17090.0 0.00052788
17110.0 0.00052484
17130.0 0.00052179
17150.0 0.00051881
17170.0 0.00051588
17190.0 0.00051295
17210.0 0.00051006
17230.0 0.00050722
17250.0 0.0005044
17270.0 0.00050158
17290.0 0.00049883
17310.0 0.00049611
17330.0 0.0004934
17350.0 0.00049071
17370.0 0.0004881
17390.0 0.00048549
17410.0 0.00048289
17430.0 0.00048035
17450.0 0.00047785
17470.0 0.00047533
17490.0 0.00047285
17510.0 0.00047043
17530.0 0.00046802
17550.0 0.00046563
17570.0 0.00046328
17590.0 0.00046097
17610.0 0.00045866
17630.0 0.00045638
17650.0 0.00045415
17670.0 0.00045193
17690.0 0.0004497
17710.0 0.00044755
17730.0 0.00044542
17750.0 0.00044329
17770.0 0.00044119
17790.0 0.00043915
17810.0 0.00043709
17830.0 0.00043506
17850.0 0.00043307
17870.0 0.0004311
17890.0 0.00042913
17910.0 0.0004272
17930.0 0.00042532
17950.0 0.00042343
17970.0 0.00042156
17990.0 0.00041974
18010.0 0.00041793
18030.0 0.00041611
18050.0 0.00041434
18070.0 0.0004126
18090.0 0.00041086
18110.0 0.00040914
18130.0 0.00040746
18150.0 0.0004058
18170.0 0.00040414
18190.0 0.00040251
18210.0 0.00040091
18230.0 0.00039931
18250.0 0.00039771
18270.0 0.00039618
18290.0 0.00039464
18310.0 0.00039311
18330.0 0.00039162
18350.0 0.00039015
18370.0 0.00038867
18390.0 0.00038722
18410.0 0.0003858
18430.0 0.00038439
18450.0 0.00038297
18470.0 0.00038159
18490.0 0.00038024
18510.0 0.00037889
18530.0 0.00037755
18550.0 0.00037625
18570.0 0.00037495
18590.0 0.00037364
18610.0 0.00037237
18630.0 0.00037113
18650.0 0.00036987
18670.0 0.00036863
18690.0 0.00036744
18710.0 0.00036624
18730.0 0.00036504
18750.0 0.00036388
18770.0 0.00036274
18790.0 0.00036157
18810.0 0.00036043
18830.0 0.00035932
18850.0 0.00035822
18870.0 0.00035711
18890.0 0.00035604
18910.0 0.00035498
18930.0 0.00035391
18950.0 0.00035286
18970.0 0.00035184
18990.0 0.00035081
19010.0 0.00034978
19030.0 0.00034879
19050.0 0.00034781
19070.0 0.00034682
19090.0 0.00034585
19110.0 0.00034492
19130.0 0.00034396
19150.0 0.00034301
19170.0 0.00034209
19190.0 0.00034118
19210.0 0.00034026
19230.0 0.00033935
19250.0 0.00033849
19270.0 0.0003376
19290.0 0.00033672
19310.0 0.00033588
19330.0 0.00033503
19350.0 0.00033416
19370.0 0.00033333
19390.0 0.00033252
19410.0 0.00033169
19430.0 0.00033087
19450.0 0.00033008
19470.0 0.0003293
19490.0 0.0003285
19510.0 0.00032772
19530.0 0.00032696
19550.0 0.00032619
19570.0 0.00032541
19590.0 0.00032468
19610.0 0.00032394
19630.0 0.00032319
19650.0 0.00032247
19670.0 0.00032176
19690.0 0.00032103
19710.0 0.00032031
19730.0 0.00031962
19750.0 0.00031893
19770.0 0.00031821
19790.0 0.00031753
19810.0 0.00031687
19830.0 0.00031618
19850.0 0.00031548
19870.0 0.0003148
19890.0 0.00031404
19910.0 0.00031316
19930.0 0.00031215
19950.0 0.00031091
19970.0 0.00030926
19990.0 0.00030714
20010.0 0.00030462
20030.0 0.00030148
20050.0 0.00029773
20070.0 0.00029362
20090.0 0.00028918
20110.0 0.00028414
20130.0 0.00027905
20150.0 0.00027401
20170.0 0.0002688
20190.0 0.00026351
20210.0 0.00025852
20230.0 0.00025363
20250.0 0.00024872
20270.0 0.00024414
20290.0 0.00023992
20310.0 0.00023589
20330.0 0.00023208
20350.0 0.00022889
20370.0 0.00022604
20390.0 0.00022352
20410.0 0.00022149
20430.0 0.00021994
20450.0 0.00021874
20470.0 0.00021799
20490.0 0.00021768
20510.0 0.00021775
20530.0 0.00021821
20550.0 0.00021901
20570.0 0.00022007
20590.0 0.00022142
20610.0 0.00022301
20630.0 0.00022471
20650.0 0.00022655
20670.0 0.00022856
20690.0 0.00023052
20710.0 0.00023243
20730.0 0.00023433
20750.0 0.00023614
20770.0 0.00023774
20790.0 0.0002392
20810.0 0.00024049
20830.0 0.00024152
20850.0 0.00024231
20870.0 0.00024287
20890.0 0.00024317
20910.0 0.0002432
20930.0 0.000243
20950.0 0.00024254
20970.0 0.00024188
20990.0 0.00024104
21010.0 0.00023995
21030.0 0.00023871
21050.0 0.00023738
21070.0 0.0002359
21090.0 0.00023426
21110.0 0.00023264
21130.0 0.000231
21150.0 0.00022928
21170.0 0.00022758
21190.0 0.00022598
21210.0 0.00022437
21230.0 0.00022281
21250.0 0.00022143
21270.0 0.00022018
21290.0 0.00021902
21310.0 0.00021805
21330.0 0.00021729
21350.0 0.00021668
21370.0 0.00021627
21390.0 0.00021607
21410.0 0.00021607
21430.0 0.00021628
21450.0 0.00021668
21470.0 0.00021726
21490.0 0.00021803
21510.0 0.00021898
21530.0 0.00022004
21550.0 0.00022124
21570.0 0.00022262
21590.0 0.00022408
21610.0 0.0002256
21630.0 0.00022724
21650.0 0.00022901
21670.0 0.00023073
21690.0 0.00023253
21710.0 0.00023442
21730.0 0.00023631
21750.0 0.00023817
21770.0 0.00024016
21790.0 0.00024216
21810.0 0.0002441
21830.0 0.00024608
21850.0 0.00024812
21870.0 0.00025011
21890.0 0.00025203
21910.0 0.00025402
21930.0 0.00025597
21950.0 0.00025783
21970.0 0.00025967
21990.0 0.00026152
22010.0 0.00026321
22030.0 0.00026479
22050.0 0.0002663
22070.0 0.00026768
22090.0 0.00026885
22110.0 0.00026988
22130.0 0.00027074
22150.0 0.00027136
22170.0 0.00027176
22190.0 0.00027192
22210.0 0.00027181
22230.0 0.00027145
22250.0 0.00027081
22270.0 0.00026987
22290.0 0.00026869
22310.0 0.00026726
22330.0 0.00026548
22350.0 0.00026346
22370.0 0.00026127
22390.0 0.0002588
22410.0 0.00025603
22430.0 0.00025321
22450.0 0.00025025
22470.0 0.00024703
22490.0 0.00024374
22510.0 0.00024049
22530.0 0.00023704
22550.0 0.00023349
22570.0 0.0002301
22590.0 0.00022674
22610.0 0.0002233
22630.0 0.00021998
22650.0 0.0002169
22670.0 0.00021379
22690.0 0.00021078
22710.0 0.00020801
22730.0 0.00020537
22750.0 0.00020273
22770.0 0.00020035
22790.0 0.00019817
22810.0 0.00019607
22830.0 0.00019409
22850.0 0.00019232
22870.0 0.00019065
22890.0 0.00018903
22910.0 0.00018758
22930.0 0.00018625
22950.0 0.00018498
22970.0 0.00018377
22990.0 0.00018273
23010.0 0.00018174
23030.0 0.00018081
23050.0 0.00017998
23070.0 0.00017923
23090.0 0.00017851
23110.0 0.00017787
23130.0 0.00017731
23150.0 0.0001768
23170.0 0.00017632
23190.0 0.0001759
