#lamb flux
1010.0 7.5182e-07
1030.0 8.2265e-07
1050.0 9.0413e-07
1070.0 9.9584e-07
1090.0 1.1e-06
1110.0 1.2069e-06
1130.0 1.3144e-06
1150.0 1.427e-06
1170.0 1.5432e-06
1190.0 1.6534e-06
1210.0 1.7651e-06
1230.0 1.8805e-06
1250.0 1.9935e-06
1270.0 2.1033e-06
1290.0 2.2193e-06
1310.0 2.3353e-06
1330.0 2.4464e-06
1350.0 2.5588e-06
1370.0 2.6749e-06
1390.0 2.788e-06
1410.0 2.8978e-06
1430.0 3.0126e-06
1450.0 3.1273e-06
1470.0 3.2382e-06
1490.0 3.3502e-06
1510.0 3.4686e-06
1530.0 3.5807e-06
1550.0 3.6913e-06
1570.0 3.8057e-06
1590.0 3.9202e-06
1610.0 4.0295e-06
1630.0 4.1422e-06
1650.0 4.2578e-06
1670.0 4.3695e-06
1690.0 4.4798e-06
1710.0 4.5942e-06
1730.0 4.7092e-06
1750.0 4.8172e-06
1770.0 4.9283e-06
1790.0 5.0414e-06
1810.0 5.1507e-06
1830.0 5.2579e-06
1850.0 5.3715e-06
1870.0 5.4818e-06
1890.0 5.588e-06
1910.0 5.6959e-06
1930.0 5.8061e-06
1950.0 5.9105e-06
1970.0 6.013e-06
1990.0 6.119e-06
2010.0 6.2223e-06
2030.0 6.3208e-06
2050.0 6.4215e-06
2070.0 6.524e-06
2090.0 6.6188e-06
2110.0 6.712e-06
2130.0 6.8069e-06
2150.0 6.8982e-06
2170.0 6.9831e-06
2190.0 7.0701e-06
2210.0 7.1557e-06
2230.0 7.2349e-06
2250.0 7.3115e-06
2270.0 7.3903e-06
2290.0 7.4633e-06
2310.0 7.5297e-06
2330.0 7.5974e-06
2350.0 7.6652e-06
2370.0 7.7299e-06
2390.0 7.8009e-06
2410.0 7.8907e-06
2430.0 7.9988e-06
2450.0 8.1353e-06
2470.0 8.3221e-06
2490.0 8.5693e-06
2510.0 8.8556e-06
2530.0 9.2107e-06
2550.0 9.6691e-06
2570.0 1.0251e-05
2590.0 1.1017e-05
2610.0 1.2174e-05
2630.0 1.3815e-05
2650.0 1.5925e-05
2670.0 1.8608e-05
2690.0 2.1842e-05
2710.0 2.5209e-05
2730.0 2.8442e-05
2750.0 3.1536e-05
2770.0 3.4115e-05
2790.0 3.6039e-05
2810.0 3.7449e-05
2830.0 3.8434e-05
2850.0 3.8966e-05
2870.0 3.924e-05
2890.0 3.9369e-05
2910.0 3.939e-05
2930.0 3.9342e-05
2950.0 3.9281e-05
2970.0 3.9218e-05
2990.0 3.9145e-05
3010.0 0.0012437
3030.0 0.0012416
3050.0 0.0012395
3070.0 0.0012365
3090.0 0.0012329
3110.0 0.0012272
3130.0 0.0012178
3150.0 0.0012037
3170.0 0.0011825
3190.0 0.0011545
3210.0 0.0011216
3230.0 0.0010853
3250.0 0.0010481
3270.0 0.0010203
3290.0 0.00099954
3310.0 0.00099538
3330.0 0.0010028
3350.0 0.0010213
3370.0 0.0010507
3390.0 0.0010897
3410.0 0.0011332
3430.0 0.0011827
3450.0 0.0012404
3470.0 0.0013039
3490.0 0.0013721
3510.0 0.0014497
3530.0 0.0015343
3550.0 0.0016244
3570.0 0.0017229
3590.0 0.0018322
3610.0 0.0019529
3630.0 0.0020723
3650.0 0.0021984
3670.0 0.0023119
3690.0 0.0023961
3710.0 0.0024388
3730.0 0.0024165
3750.0 0.0023324
3770.0 0.0023848
3790.0 0.0023464
3810.0 0.0018837
3830.0 0.0018494
3850.0 0.0026386
3870.0 0.0026308
3890.0 0.0020742
3910.0 0.0019637
3930.0 0.0023793
3950.0 0.0027935
3970.0 0.0030519
3990.0 0.0020963
4010.0 0.004437
4030.0 0.00456
4050.0 0.0050226
4070.0 0.0053439
4090.0 0.0050023
4110.0 0.0043041
4130.0 0.0050244
4150.0 0.0065851
4170.0 0.0053407
4190.0 0.0048547
4210.0 0.005376
4230.0 0.0065047
4250.0 0.0078133
4270.0 0.008424
4290.0 0.0074638
4310.0 0.0070038
4330.0 0.0069721
4350.0 0.0087683
4370.0 0.010601
4390.0 0.0085764
4410.0 0.0049202
4430.0 0.0035799
4450.0 0.0033594
4470.0 0.0020798
4490.0 0.0034148
4510.0 0.0072709
4530.0 0.0088391
4550.0 0.0083042
4570.0 0.0075899
4590.0 0.0081418
4610.0 0.015619
4630.0 0.021856
4650.0 0.020945
4670.0 0.018479
4690.0 0.0187
4710.0 0.019553
4730.0 0.016299
4750.0 0.010747
4770.0 0.0073594
4790.0 0.0080219
4810.0 0.0083982
4830.0 0.0082499
4850.0 0.0089495
4870.0 0.011854
4890.0 0.013749
4910.0 0.010815
4930.0 0.010436
4950.0 0.011984
4970.0 0.015884
4990.0 0.021467
5010.0 0.024861
5030.0 0.020053
5050.0 0.012405
5070.0 0.0087497
5090.0 0.0066501
5110.0 0.0062584
5130.0 0.0075232
5150.0 0.0073658
5170.0 0.0069425
5190.0 0.0061797
5210.0 0.006878
5230.0 0.0084463
5250.0 0.0098036
5270.0 0.009161
5290.0 0.0098833
5310.0 0.013168
5330.0 0.014199
5350.0 0.014001
5370.0 0.015647
5390.0 0.019427
5410.0 0.016834
5430.0 0.013075
5450.0 0.013097
5470.0 0.015122
5490.0 0.018876
5510.0 0.022999
5530.0 0.026671
5550.0 0.02421
5570.0 0.021737
5590.0 0.017926
5610.0 0.018062
5630.0 0.020115
5650.0 0.018543
5670.0 0.017076
5690.0 0.013874
5710.0 0.014233
5730.0 0.013786
5750.0 0.007625
5770.0 0.0054605
5790.0 0.0067328
5810.0 0.007111
5830.0 0.010949
5850.0 0.014256
5870.0 0.01537
5890.0 0.014728
5910.0 0.014344
5930.0 0.01378
5950.0 0.014203
5970.0 0.017572
5990.0 0.014552
6010.0 0.01126
6030.0 0.0092093
6050.0 0.00821
6070.0 0.009687
6090.0 0.010867
6110.0 0.011137
6130.0 0.010334
6150.0 0.0081676
6170.0 0.0063589
6190.0 0.0077063
6210.0 0.012126
6230.0 0.017853
6250.0 0.019265
6270.0 0.014823
6290.0 0.012689
6310.0 0.0096886
6330.0 0.0070741
6350.0 0.0069216
6370.0 0.0072667
6390.0 0.0086752
6410.0 0.011215
6430.0 0.013488
6450.0 0.016505
6470.0 0.017471
6490.0 0.020926
6510.0 0.02347
6530.0 0.023937
6550.0 0.022014
6570.0 0.017669
6590.0 0.016777
6610.0 0.013911
6630.0 0.0144
6650.0 0.013989
6670.0 0.012245
6690.0 0.0095122
6710.0 0.0092804
6730.0 0.0040685
6750.0 0.0054616
6770.0 0.0085702
6790.0 0.011335
6810.0 0.0080916
6830.0 0.0082624
6850.0 0.0068823
6870.0 0.0064387
6890.0 0.0054419
6910.0 0.0066208
6930.0 0.0062328
6950.0 0.0074503
6970.0 0.0077402
6990.0 0.0085927
7010.0 0.0083004
7030.0 0.0095017
7050.0 0.0082356
7070.0 0.0068699
7090.0 0.0073683
7110.0 0.0078177
7130.0 0.0089971
7150.0 0.010196
7170.0 0.011432
7190.0 0.012208
7210.0 0.010883
7230.0 0.011022
7250.0 0.011813
7270.0 0.012681
7290.0 0.015623
7310.0 0.016515
7330.0 0.01545
7350.0 0.013837
7370.0 0.010263
7390.0 0.010585
7410.0 0.012965
7430.0 0.014775
7450.0 0.015919
7470.0 0.014565
7490.0 0.011631
7510.0 0.018751
7530.0 0.017087
7550.0 0.016117
7570.0 0.010951
7590.0 0.0048603
7610.0 0.0034315
7630.0 0.0052097
7650.0 0.0070051
7670.0 0.011151
7690.0 0.012425
7710.0 0.011229
7730.0 0.011146
7750.0 0.014633
7770.0 0.01504
7790.0 0.013753
7810.0 0.011118
7830.0 0.012047
7850.0 0.013204
7870.0 0.012911
7890.0 0.010093
7910.0 0.0067842
7930.0 0.0070292
7950.0 0.00635
7970.0 0.0053495
7990.0 0.0048366
8010.0 0.0025413
8030.0 0.0023192
8050.0 0.0025182
8070.0 0.0028543
8090.0 0.003505
8110.0 0.0032876
8130.0 0.0019237
8150.0 0.0020042
8170.0 0.0010898
8190.0 0.00062924
8210.0 0.001779
8230.0 0.0021614
8250.0 0.00079167
8270.0 0.00061061
8290.0 0.0012769
8310.0 0.0011376
8330.0 0.00069421
8350.0 0.00056087
8370.0 0.00011554
8390.0 0.00059919
8410.0 0.00069134
8430.0 0.00085945
8450.0 0.00096758
8470.0 0.001652
8490.0 0.0013343
8510.0 0.0010095
8530.0 0.00046589
8550.0 0.0018308
8570.0 0.0028814
8590.0 0.0019598
8610.0 0.0029801
8630.0 0.0032274
8650.0 0.001643
8670.0 0.0025109
8690.0 0.0040173
8710.0 0.0034319
8730.0 0.0037184
8750.0 0.0029
8770.0 0.0025668
8790.0 0.002869
8810.0 0.0031322
8830.0 0.0016965
8850.0 0.00068385
8870.0 0.00047523
8890.0 0.0013203
8910.0 0.0021304
8930.0 0.0028403
8950.0 0.0031723
8970.0 0.0030499
8990.0 0.0022609
9010.0 0.0021505
9030.0 0.0016235
9050.0 0.0016878
9070.0 0.0017552
9090.0 0.0018099
9110.0 0.0018763
9130.0 0.0019242
9150.0 0.0019583
9170.0 0.0019946
9190.0 0.0020335
9210.0 0.0020743
9230.0 0.0021174
9250.0 0.002161
9270.0 0.0022059
9290.0 0.002252
9310.0 0.002298
9330.0 0.0023446
9350.0 0.0023928
9370.0 0.0024413
9390.0 0.0024898
9410.0 0.0025396
9430.0 0.0025908
9450.0 0.0026413
9470.0 0.0026928
9490.0 0.0027456
9510.0 0.0027988
9530.0 0.0028519
9550.0 0.002907
9570.0 0.0029628
9590.0 0.0030186
9610.0 0.0030752
9630.0 0.0031333
9650.0 0.0031917
9670.0 0.0032499
9690.0 0.0033098
9710.0 0.0033705
9730.0 0.0034312
9750.0 0.0034927
9770.0 0.0035562
9790.0 0.0036193
9810.0 0.0036826
9830.0 0.0037474
9850.0 0.003813
9870.0 0.0038781
9890.0 0.0039442
9910.0 0.0040118
9930.0 0.0040792
9950.0 0.0041467
9970.0 0.0042158
9990.0 0.0042856
10010.0 0.0038179
10030.0 0.003879
10050.0 0.0039409
10070.0 0.0040021
10090.0 0.0040638
10110.0 0.004127
10130.0 0.0041901
10150.0 0.0042527
10170.0 0.0043159
10190.0 0.00438
10210.0 0.0044432
10230.0 0.0045062
10250.0 0.0045702
10270.0 0.004634
10290.0 0.004697
10310.0 0.0047607
10330.0 0.004825
10350.0 0.0048881
10370.0 0.004951
10390.0 0.0050146
10410.0 0.0050777
10430.0 0.0051395
10450.0 0.0052019
10470.0 0.0052643
10490.0 0.0053255
10510.0 0.0053862
10530.0 0.0054478
10550.0 0.0055082
10570.0 0.0055672
10590.0 0.0056264
10610.0 0.0056854
10630.0 0.0057427
10650.0 0.0057995
10670.0 0.0058566
10690.0 0.0059125
10710.0 0.0059669
10730.0 0.0060212
10750.0 0.0060754
10770.0 0.0061272
10790.0 0.0061783
10810.0 0.0062292
10830.0 0.0062783
10850.0 0.006325
10870.0 0.0063705
10890.0 0.0064117
10910.0 0.0064454
10930.0 0.0064691
10950.0 0.0064772
10970.0 0.0064644
10990.0 0.0064285
11010.0 0.0063911
11030.0 0.0062938
11050.0 0.0061718
11070.0 0.0060236
11090.0 0.0058443
11110.0 0.0056582
11130.0 0.005464
11150.0 0.0052555
11170.0 0.0050415
11190.0 0.0048347
11210.0 0.0046225
11230.0 0.0044063
11250.0 0.0042007
11270.0 0.0040043
11290.0 0.0038085
11310.0 0.0036235
11330.0 0.0034605
11350.0 0.0033063
11370.0 0.0031634
11390.0 0.0030386
11410.0 0.0029282
11430.0 0.0028243
11450.0 0.002733
11470.0 0.0026522
11490.0 0.0025756
11510.0 0.0025008
11530.0 0.0024304
11550.0 0.0023602
11570.0 0.0022859
11590.0 0.0022096
11610.0 0.0021326
11630.0 0.0020501
11650.0 0.0019628
11670.0 0.0018775
11690.0 0.0017915
11710.0 0.0017036
11730.0 0.0016185
11750.0 0.0015397
11770.0 0.0014624
11790.0 0.0013896
11810.0 0.0013249
11830.0 0.0012663
11850.0 0.0012118
11870.0 0.0011651
11890.0 0.0011253
11910.0 0.0010894
11930.0 0.0010576
11950.0 0.0010302
11970.0 0.0010051
11990.0 0.00098112
12010.0 0.00095865
12030.0 0.00093699
12050.0 0.0009149
12070.0 0.00089225
12090.0 0.00087043
12110.0 0.00084837
12130.0 0.0008262
12150.0 0.00080525
12170.0 0.00078613
12190.0 0.00076834
12210.0 0.00075364
12230.0 0.00074273
12250.0 0.00073571
12270.0 0.00073339
12290.0 0.00073596
12310.0 0.00074306
12330.0 0.00075574
12350.0 0.00077342
12370.0 0.00079469
12390.0 0.00082023
12410.0 0.00085116
12430.0 0.00088287
12450.0 0.00091594
12470.0 0.0009514
12490.0 0.00098704
12510.0 0.0010202
12530.0 0.0010531
12550.0 0.0010847
12570.0 0.0011121
12590.0 0.0011356
12610.0 0.0011562
12630.0 0.0011718
12650.0 0.0011815
12670.0 0.0011866
12690.0 0.0011866
12710.0 0.0011813
12730.0 0.0011711
12750.0 0.0011559
12770.0 0.0011362
12790.0 0.0011132
12810.0 0.0010865
12830.0 0.0010562
12850.0 0.0010249
12870.0 0.00099203
12890.0 0.00095699
12910.0 0.00092162
12930.0 0.00088692
12950.0 0.00085106
12970.0 0.00081482
12990.0 0.00078056
13010.0 0.00074685
13030.0 0.00071292
13050.0 0.00068032
13070.0 0.00064969
13090.0 0.00061897
13110.0 0.00058916
13130.0 0.00056148
13150.0 0.0005351
13170.0 0.00050912
13190.0 0.00048568
13210.0 0.0004647
13230.0 0.0004452
13250.0 0.00042794
13270.0 0.00041372
13290.0 0.00040196
13310.0 0.00039282
13330.0 0.00038702
13350.0 0.00038433
13370.0 0.00038484
13390.0 0.00038882
13410.0 0.00039547
13430.0 0.00040507
13450.0 0.00041772
13470.0 0.00043234
13490.0 0.00044827
13510.0 0.00046677
13530.0 0.00048595
13550.0 0.00050464
13570.0 0.00052343
13590.0 0.00054212
13610.0 0.00055903
13630.0 0.00057406
13650.0 0.00058809
13670.0 0.00060001
13690.0 0.00060944
13710.0 0.000617
13730.0 0.00062273
13750.0 0.00062592
13770.0 0.0006272
13790.0 0.00062669
13810.0 0.00062436
13830.0 0.00062051
13850.0 0.0006151
13870.0 0.00060815
13890.0 0.00060008
13910.0 0.00059094
13930.0 0.00058038
13950.0 0.00056887
13970.0 0.00055711
13990.0 0.00054437
14010.0 0.00053089
14030.0 0.00051749
14050.0 0.00050405
14070.0 0.00048992
14090.0 0.0004764
14110.0 0.0004637
14130.0 0.0004514
14150.0 0.00043978
14170.0 0.00042981
14190.0 0.00042111
14210.0 0.00041363
14230.0 0.00040794
14250.0 0.00040408
14270.0 0.00040191
14290.0 0.00040171
14310.0 0.00040336
14330.0 0.00040676
14350.0 0.00041205
14370.0 0.00041885
14390.0 0.00042676
14410.0 0.00043626
14430.0 0.00044689
14450.0 0.00045795
14470.0 0.00046962
14490.0 0.00048225
14510.0 0.00049457
14530.0 0.0005065
14550.0 0.00051863
14570.0 0.00053049
14590.0 0.00054151
14610.0 0.00055233
14630.0 0.0005632
14650.0 0.00057345
14670.0 0.00058344
14690.0 0.00059387
14710.0 0.00060481
14730.0 0.00061572
14750.0 0.00062771
14770.0 0.00064118
14790.0 0.00065567
14810.0 0.00067127
14830.0 0.00068959
14850.0 0.00070941
14870.0 0.00073004
14890.0 0.00075224
14910.0 0.00077575
14930.0 0.00079841
14950.0 0.00081967
14970.0 0.00083987
14990.0 0.000857
15010.0 0.00087039
15030.0 0.00088062
15050.0 0.0008878
15070.0 0.00089193
15090.0 0.00089417
15110.0 0.0008951
15130.0 0.0008952
15150.0 0.00089492
15170.0 0.00089437
15190.0 0.00089369
15210.0 0.00089305
15230.0 0.00089244
15250.0 0.00089175
15270.0 0.00089109
15290.0 0.00089056
15310.0 0.00088997
15330.0 0.00088937
15350.0 0.00088885
15370.0 0.00088835
15390.0 0.00088776
15410.0 0.00088724
15430.0 0.00088678
15450.0 0.00088628
15470.0 0.00088575
15490.0 0.00088533
15510.0 0.0008849
15530.0 0.00088441
15550.0 0.00088397
15570.0 0.00088358
15590.0 0.00088312
15610.0 0.00088263
15630.0 0.00088224
15650.0 0.00088184
15670.0 0.00088138
15690.0 0.00088096
15710.0 0.00088061
15730.0 0.00088016
15750.0 0.00087971
15770.0 0.00087933
15790.0 0.00087892
15810.0 0.00087842
15830.0 0.00087799
15850.0 0.00087761
15870.0 0.00087715
15890.0 0.00087668
15910.0 0.00087628
15930.0 0.00087583
15950.0 0.0008753
15970.0 0.00087483
15990.0 0.00087439
16010.0 0.00087386
16030.0 0.0008733
16050.0 0.00087285
16070.0 0.00087233
16090.0 0.00087175
16110.0 0.00087121
16130.0 0.00087071
16150.0 0.00087005
16170.0 0.00086942
16190.0 0.00086886
16210.0 0.00086823
16230.0 0.00086753
16250.0 0.0008669
16270.0 0.00086628
16290.0 0.00086554
16310.0 0.00086481
16330.0 0.00086413
16350.0 0.00086338
16370.0 0.00086251
16390.0 0.00086176
16410.0 0.00086099
16430.0 0.00086012
16450.0 0.00085925
16470.0 0.00085846
16490.0 0.00085754
16510.0 0.00085657
16530.0 0.00085566
16550.0 0.00085473
16570.0 0.00085368
16590.0 0.00085263
16610.0 0.00085168
16630.0 0.00085061
16650.0 0.00084949
16670.0 0.00084843
16690.0 0.00084735
16710.0 0.0008461
16730.0 0.00084492
16750.0 0.00084376
16770.0 0.00084251
16790.0 0.0008412
16810.0 0.00083997
16830.0 0.0008387
16850.0 0.00083732
16870.0 0.00083596
16890.0 0.00083464
16910.0 0.00083318
16930.0 0.00083167
16950.0 0.00083026
16970.0 0.00082879
16990.0 0.00082723
17010.0 0.00082569
17030.0 0.0008242
17050.0 0.00082256
17070.0 0.0008209
17090.0 0.0008193
17110.0 0.00081764
17130.0 0.00081584
17150.0 0.00081413
17170.0 0.00081243
17190.0 0.00081063
17210.0 0.00080879
17230.0 0.00080703
17250.0 0.00080517
17270.0 0.00080321
17290.0 0.00080132
17310.0 0.00079943
17330.0 0.00079742
17350.0 0.00079538
17370.0 0.00079345
17390.0 0.00079143
17410.0 0.00078932
17430.0 0.00078726
17450.0 0.00078522
17470.0 0.00078299
17490.0 0.0007808
17510.0 0.00077868
17530.0 0.00077648
17550.0 0.00077419
17570.0 0.00077198
17590.0 0.00076976
17610.0 0.00076742
17630.0 0.00076508
17650.0 0.0007628
17670.0 0.00076044
17690.0 0.00075794
17710.0 0.00075559
17730.0 0.00075321
17750.0 0.00075072
17770.0 0.00074825
17790.0 0.00074585
17810.0 0.00074331
17830.0 0.00074073
17850.0 0.00073823
17870.0 0.0007357
17890.0 0.00073305
17910.0 0.00073043
17930.0 0.0007279
17950.0 0.00072525
17970.0 0.00072256
17990.0 0.00071995
18010.0 0.00071731
18030.0 0.00071452
18050.0 0.0007118
18070.0 0.00070913
18090.0 0.00070636
18110.0 0.00070355
18130.0 0.00070084
18150.0 0.00069809
18170.0 0.00069523
18190.0 0.00069243
18210.0 0.00068967
18230.0 0.00068678
18250.0 0.00068386
18270.0 0.00068106
18290.0 0.00067821
18310.0 0.00067527
18330.0 0.0006724
18350.0 0.00066957
18370.0 0.0006666
18390.0 0.00066365
18410.0 0.00066076
18430.0 0.00065783
18450.0 0.00065479
18470.0 0.00065185
18490.0 0.00064895
18510.0 0.00064594
18530.0 0.00064294
18550.0 0.00064002
18570.0 0.00063703
18590.0 0.00063395
18610.0 0.00063096
18630.0 0.00062799
18650.0 0.00062493
18670.0 0.00062186
18690.0 0.00061891
18710.0 0.00061589
18730.0 0.00061281
18750.0 0.0006098
18770.0 0.00060682
18790.0 0.00060368
18810.0 0.0006006
18830.0 0.00059761
18850.0 0.00059455
18870.0 0.00059144
18890.0 0.00058843
18910.0 0.00058542
18930.0 0.00058231
18950.0 0.00057924
18970.0 0.00057623
18990.0 0.00057316
19010.0 0.00056999
19030.0 0.00056699
19050.0 0.00056397
19070.0 0.00056087
19090.0 0.0005578
19110.0 0.00055483
19130.0 0.00055173
19150.0 0.00054863
19170.0 0.00054561
19190.0 0.00054259
19210.0 0.00053947
19230.0 0.00053641
19250.0 0.00053344
19270.0 0.00053038
19290.0 0.00052731
19310.0 0.00052433
19330.0 0.00052133
19350.0 0.00051821
19370.0 0.00051519
19390.0 0.00051222
19410.0 0.00050918
19430.0 0.00050612
19450.0 0.00050318
19470.0 0.00050021
19490.0 0.00049716
19510.0 0.00049418
19530.0 0.00049125
19550.0 0.00048822
19570.0 0.00048518
19590.0 0.00048227
19610.0 0.00047933
19630.0 0.00047632
19650.0 0.00047339
19670.0 0.00047051
19690.0 0.00046752
19710.0 0.00046456
19730.0 0.00046168
19750.0 0.00045877
19770.0 0.00045577
19790.0 0.00045289
19810.0 0.00045005
19830.0 0.00044711
19850.0 0.00044418
19870.0 0.00044131
19890.0 0.00043828
19910.0 0.00043503
19930.0 0.00043165
19950.0 0.00042791
19970.0 0.0004235
19990.0 0.00041839
20010.0 0.00038567
20030.0 0.00037943
20050.0 0.00037228
20070.0 0.00036466
20090.0 0.00035656
20110.0 0.00034754
20130.0 0.00033848
20150.0 0.00032957
20170.0 0.00032041
20190.0 0.00031117
20210.0 0.00030248
20230.0 0.00029403
20250.0 0.0002856
20270.0 0.00027777
20290.0 0.00027061
20310.0 0.00026378
20330.0 0.00025738
20350.0 0.000252
20370.0 0.00024718
20390.0 0.00024288
20410.0 0.00023932
20430.0 0.00023648
20450.0 0.00023413
20470.0 0.00023242
20490.0 0.00023132
20510.0 0.00023073
20530.0 0.00023064
20550.0 0.00023101
20570.0 0.00023173
20590.0 0.00023287
20610.0 0.00023434
20630.0 0.00023603
20650.0 0.00023798
20670.0 0.00024027
20690.0 0.00024264
20710.0 0.00024511
20730.0 0.00024779
20750.0 0.0002506
20770.0 0.00025335
20790.0 0.00025623
20810.0 0.00025926
20830.0 0.00026225
20850.0 0.00026521
20870.0 0.00026836
20890.0 0.00027154
20910.0 0.00027456
20930.0 0.00027767
20950.0 0.00028087
20970.0 0.00028395
20990.0 0.00028697
21010.0 0.00029014
21030.0 0.00029321
21050.0 0.00029612
21070.0 0.00029902
21090.0 0.00030192
21110.0 0.00030454
21130.0 0.00030699
21150.0 0.00030937
21170.0 0.00031151
21190.0 0.00031335
21210.0 0.000315
21230.0 0.00031638
21250.0 0.00031735
21270.0 0.00031796
21290.0 0.00031818
21310.0 0.00031793
21330.0 0.00031721
21350.0 0.00031598
21370.0 0.00031418
21390.0 0.00031188
21410.0 0.00030906
21430.0 0.00030549
21450.0 0.00030146
21470.0 0.00029703
21490.0 0.00029202
21510.0 0.0002865
21530.0 0.00028085
21550.0 0.00027492
21570.0 0.00026857
21590.0 0.00026228
21610.0 0.00025617
21630.0 0.00025002
21650.0 0.00024397
21670.0 0.00023866
21690.0 0.00023372
21710.0 0.00022919
21730.0 0.0002254
21750.0 0.00022236
21770.0 0.00021991
21790.0 0.00021828
21810.0 0.00021748
21830.0 0.00021742
21850.0 0.00021816
21870.0 0.00021962
21890.0 0.00022166
21910.0 0.00022442
21930.0 0.00022776
21950.0 0.00023144
21970.0 0.00023558
21990.0 0.00024031
22010.0 0.00024508
22030.0 0.00024996
22050.0 0.00025515
22070.0 0.00026041
22090.0 0.00026541
22110.0 0.0002705
22130.0 0.00027563
22150.0 0.00028044
22170.0 0.000285
22190.0 0.00028956
22210.0 0.00029383
22230.0 0.00029758
22250.0 0.00030114
22270.0 0.00030442
22290.0 0.00030723
22310.0 0.00030964
22330.0 0.00031176
22350.0 0.0003134
22370.0 0.00031454
22390.0 0.00031524
22410.0 0.00031545
22430.0 0.00031511
22450.0 0.00031427
22470.0 0.00031286
22490.0 0.00031089
22510.0 0.00030845
22530.0 0.00030534
22550.0 0.00030158
22570.0 0.0002974
22590.0 0.0002927
22610.0 0.00028731
22630.0 0.00028147
22650.0 0.00027544
22670.0 0.00026877
22690.0 0.00026165
22710.0 0.00025446
22730.0 0.00024705
22750.0 0.00023902
22770.0 0.00023115
22790.0 0.00022346
22810.0 0.00021556
22830.0 0.00020768
22850.0 0.00020029
22870.0 0.00019304
22890.0 0.00018582
22910.0 0.00017916
22930.0 0.00017305
22950.0 0.00016722
22970.0 0.00016181
22990.0 0.00015731
23010.0 0.0001533
23030.0 0.00014983
23050.0 0.00014711
23070.0 0.00014509
23090.0 0.00014364
23110.0 0.00014294
23130.0 0.00014291
23150.0 0.00014353
23170.0 0.00014483
23190.0 0.00014669
23210.0 0.00014903
