#lamb flux
1010.0 1.1567e-07
1030.0 1.2916e-07
1050.0 1.4467e-07
1070.0 1.6214e-07
1090.0 1.8198e-07
1110.0 2.0233e-07
1130.0 2.2281e-07
1150.0 2.4426e-07
1170.0 2.664e-07
1190.0 2.8738e-07
1210.0 3.0866e-07
1230.0 3.3064e-07
1250.0 3.5218e-07
1270.0 3.731e-07
1290.0 3.952e-07
1310.0 4.1729e-07
1330.0 4.3848e-07
1350.0 4.599e-07
1370.0 4.8202e-07
1390.0 5.0359e-07
1410.0 5.2452e-07
1430.0 5.464e-07
1450.0 5.6828e-07
1470.0 5.8942e-07
1490.0 6.1079e-07
1510.0 6.3336e-07
1530.0 6.5475e-07
1550.0 6.7584e-07
1570.0 6.9765e-07
1590.0 7.1947e-07
1610.0 7.4032e-07
1630.0 7.6179e-07
1650.0 7.8382e-07
1670.0 8.0511e-07
1690.0 8.261e-07
1710.0 8.4787e-07
1730.0 8.6974e-07
1750.0 8.9025e-07
1770.0 9.1133e-07
1790.0 9.3279e-07
1810.0 9.5349e-07
1830.0 9.7374e-07
1850.0 9.9519e-07
1870.0 1.016e-06
1890.0 1.0359e-06
1910.0 1.0561e-06
1930.0 1.0767e-06
1950.0 1.0962e-06
1970.0 1.1152e-06
1990.0 1.1348e-06
2010.0 1.1538e-06
2030.0 1.1718e-06
2050.0 1.1902e-06
2070.0 1.2087e-06
2090.0 1.2257e-06
2110.0 1.2423e-06
2130.0 1.259e-06
2150.0 1.2749e-06
2170.0 1.2895e-06
2190.0 1.3043e-06
2210.0 1.3187e-06
2230.0 1.3317e-06
2250.0 1.344e-06
2270.0 1.3565e-06
2290.0 1.3677e-06
2310.0 1.3774e-06
2330.0 1.387e-06
2350.0 1.396e-06
2370.0 1.4035e-06
2390.0 1.4105e-06
2410.0 1.418e-06
2430.0 1.4248e-06
2450.0 1.4314e-06
2470.0 1.4396e-06
2490.0 1.4504e-06
2510.0 1.4639e-06
2530.0 1.4856e-06
2550.0 1.5242e-06
2570.0 1.5872e-06
2590.0 1.6841e-06
2610.0 1.8414e-06
2630.0 2.0627e-06
2650.0 2.3328e-06
2670.0 2.6523e-06
2690.0 3.0052e-06
2710.0 3.3379e-06
2730.0 3.626e-06
2750.0 3.8745e-06
2770.0 4.0577e-06
2790.0 4.1766e-06
2810.0 4.2531e-06
2830.0 4.3022e-06
2850.0 4.3241e-06
2870.0 4.3345e-06
2890.0 4.3421e-06
2910.0 4.347e-06
2930.0 4.3475e-06
2950.0 4.3504e-06
2970.0 4.3549e-06
2990.0 4.357e-06
3010.0 6.7495e-05
3030.0 6.7436e-05
3050.0 6.737e-05
3070.0 6.7223e-05
3090.0 6.704e-05
3110.0 6.6741e-05
3130.0 6.6228e-05
3150.0 6.5459e-05
3170.0 6.4361e-05
3190.0 6.2958e-05
3210.0 6.1389e-05
3230.0 5.9815e-05
3250.0 5.8821e-05
3270.0 5.8001e-05
3290.0 5.8378e-05
3310.0 5.8721e-05
3330.0 6.021e-05
3350.0 6.2335e-05
3370.0 6.511e-05
3390.0 6.8446e-05
3410.0 7.1982e-05
3430.0 7.5884e-05
3450.0 8.0278e-05
3470.0 8.4955e-05
3490.0 8.9776e-05
3510.0 9.5181e-05
3530.0 0.00010093
3550.0 0.00010634
3570.0 0.00011172
3590.0 0.0001181
3610.0 0.00012381
3630.0 0.00013061
3650.0 0.00013728
3670.0 0.00014366
3690.0 0.00014821
3710.0 0.00015073
3730.0 0.00015219
3750.0 0.00015177
3770.0 0.00013865
3790.0 0.00012501
3810.0 0.00011625
3830.0 0.00010078
3850.0 7.7362e-05
3870.0 6.7739e-05
3890.0 0.00010151
3910.0 0.00015089
3930.0 0.00018301
3950.0 0.00018863
3970.0 0.00018627
3990.0 0.00020775
4010.0 0.00024786
4030.0 0.00025909
4050.0 0.00023983
4070.0 0.00020901
4090.0 0.00019218
4110.0 0.00022495
4130.0 0.00023559
4150.0 0.00022548
4170.0 0.00023124
4190.0 0.00023528
4210.0 0.00023561
4230.0 0.00025321
4250.0 0.00027527
4270.0 0.00027895
4290.0 0.00028081
4310.0 0.00029386
4330.0 0.00032383
4350.0 0.00036807
4370.0 0.00041476
4390.0 0.00040051
4410.0 0.00033803
4430.0 0.0002839
4450.0 0.00023985
4470.0 0.00023469
4490.0 0.00025548
4510.0 0.00028367
4530.0 0.00030925
4550.0 0.00035574
4570.0 0.00042763
4590.0 0.00052591
4610.0 0.00066387
4630.0 0.00079353
4650.0 0.00081937
4670.0 0.00081192
4690.0 0.00086303
4710.0 0.00089041
4730.0 0.00075419
4750.0 0.00055455
4770.0 0.00045519
4790.0 0.00043161
4810.0 0.0004039
4830.0 0.00038824
4850.0 0.00044816
4870.0 0.00056428
4890.0 0.00063168
4910.0 0.00054825
4930.0 0.00049919
4950.0 0.00056723
4970.0 0.00074865
4990.0 0.00094348
5010.0 0.00097741
5030.0 0.00080702
5050.0 0.00054102
5070.0 0.00037932
5090.0 0.0003349
5110.0 0.00034702
5130.0 0.0003726
5150.0 0.00038966
5170.0 0.00038863
5190.0 0.00038263
5210.0 0.00037255
5230.0 0.00038104
5250.0 0.00040706
5270.0 0.00047462
5290.0 0.00054812
5310.0 0.00059572
5330.0 0.00061289
5350.0 0.00062727
5370.0 0.00068272
5390.0 0.00072009
5410.0 0.00069204
5430.0 0.00060967
5450.0 0.000575
5470.0 0.00065666
5490.0 0.00083854
5510.0 0.0010502
5530.0 0.0011493
5550.0 0.0011245
5570.0 0.0010333
5590.0 0.00093559
5610.0 0.00086882
5630.0 0.00083497
5650.0 0.00085563
5670.0 0.00083829
5690.0 0.00078999
5710.0 0.00074596
5730.0 0.00066533
5750.0 0.00050662
5770.0 0.00044627
5790.0 0.00049554
5810.0 0.00059162
5830.0 0.00066113
5850.0 0.00070633
5870.0 0.00071748
5890.0 0.00068753
5910.0 0.00065873
5930.0 0.00066405
5950.0 0.00069825
5970.0 0.000725
5990.0 0.00068189
6010.0 0.00057603
6030.0 0.00047832
6050.0 0.00042105
6070.0 0.00042186
6090.0 0.00047122
6110.0 0.00050588
6130.0 0.00048432
6150.0 0.00046092
6170.0 0.00051312
6190.0 0.00061548
6210.0 0.00073428
6230.0 0.00082026
6250.0 0.00081262
6270.0 0.00073031
6290.0 0.00060535
6310.0 0.00048411
6330.0 0.00039178
6350.0 0.0003608
6370.0 0.00039572
6390.0 0.00046091
6410.0 0.00052799
6430.0 0.00061191
6450.0 0.00071423
6470.0 0.00088192
6490.0 0.001074
6510.0 0.0011694
6530.0 0.0010932
6550.0 0.0010168
6570.0 0.0010046
6590.0 0.00096692
6610.0 0.00088312
6630.0 0.00079894
6650.0 0.00074427
6670.0 0.00076562
6690.0 0.00075831
6710.0 0.00067536
6730.0 0.00062239
6750.0 0.00055498
6770.0 0.0005422
6790.0 0.00057964
6810.0 0.00061341
6830.0 0.00062662
6850.0 0.000613
6870.0 0.00058872
6890.0 0.00057595
6910.0 0.00054511
6930.0 0.00051866
6950.0 0.00051996
6970.0 0.00053368
6990.0 0.00059086
7010.0 0.00062561
7030.0 0.00057404
7050.0 0.00053404
7070.0 0.00050372
7090.0 0.00044713
7110.0 0.00041563
7130.0 0.0004246
7150.0 0.00043945
7170.0 0.00046065
7190.0 0.00045938
7210.0 0.000463
7230.0 0.00049388
7250.0 0.00056949
7270.0 0.00065934
7290.0 0.00070162
7310.0 0.00067528
7330.0 0.00060165
7350.0 0.00054297
7370.0 0.00053518
7390.0 0.00054242
7410.0 0.00056499
7430.0 0.00062203
7450.0 0.00067557
7470.0 0.00074714
7490.0 0.00081274
7510.0 0.00072714
7530.0 0.00069855
7550.0 0.00059581
7570.0 0.00050712
7590.0 0.00042177
7610.0 0.00038941
7630.0 0.00040927
7650.0 0.0004701
7670.0 0.00051486
7690.0 0.00057766
7710.0 0.00064466
7730.0 0.00067735
7750.0 0.0006833
7770.0 0.00068338
7790.0 0.0006784
7810.0 0.00070229
7830.0 0.00067964
7850.0 0.0006156
7870.0 0.00056214
7890.0 0.00052387
7910.0 0.00047267
7930.0 0.00040797
7950.0 0.00037358
7970.0 0.00036947
7990.0 0.00038562
8010.0 0.0004096
8030.0 0.00041601
8050.0 0.00041479
8070.0 0.00040355
8090.0 0.00040017
8110.0 0.00038187
8130.0 0.00035944
8150.0 0.00033853
8170.0 0.00033348
8190.0 0.00034136
8210.0 0.00033994
8230.0 0.0003481
8250.0 0.00034674
8270.0 0.00030911
8290.0 0.00023673
8310.0 0.00016358
8330.0 0.00010887
8350.0 7.7214e-05
8370.0 9.0064e-05
8390.0 0.0001004
8410.0 0.00012799
8430.0 0.0001551
8450.0 0.00016965
8470.0 0.00017477
8490.0 0.0001816
8510.0 0.00019093
8530.0 0.00021506
8550.0 0.00023779
8570.0 0.00027741
8590.0 0.00033837
8610.0 0.00039406
8630.0 0.00046022
8650.0 0.00051767
8670.0 0.0005095
8690.0 0.00047707
8710.0 0.00045171
8730.0 0.00042735
8750.0 0.0004105
8770.0 0.0003991
8790.0 0.0003848
8810.0 0.00035711
8830.0 0.00032616
8850.0 0.00028367
8870.0 0.00024519
8890.0 0.0002205
8910.0 0.0002231
8930.0 0.00021974
8950.0 0.00023413
8970.0 0.00023912
8990.0 0.00024869
9010.0 0.00025942
9030.0 0.0002607
9050.0 0.00026118
9070.0 0.00026162
9090.0 0.00026196
9110.0 0.00026206
9130.0 0.00026234
9150.0 0.00026281
9170.0 0.00026324
9190.0 0.0002636
9210.0 0.00026459
9230.0 0.00026506
9250.0 0.00026565
9270.0 0.00026629
9290.0 0.00026698
9310.0 0.00026774
9330.0 0.00026855
9350.0 0.00026939
9370.0 0.00027028
9390.0 0.00027123
9410.0 0.00027222
9430.0 0.00027322
9450.0 0.00027431
9470.0 0.00027543
9490.0 0.00027657
9510.0 0.00027776
9530.0 0.00027902
9550.0 0.00028027
9570.0 0.00028156
9590.0 0.00028291
9610.0 0.00028429
9630.0 0.00028569
9650.0 0.00028712
9670.0 0.00028862
9690.0 0.00029011
9710.0 0.00029163
9730.0 0.0002932
9750.0 0.0002948
9770.0 0.00029638
9790.0 0.00029801
9810.0 0.00029968
9830.0 0.00030135
9850.0 0.00030303
9870.0 0.00030476
9890.0 0.00030649
9910.0 0.00030821
9930.0 0.00030997
9950.0 0.00031171
9970.0 0.00031348
9990.0 0.00031525
10010.0 0.00031244
10030.0 0.0003142
10050.0 0.00031591
10070.0 0.0003175
10090.0 0.00031932
10110.0 0.00032109
10130.0 0.00032285
10150.0 0.00032463
10170.0 0.00032636
10190.0 0.00032804
10210.0 0.00032975
10230.0 0.00033146
10250.0 0.00033311
10270.0 0.00033475
10290.0 0.0003364
10310.0 0.000338
10330.0 0.00033954
10350.0 0.00034111
10370.0 0.00034265
10390.0 0.00034412
10410.0 0.00034557
10430.0 0.00034703
10450.0 0.00034842
10470.0 0.00034976
10490.0 0.00035109
10510.0 0.00035238
10530.0 0.00035358
10550.0 0.00035476
10570.0 0.00035593
10590.0 0.00035703
10610.0 0.00035806
10630.0 0.00035908
10650.0 0.00036005
10670.0 0.00036092
10690.0 0.00036176
10710.0 0.00036258
10730.0 0.0003633
10750.0 0.00036394
10770.0 0.00036459
10790.0 0.00036517
10810.0 0.00036565
10830.0 0.00036607
10850.0 0.00036645
10870.0 0.00036663
10890.0 0.0003666
10910.0 0.00036631
10930.0 0.00036553
10950.0 0.00036395
10970.0 0.00036145
10990.0 0.00035797
11010.0 0.00034828
11030.0 0.00034186
11050.0 0.00033443
11070.0 0.00032578
11090.0 0.00031559
11110.0 0.00030524
11130.0 0.00029461
11150.0 0.00028338
11170.0 0.0002721
11190.0 0.0002615
11210.0 0.00025094
11230.0 0.00024057
11250.0 0.00023114
11270.0 0.00022253
11290.0 0.00021434
11310.0 0.000207
11330.0 0.00020084
11350.0 0.00019526
11370.0 0.00019025
11390.0 0.00018596
11410.0 0.00018214
11430.0 0.00017842
11450.0 0.00017493
11470.0 0.00017155
11490.0 0.000168
11510.0 0.00016413
11530.0 0.00016017
11550.0 0.00015597
11570.0 0.00015132
11590.0 0.00014645
11610.0 0.00014154
11630.0 0.00013632
11650.0 0.00013094
11670.0 0.00012583
11690.0 0.00012087
11710.0 0.00011596
11730.0 0.00011139
11750.0 0.00010732
11770.0 0.00010345
11790.0 9.993e-05
11810.0 9.6882e-05
11830.0 9.417e-05
11850.0 9.165e-05
11870.0 8.9462e-05
11890.0 8.7525e-05
11910.0 8.567e-05
11930.0 8.3876e-05
11950.0 8.2167e-05
11970.0 8.0427e-05
11990.0 7.8571e-05
12010.0 7.6685e-05
12030.0 7.4761e-05
12050.0 7.2719e-05
12070.0 7.0592e-05
12090.0 6.8571e-05
12110.0 6.6561e-05
12130.0 6.4591e-05
12150.0 6.2803e-05
12170.0 6.1245e-05
12190.0 5.9861e-05
12210.0 5.8795e-05
12230.0 5.8085e-05
12250.0 5.7714e-05
12270.0 5.7724e-05
12290.0 5.8105e-05
12310.0 5.8803e-05
12330.0 5.9878e-05
12350.0 6.1261e-05
12370.0 6.2834e-05
12390.0 6.4628e-05
12410.0 6.669e-05
12430.0 6.8709e-05
12450.0 7.0719e-05
12470.0 7.2764e-05
12490.0 7.4706e-05
12510.0 7.6402e-05
12530.0 7.7969e-05
12550.0 7.9344e-05
12570.0 8.0399e-05
12590.0 8.117e-05
12610.0 8.1691e-05
12630.0 8.1901e-05
12650.0 8.1803e-05
12670.0 8.1453e-05
12690.0 8.0845e-05
12710.0 8.002e-05
12730.0 7.9013e-05
12750.0 7.7792e-05
12770.0 7.6442e-05
12790.0 7.5008e-05
12810.0 7.3458e-05
12830.0 7.1796e-05
12850.0 7.0136e-05
12870.0 6.8436e-05
12890.0 6.664e-05
12910.0 6.4826e-05
12930.0 6.3028e-05
12950.0 6.1137e-05
12970.0 5.9178e-05
12990.0 5.7275e-05
13010.0 5.5351e-05
13030.0 5.3363e-05
13050.0 5.1409e-05
13070.0 4.9542e-05
13090.0 4.765e-05
13110.0 4.581e-05
13130.0 4.4113e-05
13150.0 4.2521e-05
13170.0 4.0998e-05
13190.0 3.9683e-05
13210.0 3.857e-05
13230.0 3.7613e-05
13250.0 3.6858e-05
13270.0 3.6327e-05
13290.0 3.5992e-05
13310.0 3.5864e-05
13330.0 3.5936e-05
13350.0 3.618e-05
13370.0 3.6601e-05
13390.0 3.7185e-05
13410.0 3.7838e-05
13430.0 3.8591e-05
13450.0 3.9432e-05
13470.0 4.0283e-05
13490.0 4.1113e-05
13510.0 4.1987e-05
13530.0 4.2807e-05
13550.0 4.3534e-05
13570.0 4.4205e-05
13590.0 4.4814e-05
13610.0 4.5312e-05
13630.0 4.5706e-05
13650.0 4.6033e-05
13670.0 4.6263e-05
13690.0 4.6397e-05
13710.0 4.6455e-05
13730.0 4.6438e-05
13750.0 4.6342e-05
13770.0 4.6183e-05
13790.0 4.596e-05
13810.0 4.5679e-05
13830.0 4.5355e-05
13850.0 4.4975e-05
13870.0 4.4541e-05
13890.0 4.4074e-05
13910.0 4.3573e-05
13930.0 4.3017e-05
13950.0 4.243e-05
13970.0 4.1846e-05
13990.0 4.1229e-05
14010.0 4.0593e-05
14030.0 3.9976e-05
14050.0 3.9371e-05
14070.0 3.8757e-05
14090.0 3.8188e-05
14110.0 3.7673e-05
14130.0 3.7194e-05
14150.0 3.6766e-05
14170.0 3.642e-05
14190.0 3.6141e-05
14210.0 3.5931e-05
14230.0 3.5804e-05
14250.0 3.5755e-05
14270.0 3.5787e-05
14290.0 3.5904e-05
14310.0 3.6087e-05
14330.0 3.6339e-05
14350.0 3.6663e-05
14370.0 3.7036e-05
14390.0 3.7436e-05
14410.0 3.7891e-05
14430.0 3.8377e-05
14450.0 3.8863e-05
14470.0 3.9366e-05
14490.0 3.9907e-05
14510.0 4.044e-05
14530.0 4.0973e-05
14550.0 4.1547e-05
14570.0 4.2159e-05
14590.0 4.2789e-05
14610.0 4.3486e-05
14630.0 4.4286e-05
14650.0 4.5145e-05
14670.0 4.6078e-05
14690.0 4.7146e-05
14710.0 4.8338e-05
14730.0 4.9556e-05
14750.0 5.0889e-05
14770.0 5.2338e-05
14790.0 5.381e-05
14810.0 5.5281e-05
14830.0 5.686e-05
14850.0 5.8396e-05
14870.0 5.9828e-05
14890.0 6.1209e-05
14910.0 6.2513e-05
14930.0 6.3633e-05
14950.0 6.4574e-05
14970.0 6.5376e-05
14990.0 6.5975e-05
15010.0 6.6379e-05
15030.0 6.663e-05
15050.0 6.6745e-05
15070.0 6.6748e-05
15090.0 6.6684e-05
15110.0 6.657e-05
15130.0 6.643e-05
15150.0 6.6283e-05
15170.0 6.6123e-05
15190.0 6.5958e-05
15210.0 6.5799e-05
15230.0 6.5641e-05
15250.0 6.5477e-05
15270.0 6.5315e-05
15290.0 6.5163e-05
15310.0 6.5005e-05
15330.0 6.4846e-05
15350.0 6.4694e-05
15370.0 6.4543e-05
15390.0 6.4382e-05
15410.0 6.4228e-05
15430.0 6.4079e-05
15450.0 6.3925e-05
15470.0 6.3768e-05
15490.0 6.362e-05
15510.0 6.3472e-05
15530.0 6.3317e-05
15550.0 6.3167e-05
15570.0 6.3021e-05
15590.0 6.2868e-05
15610.0 6.2711e-05
15630.0 6.2565e-05
15650.0 6.2417e-05
15670.0 6.2262e-05
15690.0 6.2112e-05
15710.0 6.1968e-05
15730.0 6.1815e-05
15750.0 6.1661e-05
15770.0 6.1513e-05
15790.0 6.1364e-05
15810.0 6.1205e-05
15830.0 6.1053e-05
15850.0 6.0906e-05
15870.0 6.0751e-05
15890.0 6.0596e-05
15910.0 6.0448e-05
15930.0 6.0295e-05
15950.0 6.0134e-05
15970.0 5.998e-05
15990.0 5.9828e-05
16010.0 5.9668e-05
16030.0 5.9506e-05
16050.0 5.9355e-05
16070.0 5.9198e-05
16090.0 5.9035e-05
16110.0 5.8877e-05
16130.0 5.8722e-05
16150.0 5.8554e-05
16170.0 5.8389e-05
16190.0 5.823e-05
16210.0 5.8067e-05
16230.0 5.7897e-05
16250.0 5.7734e-05
16270.0 5.7572e-05
16290.0 5.7401e-05
16310.0 5.7231e-05
16330.0 5.7067e-05
16350.0 5.6896e-05
16370.0 5.6717e-05
16390.0 5.6548e-05
16410.0 5.6378e-05
16430.0 5.6201e-05
16450.0 5.6025e-05
16470.0 5.5855e-05
16490.0 5.5676e-05
16510.0 5.5493e-05
16530.0 5.5316e-05
16550.0 5.5139e-05
16570.0 5.4952e-05
16590.0 5.4767e-05
16610.0 5.459e-05
16630.0 5.4404e-05
16650.0 5.4216e-05
16670.0 5.4033e-05
16690.0 5.3849e-05
16710.0 5.3652e-05
16730.0 5.3462e-05
16750.0 5.3275e-05
16770.0 5.3082e-05
16790.0 5.2884e-05
16810.0 5.2694e-05
16830.0 5.2502e-05
16850.0 5.2302e-05
16870.0 5.2105e-05
16890.0 5.1912e-05
16910.0 5.1709e-05
16930.0 5.1503e-05
16950.0 5.1306e-05
16970.0 5.1106e-05
16990.0 5.0898e-05
17010.0 5.0695e-05
17030.0 5.0495e-05
17050.0 5.0286e-05
17070.0 5.0076e-05
17090.0 4.9872e-05
17110.0 4.9664e-05
17130.0 4.9447e-05
17150.0 4.9237e-05
17170.0 4.903e-05
17190.0 4.8815e-05
17210.0 4.86e-05
17230.0 4.8391e-05
17250.0 4.8176e-05
17270.0 4.7954e-05
17290.0 4.7739e-05
17310.0 4.7525e-05
17330.0 4.7303e-05
17350.0 4.708e-05
17370.0 4.6866e-05
17390.0 4.6646e-05
17410.0 4.6421e-05
17430.0 4.6202e-05
17450.0 4.5984e-05
17470.0 4.5754e-05
17490.0 4.5528e-05
17510.0 4.5307e-05
17530.0 4.5082e-05
17550.0 4.4852e-05
17570.0 4.4629e-05
17590.0 4.4406e-05
17610.0 4.4175e-05
17630.0 4.3946e-05
17650.0 4.3722e-05
17670.0 4.3493e-05
17690.0 4.3255e-05
17710.0 4.3029e-05
17730.0 4.2802e-05
17750.0 4.2569e-05
17770.0 4.2337e-05
17790.0 4.2112e-05
17810.0 4.1878e-05
17830.0 4.1642e-05
17850.0 4.1412e-05
17870.0 4.1182e-05
17890.0 4.0944e-05
17910.0 4.0709e-05
17930.0 4.0482e-05
17950.0 4.0247e-05
17970.0 4.0011e-05
17990.0 3.9781e-05
18010.0 3.955e-05
18030.0 3.9308e-05
18050.0 3.9074e-05
18070.0 3.8843e-05
18090.0 3.8607e-05
18110.0 3.8368e-05
18130.0 3.8139e-05
18150.0 3.7906e-05
18170.0 3.7668e-05
18190.0 3.7434e-05
18210.0 3.7204e-05
18230.0 3.6966e-05
18250.0 3.6726e-05
18270.0 3.6496e-05
18290.0 3.6263e-05
18310.0 3.6025e-05
18330.0 3.5792e-05
18350.0 3.5564e-05
18370.0 3.5326e-05
18390.0 3.509e-05
18410.0 3.486e-05
18430.0 3.4628e-05
18450.0 3.4388e-05
18470.0 3.4157e-05
18490.0 3.3929e-05
18510.0 3.3694e-05
18530.0 3.3461e-05
18550.0 3.3234e-05
18570.0 3.3003e-05
18590.0 3.2766e-05
18610.0 3.2537e-05
18630.0 3.2309e-05
18650.0 3.2076e-05
18670.0 3.1843e-05
18690.0 3.162e-05
18710.0 3.1391e-05
18730.0 3.1159e-05
18750.0 3.0933e-05
18770.0 3.071e-05
18790.0 3.0476e-05
18810.0 3.0247e-05
18830.0 3.0025e-05
18850.0 2.9799e-05
18870.0 2.9569e-05
18890.0 2.9348e-05
18910.0 2.9127e-05
18930.0 2.8899e-05
18950.0 2.8675e-05
18970.0 2.8456e-05
18990.0 2.8233e-05
19010.0 2.8003e-05
19030.0 2.7786e-05
19050.0 2.7568e-05
19070.0 2.7345e-05
19090.0 2.7125e-05
19110.0 2.6912e-05
19130.0 2.669e-05
19150.0 2.6469e-05
19170.0 2.6254e-05
19190.0 2.6039e-05
19210.0 2.5818e-05
19230.0 2.5601e-05
19250.0 2.5392e-05
19270.0 2.5176e-05
19290.0 2.496e-05
19310.0 2.4751e-05
19330.0 2.4541e-05
19350.0 2.4322e-05
19370.0 2.4111e-05
19390.0 2.3904e-05
19410.0 2.3693e-05
19430.0 2.348e-05
19450.0 2.3276e-05
19470.0 2.307e-05
19490.0 2.2859e-05
19510.0 2.2653e-05
19530.0 2.2451e-05
19550.0 2.2242e-05
19570.0 2.2033e-05
19590.0 2.1833e-05
19610.0 2.1631e-05
19630.0 2.1425e-05
19650.0 2.1225e-05
19670.0 2.1028e-05
19690.0 2.0824e-05
19710.0 2.0622e-05
19730.0 2.0426e-05
19750.0 2.0227e-05
19770.0 2.0023e-05
19790.0 1.9828e-05
19810.0 1.9635e-05
19830.0 1.9436e-05
19850.0 1.9238e-05
19870.0 1.9045e-05
19890.0 1.8844e-05
19910.0 1.8632e-05
19930.0 1.8416e-05
19950.0 1.8187e-05
19970.0 1.7928e-05
19990.0 1.7641e-05
20010.0 1.7501e-05
20030.0 1.7157e-05
20050.0 1.6779e-05
20070.0 1.6392e-05
20090.0 1.5997e-05
20110.0 1.5574e-05
20130.0 1.5168e-05
20150.0 1.4784e-05
20170.0 1.4405e-05
20190.0 1.4039e-05
20210.0 1.3707e-05
20230.0 1.3397e-05
20250.0 1.3099e-05
20270.0 1.2834e-05
20290.0 1.2601e-05
20310.0 1.2389e-05
20330.0 1.2202e-05
20350.0 1.2054e-05
20370.0 1.1932e-05
20390.0 1.1837e-05
20410.0 1.1773e-05
20430.0 1.1736e-05
20450.0 1.1726e-05
20470.0 1.1743e-05
20490.0 1.1784e-05
20510.0 1.1847e-05
20530.0 1.1936e-05
20550.0 1.2042e-05
20570.0 1.2159e-05
20590.0 1.2297e-05
20610.0 1.2447e-05
20630.0 1.2601e-05
20650.0 1.2764e-05
20670.0 1.2941e-05
20690.0 1.3113e-05
20710.0 1.3284e-05
20730.0 1.346e-05
20750.0 1.3635e-05
20770.0 1.3801e-05
20790.0 1.3969e-05
20810.0 1.414e-05
20830.0 1.4306e-05
20850.0 1.4469e-05
20870.0 1.4641e-05
20890.0 1.4816e-05
20910.0 1.4985e-05
20930.0 1.5161e-05
20950.0 1.5346e-05
20970.0 1.5529e-05
20990.0 1.5711e-05
21010.0 1.5906e-05
21030.0 1.6097e-05
21050.0 1.628e-05
21070.0 1.6462e-05
21090.0 1.6644e-05
21110.0 1.6807e-05
21130.0 1.6958e-05
21150.0 1.7101e-05
21170.0 1.7226e-05
21190.0 1.733e-05
21210.0 1.7421e-05
21230.0 1.7492e-05
21250.0 1.754e-05
21270.0 1.7566e-05
21290.0 1.7572e-05
21310.0 1.7555e-05
21330.0 1.7516e-05
21350.0 1.7455e-05
21370.0 1.7369e-05
21390.0 1.7264e-05
21410.0 1.7138e-05
21430.0 1.6983e-05
21450.0 1.6811e-05
21470.0 1.6626e-05
21490.0 1.6419e-05
21510.0 1.6193e-05
21530.0 1.5963e-05
21550.0 1.5723e-05
21570.0 1.5466e-05
21590.0 1.5212e-05
21610.0 1.4965e-05
21630.0 1.4715e-05
21650.0 1.4467e-05
21670.0 1.4248e-05
21690.0 1.4041e-05
21710.0 1.3848e-05
21730.0 1.3683e-05
21750.0 1.3547e-05
21770.0 1.3432e-05
21790.0 1.3349e-05
21810.0 1.3299e-05
21830.0 1.328e-05
21850.0 1.3293e-05
21870.0 1.3337e-05
21890.0 1.3408e-05
21910.0 1.3512e-05
21930.0 1.3644e-05
21950.0 1.3796e-05
21970.0 1.3973e-05
21990.0 1.4182e-05
22010.0 1.44e-05
22030.0 1.463e-05
22050.0 1.4882e-05
22070.0 1.5144e-05
22090.0 1.5402e-05
22110.0 1.567e-05
22130.0 1.5946e-05
22150.0 1.6212e-05
22170.0 1.6468e-05
22190.0 1.6728e-05
22210.0 1.6972e-05
22230.0 1.7189e-05
22250.0 1.7393e-05
22270.0 1.7578e-05
22290.0 1.7732e-05
22310.0 1.7858e-05
22330.0 1.796e-05
22350.0 1.8026e-05
22370.0 1.8058e-05
22390.0 1.8055e-05
22410.0 1.8014e-05
22430.0 1.7939e-05
22450.0 1.783e-05
22470.0 1.7681e-05
22490.0 1.7498e-05
22510.0 1.729e-05
22530.0 1.7041e-05
22550.0 1.6755e-05
22570.0 1.6454e-05
22590.0 1.6128e-05
22610.0 1.5766e-05
22630.0 1.5388e-05
