#lamb flux
1010.0 1.7154e-05
1030.0 1.9088e-05
1050.0 2.1706e-05
1070.0 2.5621e-05
1090.0 3.0757e-05
1110.0 3.6267e-05
1130.0 4.2029e-05
1150.0 4.8195e-05
1170.0 5.4586e-05
1190.0 6.0561e-05
1210.0 6.6327e-05
1230.0 7.1812e-05
1250.0 7.6888e-05
1270.0 8.1016e-05
1290.0 8.4476e-05
1310.0 8.6885e-05
1330.0 8.8019e-05
1350.0 8.8167e-05
1370.0 8.7473e-05
1390.0 8.5798e-05
1410.0 8.3299e-05
1430.0 8.039e-05
1450.0 7.7052e-05
1470.0 7.3353e-05
1490.0 6.9568e-05
1510.0 6.5899e-05
1530.0 6.2191e-05
1550.0 5.8637e-05
1570.0 5.5375e-05
1590.0 5.2382e-05
1610.0 4.9766e-05
1630.0 4.8117e-05
1650.0 4.693e-05
1670.0 4.617e-05
1690.0 4.5892e-05
1710.0 4.6182e-05
1730.0 4.7022e-05
1750.0 4.8356e-05
1770.0 5.0326e-05
1790.0 5.2956e-05
1810.0 5.6211e-05
1830.0 6.0138e-05
1850.0 6.4879e-05
1870.0 7.0341e-05
1890.0 7.652e-05
1910.0 8.3507e-05
1930.0 9.1315e-05
1950.0 9.9789e-05
1970.0 0.00010895
1990.0 0.00011884
2010.0 0.00012928
2030.0 0.00014013
2050.0 0.00015143
2070.0 0.00016309
2090.0 0.00017474
2110.0 0.00018638
2130.0 0.00019801
2150.0 0.00020936
2170.0 0.00022021
2190.0 0.00023075
2210.0 0.00024081
2230.0 0.00025014
2250.0 0.00025886
2270.0 0.00026715
2290.0 0.00027472
2310.0 0.00028157
2330.0 0.00028805
2350.0 0.00029416
2370.0 0.00029983
2390.0 0.00030544
2410.0 0.00031144
2430.0 0.00031776
2450.0 0.00032476
2470.0 0.00033313
2490.0 0.00034326
2510.0 0.00035468
2530.0 0.00036848
2550.0 0.00038583
2570.0 0.00040716
2590.0 0.00043363
2610.0 0.00046987
2630.0 0.0005164
2650.0 0.00057157
2670.0 0.00063701
2690.0 0.00071189
2710.0 0.00078852
2730.0 0.0008637
2750.0 0.00094005
2770.0 0.0010134
2790.0 0.0010832
2810.0 0.0011544
2830.0 0.0012318
2850.0 0.0013103
2870.0 0.0013935
2890.0 0.0014844
2910.0 0.0015802
2930.0 0.0016769
2950.0 0.0017804
2970.0 0.0018895
2990.0 0.0019994
3010.0 0.0021123
3030.0 0.0022318
3050.0 0.0023544
3070.0 0.002474
3090.0 0.0025957
3110.0 0.0027145
3130.0 0.0028223
3150.0 0.0029164
3170.0 0.0029937
3190.0 0.0030497
3210.0 0.0030903
3230.0 0.0031189
3250.0 0.0031349
3270.0 0.0031465
3290.0 0.0031607
3310.0 0.0031823
3330.0 0.0032121
3350.0 0.0032476
3370.0 0.0032861
3390.0 0.0032988
3410.0 0.0033196
3430.0 0.0034199
3450.0 0.0034907
3470.0 0.0035044
3490.0 0.0036378
3510.0 0.0041726
3530.0 0.0051372
3550.0 0.0058188
3570.0 0.006363
3590.0 0.0071621
3610.0 0.0071376
3630.0 0.0065779
3650.0 0.006908
3670.0 0.0081514
3690.0 0.0091459
3710.0 0.0094797
3730.0 0.0095572
3750.0 0.010208
3770.0 0.010264
3790.0 0.0097785
3810.0 0.0092184
3830.0 0.0087386
3850.0 0.0087968
3870.0 0.0091867
3890.0 0.0094672
3910.0 0.0096068
3930.0 0.0096123
3950.0 0.010287
3970.0 0.011083
3990.0 0.010775
4010.0 0.0096133
4030.0 0.0086615
4050.0 0.0085889
4070.0 0.0089774
4090.0 0.0088985
4110.0 0.0085637
4130.0 0.0085156
4150.0 0.008913
4170.0 0.0098501
4190.0 0.010349
4210.0 0.0097494
4230.0 0.0089691
4250.0 0.0084884
4270.0 0.0081873
4290.0 0.0082412
4310.0 0.0084618
4330.0 0.0080515
4350.0 0.0071356
4370.0 0.0063652
4390.0 0.0058292
4410.0 0.0055348
4430.0 0.0056931
4450.0 0.0062646
4470.0 0.0068803
4490.0 0.0073577
4510.0 0.0081412
4530.0 0.0095683
4550.0 0.011066
4570.0 0.011981
4590.0 0.012767
4610.0 0.013455
4630.0 0.01357
4650.0 0.012594
4670.0 0.010963
4690.0 0.009689
4710.0 0.0092639
4730.0 0.0088512
4750.0 0.0077894
4770.0 0.006967
4790.0 0.007179
4810.0 0.0077818
4830.0 0.0076082
4850.0 0.0067611
4870.0 0.006917
4890.0 0.0070945
4910.0 0.0071961
4930.0 0.0070791
4950.0 0.0069464
4970.0 0.0066387
4990.0 0.006132
5010.0 0.0057725
5030.0 0.0056724
5050.0 0.0056418
5070.0 0.0056326
5090.0 0.0056242
5110.0 0.0056173
5130.0 0.0057317
5150.0 0.0060152
5170.0 0.0065486
5190.0 0.0072515
5210.0 0.0078186
5230.0 0.0081579
5250.0 0.0083483
5270.0 0.0086194
5290.0 0.0088325
5310.0 0.0087874
5330.0 0.0084833
5350.0 0.0081851
5370.0 0.0081964
5390.0 0.0084109
5410.0 0.0085681
5430.0 0.0084989
5450.0 0.0083767
5470.0 0.0081918
5490.0 0.0080039
5510.0 0.0079349
5530.0 0.0079746
5550.0 0.0080584
5570.0 0.0080896
5590.0 0.0078748
5610.0 0.0074806
5630.0 0.0071129
5650.0 0.0067826
5670.0 0.0065524
5690.0 0.0062899
5710.0 0.0061371
5730.0 0.0061657
5750.0 0.0061024
5770.0 0.005994
5790.0 0.0060502
5810.0 0.0062267
5830.0 0.0063621
5850.0 0.0064005
5870.0 0.0062421
5890.0 0.0059926
5910.0 0.0057708
5930.0 0.005481
5950.0 0.005236
5970.0 0.005265
5990.0 0.0053931
6010.0 0.0053906
6030.0 0.0052058
6050.0 0.0051721
6070.0 0.0053521
6090.0 0.0055353
6110.0 0.0055204
6130.0 0.0052449
6150.0 0.0048839
6170.0 0.0046841
6190.0 0.0045756
6210.0 0.0044799
6230.0 0.0043903
6250.0 0.0043873
6270.0 0.0045121
6290.0 0.0046927
6310.0 0.0048965
6330.0 0.0051111
6350.0 0.0052418
6370.0 0.0052574
6390.0 0.0052279
6410.0 0.0052697
6430.0 0.0053359
6450.0 0.0053334
6470.0 0.0053443
6490.0 0.0053755
6510.0 0.0053739
6530.0 0.0053087
6550.0 0.0051739
6570.0 0.0050091
6590.0 0.0048649
6610.0 0.0047522
6630.0 0.0046594
6650.0 0.0045079
6670.0 0.0043405
6690.0 0.004211
6710.0 0.0041368
6730.0 0.0040953
6750.0 0.0040556
6770.0 0.0040018
6790.0 0.0039293
6810.0 0.003859
6830.0 0.0038366
6850.0 0.0038168
6870.0 0.0037841
6890.0 0.0037786
6910.0 0.0037276
6930.0 0.0036653
6950.0 0.0036567
6970.0 0.0036243
6990.0 0.003549
7010.0 0.0034911
7030.0 0.0034288
7050.0 0.0033634
7070.0 0.0032835
7090.0 0.0032135
7110.0 0.0032601
7130.0 0.0033527
7150.0 0.0034256
7170.0 0.0034699
7190.0 0.0034642
7210.0 0.0034199
7230.0 0.0033642
7250.0 0.0033294
7270.0 0.0032707
7290.0 0.0032222
7310.0 0.0031953
7330.0 0.0032285
7350.0 0.0032378
7370.0 0.0032275
7390.0 0.0031978
7410.0 0.0031482
7430.0 0.0031161
7450.0 0.0030835
7470.0 0.0029901
7490.0 0.00289
7510.0 0.0027689
7530.0 0.0026715
7550.0 0.0026197
7570.0 0.0026549
7590.0 0.0026378
7610.0 0.0026086
7630.0 0.0025822
7650.0 0.0025951
7670.0 0.002649
7690.0 0.0027568
7710.0 0.0028307
7730.0 0.0029362
7750.0 0.0030026
7770.0 0.0030567
7790.0 0.0030619
7810.0 0.0030032
7830.0 0.0030122
7850.0 0.0029842
7870.0 0.0029093
7890.0 0.0028111
7910.0 0.0027274
7930.0 0.0026645
7950.0 0.002626
7970.0 0.0026272
7990.0 0.0026481
8010.0 0.0026407
8030.0 0.0026128
8050.0 0.0025647
8070.0 0.0025178
8090.0 0.0024663
8110.0 0.0024755
8130.0 0.0024972
8150.0 0.0025015
8170.0 0.0024805
8190.0 0.0024474
8210.0 0.0023513
8230.0 0.0021996
8250.0 0.0021062
8270.0 0.0020521
8290.0 0.002026
8310.0 0.002035
8330.0 0.0020809
8350.0 0.0020443
8370.0 0.0019998
8390.0 0.0020273
8410.0 0.002091
8430.0 0.0021987
8450.0 0.0022974
8470.0 0.0023235
8490.0 0.0023449
8510.0 0.0023323
8530.0 0.0023184
8550.0 0.002336
8570.0 0.0023387
8590.0 0.0023315
8610.0 0.0023953
8630.0 0.0024132
8650.0 0.0023607
8670.0 0.0023559
8690.0 0.0023647
8710.0 0.002332
8730.0 0.002312
8750.0 0.0022412
8770.0 0.0022113
8790.0 0.0021874
8810.0 0.0021656
8830.0 0.0020709
8850.0 0.0019219
8870.0 0.0018067
8890.0 0.0017432
8910.0 0.0016364
8930.0 0.0015235
8950.0 0.0014831
8970.0 0.0014722
8990.0 0.0014738
9010.0 0.0014625
9030.0 0.0014521
9050.0 0.0014424
9070.0 0.0014331
9090.0 0.0014237
9110.0 0.0014144
9130.0 0.0014051
9150.0 0.0013958
9170.0 0.0013866
9190.0 0.0013773
9210.0 0.001368
9230.0 0.0013588
9250.0 0.0013497
9270.0 0.0013405
9290.0 0.0013314
9310.0 0.0013223
9330.0 0.0013132
9350.0 0.0013041
9370.0 0.0012951
9390.0 0.0012861
9410.0 0.0012772
9430.0 0.0012682
9450.0 0.0012592
9470.0 0.0012504
9490.0 0.0012419
9510.0 0.001233
9530.0 0.0012243
9550.0 0.0012156
9570.0 0.001207
9590.0 0.0011984
9610.0 0.0011899
9630.0 0.0011814
9650.0 0.0011729
9670.0 0.0011646
9690.0 0.0011562
9710.0 0.0011479
9730.0 0.0011397
9750.0 0.0011315
9770.0 0.0011233
9790.0 0.0011152
9810.0 0.0011072
9830.0 0.001099
9850.0 0.0010896
9870.0 0.001082
9890.0 0.0010746
9910.0 0.0010672
9930.0 0.0010593
9950.0 0.0010518
9970.0 0.0010443
9990.0 0.0010367
10010.0 0.0010282
10030.0 0.0010203
10050.0 0.0010134
10070.0 0.0010064
10090.0 0.00099944
10110.0 0.00099202
10130.0 0.0009838
10150.0 0.00097684
10170.0 0.00097004
10190.0 0.00096295
10210.0 0.00095606
10230.0 0.00094923
10250.0 0.00094216
10270.0 0.00093515
10290.0 0.00092838
10310.0 0.00092144
10330.0 0.00091436
10350.0 0.00090759
10370.0 0.00090088
10390.0 0.00089399
10410.0 0.00088718
10430.0 0.00088067
10450.0 0.00087398
10470.0 0.00086722
10490.0 0.00086069
10510.0 0.00085422
10530.0 0.00084744
10550.0 0.00084086
10570.0 0.00083451
10590.0 0.00082801
10610.0 0.00082144
10630.0 0.00081514
10650.0 0.00080883
10670.0 0.00080229
10690.0 0.0007959
10710.0 0.00078969
10730.0 0.00078332
10750.0 0.00077679
10770.0 0.00077065
10790.0 0.00076447
10810.0 0.0007581
10830.0 0.00075188
10850.0 0.00074587
10870.0 0.00073954
10890.0 0.00073327
10910.0 0.00072729
10930.0 0.00072135
10950.0 0.00071534
10970.0 0.00070962
10990.0 0.00070429
11010.0 0.00069834
11030.0 0.00069365
11050.0 0.00068926
11070.0 0.00068491
11090.0 0.00068036
11110.0 0.00067599
11130.0 0.00067162
11150.0 0.00066704
11170.0 0.00066238
11190.0 0.00065787
11210.0 0.00065322
11230.0 0.00064845
11250.0 0.00064387
11270.0 0.00063941
11290.0 0.00063488
11310.0 0.00063047
11330.0 0.00062643
11350.0 0.00062245
11370.0 0.00061853
11390.0 0.00061488
11410.0 0.00061141
11430.0 0.00060786
11450.0 0.00060445
11470.0 0.00060119
11490.0 0.00059786
11510.0 0.00059441
11530.0 0.00059104
11550.0 0.00058761
11570.0 0.00058393
11590.0 0.00058015
11610.0 0.00057637
11630.0 0.00057229
11650.0 0.00056798
11670.0 0.00056374
11690.0 0.00055943
11710.0 0.0005549
11730.0 0.00055039
11750.0 0.00054607
11770.0 0.00054163
11790.0 0.00053719
11810.0 0.000533
11830.0 0.00052892
11850.0 0.00052476
11870.0 0.00052087
11890.0 0.00051725
11910.0 0.00051367
11930.0 0.00051021
11950.0 0.00050705
11970.0 0.00050403
11990.0 0.00050108
12010.0 0.0004984
12030.0 0.000496
12050.0 0.00049374
12070.0 0.00049168
12090.0 0.00049001
12110.0 0.00048857
12130.0 0.00048736
12150.0 0.00048648
12170.0 0.0004859
12190.0 0.00048558
12210.0 0.00048556
12230.0 0.00048583
12250.0 0.00048637
12270.0 0.00048717
12290.0 0.00048819
12310.0 0.00048937
12330.0 0.00049075
12350.0 0.00049225
12370.0 0.00049379
12390.0 0.00049537
12410.0 0.00049701
12430.0 0.00049849
12450.0 0.00049984
12470.0 0.00050105
12490.0 0.00050202
12510.0 0.00050269
12530.0 0.00050305
12550.0 0.00050304
12570.0 0.00050264
12590.0 0.00050184
12610.0 0.00050054
12630.0 0.00049877
12650.0 0.00049668
12670.0 0.00049411
12690.0 0.00049108
12710.0 0.0004878
12730.0 0.00048426
12750.0 0.00048023
12770.0 0.00047606
12790.0 0.00047186
12810.0 0.00046744
12830.0 0.00046282
12850.0 0.0004584
12870.0 0.00045401
12890.0 0.00044947
12910.0 0.00044506
12930.0 0.00044086
12950.0 0.00043656
12970.0 0.00043227
12990.0 0.00042827
13010.0 0.00042435
13030.0 0.00042039
13050.0 0.00041659
13070.0 0.00041305
13090.0 0.00040947
13110.0 0.00040599
13130.0 0.00040278
13150.0 0.00039971
13170.0 0.00039666
13190.0 0.00039389
13210.0 0.00039138
13230.0 0.00038895
13250.0 0.00038667
13270.0 0.00038462
13290.0 0.00038267
13310.0 0.00038074
13330.0 0.00037895
13350.0 0.00037725
13370.0 0.00037551
13390.0 0.00037373
13410.0 0.00037204
13430.0 0.00037028
13450.0 0.00036841
13470.0 0.00036653
13490.0 0.00036464
13510.0 0.00036255
13530.0 0.00036041
13550.0 0.00035829
13570.0 0.00035608
13590.0 0.00035373
13610.0 0.00035142
13630.0 0.00034912
13650.0 0.00034668
13670.0 0.00034423
13690.0 0.00034183
13710.0 0.00033937
13730.0 0.00033675
13750.0 0.00033427
13770.0 0.00033178
13790.0 0.00032918
13810.0 0.00032657
13830.0 0.00032404
13850.0 0.00032138
13870.0 0.00031863
13890.0 0.00031592
13910.0 0.00031318
13930.0 0.00031027
13950.0 0.00030731
13970.0 0.00030445
13990.0 0.00030144
14010.0 0.00029832
14030.0 0.00029527
14050.0 0.0002922
14070.0 0.00028893
14090.0 0.00028574
14110.0 0.00028266
14130.0 0.00027954
14150.0 0.0002764
14170.0 0.00027348
14190.0 0.00027065
14210.0 0.00026782
14230.0 0.00026514
14250.0 0.00026266
14270.0 0.00026018
14290.0 0.00025776
14310.0 0.00025555
14330.0 0.00025341
14350.0 0.00025126
14370.0 0.00024921
14390.0 0.00024727
14410.0 0.00024529
14430.0 0.00024334
14450.0 0.0002415
14470.0 0.0002397
14490.0 0.00023786
14510.0 0.00023614
14530.0 0.00023453
14550.0 0.00023293
14570.0 0.00023138
14590.0 0.00022996
14610.0 0.00022858
14630.0 0.0002272
14650.0 0.00022593
14670.0 0.00022474
14690.0 0.00022355
14710.0 0.00022241
14730.0 0.00022139
14750.0 0.00022041
14770.0 0.00021946
14790.0 0.00021862
14810.0 0.00021788
14830.0 0.0002172
14850.0 0.00021663
14870.0 0.0002162
14890.0 0.00021587
14910.0 0.00021564
14930.0 0.00021551
14950.0 0.00021544
14970.0 0.0002154
14990.0 0.00021536
15010.0 0.00021528
15030.0 0.00021515
15050.0 0.00021495
15070.0 0.00021471
15090.0 0.00021442
15110.0 0.00021408
15130.0 0.00021373
15150.0 0.00021338
15170.0 0.000213
15190.0 0.00021262
15210.0 0.00021225
15230.0 0.00021188
15250.0 0.00021149
15270.0 0.0002111
15290.0 0.00021074
15310.0 0.00021036
15330.0 0.00020997
15350.0 0.0002096
15370.0 0.00020922
15390.0 0.00020883
15410.0 0.00020845
15430.0 0.00020808
15450.0 0.0002077
15470.0 0.00020731
15490.0 0.00020694
15510.0 0.00020656
15530.0 0.00020618
15550.0 0.0002058
15570.0 0.00020543
15590.0 0.00020505
15610.0 0.00020467
15630.0 0.0002043
15650.0 0.00020393
15670.0 0.00020355
15690.0 0.00020318
15710.0 0.00020282
15730.0 0.00020244
15750.0 0.00020207
15770.0 0.00020171
15790.0 0.00020134
15810.0 0.00020097
15830.0 0.0002006
15850.0 0.00020025
15870.0 0.00019989
15890.0 0.00019952
15910.0 0.00019917
15930.0 0.00019882
15950.0 0.00019845
15970.0 0.0001981
15990.0 0.00019775
16010.0 0.0001974
16030.0 0.00019704
16050.0 0.0001967
16070.0 0.00019636
16090.0 0.00019601
16110.0 0.00019567
16130.0 0.00019534
16150.0 0.00019499
16170.0 0.00019465
16190.0 0.00019432
16210.0 0.00019399
16230.0 0.00019365
16250.0 0.00019333
16270.0 0.00019301
16290.0 0.00019268
16310.0 0.00019235
16330.0 0.00019204
16350.0 0.00019172
16370.0 0.00019138
16390.0 0.00019107
16410.0 0.00019076
16430.0 0.00019045
16450.0 0.00019013
16470.0 0.00018983
16490.0 0.00018952
16510.0 0.00018921
16530.0 0.00018891
16550.0 0.00018861
16570.0 0.0001883
16590.0 0.000188
16610.0 0.00018771
16630.0 0.00018742
16650.0 0.00018712
16670.0 0.00018683
16690.0 0.00018654
16710.0 0.00018624
16730.0 0.00018595
16750.0 0.00018567
16770.0 0.00018539
16790.0 0.00018509
16810.0 0.00018482
16830.0 0.00018454
16850.0 0.00018425
16870.0 0.00018397
16890.0 0.0001837
16910.0 0.00018342
16930.0 0.00018313
16950.0 0.00018286
16970.0 0.00018259
16990.0 0.00018231
17010.0 0.00018204
17030.0 0.00018177
17050.0 0.00018149
17070.0 0.00018122
17090.0 0.00018095
17110.0 0.00018068
17130.0 0.0001804
17150.0 0.00018013
17170.0 0.00017987
17190.0 0.00017959
17210.0 0.00017932
17230.0 0.00017906
17250.0 0.00017879
17270.0 0.00017851
17290.0 0.00017824
17310.0 0.00017798
17330.0 0.0001777
17350.0 0.00017742
17370.0 0.00017716
17390.0 0.00017689
17410.0 0.00017661
17430.0 0.00017634
17450.0 0.00017607
17470.0 0.00017578
17490.0 0.0001755
17510.0 0.00017523
17530.0 0.00017496
17550.0 0.00017467
17570.0 0.00017439
17590.0 0.00017412
17610.0 0.00017383
17630.0 0.00017354
17650.0 0.00017327
17670.0 0.00017298
17690.0 0.00017268
17710.0 0.00017239
17730.0 0.00017211
17750.0 0.00017181
17770.0 0.00017151
17790.0 0.00017123
17810.0 0.00017092
17830.0 0.00017062
17850.0 0.00017032
17870.0 0.00017002
17890.0 0.0001697
17910.0 0.00016939
17930.0 0.00016909
17950.0 0.00016877
17970.0 0.00016845
17990.0 0.00016814
18010.0 0.00016782
18030.0 0.00016749
18050.0 0.00016716
18070.0 0.00016684
18090.0 0.00016651
18110.0 0.00016617
18130.0 0.00016584
18150.0 0.00016551
18170.0 0.00016516
18190.0 0.00016482
18210.0 0.00016448
18230.0 0.00016412
18250.0 0.00016376
18270.0 0.00016341
18290.0 0.00016306
18310.0 0.00016269
18330.0 0.00016233
18350.0 0.00016197
18370.0 0.0001616
18390.0 0.00016122
18410.0 0.00016085
18430.0 0.00016047
18450.0 0.00016008
18470.0 0.0001597
18490.0 0.00015931
18510.0 0.00015892
18530.0 0.00015852
18550.0 0.00015813
18570.0 0.00015773
18590.0 0.00015732
18610.0 0.00015692
18630.0 0.00015651
18650.0 0.00015609
18670.0 0.00015567
18690.0 0.00015526
18710.0 0.00015484
18730.0 0.00015441
18750.0 0.00015399
18770.0 0.00015356
18790.0 0.00015312
18810.0 0.00015268
18830.0 0.00015224
18850.0 0.0001518
18870.0 0.00015134
18890.0 0.0001509
18910.0 0.00015045
18930.0 0.00014999
18950.0 0.00014953
18970.0 0.00014908
18990.0 0.00014861
19010.0 0.00014814
19030.0 0.00014767
19050.0 0.00014721
19070.0 0.00014673
19090.0 0.00014625
19110.0 0.00014578
19130.0 0.00014529
19150.0 0.0001448
19170.0 0.00014432
19190.0 0.00014383
19210.0 0.00014333
19230.0 0.00014284
19250.0 0.00014235
19270.0 0.00014185
19290.0 0.00014134
19310.0 0.00014085
19330.0 0.00014035
19350.0 0.00013983
19370.0 0.00013932
19390.0 0.00013881
19410.0 0.0001383
19430.0 0.00013778
19450.0 0.00013727
19470.0 0.00013675
19490.0 0.00013623
19510.0 0.00013571
19530.0 0.00013519
19550.0 0.00013466
19570.0 0.00013413
19590.0 0.00013361
19610.0 0.00013308
19630.0 0.00013255
19650.0 0.00013202
19670.0 0.00013149
19690.0 0.00013096
19710.0 0.00013042
19730.0 0.00012989
19750.0 0.00012936
19770.0 0.00012881
19790.0 0.00012828
19810.0 0.00012774
19830.0 0.0001272
19850.0 0.00012666
19870.0 0.00012612
19890.0 0.00012555
19910.0 0.00012496
19930.0 0.00012433
19950.0 0.00012365
19970.0 0.00012287
19990.0 0.00012198
20010.0 0.000121
20030.0 0.00011987
20050.0 0.0001186
20070.0 0.00011726
20090.0 0.00011585
20110.0 0.0001143
20130.0 0.00011276
20150.0 0.00011125
20170.0 0.00010971
20190.0 0.00010816
20210.0 0.00010669
20230.0 0.00010526
20250.0 0.00010382
20270.0 0.00010246
20290.0 0.00010118
20310.0 9.9921e-05
20330.0 9.8697e-05
20350.0 9.7599e-05
20370.0 9.655e-05
20390.0 9.5538e-05
20410.0 9.4603e-05
20430.0 9.3749e-05
20450.0 9.2918e-05
20470.0 9.2147e-05
20490.0 9.145e-05
20510.0 9.0801e-05
20530.0 9.0187e-05
20550.0 8.9631e-05
20570.0 8.9129e-05
20590.0 8.8656e-05
20610.0 8.8221e-05
20630.0 8.7828e-05
20650.0 8.7463e-05
20670.0 8.7117e-05
20690.0 8.6801e-05
20710.0 8.6503e-05
20730.0 8.6213e-05
20750.0 8.593e-05
20770.0 8.5651e-05
20790.0 8.5365e-05
20810.0 8.5065e-05
20830.0 8.4752e-05
20850.0 8.442e-05
20870.0 8.4054e-05
20890.0 8.3655e-05
20910.0 8.3235e-05
20930.0 8.2776e-05
20950.0 8.2272e-05
20970.0 8.1742e-05
20990.0 8.1184e-05
21010.0 8.0573e-05
21030.0 7.9935e-05
21050.0 7.9286e-05
21070.0 7.8604e-05
21090.0 7.7882e-05
21110.0 7.7172e-05
21130.0 7.6458e-05
21150.0 7.5715e-05
21170.0 7.4974e-05
21190.0 7.4256e-05
21210.0 7.3521e-05
21230.0 7.278e-05
21250.0 7.2074e-05
21270.0 7.1384e-05
21290.0 7.0689e-05
21310.0 7.0017e-05
21330.0 6.9387e-05
21350.0 6.8757e-05
21370.0 6.8139e-05
21390.0 6.7557e-05
21410.0 6.6996e-05
21430.0 6.6426e-05
21450.0 6.5889e-05
21470.0 6.538e-05
21490.0 6.4874e-05
21510.0 6.4373e-05
21530.0 6.3901e-05
21550.0 6.3435e-05
21570.0 6.2962e-05
21590.0 6.2505e-05
21610.0 6.2062e-05
21630.0 6.1613e-05
21650.0 6.1155e-05
21670.0 6.0726e-05
21690.0 6.0294e-05
21710.0 5.9851e-05
21730.0 5.9418e-05
21750.0 5.8998e-05
21770.0 5.8555e-05
21790.0 5.8115e-05
21810.0 5.7689e-05
21830.0 5.7258e-05
21850.0 5.6812e-05
21870.0 5.6375e-05
21890.0 5.595e-05
21910.0 5.5507e-05
21930.0 5.5062e-05
21950.0 5.4631e-05
21970.0 5.4192e-05
21990.0 5.3732e-05
22010.0 5.3292e-05
22030.0 5.286e-05
22050.0 5.2414e-05
22070.0 5.1971e-05
22090.0 5.1551e-05
22110.0 5.1126e-05
22130.0 5.0697e-05
22150.0 5.0289e-05
22170.0 4.9896e-05
22190.0 4.9495e-05
22210.0 4.911e-05
22230.0 4.8757e-05
22250.0 4.8408e-05
22270.0 4.8068e-05
22290.0 4.7754e-05
22310.0 4.7458e-05
22330.0 4.7162e-05
22350.0 4.6886e-05
22370.0 4.6632e-05
22390.0 4.6386e-05
22410.0 4.6142e-05
22430.0 4.5924e-05
22450.0 4.5715e-05
22470.0 4.5507e-05
22490.0 4.5309e-05
22510.0 4.5126e-05
22530.0 4.494e-05
22550.0 4.4755e-05
22570.0 4.4586e-05
22590.0 4.4422e-05
22610.0 4.4255e-05
22630.0 4.4097e-05
22650.0 4.3955e-05
22670.0 4.381e-05
22690.0 4.3671e-05
22710.0 4.3547e-05
22730.0 4.3431e-05
22750.0 4.3315e-05
22770.0 4.3216e-05
22790.0 4.3134e-05
22810.0 4.306e-05
22830.0 4.2998e-05
22850.0 4.2957e-05
22870.0 4.2931e-05
22890.0 4.2918e-05
22910.0 4.2928e-05
22930.0 4.296e-05
22950.0 4.3013e-05
22970.0 4.309e-05
22990.0 4.3194e-05
23010.0 4.3322e-05
