#lamb flux
1010.0 4.3831e-08
1030.0 4.811e-08
1050.0 5.3031e-08
1070.0 5.8571e-08
1090.0 6.4864e-08
1110.0 7.1318e-08
1130.0 7.7814e-08
1150.0 8.4619e-08
1170.0 9.1638e-08
1190.0 9.8294e-08
1210.0 1.0504e-07
1230.0 1.1201e-07
1250.0 1.1884e-07
1270.0 1.2547e-07
1290.0 1.3248e-07
1310.0 1.3948e-07
1330.0 1.462e-07
1350.0 1.5299e-07
1370.0 1.6e-07
1390.0 1.6684e-07
1410.0 1.7347e-07
1430.0 1.804e-07
1450.0 1.8733e-07
1470.0 1.9404e-07
1490.0 2.0081e-07
1510.0 2.0796e-07
1530.0 2.1474e-07
1550.0 2.2143e-07
1570.0 2.2834e-07
1590.0 2.3527e-07
1610.0 2.4189e-07
1630.0 2.4871e-07
1650.0 2.5571e-07
1670.0 2.6248e-07
1690.0 2.6917e-07
1710.0 2.7611e-07
1730.0 2.831e-07
1750.0 2.8966e-07
1770.0 2.9643e-07
1790.0 3.0333e-07
1810.0 3.1e-07
1830.0 3.1656e-07
1850.0 3.2353e-07
1870.0 3.3031e-07
1890.0 3.3685e-07
1910.0 3.4353e-07
1930.0 3.5036e-07
1950.0 3.5688e-07
1970.0 3.633e-07
1990.0 3.6997e-07
2010.0 3.7651e-07
2030.0 3.8279e-07
2050.0 3.8926e-07
2070.0 3.9587e-07
2090.0 4.0207e-07
2110.0 4.0822e-07
2130.0 4.1454e-07
2150.0 4.2069e-07
2170.0 4.2653e-07
2190.0 4.3255e-07
2210.0 4.3857e-07
2230.0 4.4428e-07
2250.0 4.499e-07
2270.0 4.5575e-07
2290.0 4.6133e-07
2310.0 4.666e-07
2330.0 4.7205e-07
2350.0 4.776e-07
2370.0 4.8307e-07
2390.0 4.8905e-07
2410.0 4.9633e-07
2430.0 5.0489e-07
2450.0 5.154e-07
2470.0 5.2925e-07
2490.0 5.4709e-07
2510.0 5.6756e-07
2530.0 5.925e-07
2550.0 6.2404e-07
2570.0 6.6346e-07
2590.0 7.1477e-07
2610.0 7.9162e-07
2630.0 9.0075e-07
2650.0 1.0423e-06
2670.0 1.224e-06
2690.0 1.4455e-06
2710.0 1.6796e-06
2730.0 1.9084e-06
2750.0 2.1312e-06
2770.0 2.3219e-06
2790.0 2.4697e-06
2810.0 2.5837e-06
2830.0 2.6693e-06
2850.0 2.7235e-06
2870.0 2.7599e-06
2890.0 2.786e-06
2910.0 2.8045e-06
2930.0 2.8176e-06
2950.0 2.8296e-06
2970.0 2.8413e-06
2990.0 2.8519e-06
3010.0 8.583e-05
3030.0 8.6134e-05
3050.0 8.6426e-05
3070.0 8.6642e-05
3090.0 8.6795e-05
3110.0 8.6787e-05
3130.0 8.6503e-05
3150.0 8.586e-05
3170.0 8.4688e-05
3190.0 8.3004e-05
3210.0 8.0947e-05
3230.0 7.8627e-05
3250.0 7.6285e-05
3270.0 7.4552e-05
3290.0 7.3408e-05
3310.0 7.3341e-05
3330.0 7.4165e-05
3350.0 7.5792e-05
3370.0 7.8216e-05
3390.0 8.1333e-05
3410.0 8.4759e-05
3430.0 8.8628e-05
3450.0 9.3101e-05
3470.0 9.8006e-05
3490.0 0.00010323
3510.0 0.00010915
3530.0 0.00011554
3550.0 0.00012216
3570.0 0.00012921
3590.0 0.00013694
3610.0 0.00014516
3630.0 0.00015331
3650.0 0.00016183
3670.0 0.00016955
3690.0 0.00017528
3710.0 0.00017838
3730.0 0.00017769
3750.0 0.0001736
3770.0 0.00017514
3790.0 0.00017366
3810.0 0.00015581
3830.0 0.00015806
3850.0 0.00019768
3870.0 0.00020531
3890.0 0.0001844
3910.0 0.0001786
3930.0 0.00019475
3950.0 0.00021132
3970.0 0.00020865
3990.0 0.00015918
4010.0 0.00041946
4030.0 0.0004813
4050.0 0.00054896
4070.0 0.00051301
4090.0 0.00047016
4110.0 0.00040627
4130.0 0.00041218
4150.0 0.00048638
4170.0 0.00043544
4190.0 0.0004332
4210.0 0.00045078
4230.0 0.00050654
4250.0 0.00060559
4270.0 0.00063234
4290.0 0.00056932
4310.0 0.0005638
4330.0 0.00058061
4350.0 0.00068587
4370.0 0.0008044
4390.0 0.000703
4410.0 0.00046405
4430.0 0.00037072
4450.0 0.00034426
4470.0 0.00024195
4490.0 0.00030515
4510.0 0.00054777
4530.0 0.00064965
4550.0 0.00062853
4570.0 0.0006396
4590.0 0.00070787
4610.0 0.0011325
4630.0 0.0015333
4650.0 0.0015616
4670.0 0.0014108
4690.0 0.0013802
4710.0 0.0014489
4730.0 0.0012919
4750.0 0.00091454
4770.0 0.00064802
4790.0 0.00064713
4810.0 0.00064642
4830.0 0.00061269
4850.0 0.00066745
4870.0 0.0008828
4890.0 0.0010318
4910.0 0.00086029
4930.0 0.00079529
4950.0 0.00089332
4970.0 0.0011624
4990.0 0.0015738
5010.0 0.0018201
5030.0 0.0015378
5050.0 0.00099986
5070.0 0.00068027
5090.0 0.00053085
5110.0 0.00052329
5130.0 0.00061719
5150.0 0.00063968
5170.0 0.00061776
5190.0 0.00056439
5210.0 0.00060814
5230.0 0.00068606
5250.0 0.00076631
5270.0 0.00077172
5290.0 0.00084337
5310.0 0.0010464
5330.0 0.0011472
5350.0 0.001136
5370.0 0.0012278
5390.0 0.0014666
5410.0 0.0013678
5430.0 0.0011424
5450.0 0.001092
5470.0 0.0012046
5490.0 0.0014841
5510.0 0.0018295
5530.0 0.0021105
5550.0 0.0019809
5570.0 0.0017918
5590.0 0.0015204
5610.0 0.0014605
5630.0 0.0015172
5650.0 0.001418
5670.0 0.0013235
5690.0 0.0011294
5710.0 0.001129
5730.0 0.0010651
5750.0 0.00067295
5770.0 0.00050441
5790.0 0.0005922
5810.0 0.00064746
5830.0 0.00088115
5850.0 0.0010976
5870.0 0.0012036
5890.0 0.0011914
5910.0 0.001166
5930.0 0.001113
5950.0 0.0011394
5970.0 0.0013531
5990.0 0.0011964
6010.0 0.00096732
6030.0 0.00080617
6050.0 0.00070981
6070.0 0.00076442
6090.0 0.00084121
6110.0 0.00090148
6130.0 0.00087963
6150.0 0.00072825
6170.0 0.00060404
6190.0 0.00069816
6210.0 0.00099937
6230.0 0.0013908
6250.0 0.0015076
6270.0 0.0012396
6290.0 0.001052
6310.0 0.00081264
6330.0 0.00060874
6350.0 0.00056687
6370.0 0.00059557
6390.0 0.00069781
6410.0 0.000882
6430.0 0.001045
6450.0 0.001236
6470.0 0.0013581
6490.0 0.0016314
6510.0 0.0018262
6530.0 0.0018312
6550.0 0.0016699
6570.0 0.0013718
6590.0 0.0012654
6610.0 0.0010697
6630.0 0.0010382
6650.0 0.0009978
6670.0 0.00091483
6690.0 0.00076374
6710.0 0.00071924
6730.0 0.00041195
6750.0 0.00046601
6770.0 0.00061082
6790.0 0.00075847
6810.0 0.00060439
6830.0 0.00061952
6850.0 0.00054568
6870.0 0.00050298
6890.0 0.00045422
6910.0 0.00051783
6930.0 0.00048665
6950.0 0.00053994
6970.0 0.00056607
6990.0 0.00063544
7010.0 0.00062442
7030.0 0.00067859
7050.0 0.00061576
7070.0 0.00054772
7090.0 0.00056938
7110.0 0.00059757
7130.0 0.00066696
7150.0 0.00073243
7170.0 0.00081607
7190.0 0.00088626
7210.0 0.00082885
7230.0 0.00084606
7250.0 0.00090591
7270.0 0.00097644
7290.0 0.0011845
7310.0 0.0012734
7330.0 0.0012151
7350.0 0.0010944
7370.0 0.00088171
7390.0 0.00087813
7410.0 0.0009991
7430.0 0.0011255
7450.0 0.0012195
7470.0 0.0011574
7490.0 0.00098044
7510.0 0.0013266
7530.0 0.0012605
7550.0 0.0011668
7570.0 0.00084917
7590.0 0.00047985
7610.0 0.00038269
7630.0 0.00048682
7650.0 0.00060927
7670.0 0.00085442
7690.0 0.0009447
7710.0 0.00091751
7730.0 0.00094031
7750.0 0.0011407
7770.0 0.0011667
7790.0 0.001068
7810.0 0.00091606
7830.0 0.00096919
7850.0 0.0010025
7870.0 0.0009509
7890.0 0.00076823
7910.0 0.0005689
7930.0 0.00056655
7950.0 0.00051447
7970.0 0.00045491
7990.0 0.00043315
8010.0 0.00011708
8030.0 0.00010616
8050.0 0.00011487
8070.0 0.00013196
8090.0 0.00016429
8110.0 0.00015516
8130.0 8.9014e-05
8150.0 9.4447e-05
8170.0 4.9714e-05
8190.0 2.7325e-05
8210.0 8.5445e-05
8230.0 0.00010453
8250.0 3.7966e-05
8270.0 2.8841e-05
8290.0 6.3035e-05
8310.0 5.726e-05
8330.0 3.541e-05
8350.0 2.8136e-05
8370.0 5.2054e-06
8390.0 3.0288e-05
8410.0 3.4405e-05
8430.0 4.2552e-05
8450.0 4.8308e-05
8470.0 8.2835e-05
8490.0 6.7805e-05
8510.0 5.1862e-05
8530.0 2.5991e-05
8550.0 9.4855e-05
8570.0 0.00014608
8590.0 0.00010122
8610.0 0.00015324
8630.0 0.00016799
8650.0 9.2296e-05
8670.0 0.00013599
8690.0 0.00020882
8710.0 0.00017798
8730.0 0.00019027
8750.0 0.00014869
8770.0 0.00013178
8790.0 0.00014574
8810.0 0.00015833
8830.0 8.702e-05
8850.0 3.5122e-05
8870.0 2.391e-05
8890.0 6.4448e-05
8910.0 0.00010395
8930.0 0.00013922
8950.0 0.00015307
8970.0 0.0001468
8990.0 0.00010711
9010.0 0.00020025
9030.0 0.0001621
9050.0 0.0001657
9070.0 0.00016983
9090.0 0.00017326
9110.0 0.00017749
9130.0 0.00018056
9150.0 0.00018278
9170.0 0.00018514
9190.0 0.00018766
9210.0 0.00019031
9230.0 0.0001931
9250.0 0.00019592
9270.0 0.00019884
9290.0 0.00020183
9310.0 0.00020481
9330.0 0.00020783
9350.0 0.00021096
9370.0 0.0002141
9390.0 0.00021725
9410.0 0.00022048
9430.0 0.0002238
9450.0 0.00022708
9470.0 0.00023041
9490.0 0.00023384
9510.0 0.00023729
9530.0 0.00024074
9550.0 0.00024431
9570.0 0.00024794
9590.0 0.00025155
9610.0 0.00025522
9630.0 0.000259
9650.0 0.00026279
9670.0 0.00026656
9690.0 0.00027045
9710.0 0.00027439
9730.0 0.00027833
9750.0 0.00028232
9770.0 0.00028644
9790.0 0.00029054
9810.0 0.00029465
9830.0 0.00029885
9850.0 0.00030311
9870.0 0.00030733
9890.0 0.00031163
9910.0 0.00031601
9930.0 0.00032039
9950.0 0.00032477
9970.0 0.00032926
9990.0 0.0003338
10010.0 0.00029279
10030.0 0.00029672
10050.0 0.00030072
10070.0 0.00030471
10090.0 0.00030867
10110.0 0.00031273
10130.0 0.00031679
10150.0 0.00032082
10170.0 0.00032489
10190.0 0.00032903
10210.0 0.00033311
10230.0 0.00033718
10250.0 0.00034132
10270.0 0.00034544
10290.0 0.00034952
10310.0 0.00035365
10330.0 0.00035782
10350.0 0.00036192
10370.0 0.000366
10390.0 0.00037013
10410.0 0.00037423
10430.0 0.00037825
10450.0 0.00038232
10470.0 0.00038639
10490.0 0.00039039
10510.0 0.00039435
10530.0 0.00039839
10550.0 0.00040235
10570.0 0.00040623
10590.0 0.00041012
10610.0 0.000414
10630.0 0.00041778
10650.0 0.00042153
10670.0 0.00042532
10690.0 0.00042902
10710.0 0.00043263
10730.0 0.00043625
10750.0 0.00043988
10770.0 0.00044334
10790.0 0.00044676
10810.0 0.00045019
10830.0 0.0004535
10850.0 0.00045664
10870.0 0.00045973
10890.0 0.00046251
10910.0 0.00046476
10930.0 0.00046631
10950.0 0.00046673
10970.0 0.00046567
10990.0 0.00046296
11010.0 0.00043634
11030.0 0.00042954
11050.0 0.00042111
11070.0 0.00041095
11090.0 0.0003987
11110.0 0.000386
11130.0 0.00037277
11150.0 0.00035854
11170.0 0.00034392
11190.0 0.00032977
11210.0 0.00031521
11230.0 0.00030033
11250.0 0.00028615
11270.0 0.00027257
11290.0 0.00025899
11310.0 0.00024614
11330.0 0.00023481
11350.0 0.0002241
11370.0 0.00021418
11390.0 0.00020555
11410.0 0.00019795
11430.0 0.00019084
11450.0 0.00018465
11470.0 0.00017923
11490.0 0.00017414
11510.0 0.00016921
11530.0 0.0001646
11550.0 0.00016002
11570.0 0.00015517
11590.0 0.00015017
11610.0 0.0001451
11630.0 0.00013964
11650.0 0.00013384
11670.0 0.00012814
11690.0 0.00012239
11710.0 0.00011648
11730.0 0.00011075
11750.0 0.00010545
11770.0 0.00010025
11790.0 9.5357e-05
11810.0 9.1027e-05
11830.0 8.7128e-05
11850.0 8.3513e-05
11870.0 8.045e-05
11890.0 7.7865e-05
11910.0 7.5562e-05
11930.0 7.3551e-05
11950.0 7.1844e-05
11970.0 7.03e-05
11990.0 6.8833e-05
12010.0 6.7472e-05
12030.0 6.6162e-05
12050.0 6.4823e-05
12070.0 6.3446e-05
12090.0 6.2121e-05
12110.0 6.0782e-05
12130.0 5.944e-05
12150.0 5.8188e-05
12170.0 5.7069e-05
12190.0 5.6062e-05
12210.0 5.5287e-05
12230.0 5.4789e-05
12250.0 5.4589e-05
12270.0 5.4749e-05
12290.0 5.5274e-05
12310.0 5.6136e-05
12330.0 5.7431e-05
12350.0 5.9107e-05
12370.0 6.1051e-05
12390.0 6.3325e-05
12410.0 6.6023e-05
12430.0 6.8773e-05
12450.0 7.1628e-05
12470.0 7.4675e-05
12490.0 7.7736e-05
12510.0 8.0599e-05
12530.0 8.3446e-05
12550.0 8.6187e-05
12570.0 8.8591e-05
12590.0 9.0685e-05
12610.0 9.2538e-05
12630.0 9.3991e-05
12650.0 9.4954e-05
12670.0 9.5547e-05
12690.0 9.5714e-05
12710.0 9.5437e-05
12730.0 9.4765e-05
12750.0 9.3663e-05
12770.0 9.2195e-05
12790.0 9.0442e-05
12810.0 8.8375e-05
12830.0 8.6007e-05
12850.0 8.3539e-05
12870.0 8.0943e-05
12890.0 7.8152e-05
12910.0 7.5325e-05
12930.0 7.2546e-05
12950.0 6.9661e-05
12970.0 6.6736e-05
12990.0 6.3973e-05
13010.0 6.1252e-05
13030.0 5.8508e-05
13050.0 5.5875e-05
13070.0 5.3408e-05
13090.0 5.0934e-05
13110.0 4.854e-05
13130.0 4.6327e-05
13150.0 4.4227e-05
13170.0 4.2166e-05
13190.0 4.032e-05
13210.0 3.8684e-05
13230.0 3.7176e-05
13250.0 3.586e-05
13270.0 3.4801e-05
13290.0 3.3951e-05
13310.0 3.3328e-05
13330.0 3.2985e-05
13350.0 3.2904e-05
13370.0 3.3097e-05
13390.0 3.3583e-05
13410.0 3.4286e-05
13430.0 3.5236e-05
13450.0 3.6438e-05
13470.0 3.7796e-05
13490.0 3.9251e-05
13510.0 4.0913e-05
13530.0 4.2614e-05
13550.0 4.4256e-05
13570.0 4.589e-05
13590.0 4.7498e-05
13610.0 4.894e-05
13630.0 5.021e-05
13650.0 5.1383e-05
13670.0 5.2367e-05
13690.0 5.314e-05
13710.0 5.3748e-05
13730.0 5.4199e-05
13750.0 5.4441e-05
13770.0 5.4523e-05
13790.0 5.4456e-05
13810.0 5.4239e-05
13830.0 5.3898e-05
13850.0 5.3425e-05
13870.0 5.2822e-05
13890.0 5.2125e-05
13910.0 5.1337e-05
13930.0 5.0423e-05
13950.0 4.9424e-05
13970.0 4.8402e-05
13990.0 4.729e-05
14010.0 4.611e-05
14030.0 4.4933e-05
14050.0 4.3748e-05
14070.0 4.2499e-05
14090.0 4.1302e-05
14110.0 4.0176e-05
14130.0 3.9085e-05
14150.0 3.8056e-05
14170.0 3.7176e-05
14190.0 3.641e-05
14210.0 3.5757e-05
14230.0 3.5267e-05
14250.0 3.4943e-05
14270.0 3.4774e-05
14290.0 3.4783e-05
14310.0 3.4956e-05
14330.0 3.5286e-05
14350.0 3.5782e-05
14370.0 3.6409e-05
14390.0 3.7128e-05
14410.0 3.7982e-05
14430.0 3.8927e-05
14450.0 3.99e-05
14470.0 4.0916e-05
14490.0 4.2004e-05
14510.0 4.3052e-05
14530.0 4.4054e-05
14550.0 4.5061e-05
14570.0 4.6034e-05
14590.0 4.6925e-05
14610.0 4.7789e-05
14630.0 4.8646e-05
14650.0 4.9446e-05
14670.0 5.0217e-05
14690.0 5.1019e-05
14710.0 5.186e-05
14730.0 5.2698e-05
14750.0 5.3625e-05
14770.0 5.4673e-05
14790.0 5.5809e-05
14810.0 5.704e-05
14830.0 5.8498e-05
14850.0 6.0085e-05
14870.0 6.1744e-05
14890.0 6.3538e-05
14910.0 6.5445e-05
14930.0 6.7285e-05
14950.0 6.9011e-05
14970.0 7.065e-05
14990.0 7.2034e-05
15010.0 7.3104e-05
15030.0 7.3909e-05
15050.0 7.4459e-05
15070.0 7.4752e-05
15090.0 7.4885e-05
15110.0 7.4908e-05
15130.0 7.4861e-05
15150.0 7.4781e-05
15170.0 7.4677e-05
15190.0 7.4563e-05
15210.0 7.4452e-05
15230.0 7.4342e-05
15250.0 7.4225e-05
15270.0 7.4111e-05
15290.0 7.4006e-05
15310.0 7.3897e-05
15330.0 7.3787e-05
15350.0 7.3683e-05
15370.0 7.358e-05
15390.0 7.347e-05
15410.0 7.3365e-05
15430.0 7.3266e-05
15450.0 7.3162e-05
15470.0 7.3057e-05
15490.0 7.2959e-05
15510.0 7.2862e-05
15530.0 7.276e-05
15550.0 7.2661e-05
15570.0 7.2567e-05
15590.0 7.2467e-05
15610.0 7.2365e-05
15630.0 7.2272e-05
15650.0 7.2177e-05
15670.0 7.2078e-05
15690.0 7.1983e-05
15710.0 7.1892e-05
15730.0 7.1795e-05
15750.0 7.1698e-05
15770.0 7.1606e-05
15790.0 7.1513e-05
15810.0 7.1413e-05
15830.0 7.1319e-05
15850.0 7.1229e-05
15870.0 7.1133e-05
15890.0 7.1037e-05
15910.0 7.0947e-05
15930.0 7.0853e-05
15950.0 7.0754e-05
15970.0 7.066e-05
15990.0 7.0568e-05
16010.0 7.047e-05
16030.0 7.037e-05
16050.0 7.028e-05
16070.0 7.0185e-05
16090.0 7.0085e-05
16110.0 6.999e-05
16130.0 6.9898e-05
16150.0 6.9794e-05
16170.0 6.9694e-05
16190.0 6.9599e-05
16210.0 6.95e-05
16230.0 6.9396e-05
16250.0 6.9298e-05
16270.0 6.9201e-05
16290.0 6.9096e-05
16310.0 6.8993e-05
16330.0 6.8894e-05
16350.0 6.879e-05
16370.0 6.8678e-05
16390.0 6.8576e-05
16410.0 6.8473e-05
16430.0 6.8364e-05
16450.0 6.8255e-05
16470.0 6.8153e-05
16490.0 6.8042e-05
16510.0 6.7928e-05
16530.0 6.7819e-05
16550.0 6.7709e-05
16570.0 6.7592e-05
16590.0 6.7475e-05
16610.0 6.7366e-05
16630.0 6.725e-05
16650.0 6.7131e-05
16670.0 6.7016e-05
16690.0 6.6901e-05
16710.0 6.6774e-05
16730.0 6.6653e-05
16750.0 6.6535e-05
16770.0 6.6411e-05
16790.0 6.6282e-05
16810.0 6.6161e-05
16830.0 6.6038e-05
16850.0 6.5907e-05
16870.0 6.5779e-05
16890.0 6.5654e-05
16910.0 6.552e-05
16930.0 6.5383e-05
16950.0 6.5254e-05
16970.0 6.5122e-05
16990.0 6.4983e-05
17010.0 6.4847e-05
17030.0 6.4715e-05
17050.0 6.4573e-05
17070.0 6.4431e-05
17090.0 6.4293e-05
17110.0 6.4152e-05
17130.0 6.4002e-05
17150.0 6.3859e-05
17170.0 6.3717e-05
17190.0 6.3569e-05
17210.0 6.3419e-05
17230.0 6.3275e-05
17250.0 6.3125e-05
17270.0 6.2968e-05
17290.0 6.2817e-05
17310.0 6.2666e-05
17330.0 6.2508e-05
17350.0 6.2348e-05
17370.0 6.2197e-05
17390.0 6.2039e-05
17410.0 6.1877e-05
17430.0 6.1718e-05
17450.0 6.1562e-05
17470.0 6.1392e-05
17490.0 6.1226e-05
17510.0 6.1066e-05
17530.0 6.09e-05
17550.0 6.0729e-05
17570.0 6.0563e-05
17590.0 6.0399e-05
17610.0 6.0225e-05
17630.0 6.0053e-05
17650.0 5.9885e-05
17670.0 5.9711e-05
17690.0 5.9529e-05
17710.0 5.9358e-05
17730.0 5.9185e-05
17750.0 5.9005e-05
17770.0 5.8826e-05
17790.0 5.8654e-05
17810.0 5.8472e-05
17830.0 5.8287e-05
17850.0 5.8108e-05
17870.0 5.7928e-05
17890.0 5.7739e-05
17910.0 5.7553e-05
17930.0 5.7374e-05
17950.0 5.7188e-05
17970.0 5.6998e-05
17990.0 5.6814e-05
18010.0 5.6629e-05
18030.0 5.6433e-05
18050.0 5.6244e-05
18070.0 5.6057e-05
18090.0 5.5864e-05
18110.0 5.5668e-05
18130.0 5.548e-05
18150.0 5.5289e-05
18170.0 5.5092e-05
18190.0 5.4898e-05
18210.0 5.4707e-05
18230.0 5.4508e-05
18250.0 5.4306e-05
18270.0 5.4114e-05
18290.0 5.3918e-05
18310.0 5.3716e-05
18330.0 5.3518e-05
18350.0 5.3325e-05
18370.0 5.3121e-05
18390.0 5.2919e-05
18410.0 5.2722e-05
18430.0 5.2522e-05
18450.0 5.2313e-05
18470.0 5.2113e-05
18490.0 5.1915e-05
18510.0 5.171e-05
18530.0 5.1505e-05
18550.0 5.1307e-05
18570.0 5.1103e-05
18590.0 5.0893e-05
18610.0 5.069e-05
18630.0 5.0489e-05
18650.0 5.028e-05
18670.0 5.0071e-05
18690.0 4.9872e-05
18710.0 4.9666e-05
18730.0 4.9457e-05
18750.0 4.9252e-05
18770.0 4.905e-05
18790.0 4.8837e-05
18810.0 4.8628e-05
18830.0 4.8425e-05
18850.0 4.8218e-05
18870.0 4.8006e-05
18890.0 4.7802e-05
18910.0 4.7598e-05
18930.0 4.7386e-05
18950.0 4.7177e-05
18970.0 4.6973e-05
18990.0 4.6765e-05
19010.0 4.6548e-05
19030.0 4.6345e-05
19050.0 4.6139e-05
19070.0 4.5928e-05
19090.0 4.5719e-05
19110.0 4.5517e-05
19130.0 4.5306e-05
19150.0 4.5094e-05
19170.0 4.4889e-05
19190.0 4.4682e-05
19210.0 4.4469e-05
19230.0 4.426e-05
19250.0 4.4058e-05
19270.0 4.3849e-05
19290.0 4.3638e-05
19310.0 4.3434e-05
19330.0 4.3229e-05
19350.0 4.3015e-05
19370.0 4.2808e-05
19390.0 4.2604e-05
19410.0 4.2395e-05
19430.0 4.2184e-05
19450.0 4.1983e-05
19470.0 4.1778e-05
19490.0 4.1567e-05
19510.0 4.1362e-05
19530.0 4.116e-05
19550.0 4.0951e-05
19570.0 4.074e-05
19590.0 4.0539e-05
19610.0 4.0335e-05
19630.0 4.0127e-05
19650.0 3.9923e-05
19670.0 3.9724e-05
19690.0 3.9516e-05
19710.0 3.9309e-05
19730.0 3.9109e-05
19750.0 3.8906e-05
19770.0 3.8696e-05
19790.0 3.8495e-05
19810.0 3.8296e-05
19830.0 3.8091e-05
19850.0 3.7884e-05
19870.0 3.7682e-05
19890.0 3.7467e-05
19910.0 3.7233e-05
19930.0 3.6986e-05
19950.0 3.6707e-05
19970.0 3.6371e-05
19990.0 3.5972e-05
20010.0 3.2381e-05
20030.0 3.1892e-05
20050.0 3.1323e-05
20070.0 3.0711e-05
20090.0 3.0056e-05
20110.0 2.932e-05
20130.0 2.8577e-05
20150.0 2.7842e-05
20170.0 2.7083e-05
20190.0 2.6315e-05
20210.0 2.559e-05
20230.0 2.4885e-05
20250.0 2.4179e-05
20270.0 2.3523e-05
20290.0 2.2924e-05
20310.0 2.2355e-05
20330.0 2.1822e-05
20350.0 2.1377e-05
20370.0 2.098e-05
20390.0 2.063e-05
20410.0 2.0345e-05
20430.0 2.0121e-05
20450.0 1.994e-05
20470.0 1.9814e-05
20490.0 1.974e-05
20510.0 1.9709e-05
20530.0 1.972e-05
20550.0 1.9769e-05
20570.0 1.9846e-05
20590.0 1.9957e-05
20610.0 2.0094e-05
20630.0 2.0247e-05
20650.0 2.042e-05
20670.0 2.0621e-05
20690.0 2.0827e-05
20710.0 2.104e-05
20730.0 2.1271e-05
20750.0 2.1513e-05
20770.0 2.175e-05
20790.0 2.1998e-05
20810.0 2.2261e-05
20830.0 2.2521e-05
20850.0 2.2781e-05
20870.0 2.3059e-05
20890.0 2.3341e-05
20910.0 2.3612e-05
20930.0 2.3891e-05
20950.0 2.4181e-05
20970.0 2.4461e-05
20990.0 2.4737e-05
21010.0 2.5027e-05
21030.0 2.531e-05
21050.0 2.5578e-05
21070.0 2.5846e-05
21090.0 2.6114e-05
21110.0 2.6358e-05
21130.0 2.6586e-05
21150.0 2.6807e-05
21170.0 2.7006e-05
21190.0 2.7177e-05
21210.0 2.733e-05
21230.0 2.7456e-05
21250.0 2.7545e-05
21270.0 2.7599e-05
21290.0 2.7617e-05
21310.0 2.7591e-05
21330.0 2.7523e-05
21350.0 2.7406e-05
21370.0 2.7238e-05
21390.0 2.7025e-05
21410.0 2.6765e-05
21430.0 2.6437e-05
21450.0 2.6068e-05
21470.0 2.5667e-05
21490.0 2.5214e-05
21510.0 2.4716e-05
21530.0 2.4211e-05
21550.0 2.3681e-05
21570.0 2.3116e-05
21590.0 2.2561e-05
21610.0 2.2023e-05
21630.0 2.1485e-05
21650.0 2.0959e-05
21670.0 2.0501e-05
21690.0 2.0079e-05
21710.0 1.9697e-05
21730.0 1.9383e-05
21750.0 1.9138e-05
21770.0 1.8949e-05
21790.0 1.8836e-05
21810.0 1.8797e-05
21830.0 1.8827e-05
21850.0 1.8931e-05
21870.0 1.9099e-05
21890.0 1.9319e-05
21910.0 1.9604e-05
21930.0 1.9941e-05
21950.0 2.0306e-05
21970.0 2.0713e-05
21990.0 2.117e-05
22010.0 2.1628e-05
22030.0 2.2094e-05
22050.0 2.2584e-05
22070.0 2.3078e-05
22090.0 2.3545e-05
22110.0 2.4017e-05
22130.0 2.449e-05
22150.0 2.4931e-05
22170.0 2.5347e-05
22190.0 2.576e-05
22210.0 2.6145e-05
22230.0 2.6483e-05
22250.0 2.6801e-05
22270.0 2.7094e-05
22290.0 2.7345e-05
22310.0 2.7559e-05
22330.0 2.7747e-05
22350.0 2.7892e-05
22370.0 2.7992e-05
22390.0 2.8054e-05
22410.0 2.8072e-05
22430.0 2.8041e-05
22450.0 2.7966e-05
22470.0 2.7839e-05
22490.0 2.7662e-05
22510.0 2.7443e-05
22530.0 2.7163e-05
22550.0 2.6824e-05
22570.0 2.6448e-05
22590.0 2.6025e-05
22610.0 2.5539e-05
22630.0 2.5014e-05
22650.0 2.447e-05
22670.0 2.387e-05
22690.0 2.323e-05
22710.0 2.2584e-05
