#lamb flux
1010.0 1.1511e-05
1030.0 1.2957e-05
1050.0 1.4454e-05
1070.0 1.6146e-05
1090.0 1.8127e-05
1110.0 2.0164e-05
1130.0 2.2228e-05
1150.0 2.4405e-05
1170.0 2.6678e-05
1190.0 2.8878e-05
1210.0 3.1154e-05
1230.0 3.3562e-05
1250.0 3.5984e-05
1270.0 3.8422e-05
1290.0 4.1067e-05
1310.0 4.3802e-05
1330.0 4.6536e-05
1350.0 4.9384e-05
1370.0 5.2392e-05
1390.0 5.5421e-05
1410.0 5.8447e-05
1430.0 6.1637e-05
1450.0 6.4874e-05
1470.0 6.8063e-05
1490.0 7.1298e-05
1510.0 7.4682e-05
1530.0 7.7924e-05
1550.0 8.1113e-05
1570.0 8.4359e-05
1590.0 8.7563e-05
1610.0 9.0588e-05
1630.0 9.3602e-05
1650.0 9.6602e-05
1670.0 9.9416e-05
1690.0 0.00010209
1710.0 0.00010475
1730.0 0.00010729
1750.0 0.00010955
1770.0 0.00011174
1790.0 0.00011384
1810.0 0.00011573
1830.0 0.00011743
1850.0 0.00011915
1870.0 0.00012068
1890.0 0.000122
1910.0 0.00012326
1930.0 0.00012447
1950.0 0.00012547
1970.0 0.00012635
1990.0 0.00012724
2010.0 0.00012799
2030.0 0.00012857
2050.0 0.00012914
2070.0 0.00012966
2090.0 0.00012995
2110.0 0.00013012
2130.0 0.00013023
2150.0 0.00013017
2170.0 0.00012987
2190.0 0.0001295
2210.0 0.00012897
2230.0 0.0001282
2250.0 0.00012725
2270.0 0.0001262
2290.0 0.00012491
2310.0 0.00012338
2330.0 0.00012174
2350.0 0.00011993
2370.0 0.0001179
2390.0 0.00011572
2410.0 0.00011344
2430.0 0.00011093
2450.0 0.0001082
2470.0 0.00010529
2490.0 0.00010217
2510.0 9.8862e-05
2530.0 9.5599e-05
2550.0 9.2707e-05
2570.0 9.0602e-05
2590.0 8.9719e-05
2610.0 9.095e-05
2630.0 9.4544e-05
2650.0 0.00010003
2670.0 0.00010738
2690.0 0.00011605
2710.0 0.00012412
2730.0 0.00013053
2750.0 0.00013509
2770.0 0.00013639
2790.0 0.00013411
2810.0 0.00012857
2830.0 0.00011974
2850.0 0.00010847
2870.0 9.5425e-05
2890.0 8.0736e-05
2910.0 6.5091e-05
2930.0 4.9297e-05
2950.0 3.2761e-05
2970.0 1.5707e-05
2990.0 7.8522e-06
3010.0 1.733e-05
3030.0 1.733e-05
3050.0 1.733e-05
3070.0 1.733e-05
3090.0 1.733e-05
3110.0 1.733e-05
3130.0 1.733e-05
3150.0 1.733e-05
3170.0 1.733e-05
3190.0 1.733e-05
3210.0 1.733e-05
3230.0 0.00047194
3250.0 0.00093818
3270.0 0.00093868
3290.0 0.0010115
3310.0 0.00079645
3330.0 0.00079568
3350.0 0.00088309
3370.0 0.0010084
3390.0 0.0011498
3410.0 0.0013012
3430.0 0.0014944
3450.0 0.0016904
3470.0 0.0018951
3490.0 0.0020077
3510.0 0.0019526
3530.0 0.0019778
3550.0 0.0020849
3570.0 0.0020996
3590.0 0.0022387
3610.0 0.0021421
3630.0 0.0026517
3650.0 0.002975
3670.0 0.0031777
3690.0 0.0030016
3710.0 0.0024699
3730.0 0.0023185
3750.0 0.0020911
3770.0 0.0019316
3790.0 0.0017525
3810.0 0.0016932
3830.0 0.0019463
3850.0 0.00085524
3870.0 0.0015727
3890.0 0.0018581
3910.0 0.0020923
3930.0 0.0026031
3950.0 0.0028297
3970.0 0.0032998
3990.0 0.0040452
4010.0 0.0030409
4030.0 0.0025195
4050.0 0.001912
4070.0 0.0019665
4090.0 0.0030866
4110.0 0.0029289
4130.0 0.0031577
4150.0 0.0029743
4170.0 0.0028319
4190.0 0.0025761
4210.0 0.0037408
4230.0 0.0038999
4250.0 0.0042414
4270.0 0.0039816
4290.0 0.0040203
4310.0 0.0045113
4330.0 0.0053091
4350.0 0.0053291
4370.0 0.0051892
4390.0 0.0046411
4410.0 0.0043205
4430.0 0.0033937
4450.0 0.0028398
4470.0 0.0031644
4490.0 0.0037718
4510.0 0.0039063
4530.0 0.0040241
4550.0 0.0041759
4570.0 0.0059124
4590.0 0.0087418
4610.0 0.010276
4630.0 0.010305
4650.0 0.010791
4670.0 0.012358
4690.0 0.013503
4710.0 0.011123
4730.0 0.0084754
4750.0 0.0067294
4770.0 0.0059433
4790.0 0.0055709
4810.0 0.0053124
4830.0 0.0058693
4850.0 0.0068008
4870.0 0.0074219
4890.0 0.0077431
4910.0 0.0071335
4930.0 0.0075935
4950.0 0.0093685
4970.0 0.011165
4990.0 0.011662
5010.0 0.010759
5030.0 0.0089421
5050.0 0.0068165
5070.0 0.0053882
5090.0 0.0048331
5110.0 0.0047274
5130.0 0.0048247
5150.0 0.004809
5170.0 0.0046018
5190.0 0.0043482
5210.0 0.0042382
5230.0 0.0047239
5250.0 0.0054421
5270.0 0.0064451
5290.0 0.0073943
5310.0 0.0077736
5330.0 0.008381
5350.0 0.0092568
5370.0 0.0097075
5390.0 0.0087868
5410.0 0.0077485
5430.0 0.0074608
5450.0 0.0085989
5470.0 0.010632
5490.0 0.012425
5510.0 0.013192
5530.0 0.012921
5550.0 0.012234
5570.0 0.011775
5590.0 0.011307
5610.0 0.01109
5630.0 0.010941
5650.0 0.010859
5670.0 0.010698
5690.0 0.0097596
5710.0 0.008141
5730.0 0.007165
5750.0 0.0067206
5770.0 0.0067864
5790.0 0.0069577
5810.0 0.0071979
5830.0 0.0072662
5850.0 0.006849
5870.0 0.0063418
5890.0 0.0059978
5910.0 0.0060982
5930.0 0.0063223
5950.0 0.0058863
5970.0 0.0051454
5990.0 0.0042303
6010.0 0.0033963
6030.0 0.0030849
6050.0 0.0033032
6070.0 0.003544
6090.0 0.0034508
6110.0 0.0030461
6130.0 0.0030757
6150.0 0.0035591
6170.0 0.0041324
6190.0 0.0046027
6210.0 0.0046644
6230.0 0.0045672
6250.0 0.0041832
6270.0 0.003526
6290.0 0.0029232
6310.0 0.0025737
6330.0 0.0024956
6350.0 0.002555
6370.0 0.0025701
6390.0 0.0028279
6410.0 0.0034951
6430.0 0.0043833
6450.0 0.0050313
6470.0 0.005227
6490.0 0.0051532
6510.0 0.0052673
6530.0 0.0054679
6550.0 0.0054205
6570.0 0.0056199
6590.0 0.0057316
6610.0 0.0058335
6630.0 0.0057997
6650.0 0.0054731
6670.0 0.0050052
6690.0 0.0044957
6710.0 0.0042061
6730.0 0.0041952
6750.0 0.0043354
6770.0 0.0044653
6790.0 0.0045901
6810.0 0.0046715
6830.0 0.0045767
6850.0 0.0043826
6870.0 0.0041116
6890.0 0.0040149
6910.0 0.0038501
6930.0 0.003969
6950.0 0.0042386
6970.0 0.004362
6990.0 0.0044639
7010.0 0.0043562
7030.0 0.0040187
7050.0 0.0035471
7070.0 0.003112
7090.0 0.0028483
7110.0 0.0028114
7130.0 0.0028043
7150.0 0.0025499
7170.0 0.0024024
7190.0 0.0025794
7210.0 0.0029425
7230.0 0.0034087
7250.0 0.0036494
7270.0 0.0036406
7290.0 0.0033505
7310.0 0.0030715
7330.0 0.0029173
7350.0 0.0029155
7370.0 0.0029777
7390.0 0.0031086
7410.0 0.003422
7430.0 0.0039692
7450.0 0.004521
7470.0 0.0048242
7490.0 0.0047751
7510.0 0.0045074
7530.0 0.0038731
7550.0 0.0035062
7570.0 0.0031222
7590.0 0.0029473
7610.0 0.0030808
7630.0 0.0034075
7650.0 0.0038339
7670.0 0.0042502
7690.0 0.0045409
7710.0 0.0048688
7730.0 0.0052219
7750.0 0.0055371
7770.0 0.0055268
7790.0 0.0055924
7810.0 0.0057587
7830.0 0.0058403
7850.0 0.0057037
7870.0 0.0055316
7890.0 0.0055442
7910.0 0.0053591
7930.0 0.005317
7950.0 0.0050714
7970.0 0.0049817
7990.0 0.004854
8010.0 0.0050244
8030.0 0.0050939
8050.0 0.0051723
8070.0 0.0051467
8090.0 0.0051473
8110.0 0.0049725
8130.0 0.0049834
8150.0 0.0049329
8170.0 0.0048256
8190.0 0.0047564
8210.0 0.0047818
8230.0 0.0046698
8250.0 0.004561
8270.0 0.0041102
8290.0 0.0033461
8310.0 0.0025058
8330.0 0.00192
8350.0 0.0017878
8370.0 0.0021475
8390.0 0.0026281
8410.0 0.0028737
8430.0 0.0029849
8450.0 0.0031467
8470.0 0.0033668
8490.0 0.0037818
8510.0 0.0043355
8530.0 0.0050316
8550.0 0.005729
8570.0 0.0063338
8590.0 0.0068137
8610.0 0.0071218
8630.0 0.0072055
8650.0 0.0071865
8670.0 0.0072133
8690.0 0.0075742
8710.0 0.0080355
8730.0 0.0083809
8750.0 0.0083704
8770.0 0.0085034
8790.0 0.0084814
8810.0 0.0079723
8830.0 0.0075804
8850.0 0.0070309
8870.0 0.0065857
8890.0 0.0064335
8910.0 0.006486
8930.0 0.0061576
8950.0 0.0057997
8970.0 0.0056626
8990.0 0.0056173
9010.0 0.005408
9030.0 0.0052857
9050.0 0.005244
9070.0 0.0052246
9090.0 0.0052077
9110.0 0.0051914
9130.0 0.0051748
9150.0 0.0051585
9170.0 0.0051393
9190.0 0.0051241
9210.0 0.0051337
9230.0 0.0051076
9250.0 0.0050863
9270.0 0.0050673
9290.0 0.00505
9310.0 0.0050332
9330.0 0.005017
9350.0 0.0050019
9370.0 0.0049869
9390.0 0.0049715
9410.0 0.0049567
9430.0 0.0049415
9450.0 0.0049207
9470.0 0.0049018
9490.0 0.0048927
9510.0 0.0048807
9530.0 0.0048678
9550.0 0.0048546
9570.0 0.0048411
9590.0 0.0048272
9610.0 0.0048133
9630.0 0.0047995
9650.0 0.0047856
9670.0 0.0047716
9690.0 0.0047578
9710.0 0.0047441
9730.0 0.0047302
9750.0 0.0047164
9770.0 0.0047028
9790.0 0.004689
9810.0 0.0046751
9830.0 0.0046614
9850.0 0.0046477
9870.0 0.0046337
9890.0 0.0046198
9910.0 0.0046058
9930.0 0.0045912
9950.0 0.0045397
9970.0 0.0045365
9990.0 0.0045312
10010.0 0.0045245
10030.0 0.0045147
10050.0 0.0045023
10070.0 0.0044892
10090.0 0.0044762
10110.0 0.0044607
10130.0 0.0044463
10150.0 0.0044316
10170.0 0.0044156
10190.0 0.0043983
10210.0 0.0043824
10230.0 0.004367
10250.0 0.0043498
10270.0 0.0043327
10290.0 0.0043168
10310.0 0.0042993
10330.0 0.0042803
10350.0 0.0042629
10370.0 0.0042453
10390.0 0.004226
10410.0 0.0042067
10430.0 0.0041888
10450.0 0.0041691
10470.0 0.0041484
10490.0 0.0041286
10510.0 0.0041087
10530.0 0.0040862
10550.0 0.0040643
10570.0 0.0040435
10590.0 0.004021
10610.0 0.0039974
10630.0 0.0039751
10650.0 0.0039522
10670.0 0.003927
10690.0 0.0039023
10710.0 0.0038782
10730.0 0.0038524
10750.0 0.0038248
10770.0 0.0037995
10790.0 0.0037731
10810.0 0.0037449
10830.0 0.0037169
10850.0 0.0036899
10870.0 0.0036597
10890.0 0.0036289
10910.0 0.0035989
10930.0 0.0035674
10950.0 0.0035328
10970.0 0.0034977
10990.0 0.0034626
11010.0 0.0035734
11030.0 0.0035302
11050.0 0.0034882
11070.0 0.0034455
11090.0 0.0034002
11110.0 0.0033587
11130.0 0.0033191
11150.0 0.003279
11170.0 0.0032399
11190.0 0.0032039
11210.0 0.0031674
11230.0 0.0031304
11250.0 0.0030952
11270.0 0.003061
11290.0 0.0030252
11310.0 0.0029895
11330.0 0.0029562
11350.0 0.0029217
11370.0 0.0028861
11390.0 0.0028512
11410.0 0.0028161
11430.0 0.0027777
11450.0 0.0027386
11470.0 0.0026992
11490.0 0.002657
11510.0 0.0026112
11530.0 0.0025655
11550.0 0.0025183
11570.0 0.0024671
11590.0 0.0024148
11610.0 0.0023629
11630.0 0.0023079
11650.0 0.0022508
11670.0 0.0021962
11690.0 0.0021418
11710.0 0.0020861
11730.0 0.0020319
11750.0 0.0019812
11770.0 0.0019299
11790.0 0.0018797
11810.0 0.0018329
11830.0 0.001788
11850.0 0.0017427
11870.0 0.0017006
11890.0 0.0016616
11910.0 0.0016231
11930.0 0.0015857
11950.0 0.0015512
11970.0 0.0015178
11990.0 0.0014843
12010.0 0.0014532
12030.0 0.001424
12050.0 0.0013954
12070.0 0.0013677
12090.0 0.0013433
12110.0 0.0013201
12130.0 0.0012984
12150.0 0.0012791
12170.0 0.0012625
12190.0 0.0012474
12210.0 0.001235
12230.0 0.0012255
12250.0 0.0012185
12270.0 0.0012142
12290.0 0.0012126
12310.0 0.0012135
12330.0 0.0012172
12350.0 0.0012236
12370.0 0.001232
12390.0 0.0012428
12410.0 0.0012567
12430.0 0.0012718
12450.0 0.0012884
12470.0 0.0013072
12490.0 0.0013272
12510.0 0.0013471
12530.0 0.0013681
12550.0 0.0013896
12570.0 0.0014099
12590.0 0.001429
12610.0 0.0014473
12630.0 0.0014635
12650.0 0.0014761
12670.0 0.0014863
12690.0 0.0014935
12710.0 0.0014968
12730.0 0.0014967
12750.0 0.001493
12770.0 0.0014857
12790.0 0.0014754
12810.0 0.0014621
12830.0 0.0014459
12850.0 0.0014283
12870.0 0.0014093
12890.0 0.0013886
12910.0 0.0013675
12930.0 0.0013468
12950.0 0.0013255
12970.0 0.0013043
12990.0 0.0012845
13010.0 0.0012654
13030.0 0.0012465
13050.0 0.0012286
13070.0 0.0012118
13090.0 0.001195
13110.0 0.0011785
13130.0 0.0011627
13150.0 0.0011473
13170.0 0.0011313
13190.0 0.001116
13210.0 0.0011012
13230.0 0.0010864
13250.0 0.0010718
13270.0 0.0010583
13290.0 0.0010455
13310.0 0.0010332
13330.0 0.0010225
13350.0 0.0010134
13370.0 0.0010056
13390.0 0.00099939
13410.0 0.00099497
13430.0 0.00099188
13450.0 0.00099
13470.0 0.000989
13490.0 0.00098842
13510.0 0.000988
13530.0 0.00098713
13550.0 0.0009854
13570.0 0.00098251
13590.0 0.00097807
13610.0 0.00097204
13630.0 0.00096452
13650.0 0.00095509
13670.0 0.00094415
13690.0 0.00093229
13710.0 0.00091933
13730.0 0.00090513
13750.0 0.00089138
13770.0 0.00087783
13790.0 0.00086429
13810.0 0.0008515
13830.0 0.00084004
13850.0 0.00082924
13870.0 0.0008194
13890.0 0.00081096
13910.0 0.00080363
13930.0 0.00079707
13950.0 0.00079147
13970.0 0.00078683
13990.0 0.00078265
14010.0 0.00077886
14030.0 0.00077546
14050.0 0.0007722
14070.0 0.00076878
14090.0 0.00076528
14110.0 0.0007616
14130.0 0.00075749
14150.0 0.00075284
14170.0 0.00074792
14190.0 0.00074256
14210.0 0.00073659
14230.0 0.00073033
14250.0 0.00072399
14270.0 0.00071728
14290.0 0.00071045
14310.0 0.0007041
14330.0 0.00069802
14350.0 0.00069222
14370.0 0.00068711
14390.0 0.00068278
14410.0 0.000679
14430.0 0.00067595
14450.0 0.0006737
14470.0 0.00067209
14490.0 0.00067106
14510.0 0.00067062
14530.0 0.00067063
14550.0 0.00067106
14570.0 0.00067191
14590.0 0.00067309
14610.0 0.00067469
14630.0 0.00067683
14650.0 0.00067943
14670.0 0.00068254
14690.0 0.0006864
14710.0 0.00069104
14730.0 0.00069612
14750.0 0.00070204
14770.0 0.00070892
14790.0 0.00071645
14810.0 0.00072461
14830.0 0.00073423
14850.0 0.00074473
14870.0 0.0007558
14890.0 0.00076793
14910.0 0.00078114
14930.0 0.00079424
14950.0 0.0008069
14970.0 0.00081934
14990.0 0.00083028
15010.0 0.00083916
15030.0 0.00084626
15050.0 0.0008516
15070.0 0.00085499
15090.0 0.00085719
15110.0 0.00085857
15130.0 0.0008594
15150.0 0.00085994
15170.0 0.00086034
15190.0 0.00086067
15210.0 0.000861
15230.0 0.00086133
15250.0 0.00086166
15270.0 0.00086201
15290.0 0.00086239
15310.0 0.00086278
15330.0 0.00086317
15350.0 0.00086359
15370.0 0.00086403
15390.0 0.00086445
15410.0 0.00086491
15430.0 0.00086538
15450.0 0.00086585
15470.0 0.00086633
15490.0 0.00086684
15510.0 0.00086735
15530.0 0.00086786
15550.0 0.00086839
15570.0 0.00086894
15590.0 0.00086948
15610.0 0.00087003
15630.0 0.00087059
15650.0 0.00087117
15670.0 0.00087174
15690.0 0.00087232
15710.0 0.00087292
15730.0 0.00087351
15750.0 0.0008741
15770.0 0.00087471
15790.0 0.00087532
15810.0 0.00087592
15830.0 0.00087654
15850.0 0.00087716
15870.0 0.00087778
15890.0 0.00087839
15910.0 0.00087902
15930.0 0.00087965
15950.0 0.00088026
15970.0 0.00088088
15990.0 0.00088151
16010.0 0.00088212
16030.0 0.00088273
16050.0 0.00088335
16070.0 0.00088396
16090.0 0.00088456
16110.0 0.00088517
16130.0 0.00088577
16150.0 0.00088636
16170.0 0.00088694
16190.0 0.00088752
16210.0 0.0008881
16230.0 0.00088865
16250.0 0.00088921
16270.0 0.00088977
16290.0 0.0008903
16310.0 0.00089083
16330.0 0.00089136
16350.0 0.00089187
16370.0 0.00089235
16390.0 0.00089284
16410.0 0.00089332
16430.0 0.00089377
16450.0 0.00089421
16470.0 0.00089465
16490.0 0.00089507
16510.0 0.00089546
16530.0 0.00089585
16550.0 0.00089622
16570.0 0.00089656
16590.0 0.00089689
16610.0 0.00089721
16630.0 0.00089751
16650.0 0.00089778
16670.0 0.00089804
16690.0 0.00089828
16710.0 0.00089848
16730.0 0.00089867
16750.0 0.00089885
16770.0 0.00089899
16790.0 0.00089911
16810.0 0.00089922
16830.0 0.0008993
16850.0 0.00089935
16870.0 0.00089937
16890.0 0.00089938
16910.0 0.00089935
16930.0 0.00089929
16950.0 0.00089922
16970.0 0.00089911
16990.0 0.00089897
17010.0 0.00089881
17030.0 0.00089863
17050.0 0.0008984
17070.0 0.00089814
17090.0 0.00089787
17110.0 0.00089756
17130.0 0.0008972
17150.0 0.00089683
17170.0 0.00089643
17190.0 0.00089599
17210.0 0.00089552
17230.0 0.00089503
17250.0 0.00089449
17270.0 0.00089391
17290.0 0.00089331
17310.0 0.00089268
17330.0 0.00089201
17350.0 0.00089129
17370.0 0.00089057
17390.0 0.00088979
17410.0 0.00088898
17430.0 0.00088814
17450.0 0.00088727
17470.0 0.00088634
17490.0 0.00088539
17510.0 0.00088441
17530.0 0.00088339
17550.0 0.00088233
17570.0 0.00088124
17590.0 0.00088012
17610.0 0.00087895
17630.0 0.00087775
17650.0 0.00087653
17670.0 0.00087526
17690.0 0.00087393
17710.0 0.0008726
17730.0 0.00087123
17750.0 0.00086981
17770.0 0.00086836
17790.0 0.00086689
17810.0 0.00086536
17830.0 0.0008638
17850.0 0.00086222
17870.0 0.0008606
17890.0 0.00085893
17910.0 0.00085723
17930.0 0.00085552
17950.0 0.00085376
17970.0 0.00085196
17990.0 0.00085014
18010.0 0.00084828
18030.0 0.00084638
18050.0 0.00084445
18070.0 0.0008425
18090.0 0.00084051
18110.0 0.00083848
18130.0 0.00083644
18150.0 0.00083436
18170.0 0.00083224
18190.0 0.0008301
18210.0 0.00082794
18230.0 0.00082573
18250.0 0.0008235
18270.0 0.00082125
18290.0 0.00081896
18310.0 0.00081665
18330.0 0.00081431
18350.0 0.00081196
18370.0 0.00080956
18390.0 0.00080714
18410.0 0.00080471
18430.0 0.00080224
18450.0 0.00079974
18470.0 0.00079723
18490.0 0.00079471
18510.0 0.00079215
18530.0 0.00078957
18550.0 0.00078698
18570.0 0.00078436
18590.0 0.00078171
18610.0 0.00077906
18630.0 0.00077638
18650.0 0.00077368
18670.0 0.00077097
18690.0 0.00076825
18710.0 0.0007655
18730.0 0.00076273
18750.0 0.00075996
18770.0 0.00075718
18790.0 0.00075436
18810.0 0.00075154
18830.0 0.00074871
18850.0 0.00074587
18870.0 0.000743
18890.0 0.00074014
18910.0 0.00073727
18930.0 0.00073437
18950.0 0.00073147
18970.0 0.00072857
18990.0 0.00072566
19010.0 0.00072272
19030.0 0.0007198
19050.0 0.00071686
19070.0 0.00071391
19090.0 0.00071097
19110.0 0.00070802
19130.0 0.00070506
19150.0 0.00070209
19170.0 0.00069913
19190.0 0.00069616
19210.0 0.00069318
19230.0 0.00069021
19250.0 0.00068724
19270.0 0.00068426
19290.0 0.00068128
19310.0 0.00067831
19330.0 0.00067534
19350.0 0.00067235
19370.0 0.00066938
19390.0 0.00066642
19410.0 0.00066345
19430.0 0.00066047
19450.0 0.00065752
19470.0 0.00065456
19490.0 0.0006516
19510.0 0.00064865
19530.0 0.00064571
19550.0 0.00064277
19570.0 0.00063983
19590.0 0.00063691
19610.0 0.00063398
19630.0 0.00063106
19650.0 0.00062816
19670.0 0.00062527
19690.0 0.00062237
19710.0 0.00061948
19730.0 0.00061661
19750.0 0.00061375
19770.0 0.00061088
19790.0 0.00060803
19810.0 0.00060519
19830.0 0.00060235
19850.0 0.00059948
19870.0 0.00059658
19890.0 0.00059357
19910.0 0.00059032
19930.0 0.00058676
19950.0 0.00058268
19970.0 0.00057779
19990.0 0.00057195
20010.0 0.00056528
20030.0 0.00055743
20050.0 0.00054846
20070.0 0.00053889
20090.0 0.00052884
20110.0 0.00051791
20130.0 0.0005071
20150.0 0.00049661
20170.0 0.00048604
20190.0 0.00047559
20210.0 0.00046579
20230.0 0.00045631
20250.0 0.00044688
20270.0 0.000438
20290.0 0.00042967
20310.0 0.00042152
20330.0 0.00041354
20350.0 0.00040633
20370.0 0.00039937
20390.0 0.00039259
20410.0 0.00038623
20430.0 0.00038034
20450.0 0.00037452
20470.0 0.00036904
20490.0 0.00036402
20510.0 0.00035929
20530.0 0.00035478
20550.0 0.00035069
20570.0 0.00034701
20590.0 0.00034358
20610.0 0.00034048
20630.0 0.00033776
20650.0 0.00033533
20670.0 0.00033317
20690.0 0.00033135
20710.0 0.0003298
20730.0 0.00032848
20750.0 0.0003274
20770.0 0.00032649
20790.0 0.00032575
20810.0 0.00032516
20830.0 0.00032466
20850.0 0.0003242
20870.0 0.00032381
20890.0 0.00032343
20910.0 0.00032296
20930.0 0.00032245
20950.0 0.00032185
20970.0 0.00032111
20990.0 0.00032023
21010.0 0.0003192
21030.0 0.00031797
21050.0 0.00031657
21070.0 0.00031496
21090.0 0.00031314
21110.0 0.00031114
21130.0 0.00030898
21150.0 0.0003066
21170.0 0.00030407
21190.0 0.00030144
21210.0 0.00029861
21230.0 0.00029562
21250.0 0.00029261
21270.0 0.00028952
21290.0 0.0002863
21310.0 0.00028304
21330.0 0.00027987
21350.0 0.00027661
21370.0 0.00027334
21390.0 0.00027018
21410.0 0.00026709
21430.0 0.00026397
21450.0 0.00026104
21470.0 0.0002583
21490.0 0.00025566
21510.0 0.00025318
21530.0 0.00025095
21550.0 0.00024893
21570.0 0.00024709
21590.0 0.00024551
21610.0 0.00024419
21630.0 0.0002431
21650.0 0.00024226
21670.0 0.00024165
21690.0 0.00024127
21710.0 0.00024111
21730.0 0.00024114
21750.0 0.00024129
21770.0 0.00024165
21790.0 0.00024213
21810.0 0.00024265
21830.0 0.00024325
21850.0 0.00024392
21870.0 0.00024455
21890.0 0.00024511
21910.0 0.00024569
21930.0 0.00024619
21950.0 0.00024656
21970.0 0.00024685
21990.0 0.00024708
22010.0 0.00024713
22030.0 0.00024706
22050.0 0.00024689
22070.0 0.0002466
22090.0 0.00024618
22110.0 0.00024567
22130.0 0.00024506
22150.0 0.00024436
22170.0 0.00024357
22190.0 0.00024271
22210.0 0.00024178
22230.0 0.00024078
22250.0 0.00023972
22270.0 0.00023858
22290.0 0.00023739
22310.0 0.00023614
22330.0 0.00023477
22350.0 0.00023333
22370.0 0.00023181
22390.0 0.00023017
22410.0 0.00022837
22430.0 0.0002265
22450.0 0.00022451
22470.0 0.00022232
22490.0 0.00022001
22510.0 0.00021762
22530.0 0.00021501
22550.0 0.00021223
22570.0 0.00020942
22590.0 0.00020651
22610.0 0.00020343
22630.0 0.00020032
22650.0 0.00019727
22670.0 0.00019412
22690.0 0.00019095
22710.0 0.00018792
22730.0 0.00018495
22750.0 0.00018193
22770.0 0.00017911
22790.0 0.00017649
22810.0 0.00017394
22830.0 0.00017152
22850.0 0.00016933
22870.0 0.00016728
22890.0 0.00016532
22910.0 0.00016355
22930.0 0.00016195
22950.0 0.00016045
22970.0 0.00015904
22990.0 0.00015779
23010.0 0.00015662
23030.0 0.00015549
23050.0 0.00015443
23070.0 0.00015342
23090.0 0.00015239
23110.0 0.00015137
23130.0 0.00015036
23150.0 0.00014932
23170.0 0.00014823
