#lamb flux
1010.0 3.4664e-07
1030.0 3.9068e-07
1050.0 4.4133e-07
1070.0 4.9835e-07
1090.0 5.6312e-07
1110.0 6.2955e-07
1130.0 6.9641e-07
1150.0 7.6644e-07
1170.0 8.3869e-07
1190.0 9.0719e-07
1210.0 9.7662e-07
1230.0 1.0484e-06
1250.0 1.1187e-06
1270.0 1.1869e-06
1290.0 1.2591e-06
1310.0 1.3311e-06
1330.0 1.4003e-06
1350.0 1.4702e-06
1370.0 1.5423e-06
1390.0 1.6127e-06
1410.0 1.6809e-06
1430.0 1.7523e-06
1450.0 1.8236e-06
1470.0 1.8926e-06
1490.0 1.9622e-06
1510.0 2.0358e-06
1530.0 2.1055e-06
1550.0 2.1743e-06
1570.0 2.2454e-06
1590.0 2.3165e-06
1610.0 2.3844e-06
1630.0 2.4544e-06
1650.0 2.5261e-06
1670.0 2.5954e-06
1690.0 2.6638e-06
1710.0 2.7347e-06
1730.0 2.8059e-06
1750.0 2.8727e-06
1770.0 2.9413e-06
1790.0 3.0112e-06
1810.0 3.0785e-06
1830.0 3.1444e-06
1850.0 3.2142e-06
1870.0 3.2817e-06
1890.0 3.3466e-06
1910.0 3.4123e-06
1930.0 3.4792e-06
1950.0 3.5423e-06
1970.0 3.604e-06
1990.0 3.6675e-06
2010.0 3.729e-06
2030.0 3.7872e-06
2050.0 3.8465e-06
2070.0 3.9063e-06
2090.0 3.961e-06
2110.0 4.0141e-06
2130.0 4.0678e-06
2150.0 4.1187e-06
2170.0 4.1651e-06
2190.0 4.212e-06
2210.0 4.2574e-06
2230.0 4.2982e-06
2250.0 4.3366e-06
2270.0 4.3754e-06
2290.0 4.4098e-06
2310.0 4.4392e-06
2330.0 4.4679e-06
2350.0 4.4946e-06
2370.0 4.5163e-06
2390.0 4.5365e-06
2410.0 4.5583e-06
2430.0 4.578e-06
2450.0 4.5974e-06
2470.0 4.6223e-06
2490.0 4.6551e-06
2510.0 4.6938e-06
2530.0 4.7543e-06
2550.0 4.8596e-06
2570.0 5.0313e-06
2590.0 5.2983e-06
2610.0 5.742e-06
2630.0 6.3813e-06
2650.0 7.1795e-06
2670.0 8.1449e-06
2690.0 9.2356e-06
2710.0 1.0285e-05
2730.0 1.1211e-05
2750.0 1.2023e-05
2770.0 1.2629e-05
2790.0 1.3021e-05
2810.0 1.3265e-05
2830.0 1.3404e-05
2850.0 1.344e-05
2870.0 1.3425e-05
2890.0 1.339e-05
2910.0 1.334e-05
2930.0 1.3274e-05
2950.0 1.3212e-05
2970.0 1.3154e-05
2990.0 1.3091e-05
3010.0 0.0002709
3030.0 0.0002695
3050.0 0.0002681
3070.0 0.00026648
3090.0 0.00026476
3110.0 0.00026266
3130.0 0.00025987
3150.0 0.00025622
3170.0 0.00025143
3190.0 0.00024563
3210.0 0.0002393
3230.0 0.00023296
3250.0 0.00022767
3270.0 0.00022419
3290.0 0.00022339
3310.0 0.00022512
3330.0 0.00022993
3350.0 0.00023707
3370.0 0.00024669
3390.0 0.0002585
3410.0 0.00027121
3430.0 0.00028543
3450.0 0.00030169
3470.0 0.00031928
3490.0 0.00033773
3510.0 0.00035833
3530.0 0.00038017
3550.0 0.00040202
3570.0 0.00042479
3590.0 0.00045014
3610.0 0.00047623
3630.0 0.00050368
3650.0 0.00053223
3670.0 0.00055907
3690.0 0.00058003
3710.0 0.00059309
3730.0 0.00059563
3750.0 0.00058762
3770.0 0.00054059
3790.0 0.00048776
3810.0 0.00045222
3830.0 0.00039496
3850.0 0.0002939
3870.0 0.00020894
3890.0 0.00034933
3910.0 0.00056811
3930.0 0.00068707
3950.0 0.00067511
3970.0 0.00069006
3990.0 0.00081053
4010.0 0.0010411
4030.0 0.0010537
4050.0 0.00093387
4070.0 0.00082774
4090.0 0.00078253
4110.0 0.00094323
4130.0 0.0009859
4150.0 0.0009621
4170.0 0.00097567
4190.0 0.00099467
4210.0 0.00098184
4230.0 0.0010845
4250.0 0.0011854
4270.0 0.0012025
4290.0 0.0012174
4310.0 0.0012487
4330.0 0.0013768
4350.0 0.0015877
4370.0 0.0018026
4390.0 0.0017112
4410.0 0.0014013
4430.0 0.0011759
4450.0 0.0010073
4470.0 0.00097776
4490.0 0.0010742
4510.0 0.001205
4530.0 0.0013315
4550.0 0.0015422
4570.0 0.0018248
4590.0 0.0022123
4610.0 0.002841
4630.0 0.0034515
4650.0 0.003549
4670.0 0.0034268
4690.0 0.0036521
4710.0 0.0038566
4730.0 0.003271
4750.0 0.0023372
4770.0 0.0019042
4790.0 0.0018402
4810.0 0.0017111
4830.0 0.0016147
4850.0 0.0018491
4870.0 0.0023867
4890.0 0.0027432
4910.0 0.0023275
4930.0 0.0020596
4950.0 0.0023059
4970.0 0.0030905
4990.0 0.0040093
5010.0 0.0042653
5030.0 0.0035283
5050.0 0.0022777
5070.0 0.001565
5090.0 0.0013888
5110.0 0.0014514
5130.0 0.0015626
5150.0 0.0016415
5170.0 0.0016396
5190.0 0.0016048
5210.0 0.0015541
5230.0 0.0015923
5250.0 0.0017014
5270.0 0.0019575
5290.0 0.0022581
5310.0 0.0024876
5330.0 0.0025517
5350.0 0.0025709
5370.0 0.0027936
5390.0 0.0030183
5410.0 0.0029352
5430.0 0.0025365
5450.0 0.0023324
5470.0 0.0026125
5490.0 0.0033505
5510.0 0.00428
5530.0 0.0047578
5550.0 0.004613
5570.0 0.0041805
5590.0 0.0037279
5610.0 0.0034439
5630.0 0.0032695
5650.0 0.0033431
5670.0 0.0032633
5690.0 0.0030282
5710.0 0.0028674
5730.0 0.0026016
5750.0 0.001868
5770.0 0.0016215
5790.0 0.0018236
5810.0 0.0022038
5830.0 0.0025088
5850.0 0.0027518
5870.0 0.0028329
5890.0 0.0027366
5910.0 0.0026195
5930.0 0.0026263
5950.0 0.0027507
5970.0 0.0029313
5990.0 0.0027764
6010.0 0.0023358
6030.0 0.0019402
6050.0 0.0016837
6070.0 0.0016735
6090.0 0.0018864
6110.0 0.0020722
6130.0 0.0019971
6150.0 0.0018415
6170.0 0.0020022
6190.0 0.0024136
6210.0 0.0029444
6230.0 0.0033924
6250.0 0.0034012
6270.0 0.0030451
6290.0 0.0025221
6310.0 0.0020041
6330.0 0.0015933
6350.0 0.0014344
6370.0 0.0015519
6390.0 0.001835
6410.0 0.0021195
6430.0 0.0024573
6450.0 0.0028598
6470.0 0.0034969
6490.0 0.0043055
6510.0 0.0047625
6530.0 0.0044289
6550.0 0.0040661
6570.0 0.003949
6590.0 0.0037958
6610.0 0.0033893
6630.0 0.0030517
6650.0 0.0028082
6670.0 0.0029105
6690.0 0.0028742
6710.0 0.0025533
6730.0 0.0023202
6750.0 0.0020791
6770.0 0.0020185
6790.0 0.0022236
6810.0 0.0022884
6830.0 0.0023496
6850.0 0.0023012
6870.0 0.0022022
6890.0 0.0021496
6910.0 0.002069
6930.0 0.0019434
6950.0 0.0019768
6970.0 0.0020061
6990.0 0.0022403
7010.0 0.0023873
7030.0 0.0021871
7050.0 0.002051
7070.0 0.0019908
7090.0 0.0018224
7110.0 0.0017076
7130.0 0.0017447
7150.0 0.0018312
7170.0 0.0019429
7190.0 0.0019566
7210.0 0.0019411
7230.0 0.0020216
7250.0 0.0023169
7270.0 0.0027108
7290.0 0.0029393
7310.0 0.0028716
7330.0 0.0025555
7350.0 0.0022898
7370.0 0.0022081
7390.0 0.0022273
7410.0 0.0023277
7430.0 0.002544
7450.0 0.0027547
7470.0 0.0030272
7490.0 0.0033529
7510.0 0.0032592
7530.0 0.0030858
7550.0 0.0025771
7570.0 0.0021081
7590.0 0.0016729
7610.0 0.0015181
7630.0 0.0016
7650.0 0.0018315
7670.0 0.0020293
7690.0 0.0022975
7710.0 0.0025269
7730.0 0.0026233
7750.0 0.0026559
7770.0 0.0026422
7790.0 0.0025765
7810.0 0.0026468
7830.0 0.0025676
7850.0 0.0022931
7870.0 0.0020655
7890.0 0.0019026
7910.0 0.0016885
7930.0 0.0014486
7950.0 0.0013204
7970.0 0.0013075
7990.0 0.0013626
8010.0 0.0014451
8030.0 0.0014599
8050.0 0.0014591
8070.0 0.0014219
8090.0 0.0014299
8110.0 0.0013536
8130.0 0.0012331
8150.0 0.0011573
8170.0 0.001106
8190.0 0.0011185
8210.0 0.0011463
8230.0 0.0012084
8250.0 0.0011756
8270.0 0.0010512
8290.0 0.00082493
8310.0 0.00056109
8330.0 0.00036733
8350.0 0.00026322
8370.0 0.00030406
8390.0 0.00034129
8410.0 0.0004364
8430.0 0.00053046
8450.0 0.00058312
8470.0 0.00061909
8490.0 0.00062487
8510.0 0.00064393
8530.0 0.00070385
8550.0 0.00079804
8570.0 0.00095322
8590.0 0.0011464
8610.0 0.0013575
8630.0 0.0015835
8650.0 0.0017464
8670.0 0.001737
8690.0 0.0016574
8710.0 0.001561
8730.0 0.0014813
8750.0 0.0013998
8770.0 0.0013536
8790.0 0.0013236
8810.0 0.0012433
8830.0 0.0010932
8850.0 0.00093201
8870.0 0.00078726
8890.0 0.00072845
8910.0 0.00075199
8930.0 0.00076905
8950.0 0.00085054
8970.0 0.00086911
8990.0 0.00088717
9010.0 0.00089716
9030.0 0.00090048
9050.0 0.00090612
9070.0 0.00091038
9090.0 0.00091352
9110.0 0.00091581
9130.0 0.00091827
9150.0 0.00092105
9170.0 0.00092393
9190.0 0.00092692
9210.0 0.0009305
9230.0 0.00093386
9250.0 0.00093754
9270.0 0.0009414
9290.0 0.00094544
9310.0 0.00094977
9330.0 0.00095432
9350.0 0.00095899
9370.0 0.0009639
9390.0 0.00096907
9410.0 0.00097438
9430.0 0.00097982
9450.0 0.00098558
9470.0 0.00099151
9490.0 0.00099755
9510.0 0.0010038
9530.0 0.0010103
9550.0 0.0010169
9570.0 0.0010236
9590.0 0.0010306
9610.0 0.0010377
9630.0 0.0010449
9650.0 0.0010523
9670.0 0.00106
9690.0 0.0010677
9710.0 0.0010755
9730.0 0.0010835
9750.0 0.0010916
9770.0 0.0010997
9790.0 0.0011081
9810.0 0.0011166
9830.0 0.0011251
9850.0 0.0011337
9870.0 0.0011425
9890.0 0.0011513
9910.0 0.0011601
9930.0 0.0011691
9950.0 0.0011781
9970.0 0.0011871
9990.0 0.0011961
10010.0 0.0011652
10030.0 0.0011739
10050.0 0.0011826
10070.0 0.0011911
10090.0 0.0012
10110.0 0.0012087
10130.0 0.0012174
10150.0 0.0012262
10170.0 0.0012348
10190.0 0.0012434
10210.0 0.001252
10230.0 0.0012606
10250.0 0.001269
10270.0 0.0012773
10290.0 0.0012857
10310.0 0.0012939
10330.0 0.0013019
10350.0 0.00131
10370.0 0.0013179
10390.0 0.0013256
10410.0 0.0013332
10430.0 0.0013408
10450.0 0.0013482
10470.0 0.0013553
10490.0 0.0013624
10510.0 0.0013694
10530.0 0.0013759
10550.0 0.0013824
10570.0 0.0013888
10590.0 0.0013949
10610.0 0.0014007
10630.0 0.0014065
10650.0 0.001412
10670.0 0.0014172
10690.0 0.0014222
10710.0 0.001427
10730.0 0.0014315
10750.0 0.0014357
10770.0 0.0014398
10790.0 0.0014436
10810.0 0.001447
10830.0 0.0014502
10850.0 0.0014531
10870.0 0.0014553
10890.0 0.0014566
10910.0 0.0014569
10930.0 0.0014552
10950.0 0.0014504
10970.0 0.001442
10990.0 0.0014297
11010.0 0.0013795
11030.0 0.0013563
11050.0 0.0013292
11070.0 0.0012972
11090.0 0.0012591
11110.0 0.00122
11130.0 0.0011793
11150.0 0.0011357
11170.0 0.0010912
11190.0 0.0010488
11210.0 0.0010057
11230.0 0.00096253
11250.0 0.00092246
11270.0 0.00088512
11290.0 0.00084884
11310.0 0.0008156
11330.0 0.00078724
11350.0 0.00076113
11370.0 0.00073749
11390.0 0.00071727
11410.0 0.00069953
11430.0 0.00068265
11450.0 0.00066743
11470.0 0.00065337
11490.0 0.00063921
11510.0 0.00062434
11530.0 0.00060945
11550.0 0.00059385
11570.0 0.00057661
11590.0 0.00055848
11610.0 0.00054003
11630.0 0.00052019
11650.0 0.00049937
11670.0 0.00047934
11690.0 0.00045952
11710.0 0.00043964
11730.0 0.00042088
11750.0 0.00040392
11770.0 0.00038767
11790.0 0.00037275
11810.0 0.00035979
11830.0 0.00034829
11850.0 0.00033771
11870.0 0.0003287
11890.0 0.00032094
11910.0 0.00031377
11930.0 0.0003071
11950.0 0.00030099
11970.0 0.00029495
11990.0 0.00028864
12010.0 0.00028228
12030.0 0.0002758
12050.0 0.00026886
12070.0 0.00026154
12090.0 0.00025446
12110.0 0.00024729
12130.0 0.0002401
12150.0 0.00023341
12170.0 0.00022742
12190.0 0.0002219
12210.0 0.00021742
12230.0 0.00021417
12250.0 0.0002121
12270.0 0.00021138
12290.0 0.00021204
12310.0 0.00021392
12330.0 0.00021723
12350.0 0.00022177
12370.0 0.00022714
12390.0 0.00023345
12410.0 0.0002409
12430.0 0.00024837
12450.0 0.00025597
12470.0 0.00026387
12490.0 0.00027155
12510.0 0.00027843
12530.0 0.00028498
12550.0 0.00029094
12570.0 0.00029577
12590.0 0.00029957
12610.0 0.00030251
12630.0 0.00030428
12650.0 0.00030481
12670.0 0.00030438
12690.0 0.00030293
12710.0 0.00030054
12730.0 0.00029737
12750.0 0.00029333
12770.0 0.00028866
12790.0 0.00028355
12810.0 0.00027791
12830.0 0.00027174
12850.0 0.00026549
12870.0 0.00025902
12890.0 0.00025213
12910.0 0.00024513
12930.0 0.00023817
12950.0 0.00023085
12970.0 0.00022328
12990.0 0.00021592
13010.0 0.0002085
13030.0 0.00020084
13050.0 0.00019331
13070.0 0.0001861
13090.0 0.00017877
13110.0 0.00017161
13130.0 0.00016494
13150.0 0.00015862
13170.0 0.00015249
13190.0 0.00014709
13210.0 0.00014241
13230.0 0.00013826
13250.0 0.00013482
13270.0 0.00013224
13290.0 0.00013038
13310.0 0.0001293
13330.0 0.00012904
13350.0 0.00012949
13370.0 0.00013069
13390.0 0.00013259
13410.0 0.00013489
13430.0 0.00013767
13450.0 0.00014091
13470.0 0.0001443
13490.0 0.00014771
13510.0 0.0001514
13530.0 0.00015496
13550.0 0.0001582
13570.0 0.00016127
13590.0 0.00016414
13610.0 0.00016654
13630.0 0.00016852
13650.0 0.0001702
13670.0 0.00017146
13690.0 0.00017226
13710.0 0.00017271
13730.0 0.0001728
13750.0 0.00017251
13770.0 0.00017191
13790.0 0.00017102
13810.0 0.00016985
13830.0 0.00016848
13850.0 0.00016687
13870.0 0.00016503
13890.0 0.00016307
13910.0 0.00016097
13930.0 0.00015865
13950.0 0.00015622
13970.0 0.00015381
13990.0 0.00015127
14010.0 0.00014865
14030.0 0.00014611
14050.0 0.0001436
14070.0 0.00014104
14090.0 0.00013865
14110.0 0.00013647
14130.0 0.00013441
14150.0 0.00013255
14170.0 0.00013102
14190.0 0.00012975
14210.0 0.00012876
14230.0 0.00012812
14250.0 0.0001278
14270.0 0.00012781
14290.0 0.00012818
14310.0 0.00012883
14330.0 0.00012977
14350.0 0.00013102
14370.0 0.00013248
14390.0 0.00013407
14410.0 0.0001359
14430.0 0.00013788
14450.0 0.00013988
14470.0 0.00014196
14490.0 0.00014421
14510.0 0.00014643
14530.0 0.00014864
14550.0 0.00015101
14570.0 0.0001535
14590.0 0.00015601
14610.0 0.00015874
14630.0 0.00016181
14650.0 0.00016504
14670.0 0.0001685
14690.0 0.0001724
14710.0 0.00017673
14730.0 0.00018112
14750.0 0.00018594
14770.0 0.00019118
14790.0 0.00019654
14810.0 0.00020195
14830.0 0.00020782
14850.0 0.00021363
14870.0 0.00021915
14890.0 0.00022458
14910.0 0.00022983
14930.0 0.00023447
14950.0 0.00023847
14970.0 0.00024199
14990.0 0.00024472
15010.0 0.00024665
15030.0 0.00024795
15050.0 0.00024868
15070.0 0.0002489
15090.0 0.00024881
15110.0 0.00024851
15130.0 0.00024807
15150.0 0.0002476
15170.0 0.00024708
15190.0 0.00024653
15210.0 0.000246
15230.0 0.00024548
15250.0 0.00024493
15270.0 0.00024439
15290.0 0.00024388
15310.0 0.00024336
15330.0 0.00024283
15350.0 0.00024233
15370.0 0.00024183
15390.0 0.00024129
15410.0 0.00024078
15430.0 0.00024028
15450.0 0.00023977
15470.0 0.00023925
15490.0 0.00023876
15510.0 0.00023827
15530.0 0.00023775
15550.0 0.00023725
15570.0 0.00023677
15590.0 0.00023625
15610.0 0.00023573
15630.0 0.00023524
15650.0 0.00023475
15670.0 0.00023423
15690.0 0.00023373
15710.0 0.00023325
15730.0 0.00023273
15750.0 0.00023221
15770.0 0.00023172
15790.0 0.00023121
15810.0 0.00023068
15830.0 0.00023017
15850.0 0.00022967
15870.0 0.00022915
15890.0 0.00022862
15910.0 0.00022812
15930.0 0.00022759
15950.0 0.00022705
15970.0 0.00022652
15990.0 0.000226
16010.0 0.00022546
16030.0 0.0002249
16050.0 0.00022438
16070.0 0.00022384
16090.0 0.00022328
16110.0 0.00022274
16130.0 0.0002222
16150.0 0.00022162
16170.0 0.00022105
16190.0 0.0002205
16210.0 0.00021993
16230.0 0.00021934
16250.0 0.00021877
16270.0 0.0002182
16290.0 0.0002176
16310.0 0.00021701
16330.0 0.00021643
16350.0 0.00021583
16370.0 0.0002152
16390.0 0.0002146
16410.0 0.000214
16430.0 0.00021338
16450.0 0.00021275
16470.0 0.00021215
16490.0 0.00021151
16510.0 0.00021086
16530.0 0.00021023
16550.0 0.0002096
16570.0 0.00020893
16590.0 0.00020827
16610.0 0.00020763
16630.0 0.00020697
16650.0 0.00020629
16670.0 0.00020563
16690.0 0.00020497
16710.0 0.00020426
16730.0 0.00020357
16750.0 0.0002029
16770.0 0.0002022
16790.0 0.00020148
16810.0 0.00020079
16830.0 0.00020009
16850.0 0.00019937
16870.0 0.00019865
16890.0 0.00019795
16910.0 0.00019721
16930.0 0.00019645
16950.0 0.00019573
16970.0 0.000195
16990.0 0.00019424
17010.0 0.00019349
17030.0 0.00019276
17050.0 0.00019199
17070.0 0.00019122
17090.0 0.00019047
17110.0 0.0001897
17130.0 0.0001889
17150.0 0.00018813
17170.0 0.00018737
17190.0 0.00018657
17210.0 0.00018578
17230.0 0.000185
17250.0 0.00018421
17270.0 0.00018339
17290.0 0.00018259
17310.0 0.00018179
17330.0 0.00018097
17350.0 0.00018014
17370.0 0.00017935
17390.0 0.00017853
17410.0 0.0001777
17430.0 0.00017688
17450.0 0.00017607
17470.0 0.00017521
17490.0 0.00017437
17510.0 0.00017355
17530.0 0.00017271
17550.0 0.00017185
17570.0 0.00017101
17590.0 0.00017018
17610.0 0.00016932
17630.0 0.00016846
17650.0 0.00016762
17670.0 0.00016677
17690.0 0.00016588
17710.0 0.00016503
17730.0 0.00016418
17750.0 0.00016331
17770.0 0.00016244
17790.0 0.0001616
17810.0 0.00016072
17830.0 0.00015983
17850.0 0.00015897
17870.0 0.00015811
17890.0 0.00015722
17910.0 0.00015634
17930.0 0.00015548
17950.0 0.0001546
17970.0 0.00015372
17990.0 0.00015285
18010.0 0.00015198
18030.0 0.00015108
18050.0 0.0001502
18070.0 0.00014934
18090.0 0.00014845
18110.0 0.00014755
18130.0 0.00014669
18150.0 0.00014582
18170.0 0.00014492
18190.0 0.00014404
18210.0 0.00014318
18230.0 0.00014228
18250.0 0.00014139
18270.0 0.00014052
18290.0 0.00013965
18310.0 0.00013875
18330.0 0.00013788
18350.0 0.00013702
18370.0 0.00013613
18390.0 0.00013525
18410.0 0.00013438
18430.0 0.00013351
18450.0 0.00013261
18470.0 0.00013174
18490.0 0.00013089
18510.0 0.00013001
18530.0 0.00012913
18550.0 0.00012828
18570.0 0.00012742
18590.0 0.00012653
18610.0 0.00012567
18630.0 0.00012482
18650.0 0.00012395
18670.0 0.00012307
18690.0 0.00012224
18710.0 0.00012138
18730.0 0.00012051
18750.0 0.00011967
18770.0 0.00011883
18790.0 0.00011796
18810.0 0.00011711
18830.0 0.00011628
18850.0 0.00011543
18870.0 0.00011458
18890.0 0.00011375
18910.0 0.00011292
18930.0 0.00011207
18950.0 0.00011124
18970.0 0.00011042
18990.0 0.00010959
19010.0 0.00010874
19030.0 0.00010793
19050.0 0.00010712
19070.0 0.00010629
19090.0 0.00010547
19110.0 0.00010468
19130.0 0.00010385
19150.0 0.00010303
19170.0 0.00010223
19190.0 0.00010144
19210.0 0.00010062
19230.0 9.9815e-05
19250.0 9.9038e-05
19270.0 9.824e-05
19290.0 9.744e-05
19310.0 9.6665e-05
19330.0 9.5887e-05
19350.0 9.508e-05
19370.0 9.4302e-05
19390.0 9.3537e-05
19410.0 9.2755e-05
19430.0 9.1971e-05
19450.0 9.1218e-05
19470.0 9.0458e-05
19490.0 8.9682e-05
19510.0 8.8924e-05
19530.0 8.818e-05
19550.0 8.7412e-05
19570.0 8.6645e-05
19590.0 8.591e-05
19610.0 8.5167e-05
19630.0 8.4412e-05
19650.0 8.3676e-05
19670.0 8.2954e-05
19690.0 8.2207e-05
19710.0 8.1468e-05
19730.0 8.075e-05
19750.0 8.0025e-05
19770.0 7.9281e-05
19790.0 7.8566e-05
19810.0 7.7861e-05
19830.0 7.7136e-05
19850.0 7.6415e-05
19870.0 7.5711e-05
19890.0 7.4976e-05
19910.0 7.4203e-05
19930.0 7.3414e-05
19950.0 7.2569e-05
19970.0 7.1611e-05
19990.0 7.0543e-05
20010.0 7.0777e-05
20030.0 6.9456e-05
20050.0 6.7994e-05
20070.0 6.6479e-05
20090.0 6.4913e-05
20110.0 6.3217e-05
20130.0 6.1559e-05
20150.0 5.9966e-05
20170.0 5.8366e-05
20190.0 5.6791e-05
20210.0 5.5337e-05
20230.0 5.395e-05
20250.0 5.2592e-05
20270.0 5.1353e-05
20290.0 5.0238e-05
20310.0 4.9197e-05
20330.0 4.8243e-05
20350.0 4.7461e-05
20370.0 4.6783e-05
20390.0 4.6207e-05
20410.0 4.5763e-05
20430.0 4.5441e-05
20450.0 4.5221e-05
20470.0 4.5117e-05
20490.0 4.5117e-05
20510.0 4.5211e-05
20530.0 4.5405e-05
20550.0 4.5674e-05
20570.0 4.5998e-05
20590.0 4.64e-05
20610.0 4.6857e-05
20630.0 4.7338e-05
20650.0 4.7859e-05
20670.0 4.844e-05
20690.0 4.9012e-05
20710.0 4.9588e-05
20730.0 5.0195e-05
20750.0 5.0812e-05
20770.0 5.1401e-05
20790.0 5.2007e-05
20810.0 5.2636e-05
20830.0 5.3248e-05
20850.0 5.3854e-05
20870.0 5.4498e-05
20890.0 5.5151e-05
20910.0 5.5777e-05
20930.0 5.6428e-05
20950.0 5.7109e-05
20970.0 5.7774e-05
20990.0 5.8435e-05
21010.0 5.9138e-05
21030.0 5.983e-05
21050.0 6.0493e-05
21070.0 6.1161e-05
21090.0 6.1836e-05
21110.0 6.2453e-05
21130.0 6.3035e-05
21150.0 6.3606e-05
21170.0 6.4129e-05
21190.0 6.4585e-05
21210.0 6.5012e-05
21230.0 6.5388e-05
21250.0 6.5684e-05
21270.0 6.5915e-05
21290.0 6.6083e-05
21310.0 6.6171e-05
21330.0 6.6175e-05
21350.0 6.61e-05
21370.0 6.5932e-05
21390.0 6.5677e-05
21410.0 6.5333e-05
21430.0 6.4869e-05
21450.0 6.4316e-05
21470.0 6.3686e-05
21490.0 6.2948e-05
21510.0 6.211e-05
21530.0 6.1227e-05
21550.0 6.0274e-05
21570.0 5.9224e-05
21590.0 5.8155e-05
21610.0 5.7085e-05
21630.0 5.5974e-05
21650.0 5.4842e-05
21670.0 5.3811e-05
21690.0 5.2809e-05
21710.0 5.1843e-05
21730.0 5.0978e-05
21750.0 5.0229e-05
21770.0 4.9546e-05
21790.0 4.8991e-05
21810.0 4.8578e-05
21830.0 4.8287e-05
21850.0 4.8126e-05
21870.0 4.8105e-05
21890.0 4.8207e-05
21910.0 4.844e-05
21930.0 4.8799e-05
21950.0 4.9255e-05
21970.0 4.9821e-05
21990.0 5.0521e-05
22010.0 5.1277e-05
22030.0 5.2095e-05
22050.0 5.3008e-05
22070.0 5.3979e-05
22090.0 5.4945e-05
22110.0 5.5966e-05
22130.0 5.7033e-05
22150.0 5.8072e-05
22170.0 5.9089e-05
22190.0 6.0133e-05
22210.0 6.1135e-05
22230.0 6.204e-05
22250.0 6.2911e-05
22270.0 6.3727e-05
22290.0 6.4432e-05
22310.0 6.5039e-05
22330.0 6.5574e-05
22350.0 6.5982e-05
22370.0 6.6261e-05
22390.0 6.6423e-05
22410.0 6.6454e-05
22430.0 6.6349e-05
22450.0 6.6118e-05
22470.0 6.5742e-05
22490.0 6.5235e-05
22510.0 6.4621e-05
22530.0 6.3855e-05
22550.0 6.2942e-05
22570.0 6.195e-05
22590.0 6.085e-05
22610.0 5.9604e-05
22630.0 5.8274e-05
22650.0 5.6914e-05
22670.0 5.5425e-05
22690.0 5.3847e-05
22710.0 5.2266e-05
22730.0 5.0645e-05
22750.0 4.8894e-05
22770.0 4.719e-05
22790.0 4.5531e-05
22810.0 4.3832e-05
22830.0 4.2143e-05
22850.0 4.0569e-05
22870.0 3.9035e-05
22890.0 3.7519e-05
22910.0 3.6138e-05
22930.0 3.489e-05
22950.0 3.3723e-05
