#lamb flux
1010.0 8.2825e-07
1030.0 8.7015e-07
1050.0 9.187e-07
1070.0 9.7346e-07
1090.0 1.0357e-06
1110.0 1.0998e-06
1130.0 1.1647e-06
1150.0 1.2329e-06
1170.0 1.3036e-06
1190.0 1.3711e-06
1210.0 1.44e-06
1230.0 1.5116e-06
1250.0 1.5823e-06
1270.0 1.6516e-06
1290.0 1.7252e-06
1310.0 1.7994e-06
1330.0 1.8714e-06
1350.0 1.9448e-06
1370.0 2.0212e-06
1390.0 2.0965e-06
1410.0 2.1705e-06
1430.0 2.2484e-06
1450.0 2.3271e-06
1470.0 2.4041e-06
1490.0 2.4826e-06
1510.0 2.5659e-06
1530.0 2.6459e-06
1550.0 2.7256e-06
1570.0 2.8082e-06
1590.0 2.8914e-06
1610.0 2.9716e-06
1630.0 3.0542e-06
1650.0 3.1389e-06
1670.0 3.221e-06
1690.0 3.302e-06
1710.0 3.3853e-06
1730.0 3.4685e-06
1750.0 3.5464e-06
1770.0 3.6254e-06
1790.0 3.7047e-06
1810.0 3.7803e-06
1830.0 3.853e-06
1850.0 3.9284e-06
1870.0 4e-06
1890.0 4.067e-06
1910.0 4.1332e-06
1930.0 4.199e-06
1950.0 4.2591e-06
1970.0 4.3159e-06
1990.0 4.373e-06
2010.0 4.4266e-06
2030.0 4.4754e-06
2050.0 4.5243e-06
2070.0 4.5729e-06
2090.0 4.6156e-06
2110.0 4.6566e-06
2130.0 4.6985e-06
2150.0 4.738e-06
2170.0 4.7741e-06
2190.0 4.8125e-06
2210.0 4.8514e-06
2230.0 4.8883e-06
2250.0 4.9259e-06
2270.0 4.9679e-06
2290.0 5.0097e-06
2310.0 5.0514e-06
2330.0 5.0978e-06
2350.0 5.1481e-06
2370.0 5.1995e-06
2390.0 5.2557e-06
2410.0 5.3194e-06
2430.0 5.3861e-06
2450.0 5.4569e-06
2470.0 5.5353e-06
2490.0 5.6223e-06
2510.0 5.7177e-06
2530.0 5.8372e-06
2550.0 6.007e-06
2570.0 6.2582e-06
2590.0 6.6301e-06
2610.0 7.2182e-06
2630.0 8.063e-06
2650.0 9.1412e-06
2670.0 1.048e-05
2690.0 1.2055e-05
2710.0 1.369e-05
2730.0 1.5292e-05
2750.0 1.689e-05
2770.0 1.8364e-05
2790.0 1.9686e-05
2810.0 2.0941e-05
2830.0 2.2197e-05
2850.0 2.34e-05
2870.0 2.4627e-05
2890.0 2.5935e-05
2910.0 2.7304e-05
2930.0 2.8698e-05
2950.0 3.019e-05
2970.0 3.1773e-05
2990.0 3.3385e-05
3010.0 7.6588e-05
3030.0 8.0394e-05
3050.0 8.4203e-05
3070.0 8.7704e-05
3090.0 9.0723e-05
3110.0 9.2506e-05
3130.0 9.2152e-05
3150.0 8.8651e-05
3170.0 7.9968e-05
3190.0 6.5873e-05
3210.0 4.6549e-05
3230.0 2.4742e-05
3250.0 4.8212e-05
3270.0 2.1805e-05
3290.0 7.6173e-05
3310.0 1.6759e-05
3330.0 1.6348e-05
3350.0 2.3681e-05
3370.0 3.2248e-05
3390.0 4.1463e-05
3410.0 5.0657e-05
3430.0 6.0314e-05
3450.0 6.998e-05
3470.0 7.8825e-05
3490.0 8.4689e-05
3510.0 0.00010606
3530.0 0.00014508
3550.0 0.00014136
3570.0 0.00011309
3590.0 0.00016321
3610.0 9.6104e-05
3630.0 0.0001702
3650.0 0.00019965
3670.0 0.00026135
3690.0 0.00024289
3710.0 0.0001574
3730.0 0.00021424
3750.0 0.00022146
3770.0 0.0002328
3790.0 0.00021469
3810.0 0.00020202
3830.0 0.00031389
3850.0 0.00036647
3870.0 0.00045807
3890.0 0.00043225
3910.0 0.0003792
3930.0 0.00039358
3950.0 0.0004361
3970.0 0.00053595
3990.0 0.00037995
4010.0 0.00021335
4030.0 0.00034231
4050.0 0.00041786
4070.0 0.00047277
4090.0 0.00037391
4110.0 0.00023369
4130.0 0.00034967
4150.0 0.00033373
4170.0 0.00033749
4190.0 0.00032432
4210.0 0.00043381
4230.0 0.00029508
4250.0 0.00034426
4270.0 0.00034302
4290.0 0.00033819
4310.0 0.00042957
4330.0 0.00044748
4350.0 0.00034155
4370.0 0.00028394
4390.0 0.00036277
4410.0 0.00037927
4430.0 0.00028339
4450.0 0.00027755
4470.0 0.00033596
4490.0 0.00024172
4510.0 0.00031631
4530.0 0.00033488
4550.0 0.00043428
4570.0 0.00063783
4590.0 0.00060287
4610.0 0.00038914
4630.0 0.0006694
4650.0 0.00097194
4670.0 0.00089959
4690.0 0.00053226
4710.0 0.00058832
4730.0 0.00076324
4750.0 0.00066734
4770.0 0.00049988
4790.0 0.00032673
4810.0 0.00048497
4830.0 0.00056793
4850.0 0.00048561
4870.0 0.00013253
4890.0 0.00053009
4910.0 0.00075348
4930.0 0.00081185
4950.0 0.00079478
4970.0 0.00046756
4990.0 0.00055139
5010.0 0.00067449
5030.0 0.00076319
5050.0 0.00075581
5070.0 0.00053547
5090.0 0.00043167
5110.0 0.00040637
5130.0 0.00036634
5150.0 0.00040782
5170.0 0.00035257
5190.0 0.00044172
5210.0 0.00044336
5230.0 0.00048935
5250.0 0.00061151
5270.0 0.00049323
5290.0 0.00048586
5310.0 0.00074706
5330.0 0.00087222
5350.0 0.00071248
5370.0 0.00061251
5390.0 0.00072137
5410.0 0.00091989
5430.0 0.0010121
5450.0 0.0010725
5470.0 0.0010567
5490.0 0.0010285
5510.0 0.0012224
5530.0 0.0012702
5550.0 0.0013701
5570.0 0.0014673
5590.0 0.0014546
5610.0 0.001364
5630.0 0.0013158
5650.0 0.0013523
5670.0 0.0013323
5690.0 0.0011236
5710.0 0.0011009
5730.0 0.001131
5750.0 0.0012372
5770.0 0.0010604
5790.0 0.00097248
5810.0 0.00098383
5830.0 0.001047
5850.0 0.00095543
5870.0 0.00096967
5890.0 0.001176
5910.0 0.00111
5930.0 0.00089098
5950.0 0.00077119
5970.0 0.00084684
5990.0 0.00078168
6010.0 0.00073775
6030.0 0.00075518
6050.0 0.00069923
6070.0 0.00051233
6090.0 0.00046149
6110.0 0.00061863
6130.0 0.00071958
6150.0 0.00075147
6170.0 0.00071858
6190.0 0.00066124
6210.0 0.00065517
6230.0 0.00079199
6250.0 0.0007318
6270.0 0.00066813
6290.0 0.00061816
6310.0 0.00058166
6330.0 0.00055068
6350.0 0.0004794
6370.0 0.00047586
6390.0 0.0005645
6410.0 0.00070701
6430.0 0.0008173
6450.0 0.00076756
6470.0 0.00074653
6490.0 0.00094611
6510.0 0.0011032
6530.0 0.0010397
6550.0 0.000988
6570.0 0.0010038
6590.0 0.00097722
6610.0 0.0010634
6630.0 0.00099098
6650.0 0.00085721
6670.0 0.00077334
6690.0 0.00076419
6710.0 0.00095753
6730.0 0.00086579
6750.0 0.00071481
6770.0 0.00062918
6790.0 0.00066468
6810.0 0.00075873
6830.0 0.00074594
6850.0 0.00066799
6870.0 0.00069912
6890.0 0.00069349
6910.0 0.00065241
6930.0 0.00075142
6950.0 0.00068826
6970.0 0.0006318
6990.0 0.00062519
7010.0 0.00060725
7030.0 0.00058
7050.0 0.00056558
7070.0 0.00062947
7090.0 0.00059817
7110.0 0.00050874
7130.0 0.00041051
7150.0 0.00038112
7170.0 0.00051476
7190.0 0.00055955
7210.0 0.00053022
7230.0 0.00054866
7250.0 0.00050783
7270.0 0.00048146
7290.0 0.00053835
7310.0 0.00061135
7330.0 0.00060255
7350.0 0.00056078
7370.0 0.0005243
7390.0 0.00053869
7410.0 0.00062979
7430.0 0.00069526
7450.0 0.00073342
7470.0 0.00071806
7490.0 0.00076324
7510.0 0.00074363
7530.0 0.0007209
7550.0 0.00071223
7570.0 0.00062557
7590.0 0.00061602
7610.0 0.0005947
7630.0 0.00054016
7650.0 0.00058432
7670.0 0.00063925
7690.0 0.00069389
7710.0 0.0007853
7730.0 0.00083201
7750.0 0.00086742
7770.0 0.00087929
7790.0 0.00096607
7810.0 0.00098878
7830.0 0.00089267
7850.0 0.00089907
7870.0 0.00085872
7890.0 0.00090088
7910.0 0.00085317
7930.0 0.00085962
7950.0 0.00073779
7970.0 0.00075279
7990.0 0.00071998
8010.0 0.00074657
8030.0 0.00074257
8050.0 0.00078533
8070.0 0.00075263
8090.0 0.00075543
8110.0 0.00074112
8130.0 0.0007397
8150.0 0.00070175
8170.0 0.00068455
8190.0 0.00067842
8210.0 0.00068419
8230.0 0.00059919
8250.0 0.00054675
8270.0 0.00048219
8290.0 0.00040705
8310.0 0.00035755
8330.0 0.00028648
8350.0 0.00023659
8370.0 0.00023555
8390.0 0.00023128
8410.0 0.00024109
8430.0 0.00030414
8450.0 0.00032813
8470.0 0.00035002
8490.0 0.00040741
8510.0 0.00044318
8530.0 0.00050774
8550.0 0.00060035
8570.0 0.00066169
8590.0 0.00070017
8610.0 0.00076946
8630.0 0.00086203
8650.0 0.00087939
8670.0 0.0008934
8690.0 0.00093018
8710.0 0.00091473
8730.0 0.00089446
8750.0 0.00083277
8770.0 0.00083381
8790.0 0.0008232
8810.0 0.00075741
8830.0 0.00076081
8850.0 0.00070712
8870.0 0.00067781
8890.0 0.00061077
8910.0 0.00066899
8930.0 0.00060617
8950.0 0.00060159
8970.0 0.00060906
8990.0 0.00058906
9010.0 0.00060413
9030.0 0.00057581
9050.0 0.00057278
9070.0 0.00057258
9090.0 0.00057225
9110.0 0.00057222
9130.0 0.0005717
9150.0 0.00057092
9170.0 0.00056861
9190.0 0.00056392
9210.0 0.00057202
9230.0 0.0005691
9250.0 0.00056719
9270.0 0.00056545
9290.0 0.00056381
9310.0 0.00056225
9330.0 0.00056068
9350.0 0.0005591
9370.0 0.00055747
9390.0 0.00055579
9410.0 0.00055406
9430.0 0.00055228
9450.0 0.00055043
9470.0 0.00054854
9490.0 0.00054663
9510.0 0.00054466
9530.0 0.00054266
9550.0 0.00054063
9570.0 0.00053857
9590.0 0.00053648
9610.0 0.00053437
9630.0 0.00053224
9650.0 0.0005301
9670.0 0.00052794
9690.0 0.00052578
9710.0 0.00052362
9730.0 0.00052144
9750.0 0.00051927
9770.0 0.00051712
9790.0 0.00051495
9810.0 0.0005128
9830.0 0.00051066
9850.0 0.00050854
9870.0 0.00050642
9890.0 0.00050432
9910.0 0.00050226
9930.0 0.0005002
9950.0 0.00049711
9970.0 0.00049543
9990.0 0.00049373
10010.0 0.00049199
10030.0 0.0004902
10050.0 0.00048825
10070.0 0.0004856
10090.0 0.00048411
10110.0 0.00048258
10130.0 0.00048102
10150.0 0.00047946
10170.0 0.00047787
10190.0 0.00047623
10210.0 0.00047468
10230.0 0.00047317
10250.0 0.00047165
10270.0 0.00047017
10290.0 0.00046879
10310.0 0.0004674
10330.0 0.00046602
10350.0 0.00046473
10370.0 0.0004635
10390.0 0.00046227
10410.0 0.00046108
10430.0 0.00046
10450.0 0.00045891
10470.0 0.00045785
10490.0 0.00045687
10510.0 0.00045593
10530.0 0.00045498
10550.0 0.0004541
10570.0 0.0004533
10590.0 0.00045251
10610.0 0.00045174
10630.0 0.00045106
10650.0 0.00045041
10670.0 0.00044976
10690.0 0.00044917
10710.0 0.00044865
10730.0 0.00044813
10750.0 0.00044763
10770.0 0.00044723
10790.0 0.00044685
10810.0 0.00044647
10830.0 0.00044613
10850.0 0.00044582
10870.0 0.00044542
10890.0 0.00044489
10910.0 0.00044415
10930.0 0.00044296
10950.0 0.00044098
10970.0 0.00043808
10990.0 0.00043417
11010.0 0.00043599
11030.0 0.00042916
11050.0 0.00042113
11070.0 0.00041181
11090.0 0.000401
11110.0 0.00039019
11130.0 0.00037934
11150.0 0.00036817
11170.0 0.00035724
11190.0 0.00034719
11210.0 0.00033739
11230.0 0.00032791
11250.0 0.00031938
11270.0 0.00031161
11290.0 0.00030419
11310.0 0.00029743
11330.0 0.00029165
11350.0 0.00028624
11370.0 0.00028117
11390.0 0.00027664
11410.0 0.00027245
11430.0 0.00026818
11450.0 0.00026409
11470.0 0.00026013
11490.0 0.00025601
11510.0 0.00025161
11530.0 0.00024724
11550.0 0.00024273
11570.0 0.00023781
11590.0 0.00023275
11610.0 0.00022768
11630.0 0.00022225
11650.0 0.00021653
11670.0 0.00021101
11690.0 0.00020545
11710.0 0.00019969
11730.0 0.00019406
11750.0 0.00018877
11770.0 0.00018341
11790.0 0.00017815
11810.0 0.0001733
11830.0 0.00016867
11850.0 0.00016402
11870.0 0.00015978
11890.0 0.00015591
11910.0 0.00015213
11930.0 0.00014851
11950.0 0.00014522
11970.0 0.00014206
11990.0 0.00013888
12010.0 0.00013593
12030.0 0.00013317
12050.0 0.00013041
12070.0 0.00012769
12090.0 0.00012528
12110.0 0.00012295
12130.0 0.00012069
12150.0 0.00011867
12170.0 0.00011694
12190.0 0.00011532
12210.0 0.00011404
12230.0 0.00011317
12250.0 0.00011265
12270.0 0.00011254
12290.0 0.00011291
12310.0 0.00011373
12330.0 0.00011504
12350.0 0.00011683
12370.0 0.00011899
12390.0 0.00012156
12410.0 0.00012459
12430.0 0.00012775
12450.0 0.00013104
12470.0 0.00013452
12490.0 0.000138
12510.0 0.00014129
12530.0 0.00014454
12550.0 0.00014766
12570.0 0.00015047
12590.0 0.00015301
12610.0 0.00015534
12630.0 0.00015736
12650.0 0.00015904
12670.0 0.00016048
12690.0 0.00016167
12710.0 0.00016259
12730.0 0.00016329
12750.0 0.00016376
12770.0 0.00016402
12790.0 0.00016412
12810.0 0.00016401
12830.0 0.0001637
12850.0 0.00016325
12870.0 0.00016264
12890.0 0.0001618
12910.0 0.0001608
12930.0 0.00015967
12950.0 0.00015828
12970.0 0.00015664
12990.0 0.00015492
13010.0 0.00015303
13030.0 0.00015088
13050.0 0.00014861
13070.0 0.00014633
13090.0 0.00014384
13110.0 0.00014126
13130.0 0.00013877
13150.0 0.00013631
13170.0 0.00013377
13190.0 0.00013148
13210.0 0.00012945
13230.0 0.00012757
13250.0 0.00012594
13270.0 0.00012468
13290.0 0.00012369
13310.0 0.00012297
13330.0 0.00012257
13350.0 0.00012245
13370.0 0.00012252
13390.0 0.00012275
13410.0 0.00012308
13430.0 0.00012343
13450.0 0.00012373
13470.0 0.00012392
13490.0 0.00012396
13510.0 0.00012378
13530.0 0.00012337
13550.0 0.00012276
13570.0 0.00012192
13590.0 0.00012084
13610.0 0.00011963
13630.0 0.00011835
13650.0 0.00011692
13670.0 0.00011546
13690.0 0.00011406
13710.0 0.00011267
13730.0 0.00011126
13750.0 0.00011002
13770.0 0.00010887
13790.0 0.00010775
13810.0 0.00010671
13830.0 0.00010577
13850.0 0.00010483
13870.0 0.00010391
13890.0 0.00010302
13910.0 0.00010213
13930.0 0.00010119
13950.0 0.00010025
13970.0 9.9338e-05
13990.0 9.8395e-05
14010.0 9.7443e-05
14030.0 9.6542e-05
14050.0 9.5681e-05
14070.0 9.4829e-05
14090.0 9.4066e-05
14110.0 9.3397e-05
14130.0 9.2798e-05
14150.0 9.2286e-05
14170.0 9.1887e-05
14190.0 9.158e-05
14210.0 9.1364e-05
14230.0 9.1248e-05
14250.0 9.1219e-05
14270.0 9.129e-05
14290.0 9.1462e-05
14310.0 9.1701e-05
14330.0 9.202e-05
14350.0 9.243e-05
14370.0 9.2892e-05
14390.0 9.3375e-05
14410.0 9.3922e-05
14430.0 9.4493e-05
14450.0 9.5037e-05
14470.0 9.5571e-05
14490.0 9.6121e-05
14510.0 9.6608e-05
14530.0 9.7042e-05
14550.0 9.7472e-05
14570.0 9.7886e-05
14590.0 9.8266e-05
14610.0 9.8672e-05
14630.0 9.9145e-05
14650.0 9.9653e-05
14670.0 0.00010023
14690.0 0.00010094
14710.0 0.0001018
14730.0 0.00010274
14750.0 0.00010384
14770.0 0.00010514
14790.0 0.00010656
14810.0 0.00010806
14830.0 0.00010982
14850.0 0.00011165
14870.0 0.00011345
14890.0 0.00011531
14910.0 0.00011719
14930.0 0.00011886
14950.0 0.00012031
14970.0 0.00012158
14990.0 0.00012251
15010.0 0.00012306
15030.0 0.00012329
15050.0 0.00012324
15070.0 0.00012292
15090.0 0.00012243
15110.0 0.00012182
15130.0 0.00012115
15150.0 0.00012044
15170.0 0.00011971
15190.0 0.00011896
15210.0 0.00011822
15230.0 0.00011748
15250.0 0.00011673
15270.0 0.00011599
15290.0 0.00011525
15310.0 0.00011451
15330.0 0.00011377
15350.0 0.00011304
15370.0 0.00011231
15390.0 0.00011156
15410.0 0.00011083
15430.0 0.00011011
15450.0 0.00010938
15470.0 0.00010865
15490.0 0.00010793
15510.0 0.00010721
15530.0 0.00010649
15550.0 0.00010578
15570.0 0.00010508
15590.0 0.00010437
15610.0 0.00010365
15630.0 0.00010296
15650.0 0.00010226
15670.0 0.00010156
15690.0 0.00010087
15710.0 0.00010019
15730.0 9.9509e-05
15750.0 9.8827e-05
15770.0 9.8155e-05
15790.0 9.7486e-05
15810.0 9.6812e-05
15830.0 9.6149e-05
15850.0 9.5496e-05
15870.0 9.4839e-05
15890.0 9.4187e-05
15910.0 9.3546e-05
15930.0 9.2906e-05
15950.0 9.2263e-05
15970.0 9.1631e-05
15990.0 9.1006e-05
16010.0 9.038e-05
16030.0 8.9756e-05
16050.0 8.9147e-05
16070.0 8.8539e-05
16090.0 8.7929e-05
16110.0 8.7331e-05
16130.0 8.674e-05
16150.0 8.6142e-05
16170.0 8.5553e-05
16190.0 8.4975e-05
16210.0 8.4398e-05
16230.0 8.3821e-05
16250.0 8.3255e-05
16270.0 8.2697e-05
16290.0 8.2135e-05
16310.0 8.158e-05
16330.0 8.1035e-05
16350.0 8.0491e-05
16370.0 7.9943e-05
16390.0 7.9411e-05
16410.0 7.8884e-05
16430.0 7.8356e-05
16450.0 7.7833e-05
16470.0 7.7323e-05
16490.0 7.681e-05
16510.0 7.6298e-05
16530.0 7.5798e-05
16550.0 7.5303e-05
16570.0 7.4804e-05
16590.0 7.4312e-05
16610.0 7.3834e-05
16630.0 7.3353e-05
16650.0 7.2875e-05
16670.0 7.2407e-05
16690.0 7.1943e-05
16710.0 7.1474e-05
16730.0 7.1015e-05
16750.0 7.0565e-05
16770.0 7.0114e-05
16790.0 6.9664e-05
16810.0 6.9227e-05
16830.0 6.8793e-05
16850.0 6.8356e-05
16870.0 6.7928e-05
16890.0 6.7508e-05
16910.0 6.7084e-05
16930.0 6.6661e-05
16950.0 6.6253e-05
16970.0 6.5846e-05
16990.0 6.5437e-05
17010.0 6.5036e-05
17030.0 6.4645e-05
17050.0 6.4248e-05
17070.0 6.3856e-05
17090.0 6.3473e-05
17110.0 6.3092e-05
17130.0 6.2707e-05
17150.0 6.2333e-05
17170.0 6.1965e-05
17190.0 6.1596e-05
17210.0 6.1229e-05
17230.0 6.0873e-05
17250.0 6.0516e-05
17270.0 6.0156e-05
17290.0 5.9807e-05
17310.0 5.9462e-05
17330.0 5.9115e-05
17350.0 5.877e-05
17370.0 5.8438e-05
17390.0 5.8104e-05
17410.0 5.777e-05
17430.0 5.7443e-05
17450.0 5.7123e-05
17470.0 5.6794e-05
17490.0 5.6473e-05
17510.0 5.6161e-05
17530.0 5.5848e-05
17550.0 5.5533e-05
17570.0 5.5228e-05
17590.0 5.4928e-05
17610.0 5.4622e-05
17630.0 5.4322e-05
17650.0 5.403e-05
17670.0 5.3736e-05
17690.0 5.3438e-05
17710.0 5.3153e-05
17730.0 5.287e-05
17750.0 5.2585e-05
17770.0 5.2303e-05
17790.0 5.2031e-05
17810.0 5.1754e-05
17830.0 5.1477e-05
17850.0 5.1209e-05
17870.0 5.0943e-05
17890.0 5.0672e-05
17910.0 5.0407e-05
17930.0 5.0152e-05
17950.0 4.9892e-05
17970.0 4.9633e-05
17990.0 4.9382e-05
18010.0 4.9133e-05
18030.0 4.8876e-05
18050.0 4.8629e-05
18070.0 4.8387e-05
18090.0 4.8142e-05
18110.0 4.7896e-05
18130.0 4.7661e-05
18150.0 4.7426e-05
18170.0 4.7187e-05
18190.0 4.6955e-05
18210.0 4.6728e-05
18230.0 4.6495e-05
18250.0 4.6263e-05
18270.0 4.6041e-05
18290.0 4.5819e-05
18310.0 4.5594e-05
18330.0 4.5375e-05
18350.0 4.5161e-05
18370.0 4.4942e-05
18390.0 4.4725e-05
18410.0 4.4515e-05
18430.0 4.4304e-05
18450.0 4.4089e-05
18470.0 4.3882e-05
18490.0 4.368e-05
18510.0 4.3473e-05
18530.0 4.3269e-05
18550.0 4.3072e-05
18570.0 4.2872e-05
18590.0 4.2669e-05
18610.0 4.2474e-05
18630.0 4.2281e-05
18650.0 4.2085e-05
18670.0 4.1889e-05
18690.0 4.1704e-05
18710.0 4.1515e-05
18730.0 4.1324e-05
18750.0 4.1139e-05
18770.0 4.0958e-05
18790.0 4.0768e-05
18810.0 4.0584e-05
18830.0 4.0407e-05
18850.0 4.0227e-05
18870.0 4.0045e-05
18890.0 3.987e-05
18910.0 3.9698e-05
18930.0 3.9519e-05
18950.0 3.9345e-05
18970.0 3.9177e-05
18990.0 3.9005e-05
19010.0 3.8828e-05
19030.0 3.8664e-05
19050.0 3.8498e-05
19070.0 3.8329e-05
19090.0 3.8164e-05
19110.0 3.8005e-05
19130.0 3.7839e-05
19150.0 3.7674e-05
19170.0 3.7515e-05
19190.0 3.7357e-05
19210.0 3.7194e-05
19230.0 3.7035e-05
19250.0 3.6883e-05
19270.0 3.6726e-05
19290.0 3.6569e-05
19310.0 3.6419e-05
19330.0 3.6268e-05
19350.0 3.611e-05
19370.0 3.5959e-05
19390.0 3.5812e-05
19410.0 3.5661e-05
19430.0 3.5509e-05
19450.0 3.5366e-05
19470.0 3.5221e-05
19490.0 3.5072e-05
19510.0 3.4927e-05
19530.0 3.4787e-05
19550.0 3.464e-05
19570.0 3.4493e-05
19590.0 3.4356e-05
19610.0 3.4215e-05
19630.0 3.4072e-05
19650.0 3.3934e-05
19670.0 3.3799e-05
19690.0 3.3658e-05
19710.0 3.3519e-05
19730.0 3.3385e-05
19750.0 3.3249e-05
19770.0 3.3108e-05
19790.0 3.2975e-05
19810.0 3.2844e-05
19830.0 3.2708e-05
19850.0 3.2571e-05
19870.0 3.2438e-05
19890.0 3.2294e-05
19910.0 3.2132e-05
19930.0 3.1958e-05
19950.0 3.1755e-05
19970.0 3.15e-05
19990.0 3.1191e-05
20010.0 3.0839e-05
20030.0 3.0413e-05
20050.0 2.9919e-05
20070.0 2.9393e-05
20090.0 2.8839e-05
20110.0 2.8225e-05
20130.0 2.7621e-05
20150.0 2.704e-05
20170.0 2.6453e-05
20190.0 2.5873e-05
20210.0 2.5341e-05
20230.0 2.4834e-05
20250.0 2.4338e-05
20270.0 2.389e-05
20290.0 2.3493e-05
20310.0 2.3127e-05
20330.0 2.2798e-05
20350.0 2.2542e-05
20370.0 2.2332e-05
20390.0 2.217e-05
20410.0 2.2068e-05
20430.0 2.2022e-05
20450.0 2.203e-05
20470.0 2.2097e-05
20490.0 2.2216e-05
20510.0 2.2386e-05
20530.0 2.2613e-05
20550.0 2.2882e-05
20570.0 2.3181e-05
20590.0 2.3524e-05
20610.0 2.3899e-05
20630.0 2.428e-05
20650.0 2.468e-05
20670.0 2.5104e-05
20690.0 2.5509e-05
20710.0 2.5897e-05
20730.0 2.6281e-05
20750.0 2.6643e-05
20770.0 2.6962e-05
20790.0 2.7257e-05
20810.0 2.7526e-05
20830.0 2.7752e-05
20850.0 2.7941e-05
20870.0 2.8104e-05
20890.0 2.8233e-05
20910.0 2.8329e-05
20930.0 2.8401e-05
20950.0 2.845e-05
20970.0 2.8478e-05
20990.0 2.8488e-05
21010.0 2.8479e-05
21030.0 2.8454e-05
21050.0 2.8414e-05
21070.0 2.8358e-05
21090.0 2.8284e-05
21110.0 2.8199e-05
21130.0 2.8101e-05
21150.0 2.7987e-05
21170.0 2.7863e-05
21190.0 2.7736e-05
21210.0 2.7596e-05
21230.0 2.745e-05
21250.0 2.731e-05
21270.0 2.7173e-05
21290.0 2.7036e-05
21310.0 2.691e-05
21330.0 2.6801e-05
21350.0 2.6701e-05
21370.0 2.6616e-05
21390.0 2.6552e-05
21410.0 2.6507e-05
21430.0 2.6479e-05
21450.0 2.6473e-05
21470.0 2.6488e-05
21490.0 2.6522e-05
21510.0 2.6576e-05
21530.0 2.6647e-05
21550.0 2.6735e-05
21570.0 2.6843e-05
21590.0 2.6964e-05
21610.0 2.7096e-05
21630.0 2.7246e-05
21650.0 2.7413e-05
21670.0 2.7583e-05
21690.0 2.7766e-05
21710.0 2.7967e-05
21730.0 2.8175e-05
21750.0 2.8388e-05
21770.0 2.8625e-05
21790.0 2.8873e-05
21810.0 2.9124e-05
21830.0 2.9389e-05
21850.0 2.9675e-05
21870.0 2.9964e-05
21890.0 3.0254e-05
21910.0 3.0565e-05
21930.0 3.0883e-05
21950.0 3.1196e-05
21970.0 3.1516e-05
21990.0 3.1853e-05
22010.0 3.2173e-05
22030.0 3.2483e-05
22050.0 3.2794e-05
22070.0 3.3092e-05
22090.0 3.3362e-05
22110.0 3.3618e-05
22130.0 3.3856e-05
22150.0 3.4058e-05
22170.0 3.4226e-05
22190.0 3.4365e-05
22210.0 3.4461e-05
22230.0 3.4511e-05
22250.0 3.452e-05
22270.0 3.448e-05
22290.0 3.4394e-05
22310.0 3.4264e-05
22330.0 3.4076e-05
22350.0 3.3842e-05
22370.0 3.3571e-05
22390.0 3.325e-05
22410.0 3.2873e-05
22430.0 3.2478e-05
22450.0 3.2052e-05
22470.0 3.158e-05
22490.0 3.1087e-05
22510.0 3.0592e-05
22530.0 3.006e-05
22550.0 2.9507e-05
22570.0 2.8972e-05
22590.0 2.8436e-05
22610.0 2.7884e-05
22630.0 2.7348e-05
