#lamb flux
1010.0 2.105e-08
1030.0 2.3034e-08
1050.0 2.5315e-08
1070.0 2.7883e-08
1090.0 3.0799e-08
1110.0 3.3791e-08
1130.0 3.6802e-08
1150.0 3.9956e-08
1170.0 4.3209e-08
1190.0 4.6294e-08
1210.0 4.9421e-08
1230.0 5.2652e-08
1250.0 5.5817e-08
1270.0 5.8891e-08
1290.0 6.2139e-08
1310.0 6.5385e-08
1330.0 6.8498e-08
1350.0 7.1645e-08
1370.0 7.4894e-08
1390.0 7.8062e-08
1410.0 8.1136e-08
1430.0 8.4349e-08
1450.0 8.7562e-08
1470.0 9.0666e-08
1490.0 9.3804e-08
1510.0 9.7118e-08
1530.0 1.0026e-07
1550.0 1.0335e-07
1570.0 1.0656e-07
1590.0 1.0976e-07
1610.0 1.1282e-07
1630.0 1.1598e-07
1650.0 1.1921e-07
1670.0 1.2234e-07
1690.0 1.2543e-07
1710.0 1.2863e-07
1730.0 1.3185e-07
1750.0 1.3488e-07
1770.0 1.3799e-07
1790.0 1.4116e-07
1810.0 1.4422e-07
1830.0 1.4722e-07
1850.0 1.504e-07
1870.0 1.5349e-07
1890.0 1.5646e-07
1910.0 1.5948e-07
1930.0 1.6256e-07
1950.0 1.6549e-07
1970.0 1.6836e-07
1990.0 1.7133e-07
2010.0 1.7422e-07
2030.0 1.7698e-07
2050.0 1.798e-07
2070.0 1.8267e-07
2090.0 1.8532e-07
2110.0 1.8793e-07
2130.0 1.9059e-07
2150.0 1.9314e-07
2170.0 1.9552e-07
2190.0 1.9796e-07
2210.0 2.0035e-07
2230.0 2.0257e-07
2250.0 2.0471e-07
2270.0 2.0692e-07
2290.0 2.0896e-07
2310.0 2.1082e-07
2330.0 2.1272e-07
2350.0 2.1462e-07
2370.0 2.1643e-07
2390.0 2.1842e-07
2410.0 2.2093e-07
2430.0 2.2396e-07
2450.0 2.2778e-07
2470.0 2.3301e-07
2490.0 2.3993e-07
2510.0 2.4795e-07
2530.0 2.5789e-07
2550.0 2.7073e-07
2570.0 2.8702e-07
2590.0 3.0846e-07
2610.0 3.4087e-07
2630.0 3.868e-07
2650.0 4.4589e-07
2670.0 5.2101e-07
2690.0 6.1156e-07
2710.0 7.0582e-07
2730.0 7.9635e-07
2750.0 8.8298e-07
2770.0 9.5518e-07
2790.0 1.0091e-06
2810.0 1.0485e-06
2830.0 1.0761e-06
2850.0 1.091e-06
2870.0 1.0987e-06
2890.0 1.1023e-06
2910.0 1.1029e-06
2930.0 1.1015e-06
2950.0 1.0998e-06
2970.0 1.0981e-06
2990.0 1.096e-06
3010.0 3.4821e-05
3030.0 3.4763e-05
3050.0 3.4704e-05
3070.0 3.4622e-05
3090.0 3.4519e-05
3110.0 3.4359e-05
3130.0 3.4098e-05
3150.0 3.3704e-05
3170.0 3.3109e-05
3190.0 3.2324e-05
3210.0 3.1403e-05
3230.0 3.0386e-05
3250.0 2.9345e-05
3270.0 2.8567e-05
3290.0 2.7986e-05
3310.0 2.787e-05
3330.0 2.8077e-05
3350.0 2.8595e-05
3370.0 2.942e-05
3390.0 3.0511e-05
3410.0 3.1728e-05
3430.0 3.3116e-05
3450.0 3.4729e-05
3470.0 3.6508e-05
3490.0 3.8417e-05
3510.0 4.0591e-05
3530.0 4.296e-05
3550.0 4.5481e-05
3570.0 4.8239e-05
3590.0 5.1301e-05
3610.0 5.4678e-05
3630.0 5.8022e-05
3650.0 6.1553e-05
3670.0 6.4731e-05
3690.0 6.7088e-05
3710.0 6.8283e-05
3730.0 6.7659e-05
3750.0 6.5304e-05
3770.0 6.6771e-05
3790.0 6.5697e-05
3810.0 5.2742e-05
3830.0 5.1783e-05
3850.0 7.388e-05
3870.0 7.366e-05
3890.0 5.8075e-05
3910.0 5.4983e-05
3930.0 6.6619e-05
3950.0 7.8216e-05
3970.0 8.5451e-05
3990.0 5.8696e-05
4010.0 0.00012423
4030.0 0.00012768
4050.0 0.00014063
4070.0 0.00014962
4090.0 0.00014006
4110.0 0.00012051
4130.0 0.00014068
4150.0 0.00018438
4170.0 0.00014954
4190.0 0.00013593
4210.0 0.00015052
4230.0 0.00018213
4250.0 0.00021877
4270.0 0.00023587
4290.0 0.00020898
4310.0 0.0001961
4330.0 0.00019521
4350.0 0.0002455
4370.0 0.00029681
4390.0 0.00024013
4410.0 0.00013776
4430.0 0.00010023
4450.0 9.4059e-05
4470.0 5.8232e-05
4490.0 9.5612e-05
4510.0 0.00020358
4530.0 0.00024749
4550.0 0.00023251
4570.0 0.00021251
4590.0 0.00022796
4610.0 0.00043733
4630.0 0.00061196
4650.0 0.00058645
4670.0 0.00051739
4690.0 0.00052359
4710.0 0.00054746
4730.0 0.00045635
4750.0 0.00030089
4770.0 0.00020606
4790.0 0.00022461
4810.0 0.00023514
4830.0 0.00023099
4850.0 0.00025058
4870.0 0.0003319
4890.0 0.00038495
4910.0 0.0003028
4930.0 0.00029219
4950.0 0.00033554
4970.0 0.00044474
4990.0 0.00060105
5010.0 0.00069607
5030.0 0.00056146
5050.0 0.00034733
5070.0 0.00024498
5090.0 0.0001862
5110.0 0.00017523
5130.0 0.00021064
5150.0 0.00020624
5170.0 0.00019438
5190.0 0.00017303
5210.0 0.00019258
5230.0 0.0002365
5250.0 0.00027452
5270.0 0.00025653
5290.0 0.00027677
5310.0 0.00036877
5330.0 0.00039766
5350.0 0.00039213
5370.0 0.00043823
5390.0 0.00054412
5410.0 0.00047151
5430.0 0.00036625
5450.0 0.00036688
5470.0 0.0004236
5490.0 0.0005288
5510.0 0.00064433
5530.0 0.00074722
5550.0 0.00067831
5570.0 0.00060903
5590.0 0.00050227
5610.0 0.00050612
5630.0 0.00056366
5650.0 0.00051963
5670.0 0.00047852
5690.0 0.00038882
5710.0 0.00039889
5730.0 0.00038638
5750.0 0.00021371
5770.0 0.00015305
5790.0 0.00018872
5810.0 0.00019933
5830.0 0.00030693
5850.0 0.00039964
5870.0 0.00043088
5890.0 0.00041289
5910.0 0.00040216
5930.0 0.00038636
5950.0 0.00039822
5970.0 0.0004927
5990.0 0.00040803
6010.0 0.00031574
6030.0 0.00025824
6050.0 0.00023022
6070.0 0.00027163
6090.0 0.00030471
6110.0 0.00031229
6130.0 0.00028976
6150.0 0.00022902
6170.0 0.00017831
6190.0 0.00021609
6210.0 0.00034003
6230.0 0.00050061
6250.0 0.0005402
6270.0 0.00041566
6290.0 0.0003558
6310.0 0.00027168
6330.0 0.00019836
6350.0 0.00019409
6370.0 0.00020376
6390.0 0.00024326
6410.0 0.00031449
6430.0 0.00037822
6450.0 0.00046282
6470.0 0.00048991
6490.0 0.00058678
6510.0 0.00065811
6530.0 0.00067121
6550.0 0.0006173
6570.0 0.00049545
6590.0 0.00047043
6610.0 0.00039006
6630.0 0.00040379
6650.0 0.00039227
6670.0 0.00034336
6690.0 0.00026673
6710.0 0.00026023
6730.0 0.00011408
6750.0 0.00015315
6770.0 0.00024032
6790.0 0.00031785
6810.0 0.00022689
6830.0 0.00023168
6850.0 0.00019298
6870.0 0.00018055
6890.0 0.0001526
6910.0 0.00018565
6930.0 0.00017477
6950.0 0.00020891
6970.0 0.00021704
6990.0 0.00024094
7010.0 0.00023275
7030.0 0.00026643
7050.0 0.00023093
7070.0 0.00019264
7090.0 0.00020661
7110.0 0.00021922
7130.0 0.00025229
7150.0 0.00028592
7170.0 0.00032056
7190.0 0.00034231
7210.0 0.00030517
7230.0 0.00030906
7250.0 0.00033125
7270.0 0.00035558
7290.0 0.00043807
7310.0 0.0004631
7330.0 0.00043322
7350.0 0.000388
7370.0 0.00028778
7390.0 0.00029682
7410.0 0.00036355
7430.0 0.00041431
7450.0 0.00044637
7470.0 0.00040843
7490.0 0.00032613
7510.0 0.00052577
7530.0 0.00047911
7550.0 0.00045191
7570.0 0.00030705
7590.0 0.00013627
7610.0 9.621e-05
7630.0 0.00014606
7650.0 0.0001964
7670.0 0.00031264
7690.0 0.00034835
7710.0 0.00031481
7730.0 0.00031248
7750.0 0.00041023
7770.0 0.00042162
7790.0 0.00038552
7810.0 0.00031166
7830.0 0.00033771
7850.0 0.00037012
7870.0 0.0003619
7890.0 0.0002829
7910.0 0.00019016
7930.0 0.00019702
7950.0 0.00017798
7970.0 0.00014993
7990.0 0.00013556
8010.0 7.1224e-05
8030.0 6.4998e-05
8050.0 7.0574e-05
8070.0 7.9992e-05
8090.0 9.8226e-05
8110.0 9.213e-05
8130.0 5.3909e-05
8150.0 5.6162e-05
8170.0 3.0539e-05
8190.0 1.7632e-05
8210.0 4.985e-05
8230.0 6.0565e-05
8250.0 2.2182e-05
8270.0 1.7109e-05
8290.0 3.5778e-05
8310.0 3.1874e-05
8330.0 1.945e-05
8350.0 1.5714e-05
8370.0 3.2372e-06
8390.0 1.6787e-05
8410.0 1.9368e-05
8430.0 2.4077e-05
8450.0 2.7106e-05
8470.0 4.6278e-05
8490.0 3.7379e-05
8510.0 2.8279e-05
8530.0 1.3051e-05
8550.0 5.1283e-05
8570.0 8.0712e-05
8590.0 5.4895e-05
8610.0 8.3471e-05
8630.0 9.0398e-05
8650.0 4.6019e-05
8670.0 7.0326e-05
8690.0 0.00011252
8710.0 9.6119e-05
8730.0 0.00010414
8750.0 8.1216e-05
8770.0 7.1884e-05
8790.0 8.0346e-05
8810.0 8.7715e-05
8830.0 4.7508e-05
8850.0 1.915e-05
8870.0 1.3308e-05
8890.0 3.6971e-05
8910.0 5.9653e-05
8930.0 7.9532e-05
8950.0 8.8826e-05
8970.0 8.5396e-05
8990.0 6.3305e-05
9010.0 6.0212e-05
9030.0 4.5455e-05
9050.0 4.7258e-05
9070.0 4.9143e-05
9090.0 5.0676e-05
9110.0 5.2534e-05
9130.0 5.3875e-05
9150.0 5.483e-05
9170.0 5.5847e-05
9190.0 5.6936e-05
9210.0 5.8078e-05
9230.0 5.9286e-05
9250.0 6.0505e-05
9270.0 6.1764e-05
9290.0 6.3055e-05
9310.0 6.4343e-05
9330.0 6.5648e-05
9350.0 6.6998e-05
9370.0 6.8354e-05
9390.0 6.9713e-05
9410.0 7.1107e-05
9430.0 7.254e-05
9450.0 7.3955e-05
9470.0 7.5395e-05
9490.0 7.6874e-05
9510.0 7.8364e-05
9530.0 7.9852e-05
9550.0 8.1394e-05
9570.0 8.2957e-05
9590.0 8.4517e-05
9610.0 8.6102e-05
9630.0 8.7729e-05
9650.0 8.9364e-05
9670.0 9.0994e-05
9690.0 9.2671e-05
9710.0 9.4372e-05
9730.0 9.607e-05
9750.0 9.7792e-05
9770.0 9.9571e-05
9790.0 0.00010134
9810.0 0.00010311
9830.0 0.00010492
9850.0 0.00010676
9870.0 0.00010858
9890.0 0.00011043
9910.0 0.00011233
9930.0 0.00011421
9950.0 0.00011611
9970.0 0.00011804
9990.0 0.00011999
10010.0 0.0001069
10030.0 0.00010861
10050.0 0.00011034
10070.0 0.00011206
10090.0 0.00011378
10110.0 0.00011555
10130.0 0.00011732
10150.0 0.00011907
10170.0 0.00012084
10190.0 0.00012264
10210.0 0.00012441
10230.0 0.00012617
10250.0 0.00012796
10270.0 0.00012975
10290.0 0.00013151
10310.0 0.00013329
10330.0 0.0001351
10350.0 0.00013686
10370.0 0.00013862
10390.0 0.0001404
10410.0 0.00014217
10430.0 0.0001439
10450.0 0.00014565
10470.0 0.00014739
10490.0 0.00014911
10510.0 0.00015081
10530.0 0.00015253
10550.0 0.00015422
10570.0 0.00015588
10590.0 0.00015753
10610.0 0.00015919
10630.0 0.00016079
10650.0 0.00016238
10670.0 0.00016398
10690.0 0.00016554
10710.0 0.00016707
10730.0 0.00016859
10750.0 0.00017011
10770.0 0.00017156
10790.0 0.00017299
10810.0 0.00017441
10830.0 0.00017579
10850.0 0.00017709
10870.0 0.00017837
10890.0 0.00017952
10910.0 0.00018047
10930.0 0.00018113
10950.0 0.00018136
10970.0 0.000181
10990.0 0.00017999
11010.0 0.00017895
11030.0 0.00017622
11050.0 0.0001728
11070.0 0.00016866
11090.0 0.00016364
11110.0 0.00015842
11130.0 0.00015299
11150.0 0.00014715
11170.0 0.00014116
11190.0 0.00013537
11210.0 0.00012943
11230.0 0.00012337
11250.0 0.00011762
11270.0 0.00011212
11290.0 0.00010663
11310.0 0.00010145
11330.0 9.689e-05
11350.0 9.2574e-05
11370.0 8.8573e-05
11390.0 8.5079e-05
11410.0 8.1987e-05
11430.0 7.9079e-05
11450.0 7.6522e-05
11470.0 7.4259e-05
11490.0 7.2116e-05
11510.0 7.002e-05
11530.0 6.8049e-05
11550.0 6.6084e-05
11570.0 6.4004e-05
11590.0 6.1868e-05
11610.0 5.9712e-05
11630.0 5.74e-05
11650.0 5.4958e-05
11670.0 5.2567e-05
11690.0 5.0161e-05
11710.0 4.7698e-05
11730.0 4.5317e-05
11750.0 4.3109e-05
11770.0 4.0945e-05
11790.0 3.8908e-05
11810.0 3.7096e-05
11830.0 3.5457e-05
11850.0 3.3929e-05
11870.0 3.2622e-05
11890.0 3.1506e-05
11910.0 3.0501e-05
11930.0 2.9612e-05
11950.0 2.8845e-05
11970.0 2.8143e-05
11990.0 2.747e-05
12010.0 2.6841e-05
12030.0 2.6235e-05
12050.0 2.5616e-05
12070.0 2.4982e-05
12090.0 2.4371e-05
12110.0 2.3754e-05
12130.0 2.3133e-05
12150.0 2.2546e-05
12170.0 2.2011e-05
12190.0 2.1513e-05
12210.0 2.1101e-05
12230.0 2.0796e-05
12250.0 2.0599e-05
12270.0 2.0534e-05
12290.0 2.0606e-05
12310.0 2.0805e-05
12330.0 2.116e-05
12350.0 2.1655e-05
12370.0 2.2251e-05
12390.0 2.2966e-05
12410.0 2.3832e-05
12430.0 2.472e-05
12450.0 2.5645e-05
12470.0 2.6638e-05
12490.0 2.7636e-05
12510.0 2.8564e-05
12530.0 2.9486e-05
12550.0 3.0371e-05
12570.0 3.1137e-05
12590.0 3.1796e-05
12610.0 3.2372e-05
12630.0 3.2811e-05
12650.0 3.308e-05
12670.0 3.3225e-05
12690.0 3.3225e-05
12710.0 3.3074e-05
12730.0 3.279e-05
12750.0 3.2363e-05
12770.0 3.1814e-05
12790.0 3.1169e-05
12810.0 3.0421e-05
12830.0 2.9574e-05
12850.0 2.8695e-05
12870.0 2.7776e-05
12890.0 2.6795e-05
12910.0 2.5805e-05
12930.0 2.4833e-05
12950.0 2.3829e-05
12970.0 2.2814e-05
12990.0 2.1855e-05
13010.0 2.0911e-05
13030.0 1.9961e-05
13050.0 1.9048e-05
13070.0 1.8191e-05
13090.0 1.7331e-05
13110.0 1.6496e-05
13130.0 1.5721e-05
13150.0 1.4982e-05
13170.0 1.4255e-05
13190.0 1.3599e-05
13210.0 1.3011e-05
13230.0 1.2465e-05
13250.0 1.1982e-05
13270.0 1.1584e-05
13290.0 1.1254e-05
13310.0 1.0999e-05
13330.0 1.0836e-05
13350.0 1.0761e-05
13370.0 1.0775e-05
13390.0 1.0887e-05
13410.0 1.1073e-05
13430.0 1.1342e-05
13450.0 1.1696e-05
13470.0 1.2105e-05
13490.0 1.2551e-05
13510.0 1.3069e-05
13530.0 1.3606e-05
13550.0 1.4129e-05
13570.0 1.4656e-05
13590.0 1.5179e-05
13610.0 1.5652e-05
13630.0 1.6073e-05
13650.0 1.6466e-05
13670.0 1.68e-05
13690.0 1.7064e-05
13710.0 1.7275e-05
13730.0 1.7436e-05
13750.0 1.7525e-05
13770.0 1.7561e-05
13790.0 1.7547e-05
13810.0 1.7482e-05
13830.0 1.7374e-05
13850.0 1.7222e-05
13870.0 1.7028e-05
13890.0 1.6802e-05
13910.0 1.6546e-05
13930.0 1.625e-05
13950.0 1.5928e-05
13970.0 1.5599e-05
13990.0 1.5242e-05
14010.0 1.4864e-05
14030.0 1.4489e-05
14050.0 1.4113e-05
14070.0 1.3717e-05
14090.0 1.3339e-05
14110.0 1.2983e-05
14130.0 1.2639e-05
14150.0 1.2314e-05
14170.0 1.2034e-05
14190.0 1.1791e-05
14210.0 1.1581e-05
14230.0 1.1422e-05
14250.0 1.1314e-05
14270.0 1.1253e-05
14290.0 1.1248e-05
14310.0 1.1294e-05
14330.0 1.1389e-05
14350.0 1.1537e-05
14370.0 1.1727e-05
14390.0 1.1949e-05
14410.0 1.2215e-05
14430.0 1.2512e-05
14450.0 1.2822e-05
14470.0 1.3149e-05
14490.0 1.3503e-05
14510.0 1.3848e-05
14530.0 1.4181e-05
14550.0 1.4521e-05
14570.0 1.4853e-05
14590.0 1.5162e-05
14610.0 1.5465e-05
14630.0 1.5769e-05
14650.0 1.6056e-05
14670.0 1.6336e-05
14690.0 1.6628e-05
14710.0 1.6934e-05
14730.0 1.724e-05
14750.0 1.7575e-05
14770.0 1.7952e-05
14790.0 1.8358e-05
14810.0 1.8795e-05
14830.0 1.9308e-05
14850.0 1.9863e-05
14870.0 2.0441e-05
14890.0 2.1062e-05
14910.0 2.172e-05
14930.0 2.2355e-05
14950.0 2.295e-05
14970.0 2.3516e-05
14990.0 2.3995e-05
15010.0 2.437e-05
15030.0 2.4657e-05
15050.0 2.4858e-05
15070.0 2.4973e-05
15090.0 2.5036e-05
15110.0 2.5062e-05
15130.0 2.5065e-05
15150.0 2.5057e-05
15170.0 2.5041e-05
15190.0 2.5023e-05
15210.0 2.5005e-05
15230.0 2.4987e-05
15250.0 2.4968e-05
15270.0 2.495e-05
15290.0 2.4935e-05
15310.0 2.4918e-05
15330.0 2.4901e-05
15350.0 2.4887e-05
15370.0 2.4873e-05
15390.0 2.4857e-05
15410.0 2.4842e-05
15430.0 2.4829e-05
15450.0 2.4815e-05
15470.0 2.48e-05
15490.0 2.4788e-05
15510.0 2.4777e-05
15530.0 2.4763e-05
15550.0 2.475e-05
15570.0 2.474e-05
15590.0 2.4727e-05
15610.0 2.4713e-05
15630.0 2.4702e-05
15650.0 2.4691e-05
15670.0 2.4678e-05
15690.0 2.4666e-05
15710.0 2.4656e-05
15730.0 2.4644e-05
15750.0 2.4631e-05
15770.0 2.462e-05
15790.0 2.4609e-05
15810.0 2.4595e-05
15830.0 2.4583e-05
15850.0 2.4572e-05
15870.0 2.4559e-05
15890.0 2.4546e-05
15910.0 2.4535e-05
15930.0 2.4523e-05
15950.0 2.4508e-05
15970.0 2.4495e-05
15990.0 2.4482e-05
16010.0 2.4467e-05
16030.0 2.4452e-05
16050.0 2.4439e-05
16070.0 2.4425e-05
16090.0 2.4408e-05
16110.0 2.4393e-05
16130.0 2.4379e-05
16150.0 2.4361e-05
16170.0 2.4343e-05
16190.0 2.4327e-05
16210.0 2.431e-05
16230.0 2.429e-05
16250.0 2.4272e-05
16270.0 2.4255e-05
16290.0 2.4234e-05
16310.0 2.4214e-05
16330.0 2.4195e-05
16350.0 2.4174e-05
16370.0 2.4149e-05
16390.0 2.4129e-05
16410.0 2.4107e-05
16430.0 2.4083e-05
16450.0 2.4058e-05
16470.0 2.4036e-05
16490.0 2.401e-05
16510.0 2.3983e-05
16530.0 2.3958e-05
16550.0 2.3932e-05
16570.0 2.3902e-05
16590.0 2.3873e-05
16610.0 2.3846e-05
16630.0 2.3816e-05
16650.0 2.3785e-05
16670.0 2.3755e-05
16690.0 2.3725e-05
16710.0 2.369e-05
16730.0 2.3657e-05
16750.0 2.3625e-05
16770.0 2.359e-05
16790.0 2.3553e-05
16810.0 2.3518e-05
16830.0 2.3483e-05
16850.0 2.3444e-05
16870.0 2.3406e-05
16890.0 2.3369e-05
16910.0 2.3328e-05
16930.0 2.3286e-05
16950.0 2.3247e-05
16970.0 2.3206e-05
16990.0 2.3162e-05
17010.0 2.3119e-05
17030.0 2.3077e-05
17050.0 2.3031e-05
17070.0 2.2984e-05
17090.0 2.294e-05
17110.0 2.2893e-05
17130.0 2.2843e-05
17150.0 2.2795e-05
17170.0 2.2747e-05
17190.0 2.2697e-05
17210.0 2.2645e-05
17230.0 2.2596e-05
17250.0 2.2544e-05
17270.0 2.2489e-05
17290.0 2.2436e-05
17310.0 2.2383e-05
17330.0 2.2327e-05
17350.0 2.227e-05
17370.0 2.2216e-05
17390.0 2.2159e-05
17410.0 2.21e-05
17430.0 2.2043e-05
17450.0 2.1985e-05
17470.0 2.1923e-05
17490.0 2.1862e-05
17510.0 2.1802e-05
17530.0 2.1741e-05
17550.0 2.1677e-05
17570.0 2.1615e-05
17590.0 2.1553e-05
17610.0 2.1487e-05
17630.0 2.1422e-05
17650.0 2.1358e-05
17670.0 2.1292e-05
17690.0 2.1222e-05
17710.0 2.1156e-05
17730.0 2.1089e-05
17750.0 2.102e-05
17770.0 2.095e-05
17790.0 2.0883e-05
17810.0 2.0812e-05
17830.0 2.074e-05
17850.0 2.067e-05
17870.0 2.0599e-05
17890.0 2.0525e-05
17910.0 2.0451e-05
17930.0 2.038e-05
17950.0 2.0306e-05
17970.0 2.0231e-05
17990.0 2.0158e-05
18010.0 2.0084e-05
18030.0 2.0006e-05
18050.0 1.993e-05
18070.0 1.9855e-05
18090.0 1.9778e-05
18110.0 1.9699e-05
18130.0 1.9623e-05
18150.0 1.9546e-05
18170.0 1.9466e-05
18190.0 1.9387e-05
18210.0 1.931e-05
18230.0 1.9229e-05
18250.0 1.9148e-05
18270.0 1.9069e-05
18290.0 1.8989e-05
18310.0 1.8907e-05
18330.0 1.8827e-05
18350.0 1.8747e-05
18370.0 1.8664e-05
18390.0 1.8582e-05
18410.0 1.8501e-05
18430.0 1.8419e-05
18450.0 1.8334e-05
18470.0 1.8251e-05
18490.0 1.817e-05
18510.0 1.8086e-05
18530.0 1.8002e-05
18550.0 1.792e-05
18570.0 1.7836e-05
18590.0 1.775e-05
18610.0 1.7666e-05
18630.0 1.7583e-05
18650.0 1.7497e-05
18670.0 1.7412e-05
18690.0 1.7329e-05
18710.0 1.7244e-05
18730.0 1.7158e-05
18750.0 1.7074e-05
18770.0 1.699e-05
18790.0 1.6902e-05
18810.0 1.6816e-05
18830.0 1.6733e-05
18850.0 1.6647e-05
18870.0 1.656e-05
18890.0 1.6475e-05
18910.0 1.6391e-05
18930.0 1.6304e-05
18950.0 1.6218e-05
18970.0 1.6134e-05
18990.0 1.6048e-05
19010.0 1.5959e-05
19030.0 1.5875e-05
19050.0 1.5791e-05
19070.0 1.5704e-05
19090.0 1.5618e-05
19110.0 1.5535e-05
19130.0 1.5448e-05
19150.0 1.5361e-05
19170.0 1.5277e-05
19190.0 1.5192e-05
19210.0 1.5105e-05
19230.0 1.5019e-05
19250.0 1.4936e-05
19270.0 1.485e-05
19290.0 1.4764e-05
19310.0 1.4681e-05
19330.0 1.4597e-05
19350.0 1.4509e-05
19370.0 1.4425e-05
19390.0 1.4342e-05
19410.0 1.4257e-05
19430.0 1.4171e-05
19450.0 1.4089e-05
19470.0 1.4005e-05
19490.0 1.392e-05
19510.0 1.3837e-05
19530.0 1.3755e-05
19550.0 1.367e-05
19570.0 1.3585e-05
19590.0 1.3503e-05
19610.0 1.3421e-05
19630.0 1.3337e-05
19650.0 1.3255e-05
19670.0 1.3174e-05
19690.0 1.309e-05
19710.0 1.3007e-05
19730.0 1.2927e-05
19750.0 1.2845e-05
19770.0 1.2761e-05
19790.0 1.2681e-05
19810.0 1.2601e-05
19830.0 1.2519e-05
19850.0 1.2437e-05
19870.0 1.2356e-05
19890.0 1.2271e-05
19910.0 1.2181e-05
19930.0 1.2086e-05
19950.0 1.1981e-05
19970.0 1.1858e-05
19990.0 1.1714e-05
20010.0 1.0798e-05
20030.0 1.0624e-05
20050.0 1.0424e-05
20070.0 1.021e-05
20090.0 9.9835e-06
20110.0 9.7308e-06
20130.0 9.4773e-06
20150.0 9.2278e-06
20170.0 8.9711e-06
20190.0 8.7126e-06
20210.0 8.4692e-06
20230.0 8.2327e-06
20250.0 7.9965e-06
20270.0 7.7773e-06
20290.0 7.5767e-06
20310.0 7.3857e-06
20330.0 7.2065e-06
20350.0 7.0559e-06
20370.0 6.9207e-06
20390.0 6.8004e-06
20410.0 6.7008e-06
20430.0 6.6213e-06
20450.0 6.5555e-06
20470.0 6.5076e-06
20490.0 6.4767e-06
20510.0 6.4601e-06
20530.0 6.4576e-06
20550.0 6.4679e-06
20570.0 6.4884e-06
20590.0 6.5201e-06
20610.0 6.5613e-06
20630.0 6.6086e-06
20650.0 6.6632e-06
20670.0 6.7274e-06
20690.0 6.7937e-06
20710.0 6.8628e-06
20730.0 6.938e-06
20750.0 7.0167e-06
20770.0 7.0936e-06
20790.0 7.1743e-06
20810.0 7.2591e-06
20830.0 7.3427e-06
20850.0 7.4256e-06
20870.0 7.5139e-06
20890.0 7.6028e-06
20910.0 7.6874e-06
20930.0 7.7745e-06
20950.0 7.8641e-06
20970.0 7.9505e-06
20990.0 8.035e-06
21010.0 8.1237e-06
21030.0 8.2098e-06
21050.0 8.2912e-06
21070.0 8.3722e-06
21090.0 8.4534e-06
21110.0 8.5268e-06
21130.0 8.5954e-06
21150.0 8.662e-06
21170.0 8.7221e-06
21190.0 8.7734e-06
21210.0 8.8198e-06
21230.0 8.8584e-06
21250.0 8.8856e-06
21270.0 8.9026e-06
21290.0 8.9087e-06
21310.0 8.9017e-06
21330.0 8.8816e-06
21350.0 8.8472e-06
21370.0 8.7969e-06
21390.0 8.7325e-06
21410.0 8.6534e-06
21430.0 8.5535e-06
21450.0 8.4405e-06
21470.0 8.3167e-06
21490.0 8.1763e-06
21510.0 8.0217e-06
21530.0 7.8637e-06
21550.0 7.6974e-06
21570.0 7.5196e-06
21590.0 7.3436e-06
21610.0 7.1725e-06
21630.0 7.0003e-06
21650.0 6.831e-06
21670.0 6.6824e-06
21690.0 6.5439e-06
21710.0 6.4172e-06
21730.0 6.311e-06
21750.0 6.2259e-06
21770.0 6.1573e-06
21790.0 6.1117e-06
21810.0 6.0891e-06
21830.0 6.0875e-06
21850.0 6.1084e-06
21870.0 6.1492e-06
21890.0 6.2064e-06
21910.0 6.2836e-06
21930.0 6.377e-06
21950.0 6.4801e-06
21970.0 6.5962e-06
21990.0 6.7285e-06
22010.0 6.862e-06
22030.0 6.9988e-06
22050.0 7.1439e-06
22070.0 7.2911e-06
22090.0 7.4313e-06
22110.0 7.5739e-06
22130.0 7.7174e-06
22150.0 7.8521e-06
22170.0 7.9799e-06
22190.0 8.1075e-06
22210.0 8.2268e-06
22230.0 8.3321e-06
22250.0 8.4316e-06
22270.0 8.5236e-06
22290.0 8.6022e-06
22310.0 8.6696e-06
22330.0 8.7291e-06
22350.0 8.7749e-06
22370.0 8.8068e-06
22390.0 8.8264e-06
22410.0 8.8322e-06
22430.0 8.8229e-06
22450.0 8.7994e-06
22470.0 8.7599e-06
22490.0 8.7048e-06
22510.0 8.6363e-06
22530.0 8.5493e-06
22550.0 8.4439e-06
22570.0 8.327e-06
22590.0 8.1954e-06
22610.0 8.0444e-06
