#lamb flux
1010.0 9.6156e-06
1030.0 1.0772e-05
1050.0 1.1919e-05
1070.0 1.3216e-05
1090.0 1.4747e-05
1110.0 1.6317e-05
1130.0 1.7902e-05
1150.0 1.957e-05
1170.0 2.1309e-05
1190.0 2.299e-05
1210.0 2.4731e-05
1230.0 2.6576e-05
1250.0 2.8433e-05
1270.0 3.0307e-05
1290.0 3.2347e-05
1310.0 3.4465e-05
1330.0 3.6586e-05
1350.0 3.8801e-05
1370.0 4.1143e-05
1390.0 4.35e-05
1410.0 4.5852e-05
1430.0 4.8325e-05
1450.0 5.0825e-05
1470.0 5.3276e-05
1490.0 5.5747e-05
1510.0 5.8317e-05
1530.0 6.0757e-05
1550.0 6.3136e-05
1570.0 6.5536e-05
1590.0 6.7882e-05
1610.0 7.0067e-05
1630.0 7.2215e-05
1650.0 7.433e-05
1670.0 7.6283e-05
1690.0 7.8109e-05
1710.0 7.9906e-05
1730.0 8.1606e-05
1750.0 8.3075e-05
1770.0 8.4495e-05
1790.0 8.5851e-05
1810.0 8.7047e-05
1830.0 8.8123e-05
1850.0 8.9235e-05
1870.0 9.0231e-05
1890.0 9.111e-05
1910.0 9.1987e-05
1930.0 9.288e-05
1950.0 9.3672e-05
1970.0 9.4437e-05
1990.0 9.5268e-05
2010.0 9.6071e-05
2030.0 9.6816e-05
2050.0 9.7612e-05
2070.0 9.8443e-05
2090.0 9.9159e-05
2110.0 9.9843e-05
2130.0 0.00010053
2150.0 0.00010113
2170.0 0.00010159
2190.0 0.00010201
2210.0 0.00010234
2230.0 0.00010249
2250.0 0.0001025
2270.0 0.00010245
2290.0 0.0001022
2310.0 0.00010174
2330.0 0.00010118
2350.0 0.00010047
2370.0 9.9561e-05
2390.0 9.8511e-05
2410.0 9.7359e-05
2430.0 9.5996e-05
2450.0 9.443e-05
2470.0 9.2701e-05
2490.0 9.0794e-05
2510.0 8.872e-05
2530.0 8.669e-05
2550.0 8.5018e-05
2570.0 8.4084e-05
2590.0 8.4301e-05
2610.0 8.6561e-05
2630.0 9.1123e-05
2650.0 9.7556e-05
2670.0 0.00010587
2690.0 0.00011555
2710.0 0.00012464
2730.0 0.00013205
2750.0 0.00013745
2770.0 0.00013932
2790.0 0.00013727
2810.0 0.00013152
2830.0 0.00012192
2850.0 0.00010955
2870.0 9.5073e-05
2890.0 7.8592e-05
2910.0 6.0944e-05
2930.0 4.3109e-05
2950.0 2.4293e-05
2970.0 6.602e-06
2990.0 6.602e-06
3010.0 1.3406e-05
3030.0 1.3406e-05
3050.0 1.3406e-05
3070.0 1.3406e-05
3090.0 1.3406e-05
3110.0 1.3406e-05
3130.0 1.3406e-05
3150.0 1.3406e-05
3170.0 1.3406e-05
3190.0 1.3406e-05
3210.0 1.3406e-05
3230.0 0.00054497
3250.0 0.0009708
3270.0 0.00091065
3290.0 0.00085006
3310.0 0.00064615
3330.0 0.00062711
3350.0 0.00069257
3370.0 0.00079021
3390.0 0.00089769
3410.0 0.001013
3430.0 0.0011649
3450.0 0.0013136
3470.0 0.0014676
3490.0 0.0015241
3510.0 0.0013843
3530.0 0.0013315
3550.0 0.0014732
3570.0 0.001582
3590.0 0.0017146
3610.0 0.0016741
3630.0 0.0020281
3650.0 0.0022142
3670.0 0.0023384
3690.0 0.0023233
3710.0 0.0021034
3730.0 0.0020771
3750.0 0.001973
3770.0 0.0019057
3790.0 0.0017947
3810.0 0.001707
3830.0 0.0017615
3850.0 0.00093338
3870.0 0.0012522
3890.0 0.0014517
3910.0 0.0017846
3930.0 0.0022906
3950.0 0.002483
3970.0 0.0027738
3990.0 0.0033229
4010.0 0.0028175
4030.0 0.002424
4050.0 0.0017505
4070.0 0.0016497
4090.0 0.0024315
4110.0 0.0024316
4130.0 0.0026468
4150.0 0.0025366
4170.0 0.002402
4190.0 0.0021801
4210.0 0.0029372
4230.0 0.0031018
4250.0 0.0033805
4270.0 0.0032184
4290.0 0.0031728
4310.0 0.0034465
4330.0 0.0040479
4350.0 0.0042251
4370.0 0.0041998
4390.0 0.0038319
4410.0 0.0035354
4430.0 0.002756
4450.0 0.0022442
4470.0 0.0024231
4490.0 0.0028413
4510.0 0.0029578
4530.0 0.0029812
4550.0 0.0030159
4570.0 0.0042971
4590.0 0.006432
4610.0 0.0075574
4630.0 0.0076553
4650.0 0.008255
4670.0 0.0096249
4690.0 0.010433
4710.0 0.0086973
4730.0 0.006634
4750.0 0.0051967
4770.0 0.0044807
4790.0 0.0040985
4810.0 0.0038855
4830.0 0.0043067
4850.0 0.005089
4870.0 0.0055802
4890.0 0.0058281
4910.0 0.0054891
4930.0 0.0059347
4950.0 0.0072432
4970.0 0.0084385
4990.0 0.0087513
5010.0 0.0080585
5030.0 0.0066925
5050.0 0.0051548
5070.0 0.0041113
5090.0 0.0037129
5110.0 0.0036548
5130.0 0.0037223
5150.0 0.003696
5170.0 0.0034755
5190.0 0.0032605
5210.0 0.0032044
5230.0 0.0036342
5250.0 0.0043357
5270.0 0.0051902
5290.0 0.0059244
5310.0 0.0063455
5330.0 0.0070075
5350.0 0.0077889
5370.0 0.0080841
5390.0 0.0073384
5410.0 0.0065333
5430.0 0.0064091
5450.0 0.0074864
5470.0 0.0092551
5490.0 0.010782
5510.0 0.011484
5530.0 0.01135
5550.0 0.010879
5570.0 0.010555
5590.0 0.010205
5610.0 0.010059
5630.0 0.010056
5650.0 0.010126
5670.0 0.0099782
5690.0 0.0090864
5710.0 0.0077079
5730.0 0.0069325
5750.0 0.0066831
5770.0 0.0068729
5790.0 0.0071267
5810.0 0.0074205
5830.0 0.0075693
5850.0 0.0072615
5870.0 0.006893
5890.0 0.0067528
5910.0 0.007027
5930.0 0.0073458
5950.0 0.00695
5970.0 0.0061639
5990.0 0.0051215
6010.0 0.0041625
6030.0 0.0038432
6050.0 0.0041623
6070.0 0.0044246
6090.0 0.0042182
6110.0 0.0037231
6130.0 0.0038099
6150.0 0.0044326
6170.0 0.0050959
6190.0 0.0055937
6210.0 0.0056744
6230.0 0.0055851
6250.0 0.0051003
6270.0 0.0042632
6290.0 0.0035197
6310.0 0.0031237
6330.0 0.0030519
6350.0 0.0031067
6370.0 0.0031489
6390.0 0.0035415
6410.0 0.0044173
6430.0 0.0054516
6450.0 0.0061163
6470.0 0.0063055
6490.0 0.0062624
6510.0 0.0063921
6530.0 0.0065877
6550.0 0.0065556
6570.0 0.0068026
6590.0 0.0069747
6610.0 0.0070934
6630.0 0.0069748
6650.0 0.0065137
6670.0 0.0059431
6690.0 0.0054043
6710.0 0.0051147
6730.0 0.0050519
6750.0 0.0051434
6770.0 0.0052844
6790.0 0.005456
6810.0 0.0055718
6830.0 0.0054655
6850.0 0.0052015
6870.0 0.0048729
6890.0 0.0047633
6910.0 0.0046198
6930.0 0.0047812
6950.0 0.005066
6970.0 0.0052001
6990.0 0.0052966
7010.0 0.0051451
7030.0 0.004731
7050.0 0.004186
7070.0 0.0037351
7090.0 0.0034953
7110.0 0.003465
7130.0 0.0033818
7150.0 0.0030227
7170.0 0.0028679
7190.0 0.0031376
7210.0 0.0036282
7230.0 0.0041838
7250.0 0.0044288
7270.0 0.0043777
7290.0 0.0040376
7310.0 0.003727
7330.0 0.0035764
7350.0 0.0035864
7370.0 0.0036542
7390.0 0.0038278
7410.0 0.0042413
7430.0 0.0049016
7450.0 0.005534
7470.0 0.0058372
7490.0 0.0057012
7510.0 0.0053077
7530.0 0.0046109
7550.0 0.004186
7570.0 0.0037337
7590.0 0.0035105
7610.0 0.0035979
7630.0 0.0038842
7650.0 0.0042894
7670.0 0.0046984
7690.0 0.0049836
7710.0 0.0052812
7730.0 0.0055866
7750.0 0.0058423
7770.0 0.0057814
7790.0 0.0058069
7810.0 0.0058969
7830.0 0.0058614
7850.0 0.0056601
7870.0 0.005471
7890.0 0.0054929
7910.0 0.0053342
7930.0 0.0052455
7950.0 0.0049642
7970.0 0.0048169
7990.0 0.0046357
8010.0 0.0046955
8030.0 0.0047255
8050.0 0.0047508
8070.0 0.0046901
8090.0 0.0046531
8110.0 0.0044816
8130.0 0.0044689
8150.0 0.004406
8170.0 0.0042882
8190.0 0.0041921
8210.0 0.00417
8230.0 0.0040627
8250.0 0.0039749
8270.0 0.0035984
8290.0 0.0029379
8310.0 0.002208
8330.0 0.001706
8350.0 0.0015951
8370.0 0.0019015
8390.0 0.0023048
8410.0 0.0024894
8430.0 0.0025532
8450.0 0.0026837
8470.0 0.0028741
8490.0 0.0032184
8510.0 0.0036714
8530.0 0.0042143
8550.0 0.0047218
8570.0 0.0051396
8590.0 0.0054592
8610.0 0.0056401
8630.0 0.0056476
8650.0 0.0055899
8670.0 0.0055877
8690.0 0.0058653
8710.0 0.0062368
8730.0 0.0064844
8750.0 0.0064571
8770.0 0.0065432
8790.0 0.006515
8810.0 0.0061163
8830.0 0.0057601
8850.0 0.0052874
8870.0 0.0049058
8890.0 0.0047794
8910.0 0.004785
8930.0 0.0045196
8950.0 0.0042176
8970.0 0.0040917
8990.0 0.0040559
9010.0 0.0039005
9030.0 0.003813
9050.0 0.0037807
9070.0 0.0037659
9090.0 0.0037531
9110.0 0.0037407
9130.0 0.0037283
9150.0 0.0037161
9170.0 0.0037024
9190.0 0.0036923
9210.0 0.0036969
9230.0 0.0036781
9250.0 0.0036626
9270.0 0.0036489
9290.0 0.0036364
9310.0 0.0036243
9330.0 0.0036127
9350.0 0.0036019
9370.0 0.0035912
9390.0 0.0035802
9410.0 0.0035697
9430.0 0.0035589
9450.0 0.0035436
9470.0 0.0035298
9490.0 0.0035242
9510.0 0.0035162
9530.0 0.0035075
9550.0 0.0034985
9570.0 0.0034893
9590.0 0.0034798
9610.0 0.0034703
9630.0 0.0034609
9650.0 0.0034515
9670.0 0.003442
9690.0 0.0034327
9710.0 0.0034234
9730.0 0.003414
9750.0 0.0034047
9770.0 0.0033955
9790.0 0.0033863
9810.0 0.003377
9830.0 0.0033678
9850.0 0.0033586
9870.0 0.0033492
9890.0 0.0033399
9910.0 0.0033305
9930.0 0.0033207
9950.0 0.0032855
9970.0 0.0032836
9990.0 0.0032801
10010.0 0.0032758
10030.0 0.0032693
10050.0 0.0032609
10070.0 0.0032521
10090.0 0.0032433
10110.0 0.0032327
10130.0 0.0032226
10150.0 0.0032126
10170.0 0.0032019
10190.0 0.00319
10210.0 0.0031792
10230.0 0.0031686
10250.0 0.0031568
10270.0 0.003145
10290.0 0.003134
10310.0 0.0031218
10330.0 0.0031086
10350.0 0.0030964
10370.0 0.0030841
10390.0 0.0030705
10410.0 0.0030569
10430.0 0.0030442
10450.0 0.0030303
10470.0 0.0030156
10490.0 0.0030015
10510.0 0.0029873
10530.0 0.0029711
10550.0 0.0029554
10570.0 0.0029404
10590.0 0.0029242
10610.0 0.0029072
10630.0 0.002891
10650.0 0.0028744
10670.0 0.002856
10690.0 0.0028381
10710.0 0.0028205
10730.0 0.0028015
10750.0 0.0027813
10770.0 0.0027627
10790.0 0.0027433
10810.0 0.0027225
10830.0 0.0027019
10850.0 0.0026819
10870.0 0.0026596
10890.0 0.0026368
10910.0 0.0026147
10930.0 0.0025915
10950.0 0.0025662
10970.0 0.0025407
10990.0 0.0025153
11010.0 0.0026541
11030.0 0.0026235
11050.0 0.0025938
11070.0 0.0025635
11090.0 0.0025311
11110.0 0.0025013
11130.0 0.0024727
11150.0 0.0024435
11170.0 0.0024148
11190.0 0.0023883
11210.0 0.0023613
11230.0 0.0023337
11250.0 0.0023075
11270.0 0.0022819
11290.0 0.0022553
11310.0 0.0022286
11330.0 0.0022038
11350.0 0.002178
11370.0 0.0021514
11390.0 0.0021254
11410.0 0.0020992
11430.0 0.0020704
11450.0 0.0020412
11470.0 0.0020116
11490.0 0.0019799
11510.0 0.0019454
11530.0 0.0019109
11550.0 0.0018752
11570.0 0.0018365
11590.0 0.0017969
11610.0 0.0017576
11630.0 0.001716
11650.0 0.0016729
11670.0 0.0016317
11690.0 0.0015907
11710.0 0.0015487
11730.0 0.001508
11750.0 0.0014697
11770.0 0.0014312
11790.0 0.0013933
11810.0 0.001358
11830.0 0.001324
11850.0 0.0012896
11870.0 0.0012576
11890.0 0.0012277
11910.0 0.001198
11930.0 0.0011692
11950.0 0.0011425
11970.0 0.0011165
11990.0 0.0010905
12010.0 0.0010662
12030.0 0.0010434
12050.0 0.0010211
12070.0 0.00099965
12090.0 0.00098063
12110.0 0.0009627
12130.0 0.00094588
12150.0 0.00093105
12170.0 0.00091824
12190.0 0.0009067
12210.0 0.00089729
12230.0 0.0008901
12250.0 0.00088482
12270.0 0.00088159
12290.0 0.00088042
12310.0 0.00088106
12330.0 0.00088374
12350.0 0.00088829
12370.0 0.00089423
12390.0 0.00090181
12410.0 0.00091153
12430.0 0.00092186
12450.0 0.0009331
12470.0 0.00094575
12490.0 0.0009591
12510.0 0.00097212
12530.0 0.0009858
12550.0 0.00099976
12570.0 0.0010127
12590.0 0.0010246
12610.0 0.001036
12630.0 0.0010457
12650.0 0.0010529
12670.0 0.0010584
12690.0 0.0010617
12710.0 0.0010623
12730.0 0.0010605
12750.0 0.0010562
12770.0 0.0010493
12790.0 0.0010404
12810.0 0.0010294
12830.0 0.0010163
12850.0 0.0010023
12870.0 0.00098738
12890.0 0.00097128
12910.0 0.00095496
12930.0 0.00093894
12950.0 0.00092257
12970.0 0.00090629
12990.0 0.00089109
13010.0 0.00087638
13030.0 0.00086189
13050.0 0.00084815
13070.0 0.00083529
13090.0 0.00082249
13110.0 0.00081
13130.0 0.00079813
13150.0 0.00078649
13170.0 0.00077461
13190.0 0.0007632
13210.0 0.00075223
13230.0 0.00074119
13250.0 0.00073036
13270.0 0.00072021
13290.0 0.00071042
13310.0 0.00070095
13330.0 0.00069244
13350.0 0.00068487
13370.0 0.00067808
13390.0 0.00067228
13410.0 0.00066768
13430.0 0.00066394
13450.0 0.00066102
13470.0 0.00065878
13490.0 0.00065698
13510.0 0.00065541
13530.0 0.00065377
13550.0 0.00065182
13570.0 0.00064934
13590.0 0.00064609
13610.0 0.00064203
13630.0 0.00063718
13650.0 0.00063129
13670.0 0.00062455
13690.0 0.00061729
13710.0 0.00060939
13730.0 0.00060076
13750.0 0.00059238
13770.0 0.00058409
13790.0 0.0005758
13810.0 0.00056794
13830.0 0.00056085
13850.0 0.00055414
13870.0 0.00054799
13890.0 0.00054267
13910.0 0.00053799
13930.0 0.00053375
13950.0 0.00053006
13970.0 0.00052692
13990.0 0.00052401
14010.0 0.00052129
14030.0 0.00051876
14050.0 0.00051625
14070.0 0.00051357
14090.0 0.00051078
14110.0 0.00050784
14130.0 0.00050457
14150.0 0.00050091
14170.0 0.0004971
14190.0 0.000493
14210.0 0.00048851
14230.0 0.00048387
14250.0 0.00047925
14270.0 0.00047441
14290.0 0.00046957
14310.0 0.00046512
14330.0 0.00046091
14350.0 0.00045695
14370.0 0.0004535
14390.0 0.00045063
14410.0 0.00044815
14430.0 0.00044619
14450.0 0.00044479
14470.0 0.00044383
14490.0 0.00044326
14510.0 0.00044309
14530.0 0.00044324
14550.0 0.00044366
14570.0 0.00044437
14590.0 0.00044532
14610.0 0.00044656
14630.0 0.00044819
14650.0 0.00045016
14670.0 0.00045251
14690.0 0.00045541
14710.0 0.0004589
14730.0 0.00046273
14750.0 0.0004672
14770.0 0.00047239
14790.0 0.00047807
14810.0 0.00048425
14830.0 0.0004915
14850.0 0.00049941
14870.0 0.00050773
14890.0 0.00051683
14910.0 0.0005267
14930.0 0.00053649
14950.0 0.00054598
14970.0 0.00055531
14990.0 0.00056359
15010.0 0.00057041
15030.0 0.00057599
15050.0 0.00058033
15070.0 0.0005833
15090.0 0.00058543
15110.0 0.00058699
15130.0 0.00058818
15150.0 0.00058916
15170.0 0.00059006
15190.0 0.00059092
15210.0 0.00059178
15230.0 0.00059266
15250.0 0.00059355
15270.0 0.00059445
15290.0 0.00059539
15310.0 0.00059634
15330.0 0.0005973
15350.0 0.00059829
15370.0 0.00059929
15390.0 0.00060031
15410.0 0.00060134
15430.0 0.0006024
15450.0 0.00060347
15470.0 0.00060455
15490.0 0.00060565
15510.0 0.00060676
15530.0 0.00060789
15550.0 0.00060903
15570.0 0.00061019
15590.0 0.00061135
15610.0 0.00061253
15630.0 0.00061372
15650.0 0.00061492
15670.0 0.00061613
15690.0 0.00061736
15710.0 0.00061859
15730.0 0.00061983
15750.0 0.00062108
15770.0 0.00062234
15790.0 0.00062361
15810.0 0.00062488
15830.0 0.00062616
15850.0 0.00062745
15870.0 0.00062874
15890.0 0.00063003
15910.0 0.00063134
15930.0 0.00063264
15950.0 0.00063395
15970.0 0.00063526
15990.0 0.00063657
16010.0 0.00063789
16030.0 0.0006392
16050.0 0.00064052
16070.0 0.00064184
16090.0 0.00064315
16110.0 0.00064446
16130.0 0.00064578
16150.0 0.00064708
16170.0 0.00064838
16190.0 0.00064969
16210.0 0.00065098
16230.0 0.00065227
16250.0 0.00065356
16270.0 0.00065484
16290.0 0.00065611
16310.0 0.00065737
16330.0 0.00065864
16350.0 0.00065988
16370.0 0.00066111
16390.0 0.00066234
16410.0 0.00066356
16430.0 0.00066476
16450.0 0.00066595
16470.0 0.00066714
16490.0 0.0006683
16510.0 0.00066945
16530.0 0.00067058
16550.0 0.00067171
16570.0 0.0006728
16590.0 0.00067389
16610.0 0.00067496
16630.0 0.00067601
16650.0 0.00067704
16670.0 0.00067806
16690.0 0.00067905
16710.0 0.00068002
16730.0 0.00068097
16750.0 0.0006819
16770.0 0.0006828
16790.0 0.00068368
16810.0 0.00068454
16830.0 0.00068538
16850.0 0.00068618
16870.0 0.00068696
16890.0 0.00068772
16910.0 0.00068845
16930.0 0.00068914
16950.0 0.00068982
16970.0 0.00069046
16990.0 0.00069107
17010.0 0.00069166
17030.0 0.00069222
17050.0 0.00069274
17070.0 0.00069323
17090.0 0.0006937
17110.0 0.00069413
17130.0 0.00069452
17150.0 0.00069488
17170.0 0.00069521
17190.0 0.00069551
17210.0 0.00069577
17230.0 0.000696
17250.0 0.00069619
17270.0 0.00069634
17290.0 0.00069646
17310.0 0.00069655
17330.0 0.00069659
17350.0 0.0006966
17370.0 0.00069658
17390.0 0.00069651
17410.0 0.00069641
17430.0 0.00069627
17450.0 0.0006961
17470.0 0.00069587
17490.0 0.00069561
17510.0 0.00069533
17530.0 0.00069499
17550.0 0.00069462
17570.0 0.00069421
17590.0 0.00069377
17610.0 0.00069327
17630.0 0.00069274
17650.0 0.00069218
17670.0 0.00069157
17690.0 0.00069092
17710.0 0.00069024
17730.0 0.00068952
17750.0 0.00068875
17770.0 0.00068794
17790.0 0.00068711
17810.0 0.00068623
17830.0 0.0006853
17850.0 0.00068434
17870.0 0.00068335
17890.0 0.00068231
17910.0 0.00068123
17930.0 0.00068013
17950.0 0.00067897
17970.0 0.00067778
17990.0 0.00067656
18010.0 0.00067531
18030.0 0.000674
18050.0 0.00067266
18070.0 0.0006713
18090.0 0.00066989
18110.0 0.00066844
18130.0 0.00066697
18150.0 0.00066546
18170.0 0.00066391
18190.0 0.00066233
18210.0 0.00066072
18230.0 0.00065907
18250.0 0.00065739
18270.0 0.00065568
18290.0 0.00065394
18310.0 0.00065216
18330.0 0.00065036
18350.0 0.00064853
18370.0 0.00064666
18390.0 0.00064476
18410.0 0.00064284
18430.0 0.00064089
18450.0 0.00063891
18470.0 0.0006369
18490.0 0.00063488
18510.0 0.00063282
18530.0 0.00063073
18550.0 0.00062863
18570.0 0.0006265
18590.0 0.00062434
18610.0 0.00062216
18630.0 0.00061996
18650.0 0.00061774
18670.0 0.00061549
18690.0 0.00061323
18710.0 0.00061095
18730.0 0.00060864
18750.0 0.00060632
18770.0 0.00060398
18790.0 0.00060162
18810.0 0.00059924
18830.0 0.00059685
18850.0 0.00059445
18870.0 0.00059202
18890.0 0.00058959
18910.0 0.00058714
18930.0 0.00058467
18950.0 0.0005822
18970.0 0.00057971
18990.0 0.00057721
19010.0 0.00057469
19030.0 0.00057218
19050.0 0.00056965
19070.0 0.00056711
19090.0 0.00056456
19110.0 0.00056201
19130.0 0.00055944
19150.0 0.00055687
19170.0 0.0005543
19190.0 0.00055172
19210.0 0.00054913
19230.0 0.00054654
19250.0 0.00054395
19270.0 0.00054135
19290.0 0.00053874
19310.0 0.00053615
19330.0 0.00053354
19350.0 0.00053093
19370.0 0.00052832
19390.0 0.00052572
19410.0 0.00052311
19430.0 0.0005205
19450.0 0.0005179
19470.0 0.0005153
19490.0 0.00051269
19510.0 0.00051009
19530.0 0.0005075
19550.0 0.00050491
19570.0 0.00050231
19590.0 0.00049973
19610.0 0.00049715
19630.0 0.00049458
19650.0 0.00049201
19670.0 0.00048945
19690.0 0.00048689
19710.0 0.00048433
19730.0 0.00048179
19750.0 0.00047926
19770.0 0.00047672
19790.0 0.0004742
19810.0 0.00047169
19830.0 0.00046917
19850.0 0.00046663
19870.0 0.00046407
19890.0 0.00046143
19910.0 0.0004586
19930.0 0.00045552
19950.0 0.00045204
19970.0 0.00044794
19990.0 0.00044309
20010.0 0.00043759
20030.0 0.00043118
20050.0 0.00042391
20070.0 0.00041618
20090.0 0.00040808
20110.0 0.00039932
20130.0 0.00039065
20150.0 0.00038223
20170.0 0.00037377
20190.0 0.00036541
20210.0 0.00035756
20230.0 0.00034997
20250.0 0.00034243
20270.0 0.00033534
20290.0 0.0003287
20310.0 0.00032222
20330.0 0.0003159
20350.0 0.0003102
20370.0 0.00030473
20390.0 0.00029942
20410.0 0.00029447
20430.0 0.00028989
20450.0 0.0002854
20470.0 0.00028119
20490.0 0.00027733
20510.0 0.00027371
20530.0 0.00027026
20550.0 0.00026712
20570.0 0.00026427
20590.0 0.0002616
20610.0 0.00025916
20630.0 0.00025698
20650.0 0.000255
20670.0 0.00025319
20690.0 0.0002516
20710.0 0.00025017
20730.0 0.00024889
20750.0 0.00024774
20770.0 0.0002467
20790.0 0.00024575
20810.0 0.00024488
20830.0 0.00024405
20850.0 0.00024324
20870.0 0.00024245
20890.0 0.00024165
20910.0 0.0002408
20930.0 0.00023991
20950.0 0.00023895
20970.0 0.00023791
20990.0 0.00023678
21010.0 0.00023555
21030.0 0.00023421
21050.0 0.00023277
21070.0 0.00023121
21090.0 0.00022951
21110.0 0.00022773
21130.0 0.00022586
21150.0 0.00022386
21170.0 0.00022178
21190.0 0.00021966
21210.0 0.00021743
21230.0 0.00021511
21250.0 0.00021279
21270.0 0.00021044
21290.0 0.00020802
21310.0 0.00020559
21330.0 0.00020322
21350.0 0.00020082
21370.0 0.00019841
21390.0 0.00019609
21410.0 0.00019383
21430.0 0.00019155
21450.0 0.00018941
21470.0 0.00018739
21490.0 0.00018544
21510.0 0.00018361
21530.0 0.00018194
21550.0 0.0001804
21570.0 0.00017898
21590.0 0.00017773
21610.0 0.00017664
21630.0 0.0001757
21650.0 0.00017491
21670.0 0.00017428
21690.0 0.00017378
21710.0 0.00017343
21730.0 0.00017319
21750.0 0.00017303
21770.0 0.00017301
21790.0 0.00017305
21810.0 0.00017313
21830.0 0.00017325
21850.0 0.00017343
21870.0 0.00017359
21890.0 0.00017371
21910.0 0.00017384
21930.0 0.00017393
21950.0 0.00017395
21970.0 0.00017393
21990.0 0.00017386
22010.0 0.0001737
22030.0 0.00017347
22050.0 0.00017318
22070.0 0.00017282
22090.0 0.00017238
22110.0 0.0001719
22130.0 0.00017136
22150.0 0.00017076
22170.0 0.00017013
22190.0 0.00016944
22210.0 0.00016872
22230.0 0.00016797
22250.0 0.00016718
22270.0 0.00016635
22290.0 0.00016549
22310.0 0.0001646
22330.0 0.00016364
22350.0 0.00016263
22370.0 0.00016157
22390.0 0.00016043
22410.0 0.00015919
22430.0 0.0001579
22450.0 0.00015652
22470.0 0.00015501
22490.0 0.00015342
22510.0 0.00015176
22530.0 0.00014995
22550.0 0.00014802
22570.0 0.00014606
22590.0 0.00014402
22610.0 0.00014186
22630.0 0.00013968
22650.0 0.00013753
22670.0 0.0001353
22690.0 0.00013305
22710.0 0.00013089
22730.0 0.00012877
22750.0 0.00012661
22770.0 0.00012459
22790.0 0.00012269
22810.0 0.00012084
22830.0 0.00011909
22850.0 0.00011749
22870.0 0.00011598
22890.0 0.00011454
22910.0 0.00011324
22930.0 0.00011205
22950.0 0.00011093
22970.0 0.00010988
22990.0 0.00010895
23010.0 0.00010806
23030.0 0.00010722
23050.0 0.00010642
23070.0 0.00010566
23090.0 0.0001049
23110.0 0.00010414
