#lamb flux
1010.0 2.5157e-06
1030.0 2.7992e-06
1050.0 3.1831e-06
1070.0 3.7573e-06
1090.0 4.5105e-06
1110.0 5.3186e-06
1130.0 6.1635e-06
1150.0 7.0678e-06
1170.0 8.005e-06
1190.0 8.8812e-06
1210.0 9.7268e-06
1230.0 1.0531e-05
1250.0 1.1276e-05
1270.0 1.1881e-05
1290.0 1.2388e-05
1310.0 1.2742e-05
1330.0 1.2908e-05
1350.0 1.293e-05
1370.0 1.2828e-05
1390.0 1.2582e-05
1410.0 1.2216e-05
1430.0 1.1789e-05
1450.0 1.13e-05
1470.0 1.0757e-05
1490.0 1.0202e-05
1510.0 9.6641e-06
1530.0 9.1203e-06
1550.0 8.5991e-06
1570.0 8.1207e-06
1590.0 7.6818e-06
1610.0 7.2982e-06
1630.0 7.0563e-06
1650.0 6.8822e-06
1670.0 6.7708e-06
1690.0 6.7301e-06
1710.0 6.7726e-06
1730.0 6.8957e-06
1750.0 7.0914e-06
1770.0 7.3803e-06
1790.0 7.7659e-06
1810.0 8.2432e-06
1830.0 8.8192e-06
1850.0 9.5145e-06
1870.0 1.0315e-05
1890.0 1.1222e-05
1910.0 1.2246e-05
1930.0 1.3391e-05
1950.0 1.4634e-05
1970.0 1.5977e-05
1990.0 1.7427e-05
2010.0 1.8959e-05
2030.0 2.0549e-05
2050.0 2.2208e-05
2070.0 2.3918e-05
2090.0 2.5625e-05
2110.0 2.7333e-05
2130.0 2.9038e-05
2150.0 3.0702e-05
2170.0 3.2293e-05
2190.0 3.3839e-05
2210.0 3.5314e-05
2230.0 3.6683e-05
2250.0 3.7962e-05
2270.0 3.9177e-05
2290.0 4.0287e-05
2310.0 4.1291e-05
2330.0 4.2242e-05
2350.0 4.3139e-05
2370.0 4.397e-05
2390.0 4.4793e-05
2410.0 4.5672e-05
2430.0 4.66e-05
2450.0 4.7625e-05
2470.0 4.8854e-05
2490.0 5.0338e-05
2510.0 5.2014e-05
2530.0 5.4038e-05
2550.0 5.6582e-05
2570.0 5.9709e-05
2590.0 6.3592e-05
2610.0 6.8905e-05
2630.0 7.573e-05
2650.0 8.3821e-05
2670.0 9.3417e-05
2690.0 0.0001044
2710.0 0.00011564
2730.0 0.00012666
2750.0 0.00013786
2770.0 0.00014861
2790.0 0.00015885
2810.0 0.00016929
2830.0 0.00018064
2850.0 0.00019216
2870.0 0.00020435
2890.0 0.00021768
2910.0 0.00023173
2930.0 0.00024592
2950.0 0.00026109
2970.0 0.00027709
2990.0 0.00029322
3010.0 0.00030976
3030.0 0.00032729
3050.0 0.00034527
3070.0 0.0003628
3090.0 0.00038065
3110.0 0.00039808
3130.0 0.00041389
3150.0 0.00042769
3170.0 0.00043903
3190.0 0.00044724
3210.0 0.0004532
3230.0 0.00045738
3250.0 0.00045974
3270.0 0.00046144
3290.0 0.00046352
3310.0 0.00046669
3330.0 0.00047105
3350.0 0.00047626
3370.0 0.00048191
3390.0 0.00048377
3410.0 0.00048682
3430.0 0.00050152
3450.0 0.00051191
3470.0 0.00051392
3490.0 0.00053348
3510.0 0.00061191
3530.0 0.00075337
3550.0 0.00085333
3570.0 0.00093313
3590.0 0.0010503
3610.0 0.0010467
3630.0 0.00096465
3650.0 0.0010131
3670.0 0.0011954
3690.0 0.0013412
3710.0 0.0013902
3730.0 0.0014016
3750.0 0.001497
3770.0 0.0015052
3790.0 0.001434
3810.0 0.0013519
3830.0 0.0012815
3850.0 0.00129
3870.0 0.0013472
3890.0 0.0013884
3910.0 0.0014088
3930.0 0.0014096
3950.0 0.0015086
3970.0 0.0016253
3990.0 0.0015802
4010.0 0.0014098
4030.0 0.0012702
4050.0 0.0012596
4070.0 0.0013165
4090.0 0.001305
4110.0 0.0012559
4130.0 0.0012488
4150.0 0.0013071
4170.0 0.0014445
4190.0 0.0015176
4210.0 0.0014297
4230.0 0.0013153
4250.0 0.0012448
4270.0 0.0012007
4290.0 0.0012086
4310.0 0.0012409
4330.0 0.0011807
4350.0 0.0010464
4370.0 0.00093345
4390.0 0.00085485
4410.0 0.00081167
4430.0 0.00083489
4450.0 0.00091869
4470.0 0.001009
4490.0 0.001079
4510.0 0.0011939
4530.0 0.0014032
4550.0 0.0016228
4570.0 0.0017569
4590.0 0.0018723
4610.0 0.0019732
4630.0 0.0019901
4650.0 0.0018468
4670.0 0.0016077
4690.0 0.0014209
4710.0 0.0013585
4730.0 0.001298
4750.0 0.0011423
4770.0 0.0010217
4790.0 0.0010528
4810.0 0.0011412
4830.0 0.0011157
4850.0 0.00099151
4870.0 0.0010144
4890.0 0.0010404
4910.0 0.0010553
4930.0 0.0010381
4950.0 0.0010187
4970.0 0.00097357
4990.0 0.00089926
5010.0 0.00084653
5030.0 0.00083185
5050.0 0.00082737
5070.0 0.00082601
5090.0 0.00082479
5110.0 0.00082377
5130.0 0.00084056
5150.0 0.00088213
5170.0 0.00096035
5190.0 0.0010634
5210.0 0.0011466
5230.0 0.0011963
5250.0 0.0012242
5270.0 0.001264
5290.0 0.0012952
5310.0 0.0012886
5330.0 0.001244
5350.0 0.0012003
5370.0 0.0012019
5390.0 0.0012334
5410.0 0.0012564
5430.0 0.0012463
5450.0 0.0012283
5470.0 0.0012012
5490.0 0.0011736
5510.0 0.0011635
5530.0 0.0011693
5550.0 0.0011816
5570.0 0.0011862
5590.0 0.0011547
5610.0 0.0010969
5630.0 0.0010429
5650.0 0.00099451
5670.0 0.00096075
5690.0 0.00092225
5710.0 0.00089984
5730.0 0.00090402
5750.0 0.00089473
5770.0 0.00087884
5790.0 0.00088707
5810.0 0.00091294
5830.0 0.00093278
5850.0 0.00093841
5870.0 0.00091518
5890.0 0.00087859
5910.0 0.00084607
5930.0 0.00080357
5950.0 0.00076765
5970.0 0.00077189
5990.0 0.00079067
6010.0 0.0007903
6030.0 0.0007632
6050.0 0.00075827
6070.0 0.00078466
6090.0 0.00081152
6110.0 0.00080933
6130.0 0.00076894
6150.0 0.00071602
6170.0 0.00068672
6190.0 0.00067082
6210.0 0.00065679
6230.0 0.00064365
6250.0 0.00064321
6270.0 0.0006615
6290.0 0.00068799
6310.0 0.00071786
6330.0 0.00074933
6350.0 0.00076849
6370.0 0.00077078
6390.0 0.00076645
6410.0 0.00077258
6430.0 0.00078229
6450.0 0.00078192
6470.0 0.00078352
6490.0 0.00078809
6510.0 0.00078785
6530.0 0.00077829
6550.0 0.00075853
6570.0 0.00073437
6590.0 0.00071323
6610.0 0.0006967
6630.0 0.0006831
6650.0 0.0006609
6670.0 0.00063634
6690.0 0.00061736
6710.0 0.00060648
6730.0 0.0006004
6750.0 0.00059458
6770.0 0.00058669
6790.0 0.00057607
6810.0 0.00056576
6830.0 0.00056247
6850.0 0.00055957
6870.0 0.00055478
6890.0 0.00055396
6910.0 0.00054649
6930.0 0.00053736
6950.0 0.00053609
6970.0 0.00053135
6990.0 0.00052031
7010.0 0.00051181
7030.0 0.00050269
7050.0 0.0004931
7070.0 0.00048139
7090.0 0.00047113
7110.0 0.00047796
7130.0 0.00049153
7150.0 0.00050222
7170.0 0.00050872
7190.0 0.00050788
7210.0 0.00050138
7230.0 0.00049321
7250.0 0.00048811
7270.0 0.0004795
7290.0 0.00047239
7310.0 0.00046846
7330.0 0.00047333
7350.0 0.00047469
7370.0 0.00047317
7390.0 0.00046881
7410.0 0.00046155
7430.0 0.00045685
7450.0 0.00045207
7470.0 0.00043837
7490.0 0.0004237
7510.0 0.00040594
7530.0 0.00039166
7550.0 0.00038407
7570.0 0.00038924
7590.0 0.00038673
7610.0 0.00038245
7630.0 0.00037858
7650.0 0.00038048
7670.0 0.00038837
7690.0 0.00040418
7710.0 0.00041501
7730.0 0.00043048
7750.0 0.00044023
7770.0 0.00044815
7790.0 0.00044892
7810.0 0.00044031
7830.0 0.00044164
7850.0 0.00043753
7870.0 0.00042655
7890.0 0.00041216
7910.0 0.00039989
7930.0 0.00039066
7950.0 0.00038503
7970.0 0.0003852
7990.0 0.00038827
8010.0 0.00038719
8030.0 0.00038309
8050.0 0.00037604
8070.0 0.00036918
8090.0 0.00036161
8110.0 0.00036297
8130.0 0.00036616
8150.0 0.00036678
8170.0 0.00036371
8190.0 0.00035885
8210.0 0.00034477
8230.0 0.00032253
8250.0 0.00030883
8270.0 0.0003009
8290.0 0.00029707
8310.0 0.0002984
8330.0 0.00030513
8350.0 0.00029975
8370.0 0.00029323
8390.0 0.00029727
8410.0 0.0003066
8430.0 0.0003224
8450.0 0.00033688
8470.0 0.00034071
8490.0 0.00034384
8510.0 0.000342
8530.0 0.00033997
8550.0 0.00034254
8570.0 0.00034294
8590.0 0.00034188
8610.0 0.00035125
8630.0 0.00035388
8650.0 0.00034618
8670.0 0.00034548
8690.0 0.00034676
8710.0 0.00034197
8730.0 0.00033903
8750.0 0.00032866
8770.0 0.00032427
8790.0 0.00032076
8810.0 0.00031757
8830.0 0.00030369
8850.0 0.00028184
8870.0 0.00026494
8890.0 0.00025563
8910.0 0.00023997
8930.0 0.00022341
8950.0 0.0002175
8970.0 0.0002159
8990.0 0.00021612
9010.0 0.00021448
9030.0 0.00021294
9050.0 0.00021153
9070.0 0.00021016
9090.0 0.00020879
9110.0 0.00020743
9130.0 0.00020606
9150.0 0.0002047
9170.0 0.00020334
9190.0 0.00020198
9210.0 0.00020062
9230.0 0.00019927
9250.0 0.00019793
9270.0 0.00019658
9290.0 0.00019524
9310.0 0.00019391
9330.0 0.00019258
9350.0 0.00019125
9370.0 0.00018992
9390.0 0.00018861
9410.0 0.0001873
9430.0 0.00018598
9450.0 0.00018466
9470.0 0.00018338
9490.0 0.00018212
9510.0 0.00018083
9530.0 0.00017955
9550.0 0.00017827
9570.0 0.00017701
9590.0 0.00017575
9610.0 0.00017449
9630.0 0.00017325
9650.0 0.00017201
9670.0 0.00017078
9690.0 0.00016956
9710.0 0.00016834
9730.0 0.00016713
9750.0 0.00016593
9770.0 0.00016474
9790.0 0.00016355
9810.0 0.00016237
9830.0 0.00016116
9850.0 0.00015979
9870.0 0.00015867
9890.0 0.0001576
9910.0 0.0001565
9930.0 0.00015534
9950.0 0.00015425
9970.0 0.00015315
9990.0 0.00015203
10010.0 0.00015078
10030.0 0.00014963
10050.0 0.00014862
10070.0 0.00014759
10090.0 0.00014657
10110.0 0.00014548
10130.0 0.00014427
10150.0 0.00014325
10170.0 0.00014226
10190.0 0.00014122
10210.0 0.00014021
10230.0 0.0001392
10250.0 0.00013817
10270.0 0.00013714
10290.0 0.00013615
10310.0 0.00013513
10330.0 0.00013409
10350.0 0.0001331
10370.0 0.00013211
10390.0 0.0001311
10410.0 0.0001301
10430.0 0.00012915
10450.0 0.00012817
10470.0 0.00012718
10490.0 0.00012622
10510.0 0.00012527
10530.0 0.00012428
10550.0 0.00012331
10570.0 0.00012238
10590.0 0.00012143
10610.0 0.00012046
10630.0 0.00011954
10650.0 0.00011861
10670.0 0.00011765
10690.0 0.00011672
10710.0 0.00011581
10730.0 0.00011487
10750.0 0.00011392
10770.0 0.00011302
10790.0 0.00011211
10810.0 0.00011118
10830.0 0.00011026
10850.0 0.00010938
10870.0 0.00010845
10890.0 0.00010753
10910.0 0.00010666
10930.0 0.00010579
10950.0 0.0001049
10970.0 0.00010407
10990.0 0.00010328
11010.0 0.00010241
11030.0 0.00010172
11050.0 0.00010108
11070.0 0.00010044
11090.0 9.9774e-05
11110.0 9.9133e-05
11130.0 9.8493e-05
11150.0 9.7822e-05
11170.0 9.7138e-05
11190.0 9.6476e-05
11210.0 9.5794e-05
11230.0 9.5095e-05
11250.0 9.4422e-05
11270.0 9.3769e-05
11290.0 9.3105e-05
11310.0 9.2458e-05
11330.0 9.1866e-05
11350.0 9.1281e-05
11370.0 9.0707e-05
11390.0 9.0172e-05
11410.0 8.9663e-05
11430.0 8.9142e-05
11450.0 8.8642e-05
11470.0 8.8164e-05
11490.0 8.7676e-05
11510.0 8.717e-05
11530.0 8.6676e-05
11550.0 8.6173e-05
11570.0 8.5633e-05
11590.0 8.5079e-05
11610.0 8.4524e-05
11630.0 8.3927e-05
11650.0 8.3294e-05
11670.0 8.2673e-05
11690.0 8.2039e-05
11710.0 8.1375e-05
11730.0 8.0714e-05
11750.0 8.0081e-05
11770.0 7.9429e-05
11790.0 7.8779e-05
11810.0 7.8164e-05
11830.0 7.7566e-05
11850.0 7.6955e-05
11870.0 7.6385e-05
11890.0 7.5854e-05
11910.0 7.5329e-05
11930.0 7.4821e-05
11950.0 7.4358e-05
11970.0 7.3916e-05
11990.0 7.3482e-05
12010.0 7.3091e-05
12030.0 7.2737e-05
12050.0 7.2406e-05
12070.0 7.2105e-05
12090.0 7.186e-05
12110.0 7.1648e-05
12130.0 7.1471e-05
12150.0 7.1342e-05
12170.0 7.1257e-05
12190.0 7.1209e-05
12210.0 7.1207e-05
12230.0 7.1247e-05
12250.0 7.1325e-05
12270.0 7.1443e-05
12290.0 7.1593e-05
12310.0 7.1765e-05
12330.0 7.1968e-05
12350.0 7.2189e-05
12370.0 7.2414e-05
12390.0 7.2646e-05
12410.0 7.2886e-05
12430.0 7.3104e-05
12450.0 7.3302e-05
12470.0 7.3479e-05
12490.0 7.362e-05
12510.0 7.3718e-05
12530.0 7.3772e-05
12550.0 7.3771e-05
12570.0 7.3712e-05
12590.0 7.3594e-05
12610.0 7.3404e-05
12630.0 7.3144e-05
12650.0 7.2838e-05
12670.0 7.2462e-05
12690.0 7.2017e-05
12710.0 7.1536e-05
12730.0 7.1017e-05
12750.0 7.0425e-05
12770.0 6.9813e-05
12790.0 6.9198e-05
12810.0 6.855e-05
12830.0 6.7873e-05
12850.0 6.7224e-05
12870.0 6.658e-05
12890.0 6.5915e-05
12910.0 6.5267e-05
12930.0 6.4652e-05
12950.0 6.4022e-05
12970.0 6.3391e-05
12990.0 6.2805e-05
13010.0 6.2231e-05
13030.0 6.165e-05
13050.0 6.1093e-05
13070.0 6.0573e-05
13090.0 6.0048e-05
13110.0 5.9538e-05
13130.0 5.9067e-05
13150.0 5.8618e-05
13170.0 5.8169e-05
13190.0 5.7763e-05
13210.0 5.7396e-05
13230.0 5.7039e-05
13250.0 5.6704e-05
13270.0 5.6405e-05
13290.0 5.6119e-05
13310.0 5.5835e-05
13330.0 5.5573e-05
13350.0 5.5323e-05
13370.0 5.5068e-05
13390.0 5.4807e-05
13410.0 5.4559e-05
13430.0 5.4302e-05
13450.0 5.4027e-05
13470.0 5.3751e-05
13490.0 5.3474e-05
13510.0 5.3167e-05
13530.0 5.2853e-05
13550.0 5.2543e-05
13570.0 5.2218e-05
13590.0 5.1875e-05
13610.0 5.1535e-05
13630.0 5.1199e-05
13650.0 5.0841e-05
13670.0 5.048e-05
13690.0 5.0129e-05
13710.0 4.9768e-05
13730.0 4.9384e-05
13750.0 4.902e-05
13770.0 4.8656e-05
13790.0 4.8274e-05
13810.0 4.7891e-05
13830.0 4.752e-05
13850.0 4.7131e-05
13870.0 4.6726e-05
13890.0 4.6329e-05
13910.0 4.5928e-05
13930.0 4.5501e-05
13950.0 4.5067e-05
13970.0 4.4648e-05
13990.0 4.4206e-05
14010.0 4.3749e-05
14030.0 4.33e-05
14050.0 4.2851e-05
14070.0 4.2371e-05
14090.0 4.1904e-05
14110.0 4.1452e-05
14130.0 4.0994e-05
14150.0 4.0533e-05
14170.0 4.0105e-05
14190.0 3.969e-05
14210.0 3.9275e-05
14230.0 3.8883e-05
14250.0 3.8519e-05
14270.0 3.8155e-05
14290.0 3.78e-05
14310.0 3.7476e-05
14330.0 3.7162e-05
14350.0 3.6847e-05
14370.0 3.6546e-05
14390.0 3.6262e-05
14410.0 3.5972e-05
14430.0 3.5686e-05
14450.0 3.5416e-05
14470.0 3.5152e-05
14490.0 3.4882e-05
14510.0 3.463e-05
14530.0 3.4394e-05
14550.0 3.4159e-05
14570.0 3.3932e-05
14590.0 3.3724e-05
14610.0 3.3521e-05
14630.0 3.3319e-05
14650.0 3.3133e-05
14670.0 3.2957e-05
14690.0 3.2784e-05
14710.0 3.2617e-05
14730.0 3.2467e-05
14750.0 3.2322e-05
14770.0 3.2184e-05
14790.0 3.2061e-05
14810.0 3.1952e-05
14830.0 3.1851e-05
14850.0 3.1769e-05
14870.0 3.1705e-05
14890.0 3.1657e-05
14910.0 3.1624e-05
14930.0 3.1604e-05
14950.0 3.1594e-05
14970.0 3.1588e-05
14990.0 3.1582e-05
15010.0 3.1571e-05
15030.0 3.1552e-05
15050.0 3.1523e-05
15070.0 3.1486e-05
15090.0 3.1444e-05
15110.0 3.1395e-05
15130.0 3.1343e-05
15150.0 3.1291e-05
15170.0 3.1237e-05
15190.0 3.1181e-05
15210.0 3.1126e-05
15230.0 3.1071e-05
15250.0 3.1015e-05
15270.0 3.0958e-05
15290.0 3.0904e-05
15310.0 3.0849e-05
15330.0 3.0792e-05
15350.0 3.0737e-05
15370.0 3.0682e-05
15390.0 3.0625e-05
15410.0 3.0569e-05
15430.0 3.0515e-05
15450.0 3.0459e-05
15470.0 3.0402e-05
15490.0 3.0347e-05
15510.0 3.0293e-05
15530.0 3.0236e-05
15550.0 3.0181e-05
15570.0 3.0127e-05
15590.0 3.0071e-05
15610.0 3.0015e-05
15630.0 2.9961e-05
15650.0 2.9906e-05
15670.0 2.9851e-05
15690.0 2.9796e-05
15710.0 2.9743e-05
15730.0 2.9688e-05
15750.0 2.9633e-05
15770.0 2.958e-05
15790.0 2.9527e-05
15810.0 2.9472e-05
15830.0 2.9418e-05
15850.0 2.9366e-05
15870.0 2.9313e-05
15890.0 2.926e-05
15910.0 2.9208e-05
15930.0 2.9156e-05
15950.0 2.9103e-05
15970.0 2.9051e-05
15990.0 2.9e-05
16010.0 2.8948e-05
16030.0 2.8896e-05
16050.0 2.8847e-05
16070.0 2.8796e-05
16090.0 2.8745e-05
16110.0 2.8695e-05
16130.0 2.8647e-05
16150.0 2.8595e-05
16170.0 2.8545e-05
16190.0 2.8497e-05
16210.0 2.8449e-05
16230.0 2.8399e-05
16250.0 2.8351e-05
16270.0 2.8304e-05
16290.0 2.8256e-05
16310.0 2.8208e-05
16330.0 2.8162e-05
16350.0 2.8115e-05
16370.0 2.8066e-05
16390.0 2.8021e-05
16410.0 2.7975e-05
16430.0 2.7929e-05
16450.0 2.7883e-05
16470.0 2.7839e-05
16490.0 2.7794e-05
16510.0 2.7748e-05
16530.0 2.7704e-05
16550.0 2.766e-05
16570.0 2.7615e-05
16590.0 2.757e-05
16610.0 2.7528e-05
16630.0 2.7485e-05
16650.0 2.7441e-05
16670.0 2.7399e-05
16690.0 2.7357e-05
16710.0 2.7313e-05
16730.0 2.727e-05
16750.0 2.7229e-05
16770.0 2.7187e-05
16790.0 2.7144e-05
16810.0 2.7103e-05
16830.0 2.7063e-05
16850.0 2.702e-05
16870.0 2.6979e-05
16890.0 2.694e-05
16910.0 2.6898e-05
16930.0 2.6856e-05
16950.0 2.6817e-05
16970.0 2.6777e-05
16990.0 2.6736e-05
17010.0 2.6696e-05
17030.0 2.6657e-05
17050.0 2.6616e-05
17070.0 2.6575e-05
17090.0 2.6536e-05
17110.0 2.6497e-05
17130.0 2.6456e-05
17150.0 2.6416e-05
17170.0 2.6378e-05
17190.0 2.6337e-05
17210.0 2.6297e-05
17230.0 2.6259e-05
17250.0 2.6219e-05
17270.0 2.6178e-05
17290.0 2.6139e-05
17310.0 2.61e-05
17330.0 2.6059e-05
17350.0 2.6019e-05
17370.0 2.598e-05
17390.0 2.594e-05
17410.0 2.5899e-05
17430.0 2.586e-05
17450.0 2.5821e-05
17470.0 2.5779e-05
17490.0 2.5738e-05
17510.0 2.5698e-05
17530.0 2.5657e-05
17550.0 2.5615e-05
17570.0 2.5575e-05
17590.0 2.5534e-05
17610.0 2.5492e-05
17630.0 2.545e-05
17650.0 2.5409e-05
17670.0 2.5367e-05
17690.0 2.5323e-05
17710.0 2.5281e-05
17730.0 2.5239e-05
17750.0 2.5196e-05
17770.0 2.5152e-05
17790.0 2.511e-05
17810.0 2.5066e-05
17830.0 2.5021e-05
17850.0 2.4977e-05
17870.0 2.4933e-05
17890.0 2.4886e-05
17910.0 2.4841e-05
17930.0 2.4796e-05
17950.0 2.475e-05
17970.0 2.4703e-05
17990.0 2.4658e-05
18010.0 2.4611e-05
18030.0 2.4562e-05
18050.0 2.4515e-05
18070.0 2.4467e-05
18090.0 2.4419e-05
18110.0 2.4369e-05
18130.0 2.4321e-05
18150.0 2.4272e-05
18170.0 2.4221e-05
18190.0 2.417e-05
18210.0 2.4121e-05
18230.0 2.4069e-05
18250.0 2.4016e-05
18270.0 2.3965e-05
18290.0 2.3912e-05
18310.0 2.3859e-05
18330.0 2.3806e-05
18350.0 2.3753e-05
18370.0 2.3698e-05
18390.0 2.3643e-05
18410.0 2.3588e-05
18430.0 2.3533e-05
18450.0 2.3475e-05
18470.0 2.3419e-05
18490.0 2.3363e-05
18510.0 2.3306e-05
18530.0 2.3247e-05
18550.0 2.319e-05
18570.0 2.3131e-05
18590.0 2.3071e-05
18610.0 2.3012e-05
18630.0 2.2952e-05
18650.0 2.2891e-05
18670.0 2.2829e-05
18690.0 2.2769e-05
18710.0 2.2707e-05
18730.0 2.2644e-05
18750.0 2.2582e-05
18770.0 2.252e-05
18790.0 2.2454e-05
18810.0 2.239e-05
18830.0 2.2326e-05
18850.0 2.2261e-05
18870.0 2.2195e-05
18890.0 2.2129e-05
18910.0 2.2064e-05
18930.0 2.1996e-05
18950.0 2.1929e-05
18970.0 2.1862e-05
18990.0 2.1794e-05
19010.0 2.1724e-05
19030.0 2.1656e-05
19050.0 2.1588e-05
19070.0 2.1517e-05
19090.0 2.1447e-05
19110.0 2.1378e-05
19130.0 2.1307e-05
19150.0 2.1235e-05
19170.0 2.1164e-05
19190.0 2.1093e-05
19210.0 2.102e-05
19230.0 2.0947e-05
19250.0 2.0875e-05
19270.0 2.0802e-05
19290.0 2.0728e-05
19310.0 2.0655e-05
19330.0 2.0581e-05
19350.0 2.0506e-05
19370.0 2.0431e-05
19390.0 2.0357e-05
19410.0 2.0281e-05
19430.0 2.0205e-05
19450.0 2.013e-05
19470.0 2.0055e-05
19490.0 1.9978e-05
19510.0 1.9901e-05
19530.0 1.9826e-05
19550.0 1.9748e-05
19570.0 1.967e-05
19590.0 1.9593e-05
19610.0 1.9516e-05
19630.0 1.9438e-05
19650.0 1.936e-05
19670.0 1.9283e-05
19690.0 1.9205e-05
19710.0 1.9126e-05
19730.0 1.9048e-05
19750.0 1.897e-05
19770.0 1.889e-05
19790.0 1.8812e-05
19810.0 1.8734e-05
19830.0 1.8654e-05
19850.0 1.8574e-05
19870.0 1.8495e-05
19890.0 1.8412e-05
19910.0 1.8325e-05
19930.0 1.8233e-05
19950.0 1.8133e-05
19970.0 1.8019e-05
19990.0 1.7888e-05
20010.0 1.7744e-05
20030.0 1.7579e-05
20050.0 1.7393e-05
20070.0 1.7196e-05
20090.0 1.6989e-05
20110.0 1.6763e-05
20130.0 1.6537e-05
20150.0 1.6315e-05
20170.0 1.6089e-05
20190.0 1.5862e-05
20210.0 1.5647e-05
20230.0 1.5436e-05
20250.0 1.5225e-05
20270.0 1.5025e-05
20290.0 1.4837e-05
20310.0 1.4653e-05
20330.0 1.4474e-05
20350.0 1.4313e-05
20370.0 1.4159e-05
20390.0 1.4011e-05
20410.0 1.3873e-05
20430.0 1.3748e-05
20450.0 1.3626e-05
20470.0 1.3513e-05
20490.0 1.3411e-05
20510.0 1.3316e-05
20530.0 1.3226e-05
20550.0 1.3144e-05
20570.0 1.3071e-05
20590.0 1.3001e-05
20610.0 1.2938e-05
20630.0 1.288e-05
20650.0 1.2826e-05
20670.0 1.2776e-05
20690.0 1.2729e-05
20710.0 1.2686e-05
20730.0 1.2643e-05
20750.0 1.2602e-05
20770.0 1.2561e-05
20790.0 1.2519e-05
20810.0 1.2475e-05
20830.0 1.2429e-05
20850.0 1.238e-05
20870.0 1.2326e-05
20890.0 1.2268e-05
20910.0 1.2206e-05
20930.0 1.2139e-05
20950.0 1.2065e-05
20970.0 1.1987e-05
20990.0 1.1906e-05
21010.0 1.1816e-05
21030.0 1.1722e-05
21050.0 1.1627e-05
21070.0 1.1527e-05
21090.0 1.1421e-05
21110.0 1.1317e-05
21130.0 1.1212e-05
21150.0 1.1103e-05
21170.0 1.0995e-05
21190.0 1.089e-05
21210.0 1.0782e-05
21230.0 1.0673e-05
21250.0 1.057e-05
21270.0 1.0468e-05
21290.0 1.0366e-05
21310.0 1.0268e-05
21330.0 1.0176e-05
21350.0 1.0083e-05
21370.0 9.9925e-06
21390.0 9.9072e-06
21410.0 9.8249e-06
21430.0 9.7413e-06
21450.0 9.6626e-06
21470.0 9.588e-06
21490.0 9.5137e-06
21510.0 9.4403e-06
21530.0 9.3711e-06
21550.0 9.3028e-06
21570.0 9.2334e-06
21590.0 9.1663e-06
21610.0 9.1014e-06
21630.0 9.0354e-06
21650.0 8.9683e-06
21670.0 8.9055e-06
21690.0 8.842e-06
21710.0 8.7771e-06
21730.0 8.7136e-06
21750.0 8.652e-06
21770.0 8.5871e-06
21790.0 8.5226e-06
21810.0 8.46e-06
21830.0 8.3968e-06
21850.0 8.3314e-06
21870.0 8.2674e-06
21890.0 8.2051e-06
21910.0 8.1401e-06
21930.0 8.0748e-06
21950.0 8.0115e-06
21970.0 7.9472e-06
21990.0 7.8797e-06
22010.0 7.8153e-06
22030.0 7.7518e-06
22050.0 7.6865e-06
22070.0 7.6215e-06
22090.0 7.5599e-06
22110.0 7.4976e-06
22130.0 7.4346e-06
22150.0 7.3748e-06
22170.0 7.3172e-06
22190.0 7.2585e-06
22210.0 7.2019e-06
22230.0 7.1501e-06
22250.0 7.0991e-06
22270.0 7.0491e-06
22290.0 7.003e-06
22310.0 6.9597e-06
22330.0 6.9162e-06
22350.0 6.8758e-06
22370.0 6.8386e-06
22390.0 6.8024e-06
22410.0 6.7667e-06
22430.0 6.7347e-06
22450.0 6.7041e-06
22470.0 6.6735e-06
22490.0 6.6445e-06
22510.0 6.6177e-06
22530.0 6.5904e-06
22550.0 6.5633e-06
22570.0 6.5385e-06
22590.0 6.5144e-06
22610.0 6.49e-06
22630.0 6.4669e-06
22650.0 6.4459e-06
22670.0 6.4247e-06
22690.0 6.4043e-06
