#lamb flux
1010.0 6.7039e-11
1030.0 8.4238e-11
1050.0 1.0395e-10
1070.0 1.2607e-10
1090.0 1.5109e-10
1110.0 1.7662e-10
1130.0 2.0215e-10
1150.0 2.2874e-10
1170.0 2.5602e-10
1190.0 2.8169e-10
1210.0 3.0758e-10
1230.0 3.3424e-10
1250.0 3.6028e-10
1270.0 3.8552e-10
1290.0 4.1229e-10
1310.0 4.3914e-10
1330.0 4.6503e-10
1350.0 4.9146e-10
1370.0 5.1903e-10
1390.0 5.4623e-10
1410.0 5.7299e-10
1430.0 6.0129e-10
1450.0 6.2995e-10
1470.0 6.5802e-10
1490.0 6.8667e-10
1510.0 7.171e-10
1530.0 7.4624e-10
1550.0 7.7518e-10
1570.0 8.0515e-10
1590.0 8.3521e-10
1610.0 8.6405e-10
1630.0 8.9371e-10
1650.0 9.2405e-10
1670.0 9.5342e-10
1690.0 9.8237e-10
1710.0 1.0123e-09
1730.0 1.0423e-09
1750.0 1.0705e-09
1770.0 1.0995e-09
1790.0 1.1289e-09
1810.0 1.1574e-09
1830.0 1.1854e-09
1850.0 1.2145e-09
1870.0 1.2426e-09
1890.0 1.2699e-09
1910.0 1.2978e-09
1930.0 1.3265e-09
1950.0 1.3541e-09
1970.0 1.3814e-09
1990.0 1.4099e-09
2010.0 1.4381e-09
2030.0 1.4653e-09
2050.0 1.4935e-09
2070.0 1.5226e-09
2090.0 1.5503e-09
2110.0 1.578e-09
2130.0 1.6067e-09
2150.0 1.6351e-09
2170.0 1.6625e-09
2190.0 1.691e-09
2210.0 1.7197e-09
2230.0 1.747e-09
2250.0 1.7745e-09
2270.0 1.8033e-09
2290.0 1.8314e-09
2310.0 1.8587e-09
2330.0 1.887e-09
2350.0 1.9156e-09
2370.0 1.9434e-09
2390.0 1.9715e-09
2410.0 2.0011e-09
2430.0 2.0304e-09
2450.0 2.0602e-09
2470.0 2.0933e-09
2490.0 2.1321e-09
2510.0 2.1768e-09
2530.0 2.235e-09
2550.0 2.3158e-09
2570.0 2.4244e-09
2590.0 2.5682e-09
2610.0 2.7739e-09
2630.0 3.0465e-09
2650.0 3.3798e-09
2670.0 3.7912e-09
2690.0 4.2891e-09
2710.0 4.8346e-09
2730.0 5.4082e-09
2750.0 6.0287e-09
2770.0 6.6447e-09
2790.0 7.2175e-09
2810.0 7.756e-09
2830.0 8.2603e-09
2850.0 8.6846e-09
2870.0 9.0606e-09
2890.0 9.4111e-09
2910.0 9.7389e-09
2930.0 1.005e-08
2950.0 1.0371e-08
2970.0 1.0703e-08
2990.0 1.1044e-08
3010.0 1.1398e-08
3030.0 1.1777e-08
3050.0 1.2173e-08
3070.0 1.2576e-08
3090.0 1.3004e-08
3110.0 1.3458e-08
3130.0 1.3946e-08
3150.0 1.4502e-08
3170.0 1.5211e-08
3190.0 1.6132e-08
3210.0 1.7338e-08
3230.0 1.894e-08
3250.0 2.0969e-08
3270.0 2.2893e-08
3290.0 2.5958e-08
3310.0 3.2262e-08
3330.0 3.4353e-08
3350.0 3.5379e-08
3370.0 3.6365e-08
3390.0 3.7368e-08
3410.0 3.8383e-08
3430.0 3.9406e-08
3450.0 4.043e-08
3470.0 4.1435e-08
3490.0 4.2405e-08
3510.0 4.3291e-08
3530.0 4.2912e-08
3550.0 4.1725e-08
3570.0 4.2328e-08
3590.0 4.4972e-08
3610.0 4.9003e-08
3630.0 5.0575e-08
3650.0 4.8565e-08
3670.0 4.4618e-08
3690.0 4.2339e-08
3710.0 4.2891e-08
3730.0 4.4303e-08
3750.0 4.5059e-08
3770.0 4.6577e-08
3790.0 4.8272e-08
3810.0 4.7575e-08
3830.0 4.434e-08
3850.0 4.1455e-08
3870.0 4.0087e-08
3890.0 3.9617e-08
3910.0 3.8719e-08
3930.0 3.8271e-08
3950.0 3.9345e-08
3970.0 4.0603e-08
3990.0 4.0975e-08
4010.0 3.9462e-08
4030.0 3.7315e-08
4050.0 3.5937e-08
4070.0 3.4771e-08
4090.0 3.3823e-08
4110.0 3.2582e-08
4130.0 3.0631e-08
4150.0 2.8672e-08
4170.0 2.751e-08
4190.0 2.5648e-08
4210.0 2.322e-08
4230.0 2.0762e-08
4250.0 1.843e-08
4270.0 1.6692e-08
4290.0 1.54e-08
4310.0 1.4718e-08
4330.0 1.4694e-08
4350.0 1.4757e-08
4370.0 1.4898e-08
4390.0 1.5443e-08
4410.0 1.582e-08
4430.0 1.5265e-08
4450.0 1.3863e-08
4470.0 1.264e-08
4490.0 1.1972e-08
4510.0 1.1545e-08
4530.0 1.1332e-08
4550.0 1.1149e-08
4570.0 1.1103e-08
4590.0 1.1255e-08
4610.0 1.1606e-08
4630.0 1.1816e-08
4650.0 1.1921e-08
4670.0 1.1632e-08
4690.0 1.0942e-08
4710.0 1.0254e-08
4730.0 9.8103e-09
4750.0 9.5374e-09
4770.0 9.57e-09
4790.0 9.5328e-09
4810.0 9.3283e-09
4830.0 9.3443e-09
4850.0 9.6368e-09
4870.0 9.7321e-09
4890.0 9.5565e-09
4910.0 9.3373e-09
4930.0 8.8063e-09
4950.0 8.0366e-09
4970.0 7.5118e-09
4990.0 7.0813e-09
5010.0 6.9885e-09
5030.0 7.2241e-09
5050.0 7.4097e-09
5070.0 7.6864e-09
5090.0 8.1511e-09
5110.0 8.2757e-09
5130.0 8.3476e-09
5150.0 8.5022e-09
5170.0 8.5725e-09
5190.0 8.7975e-09
5210.0 8.8434e-09
5230.0 8.752e-09
5250.0 8.8235e-09
5270.0 8.9473e-09
5290.0 8.9718e-09
5310.0 8.9046e-09
5330.0 8.7357e-09
5350.0 8.6155e-09
5370.0 8.5241e-09
5390.0 8.4119e-09
5410.0 8.3182e-09
5430.0 8.3162e-09
5450.0 8.437e-09
5470.0 8.5937e-09
5490.0 8.8337e-09
5510.0 9.1015e-09
5530.0 9.2136e-09
5550.0 9.3521e-09
5570.0 9.3697e-09
5590.0 9.172e-09
5610.0 9.1052e-09
5630.0 9.1752e-09
5650.0 9.0636e-09
5670.0 8.8628e-09
5690.0 8.5959e-09
5710.0 8.5756e-09
5730.0 8.6649e-09
5750.0 8.2952e-09
5770.0 7.87e-09
5790.0 7.2311e-09
5810.0 6.3217e-09
5830.0 6.8174e-09
5850.0 7.553e-09
5870.0 7.7192e-09
5890.0 7.7608e-09
5910.0 7.8215e-09
5930.0 7.806e-09
5950.0 7.6755e-09
5970.0 7.5836e-09
5990.0 7.4726e-09
6010.0 7.2456e-09
6030.0 6.9963e-09
6050.0 6.8872e-09
6070.0 6.8585e-09
6090.0 6.7528e-09
6110.0 6.5267e-09
6130.0 6.3055e-09
6150.0 6.0519e-09
6170.0 5.7979e-09
6190.0 5.5416e-09
6210.0 5.3453e-09
6230.0 5.2664e-09
6250.0 5.1549e-09
6270.0 5.047e-09
6290.0 5.0063e-09
6310.0 4.9718e-09
6330.0 4.862e-09
6350.0 4.7041e-09
6370.0 4.6133e-09
6390.0 4.5244e-09
6410.0 4.3972e-09
6430.0 4.2789e-09
6450.0 4.1839e-09
6470.0 4.0936e-09
6490.0 4.0307e-09
6510.0 3.9629e-09
6530.0 3.8616e-09
6550.0 3.776e-09
6570.0 3.7188e-09
6590.0 3.7115e-09
6610.0 3.6879e-09
6630.0 3.5641e-09
6650.0 3.4643e-09
6670.0 3.4289e-09
6690.0 3.3753e-09
6710.0 3.2946e-09
6730.0 3.2659e-09
6750.0 3.2913e-09
6770.0 3.4886e-09
6790.0 3.9042e-09
6810.0 3.7063e-09
6830.0 3.2517e-09
6850.0 3.1243e-09
6870.0 3.0764e-09
6890.0 3.077e-09
6910.0 3.0836e-09
6930.0 3.0912e-09
6950.0 3.0807e-09
6970.0 3.0026e-09
6990.0 2.9755e-09
7010.0 3.02e-09
7030.0 3.0333e-09
7050.0 2.9893e-09
7070.0 2.9612e-09
7090.0 2.9823e-09
7110.0 3.0516e-09
7130.0 3.0616e-09
7150.0 3.0725e-09
7170.0 3.0889e-09
7190.0 3.1319e-09
7210.0 3.1649e-09
7230.0 3.1972e-09
7250.0 3.24e-09
7270.0 3.2702e-09
7290.0 3.321e-09
7310.0 3.3837e-09
7330.0 3.3579e-09
7350.0 3.2877e-09
7370.0 3.2416e-09
7390.0 3.2321e-09
7410.0 3.248e-09
7430.0 3.2881e-09
7450.0 3.3087e-09
7470.0 3.354e-09
7490.0 3.3344e-09
7510.0 3.2993e-09
7530.0 3.3371e-09
7550.0 3.4441e-09
7570.0 3.4352e-09
7590.0 3.2571e-09
7610.0 3.2279e-09
7630.0 3.4123e-09
7650.0 3.4795e-09
7670.0 3.5059e-09
7690.0 3.6612e-09
7710.0 3.78e-09
7730.0 3.8156e-09
7750.0 4.0153e-09
7770.0 3.9112e-09
7790.0 3.817e-09
7810.0 4.0459e-09
7830.0 4.1994e-09
7850.0 4.3072e-09
7870.0 4.39e-09
7890.0 4.4251e-09
7910.0 4.3925e-09
7930.0 4.4235e-09
7950.0 4.6225e-09
7970.0 4.6219e-09
7990.0 4.3047e-09
8010.0 4.1558e-09
8030.0 4.2367e-09
8050.0 4.3262e-09
8070.0 3.9161e-09
8090.0 2.5721e-09
8110.0 2.683e-09
8130.0 3.8212e-09
8150.0 4.1154e-09
8170.0 4.2792e-09
8190.0 4.3738e-09
8210.0 4.3167e-09
8230.0 4.6767e-09
8250.0 4.7774e-09
8270.0 4.521e-09
8290.0 4.344e-09
8310.0 4.279e-09
8330.0 4.5083e-09
8350.0 4.7214e-09
8370.0 4.634e-09
8390.0 4.4195e-09
8410.0 4.415e-09
8430.0 4.1373e-09
8450.0 4.2256e-09
8470.0 4.6178e-09
8490.0 4.6318e-09
8510.0 4.2947e-09
8530.0 4.028e-09
8550.0 3.8621e-09
8570.0 3.6384e-09
8590.0 3.7425e-09
8610.0 3.969e-09
8630.0 4.0767e-09
8650.0 4.147e-09
8670.0 4.0348e-09
8690.0 3.9406e-09
8710.0 3.6672e-09
8730.0 3.5348e-09
8750.0 3.677e-09
8770.0 3.7337e-09
8790.0 3.7249e-09
8810.0 3.7043e-09
8830.0 3.7818e-09
8850.0 3.9721e-09
8870.0 3.7094e-09
8890.0 3.4974e-09
8910.0 3.446e-09
8930.0 3.2422e-09
8950.0 3.1215e-09
8970.0 3.119e-09
8990.0 2.986e-09
9010.0 2.803e-09
9030.0 2.7395e-09
9050.0 2.7167e-09
9070.0 2.6965e-09
9090.0 2.6761e-09
9110.0 2.6556e-09
9130.0 2.635e-09
9150.0 2.6143e-09
9170.0 2.5935e-09
9190.0 2.5727e-09
9210.0 2.5519e-09
9230.0 2.531e-09
9250.0 2.5102e-09
9270.0 2.4894e-09
9290.0 2.4686e-09
9310.0 2.4478e-09
9330.0 2.4272e-09
9350.0 2.4066e-09
9370.0 2.3862e-09
9390.0 2.3658e-09
9410.0 2.3455e-09
9430.0 2.3253e-09
9450.0 2.3053e-09
9470.0 2.2854e-09
9490.0 2.2656e-09
9510.0 2.246e-09
9530.0 2.2265e-09
9550.0 2.2071e-09
9570.0 2.188e-09
9590.0 2.169e-09
9610.0 2.1502e-09
9630.0 2.1316e-09
9650.0 2.1132e-09
9670.0 2.095e-09
9690.0 2.0769e-09
9710.0 2.059e-09
9730.0 2.0414e-09
9750.0 2.0239e-09
9770.0 2.0066e-09
9790.0 1.9895e-09
9810.0 1.9726e-09
9830.0 1.9559e-09
9850.0 1.9394e-09
9870.0 1.923e-09
9890.0 1.9069e-09
9910.0 1.891e-09
9930.0 1.8753e-09
9950.0 1.8598e-09
9970.0 1.8444e-09
9990.0 1.8293e-09
10010.0 1.8144e-09
10030.0 1.7996e-09
10050.0 1.785e-09
10070.0 1.7706e-09
10090.0 1.7564e-09
10110.0 1.7424e-09
10130.0 1.7286e-09
10150.0 1.7149e-09
10170.0 1.7014e-09
10190.0 1.6881e-09
10210.0 1.675e-09
10230.0 1.662e-09
10250.0 1.6492e-09
10270.0 1.6366e-09
10290.0 1.6241e-09
10310.0 1.6118e-09
10330.0 1.5996e-09
10350.0 1.5876e-09
10370.0 1.5758e-09
10390.0 1.5639e-09
10410.0 1.55e-09
10430.0 1.5354e-09
10450.0 1.5268e-09
10470.0 1.5169e-09
10490.0 1.5068e-09
10510.0 1.4966e-09
10530.0 1.4859e-09
10550.0 1.4754e-09
10570.0 1.4652e-09
10590.0 1.4549e-09
10610.0 1.4445e-09
10630.0 1.4346e-09
10650.0 1.4247e-09
10670.0 1.4147e-09
10690.0 1.4049e-09
10710.0 1.3954e-09
10730.0 1.3858e-09
10750.0 1.3762e-09
10770.0 1.367e-09
10790.0 1.3579e-09
10810.0 1.3487e-09
10830.0 1.3396e-09
10850.0 1.3309e-09
10870.0 1.3219e-09
10890.0 1.313e-09
10910.0 1.3044e-09
10930.0 1.2957e-09
10950.0 1.2868e-09
10970.0 1.278e-09
10990.0 1.2694e-09
11010.0 1.2435e-09
11030.0 1.2344e-09
11050.0 1.2254e-09
11070.0 1.2163e-09
11090.0 1.2066e-09
11110.0 1.1973e-09
11130.0 1.1879e-09
11150.0 1.1782e-09
11170.0 1.1683e-09
11190.0 1.1588e-09
11210.0 1.149e-09
11230.0 1.139e-09
11250.0 1.1293e-09
11270.0 1.1199e-09
11290.0 1.1104e-09
11310.0 1.1011e-09
11330.0 1.0925e-09
11350.0 1.0842e-09
11370.0 1.076e-09
11390.0 1.0685e-09
11410.0 1.0614e-09
11430.0 1.0543e-09
11450.0 1.0476e-09
11470.0 1.0414e-09
11490.0 1.0352e-09
11510.0 1.0291e-09
11530.0 1.0232e-09
11550.0 1.0173e-09
11570.0 1.0113e-09
11590.0 1.0052e-09
11610.0 9.9915e-10
11630.0 9.9282e-10
11650.0 9.8621e-10
11670.0 9.7973e-10
11690.0 9.7313e-10
11710.0 9.662e-10
11730.0 9.5923e-10
11750.0 9.5245e-10
11770.0 9.4538e-10
11790.0 9.3821e-10
11810.0 9.3127e-10
11830.0 9.244e-10
11850.0 9.1728e-10
11870.0 9.1049e-10
11890.0 9.0407e-10
11910.0 8.9766e-10
11930.0 8.9143e-10
11950.0 8.8569e-10
11970.0 8.8018e-10
11990.0 8.7478e-10
12010.0 8.6984e-10
12030.0 8.6532e-10
12050.0 8.6101e-10
12070.0 8.5696e-10
12090.0 8.5344e-10
12110.0 8.5017e-10
12130.0 8.4708e-10
12150.0 8.4431e-10
12170.0 8.418e-10
12190.0 8.3931e-10
12210.0 8.3695e-10
12230.0 8.347e-10
12250.0 8.324e-10
12270.0 8.2994e-10
12290.0 8.2738e-10
12310.0 8.2469e-10
12330.0 8.2162e-10
12350.0 8.1823e-10
12370.0 8.1461e-10
12390.0 8.1058e-10
12410.0 8.0593e-10
12430.0 8.0113e-10
12450.0 7.9602e-10
12470.0 7.9038e-10
12490.0 7.8441e-10
12510.0 7.784e-10
12530.0 7.7196e-10
12550.0 7.6514e-10
12570.0 7.5834e-10
12590.0 7.5148e-10
12610.0 7.4423e-10
12630.0 7.3694e-10
12650.0 7.3002e-10
12670.0 7.2294e-10
12690.0 7.1581e-10
12710.0 7.0902e-10
12730.0 7.0246e-10
12750.0 6.9575e-10
12770.0 6.8942e-10
12790.0 6.8353e-10
12810.0 6.778e-10
12830.0 6.7223e-10
12850.0 6.6725e-10
12870.0 6.6261e-10
12890.0 6.5816e-10
12910.0 6.5414e-10
12930.0 6.5062e-10
12950.0 6.4735e-10
12970.0 6.4445e-10
12990.0 6.4208e-10
13010.0 6.4009e-10
13030.0 6.3843e-10
13050.0 6.3718e-10
13070.0 6.3629e-10
13090.0 6.3564e-10
13110.0 6.3524e-10
13130.0 6.3501e-10
13150.0 6.3487e-10
13170.0 6.3473e-10
13190.0 6.3453e-10
13210.0 6.3418e-10
13230.0 6.3361e-10
13250.0 6.3275e-10
13270.0 6.316e-10
13290.0 6.301e-10
13310.0 6.2814e-10
13330.0 6.2583e-10
13350.0 6.2319e-10
13370.0 6.2008e-10
13390.0 6.1653e-10
13410.0 6.1284e-10
13430.0 6.0878e-10
13450.0 6.0428e-10
13470.0 5.9962e-10
13490.0 5.9485e-10
13510.0 5.8953e-10
13530.0 5.8407e-10
13550.0 5.7864e-10
13570.0 5.7299e-10
13590.0 5.6704e-10
13610.0 5.6116e-10
13630.0 5.5537e-10
13650.0 5.4925e-10
13670.0 5.4312e-10
13690.0 5.3719e-10
13710.0 5.3116e-10
13730.0 5.2486e-10
13750.0 5.1897e-10
13770.0 5.132e-10
13790.0 5.0733e-10
13810.0 5.0161e-10
13830.0 4.9628e-10
13850.0 4.9091e-10
13870.0 4.856e-10
13890.0 4.8065e-10
13910.0 4.7591e-10
13930.0 4.7116e-10
13950.0 4.6662e-10
13970.0 4.6249e-10
13990.0 4.5839e-10
14010.0 4.5439e-10
14030.0 4.5069e-10
14050.0 4.4718e-10
14070.0 4.4363e-10
14090.0 4.4035e-10
14110.0 4.3732e-10
14130.0 4.3436e-10
14150.0 4.3148e-10
14170.0 4.2888e-10
14190.0 4.264e-10
14210.0 4.2394e-10
14230.0 4.2163e-10
14250.0 4.1947e-10
14270.0 4.1729e-10
14290.0 4.1515e-10
14310.0 4.1317e-10
14330.0 4.1122e-10
14350.0 4.0925e-10
14370.0 4.0735e-10
14390.0 4.0554e-10
14410.0 4.0369e-10
14430.0 4.0186e-10
14450.0 4.0011e-10
14470.0 3.9837e-10
14490.0 3.9657e-10
14510.0 3.9484e-10
14530.0 3.9317e-10
14550.0 3.9144e-10
14570.0 3.897e-10
14590.0 3.8802e-10
14610.0 3.863e-10
14630.0 3.845e-10
14650.0 3.8273e-10
14670.0 3.8098e-10
14690.0 3.7915e-10
14710.0 3.7727e-10
14730.0 3.7547e-10
14750.0 3.7361e-10
14770.0 3.7166e-10
14790.0 3.6974e-10
14810.0 3.6782e-10
14830.0 3.6575e-10
14850.0 3.6367e-10
14870.0 3.6165e-10
14890.0 3.5957e-10
14910.0 3.5744e-10
14930.0 3.5542e-10
14950.0 3.5352e-10
14970.0 3.5164e-10
14990.0 3.4993e-10
15010.0 3.4844e-10
15030.0 3.4708e-10
15050.0 3.4583e-10
15070.0 3.4478e-10
15090.0 3.4382e-10
15110.0 3.4289e-10
15130.0 3.42e-10
15150.0 3.4118e-10
15170.0 3.4033e-10
15190.0 3.3947e-10
15210.0 3.3864e-10
15230.0 3.3782e-10
15250.0 3.3696e-10
15270.0 3.3612e-10
15290.0 3.3531e-10
15310.0 3.3447e-10
15330.0 3.3362e-10
15350.0 3.328e-10
15370.0 3.3199e-10
15390.0 3.3112e-10
15410.0 3.3029e-10
15430.0 3.2947e-10
15450.0 3.2863e-10
15470.0 3.2778e-10
15490.0 3.2696e-10
15510.0 3.2614e-10
15530.0 3.2529e-10
15550.0 3.2446e-10
15570.0 3.2365e-10
15590.0 3.228e-10
15610.0 3.2195e-10
15630.0 3.2113e-10
15650.0 3.2031e-10
15670.0 3.1946e-10
15690.0 3.1863e-10
15710.0 3.1782e-10
15730.0 3.1698e-10
15750.0 3.1613e-10
15770.0 3.1532e-10
15790.0 3.1449e-10
15810.0 3.1363e-10
15830.0 3.128e-10
15850.0 3.1199e-10
15870.0 3.1115e-10
15890.0 3.1031e-10
15910.0 3.095e-10
15930.0 3.0868e-10
15950.0 3.0782e-10
15970.0 3.0699e-10
15990.0 3.0618e-10
16010.0 3.0534e-10
16030.0 3.0449e-10
16050.0 3.0368e-10
16070.0 3.0286e-10
16090.0 3.0201e-10
16110.0 3.0119e-10
16130.0 3.0038e-10
16150.0 2.9953e-10
16170.0 2.9869e-10
16190.0 2.9788e-10
16210.0 2.9705e-10
16230.0 2.962e-10
16250.0 2.9538e-10
16270.0 2.9457e-10
16290.0 2.9373e-10
16310.0 2.9289e-10
16330.0 2.9208e-10
16350.0 2.9126e-10
16370.0 2.9039e-10
16390.0 2.8958e-10
16410.0 2.8876e-10
16430.0 2.8792e-10
16450.0 2.8709e-10
16470.0 2.8629e-10
16490.0 2.8545e-10
16510.0 2.8461e-10
16530.0 2.8379e-10
16550.0 2.8297e-10
16570.0 2.8213e-10
16590.0 2.8129e-10
16610.0 2.8049e-10
16630.0 2.7966e-10
16650.0 2.7882e-10
16670.0 2.78e-10
16690.0 2.7719e-10
16710.0 2.7633e-10
16730.0 2.7551e-10
16750.0 2.747e-10
16770.0 2.7386e-10
16790.0 2.7302e-10
16810.0 2.7221e-10
16830.0 2.7139e-10
16850.0 2.7055e-10
16870.0 2.6973e-10
16890.0 2.6892e-10
16910.0 2.6808e-10
16930.0 2.6723e-10
16950.0 2.6642e-10
16970.0 2.656e-10
16990.0 2.6476e-10
17010.0 2.6393e-10
17030.0 2.6313e-10
17050.0 2.6229e-10
17070.0 2.6146e-10
17090.0 2.6064e-10
17110.0 2.5982e-10
17130.0 2.5897e-10
17150.0 2.5815e-10
17170.0 2.5734e-10
17190.0 2.5651e-10
17210.0 2.5567e-10
17230.0 2.5487e-10
17250.0 2.5404e-10
17270.0 2.5319e-10
17290.0 2.5237e-10
17310.0 2.5156e-10
17330.0 2.5072e-10
17350.0 2.4988e-10
17370.0 2.4908e-10
17390.0 2.4825e-10
17410.0 2.4741e-10
17430.0 2.466e-10
17450.0 2.4579e-10
17470.0 2.4494e-10
17490.0 2.441e-10
17510.0 2.4329e-10
17530.0 2.4247e-10
17550.0 2.4162e-10
17570.0 2.4081e-10
17590.0 2.4e-10
17610.0 2.3916e-10
17630.0 2.3833e-10
17650.0 2.3752e-10
17670.0 2.3669e-10
17690.0 2.3583e-10
17710.0 2.3502e-10
17730.0 2.3421e-10
17750.0 2.3337e-10
17770.0 2.3254e-10
17790.0 2.3174e-10
17810.0 2.3091e-10
17830.0 2.3006e-10
17850.0 2.2925e-10
17870.0 2.2843e-10
17890.0 2.2758e-10
17910.0 2.2675e-10
17930.0 2.2595e-10
17950.0 2.2512e-10
17970.0 2.2428e-10
17990.0 2.2347e-10
18010.0 2.2266e-10
18030.0 2.218e-10
18050.0 2.2097e-10
18070.0 2.2017e-10
18090.0 2.1933e-10
18110.0 2.1849e-10
18130.0 2.1768e-10
18150.0 2.1687e-10
18170.0 2.1602e-10
18190.0 2.152e-10
18210.0 2.1439e-10
18230.0 2.1355e-10
18250.0 2.127e-10
18270.0 2.1189e-10
18290.0 2.1107e-10
18310.0 2.1023e-10
18330.0 2.0941e-10
18350.0 2.0861e-10
18370.0 2.0776e-10
18390.0 2.0692e-10
18410.0 2.0611e-10
18430.0 2.0529e-10
18450.0 2.0443e-10
18470.0 2.0361e-10
18490.0 2.0281e-10
18510.0 2.0197e-10
18530.0 2.0114e-10
18550.0 2.0033e-10
18570.0 1.995e-10
18590.0 1.9865e-10
18610.0 1.9783e-10
18630.0 1.9702e-10
18650.0 1.9618e-10
18670.0 1.9533e-10
18690.0 1.9453e-10
18710.0 1.9371e-10
18730.0 1.9287e-10
18750.0 1.9205e-10
18770.0 1.9124e-10
18790.0 1.9038e-10
18810.0 1.8955e-10
18830.0 1.8874e-10
18850.0 1.8791e-10
18870.0 1.8706e-10
18890.0 1.8625e-10
18910.0 1.8544e-10
18930.0 1.846e-10
18950.0 1.8376e-10
18970.0 1.8296e-10
18990.0 1.8212e-10
19010.0 1.8126e-10
19030.0 1.8045e-10
19050.0 1.7964e-10
19070.0 1.788e-10
19090.0 1.7797e-10
19110.0 1.7717e-10
19130.0 1.7633e-10
19150.0 1.7548e-10
19170.0 1.7466e-10
19190.0 1.7385e-10
19210.0 1.7299e-10
19230.0 1.7216e-10
19250.0 1.7136e-10
19270.0 1.7052e-10
19290.0 1.6969e-10
19310.0 1.6887e-10
19330.0 1.6806e-10
19350.0 1.672e-10
19370.0 1.6637e-10
19390.0 1.6556e-10
19410.0 1.6472e-10
19430.0 1.6388e-10
19450.0 1.6307e-10
19470.0 1.6225e-10
19490.0 1.614e-10
19510.0 1.6058e-10
19530.0 1.5977e-10
19550.0 1.5892e-10
19570.0 1.5807e-10
19590.0 1.5727e-10
19610.0 1.5644e-10
19630.0 1.556e-10
19650.0 1.5478e-10
19670.0 1.5397e-10
19690.0 1.5312e-10
19710.0 1.5229e-10
19730.0 1.5147e-10
19750.0 1.5065e-10
19770.0 1.4979e-10
19790.0 1.4897e-10
19810.0 1.4816e-10
19830.0 1.4732e-10
19850.0 1.4649e-10
19870.0 1.4569e-10
19890.0 1.4487e-10
19910.0 1.4405e-10
19930.0 1.4329e-10
19950.0 1.4257e-10
19970.0 1.4188e-10
19990.0 1.4127e-10
20010.0 1.4077e-10
20030.0 1.4033e-10
20050.0 1.3996e-10
20070.0 1.3968e-10
20090.0 1.3945e-10
20110.0 1.3924e-10
20130.0 1.3907e-10
20150.0 1.3892e-10
20170.0 1.3877e-10
20190.0 1.3861e-10
20210.0 1.3845e-10
20230.0 1.3829e-10
20250.0 1.3812e-10
20270.0 1.3794e-10
20290.0 1.3775e-10
20310.0 1.3755e-10
20330.0 1.3733e-10
20350.0 1.3711e-10
20370.0 1.3688e-10
20390.0 1.3663e-10
20410.0 1.3637e-10
20430.0 1.3612e-10
20450.0 1.3584e-10
20470.0 1.3556e-10
20490.0 1.3529e-10
20510.0 1.3501e-10
20530.0 1.3472e-10
20550.0 1.3445e-10
20570.0 1.3419e-10
20590.0 1.3392e-10
20610.0 1.3366e-10
20630.0 1.3341e-10
20650.0 1.3317e-10
20670.0 1.3292e-10
20690.0 1.3268e-10
20710.0 1.3244e-10
20730.0 1.3219e-10
20750.0 1.3193e-10
20770.0 1.3167e-10
20790.0 1.314e-10
20810.0 1.3109e-10
20830.0 1.3078e-10
20850.0 1.3044e-10
20870.0 1.3007e-10
20890.0 1.2967e-10
20910.0 1.2927e-10
20930.0 1.2884e-10
20950.0 1.2838e-10
20970.0 1.2791e-10
20990.0 1.2744e-10
21010.0 1.2694e-10
21030.0 1.2643e-10
21050.0 1.2594e-10
21070.0 1.2543e-10
21090.0 1.2491e-10
21110.0 1.2442e-10
21130.0 1.2394e-10
21150.0 1.2344e-10
21170.0 1.2296e-10
21190.0 1.2249e-10
21210.0 1.2201e-10
21230.0 1.2153e-10
21250.0 1.2106e-10
21270.0 1.2059e-10
21290.0 1.201e-10
21310.0 1.1961e-10
21330.0 1.1913e-10
21350.0 1.1862e-10
21370.0 1.1809e-10
21390.0 1.1756e-10
21410.0 1.1703e-10
21430.0 1.1644e-10
21450.0 1.1586e-10
21470.0 1.1529e-10
21490.0 1.1468e-10
21510.0 1.1406e-10
21530.0 1.1345e-10
21550.0 1.1283e-10
21570.0 1.1217e-10
21590.0 1.1153e-10
21610.0 1.109e-10
21630.0 1.1024e-10
21650.0 1.0956e-10
21670.0 1.0893e-10
21690.0 1.0829e-10
21710.0 1.0763e-10
21730.0 1.0698e-10
21750.0 1.0636e-10
21770.0 1.0571e-10
21790.0 1.0505e-10
21810.0 1.0443e-10
21830.0 1.0379e-10
21850.0 1.0314e-10
21870.0 1.025e-10
21890.0 1.0189e-10
21910.0 1.0125e-10
21930.0 1.0061e-10
21950.0 9.9999e-11
21970.0 9.9384e-11
21990.0 9.8747e-11
22010.0 9.815e-11
22030.0 9.7573e-11
22050.0 9.6991e-11
22070.0 9.6427e-11
22090.0 9.5908e-11
22110.0 9.5395e-11
22130.0 9.4892e-11
22150.0 9.4426e-11
22170.0 9.3989e-11
22190.0 9.3555e-11
22210.0 9.3145e-11
22230.0 9.2776e-11
22250.0 9.2416e-11
22270.0 9.2065e-11
22290.0 9.1741e-11
22310.0 9.1432e-11
22330.0 9.1118e-11
22350.0 9.0817e-11
22370.0 9.053e-11
22390.0 9.0239e-11
22410.0 8.994e-11
22430.0 8.9655e-11
22450.0 8.9371e-11
22470.0 8.9072e-11
22490.0 8.8775e-11
22510.0 8.8484e-11
22530.0 8.8178e-11
22550.0 8.7865e-11
22570.0 8.7563e-11
22590.0 8.7261e-11
22610.0 8.6949e-11
22630.0 8.6644e-11
