#lamb flux
1010.0 6.4027e-07
1030.0 6.4027e-07
1050.0 6.4027e-07
1070.0 6.4027e-07
1090.0 6.4027e-07
1110.0 6.4027e-07
1130.0 6.4027e-07
1150.0 6.4027e-07
1170.0 6.4027e-07
1190.0 6.4027e-07
1210.0 6.4027e-07
1230.0 6.4027e-07
1250.0 6.4027e-07
1270.0 6.4027e-07
1290.0 6.4027e-07
1310.0 6.4027e-07
1330.0 6.4027e-07
1350.0 6.4027e-07
1370.0 6.4027e-07
1390.0 6.4027e-07
1410.0 6.4027e-07
1430.0 6.4027e-07
1450.0 6.4027e-07
1470.0 6.4027e-07
1490.0 6.4027e-07
1510.0 6.4027e-07
1530.0 6.4095e-07
1550.0 7.6038e-07
1570.0 8.917e-07
1590.0 1.0352e-06
1610.0 1.1894e-06
1630.0 1.3547e-06
1650.0 1.5369e-06
1670.0 1.735e-06
1690.0 1.9513e-06
1710.0 2.1905e-06
1730.0 2.4528e-06
1750.0 2.7354e-06
1770.0 3.0453e-06
1790.0 3.3835e-06
1810.0 3.7468e-06
1830.0 4.1361e-06
1850.0 4.5588e-06
1870.0 5.0065e-06
1890.0 5.4763e-06
1910.0 5.9718e-06
1930.0 6.4918e-06
1950.0 7.0235e-06
1970.0 7.5667e-06
1990.0 8.1241e-06
2010.0 8.683e-06
2030.0 9.2339e-06
2050.0 9.7819e-06
2070.0 1.0321e-05
2090.0 1.083e-05
2110.0 1.1314e-05
2130.0 1.1773e-05
2150.0 1.2194e-05
2170.0 1.2567e-05
2190.0 1.2907e-05
2210.0 1.3204e-05
2230.0 1.3447e-05
2250.0 1.3645e-05
2270.0 1.3806e-05
2290.0 1.3918e-05
2310.0 1.3979e-05
2330.0 1.4006e-05
2350.0 1.3999e-05
2370.0 1.3951e-05
2390.0 1.3877e-05
2410.0 1.3787e-05
2430.0 1.3671e-05
2450.0 1.3537e-05
2470.0 1.34e-05
2490.0 1.3266e-05
2510.0 1.3131e-05
2530.0 1.3033e-05
2550.0 1.3021e-05
2570.0 1.3138e-05
2590.0 1.3438e-05
2610.0 1.4066e-05
2630.0 1.5051e-05
2650.0 1.6331e-05
2670.0 1.795e-05
2690.0 1.989e-05
2710.0 2.192e-05
2730.0 2.3958e-05
2750.0 2.6121e-05
2770.0 2.8267e-05
2790.0 3.033e-05
2810.0 3.245e-05
2830.0 3.4744e-05
2850.0 3.6971e-05
2870.0 3.9256e-05
2890.0 4.1719e-05
2910.0 4.4279e-05
2930.0 4.6838e-05
2950.0 4.9602e-05
2970.0 5.255e-05
2990.0 5.5545e-05
3010.0 5.8653e-05
3030.0 6.1995e-05
3050.0 6.5454e-05
3070.0 6.8835e-05
3090.0 7.2281e-05
3110.0 7.561e-05
3130.0 7.8556e-05
3150.0 8.102e-05
3170.0 8.2886e-05
3190.0 8.398e-05
3210.0 8.4301e-05
3230.0 8.4177e-05
3250.0 8.4631e-05
3270.0 8.6303e-05
3290.0 8.9024e-05
3310.0 9.2582e-05
3330.0 9.6971e-05
3350.0 0.00010193
3370.0 0.00010744
3390.0 0.0001135
3410.0 0.00011949
3430.0 0.0001303
3450.0 0.00013849
3470.0 0.0001465
3490.0 0.00014956
3510.0 0.00014698
3530.0 0.00016459
3550.0 0.00019735
3570.0 0.00021697
3590.0 0.00022682
3610.0 0.00022901
3630.0 0.00022022
3650.0 0.00023782
3670.0 0.00028431
3690.0 0.00031987
3710.0 0.00033621
3730.0 0.00034782
3750.0 0.00036395
3770.0 0.00036307
3790.0 0.00034709
3810.0 0.0003261
3830.0 0.00030307
3850.0 0.00030114
3870.0 0.00032306
3890.0 0.00034558
3910.0 0.00036246
3930.0 0.00036982
3950.0 0.00039725
3970.0 0.00042476
3990.0 0.00040735
4010.0 0.00036178
4030.0 0.00031886
4050.0 0.00030502
4070.0 0.0003157
4090.0 0.00031841
4110.0 0.0003107
4130.0 0.0003059
4150.0 0.00031104
4170.0 0.00034155
4190.0 0.00037363
4210.0 0.00036633
4230.0 0.00034422
4250.0 0.00033325
4270.0 0.00032894
4290.0 0.00033836
4310.0 0.00035034
4330.0 0.0003337
4350.0 0.00029166
4370.0 0.00025686
4390.0 0.00023281
4410.0 0.00021246
4430.0 0.00021122
4450.0 0.00022923
4470.0 0.00024614
4490.0 0.00026849
4510.0 0.00030596
4530.0 0.00038115
4550.0 0.00047188
4570.0 0.00052606
4590.0 0.00056168
4610.0 0.00061033
4630.0 0.00064027
4650.0 0.00059761
4670.0 0.00049397
4690.0 0.00041114
4710.0 0.00038046
4730.0 0.0003694
4750.0 0.00033589
4770.0 0.00030825
4790.0 0.000322
4810.0 0.0003508
4830.0 0.00035216
4850.0 0.00032811
4870.0 0.00031745
4890.0 0.00033496
4910.0 0.00035439
4930.0 0.00035578
4950.0 0.00034416
4970.0 0.0003253
4990.0 0.00029676
5010.0 0.00027021
5030.0 0.00025451
5050.0 0.00024736
5070.0 0.00024208
5090.0 0.00023649
5110.0 0.00023556
5130.0 0.00023817
5150.0 0.00025096
5170.0 0.00027844
5190.0 0.00031195
5210.0 0.0003497
5230.0 0.00037385
5250.0 0.00038645
5270.0 0.00040825
5290.0 0.00043172
5310.0 0.00043981
5330.0 0.00042368
5350.0 0.00040263
5370.0 0.00040286
5390.0 0.00042979
5410.0 0.00045968
5430.0 0.00047531
5450.0 0.00047664
5470.0 0.0004642
5490.0 0.00044644
5510.0 0.00043636
5530.0 0.00043711
5550.0 0.00044316
5570.0 0.00044735
5590.0 0.00043588
5610.0 0.00041349
5630.0 0.00038779
5650.0 0.00036469
5670.0 0.00035099
5690.0 0.00033957
5710.0 0.00033156
5730.0 0.00033614
5750.0 0.00033532
5770.0 0.00032874
5790.0 0.00033142
5810.0 0.00033732
5830.0 0.00034376
5850.0 0.00034711
5870.0 0.00034101
5890.0 0.00032694
5910.0 0.00030906
5930.0 0.00028217
5950.0 0.00026199
5970.0 0.00025979
5990.0 0.00026942
6010.0 0.00027463
6030.0 0.0002652
6050.0 0.0002588
6070.0 0.00026871
6090.0 0.00028577
6110.0 0.00029458
6130.0 0.00028615
6150.0 0.00026965
6170.0 0.00025807
6190.0 0.00024644
6210.0 0.00023266
6230.0 0.00022061
6250.0 0.00021583
6270.0 0.00022132
6290.0 0.00023116
6310.0 0.00024487
6330.0 0.00026182
6350.0 0.00027805
6370.0 0.00028648
6390.0 0.00028804
6410.0 0.00029072
6430.0 0.00029373
6450.0 0.00029568
6470.0 0.00030065
6490.0 0.00030626
6510.0 0.00030902
6530.0 0.00030716
6550.0 0.00029997
6570.0 0.00028903
6590.0 0.00027828
6610.0 0.00027059
6630.0 0.00026516
6650.0 0.00025645
6670.0 0.00024522
6690.0 0.0002363
6710.0 0.00023117
6730.0 0.00022944
6750.0 0.0002263
6770.0 0.00022161
6790.0 0.00021809
6810.0 0.00021466
6830.0 0.00021331
6850.0 0.0002152
6870.0 0.00021535
6890.0 0.00021355
6910.0 0.00020877
6930.0 0.00020391
6950.0 0.00020152
6970.0 0.0001964
6990.0 0.00018944
7010.0 0.00018643
7030.0 0.00018453
7050.0 0.00017986
7070.0 0.00017359
7090.0 0.00017014
7110.0 0.00017287
7130.0 0.00018154
7150.0 0.00019135
7170.0 0.00019766
7190.0 0.00019595
7210.0 0.00019015
7230.0 0.00018656
7250.0 0.00018484
7270.0 0.00018396
7290.0 0.00018205
7310.0 0.00018205
7330.0 0.0001863
7350.0 0.00019178
7370.0 0.00019504
7390.0 0.00019363
7410.0 0.00018878
7430.0 0.00018485
7450.0 0.00018069
7470.0 0.00017154
7490.0 0.00016537
7510.0 0.00015924
7530.0 0.00015492
7550.0 0.00015515
7570.0 0.00015681
7590.0 0.00015669
7610.0 0.00015538
7630.0 0.00015455
7650.0 0.00015431
7670.0 0.0001574
7690.0 0.0001624
7710.0 0.00016876
7730.0 0.00017325
7750.0 0.00017831
7770.0 0.00018112
7790.0 0.00018153
7810.0 0.00017997
7830.0 0.00018098
7850.0 0.0001794
7870.0 0.00017235
7890.0 0.00016504
7910.0 0.00015957
7930.0 0.0001546
7950.0 0.00015062
7970.0 0.00014933
7990.0 0.0001507
8010.0 0.00014696
8030.0 0.00014512
8050.0 0.00014268
8070.0 0.00013988
8090.0 0.00013701
8110.0 0.00013688
8130.0 0.00013763
8150.0 0.00013706
8170.0 0.0001359
8190.0 0.00013253
8210.0 0.00012511
8230.0 0.00011651
8250.0 0.0001113
8270.0 0.0001077
8290.0 0.0001048
8310.0 0.00010421
8330.0 0.00010496
8350.0 0.00010238
8370.0 0.00010021
8390.0 0.00010248
8410.0 0.0001077
8430.0 0.00011493
8450.0 0.00012218
8470.0 0.00012563
8490.0 0.00012844
8510.0 0.00012985
8530.0 0.00013134
8550.0 0.00013323
8570.0 0.00013425
8590.0 0.00013523
8610.0 0.00013874
8630.0 0.00014012
8650.0 0.00013711
8670.0 0.00013696
8690.0 0.00013836
8710.0 0.00013904
8730.0 0.00013802
8750.0 0.00013423
8770.0 0.00013251
8790.0 0.00013156
8810.0 0.00012959
8830.0 0.00012152
8850.0 0.00011122
8870.0 0.00010378
8890.0 9.9706e-05
8910.0 9.3966e-05
8930.0 8.7335e-05
8950.0 8.348e-05
8970.0 8.2863e-05
8990.0 8.3399e-05
9010.0 8.3116e-05
9030.0 8.2525e-05
9050.0 8.1974e-05
9070.0 8.1486e-05
9090.0 8.1009e-05
9110.0 8.0535e-05
9130.0 8.0063e-05
9150.0 7.9593e-05
9170.0 7.9125e-05
9190.0 7.8658e-05
9210.0 7.819e-05
9230.0 7.7731e-05
9250.0 7.7274e-05
9270.0 7.6817e-05
9290.0 7.6363e-05
9310.0 7.5911e-05
9330.0 7.5461e-05
9350.0 7.5015e-05
9370.0 7.4569e-05
9390.0 7.4127e-05
9410.0 7.3685e-05
9430.0 7.3242e-05
9450.0 7.2779e-05
9470.0 7.2327e-05
9490.0 7.1922e-05
9510.0 7.1504e-05
9530.0 7.1088e-05
9550.0 7.0667e-05
9570.0 7.0247e-05
9590.0 6.983e-05
9610.0 6.9415e-05
9630.0 6.8999e-05
9650.0 6.8586e-05
9670.0 6.8179e-05
9690.0 6.777e-05
9710.0 6.7364e-05
9730.0 6.6962e-05
9750.0 6.6561e-05
9770.0 6.6158e-05
9790.0 6.576e-05
9810.0 6.5366e-05
9830.0 6.4965e-05
9850.0 6.4529e-05
9870.0 6.415e-05
9890.0 6.3776e-05
9910.0 6.3397e-05
9930.0 6.3013e-05
9950.0 6.264e-05
9970.0 6.2256e-05
9990.0 6.1866e-05
10010.0 6.1433e-05
10030.0 6.1033e-05
10050.0 6.0682e-05
10070.0 6.0326e-05
10090.0 5.9968e-05
10110.0 5.9578e-05
10130.0 5.9089e-05
10150.0 5.8738e-05
10170.0 5.8409e-05
10190.0 5.8052e-05
10210.0 5.7702e-05
10230.0 5.735e-05
10250.0 5.6976e-05
10270.0 5.6603e-05
10290.0 5.6244e-05
10310.0 5.5869e-05
10330.0 5.5482e-05
10350.0 5.5113e-05
10370.0 5.4746e-05
10390.0 5.4364e-05
10410.0 5.3984e-05
10430.0 5.3623e-05
10450.0 5.3246e-05
10470.0 5.2861e-05
10490.0 5.249e-05
10510.0 5.212e-05
10530.0 5.1725e-05
10550.0 5.1341e-05
10570.0 5.0971e-05
10590.0 5.0588e-05
10610.0 5.0196e-05
10630.0 4.9821e-05
10650.0 4.9442e-05
10670.0 4.9043e-05
10690.0 4.8653e-05
10710.0 4.8272e-05
10730.0 4.7877e-05
10750.0 4.7468e-05
10770.0 4.7085e-05
10790.0 4.6694e-05
10810.0 4.6288e-05
10830.0 4.5889e-05
10850.0 4.5503e-05
10870.0 4.509e-05
10890.0 4.4678e-05
10910.0 4.4284e-05
10930.0 4.3887e-05
10950.0 4.3479e-05
10970.0 4.3086e-05
10990.0 4.2716e-05
11010.0 4.2705e-05
11030.0 4.2343e-05
11050.0 4.2001e-05
11070.0 4.1659e-05
11090.0 4.1302e-05
11110.0 4.0966e-05
11130.0 4.0638e-05
11150.0 4.0304e-05
11170.0 3.9978e-05
11190.0 3.9677e-05
11210.0 3.9381e-05
11230.0 3.9092e-05
11250.0 3.8828e-05
11270.0 3.8584e-05
11290.0 3.8348e-05
11310.0 3.8129e-05
11330.0 3.7936e-05
11350.0 3.7752e-05
11370.0 3.7575e-05
11390.0 3.7412e-05
11410.0 3.7256e-05
11430.0 3.7096e-05
11450.0 3.6938e-05
11470.0 3.6781e-05
11490.0 3.6614e-05
11510.0 3.6434e-05
11530.0 3.6249e-05
11550.0 3.6053e-05
11570.0 3.5834e-05
11590.0 3.56e-05
11610.0 3.5355e-05
11630.0 3.5084e-05
11650.0 3.4787e-05
11670.0 3.4484e-05
11690.0 3.4163e-05
11710.0 3.3814e-05
11730.0 3.3451e-05
11750.0 3.3088e-05
11770.0 3.27e-05
11790.0 3.2294e-05
11810.0 3.1891e-05
11830.0 3.1482e-05
11850.0 3.1046e-05
11870.0 3.0619e-05
11890.0 3.0205e-05
11910.0 2.9779e-05
11930.0 2.9353e-05
11950.0 2.8949e-05
11970.0 2.8549e-05
11990.0 2.8144e-05
12010.0 2.7761e-05
12030.0 2.7399e-05
12050.0 2.7041e-05
12070.0 2.6692e-05
12090.0 2.6377e-05
12110.0 2.6074e-05
12130.0 2.5782e-05
12150.0 2.5513e-05
12170.0 2.527e-05
12190.0 2.5035e-05
12210.0 2.4826e-05
12230.0 2.4645e-05
12250.0 2.4485e-05
12270.0 2.4348e-05
12290.0 2.4237e-05
12310.0 2.4151e-05
12330.0 2.4085e-05
12350.0 2.4041e-05
12370.0 2.4015e-05
12390.0 2.4004e-05
12410.0 2.401e-05
12430.0 2.4023e-05
12450.0 2.4041e-05
12470.0 2.4065e-05
12490.0 2.4089e-05
12510.0 2.4108e-05
12530.0 2.4123e-05
12550.0 2.413e-05
12570.0 2.4125e-05
12590.0 2.4106e-05
12610.0 2.4072e-05
12630.0 2.4019e-05
12650.0 2.3947e-05
12670.0 2.3855e-05
12690.0 2.374e-05
12710.0 2.3607e-05
12730.0 2.3456e-05
12750.0 2.3279e-05
12770.0 2.3087e-05
12790.0 2.2883e-05
12810.0 2.2663e-05
12830.0 2.2427e-05
12850.0 2.2192e-05
12870.0 2.1952e-05
12890.0 2.1702e-05
12910.0 2.1453e-05
12930.0 2.1211e-05
12950.0 2.0964e-05
12970.0 2.0715e-05
12990.0 2.048e-05
13010.0 2.0249e-05
13030.0 2.0017e-05
13050.0 1.9793e-05
13070.0 1.9581e-05
13090.0 1.9368e-05
13110.0 1.9159e-05
13130.0 1.8963e-05
13150.0 1.8773e-05
13170.0 1.8583e-05
13190.0 1.8406e-05
13210.0 1.8242e-05
13230.0 1.8081e-05
13250.0 1.7929e-05
13270.0 1.7788e-05
13290.0 1.7654e-05
13310.0 1.7522e-05
13330.0 1.7399e-05
13350.0 1.7282e-05
13370.0 1.7166e-05
13390.0 1.7049e-05
13410.0 1.6938e-05
13430.0 1.6825e-05
13450.0 1.6708e-05
13470.0 1.659e-05
13490.0 1.6471e-05
13510.0 1.6342e-05
13530.0 1.6211e-05
13550.0 1.6079e-05
13570.0 1.5943e-05
13590.0 1.58e-05
13610.0 1.5657e-05
13630.0 1.5516e-05
13650.0 1.5367e-05
13670.0 1.5218e-05
13690.0 1.5073e-05
13710.0 1.4926e-05
13730.0 1.4773e-05
13750.0 1.4628e-05
13770.0 1.4484e-05
13790.0 1.4337e-05
13810.0 1.4191e-05
13830.0 1.4051e-05
13850.0 1.3908e-05
13870.0 1.3763e-05
13890.0 1.3624e-05
13910.0 1.3487e-05
13930.0 1.3347e-05
13950.0 1.3209e-05
13970.0 1.308e-05
13990.0 1.295e-05
14010.0 1.2819e-05
14030.0 1.2695e-05
14050.0 1.2573e-05
14070.0 1.2447e-05
14090.0 1.2327e-05
14110.0 1.2212e-05
14130.0 1.2096e-05
14150.0 1.198e-05
14170.0 1.1872e-05
14190.0 1.1766e-05
14210.0 1.166e-05
14230.0 1.156e-05
14250.0 1.1466e-05
14270.0 1.1373e-05
14290.0 1.1282e-05
14310.0 1.1201e-05
14330.0 1.1124e-05
14350.0 1.1049e-05
14370.0 1.098e-05
14390.0 1.0917e-05
14410.0 1.0855e-05
14430.0 1.0796e-05
14450.0 1.0743e-05
14470.0 1.0692e-05
14490.0 1.064e-05
14510.0 1.0593e-05
14530.0 1.0548e-05
14550.0 1.0502e-05
14570.0 1.0456e-05
14590.0 1.0413e-05
14610.0 1.0369e-05
14630.0 1.0322e-05
14650.0 1.0277e-05
14670.0 1.0234e-05
14690.0 1.0189e-05
14710.0 1.0146e-05
14730.0 1.0109e-05
14750.0 1.0075e-05
14770.0 1.0047e-05
14790.0 1.0029e-05
14810.0 1.0022e-05
14830.0 1.0026e-05
14850.0 1.0045e-05
14870.0 1.0079e-05
14890.0 1.0127e-05
14910.0 1.019e-05
14930.0 1.0262e-05
14950.0 1.0338e-05
14970.0 1.0417e-05
14990.0 1.0491e-05
15010.0 1.0554e-05
15030.0 1.0607e-05
15050.0 1.0649e-05
15070.0 1.0679e-05
15090.0 1.0702e-05
15110.0 1.0719e-05
15130.0 1.0733e-05
15150.0 1.0745e-05
15170.0 1.0756e-05
15190.0 1.0767e-05
15210.0 1.0779e-05
15230.0 1.079e-05
15250.0 1.0802e-05
15270.0 1.0814e-05
15290.0 1.0828e-05
15310.0 1.0841e-05
15330.0 1.0854e-05
15350.0 1.0868e-05
15370.0 1.0883e-05
15390.0 1.0897e-05
15410.0 1.0912e-05
15430.0 1.0928e-05
15450.0 1.0944e-05
15470.0 1.0959e-05
15490.0 1.0976e-05
15510.0 1.0993e-05
15530.0 1.101e-05
15550.0 1.1027e-05
15570.0 1.1045e-05
15590.0 1.1063e-05
15610.0 1.1081e-05
15630.0 1.11e-05
15650.0 1.1119e-05
15670.0 1.1138e-05
15690.0 1.1158e-05
15710.0 1.1178e-05
15730.0 1.1198e-05
15750.0 1.1218e-05
15770.0 1.1239e-05
15790.0 1.126e-05
15810.0 1.1281e-05
15830.0 1.1302e-05
15850.0 1.1324e-05
15870.0 1.1345e-05
15890.0 1.1367e-05
15910.0 1.139e-05
15930.0 1.1412e-05
15950.0 1.1435e-05
15970.0 1.1457e-05
15990.0 1.1481e-05
16010.0 1.1504e-05
16030.0 1.1527e-05
16050.0 1.1551e-05
16070.0 1.1574e-05
16090.0 1.1598e-05
16110.0 1.1622e-05
16130.0 1.1646e-05
16150.0 1.167e-05
16170.0 1.1694e-05
16190.0 1.1719e-05
16210.0 1.1744e-05
16230.0 1.1768e-05
16250.0 1.1793e-05
16270.0 1.1818e-05
16290.0 1.1843e-05
16310.0 1.1868e-05
16330.0 1.1893e-05
16350.0 1.1918e-05
16370.0 1.1943e-05
16390.0 1.1968e-05
16410.0 1.1993e-05
16430.0 1.2018e-05
16450.0 1.2043e-05
16470.0 1.2069e-05
16490.0 1.2094e-05
16510.0 1.2119e-05
16530.0 1.2144e-05
16550.0 1.2169e-05
16570.0 1.2194e-05
16590.0 1.2219e-05
16610.0 1.2244e-05
16630.0 1.2269e-05
16650.0 1.2293e-05
16670.0 1.2318e-05
16690.0 1.2343e-05
16710.0 1.2367e-05
16730.0 1.2391e-05
16750.0 1.2415e-05
16770.0 1.2439e-05
16790.0 1.2463e-05
16810.0 1.2487e-05
16830.0 1.2511e-05
16850.0 1.2534e-05
16870.0 1.2557e-05
16890.0 1.2581e-05
16910.0 1.2603e-05
16930.0 1.2625e-05
16950.0 1.2648e-05
16970.0 1.267e-05
16990.0 1.2692e-05
17010.0 1.2714e-05
17030.0 1.2736e-05
17050.0 1.2757e-05
17070.0 1.2777e-05
17090.0 1.2798e-05
17110.0 1.2819e-05
17130.0 1.2838e-05
17150.0 1.2858e-05
17170.0 1.2878e-05
17190.0 1.2897e-05
17210.0 1.2915e-05
17230.0 1.2934e-05
17250.0 1.2952e-05
17270.0 1.297e-05
17290.0 1.2987e-05
17310.0 1.3004e-05
17330.0 1.302e-05
17350.0 1.3036e-05
17370.0 1.3052e-05
17390.0 1.3068e-05
17410.0 1.3082e-05
17430.0 1.3097e-05
17450.0 1.3111e-05
17470.0 1.3125e-05
17490.0 1.3138e-05
17510.0 1.315e-05
17530.0 1.3163e-05
17550.0 1.3174e-05
17570.0 1.3185e-05
17590.0 1.3196e-05
17610.0 1.3206e-05
17630.0 1.3216e-05
17650.0 1.3226e-05
17670.0 1.3234e-05
17690.0 1.3242e-05
17710.0 1.325e-05
17730.0 1.3257e-05
17750.0 1.3263e-05
17770.0 1.3269e-05
17790.0 1.3275e-05
17810.0 1.3279e-05
17830.0 1.3283e-05
17850.0 1.3287e-05
17870.0 1.329e-05
17890.0 1.3292e-05
17910.0 1.3294e-05
17930.0 1.3296e-05
17950.0 1.3296e-05
17970.0 1.3296e-05
17990.0 1.3296e-05
18010.0 1.3295e-05
18030.0 1.3292e-05
18050.0 1.329e-05
18070.0 1.3287e-05
18090.0 1.3283e-05
18110.0 1.3278e-05
18130.0 1.3273e-05
18150.0 1.3267e-05
18170.0 1.3261e-05
18190.0 1.3254e-05
18210.0 1.3246e-05
18230.0 1.3237e-05
18250.0 1.3228e-05
18270.0 1.3218e-05
18290.0 1.3208e-05
18310.0 1.3196e-05
18330.0 1.3185e-05
18350.0 1.3172e-05
18370.0 1.3159e-05
18390.0 1.3145e-05
18410.0 1.313e-05
18430.0 1.3115e-05
18450.0 1.3099e-05
18470.0 1.3082e-05
18490.0 1.3065e-05
18510.0 1.3047e-05
18530.0 1.3028e-05
18550.0 1.3009e-05
18570.0 1.2989e-05
18590.0 1.2967e-05
18610.0 1.2946e-05
18630.0 1.2924e-05
18650.0 1.2901e-05
18670.0 1.2877e-05
18690.0 1.2853e-05
18710.0 1.2828e-05
18730.0 1.2802e-05
18750.0 1.2776e-05
18770.0 1.2749e-05
18790.0 1.2721e-05
18810.0 1.2693e-05
18830.0 1.2664e-05
18850.0 1.2634e-05
18870.0 1.2604e-05
18890.0 1.2573e-05
18910.0 1.2541e-05
18930.0 1.2509e-05
18950.0 1.2476e-05
18970.0 1.2443e-05
18990.0 1.2408e-05
19010.0 1.2373e-05
19030.0 1.2338e-05
19050.0 1.2302e-05
19070.0 1.2265e-05
19090.0 1.2227e-05
19110.0 1.219e-05
19130.0 1.2151e-05
19150.0 1.2112e-05
19170.0 1.2072e-05
19190.0 1.2032e-05
19210.0 1.1991e-05
19230.0 1.195e-05
19250.0 1.1908e-05
19270.0 1.1865e-05
19290.0 1.1822e-05
19310.0 1.1779e-05
19330.0 1.1735e-05
19350.0 1.169e-05
19370.0 1.1645e-05
19390.0 1.1599e-05
19410.0 1.1553e-05
19430.0 1.1506e-05
19450.0 1.1459e-05
19470.0 1.1412e-05
19490.0 1.1363e-05
19510.0 1.1315e-05
19530.0 1.1266e-05
19550.0 1.1216e-05
19570.0 1.1166e-05
19590.0 1.1116e-05
19610.0 1.1065e-05
19630.0 1.1014e-05
19650.0 1.0963e-05
19670.0 1.0911e-05
19690.0 1.0858e-05
19710.0 1.0806e-05
19730.0 1.0753e-05
19750.0 1.0699e-05
19770.0 1.0645e-05
19790.0 1.0591e-05
19810.0 1.0537e-05
19830.0 1.0482e-05
19850.0 1.0426e-05
19870.0 1.037e-05
19890.0 1.0312e-05
19910.0 1.025e-05
19930.0 1.0184e-05
19950.0 1.0112e-05
19970.0 1.003e-05
19990.0 9.935e-06
20010.0 9.8303e-06
20030.0 9.7106e-06
20050.0 9.5765e-06
20070.0 9.4346e-06
20090.0 9.286e-06
20110.0 9.1251e-06
20130.0 8.9645e-06
20150.0 8.8068e-06
20170.0 8.6465e-06
20190.0 8.486e-06
20210.0 8.3327e-06
20230.0 8.1824e-06
20250.0 8.0314e-06
20270.0 7.8872e-06
20290.0 7.7501e-06
20310.0 7.6154e-06
20330.0 7.4833e-06
20350.0 7.3629e-06
20370.0 7.2471e-06
20390.0 7.135e-06
20410.0 7.0305e-06
20430.0 6.9338e-06
20450.0 6.84e-06
20470.0 6.7525e-06
20490.0 6.6724e-06
20510.0 6.5973e-06
20530.0 6.5265e-06
20550.0 6.4615e-06
20570.0 6.4019e-06
20590.0 6.3456e-06
20610.0 6.2933e-06
20630.0 6.2448e-06
20650.0 6.1992e-06
20670.0 6.1559e-06
20690.0 6.1149e-06
20710.0 6.0755e-06
20730.0 6.0371e-06
20750.0 5.9994e-06
20770.0 5.9617e-06
20790.0 5.9237e-06
20810.0 5.8848e-06
20830.0 5.8448e-06
20850.0 5.8032e-06
20870.0 5.7596e-06
20890.0 5.7137e-06
20910.0 5.6657e-06
20930.0 5.6151e-06
20950.0 5.5616e-06
20970.0 5.5058e-06
20990.0 5.4479e-06
21010.0 5.3864e-06
21030.0 5.3228e-06
21050.0 5.2579e-06
21070.0 5.1905e-06
21090.0 5.1203e-06
21110.0 5.0502e-06
21130.0 4.9794e-06
21150.0 4.9065e-06
21170.0 4.8335e-06
21190.0 4.7615e-06
21210.0 4.6883e-06
21230.0 4.6145e-06
21250.0 4.5429e-06
21270.0 4.4723e-06
21290.0 4.4014e-06
21310.0 4.3321e-06
21330.0 4.2657e-06
21350.0 4.1995e-06
21370.0 4.1344e-06
21390.0 4.0721e-06
21410.0 4.0115e-06
21430.0 3.951e-06
21450.0 3.8933e-06
21470.0 3.838e-06
21490.0 3.7836e-06
21510.0 3.7306e-06
21530.0 3.68e-06
21550.0 3.6307e-06
21570.0 3.5821e-06
21590.0 3.5352e-06
21610.0 3.49e-06
21630.0 3.4455e-06
21650.0 3.4016e-06
21670.0 3.3596e-06
21690.0 3.3182e-06
21710.0 3.2773e-06
21730.0 3.2372e-06
21750.0 3.1981e-06
21770.0 3.1588e-06
21790.0 3.12e-06
21810.0 3.0818e-06
21830.0 3.0438e-06
21850.0 3.0055e-06
21870.0 2.9675e-06
21890.0 2.93e-06
21910.0 2.8919e-06
21930.0 2.8536e-06
21950.0 2.8158e-06
21970.0 2.7776e-06
21990.0 2.7386e-06
22010.0 2.7001e-06
22030.0 2.6617e-06
22050.0 2.6228e-06
22070.0 2.5838e-06
22090.0 2.5455e-06
22110.0 2.5069e-06
22130.0 2.468e-06
22150.0 2.4297e-06
22170.0 2.3918e-06
22190.0 2.3534e-06
22210.0 2.3153e-06
22230.0 2.2783e-06
22250.0 2.2413e-06
22270.0 2.2043e-06
22290.0 2.1681e-06
22310.0 2.1325e-06
22330.0 2.0964e-06
22350.0 2.061e-06
22370.0 2.0263e-06
22390.0 1.9916e-06
22410.0 1.9567e-06
22430.0 1.9229e-06
22450.0 1.8893e-06
22470.0 1.8555e-06
22490.0 1.822e-06
22510.0 1.7893e-06
22530.0 1.7561e-06
22550.0 1.7229e-06
22570.0 1.6907e-06
22590.0 1.6587e-06
22610.0 1.6265e-06
