#lamb flux
1010.0 1.5103e-05
1030.0 1.6805e-05
1050.0 1.911e-05
1070.0 2.2557e-05
1090.0 2.7079e-05
1110.0 3.193e-05
1130.0 3.7002e-05
1150.0 4.2431e-05
1170.0 4.8058e-05
1190.0 5.3318e-05
1210.0 5.8395e-05
1230.0 6.3223e-05
1250.0 6.7693e-05
1270.0 7.1327e-05
1290.0 7.4373e-05
1310.0 7.6494e-05
1330.0 7.7492e-05
1350.0 7.7623e-05
1370.0 7.7012e-05
1390.0 7.5537e-05
1410.0 7.3337e-05
1430.0 7.0775e-05
1450.0 6.7837e-05
1470.0 6.458e-05
1490.0 6.1248e-05
1510.0 5.8018e-05
1530.0 5.4753e-05
1550.0 5.1625e-05
1570.0 4.8752e-05
1590.0 4.6118e-05
1610.0 4.3815e-05
1630.0 4.2362e-05
1650.0 4.1317e-05
1670.0 4.0648e-05
1690.0 4.0404e-05
1710.0 4.0659e-05
1730.0 4.1398e-05
1750.0 4.2573e-05
1770.0 4.4308e-05
1790.0 4.6623e-05
1810.0 4.9488e-05
1830.0 5.2946e-05
1850.0 5.712e-05
1870.0 6.1928e-05
1890.0 6.7369e-05
1910.0 7.352e-05
1930.0 8.0394e-05
1950.0 8.7855e-05
1970.0 9.5916e-05
1990.0 0.00010463
2010.0 0.00011382
2030.0 0.00012337
2050.0 0.00013332
2070.0 0.00014359
2090.0 0.00015384
2110.0 0.00016409
2130.0 0.00017433
2150.0 0.00018432
2170.0 0.00019387
2190.0 0.00020315
2210.0 0.00021201
2230.0 0.00022023
2250.0 0.0002279
2270.0 0.0002352
2290.0 0.00024186
2310.0 0.00024789
2330.0 0.0002536
2350.0 0.00025898
2370.0 0.00026397
2390.0 0.00026891
2410.0 0.00027419
2430.0 0.00027976
2450.0 0.00028592
2470.0 0.00029329
2490.0 0.00030221
2510.0 0.00031226
2530.0 0.00032442
2550.0 0.00033969
2570.0 0.00035846
2590.0 0.00038177
2610.0 0.00041367
2630.0 0.00045465
2650.0 0.00050322
2670.0 0.00056083
2690.0 0.00062675
2710.0 0.00069422
2730.0 0.0007604
2750.0 0.00082762
2770.0 0.0008922
2790.0 0.00095362
2810.0 0.0010163
2830.0 0.0010844
2850.0 0.0011536
2870.0 0.0012268
2890.0 0.0013069
2910.0 0.0013912
2930.0 0.0014764
2950.0 0.0015675
2970.0 0.0016635
2990.0 0.0017603
3010.0 0.0018596
3030.0 0.0019649
3050.0 0.0020729
3070.0 0.0021781
3090.0 0.0022852
3110.0 0.0023899
3130.0 0.0024848
3150.0 0.0025676
3170.0 0.0026357
3190.0 0.002685
3210.0 0.0027208
3230.0 0.0027459
3250.0 0.00276
3270.0 0.0027702
3290.0 0.0027827
3310.0 0.0028018
3330.0 0.002828
3350.0 0.0028592
3370.0 0.0028931
3390.0 0.0029043
3410.0 0.0029226
3430.0 0.0030109
3450.0 0.0030732
3470.0 0.0030853
3490.0 0.0032027
3510.0 0.0036736
3530.0 0.0045229
3550.0 0.0051229
3570.0 0.0056021
3590.0 0.0063055
3610.0 0.006284
3630.0 0.0057913
3650.0 0.0060819
3670.0 0.0071765
3690.0 0.0080521
3710.0 0.008346
3730.0 0.0084142
3750.0 0.008987
3770.0 0.0090364
3790.0 0.0086091
3810.0 0.0081159
3830.0 0.0076935
3850.0 0.0077447
3870.0 0.0080881
3890.0 0.008335
3910.0 0.0084579
3930.0 0.0084627
3950.0 0.0090568
3970.0 0.0097575
3990.0 0.0094868
4010.0 0.0084636
4030.0 0.0076257
4050.0 0.0075617
4070.0 0.0079037
4090.0 0.0078343
4110.0 0.0075395
4130.0 0.0074972
4150.0 0.0078471
4170.0 0.008672
4190.0 0.0091109
4210.0 0.0085834
4230.0 0.0078964
4250.0 0.0074732
4270.0 0.0072082
4290.0 0.0072556
4310.0 0.0074498
4330.0 0.0070886
4350.0 0.0062822
4370.0 0.005604
4390.0 0.0051321
4410.0 0.0048729
4430.0 0.0050122
4450.0 0.0055154
4470.0 0.0060575
4490.0 0.0064777
4510.0 0.0071675
4530.0 0.008424
4550.0 0.0097423
4570.0 0.010548
4590.0 0.01124
4610.0 0.011846
4630.0 0.011947
4650.0 0.011087
4670.0 0.009652
4690.0 0.0085303
4710.0 0.008156
4730.0 0.0077926
4750.0 0.0068579
4770.0 0.0061338
4790.0 0.0063204
4810.0 0.0068511
4830.0 0.0066983
4850.0 0.0059525
4870.0 0.0060898
4890.0 0.006246
4910.0 0.0063355
4930.0 0.0062325
4950.0 0.0061156
4970.0 0.0058448
4990.0 0.0053987
5010.0 0.0050821
5030.0 0.004994
5050.0 0.0049671
5070.0 0.0049589
5090.0 0.0049516
5110.0 0.0049455
5130.0 0.0050463
5150.0 0.0052959
5170.0 0.0057654
5190.0 0.0063843
5210.0 0.0068834
5230.0 0.0071819
5250.0 0.0073492
5270.0 0.0075876
5290.0 0.0077749
5310.0 0.0077349
5330.0 0.007467
5350.0 0.0072042
5370.0 0.0072139
5390.0 0.0074024
5410.0 0.0075405
5430.0 0.0074793
5450.0 0.0073715
5470.0 0.0072086
5490.0 0.0070429
5510.0 0.006982
5530.0 0.0070166
5550.0 0.0070901
5570.0 0.0071172
5590.0 0.006928
5610.0 0.006581
5630.0 0.0062573
5650.0 0.0059665
5670.0 0.0057638
5690.0 0.0055327
5710.0 0.0053981
5730.0 0.005423
5750.0 0.0053671
5770.0 0.0052716
5790.0 0.0053208
5810.0 0.0054758
5830.0 0.0055947
5850.0 0.0056283
5870.0 0.0054888
5890.0 0.0052692
5910.0 0.005074
5930.0 0.004819
5950.0 0.0046034
5970.0 0.0046287
5990.0 0.0047412
6010.0 0.0047389
6030.0 0.0045764
6050.0 0.0045469
6070.0 0.0047051
6090.0 0.0048661
6110.0 0.004853
6130.0 0.0046108
6150.0 0.0042935
6170.0 0.0041178
6190.0 0.0040225
6210.0 0.0039383
6230.0 0.0038596
6250.0 0.0038569
6270.0 0.0039666
6290.0 0.0041254
6310.0 0.0043045
6330.0 0.0044932
6350.0 0.0046081
6370.0 0.0046218
6390.0 0.0045959
6410.0 0.0046327
6430.0 0.0046909
6450.0 0.0046886
6470.0 0.0046982
6490.0 0.0047256
6510.0 0.0047242
6530.0 0.0046669
6550.0 0.0045484
6570.0 0.0044035
6590.0 0.0042767
6610.0 0.0041776
6630.0 0.0040961
6650.0 0.0039629
6670.0 0.0038157
6690.0 0.0037019
6710.0 0.0036366
6730.0 0.0036002
6750.0 0.0035653
6770.0 0.003518
6790.0 0.0034543
6810.0 0.0033925
6830.0 0.0033727
6850.0 0.0033553
6870.0 0.0033267
6890.0 0.0033217
6910.0 0.003277
6930.0 0.0032222
6950.0 0.0032146
6970.0 0.0031862
6990.0 0.0031199
7010.0 0.003069
7030.0 0.0030143
7050.0 0.0029568
7070.0 0.0028866
7090.0 0.002825
7110.0 0.002866
7130.0 0.0029474
7150.0 0.0030115
7170.0 0.0030504
7190.0 0.0030454
7210.0 0.0030064
7230.0 0.0029574
7250.0 0.0029269
7270.0 0.0028753
7290.0 0.0028326
7310.0 0.002809
7330.0 0.0028382
7350.0 0.0028464
7370.0 0.0028373
7390.0 0.0028112
7410.0 0.0027676
7430.0 0.0027394
7450.0 0.0027108
7470.0 0.0026286
7490.0 0.0025406
7510.0 0.0024341
7530.0 0.0023486
7550.0 0.0023031
7570.0 0.0023341
7590.0 0.0023191
7610.0 0.0022935
7630.0 0.0022703
7650.0 0.0022817
7670.0 0.0023291
7690.0 0.0024239
7710.0 0.002489
7730.0 0.0025818
7750.0 0.0026403
7770.0 0.0026878
7790.0 0.0026925
7810.0 0.0026409
7830.0 0.0026489
7850.0 0.0026243
7870.0 0.0025585
7890.0 0.0024722
7910.0 0.0023986
7930.0 0.0023433
7950.0 0.0023096
7970.0 0.0023106
7990.0 0.0023291
8010.0 0.0023226
8030.0 0.0022981
8050.0 0.0022559
8070.0 0.0022147
8090.0 0.0021694
8110.0 0.0021775
8130.0 0.0021967
8150.0 0.0022005
8170.0 0.0021821
8190.0 0.002153
8210.0 0.0020685
8230.0 0.0019351
8250.0 0.001853
8270.0 0.0018054
8290.0 0.0017824
8310.0 0.0017904
8330.0 0.0018309
8350.0 0.0017986
8370.0 0.0017595
8390.0 0.0017838
8410.0 0.0018398
8430.0 0.0019346
8450.0 0.0020216
8470.0 0.0020446
8490.0 0.0020634
8510.0 0.0020524
8530.0 0.0020402
8550.0 0.0020557
8570.0 0.0020581
8590.0 0.0020518
8610.0 0.0021081
8630.0 0.0021239
8650.0 0.0020777
8670.0 0.0020735
8690.0 0.0020812
8710.0 0.0020525
8730.0 0.0020349
8750.0 0.0019727
8770.0 0.0019464
8790.0 0.0019254
8810.0 0.0019062
8830.0 0.001823
8850.0 0.0016918
8870.0 0.0015904
8890.0 0.0015345
8910.0 0.0014406
8930.0 0.0013412
8950.0 0.0013057
8970.0 0.0012961
8990.0 0.0012975
9010.0 0.0012876
9030.0 0.0012784
9050.0 0.0012699
9070.0 0.0012617
9090.0 0.0012535
9110.0 0.0012453
9130.0 0.0012371
9150.0 0.0012289
9170.0 0.0012208
9190.0 0.0012126
9210.0 0.0012044
9230.0 0.0011963
9250.0 0.0011883
9270.0 0.0011802
9290.0 0.0011721
9310.0 0.0011641
9330.0 0.0011561
9350.0 0.0011482
9370.0 0.0011402
9390.0 0.0011323
9410.0 0.0011244
9430.0 0.0011166
9450.0 0.0011086
9470.0 0.0011009
9490.0 0.0010933
9510.0 0.0010856
9530.0 0.0010779
9550.0 0.0010703
9570.0 0.0010626
9590.0 0.0010551
9610.0 0.0010476
9630.0 0.0010401
9650.0 0.0010327
9670.0 0.0010253
9690.0 0.0010179
9710.0 0.0010106
9730.0 0.0010034
9750.0 0.00099616
9770.0 0.00098899
9790.0 0.00098185
9810.0 0.00097477
9830.0 0.00096754
9850.0 0.0009593
9870.0 0.00095257
9890.0 0.00094613
9910.0 0.00093957
9930.0 0.00093259
9950.0 0.00092601
9970.0 0.00091942
9990.0 0.00091268
10010.0 0.00090522
10030.0 0.00089832
10050.0 0.00089222
10070.0 0.00088607
10090.0 0.00087991
10110.0 0.00087338
10130.0 0.00086615
10150.0 0.00086002
10170.0 0.00085403
10190.0 0.00084779
10210.0 0.00084172
10230.0 0.00083571
10250.0 0.00082948
10270.0 0.00082331
10290.0 0.00081735
10310.0 0.00081124
10330.0 0.00080501
10350.0 0.00079905
10370.0 0.00079314
10390.0 0.00078708
10410.0 0.00078108
10430.0 0.00077535
10450.0 0.00076946
10470.0 0.00076351
10490.0 0.00075776
10510.0 0.00075206
10530.0 0.0007461
10550.0 0.0007403
10570.0 0.00073471
10590.0 0.00072899
10610.0 0.0007232
10630.0 0.00071765
10650.0 0.0007121
10670.0 0.00070634
10690.0 0.00070072
10710.0 0.00069525
10730.0 0.00068964
10750.0 0.00068389
10770.0 0.00067849
10790.0 0.00067304
10810.0 0.00066744
10830.0 0.00066196
10850.0 0.00065667
10870.0 0.00065109
10890.0 0.00064557
10910.0 0.00064031
10930.0 0.00063508
10950.0 0.00062979
10970.0 0.00062476
10990.0 0.00062006
11010.0 0.00061482
11030.0 0.0006107
11050.0 0.00060683
11070.0 0.000603
11090.0 0.00059899
11110.0 0.00059514
11130.0 0.0005913
11150.0 0.00058727
11170.0 0.00058316
11190.0 0.00057919
11210.0 0.0005751
11230.0 0.0005709
11250.0 0.00056686
11270.0 0.00056294
11290.0 0.00055895
11310.0 0.00055507
11330.0 0.00055152
11350.0 0.000548
11370.0 0.00054456
11390.0 0.00054134
11410.0 0.00053829
11430.0 0.00053516
11450.0 0.00053216
11470.0 0.00052929
11490.0 0.00052636
11510.0 0.00052332
11530.0 0.00052036
11550.0 0.00051734
11570.0 0.0005141
11590.0 0.00051077
11610.0 0.00050744
11630.0 0.00050385
11650.0 0.00050005
11670.0 0.00049632
11690.0 0.00049252
11710.0 0.00048853
11730.0 0.00048457
11750.0 0.00048076
11770.0 0.00047685
11790.0 0.00047295
11810.0 0.00046925
11830.0 0.00046567
11850.0 0.000462
11870.0 0.00045857
11890.0 0.00045539
11910.0 0.00045223
11930.0 0.00044919
11950.0 0.00044641
11970.0 0.00044375
11990.0 0.00044115
12010.0 0.0004388
12030.0 0.00043668
12050.0 0.00043469
12070.0 0.00043288
12090.0 0.00043141
12110.0 0.00043014
12130.0 0.00042908
12150.0 0.0004283
12170.0 0.00042779
12190.0 0.0004275
12210.0 0.00042749
12230.0 0.00042773
12250.0 0.0004282
12270.0 0.00042891
12290.0 0.0004298
12310.0 0.00043084
12330.0 0.00043206
12350.0 0.00043338
12370.0 0.00043474
12390.0 0.00043613
12410.0 0.00043757
12430.0 0.00043888
12450.0 0.00044006
12470.0 0.00044113
12490.0 0.00044198
12510.0 0.00044257
12530.0 0.00044289
12550.0 0.00044288
12570.0 0.00044253
12590.0 0.00044182
12610.0 0.00044068
12630.0 0.00043912
12650.0 0.00043728
12670.0 0.00043502
12690.0 0.00043235
12710.0 0.00042946
12730.0 0.00042635
12750.0 0.00042279
12770.0 0.00041912
12790.0 0.00041543
12810.0 0.00041154
12830.0 0.00040747
12850.0 0.00040358
12870.0 0.00039971
12890.0 0.00039572
12910.0 0.00039183
12930.0 0.00038814
12950.0 0.00038435
12970.0 0.00038057
12990.0 0.00037705
13010.0 0.0003736
13030.0 0.00037011
13050.0 0.00036677
13070.0 0.00036365
13090.0 0.0003605
13110.0 0.00035744
13130.0 0.00035461
13150.0 0.00035191
13170.0 0.00034922
13190.0 0.00034678
13210.0 0.00034457
13230.0 0.00034243
13250.0 0.00034042
13270.0 0.00033863
13290.0 0.00033691
13310.0 0.00033521
13330.0 0.00033363
13350.0 0.00033213
13370.0 0.0003306
13390.0 0.00032903
13410.0 0.00032755
13430.0 0.000326
13450.0 0.00032435
13470.0 0.0003227
13490.0 0.00032103
13510.0 0.00031919
13530.0 0.0003173
13550.0 0.00031544
13570.0 0.00031349
13590.0 0.00031143
13610.0 0.00030939
13630.0 0.00030737
13650.0 0.00030522
13670.0 0.00030306
13690.0 0.00030095
13710.0 0.00029878
13730.0 0.00029648
13750.0 0.00029429
13770.0 0.0002921
13790.0 0.00028981
13810.0 0.00028751
13830.0 0.00028529
13850.0 0.00028295
13870.0 0.00028052
13890.0 0.00027814
13910.0 0.00027573
13930.0 0.00027316
13950.0 0.00027056
13970.0 0.00026804
13990.0 0.00026539
14010.0 0.00026265
14030.0 0.00025995
14050.0 0.00025725
14070.0 0.00025437
14090.0 0.00025157
14110.0 0.00024886
14130.0 0.00024611
14150.0 0.00024334
14170.0 0.00024077
14190.0 0.00023828
14210.0 0.00023579
14230.0 0.00023343
14250.0 0.00023125
14270.0 0.00022906
14290.0 0.00022693
14310.0 0.00022499
14330.0 0.0002231
14350.0 0.00022121
14370.0 0.0002194
14390.0 0.0002177
14410.0 0.00021596
14430.0 0.00021424
14450.0 0.00021262
14470.0 0.00021103
14490.0 0.00020941
14510.0 0.0002079
14530.0 0.00020648
14550.0 0.00020507
14570.0 0.00020371
14590.0 0.00020246
14610.0 0.00020124
14630.0 0.00020003
14650.0 0.00019891
14670.0 0.00019786
14690.0 0.00019682
14710.0 0.00019581
14730.0 0.00019491
14750.0 0.00019405
14770.0 0.00019322
14790.0 0.00019248
14810.0 0.00019182
14830.0 0.00019122
14850.0 0.00019072
14870.0 0.00019034
14890.0 0.00019005
14910.0 0.00018985
14930.0 0.00018974
14950.0 0.00018967
14970.0 0.00018964
14990.0 0.0001896
15010.0 0.00018953
15030.0 0.00018942
15050.0 0.00018925
15070.0 0.00018903
15090.0 0.00018877
15110.0 0.00018848
15130.0 0.00018817
15150.0 0.00018786
15170.0 0.00018753
15190.0 0.00018719
15210.0 0.00018686
15230.0 0.00018654
15250.0 0.0001862
15270.0 0.00018586
15290.0 0.00018553
15310.0 0.0001852
15330.0 0.00018486
15350.0 0.00018453
15370.0 0.0001842
15390.0 0.00018386
15410.0 0.00018352
15430.0 0.00018319
15450.0 0.00018286
15470.0 0.00018252
15490.0 0.00018219
15510.0 0.00018186
15530.0 0.00018152
15550.0 0.00018119
15570.0 0.00018087
15590.0 0.00018053
15610.0 0.00018019
15630.0 0.00017987
15650.0 0.00017954
15670.0 0.00017921
15690.0 0.00017888
15710.0 0.00017856
15730.0 0.00017823
15750.0 0.0001779
15770.0 0.00017758
15790.0 0.00017726
15810.0 0.00017693
15830.0 0.00017661
15850.0 0.0001763
15870.0 0.00017598
15890.0 0.00017566
15910.0 0.00017535
15930.0 0.00017504
15950.0 0.00017472
15970.0 0.00017441
15990.0 0.0001741
16010.0 0.00017379
16030.0 0.00017348
16050.0 0.00017318
16070.0 0.00017288
16090.0 0.00017257
16110.0 0.00017227
16130.0 0.00017198
16150.0 0.00017167
16170.0 0.00017137
16190.0 0.00017108
16210.0 0.00017079
16230.0 0.00017049
16250.0 0.00017021
16270.0 0.00016992
16290.0 0.00016963
16310.0 0.00016935
16330.0 0.00016907
16350.0 0.00016879
16370.0 0.0001685
16390.0 0.00016822
16410.0 0.00016795
16430.0 0.00016767
16450.0 0.00016739
16470.0 0.00016713
16490.0 0.00016686
16510.0 0.00016658
16530.0 0.00016632
16550.0 0.00016606
16570.0 0.00016578
16590.0 0.00016552
16610.0 0.00016526
16630.0 0.000165
16650.0 0.00016474
16670.0 0.00016449
16690.0 0.00016424
16710.0 0.00016397
16730.0 0.00016372
16750.0 0.00016347
16770.0 0.00016321
16790.0 0.00016296
16810.0 0.00016271
16830.0 0.00016247
16850.0 0.00016222
16870.0 0.00016197
16890.0 0.00016173
16910.0 0.00016148
16930.0 0.00016123
16950.0 0.00016099
16970.0 0.00016075
16990.0 0.00016051
17010.0 0.00016027
17030.0 0.00016003
17050.0 0.00015979
17070.0 0.00015955
17090.0 0.00015931
17110.0 0.00015907
17130.0 0.00015883
17150.0 0.00015859
17170.0 0.00015836
17190.0 0.00015812
17210.0 0.00015788
17230.0 0.00015764
17250.0 0.00015741
17270.0 0.00015716
17290.0 0.00015692
17310.0 0.00015669
17330.0 0.00015645
17350.0 0.0001562
17370.0 0.00015597
17390.0 0.00015573
17410.0 0.00015549
17430.0 0.00015525
17450.0 0.00015501
17470.0 0.00015476
17490.0 0.00015452
17510.0 0.00015428
17530.0 0.00015403
17550.0 0.00015378
17570.0 0.00015354
17590.0 0.0001533
17610.0 0.00015304
17630.0 0.00015279
17650.0 0.00015254
17670.0 0.00015229
17690.0 0.00015203
17710.0 0.00015178
17730.0 0.00015152
17750.0 0.00015126
17770.0 0.000151
17790.0 0.00015075
17810.0 0.00015048
17830.0 0.00015021
17850.0 0.00014995
17870.0 0.00014968
17890.0 0.00014941
17910.0 0.00014913
17930.0 0.00014887
17950.0 0.00014859
17970.0 0.00014831
17990.0 0.00014803
18010.0 0.00014775
18030.0 0.00014746
18050.0 0.00014717
18070.0 0.00014689
18090.0 0.0001466
18110.0 0.0001463
18130.0 0.00014601
18150.0 0.00014571
18170.0 0.00014541
18190.0 0.00014511
18210.0 0.00014481
18230.0 0.00014449
18250.0 0.00014418
18270.0 0.00014387
18290.0 0.00014356
18310.0 0.00014323
18330.0 0.00014292
18350.0 0.0001426
18370.0 0.00014227
18390.0 0.00014194
18410.0 0.00014161
18430.0 0.00014128
18450.0 0.00014093
18470.0 0.0001406
18490.0 0.00014026
18510.0 0.00013991
18530.0 0.00013956
18550.0 0.00013922
18570.0 0.00013887
18590.0 0.00013851
18610.0 0.00013815
18630.0 0.00013779
18650.0 0.00013743
18670.0 0.00013705
18690.0 0.00013669
18710.0 0.00013632
18730.0 0.00013594
18750.0 0.00013557
18770.0 0.0001352
18790.0 0.0001348
18810.0 0.00013442
18830.0 0.00013403
18850.0 0.00013364
18870.0 0.00013325
18890.0 0.00013285
18910.0 0.00013246
18930.0 0.00013205
18950.0 0.00013165
18970.0 0.00013125
18990.0 0.00013084
19010.0 0.00013042
19030.0 0.00013001
19050.0 0.0001296
19070.0 0.00012918
19090.0 0.00012876
19110.0 0.00012835
19130.0 0.00012792
19150.0 0.00012748
19170.0 0.00012706
19190.0 0.00012663
19210.0 0.00012619
19230.0 0.00012575
19250.0 0.00012533
19270.0 0.00012488
19290.0 0.00012444
19310.0 0.000124
19330.0 0.00012356
19350.0 0.0001231
19370.0 0.00012266
19390.0 0.00012221
19410.0 0.00012176
19430.0 0.0001213
19450.0 0.00012085
19470.0 0.0001204
19490.0 0.00011993
19510.0 0.00011948
19530.0 0.00011902
19550.0 0.00011856
19570.0 0.00011809
19590.0 0.00011763
19610.0 0.00011717
19630.0 0.00011669
19650.0 0.00011623
19670.0 0.00011577
19690.0 0.00011529
19710.0 0.00011482
19730.0 0.00011436
19750.0 0.00011389
19770.0 0.00011341
19790.0 0.00011294
19810.0 0.00011247
19830.0 0.00011199
19850.0 0.00011151
19870.0 0.00011103
19890.0 0.00011054
19910.0 0.00011001
19930.0 0.00010946
19950.0 0.00010886
19970.0 0.00010817
19990.0 0.00010739
20010.0 0.00010653
20030.0 0.00010553
20050.0 0.00010442
20070.0 0.00010324
20090.0 0.00010199
20110.0 0.00010063
20130.0 9.9278e-05
20150.0 9.7946e-05
20170.0 9.6588e-05
20190.0 9.5226e-05
20210.0 9.3934e-05
20230.0 9.2672e-05
20250.0 9.1405e-05
20270.0 9.0205e-05
20290.0 8.9076e-05
20310.0 8.7971e-05
20330.0 8.6893e-05
20350.0 8.5927e-05
20370.0 8.5003e-05
20390.0 8.4112e-05
20410.0 8.3289e-05
20430.0 8.2537e-05
20450.0 8.1805e-05
20470.0 8.1127e-05
20490.0 8.0513e-05
20510.0 7.9941e-05
20530.0 7.9401e-05
20550.0 7.8911e-05
20570.0 7.847e-05
20590.0 7.8053e-05
20610.0 7.767e-05
20630.0 7.7324e-05
20650.0 7.7003e-05
20670.0 7.6698e-05
20690.0 7.642e-05
20710.0 7.6158e-05
20730.0 7.5903e-05
20750.0 7.5653e-05
20770.0 7.5408e-05
20790.0 7.5156e-05
20810.0 7.4892e-05
20830.0 7.4616e-05
20850.0 7.4324e-05
20870.0 7.4002e-05
20890.0 7.3651e-05
20910.0 7.3281e-05
20930.0 7.2876e-05
20950.0 7.2432e-05
20970.0 7.1966e-05
20990.0 7.1475e-05
21010.0 7.0937e-05
21030.0 7.0375e-05
21050.0 6.9804e-05
21070.0 6.9203e-05
21090.0 6.8568e-05
21110.0 6.7943e-05
21130.0 6.7314e-05
21150.0 6.666e-05
21170.0 6.6008e-05
21190.0 6.5376e-05
21210.0 6.4728e-05
21230.0 6.4076e-05
21250.0 6.3455e-05
21270.0 6.2847e-05
21290.0 6.2235e-05
21310.0 6.1643e-05
21330.0 6.1089e-05
21350.0 6.0534e-05
21370.0 5.999e-05
21390.0 5.9478e-05
21410.0 5.8984e-05
21430.0 5.8482e-05
21450.0 5.8009e-05
21470.0 5.7561e-05
21490.0 5.7115e-05
21510.0 5.6675e-05
21530.0 5.6259e-05
21550.0 5.5849e-05
21570.0 5.5432e-05
21590.0 5.503e-05
21610.0 5.464e-05
21630.0 5.4244e-05
21650.0 5.3841e-05
21670.0 5.3464e-05
21690.0 5.3083e-05
21710.0 5.2693e-05
21730.0 5.2312e-05
21750.0 5.1942e-05
21770.0 5.1553e-05
21790.0 5.1165e-05
21810.0 5.079e-05
21830.0 5.041e-05
21850.0 5.0017e-05
21870.0 4.9633e-05
21890.0 4.9259e-05
21910.0 4.8869e-05
21930.0 4.8477e-05
21950.0 4.8097e-05
21970.0 4.7711e-05
21990.0 4.7306e-05
22010.0 4.6919e-05
22030.0 4.6538e-05
22050.0 4.6146e-05
22070.0 4.5755e-05
22090.0 4.5386e-05
22110.0 4.5012e-05
22130.0 4.4634e-05
22150.0 4.4275e-05
22170.0 4.3929e-05
22190.0 4.3576e-05
22210.0 4.3236e-05
22230.0 4.2926e-05
22250.0 4.2619e-05
22270.0 4.2319e-05
22290.0 4.2043e-05
22310.0 4.1783e-05
22330.0 4.1521e-05
22350.0 4.1278e-05
22370.0 4.1056e-05
22390.0 4.0838e-05
22410.0 4.0624e-05
22430.0 4.0431e-05
22450.0 4.0248e-05
22470.0 4.0064e-05
22490.0 3.989e-05
22510.0 3.9729e-05
22530.0 3.9565e-05
22550.0 3.9403e-05
22570.0 3.9254e-05
22590.0 3.9109e-05
22610.0 3.8963e-05
22630.0 3.8824e-05
22650.0 3.8698e-05
22670.0 3.8571e-05
22690.0 3.8448e-05
22710.0 3.8339e-05
22730.0 3.8237e-05
22750.0 3.8135e-05
22770.0 3.8048e-05
22790.0 3.7976e-05
22810.0 3.791e-05
22830.0 3.7856e-05
22850.0 3.782e-05
22870.0 3.7796e-05
22890.0 3.7785e-05
22910.0 3.7794e-05
22930.0 3.7823e-05
22950.0 3.7869e-05
22970.0 3.7937e-05
22990.0 3.8028e-05
