#lamb flux
1010.0 1.065e-06
1030.0 1.2003e-06
1050.0 1.3559e-06
1070.0 1.5311e-06
1090.0 1.7301e-06
1110.0 1.9342e-06
1130.0 2.1396e-06
1150.0 2.3548e-06
1170.0 2.5767e-06
1190.0 2.7872e-06
1210.0 3.0005e-06
1230.0 3.2209e-06
1250.0 3.4369e-06
1270.0 3.6466e-06
1290.0 3.8682e-06
1310.0 4.0897e-06
1330.0 4.3021e-06
1350.0 4.5168e-06
1370.0 4.7385e-06
1390.0 4.9547e-06
1410.0 5.1644e-06
1430.0 5.3836e-06
1450.0 5.6028e-06
1470.0 5.8146e-06
1490.0 6.0287e-06
1510.0 6.2547e-06
1530.0 6.4689e-06
1550.0 6.6801e-06
1570.0 6.8985e-06
1590.0 7.117e-06
1610.0 7.3256e-06
1630.0 7.5406e-06
1650.0 7.761e-06
1670.0 7.9741e-06
1690.0 8.1841e-06
1710.0 8.402e-06
1730.0 8.6208e-06
1750.0 8.8259e-06
1770.0 9.0367e-06
1790.0 9.2513e-06
1810.0 9.4582e-06
1830.0 9.6607e-06
1850.0 9.875e-06
1870.0 1.0083e-05
1890.0 1.0282e-05
1910.0 1.0484e-05
1930.0 1.0689e-05
1950.0 1.0883e-05
1970.0 1.1073e-05
1990.0 1.1268e-05
2010.0 1.1457e-05
2030.0 1.1636e-05
2050.0 1.1818e-05
2070.0 1.2001e-05
2090.0 1.2169e-05
2110.0 1.2333e-05
2130.0 1.2498e-05
2150.0 1.2654e-05
2170.0 1.2796e-05
2190.0 1.2941e-05
2210.0 1.308e-05
2230.0 1.3206e-05
2250.0 1.3323e-05
2270.0 1.3443e-05
2290.0 1.3548e-05
2310.0 1.3639e-05
2330.0 1.3727e-05
2350.0 1.3809e-05
2370.0 1.3875e-05
2390.0 1.3938e-05
2410.0 1.4005e-05
2430.0 1.4065e-05
2450.0 1.4125e-05
2470.0 1.4201e-05
2490.0 1.4302e-05
2510.0 1.4421e-05
2530.0 1.4607e-05
2550.0 1.493e-05
2570.0 1.5458e-05
2590.0 1.6278e-05
2610.0 1.7641e-05
2630.0 1.9605e-05
2650.0 2.2058e-05
2670.0 2.5024e-05
2690.0 2.8375e-05
2710.0 3.1599e-05
2730.0 3.4443e-05
2750.0 3.6938e-05
2770.0 3.88e-05
2790.0 4.0005e-05
2810.0 4.0754e-05
2830.0 4.1182e-05
2850.0 4.1291e-05
2870.0 4.1247e-05
2890.0 4.114e-05
2910.0 4.0984e-05
2930.0 4.0781e-05
2950.0 4.0591e-05
2970.0 4.0412e-05
2990.0 4.0219e-05
3010.0 0.00083229
3030.0 0.00082798
3050.0 0.00082369
3070.0 0.0008187
3090.0 0.00081342
3110.0 0.00080699
3130.0 0.0007984
3150.0 0.00078719
3170.0 0.00077249
3190.0 0.00075465
3210.0 0.00073522
3230.0 0.00071572
3250.0 0.00069949
3270.0 0.00068877
3290.0 0.00068632
3310.0 0.00069166
3330.0 0.00070643
3350.0 0.00072835
3370.0 0.00075792
3390.0 0.0007942
3410.0 0.00083325
3430.0 0.00087693
3450.0 0.00092689
3470.0 0.00098094
3490.0 0.0010376
3510.0 0.0011009
3530.0 0.001168
3550.0 0.0012351
3570.0 0.0013051
3590.0 0.001383
3610.0 0.0014631
3630.0 0.0015475
3650.0 0.0016352
3670.0 0.0017177
3690.0 0.0017821
3710.0 0.0018222
3730.0 0.00183
3750.0 0.0018054
3770.0 0.0016609
3790.0 0.0014986
3810.0 0.0013894
3830.0 0.0012135
3850.0 0.00090295
3870.0 0.00064193
3890.0 0.0010732
3910.0 0.0017454
3930.0 0.0021109
3950.0 0.0020742
3970.0 0.0021201
3990.0 0.0024902
4010.0 0.0031987
4030.0 0.0032373
4050.0 0.0028692
4070.0 0.0025431
4090.0 0.0024042
4110.0 0.0028979
4130.0 0.003029
4150.0 0.0029559
4170.0 0.0029976
4190.0 0.0030559
4210.0 0.0030165
4230.0 0.0033319
4250.0 0.0036419
4270.0 0.0036944
4290.0 0.0037404
4310.0 0.0038363
4330.0 0.0042299
4350.0 0.004878
4370.0 0.0055383
4390.0 0.0052574
4410.0 0.0043054
4430.0 0.0036128
4450.0 0.0030946
4470.0 0.003004
4490.0 0.0033004
4510.0 0.0037022
4530.0 0.0040907
4550.0 0.004738
4570.0 0.0056065
4590.0 0.0067969
4610.0 0.0087284
4630.0 0.010604
4650.0 0.010904
4670.0 0.010528
4690.0 0.011221
4710.0 0.011849
4730.0 0.01005
4750.0 0.0071806
4770.0 0.0058503
4790.0 0.0056537
4810.0 0.0052571
4830.0 0.0049609
4850.0 0.0056811
4870.0 0.0073327
4890.0 0.0084281
4910.0 0.0071508
4930.0 0.0063277
4950.0 0.0070844
4970.0 0.0094951
4990.0 0.012318
5010.0 0.013105
5030.0 0.01084
5050.0 0.0069978
5070.0 0.0048081
5090.0 0.0042669
5110.0 0.0044592
5130.0 0.0048008
5150.0 0.0050432
5170.0 0.0050374
5190.0 0.0049306
5210.0 0.0047751
5230.0 0.0048938
5250.0 0.0052303
5270.0 0.006019
5290.0 0.0069449
5310.0 0.0076524
5330.0 0.0078517
5350.0 0.0079124
5370.0 0.0085998
5390.0 0.0092937
5410.0 0.0090401
5430.0 0.0078141
5450.0 0.0071869
5470.0 0.0080518
5490.0 0.010329
5510.0 0.013197
5530.0 0.014674
5550.0 0.014231
5570.0 0.0129
5590.0 0.011506
5610.0 0.010632
5630.0 0.010096
5650.0 0.010325
5670.0 0.010081
5690.0 0.0093573
5710.0 0.0088626
5730.0 0.0080429
5750.0 0.0057763
5770.0 0.0050152
5790.0 0.0056417
5810.0 0.0068196
5830.0 0.0077651
5850.0 0.0085194
5870.0 0.0087725
5890.0 0.0084762
5910.0 0.0081156
5930.0 0.0081385
5950.0 0.0085262
5970.0 0.0090881
5990.0 0.0086099
6010.0 0.0072446
6030.0 0.0060174
6050.0 0.005222
6070.0 0.0051903
6090.0 0.0058505
6110.0 0.0064268
6130.0 0.006194
6150.0 0.0057115
6170.0 0.0062099
6190.0 0.0074856
6210.0 0.009132
6230.0 0.010521
6250.0 0.010549
6270.0 0.0094445
6290.0 0.0078223
6310.0 0.0062157
6330.0 0.0049415
6350.0 0.0044487
6370.0 0.0048132
6390.0 0.0056913
6410.0 0.0065735
6430.0 0.0076212
6450.0 0.0088695
6470.0 0.010846
6490.0 0.013353
6510.0 0.014771
6530.0 0.013736
6550.0 0.012611
6570.0 0.012248
6590.0 0.011772
6610.0 0.010512
6630.0 0.0094649
6650.0 0.0087097
6670.0 0.009027
6690.0 0.0089142
6710.0 0.007919
6730.0 0.0071961
6750.0 0.0064484
6770.0 0.0062602
6790.0 0.0068965
6810.0 0.0070974
6830.0 0.0072873
6850.0 0.007137
6870.0 0.0068301
6890.0 0.006667
6910.0 0.0064168
6930.0 0.0060275
6950.0 0.0061309
6970.0 0.0062217
6990.0 0.0069481
7010.0 0.0074041
7030.0 0.0067832
7050.0 0.0063611
7070.0 0.0061743
7090.0 0.0056522
7110.0 0.0052962
7130.0 0.0054112
7150.0 0.0056796
7170.0 0.0060258
7190.0 0.0060682
7210.0 0.0060204
7230.0 0.0062701
7250.0 0.0071859
7270.0 0.0084075
7290.0 0.0091163
7310.0 0.0089063
7330.0 0.0079259
7350.0 0.0071017
7370.0 0.0068484
7390.0 0.0069081
7410.0 0.0072192
7430.0 0.0078901
7450.0 0.0085436
7470.0 0.0093887
7490.0 0.010399
7510.0 0.010108
7530.0 0.0095687
7550.0 0.0079904
7570.0 0.0065354
7590.0 0.0051854
7610.0 0.004705
7630.0 0.0049583
7650.0 0.0056748
7670.0 0.006287
7690.0 0.0071169
7710.0 0.0078265
7730.0 0.0081242
7750.0 0.0082241
7770.0 0.0081805
7790.0 0.0079762
7810.0 0.0081927
7830.0 0.0079468
7850.0 0.0070963
7870.0 0.0063909
7890.0 0.0058862
7910.0 0.0052232
7930.0 0.0044805
7950.0 0.0040836
7970.0 0.0040432
7990.0 0.0042129
8010.0 0.0044674
8030.0 0.0045126
8050.0 0.0045095
8070.0 0.004394
8090.0 0.0044183
8110.0 0.0041821
8130.0 0.003809
8150.0 0.0035744
8170.0 0.0034158
8190.0 0.0034537
8210.0 0.0035391
8230.0 0.0037306
8250.0 0.0036289
8270.0 0.0032444
8290.0 0.0025457
8310.0 0.0017313
8330.0 0.0011333
8350.0 0.000812
8370.0 0.00093786
8390.0 0.0010526
8410.0 0.0013457
8430.0 0.0016356
8450.0 0.0017977
8470.0 0.0019083
8490.0 0.0019259
8510.0 0.0019844
8530.0 0.0021688
8550.0 0.0024587
8570.0 0.0029365
8590.0 0.0035311
8610.0 0.0041809
8630.0 0.0048762
8650.0 0.0053771
8670.0 0.0053478
8690.0 0.0051019
8710.0 0.0048045
8730.0 0.0045587
8750.0 0.0043074
8770.0 0.0041645
8790.0 0.0040717
8810.0 0.0038244
8830.0 0.0033621
8850.0 0.0028661
8870.0 0.0024207
8890.0 0.0022396
8910.0 0.0023116
8930.0 0.0023638
8950.0 0.002614
8970.0 0.0026707
8990.0 0.0027258
9010.0 0.0027564
9030.0 0.0027666
9050.0 0.0027839
9070.0 0.002797
9090.0 0.0028066
9110.0 0.0028137
9130.0 0.0028212
9150.0 0.0028298
9170.0 0.0028386
9190.0 0.0028478
9210.0 0.0028588
9230.0 0.0028691
9250.0 0.0028804
9270.0 0.0028923
9290.0 0.0029047
9310.0 0.002918
9330.0 0.002932
9350.0 0.0029463
9370.0 0.0029614
9390.0 0.0029773
9410.0 0.0029936
9430.0 0.0030103
9450.0 0.003028
9470.0 0.0030462
9490.0 0.0030648
9510.0 0.0030841
9530.0 0.0031041
9550.0 0.0031242
9570.0 0.0031449
9590.0 0.0031664
9610.0 0.0031883
9630.0 0.0032104
9650.0 0.0032332
9670.0 0.0032566
9690.0 0.0032802
9710.0 0.0033042
9730.0 0.0033288
9750.0 0.0033538
9770.0 0.0033787
9790.0 0.0034044
9810.0 0.0034304
9830.0 0.0034566
9850.0 0.003483
9870.0 0.00351
9890.0 0.0035371
9910.0 0.0035642
9930.0 0.0035917
9950.0 0.0036195
9970.0 0.0036472
9990.0 0.0036749
10010.0 0.00358
10030.0 0.0036067
10050.0 0.0036332
10070.0 0.0036596
10090.0 0.0036868
10110.0 0.0037135
10130.0 0.0037402
10150.0 0.0037672
10170.0 0.0037938
10190.0 0.00382
10210.0 0.0038465
10230.0 0.0038729
10250.0 0.0038987
10270.0 0.0039244
10290.0 0.0039502
10310.0 0.0039754
10330.0 0.0039999
10350.0 0.0040247
10370.0 0.0040491
10390.0 0.0040728
10410.0 0.0040961
10430.0 0.0041195
10450.0 0.0041421
10470.0 0.004164
10490.0 0.0041858
10510.0 0.0042071
10530.0 0.0042272
10550.0 0.0042471
10570.0 0.0042668
10590.0 0.0042855
10610.0 0.0043034
10630.0 0.0043212
10650.0 0.0043382
10670.0 0.004354
10690.0 0.0043693
10710.0 0.0043843
10730.0 0.0043981
10750.0 0.0044108
10770.0 0.0044235
10790.0 0.0044353
10810.0 0.0044458
10830.0 0.0044555
10850.0 0.0044645
10870.0 0.0044711
10890.0 0.0044752
10910.0 0.004476
10930.0 0.0044709
10950.0 0.0044561
10970.0 0.0044303
10990.0 0.0043924
11010.0 0.0042382
11030.0 0.0041671
11050.0 0.0040837
11070.0 0.0039856
11090.0 0.0038684
11110.0 0.0037481
11130.0 0.0036232
11150.0 0.0034892
11170.0 0.0033526
11190.0 0.0032221
11210.0 0.0030898
11230.0 0.0029572
11250.0 0.0028341
11270.0 0.0027194
11290.0 0.0026079
11310.0 0.0025058
11330.0 0.0024187
11350.0 0.0023384
11370.0 0.0022658
11390.0 0.0022037
11410.0 0.0021492
11430.0 0.0020973
11450.0 0.0020506
11470.0 0.0020074
11490.0 0.0019639
11510.0 0.0019182
11530.0 0.0018724
11550.0 0.0018245
11570.0 0.0017715
11590.0 0.0017158
11610.0 0.0016592
11630.0 0.0015982
11650.0 0.0015342
11670.0 0.0014727
11690.0 0.0014118
11710.0 0.0013507
11730.0 0.0012931
11750.0 0.001241
11770.0 0.0011911
11790.0 0.0011452
11810.0 0.0011054
11830.0 0.0010701
11850.0 0.0010376
11870.0 0.0010099
11890.0 0.00098605
11910.0 0.000964
11930.0 0.00094352
11950.0 0.00092473
11970.0 0.00090617
11990.0 0.00088679
12010.0 0.00086727
12030.0 0.00084734
12050.0 0.00082604
12070.0 0.00080355
12090.0 0.0007818
12110.0 0.00075975
12130.0 0.00073767
12150.0 0.00071712
12170.0 0.0006987
12190.0 0.00068174
12210.0 0.00066798
12230.0 0.000658
12250.0 0.00065164
12270.0 0.00064943
12290.0 0.00065145
12310.0 0.00065724
12330.0 0.0006674
12350.0 0.00068134
12370.0 0.00069784
12390.0 0.00071723
12410.0 0.00074014
12430.0 0.00076309
12450.0 0.00078641
12470.0 0.00081069
12490.0 0.00083429
12510.0 0.00085544
12530.0 0.00087557
12550.0 0.00089387
12570.0 0.0009087
12590.0 0.00092037
12610.0 0.0009294
12630.0 0.00093484
12650.0 0.00093649
12670.0 0.00093516
12690.0 0.00093069
12710.0 0.00092337
12730.0 0.00091363
12750.0 0.00090119
12770.0 0.00088685
12790.0 0.00087116
12810.0 0.00085382
12830.0 0.00083489
12850.0 0.00081567
12870.0 0.00079579
12890.0 0.00077463
12910.0 0.00075313
12930.0 0.00073175
12950.0 0.00070926
12970.0 0.00068598
12990.0 0.00066339
13010.0 0.00064058
13030.0 0.00061704
13050.0 0.0005939
13070.0 0.00057176
13090.0 0.00054925
13110.0 0.00052723
13130.0 0.00050675
13150.0 0.00048734
13170.0 0.0004685
13190.0 0.0004519
13210.0 0.00043753
13230.0 0.00042477
13250.0 0.00041421
13270.0 0.00040627
13290.0 0.00040057
13310.0 0.00039725
13330.0 0.00039645
13350.0 0.00039785
13370.0 0.00040152
13390.0 0.00040737
13410.0 0.00041442
13430.0 0.00042297
13450.0 0.00043292
13470.0 0.00044333
13490.0 0.00045381
13510.0 0.00046514
13530.0 0.00047608
13550.0 0.00048605
13570.0 0.00049548
13590.0 0.00050428
13610.0 0.00051168
13630.0 0.00051774
13650.0 0.00052292
13670.0 0.00052677
13690.0 0.00052924
13710.0 0.00053062
13730.0 0.00053091
13750.0 0.00053001
13770.0 0.00052817
13790.0 0.00052542
13810.0 0.00052182
13830.0 0.00051763
13850.0 0.00051269
13870.0 0.00050704
13890.0 0.000501
13910.0 0.00049454
13930.0 0.00048743
13950.0 0.00047997
13970.0 0.00047256
13990.0 0.00046476
14010.0 0.00045671
14030.0 0.00044888
14050.0 0.0004412
14070.0 0.00043333
14090.0 0.00042599
14110.0 0.00041927
14130.0 0.00041296
14150.0 0.00040723
14170.0 0.00040252
14190.0 0.00039865
14210.0 0.0003956
14230.0 0.00039361
14250.0 0.00039264
14270.0 0.00039267
14290.0 0.0003938
14310.0 0.00039581
14330.0 0.0003987
14350.0 0.00040254
14370.0 0.00040702
14390.0 0.00041192
14410.0 0.00041754
14430.0 0.00042361
14450.0 0.00042975
14470.0 0.00043614
14490.0 0.00044305
14510.0 0.00044988
14530.0 0.00045668
14550.0 0.00046396
14570.0 0.0004716
14590.0 0.00047933
14610.0 0.00048772
14630.0 0.00049714
14650.0 0.00050706
14670.0 0.00051769
14690.0 0.00052968
14710.0 0.00054296
14730.0 0.00055648
14750.0 0.00057126
14770.0 0.00058737
14790.0 0.00060383
14810.0 0.00062045
14830.0 0.0006385
14850.0 0.00065634
14870.0 0.00067329
14890.0 0.00068998
14910.0 0.00070612
14930.0 0.00072036
14950.0 0.00073267
14970.0 0.00074347
14990.0 0.00075186
15010.0 0.00075781
15030.0 0.0007618
15050.0 0.00076401
15070.0 0.00076469
15090.0 0.00076443
15110.0 0.00076349
15130.0 0.00076217
15150.0 0.00076072
15170.0 0.00075911
15190.0 0.00075742
15210.0 0.00075579
15230.0 0.00075418
15250.0 0.0007525
15270.0 0.00075084
15290.0 0.00074929
15310.0 0.00074769
15330.0 0.00074606
15350.0 0.00074451
15370.0 0.00074297
15390.0 0.00074132
15410.0 0.00073975
15430.0 0.00073823
15450.0 0.00073666
15470.0 0.00073505
15490.0 0.00073355
15510.0 0.00073204
15530.0 0.00073045
15550.0 0.00072891
15570.0 0.00072742
15590.0 0.00072585
15610.0 0.00072424
15630.0 0.00072275
15650.0 0.00072122
15670.0 0.00071964
15690.0 0.00071809
15710.0 0.00071661
15730.0 0.00071503
15750.0 0.00071344
15770.0 0.00071191
15790.0 0.00071037
15810.0 0.00070872
15830.0 0.00070715
15850.0 0.00070562
15870.0 0.00070401
15890.0 0.00070239
15910.0 0.00070085
15930.0 0.00069925
15950.0 0.00069757
15970.0 0.00069595
15990.0 0.00069435
16010.0 0.00069268
16030.0 0.00069097
16050.0 0.00068937
16070.0 0.00068772
16090.0 0.00068599
16110.0 0.00068432
16130.0 0.00068267
16150.0 0.00068089
16170.0 0.00067913
16190.0 0.00067744
16210.0 0.00067569
16230.0 0.00067388
16250.0 0.00067213
16270.0 0.00067039
16290.0 0.00066855
16310.0 0.00066672
16330.0 0.00066495
16350.0 0.00066311
16370.0 0.00066116
16390.0 0.00065934
16410.0 0.00065749
16430.0 0.00065557
16450.0 0.00065365
16470.0 0.0006518
16490.0 0.00064984
16510.0 0.00064784
16530.0 0.00064591
16550.0 0.00064396
16570.0 0.00064191
16590.0 0.00063987
16610.0 0.00063792
16630.0 0.00063588
16650.0 0.00063379
16670.0 0.00063177
16690.0 0.00062973
16710.0 0.00062756
16730.0 0.00062545
16750.0 0.00062337
16770.0 0.00062122
16790.0 0.00061902
16810.0 0.0006169
16830.0 0.00061476
16850.0 0.00061252
16870.0 0.00061032
16890.0 0.00060815
16910.0 0.00060588
16930.0 0.00060357
16950.0 0.00060136
16970.0 0.0005991
16990.0 0.00059677
17010.0 0.00059448
17030.0 0.00059223
17050.0 0.00058987
17070.0 0.0005875
17090.0 0.00058518
17110.0 0.00058283
17130.0 0.00058038
17150.0 0.000578
17170.0 0.00057565
17190.0 0.00057322
17210.0 0.00057077
17230.0 0.00056839
17250.0 0.00056595
17270.0 0.00056343
17290.0 0.00056097
17310.0 0.00055853
17330.0 0.00055601
17350.0 0.00055346
17370.0 0.00055102
17390.0 0.00054851
17410.0 0.00054594
17430.0 0.00054342
17450.0 0.00054093
17470.0 0.0005383
17490.0 0.00053571
17510.0 0.00053319
17530.0 0.00053061
17550.0 0.00052797
17570.0 0.00052541
17590.0 0.00052285
17610.0 0.0005202
17630.0 0.00051757
17650.0 0.00051499
17670.0 0.00051236
17690.0 0.00050963
17710.0 0.00050704
17730.0 0.00050442
17750.0 0.00050174
17770.0 0.00049907
17790.0 0.00049648
17810.0 0.00049378
17830.0 0.00049107
17850.0 0.00048842
17870.0 0.00048577
17890.0 0.00048303
17910.0 0.00048032
17930.0 0.0004777
17950.0 0.00047499
17970.0 0.00047227
17990.0 0.00046961
18010.0 0.00046695
18030.0 0.00046417
18050.0 0.00046147
18070.0 0.00045881
18090.0 0.00045608
18110.0 0.00045333
18130.0 0.00045068
18150.0 0.000448
18170.0 0.00044525
18190.0 0.00044255
18210.0 0.00043989
18230.0 0.00043715
18250.0 0.00043438
18270.0 0.00043173
18290.0 0.00042904
18310.0 0.0004263
18330.0 0.00042361
18350.0 0.00042097
18370.0 0.00041824
18390.0 0.00041552
18410.0 0.00041287
18430.0 0.00041019
18450.0 0.00040743
18470.0 0.00040476
18490.0 0.00040213
18510.0 0.00039943
18530.0 0.00039674
18550.0 0.00039413
18570.0 0.00039146
18590.0 0.00038874
18610.0 0.0003861
18630.0 0.00038349
18650.0 0.0003808
18670.0 0.00037813
18690.0 0.00037555
18710.0 0.00037292
18730.0 0.00037026
18750.0 0.00036766
18770.0 0.0003651
18790.0 0.00036241
18810.0 0.00035979
18830.0 0.00035724
18850.0 0.00035464
18870.0 0.00035202
18890.0 0.00034947
18910.0 0.00034694
18930.0 0.00034433
18950.0 0.00034176
18970.0 0.00033925
18990.0 0.0003367
19010.0 0.00033408
19030.0 0.00033159
19050.0 0.0003291
19070.0 0.00032655
19090.0 0.00032404
19110.0 0.0003216
19130.0 0.00031907
19150.0 0.00031655
19170.0 0.0003141
19190.0 0.00031165
19210.0 0.00030913
19230.0 0.00030666
19250.0 0.00030428
19270.0 0.00030182
19290.0 0.00029937
19310.0 0.00029699
19330.0 0.0002946
19350.0 0.00029212
19370.0 0.00028973
19390.0 0.00028738
19410.0 0.00028498
19430.0 0.00028257
19450.0 0.00028025
19470.0 0.00027792
19490.0 0.00027553
19510.0 0.0002732
19530.0 0.00027092
19550.0 0.00026856
19570.0 0.0002662
19590.0 0.00026394
19610.0 0.00026166
19630.0 0.00025934
19650.0 0.00025708
19670.0 0.00025486
19690.0 0.00025257
19710.0 0.0002503
19730.0 0.00024809
19750.0 0.00024586
19770.0 0.00024358
19790.0 0.00024138
19810.0 0.00023921
19830.0 0.00023699
19850.0 0.00023477
19870.0 0.00023261
19890.0 0.00023035
19910.0 0.00022797
19930.0 0.00022555
19950.0 0.00022296
19970.0 0.00022001
19990.0 0.00021673
20010.0 0.00021745
20030.0 0.00021339
20050.0 0.0002089
20070.0 0.00020425
20090.0 0.00019943
20110.0 0.00019422
20130.0 0.00018913
20150.0 0.00018424
20170.0 0.00017932
20190.0 0.00017448
20210.0 0.00017001
20230.0 0.00016575
20250.0 0.00016158
20270.0 0.00015777
20290.0 0.00015435
20310.0 0.00015115
20330.0 0.00014822
20350.0 0.00014582
20370.0 0.00014373
20390.0 0.00014196
20410.0 0.0001406
20430.0 0.00013961
20450.0 0.00013893
20470.0 0.00013861
20490.0 0.00013861
20510.0 0.0001389
20530.0 0.0001395
20550.0 0.00014033
20570.0 0.00014132
20590.0 0.00014256
20610.0 0.00014396
20630.0 0.00014544
20650.0 0.00014704
20670.0 0.00014882
20690.0 0.00015058
20710.0 0.00015235
20730.0 0.00015422
20750.0 0.00015611
20770.0 0.00015792
20790.0 0.00015978
20810.0 0.00016171
20830.0 0.0001636
20850.0 0.00016546
20870.0 0.00016744
20890.0 0.00016944
20910.0 0.00017136
20930.0 0.00017337
20950.0 0.00017546
20970.0 0.0001775
20990.0 0.00017953
21010.0 0.00018169
21030.0 0.00018382
21050.0 0.00018586
21070.0 0.00018791
21090.0 0.00018998
21110.0 0.00019188
21130.0 0.00019366
21150.0 0.00019542
21170.0 0.00019702
21190.0 0.00019843
21210.0 0.00019974
21230.0 0.00020089
21250.0 0.0002018
21270.0 0.00020251
21290.0 0.00020303
21310.0 0.0002033
21330.0 0.00020331
21350.0 0.00020308
21370.0 0.00020257
21390.0 0.00020178
21410.0 0.00020072
21430.0 0.0001993
21450.0 0.0001976
21470.0 0.00019567
21490.0 0.0001934
21510.0 0.00019082
21530.0 0.00018811
21550.0 0.00018518
21570.0 0.00018196
21590.0 0.00017867
21610.0 0.00017538
21630.0 0.00017197
21650.0 0.00016849
21670.0 0.00016533
21690.0 0.00016225
21710.0 0.00015928
21730.0 0.00015662
21750.0 0.00015432
21770.0 0.00015222
21790.0 0.00015052
21810.0 0.00014925
21830.0 0.00014835
21850.0 0.00014786
21870.0 0.00014779
21890.0 0.00014811
21910.0 0.00014882
21930.0 0.00014993
21950.0 0.00015133
21970.0 0.00015307
21990.0 0.00015522
22010.0 0.00015754
22030.0 0.00016005
22050.0 0.00016286
22070.0 0.00016584
22090.0 0.00016881
22110.0 0.00017195
22130.0 0.00017523
22150.0 0.00017842
22170.0 0.00018154
22190.0 0.00018475
22210.0 0.00018783
22230.0 0.00019061
22250.0 0.00019328
22270.0 0.00019579
22290.0 0.00019796
22310.0 0.00019982
22330.0 0.00020146
22350.0 0.00020272
22370.0 0.00020358
22390.0 0.00020407
22410.0 0.00020417
22430.0 0.00020385
22450.0 0.00020314
22470.0 0.00020198
22490.0 0.00020042
22510.0 0.00019854
22530.0 0.00019618
22550.0 0.00019338
22570.0 0.00019033
22590.0 0.00018695
22610.0 0.00018312
22630.0 0.00017904
22650.0 0.00017486
22670.0 0.00017028
22690.0 0.00016544
22710.0 0.00016058
22730.0 0.0001556
22750.0 0.00015022
22770.0 0.00014498
22790.0 0.00013989
22810.0 0.00013467
22830.0 0.00012948
22850.0 0.00012464
22870.0 0.00011993
22890.0 0.00011527
22910.0 0.00011103
22930.0 0.00010719
22950.0 0.00010361
22970.0 0.00010038
22990.0 9.781e-05
23010.0 9.5647e-05
23030.0 9.394e-05
23050.0 9.2802e-05
23070.0 9.2196e-05
23090.0 9.2102e-05
