#lamb flux
1010.0 1.7619e-06
1030.0 1.8415e-06
1050.0 1.9335e-06
1070.0 2.0373e-06
1090.0 2.1552e-06
1110.0 2.2765e-06
1130.0 2.3989e-06
1150.0 2.5276e-06
1170.0 2.6607e-06
1190.0 2.7875e-06
1210.0 2.9166e-06
1230.0 3.0506e-06
1250.0 3.1825e-06
1270.0 3.3114e-06
1290.0 3.4481e-06
1310.0 3.5855e-06
1330.0 3.7184e-06
1350.0 3.8534e-06
1370.0 3.9936e-06
1390.0 4.1314e-06
1410.0 4.2663e-06
1430.0 4.408e-06
1450.0 4.5506e-06
1470.0 4.6898e-06
1490.0 4.8313e-06
1510.0 4.9811e-06
1530.0 5.1246e-06
1550.0 5.2672e-06
1570.0 5.415e-06
1590.0 5.5635e-06
1610.0 5.7066e-06
1630.0 5.854e-06
1650.0 6.0053e-06
1670.0 6.1521e-06
1690.0 6.2971e-06
1710.0 6.4469e-06
1730.0 6.597e-06
1750.0 6.7382e-06
1770.0 6.8823e-06
1790.0 7.0281e-06
1810.0 7.1682e-06
1830.0 7.3045e-06
1850.0 7.4474e-06
1870.0 7.5849e-06
1890.0 7.716e-06
1910.0 7.8478e-06
1930.0 7.9811e-06
1950.0 8.1061e-06
1970.0 8.2277e-06
1990.0 8.3526e-06
2010.0 8.4737e-06
2030.0 8.5887e-06
2050.0 8.7066e-06
2070.0 8.8272e-06
2090.0 8.9397e-06
2110.0 9.052e-06
2130.0 9.1689e-06
2150.0 9.2845e-06
2170.0 9.3963e-06
2190.0 9.5153e-06
2210.0 9.6382e-06
2230.0 9.7597e-06
2250.0 9.8851e-06
2270.0 1.0021e-05
2290.0 1.016e-05
2310.0 1.0299e-05
2330.0 1.045e-05
2350.0 1.0611e-05
2370.0 1.0774e-05
2390.0 1.0949e-05
2410.0 1.1141e-05
2430.0 1.1339e-05
2450.0 1.1544e-05
2470.0 1.176e-05
2490.0 1.1981e-05
2510.0 1.2199e-05
2530.0 1.2431e-05
2550.0 1.2707e-05
2570.0 1.3073e-05
2590.0 1.3596e-05
2610.0 1.4421e-05
2630.0 1.5639e-05
2650.0 1.7251e-05
2670.0 1.9322e-05
2690.0 2.1851e-05
2710.0 2.4593e-05
2730.0 2.7404e-05
2750.0 3.0336e-05
2770.0 3.3184e-05
2790.0 3.5864e-05
2810.0 3.85e-05
2830.0 4.1207e-05
2850.0 4.3835e-05
2870.0 4.6516e-05
2890.0 4.9362e-05
2910.0 5.2318e-05
2930.0 5.5298e-05
2950.0 5.8461e-05
2970.0 6.1781e-05
2990.0 6.513e-05
3010.0 0.00012109
3030.0 0.00012742
3050.0 0.00013379
3070.0 0.00013979
3090.0 0.00014539
3110.0 0.00014977
3130.0 0.00015185
3150.0 0.00015051
3170.0 0.00014355
3190.0 0.00013032
3210.0 0.00011083
3230.0 8.8223e-05
3250.0 0.00010497
3270.0 6.4735e-05
3290.0 0.0001104
3310.0 4.8859e-05
3330.0 5.2289e-05
3350.0 6.4063e-05
3370.0 7.6941e-05
3390.0 9.0346e-05
3410.0 0.00010369
3430.0 0.00011747
3450.0 0.00013116
3470.0 0.00014391
3490.0 0.00015261
3510.0 0.0001764
3530.0 0.00022351
3550.0 0.00024019
3570.0 0.00023953
3590.0 0.00031502
3610.0 0.00026106
3630.0 0.00032896
3650.0 0.00034412
3670.0 0.00040662
3690.0 0.00041697
3710.0 0.00037409
3730.0 0.00045893
3750.0 0.00047827
3770.0 0.0004861
3790.0 0.00044995
3810.0 0.00039015
3830.0 0.00042295
3850.0 0.00040259
3870.0 0.00047193
3890.0 0.00048261
3910.0 0.00050342
3930.0 0.00057268
3950.0 0.00063608
3970.0 0.00079034
3990.0 0.00074224
4010.0 0.00062578
4030.0 0.00069589
4050.0 0.00067561
4070.0 0.00070702
4090.0 0.00067056
4110.0 0.00055527
4130.0 0.00063993
4150.0 0.00059749
4170.0 0.00062114
4190.0 0.00061873
4210.0 0.00070137
4230.0 0.00058108
4250.0 0.00066076
4270.0 0.00065996
4290.0 0.0006689
4310.0 0.00075452
4330.0 0.00078522
4350.0 0.00070289
4370.0 0.00065937
4390.0 0.00069037
4410.0 0.00064922
4430.0 0.00052587
4450.0 0.0005096
4470.0 0.00055139
4490.0 0.00048125
4510.0 0.00055378
4530.0 0.00060606
4550.0 0.00076575
4570.0 0.0010559
4590.0 0.0011563
4610.0 0.001036
4630.0 0.0013334
4650.0 0.0016469
4670.0 0.0015906
4690.0 0.0012111
4710.0 0.0011881
4730.0 0.0012487
4750.0 0.0010764
4770.0 0.00086233
4790.0 0.00069151
4810.0 0.00085563
4830.0 0.00096479
4850.0 0.00097954
4870.0 0.000687
4890.0 0.0010589
4910.0 0.0012624
4930.0 0.0013624
4950.0 0.0014681
4970.0 0.0012743
4990.0 0.0013797
5010.0 0.0013851
5030.0 0.0012941
5050.0 0.0011594
5070.0 0.00088197
5090.0 0.00076185
5110.0 0.00072971
5130.0 0.00068425
5150.0 0.00075091
5170.0 0.00069347
5190.0 0.00078646
5210.0 0.00079336
5230.0 0.0008608
5250.0 0.0010558
5270.0 0.0010352
5290.0 0.0010786
5310.0 0.0013547
5330.0 0.0015173
5350.0 0.0014353
5370.0 0.0013634
5390.0 0.0014156
5410.0 0.0015583
5430.0 0.0016536
5450.0 0.0018212
5470.0 0.0019977
5490.0 0.0021386
5510.0 0.0024363
5530.0 0.0025197
5550.0 0.0025903
5570.0 0.0026305
5590.0 0.002595
5610.0 0.0025294
5630.0 0.0024978
5650.0 0.002531
5670.0 0.002514
5690.0 0.0022664
5710.0 0.0021159
5730.0 0.0020061
5750.0 0.0020345
5770.0 0.001855
5790.0 0.0018023
5810.0 0.0018724
5830.0 0.0019532
5850.0 0.0018524
5870.0 0.0018117
5890.0 0.0019493
5910.0 0.0018891
5930.0 0.0017151
5950.0 0.0015963
5970.0 0.0016053
5990.0 0.0014536
6010.0 0.0013165
6030.0 0.0012747
6050.0 0.0012175
6070.0 0.0010574
6090.0 0.0010078
6110.0 0.0011339
6130.0 0.00122
6150.0 0.0012906
6170.0 0.0013471
6190.0 0.0013861
6210.0 0.0014082
6230.0 0.001499
6250.0 0.0013825
6270.0 0.0012416
6290.0 0.0010998
6310.0 0.001001
6330.0 0.00093996
6350.0 0.0008685
6370.0 0.00088814
6390.0 0.0010227
6410.0 0.0012327
6430.0 0.0014404
6450.0 0.0015005
6470.0 0.0015667
6490.0 0.001787
6510.0 0.0019221
6530.0 0.0018682
6550.0 0.0018453
6570.0 0.0018686
6590.0 0.0018268
6610.0 0.0019075
6630.0 0.0018407
6650.0 0.0017213
6670.0 0.0015904
6690.0 0.0014858
6710.0 0.0015888
6730.0 0.0014885
6750.0 0.0013981
6770.0 0.001361
6790.0 0.001414
6810.0 0.0014838
6830.0 0.0014502
6850.0 0.0013636
6870.0 0.0013555
6890.0 0.0013066
6910.0 0.0012407
6930.0 0.0013389
6950.0 0.0013043
6970.0 0.0013004
6990.0 0.0013308
7010.0 0.0012956
7030.0 0.0012161
7050.0 0.0011217
7070.0 0.001084
7090.0 0.00099205
7110.0 0.00089654
7130.0 0.00079605
7150.0 0.0007479
7170.0 0.00086161
7190.0 0.00090941
7210.0 0.00092388
7230.0 0.00099586
7250.0 0.0010037
7270.0 0.00099802
7290.0 0.0010317
7310.0 0.0010523
7330.0 0.0010076
7350.0 0.00096176
7370.0 0.00094983
7390.0 0.0010022
7410.0 0.0011354
7430.0 0.0012517
7450.0 0.0013772
7470.0 0.0014309
7490.0 0.001467
7510.0 0.0014024
7530.0 0.0013448
7550.0 0.0012427
7570.0 0.0010755
7590.0 0.0010303
7610.0 0.0010175
7630.0 0.0010199
7650.0 0.0011407
7670.0 0.0012569
7690.0 0.001368
7710.0 0.0014905
7730.0 0.0015819
7750.0 0.0016519
7770.0 0.001661
7790.0 0.0017553
7810.0 0.0018027
7830.0 0.0017404
7850.0 0.0017463
7870.0 0.0016704
7890.0 0.0016731
7910.0 0.0015798
7930.0 0.0015616
7950.0 0.0014541
7970.0 0.0014773
7990.0 0.0014393
8010.0 0.0014111
8030.0 0.0014081
8050.0 0.001458
8070.0 0.00142
8090.0 0.0014199
8110.0 0.0013716
8130.0 0.0013648
8150.0 0.0013155
8170.0 0.0012763
8190.0 0.0012576
8210.0 0.0012648
8230.0 0.0011544
8250.0 0.0010655
8270.0 0.00092908
8290.0 0.00075792
8310.0 0.00061652
8330.0 0.00048313
8350.0 0.00041528
8370.0 0.00044596
8390.0 0.00048481
8410.0 0.00052684
8430.0 0.00061265
8450.0 0.00064927
8470.0 0.00068021
8490.0 0.00076382
8510.0 0.00083858
8530.0 0.00096956
8550.0 0.0011429
8570.0 0.001288
8590.0 0.0013998
8610.0 0.0015152
8630.0 0.0016253
8650.0 0.0016435
8670.0 0.0016508
8690.0 0.0017053
8710.0 0.0017063
8730.0 0.001713
8750.0 0.0016503
8770.0 0.0016496
8790.0 0.0016232
8810.0 0.0015038
8830.0 0.0014816
8850.0 0.0013973
8870.0 0.00134
8890.0 0.0012532
8910.0 0.0013077
8930.0 0.0012143
8950.0 0.0011802
8970.0 0.0011701
8990.0 0.0011347
9010.0 0.001134
9030.0 0.0010974
9050.0 0.0010912
9070.0 0.0010889
9090.0 0.0010865
9110.0 0.0010844
9130.0 0.0010817
9150.0 0.0010788
9170.0 0.001074
9190.0 0.0010661
9210.0 0.0010745
9230.0 0.0010688
9250.0 0.0010644
9270.0 0.0010602
9290.0 0.0010562
9310.0 0.0010522
9330.0 0.0010483
9350.0 0.0010443
9370.0 0.0010403
9390.0 0.0010362
9410.0 0.001032
9430.0 0.0010277
9450.0 0.0010232
9470.0 0.0010187
9490.0 0.0010144
9510.0 0.00101
9530.0 0.0010055
9550.0 0.001001
9570.0 0.00099634
9590.0 0.00099169
9610.0 0.00098701
9630.0 0.00098228
9650.0 0.00097753
9670.0 0.00097278
9690.0 0.00096799
9710.0 0.00096319
9730.0 0.00095839
9750.0 0.00095358
9770.0 0.00094875
9790.0 0.00094394
9810.0 0.00093914
9830.0 0.00093433
9850.0 0.00092954
9870.0 0.00092476
9890.0 0.00091999
9910.0 0.00091522
9930.0 0.00091043
9950.0 0.00090165
9970.0 0.00089815
9990.0 0.00089446
10010.0 0.00089069
10030.0 0.00088659
10050.0 0.00088214
10070.0 0.0008772
10090.0 0.00087309
10110.0 0.00086873
10130.0 0.00086448
10150.0 0.00086024
10170.0 0.00085588
10190.0 0.00085139
10210.0 0.00084714
10230.0 0.00084299
10250.0 0.0008387
10270.0 0.00083448
10290.0 0.00083048
10310.0 0.00082635
10330.0 0.00082213
10350.0 0.00081817
10370.0 0.00081427
10390.0 0.00081024
10410.0 0.00080628
10430.0 0.00080258
10450.0 0.00079875
10470.0 0.00079488
10490.0 0.0007912
10510.0 0.00078759
10530.0 0.00078375
10550.0 0.00078008
10570.0 0.00077662
10590.0 0.00077305
10610.0 0.00076945
10630.0 0.00076606
10650.0 0.0007627
10670.0 0.00075916
10690.0 0.00075577
10710.0 0.00075252
10730.0 0.00074917
10750.0 0.00074571
10770.0 0.00074258
10790.0 0.00073942
10810.0 0.00073613
10830.0 0.00073294
10850.0 0.00072991
10870.0 0.00072654
10890.0 0.00072304
10910.0 0.00071948
10930.0 0.00071543
10950.0 0.00071046
10970.0 0.00070468
10990.0 0.00069807
11010.0 0.00066123
11030.0 0.00065255
11050.0 0.00064311
11070.0 0.00063265
11090.0 0.0006208
11110.0 0.00060921
11130.0 0.00059763
11150.0 0.00058561
11170.0 0.00057365
11190.0 0.00056247
11210.0 0.0005512
11230.0 0.00053987
11250.0 0.00052926
11270.0 0.0005192
11290.0 0.00050909
11310.0 0.00049946
11330.0 0.00049096
11350.0 0.00048271
11370.0 0.00047479
11390.0 0.00046769
11410.0 0.00046116
11430.0 0.00045456
11450.0 0.00044844
11470.0 0.00044276
11490.0 0.000437
11510.0 0.00043098
11530.0 0.00042518
11550.0 0.00041923
11570.0 0.00041266
11590.0 0.00040581
11610.0 0.00039887
11630.0 0.0003912
11650.0 0.00038287
11670.0 0.00037465
11690.0 0.00036618
11710.0 0.00035715
11730.0 0.00034816
11750.0 0.00033961
11770.0 0.00033078
11790.0 0.00032203
11810.0 0.00031394
11830.0 0.00030623
11850.0 0.00029848
11870.0 0.00029148
11890.0 0.00028522
11910.0 0.00027917
11930.0 0.00027349
11950.0 0.0002685
11970.0 0.0002638
11990.0 0.00025919
12010.0 0.00025503
12030.0 0.00025124
12050.0 0.00024752
12070.0 0.00024389
12090.0 0.00024075
12110.0 0.00023772
12130.0 0.00023477
12150.0 0.00023214
12170.0 0.00022987
12190.0 0.00022769
12210.0 0.00022591
12230.0 0.00022466
12250.0 0.00022386
12270.0 0.00022357
12290.0 0.00022395
12310.0 0.00022499
12330.0 0.00022672
12350.0 0.0002292
12370.0 0.00023234
12390.0 0.00023616
12410.0 0.0002408
12430.0 0.00024581
12450.0 0.0002512
12470.0 0.00025706
12490.0 0.00026313
12510.0 0.00026907
12530.0 0.00027511
12550.0 0.00028111
12570.0 0.00028672
12590.0 0.00029197
12610.0 0.00029696
12630.0 0.00030149
12650.0 0.00030539
12670.0 0.00030888
12690.0 0.00031189
12710.0 0.00031436
12730.0 0.00031636
12750.0 0.00031788
12770.0 0.00031893
12790.0 0.00031956
12810.0 0.00031977
12830.0 0.00031953
12850.0 0.00031899
12870.0 0.00031814
12890.0 0.00031687
12910.0 0.00031532
12930.0 0.0003136
12950.0 0.00031148
12970.0 0.00030901
12990.0 0.00030647
13010.0 0.00030369
13030.0 0.00030054
13050.0 0.00029723
13070.0 0.00029389
13090.0 0.0002902
13110.0 0.0002863
13130.0 0.00028248
13150.0 0.00027861
13170.0 0.00027452
13190.0 0.00027072
13210.0 0.00026726
13230.0 0.00026395
13250.0 0.000261
13270.0 0.00025865
13290.0 0.00025674
13310.0 0.00025531
13330.0 0.00025453
13350.0 0.00025428
13370.0 0.0002545
13390.0 0.00025513
13410.0 0.00025604
13430.0 0.00025709
13450.0 0.00025816
13470.0 0.00025908
13490.0 0.00025972
13510.0 0.00025996
13530.0 0.00025968
13550.0 0.00025889
13570.0 0.00025752
13590.0 0.00025552
13610.0 0.00025306
13630.0 0.00025026
13650.0 0.00024696
13670.0 0.00024341
13690.0 0.00023984
13710.0 0.00023614
13730.0 0.00023228
13750.0 0.00022875
13770.0 0.00022539
13790.0 0.0002221
13810.0 0.00021903
13830.0 0.0002163
13850.0 0.00021366
13870.0 0.00021117
13890.0 0.00020893
13910.0 0.00020685
13930.0 0.00020481
13950.0 0.0002029
13970.0 0.00020117
13990.0 0.00019948
14010.0 0.00019785
14030.0 0.00019636
14050.0 0.00019497
14070.0 0.0001936
14090.0 0.00019238
14110.0 0.00019128
14130.0 0.00019027
14150.0 0.00018936
14170.0 0.00018859
14190.0 0.00018793
14210.0 0.00018737
14230.0 0.00018693
14250.0 0.0001866
14270.0 0.00018639
14290.0 0.00018631
14310.0 0.00018633
14330.0 0.00018646
14350.0 0.0001867
14370.0 0.00018703
14390.0 0.00018738
14410.0 0.00018781
14430.0 0.00018826
14450.0 0.00018867
14470.0 0.00018904
14490.0 0.0001894
14510.0 0.00018965
14530.0 0.0001898
14550.0 0.00018989
14570.0 0.00018992
14590.0 0.00018988
14610.0 0.00018984
14630.0 0.00018984
14650.0 0.00018989
14670.0 0.00019002
14690.0 0.00019034
14710.0 0.00019087
14730.0 0.00019156
14750.0 0.00019253
14770.0 0.00019385
14790.0 0.00019541
14810.0 0.00019722
14830.0 0.00019952
14850.0 0.00020208
14870.0 0.00020477
14890.0 0.0002077
14910.0 0.00021084
14930.0 0.00021379
14950.0 0.00021646
14970.0 0.00021892
14990.0 0.00022083
15010.0 0.00022206
15030.0 0.00022273
15050.0 0.00022286
15070.0 0.00022245
15090.0 0.0002217
15110.0 0.00022073
15130.0 0.0002196
15150.0 0.0002184
15170.0 0.00021715
15190.0 0.00021588
15210.0 0.0002146
15230.0 0.00021332
15250.0 0.00021203
15270.0 0.00021075
15290.0 0.00020947
15310.0 0.00020819
15330.0 0.00020691
15350.0 0.00020563
15370.0 0.00020436
15390.0 0.00020307
15410.0 0.0002018
15430.0 0.00020053
15450.0 0.00019926
15470.0 0.00019799
15490.0 0.00019673
15510.0 0.00019547
15530.0 0.00019421
15550.0 0.00019296
15570.0 0.00019172
15590.0 0.00019047
15610.0 0.00018922
15630.0 0.00018799
15650.0 0.00018676
15670.0 0.00018553
15690.0 0.00018431
15710.0 0.00018311
15730.0 0.00018189
15750.0 0.00018069
15770.0 0.00017949
15790.0 0.0001783
15810.0 0.00017711
15830.0 0.00017593
15850.0 0.00017476
15870.0 0.00017359
15890.0 0.00017243
15910.0 0.00017129
15930.0 0.00017014
15950.0 0.000169
15970.0 0.00016786
15990.0 0.00016674
16010.0 0.00016562
16030.0 0.00016451
16050.0 0.00016341
16070.0 0.00016232
16090.0 0.00016123
16110.0 0.00016015
16130.0 0.00015909
16150.0 0.00015802
16170.0 0.00015696
16190.0 0.00015591
16210.0 0.00015488
16230.0 0.00015384
16250.0 0.00015282
16270.0 0.00015181
16290.0 0.0001508
16310.0 0.0001498
16330.0 0.00014881
16350.0 0.00014783
16370.0 0.00014684
16390.0 0.00014588
16410.0 0.00014493
16430.0 0.00014398
16450.0 0.00014303
16470.0 0.00014211
16490.0 0.00014118
16510.0 0.00014026
16530.0 0.00013936
16550.0 0.00013846
16570.0 0.00013756
16590.0 0.00013668
16610.0 0.00013581
16630.0 0.00013494
16650.0 0.00013408
16670.0 0.00013324
16690.0 0.0001324
16710.0 0.00013156
16730.0 0.00013073
16750.0 0.00012992
16770.0 0.00012911
16790.0 0.0001283
16810.0 0.00012751
16830.0 0.00012673
16850.0 0.00012595
16870.0 0.00012518
16890.0 0.00012443
16910.0 0.00012367
16930.0 0.00012292
16950.0 0.00012218
16970.0 0.00012146
16990.0 0.00012073
17010.0 0.00012002
17030.0 0.00011931
17050.0 0.00011861
17070.0 0.00011792
17090.0 0.00011723
17110.0 0.00011656
17130.0 0.00011588
17150.0 0.00011522
17170.0 0.00011457
17190.0 0.00011392
17210.0 0.00011328
17230.0 0.00011265
17250.0 0.00011202
17270.0 0.00011139
17290.0 0.00011078
17310.0 0.00011018
17330.0 0.00010958
17350.0 0.00010898
17370.0 0.0001084
17390.0 0.00010782
17410.0 0.00010724
17430.0 0.00010668
17450.0 0.00010612
17470.0 0.00010556
17490.0 0.00010501
17510.0 0.00010448
17530.0 0.00010394
17550.0 0.00010341
17570.0 0.00010289
17590.0 0.00010238
17610.0 0.00010186
17630.0 0.00010136
17650.0 0.00010086
17670.0 0.00010037
17690.0 9.9872e-05
17710.0 9.9394e-05
17730.0 9.8921e-05
17750.0 9.8448e-05
17770.0 9.7982e-05
17790.0 9.7528e-05
17810.0 9.7072e-05
17830.0 9.6619e-05
17850.0 9.6178e-05
17870.0 9.5742e-05
17890.0 9.5304e-05
17910.0 9.4875e-05
17930.0 9.4457e-05
17950.0 9.4038e-05
17970.0 9.3623e-05
17990.0 9.3218e-05
18010.0 9.2817e-05
18030.0 9.2412e-05
18050.0 9.2018e-05
18070.0 9.1633e-05
18090.0 9.1247e-05
18110.0 9.0863e-05
18130.0 9.0492e-05
18150.0 9.0123e-05
18170.0 8.9753e-05
18190.0 8.9391e-05
18210.0 8.9037e-05
18230.0 8.868e-05
18250.0 8.8326e-05
18270.0 8.7985e-05
18290.0 8.7644e-05
18310.0 8.7304e-05
18330.0 8.6972e-05
18350.0 8.6647e-05
18370.0 8.6319e-05
18390.0 8.5995e-05
18410.0 8.568e-05
18430.0 8.5367e-05
18450.0 8.5051e-05
18470.0 8.4746e-05
18490.0 8.4446e-05
18510.0 8.4145e-05
18530.0 8.3847e-05
18550.0 8.3559e-05
18570.0 8.327e-05
18590.0 8.298e-05
18610.0 8.2698e-05
18630.0 8.2422e-05
18650.0 8.2143e-05
18670.0 8.1868e-05
18690.0 8.1603e-05
18710.0 8.1337e-05
18730.0 8.1071e-05
18750.0 8.0812e-05
18770.0 8.0558e-05
18790.0 8.0299e-05
18810.0 8.0046e-05
18830.0 7.98e-05
18850.0 7.9554e-05
18870.0 7.9308e-05
18890.0 7.907e-05
18910.0 7.8836e-05
18930.0 7.8598e-05
18950.0 7.8365e-05
18970.0 7.8138e-05
18990.0 7.791e-05
19010.0 7.768e-05
19030.0 7.7461e-05
19050.0 7.7243e-05
19070.0 7.7024e-05
19090.0 7.6808e-05
19110.0 7.6601e-05
19130.0 7.6388e-05
19150.0 7.6177e-05
19170.0 7.5973e-05
19190.0 7.5771e-05
19210.0 7.5566e-05
19230.0 7.5365e-05
19250.0 7.5172e-05
19270.0 7.4976e-05
19290.0 7.4781e-05
19310.0 7.4593e-05
19330.0 7.4405e-05
19350.0 7.4213e-05
19370.0 7.4027e-05
19390.0 7.3847e-05
19410.0 7.3664e-05
19430.0 7.3481e-05
19450.0 7.3306e-05
19470.0 7.3131e-05
19490.0 7.2954e-05
19510.0 7.2782e-05
19530.0 7.2613e-05
19550.0 7.2441e-05
19570.0 7.2269e-05
19590.0 7.2106e-05
19610.0 7.1942e-05
19630.0 7.1776e-05
19650.0 7.1615e-05
19670.0 7.1458e-05
19690.0 7.1296e-05
19710.0 7.1137e-05
19730.0 7.0984e-05
19750.0 7.0829e-05
19770.0 7.0671e-05
19790.0 7.052e-05
19810.0 7.0371e-05
19830.0 7.0218e-05
19850.0 7.0064e-05
19870.0 6.9911e-05
19890.0 6.9743e-05
19910.0 6.9548e-05
19930.0 6.9324e-05
19950.0 6.9048e-05
19970.0 6.8681e-05
19990.0 6.8211e-05
20010.0 6.7653e-05
20030.0 6.6955e-05
20050.0 6.6122e-05
20070.0 6.5209e-05
20090.0 6.4222e-05
20110.0 6.3103e-05
20130.0 6.1972e-05
20150.0 6.0853e-05
20170.0 5.9695e-05
20190.0 5.8521e-05
20210.0 5.7412e-05
20230.0 5.6328e-05
20250.0 5.5237e-05
20270.0 5.4219e-05
20290.0 5.3283e-05
20310.0 5.2387e-05
20330.0 5.1541e-05
20350.0 5.0833e-05
20370.0 5.02e-05
20390.0 4.9641e-05
20410.0 4.919e-05
20430.0 4.8845e-05
20450.0 4.8578e-05
20470.0 4.8412e-05
20490.0 4.8344e-05
20510.0 4.836e-05
20530.0 4.8462e-05
20550.0 4.8639e-05
20570.0 4.8873e-05
20590.0 4.9175e-05
20610.0 4.9527e-05
20630.0 4.9904e-05
20650.0 5.0312e-05
20670.0 5.076e-05
20690.0 5.1195e-05
20710.0 5.1619e-05
20730.0 5.2042e-05
20750.0 5.2444e-05
20770.0 5.2798e-05
20790.0 5.3122e-05
20810.0 5.3408e-05
20830.0 5.3638e-05
20850.0 5.3813e-05
20870.0 5.3938e-05
20890.0 5.4004e-05
20910.0 5.4012e-05
20930.0 5.3966e-05
20950.0 5.3865e-05
20970.0 5.3718e-05
20990.0 5.3531e-05
21010.0 5.329e-05
21030.0 5.3015e-05
21050.0 5.2718e-05
21070.0 5.2389e-05
21090.0 5.2027e-05
21110.0 5.1667e-05
21130.0 5.1302e-05
21150.0 5.0919e-05
21170.0 5.0542e-05
21190.0 5.0187e-05
21210.0 4.9829e-05
21230.0 4.9484e-05
21250.0 4.9177e-05
21270.0 4.8898e-05
21290.0 4.8641e-05
21310.0 4.8425e-05
21330.0 4.8257e-05
21350.0 4.8122e-05
21370.0 4.8031e-05
21390.0 4.7987e-05
21410.0 4.7986e-05
21430.0 4.8032e-05
21450.0 4.8122e-05
21470.0 4.825e-05
21490.0 4.842e-05
21510.0 4.8632e-05
21530.0 4.8868e-05
21550.0 4.9135e-05
21570.0 4.944e-05
21590.0 4.9764e-05
21610.0 5.0101e-05
21630.0 5.0467e-05
21650.0 5.0861e-05
21670.0 5.1242e-05
21690.0 5.1641e-05
21710.0 5.2061e-05
21730.0 5.2481e-05
21750.0 5.2894e-05
21770.0 5.3336e-05
21790.0 5.378e-05
21810.0 5.4212e-05
21830.0 5.465e-05
21850.0 5.5104e-05
21870.0 5.5546e-05
21890.0 5.5973e-05
21910.0 5.6413e-05
21930.0 5.6848e-05
21950.0 5.726e-05
21970.0 5.7668e-05
21990.0 5.808e-05
22010.0 5.8456e-05
22030.0 5.8806e-05
22050.0 5.9142e-05
22070.0 5.9448e-05
22090.0 5.9708e-05
22110.0 5.9937e-05
22130.0 6.0128e-05
22150.0 6.0266e-05
22170.0 6.0354e-05
22190.0 6.039e-05
22210.0 6.0366e-05
22230.0 6.0285e-05
22250.0 6.0144e-05
22270.0 5.9935e-05
22290.0 5.9672e-05
22310.0 5.9355e-05
22330.0 5.8959e-05
22350.0 5.8511e-05
22370.0 5.8024e-05
22390.0 5.7476e-05
22410.0 5.686e-05
22430.0 5.6233e-05
22450.0 5.5576e-05
22470.0 5.4862e-05
22490.0 5.4131e-05
22510.0 5.3409e-05
22530.0 5.2643e-05
22550.0 5.1856e-05
22570.0 5.1102e-05
22590.0 5.0355e-05
22610.0 4.9592e-05
22630.0 4.8855e-05
22650.0 4.817e-05
22670.0 4.748e-05
22690.0 4.6811e-05
22710.0 4.6195e-05
22730.0 4.561e-05
22750.0 4.5024e-05
22770.0 4.4494e-05
22790.0 4.4011e-05
22810.0 4.3544e-05
22830.0 4.3104e-05
22850.0 4.2711e-05
