#lamb flux
1010.0 4.088e-07
1030.0 4.4111e-07
1050.0 4.7834e-07
1070.0 5.2029e-07
1090.0 5.6794e-07
1110.0 6.1687e-07
1130.0 6.6618e-07
1150.0 7.1789e-07
1170.0 7.713e-07
1190.0 8.2206e-07
1210.0 8.7358e-07
1230.0 9.2692e-07
1250.0 9.7929e-07
1270.0 1.0303e-06
1290.0 1.0842e-06
1310.0 1.1383e-06
1330.0 1.1903e-06
1350.0 1.243e-06
1370.0 1.2976e-06
1390.0 1.3509e-06
1410.0 1.4029e-06
1430.0 1.4574e-06
1450.0 1.5119e-06
1470.0 1.5649e-06
1490.0 1.6186e-06
1510.0 1.6753e-06
1530.0 1.7293e-06
1550.0 1.7827e-06
1570.0 1.838e-06
1590.0 1.8934e-06
1610.0 1.9465e-06
1630.0 2.0012e-06
1650.0 2.0573e-06
1670.0 2.1116e-06
1690.0 2.1651e-06
1710.0 2.2204e-06
1730.0 2.2759e-06
1750.0 2.328e-06
1770.0 2.3812e-06
1790.0 2.4352e-06
1810.0 2.4871e-06
1830.0 2.5376e-06
1850.0 2.5908e-06
1870.0 2.642e-06
1890.0 2.6908e-06
1910.0 2.74e-06
1930.0 2.7897e-06
1950.0 2.8362e-06
1970.0 2.8813e-06
1990.0 2.9275e-06
2010.0 2.9719e-06
2030.0 3.0136e-06
2050.0 3.0559e-06
2070.0 3.0985e-06
2090.0 3.1372e-06
2110.0 3.1747e-06
2130.0 3.2128e-06
2150.0 3.2489e-06
2170.0 3.2819e-06
2190.0 3.3158e-06
2210.0 3.3491e-06
2230.0 3.3794e-06
2250.0 3.4087e-06
2270.0 3.4393e-06
2290.0 3.4674e-06
2310.0 3.4928e-06
2330.0 3.519e-06
2350.0 3.5447e-06
2370.0 3.5679e-06
2390.0 3.5908e-06
2410.0 3.6154e-06
2430.0 3.6383e-06
2450.0 3.6602e-06
2470.0 3.6844e-06
2490.0 3.7129e-06
2510.0 3.7467e-06
2530.0 3.8001e-06
2550.0 3.8963e-06
2570.0 4.0595e-06
2590.0 4.3182e-06
2610.0 4.7453e-06
2630.0 5.3594e-06
2650.0 6.127e-06
2670.0 7.0559e-06
2690.0 8.1117e-06
2710.0 9.149e-06
2730.0 1.0098e-05
2750.0 1.0974e-05
2770.0 1.1699e-05
2790.0 1.2263e-05
2810.0 1.2732e-05
2830.0 1.3152e-05
2850.0 1.3506e-05
2870.0 1.3844e-05
2890.0 1.4197e-05
2910.0 1.4556e-05
2930.0 1.4907e-05
2950.0 1.5283e-05
2970.0 1.568e-05
2990.0 1.607e-05
3010.0 9.1214e-05
3030.0 9.3517e-05
3050.0 9.5782e-05
3070.0 9.776e-05
3090.0 9.9412e-05
3110.0 0.00010025
3130.0 9.9704e-05
3150.0 9.7205e-05
3170.0 9.1636e-05
3190.0 8.2928e-05
3210.0 7.1343e-05
3230.0 5.8444e-05
3250.0 7.0266e-05
3270.0 5.6682e-05
3290.0 8.6003e-05
3310.0 5.4986e-05
3330.0 5.5311e-05
3350.0 6.0132e-05
3370.0 6.6071e-05
3390.0 7.2723e-05
3410.0 7.9445e-05
3430.0 8.6555e-05
3450.0 9.3847e-05
3470.0 0.00010072
3490.0 0.00010606
3510.0 0.00011983
3530.0 0.00014256
3550.0 0.00014163
3570.0 0.00012734
3590.0 0.00015535
3610.0 0.00012249
3630.0 0.00016621
3650.0 0.00018668
3670.0 0.00022194
3690.0 0.00021073
3710.0 0.00016133
3730.0 0.00018792
3750.0 0.00019023
3770.0 0.00020624
3790.0 0.00021235
3810.0 0.00023506
3830.0 0.00034768
3850.0 0.000436
3870.0 0.00052585
3890.0 0.000532
3910.0 0.00049636
3930.0 0.00049939
3950.0 0.00052701
3970.0 0.00051678
3990.0 0.00031364
4010.0 0.00019076
4030.0 0.00033299
4050.0 0.00045548
4070.0 0.00044951
4090.0 0.00027893
4110.0 0.00019991
4130.0 0.00033727
4150.0 0.00036888
4170.0 0.00031647
4190.0 0.00027058
4210.0 0.00039219
4230.0 0.00033332
4250.0 0.0003319
4270.0 0.0003297
4290.0 0.00030045
4310.0 0.00037476
4330.0 0.00042383
4350.0 0.00040646
4370.0 0.00036251
4390.0 0.00040078
4410.0 0.00038935
4430.0 0.00028828
4450.0 0.0002367
4470.0 0.00028877
4490.0 0.00025239
4510.0 0.00036411
4530.0 0.00037462
4550.0 0.00039913
4570.0 0.00052113
4590.0 0.00057009
4610.0 0.00059822
4630.0 0.00084126
4650.0 0.00098593
4670.0 0.00098018
4690.0 0.00085842
4710.0 0.00086694
4730.0 0.00082693
4750.0 0.00063184
4770.0 0.00050237
4790.0 0.00037302
4810.0 0.00043607
4830.0 0.00050831
4850.0 0.00048636
4870.0 0.00035378
4890.0 0.0005815
4910.0 0.00065283
4930.0 0.00071153
4950.0 0.00079889
4970.0 0.00073056
4990.0 0.00083413
5010.0 0.00089347
5030.0 0.00086724
5050.0 0.00073355
5070.0 0.0005245
5090.0 0.00043543
5110.0 0.00043518
5130.0 0.00044174
5150.0 0.00042949
5170.0 0.00040317
5190.0 0.00044337
5210.0 0.00045509
5230.0 0.00050276
5250.0 0.00055744
5270.0 0.00050567
5290.0 0.00056604
5310.0 0.00075028
5330.0 0.00083585
5350.0 0.00075317
5370.0 0.00073031
5390.0 0.00080993
5410.0 0.0008622
5430.0 0.00086699
5450.0 0.00090605
5470.0 0.00096619
5490.0 0.0010937
5510.0 0.0013102
5530.0 0.0013626
5550.0 0.0013864
5570.0 0.0013985
5590.0 0.0013531
5610.0 0.001275
5630.0 0.0012695
5650.0 0.0013173
5670.0 0.0012769
5690.0 0.001133
5710.0 0.0011203
5730.0 0.0010665
5750.0 0.0010089
5770.0 0.00088652
5790.0 0.00090504
5810.0 0.0009518
5830.0 0.0010422
5850.0 0.001006
5870.0 0.00099298
5890.0 0.0010694
5910.0 0.00098925
5930.0 0.00087513
5950.0 0.00084691
5970.0 0.00089804
5990.0 0.00079883
6010.0 0.00069387
6030.0 0.00063057
6050.0 0.00057241
6070.0 0.00050157
6090.0 0.00051627
6110.0 0.00060252
6130.0 0.00063067
6150.0 0.00064174
6170.0 0.00065356
6190.0 0.00067384
6210.0 0.00075104
6230.0 0.00088954
6250.0 0.00082538
6270.0 0.00072827
6290.0 0.00064037
6310.0 0.00054728
6330.0 0.00049094
6350.0 0.00045975
6370.0 0.00048214
6390.0 0.00054513
6410.0 0.0006625
6430.0 0.00080497
6450.0 0.00089094
6470.0 0.00095694
6490.0 0.0011107
6510.0 0.0012328
6530.0 0.0011858
6550.0 0.0011308
6570.0 0.0011435
6590.0 0.0011397
6610.0 0.0011557
6630.0 0.0010841
6650.0 0.00096417
6670.0 0.00091755
6690.0 0.00090344
6710.0 0.00096627
6730.0 0.0008493
6750.0 0.00071579
6770.0 0.00068267
6790.0 0.00072748
6810.0 0.00082331
6830.0 0.00083002
6850.0 0.00075531
6870.0 0.00076321
6890.0 0.00075545
6910.0 0.00071075
6930.0 0.00074348
6950.0 0.00071453
6970.0 0.00069036
6990.0 0.00070182
7010.0 0.0007345
7030.0 0.00072156
7050.0 0.00067156
7070.0 0.0006701
7090.0 0.0006034
7110.0 0.00051741
7130.0 0.00048719
7150.0 0.00050626
7170.0 0.00057905
7190.0 0.0005925
7210.0 0.00056983
7230.0 0.00061594
7250.0 0.00064178
7270.0 0.00065221
7290.0 0.00067776
7310.0 0.00069927
7330.0 0.00066693
7350.0 0.0006185
7370.0 0.00057302
7390.0 0.00056397
7410.0 0.00062888
7430.0 0.00072263
7450.0 0.0007849
7470.0 0.00083802
7490.0 0.00096364
7510.0 0.00095474
7530.0 0.0008129
7550.0 0.00072495
7570.0 0.00061342
7590.0 0.00055315
7610.0 0.00053662
7630.0 0.0005172
7650.0 0.00055721
7670.0 0.0006285
7690.0 0.0006879
7710.0 0.00078576
7730.0 0.00081719
7750.0 0.00084666
7770.0 0.00090152
7790.0 0.00095278
7810.0 0.00094408
7830.0 0.00085755
7850.0 0.00085523
7870.0 0.0008308
7890.0 0.00081413
7910.0 0.00075937
7930.0 0.00073257
7950.0 0.000611
7970.0 0.00059779
7990.0 0.00059147
8010.0 0.00067433
8030.0 0.00067398
8050.0 0.00071408
8070.0 0.00069102
8090.0 0.00069343
8110.0 0.00068239
8130.0 0.00066313
8150.0 0.0006172
8170.0 0.00060932
8190.0 0.00061239
8210.0 0.00061868
8230.0 0.00055042
8250.0 0.00050701
8270.0 0.00044748
8290.0 0.00037838
8310.0 0.00032451
8330.0 0.00024945
8350.0 0.00019704
8370.0 0.00018571
8390.0 0.00018465
8410.0 0.00019987
8430.0 0.00025714
8450.0 0.00028238
8470.0 0.00030511
8490.0 0.00035246
8510.0 0.00038291
8530.0 0.00043099
8550.0 0.00050993
8570.0 0.00056454
8590.0 0.00059774
8610.0 0.00067302
8630.0 0.00077312
8650.0 0.00079938
8670.0 0.00081703
8690.0 0.0008375
8710.0 0.00081847
8730.0 0.00078736
8750.0 0.0007252
8770.0 0.00072178
8790.0 0.00070718
8810.0 0.00065133
8830.0 0.00064148
8850.0 0.00057624
8870.0 0.00054353
8890.0 0.00048984
8910.0 0.00054854
8930.0 0.00050119
8950.0 0.00050648
8970.0 0.00051879
8990.0 0.0005074
9010.0 0.00051849
9030.0 0.00049304
9050.0 0.00049101
9070.0 0.00049146
9090.0 0.00049184
9110.0 0.00049259
9130.0 0.00049289
9150.0 0.00049296
9170.0 0.00049187
9190.0 0.00048911
9210.0 0.00049646
9230.0 0.00049486
9250.0 0.00049413
9270.0 0.00049361
9290.0 0.00049322
9310.0 0.00049291
9330.0 0.00049264
9350.0 0.00049239
9370.0 0.00049214
9390.0 0.00049186
9410.0 0.00049157
9430.0 0.00049128
9450.0 0.00049094
9470.0 0.00049059
9490.0 0.00049024
9510.0 0.00048987
9530.0 0.00048947
9550.0 0.0004891
9570.0 0.00048872
9590.0 0.00048832
9610.0 0.00048792
9630.0 0.00048755
9650.0 0.00048718
9670.0 0.00048677
9690.0 0.00048641
9710.0 0.00048606
9730.0 0.00048569
9750.0 0.00048534
9770.0 0.00048506
9790.0 0.00048474
9810.0 0.00048443
9830.0 0.00048416
9850.0 0.00048392
9870.0 0.00048366
9890.0 0.00048343
9910.0 0.00048326
9930.0 0.00048307
9950.0 0.00048233
9970.0 0.00048239
9990.0 0.00048245
10010.0 0.00048244
10030.0 0.00048244
10050.0 0.00048226
10070.0 0.00048104
10090.0 0.00048147
10110.0 0.00048189
10130.0 0.0004822
10150.0 0.00048247
10170.0 0.00048268
10190.0 0.00048283
10210.0 0.00048302
10230.0 0.00048322
10250.0 0.0004834
10270.0 0.00048361
10290.0 0.00048387
10310.0 0.00048412
10330.0 0.00048436
10350.0 0.00048466
10370.0 0.00048498
10390.0 0.00048529
10410.0 0.00048562
10430.0 0.000486
10450.0 0.00048636
10470.0 0.00048673
10490.0 0.00048713
10510.0 0.00048755
10530.0 0.00048794
10550.0 0.00048836
10570.0 0.00048881
10590.0 0.00048925
10610.0 0.00048969
10630.0 0.00049016
10650.0 0.00049063
10670.0 0.00049108
10690.0 0.00049155
10710.0 0.00049204
10730.0 0.00049251
10750.0 0.00049297
10770.0 0.00049346
10790.0 0.00049395
10810.0 0.00049441
10830.0 0.00049486
10850.0 0.00049528
10870.0 0.00049557
10890.0 0.00049563
10910.0 0.00049533
10930.0 0.00049441
10950.0 0.0004924
10970.0 0.00048911
10990.0 0.0004844
11010.0 0.00049546
11030.0 0.00048598
11050.0 0.00047496
11070.0 0.00046226
11090.0 0.00044757
11110.0 0.00043298
11130.0 0.00041843
11150.0 0.00040357
11170.0 0.0003892
11190.0 0.00037621
11210.0 0.00036378
11230.0 0.00035209
11250.0 0.00034189
11270.0 0.00033291
11290.0 0.00032468
11310.0 0.00031748
11330.0 0.00031152
11350.0 0.00030608
11370.0 0.00030105
11390.0 0.0002965
11410.0 0.00029216
11430.0 0.00028753
11450.0 0.00028282
11470.0 0.00027798
11490.0 0.0002727
11510.0 0.00026687
11530.0 0.00026092
11550.0 0.00025472
11570.0 0.00024801
11590.0 0.00024118
11610.0 0.00023448
11630.0 0.00022751
11650.0 0.00022044
11670.0 0.00021382
11690.0 0.00020738
11710.0 0.00020097
11730.0 0.00019489
11750.0 0.00018931
11770.0 0.00018379
11790.0 0.00017848
11810.0 0.00017358
11830.0 0.00016891
11850.0 0.00016421
11870.0 0.00015981
11890.0 0.00015568
11910.0 0.00015152
11930.0 0.0001474
11950.0 0.00014349
11970.0 0.00013959
11990.0 0.00013557
12010.0 0.00013169
12030.0 0.00012795
12050.0 0.00012418
12070.0 0.00012044
12090.0 0.00011706
12110.0 0.00011383
12130.0 0.00011076
12150.0 0.00010805
12170.0 0.00010577
12190.0 0.00010376
12210.0 0.00010227
12230.0 0.00010132
12250.0 0.0001009
12270.0 0.00010105
12290.0 0.00010178
12310.0 0.00010301
12330.0 0.00010483
12350.0 0.00010716
12370.0 0.0001098
12390.0 0.0001128
12410.0 0.00011624
12430.0 0.00011962
12450.0 0.000123
12470.0 0.00012643
12490.0 0.00012971
12510.0 0.00013262
12530.0 0.00013535
12550.0 0.00013781
12570.0 0.00013983
12590.0 0.00014146
12610.0 0.00014277
12630.0 0.0001437
12650.0 0.00014423
12670.0 0.00014446
12690.0 0.00014439
12710.0 0.00014404
12730.0 0.00014348
12750.0 0.00014266
12770.0 0.00014166
12790.0 0.00014052
12810.0 0.00013922
12830.0 0.00013772
12850.0 0.00013615
12870.0 0.00013446
12890.0 0.00013256
12910.0 0.00013052
12930.0 0.0001284
12950.0 0.00012602
12970.0 0.00012341
12990.0 0.00012076
13010.0 0.00011796
13030.0 0.00011494
13050.0 0.00011185
13070.0 0.00010883
13090.0 0.00010567
13110.0 0.00010252
13130.0 9.9574e-05
13150.0 9.6764e-05
13170.0 9.4019e-05
13190.0 9.1624e-05
13210.0 8.958e-05
13230.0 8.7777e-05
13250.0 8.63e-05
13270.0 8.5208e-05
13290.0 8.4412e-05
13310.0 8.3897e-05
13330.0 8.3673e-05
13350.0 8.3667e-05
13370.0 8.383e-05
13390.0 8.4116e-05
13410.0 8.4437e-05
13430.0 8.4762e-05
13450.0 8.5043e-05
13470.0 8.5226e-05
13490.0 8.5291e-05
13510.0 8.5219e-05
13530.0 8.4998e-05
13550.0 8.4654e-05
13570.0 8.4192e-05
13590.0 8.3621e-05
13610.0 8.3005e-05
13630.0 8.2374e-05
13650.0 8.1712e-05
13670.0 8.1077e-05
13690.0 8.05e-05
13710.0 7.9966e-05
13730.0 7.947e-05
13750.0 7.9056e-05
13770.0 7.8689e-05
13790.0 7.8346e-05
13810.0 7.8021e-05
13830.0 7.7706e-05
13850.0 7.7362e-05
13870.0 7.6975e-05
13890.0 7.6547e-05
13910.0 7.6065e-05
13930.0 7.5503e-05
13950.0 7.4883e-05
13970.0 7.4242e-05
13990.0 7.3552e-05
14010.0 7.2834e-05
14030.0 7.214e-05
14050.0 7.1472e-05
14070.0 7.0813e-05
14090.0 7.0227e-05
14110.0 6.9718e-05
14130.0 6.9271e-05
14150.0 6.8895e-05
14170.0 6.8605e-05
14190.0 6.8384e-05
14210.0 6.823e-05
14230.0 6.8147e-05
14250.0 6.8128e-05
14270.0 6.8181e-05
14290.0 6.8313e-05
14310.0 6.8504e-05
14330.0 6.8767e-05
14350.0 6.9117e-05
14370.0 6.9529e-05
14390.0 6.9982e-05
14410.0 7.0515e-05
14430.0 7.1099e-05
14450.0 7.1695e-05
14470.0 7.2321e-05
14490.0 7.3007e-05
14510.0 7.3682e-05
14530.0 7.4355e-05
14550.0 7.5083e-05
14570.0 7.5858e-05
14590.0 7.6649e-05
14610.0 7.7528e-05
14630.0 7.8545e-05
14650.0 7.9641e-05
14670.0 8.084e-05
14690.0 8.223e-05
14710.0 8.3803e-05
14730.0 8.5421e-05
14750.0 8.7216e-05
14770.0 8.9196e-05
14790.0 9.1227e-05
14810.0 9.3278e-05
14830.0 9.5517e-05
14850.0 9.7719e-05
14870.0 9.979e-05
14890.0 0.00010181
14910.0 0.00010373
14930.0 0.00010539
14950.0 0.00010677
14970.0 0.00010794
14990.0 0.00010879
15010.0 0.00010931
15030.0 0.00010958
15050.0 0.00010961
15070.0 0.00010945
15090.0 0.00010917
15110.0 0.00010881
15130.0 0.00010839
15150.0 0.00010797
15170.0 0.00010752
15190.0 0.00010706
15210.0 0.00010661
15230.0 0.00010616
15250.0 0.0001057
15270.0 0.00010525
15290.0 0.00010481
15310.0 0.00010437
15330.0 0.00010392
15350.0 0.00010348
15370.0 0.00010305
15390.0 0.0001026
15410.0 0.00010216
15430.0 0.00010173
15450.0 0.0001013
15470.0 0.00010086
15490.0 0.00010043
15510.0 0.00010001
15530.0 9.9579e-05
15550.0 9.9155e-05
15570.0 9.874e-05
15590.0 9.8316e-05
15610.0 9.7889e-05
15630.0 9.7478e-05
15650.0 9.7066e-05
15670.0 9.6647e-05
15690.0 9.6236e-05
15710.0 9.5835e-05
15730.0 9.5424e-05
15750.0 9.5014e-05
15770.0 9.4615e-05
15790.0 9.4216e-05
15810.0 9.3806e-05
15830.0 9.3408e-05
15850.0 9.3018e-05
15870.0 9.2621e-05
15890.0 9.2224e-05
15910.0 9.184e-05
15930.0 9.1452e-05
15950.0 9.1056e-05
15970.0 9.0671e-05
15990.0 9.0291e-05
16010.0 8.9904e-05
16030.0 8.9516e-05
16050.0 8.9145e-05
16070.0 8.8768e-05
16090.0 8.8387e-05
16110.0 8.8014e-05
16130.0 8.7648e-05
16150.0 8.7267e-05
16170.0 8.6893e-05
16190.0 8.653e-05
16210.0 8.6163e-05
16230.0 8.579e-05
16250.0 8.5428e-05
16270.0 8.5072e-05
16290.0 8.4705e-05
16310.0 8.4342e-05
16330.0 8.3989e-05
16350.0 8.3631e-05
16370.0 8.3262e-05
16390.0 8.2911e-05
16410.0 8.2562e-05
16430.0 8.2204e-05
16450.0 8.185e-05
16470.0 8.1509e-05
16490.0 8.1156e-05
16510.0 8.0801e-05
16530.0 8.0457e-05
16550.0 8.0114e-05
16570.0 7.9761e-05
16590.0 7.9412e-05
16610.0 7.9077e-05
16630.0 7.8734e-05
16650.0 7.8387e-05
16670.0 7.8051e-05
16690.0 7.7716e-05
16710.0 7.7367e-05
16730.0 7.7028e-05
16750.0 7.6696e-05
16770.0 7.6357e-05
16790.0 7.6014e-05
16810.0 7.5685e-05
16830.0 7.5354e-05
16850.0 7.5015e-05
16870.0 7.4682e-05
16890.0 7.4357e-05
16910.0 7.402e-05
16930.0 7.368e-05
16950.0 7.3356e-05
16970.0 7.3028e-05
16990.0 7.2693e-05
17010.0 7.2365e-05
17030.0 7.2045e-05
17050.0 7.1713e-05
17070.0 7.1381e-05
17090.0 7.106e-05
17110.0 7.0735e-05
17130.0 7.0399e-05
17150.0 7.0075e-05
17170.0 6.9757e-05
17190.0 6.943e-05
17210.0 6.9103e-05
17230.0 6.8787e-05
17250.0 6.8465e-05
17270.0 6.8134e-05
17290.0 6.7813e-05
17310.0 6.7496e-05
17330.0 6.717e-05
17350.0 6.6843e-05
17370.0 6.6531e-05
17390.0 6.6211e-05
17410.0 6.5886e-05
17430.0 6.5569e-05
17450.0 6.5258e-05
17470.0 6.4929e-05
17490.0 6.4607e-05
17510.0 6.4295e-05
17530.0 6.3977e-05
17550.0 6.3653e-05
17570.0 6.334e-05
17590.0 6.3029e-05
17610.0 6.2707e-05
17630.0 6.2389e-05
17650.0 6.2079e-05
17670.0 6.1763e-05
17690.0 6.1436e-05
17710.0 6.1127e-05
17730.0 6.0817e-05
17750.0 6.0498e-05
17770.0 6.0183e-05
17790.0 5.9879e-05
17810.0 5.9562e-05
17830.0 5.9243e-05
17850.0 5.8934e-05
17870.0 5.8625e-05
17890.0 5.8306e-05
17910.0 5.7991e-05
17930.0 5.7689e-05
17950.0 5.7377e-05
17970.0 5.7062e-05
17990.0 5.6758e-05
18010.0 5.6452e-05
18030.0 5.6133e-05
18050.0 5.5824e-05
18070.0 5.5521e-05
18090.0 5.521e-05
18110.0 5.4896e-05
18130.0 5.4595e-05
18150.0 5.4292e-05
18170.0 5.398e-05
18190.0 5.3674e-05
18210.0 5.3376e-05
18230.0 5.3065e-05
18250.0 5.2753e-05
18270.0 5.2455e-05
18290.0 5.2153e-05
18310.0 5.1844e-05
18330.0 5.1543e-05
18350.0 5.1248e-05
18370.0 5.0941e-05
18390.0 5.0635e-05
18410.0 5.034e-05
18430.0 5.004e-05
18450.0 4.9731e-05
18470.0 4.9433e-05
18490.0 4.9141e-05
18510.0 4.8839e-05
18530.0 4.8538e-05
18550.0 4.8249e-05
18570.0 4.7951e-05
18590.0 4.7647e-05
18610.0 4.7354e-05
18630.0 4.7063e-05
18650.0 4.6763e-05
18670.0 4.6464e-05
18690.0 4.618e-05
18710.0 4.5887e-05
18730.0 4.559e-05
18750.0 4.5302e-05
18770.0 4.5017e-05
18790.0 4.4717e-05
18810.0 4.4424e-05
18830.0 4.4141e-05
18850.0 4.3853e-05
18870.0 4.3559e-05
18890.0 4.3276e-05
18910.0 4.2995e-05
18930.0 4.2703e-05
18950.0 4.2417e-05
18970.0 4.2138e-05
18990.0 4.1853e-05
19010.0 4.1559e-05
19030.0 4.1282e-05
19050.0 4.1004e-05
19070.0 4.0719e-05
19090.0 4.0438e-05
19110.0 4.0167e-05
19130.0 3.9883e-05
19150.0 3.9599e-05
19170.0 3.9325e-05
19190.0 3.9051e-05
19210.0 3.8768e-05
19230.0 3.849e-05
19250.0 3.8224e-05
19270.0 3.7948e-05
19290.0 3.7671e-05
19310.0 3.7403e-05
19330.0 3.7135e-05
19350.0 3.6853e-05
19370.0 3.6583e-05
19390.0 3.6319e-05
19410.0 3.6047e-05
19430.0 3.5774e-05
19450.0 3.5513e-05
19470.0 3.5248e-05
19490.0 3.4977e-05
19510.0 3.4713e-05
19530.0 3.4454e-05
19550.0 3.4185e-05
19570.0 3.3915e-05
19590.0 3.3659e-05
19610.0 3.3399e-05
19630.0 3.3133e-05
19650.0 3.2875e-05
19670.0 3.2622e-05
19690.0 3.2358e-05
19710.0 3.2097e-05
19730.0 3.1845e-05
19750.0 3.1589e-05
19770.0 3.1324e-05
19790.0 3.1071e-05
19810.0 3.0822e-05
19830.0 3.0564e-05
19850.0 3.0306e-05
19870.0 3.0054e-05
19890.0 2.9786e-05
19910.0 2.9496e-05
19930.0 2.9192e-05
19950.0 2.8854e-05
19970.0 2.8453e-05
19990.0 2.7988e-05
20010.0 2.7482e-05
20030.0 2.6896e-05
20050.0 2.6243e-05
20070.0 2.5574e-05
20090.0 2.4894e-05
20110.0 2.4174e-05
20130.0 2.3498e-05
20150.0 2.2876e-05
20170.0 2.2279e-05
20190.0 2.1721e-05
20210.0 2.1237e-05
20230.0 2.0802e-05
20250.0 2.0403e-05
20270.0 2.0065e-05
20290.0 1.9785e-05
20310.0 1.9546e-05
20330.0 1.9352e-05
20350.0 1.9217e-05
20370.0 1.9125e-05
20390.0 1.9078e-05
20410.0 1.9077e-05
20430.0 1.9119e-05
20450.0 1.9209e-05
20470.0 1.9347e-05
20490.0 1.9525e-05
20510.0 1.9747e-05
20530.0 2.0022e-05
20550.0 2.0332e-05
20570.0 2.0666e-05
20590.0 2.1046e-05
20610.0 2.1455e-05
20630.0 2.187e-05
20650.0 2.2302e-05
20670.0 2.2762e-05
20690.0 2.32e-05
20710.0 2.3621e-05
20730.0 2.4041e-05
20750.0 2.444e-05
20770.0 2.4796e-05
20790.0 2.5135e-05
20810.0 2.5455e-05
20830.0 2.5741e-05
20850.0 2.6001e-05
20870.0 2.6255e-05
20890.0 2.6494e-05
20910.0 2.6713e-05
20930.0 2.6932e-05
20950.0 2.7154e-05
20970.0 2.7368e-05
20990.0 2.7577e-05
21010.0 2.7793e-05
21030.0 2.7999e-05
21050.0 2.8187e-05
21070.0 2.8362e-05
21090.0 2.8521e-05
21110.0 2.8645e-05
21130.0 2.8739e-05
21150.0 2.8805e-05
21170.0 2.8835e-05
21190.0 2.8831e-05
21210.0 2.8794e-05
21230.0 2.8723e-05
21250.0 2.8624e-05
21270.0 2.85e-05
21290.0 2.8348e-05
21310.0 2.8176e-05
21330.0 2.7996e-05
21350.0 2.7798e-05
21370.0 2.7588e-05
21390.0 2.7379e-05
21410.0 2.7168e-05
21430.0 2.6945e-05
21450.0 2.6733e-05
21470.0 2.6534e-05
21490.0 2.6337e-05
21510.0 2.6149e-05
21530.0 2.5981e-05
21550.0 2.5827e-05
21570.0 2.5684e-05
21590.0 2.5565e-05
21610.0 2.5468e-05
21630.0 2.5391e-05
21650.0 2.5339e-05
21670.0 2.5315e-05
21690.0 2.5317e-05
21710.0 2.5348e-05
21730.0 2.5409e-05
21750.0 2.5495e-05
21770.0 2.5617e-05
21790.0 2.5771e-05
21810.0 2.5948e-05
21830.0 2.6155e-05
21850.0 2.64e-05
21870.0 2.6664e-05
21890.0 2.6944e-05
21910.0 2.7258e-05
21930.0 2.7592e-05
21950.0 2.7931e-05
21970.0 2.8289e-05
21990.0 2.8675e-05
22010.0 2.905e-05
22030.0 2.9422e-05
22050.0 2.9805e-05
22070.0 3.0183e-05
22090.0 3.0533e-05
22110.0 3.0877e-05
22130.0 3.121e-05
22150.0 3.1508e-05
22170.0 3.1774e-05
22190.0 3.2018e-05
22210.0 3.222e-05
22230.0 3.2371e-05
22250.0 3.2482e-05
22270.0 3.2545e-05
22290.0 3.2554e-05
22310.0 3.2512e-05
22330.0 3.2411e-05
22350.0 3.2254e-05
22370.0 3.2048e-05
22390.0 3.1783e-05
22410.0 3.1453e-05
22430.0 3.1088e-05
22450.0 3.0679e-05
22470.0 3.0212e-05
22490.0 2.9709e-05
22510.0 2.9191e-05
22530.0 2.8621e-05
22550.0 2.8015e-05
22570.0 2.7416e-05
22590.0 2.6803e-05
22610.0 2.6161e-05
22630.0 2.5524e-05
