#lamb flux
1010.0 1.6453e-11
1030.0 2.0373e-11
1050.0 2.4641e-11
1070.0 2.9135e-11
1090.0 3.3866e-11
1110.0 3.817e-11
1130.0 4.1891e-11
1150.0 4.5216e-11
1170.0 4.8032e-11
1190.0 4.9934e-11
1210.0 5.1369e-11
1230.0 5.2522e-11
1250.0 5.3307e-11
1270.0 5.3918e-11
1290.0 5.4909e-11
1310.0 5.6297e-11
1330.0 5.8195e-11
1350.0 6.103e-11
1370.0 6.5074e-11
1390.0 7.0285e-11
1410.0 7.6738e-11
1430.0 8.4739e-11
1450.0 9.4112e-11
1470.0 1.0463e-10
1490.0 1.1632e-10
1510.0 1.2928e-10
1530.0 1.4279e-10
1550.0 1.568e-10
1570.0 1.7137e-10
1590.0 1.8617e-10
1610.0 2.0075e-10
1630.0 2.1542e-10
1650.0 2.3008e-10
1670.0 2.4424e-10
1690.0 2.5795e-10
1710.0 2.7155e-10
1730.0 2.8479e-10
1750.0 2.9715e-10
1770.0 3.093e-10
1790.0 3.2121e-10
1810.0 3.3247e-10
1830.0 3.4321e-10
1850.0 3.5253e-10
1870.0 3.6005e-10
1890.0 3.6744e-10
1910.0 3.7511e-10
1930.0 3.831e-10
1950.0 3.91e-10
1970.0 3.9893e-10
1990.0 4.0718e-10
2010.0 4.153e-10
2030.0 4.2316e-10
2050.0 4.3129e-10
2070.0 4.3989e-10
2090.0 4.4818e-10
2110.0 4.5656e-10
2130.0 4.6527e-10
2150.0 4.7394e-10
2170.0 4.8237e-10
2190.0 4.9118e-10
2210.0 4.9902e-10
2230.0 5.052e-10
2250.0 5.1129e-10
2270.0 5.177e-10
2290.0 5.2385e-10
2310.0 5.2969e-10
2330.0 5.3578e-10
2350.0 5.4197e-10
2370.0 5.4787e-10
2390.0 5.539e-10
2410.0 5.6038e-10
2430.0 5.6682e-10
2450.0 5.7349e-10
2470.0 5.8124e-10
2490.0 5.9073e-10
2510.0 6.0213e-10
2530.0 6.1755e-10
2550.0 6.3958e-10
2570.0 6.6966e-10
2590.0 7.0972e-10
2610.0 7.6715e-10
2630.0 8.4309e-10
2650.0 9.3551e-10
2670.0 1.049e-09
2690.0 1.1856e-09
2710.0 1.3345e-09
2730.0 1.4903e-09
2750.0 1.6583e-09
2770.0 1.8248e-09
2790.0 1.9801e-09
2810.0 2.1267e-09
2830.0 2.265e-09
2850.0 2.383e-09
2870.0 2.4892e-09
2890.0 2.5894e-09
2910.0 2.6846e-09
2930.0 2.7765e-09
2950.0 2.8715e-09
2970.0 2.9708e-09
2990.0 3.0729e-09
3010.0 3.1797e-09
3030.0 3.2935e-09
3050.0 3.4127e-09
3070.0 3.5344e-09
3090.0 3.6629e-09
3110.0 3.7992e-09
3130.0 3.945e-09
3150.0 4.1188e-09
3170.0 4.3347e-09
3190.0 4.6134e-09
3210.0 4.9739e-09
3230.0 5.4455e-09
3250.0 6.0227e-09
3270.0 6.5416e-09
3290.0 7.4149e-09
3310.0 9.3045e-09
3330.0 9.9189e-09
3350.0 1.0212e-08
3370.0 1.0492e-08
3390.0 1.0777e-08
3410.0 1.107e-08
3430.0 1.1368e-08
3450.0 1.1667e-08
3470.0 1.196e-08
3490.0 1.2247e-08
3510.0 1.2533e-08
3530.0 1.2449e-08
3550.0 1.21e-08
3570.0 1.2236e-08
3590.0 1.29e-08
3610.0 1.4019e-08
3630.0 1.4336e-08
3650.0 1.3725e-08
3670.0 1.2659e-08
3690.0 1.21e-08
3710.0 1.2322e-08
3730.0 1.2728e-08
3750.0 1.2938e-08
3770.0 1.3374e-08
3790.0 1.3862e-08
3810.0 1.3614e-08
3830.0 1.2696e-08
3850.0 1.1911e-08
3870.0 1.1545e-08
3890.0 1.1367e-08
3910.0 1.1075e-08
3930.0 1.0944e-08
3950.0 1.1237e-08
3970.0 1.1581e-08
3990.0 1.1703e-08
4010.0 1.1242e-08
4030.0 1.0631e-08
4050.0 1.0248e-08
4070.0 9.9233e-09
4090.0 9.645e-09
4110.0 9.272e-09
4130.0 8.7088e-09
4150.0 8.154e-09
4170.0 7.8257e-09
4190.0 7.2772e-09
4210.0 6.5939e-09
4230.0 5.8973e-09
4250.0 5.2452e-09
4270.0 4.7695e-09
4290.0 4.3928e-09
4310.0 4.1986e-09
4330.0 4.1933e-09
4350.0 4.177e-09
4370.0 4.2176e-09
4390.0 4.3507e-09
4410.0 4.4444e-09
4430.0 4.2661e-09
4450.0 3.883e-09
4470.0 3.5594e-09
4490.0 3.3725e-09
4510.0 3.2594e-09
4530.0 3.2052e-09
4550.0 3.1613e-09
4570.0 3.1504e-09
4590.0 3.1931e-09
4610.0 3.3126e-09
4630.0 3.3842e-09
4650.0 3.4283e-09
4670.0 3.3444e-09
4690.0 3.1559e-09
4710.0 2.9625e-09
4730.0 2.8458e-09
4750.0 2.7725e-09
4770.0 2.7757e-09
4790.0 2.7655e-09
4810.0 2.7056e-09
4830.0 2.7005e-09
4850.0 2.7892e-09
4870.0 2.8139e-09
4890.0 2.7616e-09
4910.0 2.7071e-09
4930.0 2.5553e-09
4950.0 2.3227e-09
4970.0 2.1724e-09
4990.0 2.0492e-09
5010.0 2.0206e-09
5030.0 2.0892e-09
5050.0 2.1443e-09
5070.0 2.2237e-09
5090.0 2.3585e-09
5110.0 2.3958e-09
5130.0 2.4159e-09
5150.0 2.4629e-09
5170.0 2.4789e-09
5190.0 2.5445e-09
5210.0 2.5588e-09
5230.0 2.5311e-09
5250.0 2.5552e-09
5270.0 2.5936e-09
5290.0 2.6019e-09
5310.0 2.5815e-09
5330.0 2.5336e-09
5350.0 2.4941e-09
5370.0 2.4688e-09
5390.0 2.4389e-09
5410.0 2.4107e-09
5430.0 2.4134e-09
5450.0 2.4445e-09
5470.0 2.4898e-09
5490.0 2.5455e-09
5510.0 2.6242e-09
5530.0 2.6556e-09
5550.0 2.7003e-09
5570.0 2.6961e-09
5590.0 2.6261e-09
5610.0 2.6058e-09
5630.0 2.6311e-09
5650.0 2.5971e-09
5670.0 2.5391e-09
5690.0 2.4571e-09
5710.0 2.4604e-09
5730.0 2.4813e-09
5750.0 2.3734e-09
5770.0 2.2534e-09
5790.0 2.0557e-09
5810.0 1.7835e-09
5830.0 1.9334e-09
5850.0 2.1631e-09
5870.0 2.2197e-09
5890.0 2.2326e-09
5910.0 2.2401e-09
5930.0 2.2394e-09
5950.0 2.197e-09
5970.0 2.1696e-09
5990.0 2.132e-09
6010.0 2.069e-09
6030.0 1.9942e-09
6050.0 1.964e-09
6070.0 1.9644e-09
6090.0 1.9282e-09
6110.0 1.8595e-09
6130.0 1.7998e-09
6150.0 1.7252e-09
6170.0 1.6491e-09
6190.0 1.5894e-09
6210.0 1.5305e-09
6230.0 1.5031e-09
6250.0 1.4713e-09
6270.0 1.4404e-09
6290.0 1.4229e-09
6310.0 1.4055e-09
6330.0 1.3725e-09
6350.0 1.3285e-09
6370.0 1.2996e-09
6390.0 1.2821e-09
6410.0 1.2423e-09
6430.0 1.212e-09
6450.0 1.1823e-09
6470.0 1.1537e-09
6490.0 1.134e-09
6510.0 1.1218e-09
6530.0 1.0907e-09
6550.0 1.0663e-09
6570.0 1.054e-09
6590.0 1.0474e-09
6610.0 1.04e-09
6630.0 1.0034e-09
6650.0 9.785e-10
6670.0 9.707e-10
6690.0 9.5664e-10
6710.0 9.3529e-10
6730.0 9.286e-10
6750.0 9.3583e-10
6770.0 9.9819e-10
6790.0 1.1366e-09
6810.0 1.0749e-09
6830.0 9.2902e-10
6850.0 8.9646e-10
6870.0 8.8251e-10
6890.0 8.8331e-10
6910.0 8.8558e-10
6930.0 8.8952e-10
6950.0 8.8333e-10
6970.0 8.6116e-10
6990.0 8.5334e-10
7010.0 8.6674e-10
7030.0 8.6773e-10
7050.0 8.5484e-10
7070.0 8.5459e-10
7090.0 8.6786e-10
7110.0 8.8718e-10
7130.0 8.9029e-10
7150.0 8.9187e-10
7170.0 8.9683e-10
7190.0 9.1001e-10
7210.0 9.1637e-10
7230.0 9.1945e-10
7250.0 9.3258e-10
7270.0 9.4042e-10
7290.0 9.5225e-10
7310.0 9.7576e-10
7330.0 9.6953e-10
7350.0 9.5031e-10
7370.0 9.3196e-10
7390.0 9.2303e-10
7410.0 9.3682e-10
7430.0 9.4702e-10
7450.0 9.535e-10
7470.0 9.6103e-10
7490.0 9.5387e-10
7510.0 9.4819e-10
7530.0 9.5576e-10
7550.0 9.9944e-10
7570.0 9.9572e-10
7590.0 9.4179e-10
7610.0 9.2529e-10
7630.0 9.8395e-10
7650.0 9.9886e-10
7670.0 1.0174e-09
7690.0 1.0599e-09
7710.0 1.0958e-09
7730.0 1.1035e-09
7750.0 1.1639e-09
7770.0 1.1285e-09
7790.0 1.0965e-09
7810.0 1.1698e-09
7830.0 1.2088e-09
7850.0 1.2493e-09
7870.0 1.2658e-09
7890.0 1.281e-09
7910.0 1.2711e-09
7930.0 1.2827e-09
7950.0 1.338e-09
7970.0 1.3396e-09
7990.0 1.2467e-09
8010.0 1.2973e-09
8030.0 1.3143e-09
8050.0 1.3374e-09
8070.0 1.2197e-09
8090.0 8.3843e-10
8110.0 8.641e-10
8130.0 1.1935e-09
8150.0 1.2859e-09
8170.0 1.3382e-09
8190.0 1.3739e-09
8210.0 1.349e-09
8230.0 1.4498e-09
8250.0 1.4759e-09
8270.0 1.4086e-09
8290.0 1.3594e-09
8310.0 1.333e-09
8330.0 1.3887e-09
8350.0 1.4538e-09
8370.0 1.4332e-09
8390.0 1.3685e-09
8410.0 1.3659e-09
8430.0 1.2826e-09
8450.0 1.3012e-09
8470.0 1.4229e-09
8490.0 1.4272e-09
8510.0 1.3225e-09
8530.0 1.2514e-09
8550.0 1.2036e-09
8570.0 1.1283e-09
8590.0 1.1609e-09
8610.0 1.223e-09
8630.0 1.2612e-09
8650.0 1.2821e-09
8670.0 1.2533e-09
8690.0 1.2236e-09
8710.0 1.1465e-09
8730.0 1.1021e-09
8750.0 1.1382e-09
8770.0 1.1524e-09
8790.0 1.1601e-09
8810.0 1.1435e-09
8830.0 1.162e-09
8850.0 1.224e-09
8870.0 1.144e-09
8890.0 1.074e-09
8910.0 1.0591e-09
8930.0 1.0079e-09
8950.0 9.627e-10
8970.0 9.5804e-10
8990.0 9.1848e-10
9010.0 8.6134e-10
9030.0 8.422e-10
9050.0 8.355e-10
9070.0 8.2955e-10
9090.0 8.2356e-10
9110.0 8.1755e-10
9130.0 8.1149e-10
9150.0 8.054e-10
9170.0 7.9929e-10
9190.0 7.9317e-10
9210.0 7.8704e-10
9230.0 7.809e-10
9250.0 7.7476e-10
9270.0 7.6863e-10
9290.0 7.625e-10
9310.0 7.5647e-10
9330.0 7.5058e-10
9350.0 7.4471e-10
9370.0 7.3886e-10
9390.0 7.3303e-10
9410.0 7.2722e-10
9430.0 7.2145e-10
9450.0 7.157e-10
9470.0 7.1003e-10
9490.0 7.0437e-10
9510.0 6.9871e-10
9530.0 6.9309e-10
9550.0 6.8752e-10
9570.0 6.82e-10
9590.0 6.7652e-10
9610.0 6.7124e-10
9630.0 6.6603e-10
9650.0 6.6085e-10
9670.0 6.5572e-10
9690.0 6.5063e-10
9710.0 6.456e-10
9730.0 6.4061e-10
9750.0 6.3567e-10
9770.0 6.3079e-10
9790.0 6.2594e-10
9810.0 6.2115e-10
9830.0 6.1641e-10
9850.0 6.1167e-10
9870.0 6.0693e-10
9890.0 6.024e-10
9910.0 5.979e-10
9930.0 5.9341e-10
9950.0 5.8897e-10
9970.0 5.846e-10
9990.0 5.8027e-10
10010.0 5.7598e-10
10030.0 5.7174e-10
10050.0 5.6755e-10
10070.0 5.6341e-10
10090.0 5.5931e-10
10110.0 5.5526e-10
10130.0 5.5126e-10
10150.0 5.4731e-10
10170.0 5.434e-10
10190.0 5.3954e-10
10210.0 5.3572e-10
10230.0 5.3194e-10
10250.0 5.2822e-10
10270.0 5.2453e-10
10290.0 5.2089e-10
10310.0 5.1729e-10
10330.0 5.1373e-10
10350.0 5.1021e-10
10370.0 5.0674e-10
10390.0 5.0325e-10
10410.0 4.9913e-10
10430.0 4.9482e-10
10450.0 4.923e-10
10470.0 4.8937e-10
10490.0 4.864e-10
10510.0 4.8337e-10
10530.0 4.8022e-10
10550.0 4.771e-10
10570.0 4.7407e-10
10590.0 4.71e-10
10610.0 4.6793e-10
10630.0 4.6496e-10
10650.0 4.6202e-10
10670.0 4.5903e-10
10690.0 4.5611e-10
10710.0 4.5327e-10
10730.0 4.504e-10
10750.0 4.4751e-10
10770.0 4.4477e-10
10790.0 4.4203e-10
10810.0 4.3925e-10
10830.0 4.3654e-10
10850.0 4.3391e-10
10870.0 4.312e-10
10890.0 4.2851e-10
10910.0 4.259e-10
10930.0 4.2326e-10
10950.0 4.2055e-10
10970.0 4.1784e-10
10990.0 4.1516e-10
11010.0 3.4695e-10
11030.0 3.444e-10
11050.0 3.4192e-10
11070.0 3.394e-10
11090.0 3.3676e-10
11110.0 3.342e-10
11130.0 3.3166e-10
11150.0 3.2902e-10
11170.0 3.2635e-10
11190.0 3.2377e-10
11210.0 3.2113e-10
11230.0 3.1842e-10
11250.0 3.1581e-10
11270.0 3.1327e-10
11290.0 3.1068e-10
11310.0 3.0818e-10
11330.0 3.0588e-10
11350.0 3.0362e-10
11370.0 3.0143e-10
11390.0 2.9941e-10
11410.0 2.9752e-10
11430.0 2.9562e-10
11450.0 2.9385e-10
11470.0 2.9219e-10
11490.0 2.9055e-10
11510.0 2.889e-10
11530.0 2.8733e-10
11550.0 2.8578e-10
11570.0 2.8416e-10
11590.0 2.8253e-10
11610.0 2.8092e-10
11630.0 2.7922e-10
11650.0 2.7744e-10
11670.0 2.7569e-10
11690.0 2.7391e-10
11710.0 2.7204e-10
11730.0 2.7016e-10
11750.0 2.6833e-10
11770.0 2.6642e-10
11790.0 2.6448e-10
11810.0 2.626e-10
11830.0 2.6075e-10
11850.0 2.5882e-10
11870.0 2.5699e-10
11890.0 2.5526e-10
11910.0 2.5354e-10
11930.0 2.5187e-10
11950.0 2.5033e-10
11970.0 2.4885e-10
11990.0 2.474e-10
12010.0 2.4609e-10
12030.0 2.4488e-10
12050.0 2.4373e-10
12070.0 2.4266e-10
12090.0 2.4173e-10
12110.0 2.4086e-10
12130.0 2.4004e-10
12150.0 2.3931e-10
12170.0 2.3865e-10
12190.0 2.3798e-10
12210.0 2.3735e-10
12230.0 2.3675e-10
12250.0 2.3613e-10
12270.0 2.3546e-10
12290.0 2.3476e-10
12310.0 2.3403e-10
12330.0 2.3317e-10
12350.0 2.3223e-10
12370.0 2.3122e-10
12390.0 2.3009e-10
12410.0 2.2879e-10
12430.0 2.2744e-10
12450.0 2.26e-10
12470.0 2.2442e-10
12490.0 2.2274e-10
12510.0 2.2105e-10
12530.0 2.1924e-10
12550.0 2.1732e-10
12570.0 2.1541e-10
12590.0 2.1349e-10
12610.0 2.1146e-10
12630.0 2.0942e-10
12650.0 2.0749e-10
12670.0 2.0552e-10
12690.0 2.0354e-10
12710.0 2.0165e-10
12730.0 1.9984e-10
12750.0 1.9798e-10
12770.0 1.9623e-10
12790.0 1.9462e-10
12810.0 1.9304e-10
12830.0 1.9152e-10
12850.0 1.9016e-10
12870.0 1.8891e-10
12890.0 1.877e-10
12910.0 1.8663e-10
12930.0 1.8568e-10
12950.0 1.8482e-10
12970.0 1.8405e-10
12990.0 1.8343e-10
13010.0 1.8292e-10
13030.0 1.8251e-10
13050.0 1.822e-10
13070.0 1.8199e-10
13090.0 1.8184e-10
13110.0 1.8177e-10
13130.0 1.8173e-10
13150.0 1.8171e-10
13170.0 1.8169e-10
13190.0 1.8165e-10
13210.0 1.8156e-10
13230.0 1.8139e-10
13250.0 1.8114e-10
13270.0 1.808e-10
13290.0 1.8036e-10
13310.0 1.7977e-10
13330.0 1.7909e-10
13350.0 1.783e-10
13370.0 1.7738e-10
13390.0 1.7633e-10
13410.0 1.7524e-10
13430.0 1.7404e-10
13450.0 1.7272e-10
13470.0 1.7135e-10
13490.0 1.6995e-10
13510.0 1.684e-10
13530.0 1.668e-10
13550.0 1.6522e-10
13570.0 1.6357e-10
13590.0 1.6184e-10
13610.0 1.6013e-10
13630.0 1.5845e-10
13650.0 1.5667e-10
13670.0 1.5489e-10
13690.0 1.5317e-10
13710.0 1.5143e-10
13730.0 1.496e-10
13750.0 1.479e-10
13770.0 1.4623e-10
13790.0 1.4454e-10
13810.0 1.429e-10
13830.0 1.4136e-10
13850.0 1.3982e-10
13870.0 1.3831e-10
13890.0 1.3689e-10
13910.0 1.3554e-10
13930.0 1.3419e-10
13950.0 1.329e-10
13970.0 1.3172e-10
13990.0 1.3056e-10
14010.0 1.2942e-10
14030.0 1.2837e-10
14050.0 1.2738e-10
14070.0 1.2637e-10
14090.0 1.2544e-10
14110.0 1.2457e-10
14130.0 1.2373e-10
14150.0 1.2291e-10
14170.0 1.2216e-10
14190.0 1.2145e-10
14210.0 1.2075e-10
14230.0 1.2008e-10
14250.0 1.1946e-10
14270.0 1.1884e-10
14290.0 1.1822e-10
14310.0 1.1765e-10
14330.0 1.1708e-10
14350.0 1.1651e-10
14370.0 1.1596e-10
14390.0 1.1543e-10
14410.0 1.1489e-10
14430.0 1.1436e-10
14450.0 1.1385e-10
14470.0 1.1333e-10
14490.0 1.128e-10
14510.0 1.1229e-10
14530.0 1.118e-10
14550.0 1.1129e-10
14570.0 1.1077e-10
14590.0 1.1027e-10
14610.0 1.0976e-10
14630.0 1.0923e-10
14650.0 1.087e-10
14670.0 1.0818e-10
14690.0 1.0764e-10
14710.0 1.0709e-10
14730.0 1.0655e-10
14750.0 1.06e-10
14770.0 1.0543e-10
14790.0 1.0486e-10
14810.0 1.043e-10
14830.0 1.0369e-10
14850.0 1.0308e-10
14870.0 1.0248e-10
14890.0 1.0188e-10
14910.0 1.0125e-10
14930.0 1.0066e-10
14950.0 1.001e-10
14970.0 9.9553e-11
14990.0 9.9051e-11
15010.0 9.8609e-11
15030.0 9.8207e-11
15050.0 9.7833e-11
15070.0 9.7516e-11
15090.0 9.7225e-11
15110.0 9.6943e-11
15130.0 9.6674e-11
15150.0 9.6421e-11
15170.0 9.6163e-11
15190.0 9.5902e-11
15210.0 9.565e-11
15230.0 9.54e-11
15250.0 9.514e-11
15270.0 9.4883e-11
15290.0 9.4637e-11
15310.0 9.4384e-11
15330.0 9.4128e-11
15350.0 9.388e-11
15370.0 9.3633e-11
15390.0 9.3374e-11
15410.0 9.3122e-11
15430.0 9.2876e-11
15450.0 9.2625e-11
15470.0 9.2369e-11
15490.0 9.2124e-11
15510.0 9.188e-11
15530.0 9.1626e-11
15550.0 9.1378e-11
15570.0 9.1137e-11
15590.0 9.0886e-11
15610.0 9.0632e-11
15630.0 9.039e-11
15650.0 9.0146e-11
15670.0 8.9896e-11
15690.0 8.9651e-11
15710.0 8.9413e-11
15730.0 8.9166e-11
15750.0 8.8918e-11
15770.0 8.8679e-11
15790.0 8.8438e-11
15810.0 8.8186e-11
15830.0 8.7944e-11
15850.0 8.7709e-11
15870.0 8.7465e-11
15890.0 8.7221e-11
15910.0 8.6987e-11
15930.0 8.6748e-11
15950.0 8.6501e-11
15970.0 8.6263e-11
15990.0 8.6028e-11
16010.0 8.5786e-11
16030.0 8.5542e-11
16050.0 8.5312e-11
16070.0 8.5076e-11
16090.0 8.4835e-11
16110.0 8.46e-11
16130.0 8.4371e-11
16150.0 8.4127e-11
16170.0 8.3889e-11
16190.0 8.3659e-11
16210.0 8.3425e-11
16230.0 8.3185e-11
16250.0 8.2954e-11
16270.0 8.2726e-11
16290.0 8.2489e-11
16310.0 8.2254e-11
16330.0 8.2028e-11
16350.0 8.1796e-11
16370.0 8.1553e-11
16390.0 8.1326e-11
16410.0 8.11e-11
16430.0 8.0865e-11
16450.0 8.0633e-11
16470.0 8.0411e-11
16490.0 8.0179e-11
16510.0 7.9944e-11
16530.0 7.9718e-11
16550.0 7.9492e-11
16570.0 7.9257e-11
16590.0 7.9025e-11
16610.0 7.8805e-11
16630.0 7.8576e-11
16650.0 7.8345e-11
16670.0 7.8122e-11
16690.0 7.7899e-11
16710.0 7.7663e-11
16730.0 7.7436e-11
16750.0 7.7214e-11
16770.0 7.6986e-11
16790.0 7.6754e-11
16810.0 7.6534e-11
16830.0 7.6312e-11
16850.0 7.6081e-11
16870.0 7.5856e-11
16890.0 7.5637e-11
16910.0 7.5408e-11
16930.0 7.5176e-11
16950.0 7.4957e-11
16970.0 7.4734e-11
16990.0 7.4505e-11
17010.0 7.4282e-11
17030.0 7.4065e-11
17050.0 7.3837e-11
17070.0 7.3609e-11
17090.0 7.339e-11
17110.0 7.3168e-11
17130.0 7.2936e-11
17150.0 7.2713e-11
17170.0 7.2496e-11
17190.0 7.227e-11
17210.0 7.2044e-11
17230.0 7.1827e-11
17250.0 7.1604e-11
17270.0 7.1374e-11
17290.0 7.1153e-11
17310.0 7.0934e-11
17330.0 7.0707e-11
17350.0 7.0479e-11
17370.0 7.0263e-11
17390.0 7.0041e-11
17410.0 6.9814e-11
17430.0 6.9594e-11
17450.0 6.9377e-11
17470.0 6.9146e-11
17490.0 6.892e-11
17510.0 6.8703e-11
17530.0 6.848e-11
17550.0 6.8252e-11
17570.0 6.8032e-11
17590.0 6.7815e-11
17610.0 6.7587e-11
17630.0 6.7363e-11
17650.0 6.7146e-11
17670.0 6.6922e-11
17690.0 6.6689e-11
17710.0 6.6471e-11
17730.0 6.6252e-11
17750.0 6.6024e-11
17770.0 6.58e-11
17790.0 6.5585e-11
17810.0 6.5359e-11
17830.0 6.513e-11
17850.0 6.491e-11
17870.0 6.469e-11
17890.0 6.446e-11
17910.0 6.4234e-11
17930.0 6.4017e-11
17950.0 6.3792e-11
17970.0 6.3565e-11
17990.0 6.3346e-11
18010.0 6.3126e-11
18030.0 6.2892e-11
18050.0 6.2668e-11
18070.0 6.2449e-11
18090.0 6.2222e-11
18110.0 6.1993e-11
18130.0 6.1774e-11
18150.0 6.1552e-11
18170.0 6.1322e-11
18190.0 6.1098e-11
18210.0 6.0879e-11
18230.0 6.0649e-11
18250.0 6.0418e-11
18270.0 6.0198e-11
18290.0 5.9974e-11
18310.0 5.9744e-11
18330.0 5.952e-11
18350.0 5.9301e-11
18370.0 5.9071e-11
18390.0 5.8841e-11
18410.0 5.862e-11
18430.0 5.8395e-11
18450.0 5.816e-11
18470.0 5.7935e-11
18490.0 5.7714e-11
18510.0 5.7485e-11
18530.0 5.7255e-11
18550.0 5.7035e-11
18570.0 5.6808e-11
18590.0 5.6574e-11
18610.0 5.6348e-11
18630.0 5.6125e-11
18650.0 5.5893e-11
18670.0 5.566e-11
18690.0 5.544e-11
18710.0 5.5213e-11
18730.0 5.498e-11
18750.0 5.4755e-11
18770.0 5.4532e-11
18790.0 5.4295e-11
18810.0 5.4064e-11
18830.0 5.3841e-11
18850.0 5.3611e-11
18870.0 5.3377e-11
18890.0 5.3152e-11
18910.0 5.2928e-11
18930.0 5.2693e-11
18950.0 5.2462e-11
18970.0 5.2238e-11
18990.0 5.2007e-11
19010.0 5.1767e-11
19030.0 5.1543e-11
19050.0 5.1316e-11
19070.0 5.1082e-11
19090.0 5.0851e-11
19110.0 5.0628e-11
19130.0 5.0394e-11
19150.0 5.0158e-11
19170.0 4.9931e-11
19190.0 4.9702e-11
19210.0 4.9464e-11
19230.0 4.9231e-11
19250.0 4.9007e-11
19270.0 4.8774e-11
19290.0 4.8539e-11
19310.0 4.8312e-11
19330.0 4.8084e-11
19350.0 4.7842e-11
19370.0 4.7611e-11
19390.0 4.7383e-11
19410.0 4.7148e-11
19430.0 4.6911e-11
19450.0 4.6685e-11
19470.0 4.6454e-11
19490.0 4.6217e-11
19510.0 4.5985e-11
19530.0 4.5757e-11
19550.0 4.5519e-11
19570.0 4.528e-11
19590.0 4.5052e-11
19610.0 4.482e-11
19630.0 4.4582e-11
19650.0 4.4351e-11
19670.0 4.4124e-11
19690.0 4.3885e-11
19710.0 4.3648e-11
19730.0 4.3419e-11
19750.0 4.3185e-11
19770.0 4.2942e-11
19790.0 4.2711e-11
19810.0 4.2482e-11
19830.0 4.2245e-11
19850.0 4.2009e-11
19870.0 4.1784e-11
19890.0 4.1553e-11
19910.0 4.132e-11
19930.0 4.1105e-11
19950.0 4.0902e-11
19970.0 4.0708e-11
19990.0 4.0536e-11
20010.0 4.0394e-11
20030.0 4.0271e-11
20050.0 4.017e-11
20070.0 4.0091e-11
20090.0 4.0028e-11
20110.0 3.9972e-11
20130.0 3.9924e-11
20150.0 3.9882e-11
20170.0 3.9839e-11
20190.0 3.9795e-11
20210.0 3.9751e-11
20230.0 3.9705e-11
20250.0 3.9655e-11
20270.0 3.9603e-11
20290.0 3.9549e-11
20310.0 3.949e-11
20330.0 3.9425e-11
20350.0 3.9362e-11
20370.0 3.9295e-11
20390.0 3.9222e-11
20410.0 3.9149e-11
20430.0 3.9075e-11
20450.0 3.8995e-11
20470.0 3.8914e-11
20490.0 3.8835e-11
20510.0 3.8755e-11
20530.0 3.8673e-11
20550.0 3.8593e-11
20570.0 3.8518e-11
20590.0 3.8442e-11
20610.0 3.8366e-11
20630.0 3.8296e-11
20650.0 3.8226e-11
20670.0 3.8153e-11
20690.0 3.8085e-11
20710.0 3.8017e-11
20730.0 3.7945e-11
20750.0 3.7871e-11
20770.0 3.7797e-11
20790.0 3.7718e-11
20810.0 3.7631e-11
20830.0 3.754e-11
20850.0 3.7445e-11
20870.0 3.7339e-11
20890.0 3.7225e-11
20910.0 3.7111e-11
20930.0 3.6988e-11
20950.0 3.6857e-11
20970.0 3.6725e-11
20990.0 3.6591e-11
21010.0 3.6448e-11
21030.0 3.6304e-11
21050.0 3.6164e-11
21070.0 3.6022e-11
21090.0 3.5875e-11
21110.0 3.5736e-11
21130.0 3.5601e-11
21150.0 3.5462e-11
21170.0 3.5326e-11
21190.0 3.5197e-11
21210.0 3.5064e-11
21230.0 3.4928e-11
21250.0 3.4798e-11
21270.0 3.4668e-11
21290.0 3.4531e-11
21310.0 3.4394e-11
21330.0 3.4261e-11
21350.0 3.412e-11
21370.0 3.3974e-11
21390.0 3.3818e-11
21410.0 3.3659e-11
21430.0 3.3486e-11
21450.0 3.3315e-11
21470.0 3.3145e-11
21490.0 3.2966e-11
21510.0 3.2781e-11
21530.0 3.26e-11
21550.0 3.2416e-11
21570.0 3.2222e-11
21590.0 3.2031e-11
21610.0 3.1843e-11
21630.0 3.1649e-11
21650.0 3.1448e-11
21670.0 3.126e-11
21690.0 3.1069e-11
21710.0 3.0873e-11
21730.0 3.0681e-11
21750.0 3.0496e-11
21770.0 3.0301e-11
21790.0 3.0106e-11
21810.0 2.9919e-11
21830.0 2.9731e-11
21850.0 2.9535e-11
21870.0 2.9345e-11
21890.0 2.9161e-11
21910.0 2.897e-11
21930.0 2.8779e-11
21950.0 2.8596e-11
21970.0 2.8412e-11
21990.0 2.8221e-11
22010.0 2.8042e-11
22030.0 2.7869e-11
22050.0 2.7694e-11
22070.0 2.7527e-11
22090.0 2.7378e-11
22110.0 2.7231e-11
22130.0 2.7087e-11
22150.0 2.6954e-11
22170.0 2.6829e-11
22190.0 2.6704e-11
22210.0 2.6587e-11
22230.0 2.6482e-11
22250.0 2.6379e-11
22270.0 2.6279e-11
22290.0 2.6186e-11
22310.0 2.6098e-11
22330.0 2.6008e-11
22350.0 2.5923e-11
22370.0 2.5841e-11
22390.0 2.5758e-11
22410.0 2.5673e-11
22430.0 2.5592e-11
22450.0 2.5511e-11
22470.0 2.5426e-11
22490.0 2.5341e-11
22510.0 2.5258e-11
22530.0 2.5171e-11
22550.0 2.5082e-11
22570.0 2.4996e-11
22590.0 2.491e-11
22610.0 2.4821e-11
22630.0 2.4735e-11
