#lamb flux
1010.0 1.7638e-07
1030.0 1.9667e-07
1050.0 2.2001e-07
1070.0 2.4628e-07
1090.0 2.7612e-07
1110.0 3.0672e-07
1130.0 3.3752e-07
1150.0 3.6979e-07
1170.0 4.0308e-07
1190.0 4.3464e-07
1210.0 4.6662e-07
1230.0 4.9968e-07
1250.0 5.3206e-07
1270.0 5.6351e-07
1290.0 5.9674e-07
1310.0 6.2995e-07
1330.0 6.6179e-07
1350.0 6.9399e-07
1370.0 7.2724e-07
1390.0 7.5964e-07
1410.0 7.9109e-07
1430.0 8.2396e-07
1450.0 8.5682e-07
1470.0 8.8858e-07
1490.0 9.2067e-07
1510.0 9.5456e-07
1530.0 9.8667e-07
1550.0 1.0183e-06
1570.0 1.0511e-06
1590.0 1.0838e-06
1610.0 1.1151e-06
1630.0 1.1473e-06
1650.0 1.1804e-06
1670.0 1.2123e-06
1690.0 1.2438e-06
1710.0 1.2764e-06
1730.0 1.3092e-06
1750.0 1.34e-06
1770.0 1.3716e-06
1790.0 1.4037e-06
1810.0 1.4347e-06
1830.0 1.465e-06
1850.0 1.4971e-06
1870.0 1.5282e-06
1890.0 1.5581e-06
1910.0 1.5883e-06
1930.0 1.6191e-06
1950.0 1.6481e-06
1970.0 1.6764e-06
1990.0 1.7056e-06
2010.0 1.7339e-06
2030.0 1.7606e-06
2050.0 1.7878e-06
2070.0 1.8153e-06
2090.0 1.8404e-06
2110.0 1.8647e-06
2130.0 1.8893e-06
2150.0 1.9126e-06
2170.0 1.9338e-06
2190.0 1.9553e-06
2210.0 1.976e-06
2230.0 1.9946e-06
2250.0 2.012e-06
2270.0 2.0297e-06
2290.0 2.0453e-06
2310.0 2.0586e-06
2330.0 2.0717e-06
2350.0 2.0841e-06
2370.0 2.0945e-06
2390.0 2.1049e-06
2410.0 2.1176e-06
2430.0 2.1314e-06
2450.0 2.1479e-06
2470.0 2.1708e-06
2490.0 2.2016e-06
2510.0 2.2373e-06
2530.0 2.2849e-06
2550.0 2.3536e-06
2570.0 2.4511e-06
2590.0 2.5914e-06
2610.0 2.8176e-06
2630.0 3.145e-06
2650.0 3.563e-06
2670.0 4.0846e-06
2690.0 4.6962e-06
2710.0 5.3093e-06
2730.0 5.8737e-06
2750.0 6.3906e-06
2770.0 6.7959e-06
2790.0 7.0733e-06
2810.0 7.255e-06
2830.0 7.3618e-06
2850.0 7.3924e-06
2870.0 7.382e-06
2890.0 7.3498e-06
2910.0 7.3021e-06
2930.0 7.2437e-06
2950.0 7.1851e-06
2970.0 7.1274e-06
2990.0 7.0685e-06
3010.0 0.00019919
3030.0 0.00019765
3050.0 0.00019613
3070.0 0.00019451
3090.0 0.00019282
3110.0 0.00019087
3130.0 0.00018842
3150.0 0.00018535
3170.0 0.00018133
3190.0 0.00017647
3210.0 0.00017109
3230.0 0.00016543
3250.0 0.00015999
3270.0 0.000156
3290.0 0.00015335
3310.0 0.00015304
3330.0 0.0001546
3350.0 0.00015784
3370.0 0.00016278
3390.0 0.00016921
3410.0 0.00017635
3430.0 0.0001845
3450.0 0.00019397
3470.0 0.0002044
3490.0 0.00021556
3510.0 0.00022823
3530.0 0.00024199
3550.0 0.0002565
3570.0 0.00027236
3590.0 0.00029025
3610.0 0.00030993
3630.0 0.00033009
3650.0 0.00035149
3670.0 0.00037118
3690.0 0.00038616
3710.0 0.00039425
3730.0 0.00039158
3750.0 0.00037788
3770.0 0.00037074
3790.0 0.00034931
3810.0 0.0002838
3830.0 0.00025781
3850.0 0.00030034
3870.0 0.00024565
3890.0 0.00023305
3910.0 0.00030933
3930.0 0.00039819
3950.0 0.00043066
3970.0 0.00049003
3990.0 0.0004434
4010.0 0.00064482
4030.0 0.00060317
4050.0 0.00054525
4070.0 0.00058189
4090.0 0.00055842
4110.0 0.00059665
4130.0 0.00070445
4150.0 0.00083953
4170.0 0.00072471
4190.0 0.00067084
4210.0 0.00071686
4230.0 0.00086574
4250.0 0.00098931
4270.0 0.0010522
4290.0 0.00099213
4310.0 0.00094392
4330.0 0.00098205
4350.0 0.0012193
4370.0 0.0014428
4390.0 0.0012228
4410.0 0.0008164
4430.0 0.00063164
4450.0 0.00055933
4470.0 0.00047036
4490.0 0.0006288
4510.0 0.00097438
4530.0 0.0011461
4550.0 0.0011884
4570.0 0.0012017
4590.0 0.0013685
4610.0 0.0022377
4630.0 0.0029719
4650.0 0.0028702
4670.0 0.0026017
4690.0 0.0027551
4710.0 0.0029224
4730.0 0.0023884
4750.0 0.0015759
4770.0 0.0011854
4790.0 0.0012538
4810.0 0.0012428
4830.0 0.0012059
4850.0 0.0013413
4870.0 0.0017681
4890.0 0.0020599
4910.0 0.0016358
4930.0 0.0015112
4950.0 0.0017184
4970.0 0.0023217
4990.0 0.0030988
5010.0 0.0034679
5030.0 0.0027797
5050.0 0.0016929
5070.0 0.0011887
5090.0 0.00097831
5110.0 0.00096438
5130.0 0.001093
5150.0 0.0010877
5170.0 0.0010526
5190.0 0.00098544
5210.0 0.0010119
5230.0 0.0011636
5250.0 0.0013138
5270.0 0.0013239
5290.0 0.0014831
5310.0 0.0018377
5330.0 0.0019097
5350.0 0.0018897
5370.0 0.0021101
5390.0 0.0025039
5410.0 0.0022378
5430.0 0.0017687
5450.0 0.0017103
5470.0 0.0019732
5490.0 0.0025216
5510.0 0.0031656
5530.0 0.0036176
5550.0 0.0033395
5570.0 0.0029867
5590.0 0.0025279
5610.0 0.0024766
5630.0 0.0026063
5650.0 0.0025208
5670.0 0.0023795
5690.0 0.0020261
5710.0 0.0020145
5730.0 0.0019224
5750.0 0.001133
5770.0 0.00089737
5790.0 0.0010698
5810.0 0.0012268
5830.0 0.001654
5850.0 0.0020125
5870.0 0.0021088
5890.0 0.0020062
5910.0 0.0019291
5930.0 0.0018989
5950.0 0.0019773
5970.0 0.0023259
5990.0 0.0020162
6010.0 0.0015995
6030.0 0.0013085
6050.0 0.0011483
6070.0 0.0012794
6090.0 0.0014585
6110.0 0.0015359
6130.0 0.0014249
6150.0 0.0011935
6170.0 0.001118
6190.0 0.0013795
6210.0 0.0019268
6230.0 0.0025478
6250.0 0.0026428
6270.0 0.0021491
6290.0 0.0018091
6310.0 0.0014032
6330.0 0.0010606
6350.0 0.0009974
6370.0 0.0010566
6390.0 0.0012736
6410.0 0.0015665
6430.0 0.0018613
6450.0 0.0022493
6470.0 0.0025217
6490.0 0.00308
6510.0 0.0034523
6530.0 0.0033558
6550.0 0.0030806
6570.0 0.0027129
6590.0 0.0026267
6610.0 0.0022354
6630.0 0.0021842
6650.0 0.0020543
6670.0 0.0019506
6690.0 0.0017151
6710.0 0.0015959
6730.0 0.0010841
6750.0 0.0011229
6770.0 0.0013679
6790.0 0.0017013
6810.0 0.0014249
6830.0 0.0014623
6850.0 0.0013293
6870.0 0.0012665
6890.0 0.0011593
6910.0 0.0012366
6930.0 0.0011551
6950.0 0.0012886
6970.0 0.0013045
6990.0 0.0014521
7010.0 0.0014914
7030.0 0.0015204
7050.0 0.0013638
7070.0 0.0012412
7090.0 0.0012322
7110.0 0.0012186
7130.0 0.0013253
7150.0 0.0014708
7170.0 0.0016113
7190.0 0.0016608
7210.0 0.0015225
7230.0 0.0015479
7250.0 0.0017189
7270.0 0.001942
7290.0 0.002252
7310.0 0.0022728
7330.0 0.0020488
7350.0 0.0018258
7370.0 0.0015004
7390.0 0.0015493
7410.0 0.0017954
7430.0 0.0020036
7450.0 0.0021598
7470.0 0.0021531
7490.0 0.0020988
7510.0 0.0027635
7530.0 0.0025061
7550.0 0.0022109
7570.0 0.0015838
7590.0 0.00090769
7610.0 0.00073734
7630.0 0.00090866
7650.0 0.0011214
7670.0 0.0015301
7690.0 0.0017318
7710.0 0.0016862
7730.0 0.0016866
7750.0 0.0019768
7770.0 0.0019945
7790.0 0.0018705
7810.0 0.0016837
7830.0 0.0017262
7850.0 0.0017286
7870.0 0.0016373
7890.0 0.0013627
7910.0 0.0010197
7930.0 0.00096066
7950.0 0.0008641
7970.0 0.00078288
7990.0 0.00075562
8010.0 0.00075446
8030.0 0.00073562
8050.0 0.00076014
8070.0 0.00077813
8090.0 0.00084642
8110.0 0.00079404
8130.0 0.00061061
8150.0 0.00058472
8170.0 0.00047186
8190.0 0.00042509
8210.0 0.00055156
8230.0 0.00061367
8250.0 0.00046327
8270.0 0.00040451
8290.0 0.00040189
8310.0 0.00029662
8330.0 0.00018789
8350.0 0.00014308
8370.0 0.00010644
8390.0 0.00016682
8410.0 0.00020651
8430.0 0.00025544
8450.0 0.00028466
8470.0 0.00036573
8490.0 0.00033274
8510.0 0.00030594
8530.0 0.00026536
8550.0 0.00042789
8570.0 0.00058248
8590.0 0.00055226
8610.0 0.00071885
8630.0 0.00081296
8650.0 0.00070252
8670.0 0.00078615
8690.0 0.00091359
8710.0 0.00083037
8730.0 0.00083358
8750.0 0.00072376
8770.0 0.00067729
8790.0 0.00070253
8810.0 0.00070352
8830.0 0.00050976
8850.0 0.00036118
8870.0 0.00029055
8890.0 0.00035996
8910.0 0.00045167
8930.0 0.00052933
8950.0 0.00060136
8970.0 0.00059773
8990.0 0.00052709
9010.0 0.00043112
9030.0 0.00039705
9050.0 0.00040558
9070.0 0.00041315
9090.0 0.00041903
9110.0 0.00042541
9130.0 0.00043027
9150.0 0.00043407
9170.0 0.00043811
9190.0 0.00044243
9210.0 0.00044695
9230.0 0.00045174
9250.0 0.00045668
9270.0 0.0004618
9290.0 0.00046708
9310.0 0.00047246
9330.0 0.00047798
9350.0 0.00048367
9370.0 0.00048948
9390.0 0.00049539
9410.0 0.00050147
9430.0 0.00050769
9450.0 0.00051401
9470.0 0.00052046
9490.0 0.00052706
9510.0 0.00053378
9530.0 0.00054061
9550.0 0.0005476
9570.0 0.00055472
9590.0 0.00056194
9610.0 0.00056928
9630.0 0.00057677
9650.0 0.00058437
9670.0 0.00059205
9690.0 0.00059988
9710.0 0.00060782
9730.0 0.00061585
9750.0 0.00062399
9770.0 0.00063228
9790.0 0.00064064
9810.0 0.00064908
9830.0 0.00065763
9850.0 0.00066629
9870.0 0.00067499
9890.0 0.00068379
9910.0 0.0006927
9930.0 0.00070166
9950.0 0.00071067
9970.0 0.00071978
9990.0 0.00072896
10010.0 0.00068356
10030.0 0.00069194
10050.0 0.00070036
10070.0 0.00070872
10090.0 0.00071722
10110.0 0.00072576
10130.0 0.00073431
10150.0 0.00074284
10170.0 0.00075139
10190.0 0.00075994
10210.0 0.00076847
10230.0 0.00077698
10250.0 0.00078549
10270.0 0.00079397
10290.0 0.00080241
10310.0 0.00081082
10330.0 0.00081919
10350.0 0.0008275
10370.0 0.00083575
10390.0 0.00084395
10410.0 0.00085207
10430.0 0.00086011
10450.0 0.00086807
10470.0 0.00087595
10490.0 0.00088372
10510.0 0.00089138
10530.0 0.00089896
10550.0 0.00090641
10570.0 0.00091373
10590.0 0.00092094
10610.0 0.00092801
10630.0 0.00093493
10650.0 0.00094171
10670.0 0.00094836
10690.0 0.00095484
10710.0 0.00096116
10730.0 0.00096731
10750.0 0.00097331
10770.0 0.00097911
10790.0 0.00098474
10810.0 0.00099017
10830.0 0.00099537
10850.0 0.0010003
10870.0 0.0010048
10890.0 0.0010087
10910.0 0.0010117
10930.0 0.0010132
10950.0 0.0010124
10970.0 0.0010088
10990.0 0.0010021
11010.0 0.0010028
11030.0 0.00098751
11050.0 0.00096886
11070.0 0.00094642
11090.0 0.00091926
11110.0 0.00089109
11130.0 0.00086162
11150.0 0.00082984
11170.0 0.00079713
11190.0 0.00076556
11210.0 0.00073317
11230.0 0.00070026
11250.0 0.00066916
11270.0 0.00063965
11290.0 0.00061044
11310.0 0.00058311
11330.0 0.00055928
11350.0 0.00053695
11370.0 0.00051642
11390.0 0.00049865
11410.0 0.000483
11430.0 0.00046826
11450.0 0.00045524
11470.0 0.00044359
11490.0 0.00043234
11510.0 0.00042107
11530.0 0.00041021
11550.0 0.00039915
11570.0 0.0003872
11590.0 0.00037476
11610.0 0.00036212
11630.0 0.00034849
11650.0 0.00033407
11670.0 0.00032001
11690.0 0.00030592
11710.0 0.00029156
11730.0 0.00027778
11750.0 0.00026511
11770.0 0.00025278
11790.0 0.00024127
11810.0 0.00023112
11830.0 0.00022201
11850.0 0.00021356
11870.0 0.00020636
11890.0 0.00020022
11910.0 0.00019465
11930.0 0.00018966
11950.0 0.00018526
11970.0 0.00018111
11990.0 0.000177
12010.0 0.00017301
12030.0 0.00016904
12050.0 0.00016488
12070.0 0.00016051
12090.0 0.00015626
12110.0 0.00015191
12130.0 0.0001475
12150.0 0.0001433
12170.0 0.00013944
12190.0 0.00013577
12210.0 0.00013266
12230.0 0.00013024
12250.0 0.00012849
12270.0 0.00012753
12290.0 0.00012742
12310.0 0.00012809
12330.0 0.00012966
12350.0 0.00013205
12370.0 0.00013503
12390.0 0.00013869
12410.0 0.00014316
12430.0 0.00014775
12450.0 0.00015253
12470.0 0.00015763
12490.0 0.00016271
12510.0 0.00016737
12530.0 0.00017194
12550.0 0.00017625
12570.0 0.00017988
12590.0 0.0001829
12610.0 0.00018545
12630.0 0.00018725
12650.0 0.0001882
12670.0 0.00018851
12690.0 0.00018811
12710.0 0.000187
12730.0 0.00018528
12750.0 0.0001829
12770.0 0.00017999
12790.0 0.00017667
12810.0 0.0001729
12830.0 0.00016869
12850.0 0.00016436
12870.0 0.00015984
12890.0 0.00015502
12910.0 0.00015012
12930.0 0.00014528
12950.0 0.00014023
12970.0 0.00013506
12990.0 0.00013009
13010.0 0.00012513
13030.0 0.00012006
13050.0 0.00011512
13070.0 0.00011041
13090.0 0.00010564
13110.0 0.00010097
13130.0 9.6597e-05
13150.0 9.2416e-05
13170.0 8.83e-05
13190.0 8.4594e-05
13210.0 8.1298e-05
13230.0 7.8265e-05
13250.0 7.562e-05
13270.0 7.3482e-05
13290.0 7.1758e-05
13310.0 7.0476e-05
13330.0 6.9717e-05
13350.0 6.9433e-05
13370.0 6.963e-05
13390.0 7.0322e-05
13410.0 7.1364e-05
13430.0 7.2794e-05
13450.0 7.4609e-05
13470.0 7.664e-05
13490.0 7.8794e-05
13510.0 8.1243e-05
13530.0 8.3722e-05
13550.0 8.6084e-05
13570.0 8.8412e-05
13590.0 9.0683e-05
13610.0 9.2689e-05
13630.0 9.4423e-05
13650.0 9.6e-05
13670.0 9.7284e-05
13690.0 9.8238e-05
13710.0 9.8937e-05
13730.0 9.9383e-05
13750.0 9.9509e-05
13770.0 9.939e-05
13790.0 9.9038e-05
13810.0 9.8461e-05
13830.0 9.7706e-05
13850.0 9.676e-05
13870.0 9.563e-05
13890.0 9.4383e-05
13910.0 9.3022e-05
13930.0 9.1498e-05
13950.0 8.9879e-05
13970.0 8.8256e-05
13990.0 8.6531e-05
14010.0 8.4737e-05
14030.0 8.2978e-05
14050.0 8.1235e-05
14070.0 7.9431e-05
14090.0 7.7726e-05
14110.0 7.6144e-05
14130.0 7.4631e-05
14150.0 7.3227e-05
14170.0 7.2038e-05
14190.0 7.1021e-05
14210.0 7.017e-05
14230.0 6.9548e-05
14250.0 6.9154e-05
14270.0 6.8977e-05
14290.0 6.9045e-05
14310.0 6.933e-05
14330.0 6.9827e-05
14350.0 7.0551e-05
14370.0 7.1452e-05
14390.0 7.2477e-05
14410.0 7.3694e-05
14430.0 7.5046e-05
14450.0 7.6449e-05
14470.0 7.7934e-05
14490.0 7.9558e-05
14510.0 8.1167e-05
14530.0 8.2761e-05
14550.0 8.4437e-05
14570.0 8.6148e-05
14590.0 8.7819e-05
14610.0 8.9558e-05
14630.0 9.142e-05
14650.0 9.3297e-05
14670.0 9.5232e-05
14690.0 9.7349e-05
14710.0 9.9641e-05
14730.0 0.00010195
14750.0 0.00010448
14770.0 0.00010726
14790.0 0.00011014
14810.0 0.00011313
14830.0 0.00011647
14850.0 0.0001199
14870.0 0.00012329
14890.0 0.00012677
14910.0 0.0001303
14930.0 0.00013356
14950.0 0.00013651
14970.0 0.00013922
14990.0 0.00014144
15010.0 0.00014312
15030.0 0.00014436
15050.0 0.00014518
15070.0 0.00014561
15090.0 0.0001458
15110.0 0.00014581
15130.0 0.00014572
15150.0 0.00014559
15170.0 0.00014542
15190.0 0.00014524
15210.0 0.00014506
15230.0 0.00014489
15250.0 0.00014471
15270.0 0.00014453
15290.0 0.00014437
15310.0 0.0001442
15330.0 0.00014403
15350.0 0.00014387
15370.0 0.00014372
15390.0 0.00014355
15410.0 0.00014339
15430.0 0.00014324
15450.0 0.00014308
15470.0 0.00014292
15490.0 0.00014277
15510.0 0.00014263
15530.0 0.00014247
15550.0 0.00014232
15570.0 0.00014218
15590.0 0.00014202
15610.0 0.00014186
15630.0 0.00014172
15650.0 0.00014158
15670.0 0.00014142
15690.0 0.00014127
15710.0 0.00014113
15730.0 0.00014097
15750.0 0.00014081
15770.0 0.00014067
15790.0 0.00014052
15810.0 0.00014035
15830.0 0.00014019
15850.0 0.00014004
15870.0 0.00013988
15890.0 0.00013971
15910.0 0.00013956
15930.0 0.00013939
15950.0 0.00013922
15970.0 0.00013905
15990.0 0.00013888
16010.0 0.0001387
16030.0 0.00013852
16050.0 0.00013835
16070.0 0.00013817
16090.0 0.00013798
16110.0 0.0001378
16130.0 0.00013762
16150.0 0.00013742
16170.0 0.00013722
16190.0 0.00013703
16210.0 0.00013683
16230.0 0.00013661
16250.0 0.00013641
16270.0 0.00013621
16290.0 0.00013598
16310.0 0.00013576
16330.0 0.00013555
16350.0 0.00013533
16370.0 0.00013508
16390.0 0.00013485
16410.0 0.00013462
16430.0 0.00013438
16450.0 0.00013413
16470.0 0.0001339
16490.0 0.00013364
16510.0 0.00013338
16530.0 0.00013312
16550.0 0.00013286
16570.0 0.00013258
16590.0 0.00013231
16610.0 0.00013204
16630.0 0.00013176
16650.0 0.00013147
16670.0 0.00013119
16690.0 0.0001309
16710.0 0.00013059
16730.0 0.00013029
16750.0 0.00012999
16770.0 0.00012968
16790.0 0.00012935
16810.0 0.00012904
16830.0 0.00012873
16850.0 0.00012839
16870.0 0.00012806
16890.0 0.00012774
16910.0 0.00012739
16930.0 0.00012703
16950.0 0.00012669
16970.0 0.00012634
16990.0 0.00012598
17010.0 0.00012562
17030.0 0.00012527
17050.0 0.00012489
17070.0 0.00012451
17090.0 0.00012414
17110.0 0.00012376
17130.0 0.00012336
17150.0 0.00012297
17170.0 0.00012259
17190.0 0.00012219
17210.0 0.00012178
17230.0 0.00012139
17250.0 0.00012098
17270.0 0.00012055
17290.0 0.00012014
17310.0 0.00011972
17330.0 0.00011929
17350.0 0.00011885
17370.0 0.00011844
17390.0 0.000118
17410.0 0.00011755
17430.0 0.00011712
17450.0 0.00011668
17470.0 0.00011622
17490.0 0.00011576
17510.0 0.00011532
17530.0 0.00011486
17550.0 0.00011438
17570.0 0.00011393
17590.0 0.00011347
17610.0 0.00011299
17630.0 0.00011251
17650.0 0.00011204
17670.0 0.00011156
17690.0 0.00011106
17710.0 0.00011059
17730.0 0.00011011
17750.0 0.00010961
17770.0 0.00010912
17790.0 0.00010863
17810.0 0.00010813
17830.0 0.00010762
17850.0 0.00010713
17870.0 0.00010663
17890.0 0.00010611
17910.0 0.0001056
17930.0 0.0001051
17950.0 0.00010459
17970.0 0.00010407
17990.0 0.00010356
18010.0 0.00010305
18030.0 0.00010251
18050.0 0.00010199
18070.0 0.00010148
18090.0 0.00010095
18110.0 0.00010042
18130.0 9.9901e-05
18150.0 9.9378e-05
18170.0 9.8841e-05
18190.0 9.8312e-05
18210.0 9.7791e-05
18230.0 9.7251e-05
18250.0 9.6706e-05
18270.0 9.6182e-05
18290.0 9.565e-05
18310.0 9.5106e-05
18330.0 9.4573e-05
18350.0 9.4047e-05
18370.0 9.3502e-05
18390.0 9.2958e-05
18410.0 9.2427e-05
18430.0 9.189e-05
18450.0 9.1336e-05
18470.0 9.08e-05
18490.0 9.0269e-05
18510.0 8.9725e-05
18530.0 8.9181e-05
18550.0 8.8652e-05
18570.0 8.8111e-05
18590.0 8.7559e-05
18610.0 8.7022e-05
18630.0 8.6488e-05
18650.0 8.5941e-05
18670.0 8.5394e-05
18690.0 8.4867e-05
18710.0 8.4329e-05
18730.0 8.3783e-05
18750.0 8.3249e-05
18770.0 8.2721e-05
18790.0 8.2169e-05
18810.0 8.1629e-05
18830.0 8.1102e-05
18850.0 8.0566e-05
18870.0 8.0022e-05
18890.0 7.9495e-05
18910.0 7.897e-05
18930.0 7.8429e-05
18950.0 7.7896e-05
18970.0 7.7374e-05
18990.0 7.6843e-05
19010.0 7.6298e-05
19030.0 7.5779e-05
19050.0 7.5258e-05
19070.0 7.4726e-05
19090.0 7.4201e-05
19110.0 7.3691e-05
19130.0 7.3162e-05
19150.0 7.2633e-05
19170.0 7.2119e-05
19190.0 7.1605e-05
19210.0 7.1078e-05
19230.0 7.0559e-05
19250.0 7.0057e-05
19270.0 6.9541e-05
19290.0 6.9025e-05
19310.0 6.8522e-05
19330.0 6.8019e-05
19350.0 6.7497e-05
19370.0 6.6993e-05
19390.0 6.6496e-05
19410.0 6.599e-05
19430.0 6.5481e-05
19450.0 6.4992e-05
19470.0 6.4498e-05
19490.0 6.3994e-05
19510.0 6.3501e-05
19530.0 6.3017e-05
19550.0 6.2519e-05
19570.0 6.202e-05
19590.0 6.1542e-05
19610.0 6.1058e-05
19630.0 6.0567e-05
19650.0 6.0088e-05
19670.0 5.9617e-05
19690.0 5.9131e-05
19710.0 5.865e-05
19730.0 5.8181e-05
19750.0 5.7709e-05
19770.0 5.7225e-05
19790.0 5.6759e-05
19810.0 5.6299e-05
19830.0 5.5827e-05
19850.0 5.5357e-05
19870.0 5.4897e-05
19890.0 5.4417e-05
19910.0 5.3909e-05
19930.0 5.3388e-05
19950.0 5.2826e-05
19970.0 5.2181e-05
19990.0 5.1454e-05
20010.0 5.078e-05
20030.0 4.9873e-05
20050.0 4.8854e-05
20070.0 4.7786e-05
20090.0 4.6667e-05
20110.0 4.544e-05
20130.0 4.4223e-05
20150.0 4.3038e-05
20170.0 4.1832e-05
20190.0 4.0628e-05
20210.0 3.9502e-05
20230.0 3.8413e-05
20250.0 3.7333e-05
20270.0 3.6333e-05
20290.0 3.5419e-05
20310.0 3.4551e-05
20330.0 3.3738e-05
20350.0 3.3054e-05
20370.0 3.2442e-05
20390.0 3.1898e-05
20410.0 3.1449e-05
20430.0 3.1092e-05
20450.0 3.0802e-05
20470.0 3.0595e-05
20490.0 3.0467e-05
20510.0 3.0408e-05
20530.0 3.0417e-05
20550.0 3.0487e-05
20570.0 3.0603e-05
20590.0 3.0776e-05
20610.0 3.0993e-05
20630.0 3.1237e-05
20650.0 3.1516e-05
20670.0 3.1841e-05
20690.0 3.2172e-05
20710.0 3.2514e-05
20730.0 3.2883e-05
20750.0 3.3267e-05
20770.0 3.3638e-05
20790.0 3.4025e-05
20810.0 3.443e-05
20830.0 3.4825e-05
20850.0 3.5216e-05
20870.0 3.5631e-05
20890.0 3.6048e-05
20910.0 3.6442e-05
20930.0 3.6849e-05
20950.0 3.7268e-05
20970.0 3.7673e-05
20990.0 3.807e-05
21010.0 3.849e-05
21030.0 3.8899e-05
21050.0 3.9288e-05
21070.0 3.968e-05
21090.0 4.0077e-05
21110.0 4.044e-05
21130.0 4.0784e-05
21150.0 4.1126e-05
21170.0 4.1443e-05
21190.0 4.1723e-05
21210.0 4.199e-05
21230.0 4.2231e-05
21250.0 4.2424e-05
21270.0 4.2579e-05
21290.0 4.2697e-05
21310.0 4.2763e-05
21330.0 4.2773e-05
21350.0 4.2729e-05
21370.0 4.2623e-05
21390.0 4.2452e-05
21410.0 4.2218e-05
21430.0 4.1897e-05
21450.0 4.151e-05
21470.0 4.1064e-05
21490.0 4.0539e-05
21510.0 3.9939e-05
21530.0 3.9304e-05
21550.0 3.8616e-05
21570.0 3.7858e-05
21590.0 3.7085e-05
21610.0 3.6311e-05
21630.0 3.5508e-05
21650.0 3.4691e-05
21670.0 3.3947e-05
21690.0 3.3225e-05
21710.0 3.2532e-05
21730.0 3.1913e-05
21750.0 3.1377e-05
21770.0 3.0891e-05
21790.0 3.0497e-05
21810.0 3.0204e-05
21830.0 2.9997e-05
21850.0 2.9883e-05
21870.0 2.9864e-05
21890.0 2.993e-05
21910.0 3.0085e-05
21930.0 3.0323e-05
21950.0 3.0624e-05
21970.0 3.0996e-05
21990.0 3.1455e-05
22010.0 3.1945e-05
22030.0 3.2472e-05
22050.0 3.3057e-05
22070.0 3.3675e-05
22090.0 3.4285e-05
22110.0 3.4927e-05
22130.0 3.5595e-05
22150.0 3.6241e-05
22170.0 3.6872e-05
22190.0 3.752e-05
22210.0 3.8142e-05
22230.0 3.8703e-05
22250.0 3.9247e-05
22270.0 3.976e-05
22290.0 4.0208e-05
22310.0 4.0601e-05
22330.0 4.0958e-05
22350.0 4.1242e-05
22370.0 4.1451e-05
22390.0 4.1597e-05
22410.0 4.167e-05
22430.0 4.1662e-05
22450.0 4.1579e-05
22470.0 4.1414e-05
22490.0 4.1169e-05
22510.0 4.0856e-05
22530.0 4.045e-05
22550.0 3.9954e-05
22570.0 3.9401e-05
22590.0 3.8775e-05
22610.0 3.8055e-05
22630.0 3.7273e-05
22650.0 3.6462e-05
22670.0 3.5564e-05
22690.0 3.4601e-05
22710.0 3.3626e-05
22730.0 3.2615e-05
22750.0 3.1515e-05
22770.0 3.0433e-05
