#lamb flux
1010.0 1.1114e-08
1030.0 1.2292e-08
1050.0 1.3647e-08
1070.0 1.5173e-08
1090.0 1.6906e-08
1110.0 1.8683e-08
1130.0 2.0471e-08
1150.0 2.2345e-08
1170.0 2.4278e-08
1190.0 2.611e-08
1210.0 2.7968e-08
1230.0 2.9887e-08
1250.0 3.1768e-08
1270.0 3.3594e-08
1290.0 3.5524e-08
1310.0 3.7452e-08
1330.0 3.9301e-08
1350.0 4.1171e-08
1370.0 4.3102e-08
1390.0 4.4985e-08
1410.0 4.6811e-08
1430.0 4.8721e-08
1450.0 5.0631e-08
1470.0 5.2476e-08
1490.0 5.4342e-08
1510.0 5.6313e-08
1530.0 5.818e-08
1550.0 6.0023e-08
1570.0 6.193e-08
1590.0 6.3839e-08
1610.0 6.5663e-08
1630.0 6.7545e-08
1650.0 6.9477e-08
1670.0 7.1347e-08
1690.0 7.3194e-08
1710.0 7.5114e-08
1730.0 7.7045e-08
1750.0 7.8864e-08
1770.0 8.0737e-08
1790.0 8.2651e-08
1810.0 8.4506e-08
1830.0 8.6331e-08
1850.0 8.8271e-08
1870.0 9.0164e-08
1890.0 9.1996e-08
1910.0 9.3869e-08
1930.0 9.579e-08
1950.0 9.7629e-08
1970.0 9.9449e-08
1990.0 1.0134e-07
2010.0 1.0321e-07
2030.0 1.0501e-07
2050.0 1.0688e-07
2070.0 1.0879e-07
2090.0 1.106e-07
2110.0 1.1241e-07
2130.0 1.1427e-07
2150.0 1.1611e-07
2170.0 1.1787e-07
2190.0 1.197e-07
2210.0 1.2154e-07
2230.0 1.2331e-07
2250.0 1.2508e-07
2270.0 1.2693e-07
2290.0 1.2872e-07
2310.0 1.3044e-07
2330.0 1.3224e-07
2350.0 1.3408e-07
2370.0 1.3591e-07
2390.0 1.379e-07
2410.0 1.4025e-07
2430.0 1.4296e-07
2450.0 1.4619e-07
2470.0 1.5034e-07
2490.0 1.5556e-07
2510.0 1.615e-07
2530.0 1.6865e-07
2550.0 1.776e-07
2570.0 1.8873e-07
2590.0 2.0321e-07
2610.0 2.2489e-07
2630.0 2.5584e-07
2650.0 2.9631e-07
2670.0 3.4863e-07
2690.0 4.1293e-07
2710.0 4.8157e-07
2730.0 5.4939e-07
2750.0 6.162e-07
2770.0 6.743e-07
2790.0 7.2044e-07
2810.0 7.5706e-07
2830.0 7.8567e-07
2850.0 8.052e-07
2870.0 8.1953e-07
2890.0 8.3088e-07
2910.0 8.3994e-07
2930.0 8.4734e-07
2950.0 8.544e-07
2970.0 8.6131e-07
2990.0 8.6779e-07
3010.0 2.4528e-05
3030.0 2.4712e-05
3050.0 2.4889e-05
3070.0 2.5041e-05
3090.0 2.5171e-05
3110.0 2.5252e-05
3130.0 2.5249e-05
3150.0 2.5137e-05
3170.0 2.4868e-05
3190.0 2.4445e-05
3210.0 2.3909e-05
3230.0 2.3295e-05
3250.0 2.2689e-05
3270.0 2.2247e-05
3290.0 2.2001e-05
3310.0 2.2041e-05
3330.0 2.236e-05
3350.0 2.2915e-05
3370.0 2.3708e-05
3390.0 2.4708e-05
3410.0 2.5796e-05
3430.0 2.7017e-05
3450.0 2.8423e-05
3470.0 2.9958e-05
3490.0 3.1585e-05
3510.0 3.3424e-05
3530.0 3.5394e-05
3550.0 3.7388e-05
3570.0 3.9468e-05
3590.0 4.173e-05
3610.0 4.4061e-05
3630.0 4.6384e-05
3650.0 4.8795e-05
3670.0 5.0996e-05
3690.0 5.2641e-05
3710.0 5.3584e-05
3730.0 5.3616e-05
3750.0 5.2869e-05
3770.0 5.2576e-05
3790.0 5.2264e-05
3810.0 5.0979e-05
3830.0 5.2557e-05
3850.0 5.8765e-05
3870.0 6.2173e-05
3890.0 6.1889e-05
3910.0 6.2153e-05
3930.0 6.3789e-05
3950.0 6.4797e-05
3970.0 5.9035e-05
3990.0 5.0797e-05
4010.0 0.00015225
4030.0 0.00018447
4050.0 0.00021148
4070.0 0.0001835
4090.0 0.00016619
4110.0 0.00014665
4130.0 0.00013497
4150.0 0.00014357
4170.0 0.00014142
4190.0 0.00015075
4210.0 0.00014937
4230.0 0.00015799
4250.0 0.00018691
4270.0 0.00018911
4290.0 0.00017426
4310.0 0.00018107
4330.0 0.0001926
4350.0 0.00021596
4370.0 0.00024576
4390.0 0.00023062
4410.0 0.00017039
4430.0 0.00014424
4450.0 0.00013254
4470.0 0.00010173
4490.0 0.00010978
4510.0 0.00016583
4530.0 0.00019125
4550.0 0.00019291
4570.0 0.00021707
4590.0 0.00024726
4610.0 0.0003335
4630.0 0.00043315
4650.0 0.00046974
4670.0 0.00043503
4690.0 0.00041509
4710.0 0.00043878
4730.0 0.00041409
4750.0 0.00030958
4770.0 0.00022709
4790.0 0.00021206
4810.0 0.00020213
4830.0 0.00018504
4850.0 0.00020305
4870.0 0.00026825
4890.0 0.00031635
4910.0 0.00027755
4930.0 0.0002456
4950.0 0.00026982
4970.0 0.00034603
4990.0 0.00046896
5010.0 0.00053947
5030.0 0.00047569
5050.0 0.00032184
5070.0 0.0002121
5090.0 0.00017103
5110.0 0.00017589
5130.0 0.000203
5150.0 0.00021994
5170.0 0.00021664
5190.0 0.00020243
5210.0 0.00021159
5230.0 0.00022243
5250.0 0.00023972
5270.0 0.00025864
5290.0 0.00028662
5310.0 0.00033362
5330.0 0.0003692
5350.0 0.00036684
5370.0 0.00038533
5390.0 0.00044218
5410.0 0.00044178
5430.0 0.00039069
5450.0 0.00035896
5470.0 0.00038115
5490.0 0.00046566
5510.0 0.00058224
5530.0 0.00066781
5550.0 0.00064544
5570.0 0.00058676
5590.0 0.0005102
5610.0 0.00047052
5630.0 0.00045625
5650.0 0.00043454
5670.0 0.00041176
5690.0 0.00036812
5710.0 0.00035892
5730.0 0.00033062
5750.0 0.00023311
5770.0 0.00018186
5790.0 0.00020609
5810.0 0.00023271
5830.0 0.00028557
5850.0 0.00033994
5870.0 0.00037717
5890.0 0.00038356
5910.0 0.0003763
5930.0 0.0003582
5950.0 0.000365
5970.0 0.00041606
5990.0 0.00039121
6010.0 0.00032795
6030.0 0.00027707
6050.0 0.00024129
6070.0 0.00023997
6090.0 0.00026021
6110.0 0.00029096
6130.0 0.00029541
6150.0 0.00025418
6170.0 0.0002236
6190.0 0.00025163
6210.0 0.00033265
6230.0 0.00043653
6250.0 0.00047282
6270.0 0.00041318
6290.0 0.00034763
6310.0 0.00027139
6330.0 0.00020793
6350.0 0.00018547
6370.0 0.00019504
6390.0 0.00022548
6410.0 0.00027803
6430.0 0.00032466
6450.0 0.00037149
6470.0 0.00042537
6490.0 0.00051382
6510.0 0.00057452
6530.0 0.00056364
6550.0 0.00050968
6570.0 0.00043267
6590.0 0.00039015
6610.0 0.00033641
6630.0 0.00030477
6650.0 0.0002881
6670.0 0.00027988
6690.0 0.00025289
6710.0 0.00022988
6730.0 0.00016558
6750.0 0.00016415
6770.0 0.00017842
6790.0 0.00020509
6810.0 0.00018766
6830.0 0.00019324
6850.0 0.00018074
6870.0 0.0001651
6890.0 0.00015852
6910.0 0.00016893
6930.0 0.00015822
6950.0 0.00016279
6970.0 0.00017122
6990.0 0.00019435
7010.0 0.00019601
7030.0 0.00019912
7050.0 0.00018989
7070.0 0.00018093
7090.0 0.00018146
7110.0 0.00018671
7130.0 0.00020093
7150.0 0.00021341
7170.0 0.00023548
7190.0 0.00025886
7210.0 0.00025436
7230.0 0.00026149
7250.0 0.00028101
7270.0 0.00030623
7290.0 0.00036347
7310.0 0.0003944
7330.0 0.00038121
7350.0 0.00034479
7370.0 0.00029999
7390.0 0.00029103
7410.0 0.00030928
7430.0 0.00034372
7450.0 0.00037438
7470.0 0.00037094
7490.0 0.00033823
7510.0 0.00038313
7530.0 0.00037893
7550.0 0.00034059
7570.0 0.00026606
7590.0 0.00018291
7610.0 0.00015699
7630.0 0.00017837
7650.0 0.0002109
7670.0 0.00026248
7690.0 0.00028884
7710.0 0.00030101
7730.0 0.00031632
7750.0 0.0003551
7770.0 0.00036069
7790.0 0.00033131
7810.0 0.0003023
7830.0 0.00031174
7850.0 0.00030304
7870.0 0.00027783
7890.0 0.00023343
7910.0 0.00018975
7930.0 0.00018118
7950.0 0.00016506
7970.0 0.00015279
7990.0 0.00015192
8010.0 1.1252e-05
8030.0 1.1106e-05
8050.0 1.0956e-05
8070.0 1.1099e-05
8090.0 1.1926e-05
8110.0 1.1723e-05
8130.0 9.6697e-06
8150.0 9.4171e-06
8170.0 8.1115e-06
8190.0 7.6874e-06
8210.0 9.9828e-06
8230.0 1.1115e-05
8250.0 1.0017e-05
8270.0 8.7188e-06
8290.0 8.4992e-06
8310.0 6.5414e-06
8330.0 4.4089e-06
8350.0 3.1289e-06
8370.0 1.9714e-06
8390.0 3.6036e-06
8410.0 4.1992e-06
8430.0 5.1761e-06
8450.0 6.0782e-06
8470.0 7.5548e-06
8490.0 7.5015e-06
8510.0 7.3788e-06
8530.0 7.7008e-06
8550.0 1.039e-05
8570.0 1.23e-05
8590.0 1.3272e-05
8610.0 1.6765e-05
8630.0 2.0196e-05
8650.0 2.1127e-05
8670.0 2.2452e-05
8690.0 2.2578e-05
8710.0 2.0447e-05
8730.0 1.9019e-05
8750.0 1.6788e-05
8770.0 1.5929e-05
8790.0 1.5649e-05
8810.0 1.4996e-05
8830.0 1.1991e-05
8850.0 8.7785e-06
8870.0 6.7216e-06
8890.0 6.5714e-06
8910.0 7.5309e-06
8930.0 8.5659e-06
8950.0 8.73e-06
8970.0 8.7712e-06
8990.0 7.8229e-06
9010.0 8.198e-05
9030.0 7.4284e-05
9050.0 7.4642e-05
9070.0 7.5231e-05
9090.0 7.5748e-05
9110.0 7.6386e-05
9130.0 7.6878e-05
9150.0 7.7262e-05
9170.0 7.767e-05
9190.0 7.8105e-05
9210.0 7.8564e-05
9230.0 7.9048e-05
9250.0 7.954e-05
9270.0 8.005e-05
9290.0 8.0576e-05
9310.0 8.1105e-05
9330.0 8.1645e-05
9350.0 8.2204e-05
9370.0 8.2771e-05
9390.0 8.3342e-05
9410.0 8.393e-05
9430.0 8.4536e-05
9450.0 8.514e-05
9470.0 8.5756e-05
9490.0 8.6391e-05
9510.0 8.7032e-05
9530.0 8.7677e-05
9550.0 8.8344e-05
9570.0 8.9023e-05
9590.0 8.9703e-05
9610.0 9.0396e-05
9630.0 9.1107e-05
9650.0 9.1824e-05
9670.0 9.2542e-05
9690.0 9.328e-05
9710.0 9.4029e-05
9730.0 9.4779e-05
9750.0 9.5541e-05
9770.0 9.6326e-05
9790.0 9.7108e-05
9810.0 9.7895e-05
9830.0 9.8699e-05
9850.0 9.9513e-05
9870.0 0.00010032
9890.0 0.00010115
9910.0 0.00010199
9930.0 0.00010283
9950.0 0.00010367
9970.0 0.00010453
9990.0 0.0001054
10010.0 9.146e-05
10030.0 9.221e-05
10050.0 9.2977e-05
10070.0 9.3769e-05
10090.0 9.4516e-05
10110.0 9.5281e-05
10130.0 9.605e-05
10150.0 9.6815e-05
10170.0 9.7591e-05
10190.0 9.8379e-05
10210.0 9.9158e-05
10230.0 9.9936e-05
10250.0 0.00010073
10270.0 0.00010151
10290.0 0.00010229
10310.0 0.00010308
10330.0 0.00010388
10350.0 0.00010466
10370.0 0.00010544
10390.0 0.00010623
10410.0 0.00010702
10430.0 0.00010779
10450.0 0.00010857
10470.0 0.00010935
10490.0 0.00011012
10510.0 0.00011088
10530.0 0.00011165
10550.0 0.00011241
10570.0 0.00011316
10590.0 0.00011391
10610.0 0.00011466
10630.0 0.00011539
10650.0 0.00011611
10670.0 0.00011684
10690.0 0.00011756
10710.0 0.00011826
10730.0 0.00011897
10750.0 0.00011967
10770.0 0.00012035
10790.0 0.00012102
10810.0 0.00012169
10830.0 0.00012234
10850.0 0.00012296
10870.0 0.00012355
10890.0 0.00012408
10910.0 0.00012448
10930.0 0.00012471
10950.0 0.00012466
10970.0 0.00012424
10990.0 0.00012341
11010.0 0.00012202
11030.0 0.00012008
11050.0 0.00011772
11070.0 0.00011489
11090.0 0.00011149
11110.0 0.00010797
11130.0 0.0001043
11150.0 0.00010035
11170.0 9.6284e-05
11190.0 9.2336e-05
11210.0 8.8258e-05
11230.0 8.4077e-05
11250.0 8.0082e-05
11270.0 7.6245e-05
11290.0 7.2402e-05
11310.0 6.8761e-05
11330.0 6.5554e-05
11350.0 6.2524e-05
11370.0 5.9725e-05
11390.0 5.7303e-05
11410.0 5.5185e-05
11430.0 5.3216e-05
11450.0 5.152e-05
11470.0 5.0053e-05
11490.0 4.8688e-05
11510.0 4.7373e-05
11530.0 4.6153e-05
11550.0 4.4941e-05
11570.0 4.3647e-05
11590.0 4.2308e-05
11610.0 4.0945e-05
11630.0 3.9461e-05
11650.0 3.7873e-05
11670.0 3.6307e-05
11690.0 3.4719e-05
11710.0 3.3081e-05
11730.0 3.1494e-05
11750.0 3.0026e-05
11770.0 2.8585e-05
11790.0 2.7235e-05
11810.0 2.6047e-05
11830.0 2.4984e-05
11850.0 2.4005e-05
11870.0 2.3187e-05
11890.0 2.2506e-05
11910.0 2.1908e-05
11930.0 2.1394e-05
11950.0 2.0965e-05
11970.0 2.0583e-05
11990.0 2.0221e-05
12010.0 1.9887e-05
12030.0 1.9565e-05
12050.0 1.9231e-05
12070.0 1.8885e-05
12090.0 1.8551e-05
12110.0 1.8211e-05
12130.0 1.7872e-05
12150.0 1.7558e-05
12170.0 1.7285e-05
12190.0 1.7048e-05
12210.0 1.6883e-05
12230.0 1.6803e-05
12250.0 1.6816e-05
12270.0 1.6943e-05
12290.0 1.7183e-05
12310.0 1.7526e-05
12330.0 1.8007e-05
12350.0 1.8608e-05
12370.0 1.9291e-05
12390.0 2.008e-05
12410.0 2.1003e-05
12430.0 2.1942e-05
12450.0 2.2914e-05
12470.0 2.3947e-05
12490.0 2.4985e-05
12510.0 2.5959e-05
12530.0 2.6928e-05
12550.0 2.7862e-05
12570.0 2.8687e-05
12590.0 2.9412e-05
12610.0 3.0057e-05
12630.0 3.0571e-05
12650.0 3.0926e-05
12670.0 3.116e-05
12690.0 3.1253e-05
12710.0 3.1202e-05
12730.0 3.1021e-05
12750.0 3.0698e-05
12770.0 3.0255e-05
12790.0 2.9718e-05
12810.0 2.9077e-05
12830.0 2.8335e-05
12850.0 2.7559e-05
12870.0 2.6739e-05
12890.0 2.5851e-05
12910.0 2.4949e-05
12930.0 2.406e-05
12950.0 2.3132e-05
12970.0 2.2187e-05
12990.0 2.1293e-05
13010.0 2.0411e-05
13030.0 1.9518e-05
13050.0 1.8661e-05
13070.0 1.7858e-05
13090.0 1.7052e-05
13110.0 1.6273e-05
13130.0 1.5554e-05
13150.0 1.4873e-05
13170.0 1.4207e-05
13190.0 1.3614e-05
13210.0 1.3092e-05
13230.0 1.2615e-05
13250.0 1.2204e-05
13270.0 1.188e-05
13290.0 1.1628e-05
13310.0 1.1454e-05
13330.0 1.1375e-05
13350.0 1.1384e-05
13370.0 1.1486e-05
13390.0 1.1687e-05
13410.0 1.1958e-05
13430.0 1.231e-05
13450.0 1.2746e-05
13470.0 1.3229e-05
13490.0 1.3741e-05
13510.0 1.4318e-05
13530.0 1.4903e-05
13550.0 1.5463e-05
13570.0 1.6015e-05
13590.0 1.6553e-05
13610.0 1.7032e-05
13630.0 1.745e-05
13650.0 1.7832e-05
13670.0 1.8148e-05
13690.0 1.8393e-05
13710.0 1.8583e-05
13730.0 1.8718e-05
13750.0 1.8786e-05
13770.0 1.8801e-05
13790.0 1.8767e-05
13810.0 1.8684e-05
13830.0 1.8562e-05
13850.0 1.8396e-05
13870.0 1.8187e-05
13890.0 1.7948e-05
13910.0 1.7678e-05
13930.0 1.7366e-05
13950.0 1.7025e-05
13970.0 1.6677e-05
13990.0 1.6298e-05
14010.0 1.5894e-05
14030.0 1.5492e-05
14050.0 1.5086e-05
14070.0 1.4658e-05
14090.0 1.4248e-05
14110.0 1.3862e-05
14130.0 1.3489e-05
14150.0 1.3137e-05
14170.0 1.2837e-05
14190.0 1.2577e-05
14210.0 1.2357e-05
14230.0 1.2194e-05
14250.0 1.2089e-05
14270.0 1.2037e-05
14290.0 1.2048e-05
14310.0 1.2116e-05
14330.0 1.2236e-05
14350.0 1.2414e-05
14370.0 1.2635e-05
14390.0 1.2886e-05
14410.0 1.3181e-05
14430.0 1.3506e-05
14450.0 1.3838e-05
14470.0 1.4182e-05
14490.0 1.4548e-05
14510.0 1.4898e-05
14530.0 1.523e-05
14550.0 1.5562e-05
14570.0 1.5881e-05
14590.0 1.6172e-05
14610.0 1.6452e-05
14630.0 1.673e-05
14650.0 1.6989e-05
14670.0 1.7239e-05
14690.0 1.75e-05
14710.0 1.7774e-05
14730.0 1.8048e-05
14750.0 1.8351e-05
14770.0 1.8696e-05
14790.0 1.9069e-05
14810.0 1.9473e-05
14830.0 1.9952e-05
14850.0 2.0473e-05
14870.0 2.1017e-05
14890.0 2.1603e-05
14910.0 2.2225e-05
14930.0 2.2824e-05
14950.0 2.3384e-05
14970.0 2.3913e-05
14990.0 2.4357e-05
15010.0 2.4697e-05
15030.0 2.4948e-05
15050.0 2.5115e-05
15070.0 2.5196e-05
15090.0 2.5225e-05
15110.0 2.5216e-05
15130.0 2.5185e-05
15150.0 2.5142e-05
15170.0 2.5092e-05
15190.0 2.5038e-05
15210.0 2.4984e-05
15230.0 2.4931e-05
15250.0 2.4876e-05
15270.0 2.4822e-05
15290.0 2.477e-05
15310.0 2.4717e-05
15330.0 2.4664e-05
15350.0 2.4612e-05
15370.0 2.4561e-05
15390.0 2.4508e-05
15410.0 2.4456e-05
15430.0 2.4406e-05
15450.0 2.4355e-05
15470.0 2.4302e-05
15490.0 2.4253e-05
15510.0 2.4203e-05
15530.0 2.4152e-05
15550.0 2.4102e-05
15570.0 2.4054e-05
15590.0 2.4004e-05
15610.0 2.3953e-05
15630.0 2.3904e-05
15650.0 2.3856e-05
15670.0 2.3806e-05
15690.0 2.3757e-05
15710.0 2.371e-05
15730.0 2.3661e-05
15750.0 2.3612e-05
15770.0 2.3565e-05
15790.0 2.3517e-05
15810.0 2.3468e-05
15830.0 2.342e-05
15850.0 2.3374e-05
15870.0 2.3325e-05
15890.0 2.3277e-05
15910.0 2.3231e-05
15930.0 2.3184e-05
15950.0 2.3135e-05
15970.0 2.3088e-05
15990.0 2.3042e-05
16010.0 2.2994e-05
16030.0 2.2946e-05
16050.0 2.29e-05
16070.0 2.2854e-05
16090.0 2.2806e-05
16110.0 2.2759e-05
16130.0 2.2714e-05
16150.0 2.2665e-05
16170.0 2.2618e-05
16190.0 2.2572e-05
16210.0 2.2525e-05
16230.0 2.2477e-05
16250.0 2.2431e-05
16270.0 2.2385e-05
16290.0 2.2338e-05
16310.0 2.229e-05
16330.0 2.2244e-05
16350.0 2.2198e-05
16370.0 2.2148e-05
16390.0 2.2102e-05
16410.0 2.2056e-05
16430.0 2.2008e-05
16450.0 2.196e-05
16470.0 2.1915e-05
16490.0 2.1867e-05
16510.0 2.1819e-05
16530.0 2.1772e-05
16550.0 2.1725e-05
16570.0 2.1676e-05
16590.0 2.1628e-05
16610.0 2.1582e-05
16630.0 2.1534e-05
16650.0 2.1485e-05
16670.0 2.1438e-05
16690.0 2.1391e-05
16710.0 2.1341e-05
16730.0 2.1292e-05
16750.0 2.1245e-05
16770.0 2.1196e-05
16790.0 2.1146e-05
16810.0 2.1099e-05
16830.0 2.1051e-05
16850.0 2.1001e-05
16870.0 2.0952e-05
16890.0 2.0904e-05
16910.0 2.0854e-05
16930.0 2.0803e-05
16950.0 2.0755e-05
16970.0 2.0706e-05
16990.0 2.0655e-05
17010.0 2.0605e-05
17030.0 2.0557e-05
17050.0 2.0506e-05
17070.0 2.0455e-05
17090.0 2.0406e-05
17110.0 2.0356e-05
17130.0 2.0303e-05
17150.0 2.0253e-05
17170.0 2.0203e-05
17190.0 2.0152e-05
17210.0 2.01e-05
17230.0 2.005e-05
17250.0 1.9999e-05
17270.0 1.9946e-05
17290.0 1.9895e-05
17310.0 1.9844e-05
17330.0 1.9791e-05
17350.0 1.9738e-05
17370.0 1.9688e-05
17390.0 1.9635e-05
17410.0 1.9582e-05
17430.0 1.953e-05
17450.0 1.9479e-05
17470.0 1.9424e-05
17490.0 1.937e-05
17510.0 1.9319e-05
17530.0 1.9266e-05
17550.0 1.9211e-05
17570.0 1.9158e-05
17590.0 1.9106e-05
17610.0 1.9051e-05
17630.0 1.8997e-05
17650.0 1.8944e-05
17670.0 1.889e-05
17690.0 1.8834e-05
17710.0 1.878e-05
17730.0 1.8727e-05
17750.0 1.8671e-05
17770.0 1.8617e-05
17790.0 1.8564e-05
17810.0 1.8508e-05
17830.0 1.8452e-05
17850.0 1.8397e-05
17870.0 1.8343e-05
17890.0 1.8286e-05
17910.0 1.823e-05
17930.0 1.8176e-05
17950.0 1.812e-05
17970.0 1.8064e-05
17990.0 1.8009e-05
18010.0 1.7954e-05
18030.0 1.7896e-05
18050.0 1.784e-05
18070.0 1.7785e-05
18090.0 1.7728e-05
18110.0 1.767e-05
18130.0 1.7615e-05
18150.0 1.7559e-05
18170.0 1.7501e-05
18190.0 1.7445e-05
18210.0 1.7389e-05
18230.0 1.7331e-05
18250.0 1.7272e-05
18270.0 1.7217e-05
18290.0 1.716e-05
18310.0 1.7102e-05
18330.0 1.7045e-05
18350.0 1.6989e-05
18370.0 1.693e-05
18390.0 1.6872e-05
18410.0 1.6816e-05
18430.0 1.6758e-05
18450.0 1.6698e-05
18470.0 1.6641e-05
18490.0 1.6585e-05
18510.0 1.6526e-05
18530.0 1.6468e-05
18550.0 1.6411e-05
18570.0 1.6353e-05
18590.0 1.6293e-05
18610.0 1.6236e-05
18630.0 1.6178e-05
18650.0 1.6119e-05
18670.0 1.606e-05
18690.0 1.6003e-05
18710.0 1.5945e-05
18730.0 1.5886e-05
18750.0 1.5828e-05
18770.0 1.5771e-05
18790.0 1.571e-05
18810.0 1.5651e-05
18830.0 1.5594e-05
18850.0 1.5535e-05
18870.0 1.5476e-05
18890.0 1.5418e-05
18910.0 1.5361e-05
18930.0 1.5301e-05
18950.0 1.5242e-05
18970.0 1.5184e-05
18990.0 1.5126e-05
19010.0 1.5064e-05
19030.0 1.5007e-05
19050.0 1.4949e-05
19070.0 1.489e-05
19090.0 1.4831e-05
19110.0 1.4774e-05
19130.0 1.4714e-05
19150.0 1.4654e-05
19170.0 1.4596e-05
19190.0 1.4538e-05
19210.0 1.4478e-05
19230.0 1.4419e-05
19250.0 1.4362e-05
19270.0 1.4303e-05
19290.0 1.4243e-05
19310.0 1.4186e-05
19330.0 1.4128e-05
19350.0 1.4067e-05
19370.0 1.4008e-05
19390.0 1.3951e-05
19410.0 1.3892e-05
19430.0 1.3832e-05
19450.0 1.3775e-05
19470.0 1.3717e-05
19490.0 1.3657e-05
19510.0 1.3598e-05
19530.0 1.3541e-05
19550.0 1.3481e-05
19570.0 1.3422e-05
19590.0 1.3364e-05
19610.0 1.3306e-05
19630.0 1.3247e-05
19650.0 1.3189e-05
19670.0 1.3132e-05
19690.0 1.3072e-05
19710.0 1.3013e-05
19730.0 1.2956e-05
19750.0 1.2898e-05
19770.0 1.2838e-05
19790.0 1.278e-05
19810.0 1.2723e-05
19830.0 1.2664e-05
19850.0 1.2605e-05
19870.0 1.2546e-05
19890.0 1.2483e-05
19910.0 1.2415e-05
19930.0 1.2341e-05
19950.0 1.2257e-05
19970.0 1.2153e-05
19990.0 1.2028e-05
20010.0 1.0701e-05
20030.0 1.0546e-05
20050.0 1.0365e-05
20070.0 1.0169e-05
20090.0 9.9575e-06
20110.0 9.7185e-06
20130.0 9.4766e-06
20150.0 9.2368e-06
20170.0 8.9882e-06
20190.0 8.7361e-06
20210.0 8.4979e-06
20230.0 8.2656e-06
20250.0 8.0329e-06
20270.0 7.8168e-06
20290.0 7.6196e-06
20310.0 7.4321e-06
20330.0 7.257e-06
20350.0 7.1116e-06
20370.0 6.9825e-06
20390.0 6.8693e-06
20410.0 6.7779e-06
20430.0 6.7074e-06
20450.0 6.6516e-06
20470.0 6.6142e-06
20490.0 6.5941e-06
20510.0 6.5883e-06
20530.0 6.5965e-06
20550.0 6.6168e-06
20570.0 6.6465e-06
20590.0 6.6866e-06
20610.0 6.7352e-06
20630.0 6.7887e-06
20650.0 6.8485e-06
20670.0 6.9169e-06
20690.0 6.9867e-06
20710.0 7.0588e-06
20730.0 7.1366e-06
20750.0 7.2178e-06
20770.0 7.2977e-06
20790.0 7.3816e-06
20810.0 7.4703e-06
20830.0 7.5586e-06
20850.0 7.6472e-06
20870.0 7.7422e-06
20890.0 7.839e-06
20910.0 7.9324e-06
20930.0 8.0293e-06
20950.0 8.1297e-06
20970.0 8.2276e-06
20990.0 8.3242e-06
21010.0 8.4257e-06
21030.0 8.525e-06
21050.0 8.6198e-06
21070.0 8.7143e-06
21090.0 8.8093e-06
21110.0 8.8958e-06
21130.0 8.9771e-06
21150.0 9.0559e-06
21170.0 9.1272e-06
21190.0 9.1885e-06
21210.0 9.2437e-06
21230.0 9.2896e-06
21250.0 9.3223e-06
21270.0 9.3431e-06
21290.0 9.3509e-06
21310.0 9.3434e-06
21330.0 9.3214e-06
21350.0 9.2827e-06
21370.0 9.2258e-06
21390.0 9.1536e-06
21410.0 9.0651e-06
21430.0 8.9531e-06
21450.0 8.8273e-06
21470.0 8.6904e-06
21490.0 8.5355e-06
21510.0 8.3655e-06
21530.0 8.1929e-06
21550.0 8.012e-06
21570.0 7.8192e-06
21590.0 7.6294e-06
21610.0 7.4462e-06
21630.0 7.2627e-06
21650.0 7.0834e-06
21670.0 6.928e-06
21690.0 6.7847e-06
21710.0 6.6556e-06
21730.0 6.5499e-06
21750.0 6.4684e-06
21770.0 6.4062e-06
21790.0 6.3705e-06
21810.0 6.3606e-06
21830.0 6.3747e-06
21850.0 6.4145e-06
21870.0 6.4767e-06
21890.0 6.5569e-06
21910.0 6.6599e-06
21930.0 6.7807e-06
21950.0 6.9115e-06
21970.0 7.0564e-06
21990.0 7.2191e-06
22010.0 7.3817e-06
22030.0 7.5468e-06
22050.0 7.7202e-06
22070.0 7.8945e-06
22090.0 8.0596e-06
22110.0 8.226e-06
22130.0 8.3922e-06
22150.0 8.5474e-06
22170.0 8.6937e-06
22190.0 8.8387e-06
22210.0 8.9736e-06
22230.0 9.0923e-06
22250.0 9.2041e-06
22270.0 9.3071e-06
22290.0 9.3951e-06
22310.0 9.4706e-06
22330.0 9.5371e-06
22350.0 9.5885e-06
22370.0 9.6248e-06
22390.0 9.6475e-06
22410.0 9.6546e-06
22430.0 9.6454e-06
22450.0 9.6206e-06
22470.0 9.5776e-06
22490.0 9.5173e-06
22510.0 9.4422e-06
22530.0 9.346e-06
22550.0 9.229e-06
22570.0 9.0992e-06
22590.0 8.9529e-06
