#lamb flux
1010.0 2.4527e-05
1030.0 2.6026e-05
1050.0 2.775e-05
1070.0 2.9691e-05
1090.0 3.1897e-05
1110.0 3.4159e-05
1130.0 3.6436e-05
1150.0 3.8821e-05
1170.0 4.1283e-05
1190.0 4.3618e-05
1210.0 4.5984e-05
1230.0 4.8431e-05
1250.0 5.0828e-05
1270.0 5.3157e-05
1290.0 5.5619e-05
1310.0 5.808e-05
1330.0 6.0441e-05
1350.0 6.2829e-05
1370.0 6.5296e-05
1390.0 6.7702e-05
1410.0 7.0038e-05
1430.0 7.2481e-05
1450.0 7.4925e-05
1470.0 7.7289e-05
1490.0 7.968e-05
1510.0 8.2205e-05
1530.0 8.46e-05
1550.0 8.6965e-05
1570.0 8.9412e-05
1590.0 9.1863e-05
1610.0 9.4207e-05
1630.0 9.6625e-05
1650.0 9.9108e-05
1670.0 0.00010151
1690.0 0.00010389
1710.0 0.00010636
1730.0 0.00010884
1750.0 0.00011118
1770.0 0.00011359
1790.0 0.00011605
1810.0 0.00011844
1830.0 0.00012079
1850.0 0.00012329
1870.0 0.00012573
1890.0 0.00012809
1910.0 0.0001305
1930.0 0.00013298
1950.0 0.00013535
1970.0 0.0001377
1990.0 0.00014015
2010.0 0.00014257
2030.0 0.00014491
2050.0 0.00014733
2070.0 0.00014982
2090.0 0.00015219
2110.0 0.00015456
2130.0 0.00015702
2150.0 0.00015945
2170.0 0.00016179
2190.0 0.00016423
2210.0 0.00016671
2230.0 0.00016911
2250.0 0.00017152
2270.0 0.00017405
2290.0 0.00017653
2310.0 0.00017894
2330.0 0.00018144
2350.0 0.00018398
2370.0 0.00018645
2390.0 0.00018896
2410.0 0.0001916
2430.0 0.00019417
2450.0 0.00019665
2470.0 0.00019909
2490.0 0.00020136
2510.0 0.00020331
2530.0 0.00020523
2550.0 0.00020762
2570.0 0.00021128
2590.0 0.00021729
2610.0 0.00022796
2630.0 0.00024464
2650.0 0.00026716
2670.0 0.00029632
2690.0 0.00033185
2710.0 0.00036965
2730.0 0.00040736
2750.0 0.00044568
2770.0 0.0004814
2790.0 0.00051329
2810.0 0.00054331
2830.0 0.00057317
2850.0 0.00060072
2870.0 0.00062795
2890.0 0.00065638
2910.0 0.00068516
2930.0 0.00071309
2950.0 0.00074229
2970.0 0.00077233
2990.0 0.00080157
3010.0 0.0017207
3030.0 0.0017836
3050.0 0.0018472
3070.0 0.001908
3090.0 0.0019718
3110.0 0.0020382
3130.0 0.0021037
3150.0 0.0021687
3170.0 0.0022351
3190.0 0.0022926
3210.0 0.0023371
3230.0 0.0023721
3250.0 0.0020905
3270.0 0.0018109
3290.0 0.001383
3310.0 0.0015498
3330.0 0.0016691
3350.0 0.0017826
3370.0 0.0018952
3390.0 0.002008
3410.0 0.0021207
3430.0 0.0022333
3450.0 0.0023461
3470.0 0.0024585
3490.0 0.0025536
3510.0 0.0025856
3530.0 0.0027056
3550.0 0.0033057
3570.0 0.0041904
3590.0 0.0047416
3610.0 0.0053972
3630.0 0.0050275
3650.0 0.0045988
3670.0 0.0044322
3690.0 0.0052683
3710.0 0.0066855
3730.0 0.0071869
3750.0 0.0074609
3770.0 0.0075348
3790.0 0.0074099
3810.0 0.0067255
3830.0 0.0052085
3850.0 0.0041599
3870.0 0.0040521
3890.0 0.0055302
3910.0 0.0075193
3930.0 0.0088163
3950.0 0.0093028
3970.0 0.0092549
3990.0 0.010561
4010.0 0.011806
4030.0 0.011043
4050.0 0.0096609
4070.0 0.0081731
4090.0 0.0081244
4110.0 0.0092045
4130.0 0.0093417
4150.0 0.009417
4170.0 0.0088727
4190.0 0.00846
4210.0 0.0085644
4230.0 0.0098437
4250.0 0.0099399
4270.0 0.0098746
4290.0 0.0097809
4310.0 0.009789
4330.0 0.010816
4350.0 0.012456
4370.0 0.012658
4390.0 0.010954
4410.0 0.0090487
4430.0 0.0077579
4450.0 0.006675
4470.0 0.0064673
4490.0 0.007732
4510.0 0.0086748
4530.0 0.00951
4550.0 0.010222
4570.0 0.012076
4590.0 0.01722
4610.0 0.023067
4630.0 0.023893
4650.0 0.022682
4670.0 0.024106
4690.0 0.026444
4710.0 0.023382
4730.0 0.017218
4750.0 0.013103
4770.0 0.011929
4790.0 0.011974
4810.0 0.011225
4830.0 0.012247
4850.0 0.015549
4870.0 0.019313
4890.0 0.017261
4910.0 0.015172
4930.0 0.016832
4950.0 0.022114
4970.0 0.028692
4990.0 0.029571
5010.0 0.025477
5030.0 0.019116
5050.0 0.013707
5070.0 0.011526
5090.0 0.010933
5110.0 0.011093
5130.0 0.011542
5150.0 0.011389
5170.0 0.011608
5190.0 0.011239
5210.0 0.011612
5230.0 0.012423
5250.0 0.013694
5270.0 0.016876
5290.0 0.019267
5310.0 0.019366
5330.0 0.020165
5350.0 0.022757
5370.0 0.024203
5390.0 0.022455
5410.0 0.019229
5430.0 0.018291
5450.0 0.021116
5470.0 0.027247
5490.0 0.033827
5510.0 0.03721
5530.0 0.037995
5550.0 0.036223
5570.0 0.033738
5590.0 0.03261
5610.0 0.033003
5630.0 0.033774
5650.0 0.033833
5670.0 0.033323
5690.0 0.03239
5710.0 0.029064
5730.0 0.02431
5750.0 0.020397
5770.0 0.020512
5790.0 0.022532
5810.0 0.024231
5830.0 0.025021
5850.0 0.024992
5870.0 0.023095
5890.0 0.02021
5910.0 0.019771
5930.0 0.021438
5950.0 0.022142
5970.0 0.020287
5990.0 0.017462
6010.0 0.014402
6030.0 0.012095
6050.0 0.011911
6070.0 0.013539
6090.0 0.014254
6110.0 0.013034
6130.0 0.012064
6150.0 0.012815
6170.0 0.015344
6190.0 0.018307
6210.0 0.019906
6230.0 0.019218
6250.0 0.017614
6270.0 0.015243
6290.0 0.012636
6310.0 0.010459
6330.0 0.0094475
6350.0 0.0098399
6370.0 0.010667
6390.0 0.011546
6410.0 0.013137
6430.0 0.016175
6450.0 0.02037
6470.0 0.023189
6490.0 0.023247
6510.0 0.022698
6530.0 0.023128
6550.0 0.023645
6570.0 0.023853
6590.0 0.023855
6610.0 0.023206
6630.0 0.023239
6650.0 0.023318
6670.0 0.02242
6690.0 0.020105
6710.0 0.016995
6730.0 0.016273
6750.0 0.017488
6770.0 0.019015
6790.0 0.019602
6810.0 0.019381
6830.0 0.019116
6850.0 0.0187
6870.0 0.017632
6890.0 0.016614
6910.0 0.015878
6930.0 0.015305
6950.0 0.016246
6970.0 0.017682
6990.0 0.018649
7010.0 0.018867
7030.0 0.017831
7050.0 0.015479
7070.0 0.012549
7090.0 0.010662
7110.0 0.010285
7130.0 0.010848
7150.0 0.010983
7170.0 0.010102
7190.0 0.0099041
7210.0 0.010911
7230.0 0.012531
7250.0 0.014322
7270.0 0.015082
7290.0 0.014201
7310.0 0.0126
7330.0 0.011531
7350.0 0.011287
7370.0 0.011583
7390.0 0.012105
7410.0 0.01297
7430.0 0.014742
7450.0 0.017138
7470.0 0.019567
7490.0 0.020699
7510.0 0.020058
7530.0 0.017355
7550.0 0.014135
7570.0 0.011752
7590.0 0.010355
7610.0 0.010651
7630.0 0.012302
7650.0 0.014141
7670.0 0.015995
7690.0 0.017567
7710.0 0.018706
7730.0 0.019661
7750.0 0.020555
7770.0 0.021346
7790.0 0.021418
7810.0 0.021639
7830.0 0.022311
7850.0 0.022341
7870.0 0.021739
7890.0 0.020183
7910.0 0.018952
7930.0 0.01806
7950.0 0.018038
7970.0 0.017914
7990.0 0.018083
8010.0 0.018013
8030.0 0.018079
8050.0 0.018556
8070.0 0.018283
8090.0 0.018282
8110.0 0.017572
8130.0 0.017465
8150.0 0.016983
8170.0 0.016507
8190.0 0.01628
8210.0 0.016398
8230.0 0.015392
8250.0 0.014431
8270.0 0.012609
8290.0 0.010171
8310.0 0.0078912
8330.0 0.0060634
8350.0 0.0053528
8370.0 0.0060279
8390.0 0.006969
8410.0 0.0077006
8430.0 0.0085529
8450.0 0.0090178
8470.0 0.0094475
8490.0 0.010509
8510.0 0.011716
8530.0 0.01362
8550.0 0.015979
8570.0 0.018107
8590.0 0.019818
8610.0 0.021275
8630.0 0.022319
8650.0 0.022493
8670.0 0.022553
8690.0 0.023308
8710.0 0.023754
8730.0 0.024238
8750.0 0.023752
8770.0 0.023834
8790.0 0.023508
8810.0 0.021895
8830.0 0.021312
8850.0 0.020108
8870.0 0.019211
8890.0 0.018353
8910.0 0.018822
8930.0 0.017713
8950.0 0.01706
8970.0 0.016814
8990.0 0.016427
9010.0 0.016134
9030.0 0.015708
9050.0 0.015613
9070.0 0.01557
9090.0 0.015528
9110.0 0.015488
9130.0 0.015444
9150.0 0.015398
9170.0 0.015332
9190.0 0.015244
9210.0 0.015319
9230.0 0.01524
9250.0 0.015177
9270.0 0.015117
9290.0 0.01506
9310.0 0.015004
9330.0 0.014949
9350.0 0.014894
9370.0 0.014839
9390.0 0.014783
9410.0 0.014727
9430.0 0.014669
9450.0 0.014606
9470.0 0.014544
9490.0 0.014491
9510.0 0.014435
9530.0 0.014377
9550.0 0.014319
9570.0 0.01426
9590.0 0.0142
9610.0 0.01414
9630.0 0.014079
9650.0 0.014019
9670.0 0.013958
9690.0 0.013897
9710.0 0.013835
9730.0 0.013774
9750.0 0.013713
9770.0 0.013651
9790.0 0.01359
9810.0 0.013528
9830.0 0.013467
9850.0 0.013405
9870.0 0.013344
9890.0 0.013282
9910.0 0.013221
9930.0 0.013158
9950.0 0.013014
9970.0 0.012977
9990.0 0.012936
10010.0 0.012892
10030.0 0.012842
10050.0 0.012785
10070.0 0.012724
10090.0 0.012669
10110.0 0.012609
10130.0 0.012552
10150.0 0.012494
10170.0 0.012433
10190.0 0.012369
10210.0 0.01231
10230.0 0.012252
10250.0 0.012191
10270.0 0.01213
10290.0 0.012073
10310.0 0.012013
10330.0 0.01195
10350.0 0.011892
10370.0 0.011834
10390.0 0.011772
10410.0 0.011712
10430.0 0.011655
10450.0 0.011595
10470.0 0.011534
10490.0 0.011476
10510.0 0.011418
10530.0 0.011355
10550.0 0.011294
10570.0 0.011236
10590.0 0.011176
10610.0 0.011114
10630.0 0.011056
10650.0 0.010997
10670.0 0.010934
10690.0 0.010873
10710.0 0.010814
10730.0 0.010752
10750.0 0.010687
10770.0 0.010628
10790.0 0.010567
10810.0 0.010503
10830.0 0.01044
10850.0 0.01038
10870.0 0.010314
10890.0 0.010245
10910.0 0.010178
10930.0 0.010105
10950.0 0.010021
10970.0 0.0099295
10990.0 0.009832
11010.0 0.0088735
11030.0 0.0087558
11050.0 0.0086419
11070.0 0.0085255
11090.0 0.0084001
11110.0 0.0082841
11130.0 0.0081714
11150.0 0.0080548
11170.0 0.0079389
11190.0 0.007831
11210.0 0.0077199
11230.0 0.0076053
11250.0 0.0074963
11270.0 0.0073906
11290.0 0.0072805
11310.0 0.0071725
11330.0 0.0070754
11350.0 0.0069781
11370.0 0.0068815
11390.0 0.0067927
11410.0 0.006709
11430.0 0.0066215
11450.0 0.0065386
11470.0 0.0064605
11490.0 0.0063801
11510.0 0.0062951
11530.0 0.0062132
11550.0 0.0061293
11570.0 0.0060368
11590.0 0.005941
11610.0 0.0058448
11630.0 0.0057387
11650.0 0.0056242
11670.0 0.005512
11690.0 0.0053965
11710.0 0.0052735
11730.0 0.005151
11750.0 0.0050344
11770.0 0.0049135
11790.0 0.0047932
11810.0 0.0046812
11830.0 0.0045739
11850.0 0.0044649
11870.0 0.0043659
11890.0 0.0042765
11910.0 0.0041893
11930.0 0.0041068
11950.0 0.0040337
11970.0 0.0039646
11990.0 0.0038965
12010.0 0.0038351
12030.0 0.0037793
12050.0 0.0037247
12070.0 0.0036722
12090.0 0.0036272
12110.0 0.0035845
12130.0 0.0035436
12150.0 0.0035077
12170.0 0.0034774
12190.0 0.0034489
12210.0 0.0034262
12230.0 0.0034108
12250.0 0.0034015
12270.0 0.003399
12290.0 0.0034052
12310.0 0.0034199
12330.0 0.0034436
12350.0 0.0034769
12370.0 0.0035186
12390.0 0.0035694
12410.0 0.0036312
12430.0 0.0036981
12450.0 0.0037704
12470.0 0.0038495
12490.0 0.003932
12510.0 0.0040132
12530.0 0.0040964
12550.0 0.0041797
12570.0 0.0042578
12590.0 0.0043309
12610.0 0.0044006
12630.0 0.0044634
12650.0 0.0045165
12670.0 0.0045631
12690.0 0.0046018
12710.0 0.0046316
12730.0 0.0046534
12750.0 0.0046671
12770.0 0.0046727
12790.0 0.0046714
12810.0 0.0046628
12830.0 0.004647
12850.0 0.0046268
12870.0 0.0046019
12890.0 0.004571
12910.0 0.0045368
12930.0 0.0045009
12950.0 0.0044602
12970.0 0.0044157
12990.0 0.0043717
13010.0 0.0043255
13030.0 0.0042755
13050.0 0.0042245
13070.0 0.0041741
13090.0 0.0041198
13110.0 0.0040636
13130.0 0.0040088
13150.0 0.0039539
13170.0 0.0038963
13190.0 0.0038427
13210.0 0.0037935
13230.0 0.0037465
13250.0 0.0037043
13270.0 0.0036701
13290.0 0.0036422
13310.0 0.0036213
13330.0 0.0036097
13350.0 0.0036062
13370.0 0.0036101
13390.0 0.0036211
13410.0 0.0036366
13430.0 0.0036554
13450.0 0.0036757
13470.0 0.0036944
13490.0 0.0037095
13510.0 0.0037198
13530.0 0.0037224
13550.0 0.0037168
13570.0 0.0037021
13590.0 0.0036772
13610.0 0.0036442
13630.0 0.0036046
13650.0 0.0035563
13670.0 0.0035027
13690.0 0.0034475
13710.0 0.0033893
13730.0 0.0033276
13750.0 0.0032703
13770.0 0.0032153
13790.0 0.0031615
13810.0 0.0031114
13830.0 0.0030671
13850.0 0.0030252
13870.0 0.0029865
13890.0 0.0029528
13910.0 0.0029228
13930.0 0.0028948
13950.0 0.00287
13970.0 0.0028488
13990.0 0.0028292
14010.0 0.0028113
14030.0 0.0027957
14050.0 0.0027816
14070.0 0.0027682
14090.0 0.0027561
14110.0 0.0027452
14130.0 0.0027346
14150.0 0.0027244
14170.0 0.0027148
14190.0 0.0027054
14210.0 0.002696
14230.0 0.0026869
14250.0 0.0026782
14270.0 0.0026698
14290.0 0.002662
14310.0 0.0026551
14330.0 0.002649
14350.0 0.0026438
14370.0 0.0026397
14390.0 0.0026364
14410.0 0.0026338
14430.0 0.0026318
14450.0 0.00263
14470.0 0.0026282
14490.0 0.0026263
14510.0 0.0026238
14530.0 0.0026207
14550.0 0.0026171
14570.0 0.002613
14590.0 0.0026087
14610.0 0.0026046
14630.0 0.0026012
14650.0 0.0025987
14670.0 0.0025977
14690.0 0.0025991
14710.0 0.0026034
14730.0 0.0026101
14750.0 0.0026204
14770.0 0.0026352
14790.0 0.0026537
14810.0 0.0026756
14830.0 0.0027042
14850.0 0.002737
14870.0 0.0027723
14890.0 0.0028119
14910.0 0.0028552
14930.0 0.0028972
14950.0 0.0029365
14970.0 0.0029738
14990.0 0.0030043
15010.0 0.003026
15030.0 0.0030402
15050.0 0.0030471
15070.0 0.0030464
15090.0 0.0030411
15110.0 0.0030325
15130.0 0.0030218
15150.0 0.0030099
15170.0 0.0029974
15190.0 0.0029846
15210.0 0.0029717
15230.0 0.0029587
15250.0 0.0029456
15270.0 0.0029325
15290.0 0.0029195
15310.0 0.0029065
15330.0 0.0028933
15350.0 0.0028803
15370.0 0.0028673
15390.0 0.0028541
15410.0 0.002841
15430.0 0.0028279
15450.0 0.0028149
15470.0 0.0028017
15490.0 0.0027887
15510.0 0.0027757
15530.0 0.0027626
15550.0 0.0027496
15570.0 0.0027366
15590.0 0.0027236
15610.0 0.0027106
15630.0 0.0026977
15650.0 0.0026848
15670.0 0.0026719
15690.0 0.002659
15710.0 0.0026462
15730.0 0.0026334
15750.0 0.0026206
15770.0 0.0026079
15790.0 0.0025952
15810.0 0.0025825
15830.0 0.0025698
15850.0 0.0025573
15870.0 0.0025447
15890.0 0.0025322
15910.0 0.0025198
15930.0 0.0025074
15950.0 0.002495
15970.0 0.0024827
15990.0 0.0024704
16010.0 0.0024582
16030.0 0.0024459
16050.0 0.0024339
16070.0 0.0024218
16090.0 0.0024097
16110.0 0.0023978
16130.0 0.0023859
16150.0 0.002374
16170.0 0.0023622
16190.0 0.0023505
16210.0 0.0023388
16230.0 0.0023271
16250.0 0.0023156
16270.0 0.0023041
16290.0 0.0022926
16310.0 0.0022812
16330.0 0.0022699
16350.0 0.0022586
16370.0 0.0022473
16390.0 0.0022362
16410.0 0.0022252
16430.0 0.0022141
16450.0 0.0022032
16470.0 0.0021923
16490.0 0.0021815
16510.0 0.0021707
16530.0 0.00216
16550.0 0.0021494
16570.0 0.0021388
16590.0 0.0021283
16610.0 0.0021179
16630.0 0.0021075
16650.0 0.0020972
16670.0 0.002087
16690.0 0.0020769
16710.0 0.0020667
16730.0 0.0020567
16750.0 0.0020467
16770.0 0.0020368
16790.0 0.0020269
16810.0 0.0020172
16830.0 0.0020076
16850.0 0.0019979
16870.0 0.0019883
16890.0 0.0019789
16910.0 0.0019694
16930.0 0.00196
16950.0 0.0019507
16970.0 0.0019415
16990.0 0.0019323
17010.0 0.0019232
17030.0 0.0019143
17050.0 0.0019053
17070.0 0.0018964
17090.0 0.0018876
17110.0 0.0018788
17130.0 0.0018701
17150.0 0.0018614
17170.0 0.0018529
17190.0 0.0018444
17210.0 0.001836
17230.0 0.0018276
17250.0 0.0018193
17270.0 0.001811
17290.0 0.0018029
17310.0 0.0017948
17330.0 0.0017867
17350.0 0.0017787
17370.0 0.0017708
17390.0 0.001763
17410.0 0.0017552
17430.0 0.0017474
17450.0 0.0017398
17470.0 0.0017321
17490.0 0.0017246
17510.0 0.0017171
17530.0 0.0017097
17550.0 0.0017023
17570.0 0.001695
17590.0 0.0016878
17610.0 0.0016806
17630.0 0.0016735
17650.0 0.0016664
17670.0 0.0016594
17690.0 0.0016524
17710.0 0.0016455
17730.0 0.0016387
17750.0 0.0016319
17770.0 0.0016252
17790.0 0.0016186
17810.0 0.001612
17830.0 0.0016054
17850.0 0.0015989
17870.0 0.0015925
17890.0 0.001586
17910.0 0.0015797
17930.0 0.0015735
17950.0 0.0015672
17970.0 0.001561
17990.0 0.0015549
18010.0 0.0015489
18030.0 0.0015428
18050.0 0.0015368
18070.0 0.001531
18090.0 0.0015251
18110.0 0.0015192
18130.0 0.0015135
18150.0 0.0015078
18170.0 0.0015021
18190.0 0.0014965
18210.0 0.001491
18230.0 0.0014854
18250.0 0.0014799
18270.0 0.0014745
18290.0 0.0014691
18310.0 0.0014638
18330.0 0.0014585
18350.0 0.0014533
18370.0 0.0014481
18390.0 0.0014429
18410.0 0.0014378
18430.0 0.0014328
18450.0 0.0014277
18470.0 0.0014228
18490.0 0.0014179
18510.0 0.001413
18530.0 0.0014081
18550.0 0.0014033
18570.0 0.0013986
18590.0 0.0013938
18610.0 0.0013892
18630.0 0.0013845
18650.0 0.0013799
18670.0 0.0013753
18690.0 0.0013709
18710.0 0.0013664
18730.0 0.0013619
18750.0 0.0013575
18770.0 0.0013532
18790.0 0.0013488
18810.0 0.0013445
18830.0 0.0013403
18850.0 0.0013361
18870.0 0.0013319
18890.0 0.0013278
18910.0 0.0013237
18930.0 0.0013196
18950.0 0.0013155
18970.0 0.0013116
18990.0 0.0013076
19010.0 0.0013036
19030.0 0.0012997
19050.0 0.0012959
19070.0 0.001292
19090.0 0.0012882
19110.0 0.0012845
19130.0 0.0012808
19150.0 0.001277
19170.0 0.0012734
19190.0 0.0012698
19210.0 0.0012661
19230.0 0.0012625
19250.0 0.001259
19270.0 0.0012555
19290.0 0.001252
19310.0 0.0012485
19330.0 0.0012451
19350.0 0.0012417
19370.0 0.0012383
19390.0 0.001235
19410.0 0.0012317
19430.0 0.0012283
19450.0 0.0012251
19470.0 0.0012219
19490.0 0.0012187
19510.0 0.0012155
19530.0 0.0012124
19550.0 0.0012092
19570.0 0.001206
19590.0 0.001203
19610.0 0.0012
19630.0 0.0011969
19650.0 0.0011939
19670.0 0.001191
19690.0 0.001188
19710.0 0.001185
19730.0 0.0011822
19750.0 0.0011793
19770.0 0.0011764
19790.0 0.0011735
19810.0 0.0011707
19830.0 0.0011679
19850.0 0.001165
19870.0 0.0011621
19890.0 0.001159
19910.0 0.0011555
19930.0 0.0011514
19950.0 0.0011463
19970.0 0.0011398
19990.0 0.0011314
20010.0 0.0011216
20030.0 0.0011094
20050.0 0.001095
20070.0 0.0010794
20090.0 0.0010626
20110.0 0.0010438
20130.0 0.001025
20150.0 0.0010065
20170.0 0.00098764
20190.0 0.00096865
20210.0 0.00095078
20230.0 0.00093338
20250.0 0.00091595
20270.0 0.00089963
20290.0 0.00088453
20310.0 0.00086994
20330.0 0.00085596
20350.0 0.00084392
20370.0 0.0008328
20390.0 0.00082253
20410.0 0.00081362
20430.0 0.00080611
20450.0 0.00079941
20470.0 0.00079393
20490.0 0.00078974
20510.0 0.00078658
20530.0 0.00078439
20550.0 0.00078322
20570.0 0.00078291
20590.0 0.00078338
20610.0 0.00078456
20630.0 0.00078626
20650.0 0.00078844
20670.0 0.00079115
20690.0 0.00079399
20710.0 0.00079691
20730.0 0.00079998
20750.0 0.00080301
20770.0 0.00080572
20790.0 0.00080825
20810.0 0.00081054
20830.0 0.00081235
20850.0 0.00081368
20870.0 0.00081458
20890.0 0.00081489
20910.0 0.00081461
20930.0 0.00081376
20950.0 0.00081228
20970.0 0.00081026
20990.0 0.00080774
21010.0 0.00080455
21030.0 0.00080089
21050.0 0.00079689
21070.0 0.00079243
21090.0 0.00078746
21110.0 0.00078245
21130.0 0.0007773
21150.0 0.00077184
21170.0 0.00076637
21190.0 0.0007611
21210.0 0.00075574
21230.0 0.00075042
21250.0 0.00074555
21270.0 0.00074096
21290.0 0.00073656
21310.0 0.00073259
21330.0 0.0007292
21350.0 0.00072613
21370.0 0.00072352
21390.0 0.00072147
21410.0 0.00071992
21430.0 0.00071883
21450.0 0.0007183
21470.0 0.00071825
21490.0 0.0007187
21510.0 0.00071965
21530.0 0.00072099
21550.0 0.00072276
21570.0 0.00072504
21590.0 0.00072766
21610.0 0.00073056
21630.0 0.00073391
21650.0 0.0007377
21670.0 0.00074151
21690.0 0.00074564
21710.0 0.00075013
21730.0 0.00075473
21750.0 0.00075933
21770.0 0.00076435
21790.0 0.00076944
21810.0 0.0007744
21830.0 0.00077944
21850.0 0.00078463
21870.0 0.00078962
21890.0 0.00079436
21910.0 0.00079917
21930.0 0.00080379
21950.0 0.00080804
21970.0 0.00081211
21990.0 0.00081606
22010.0 0.00081948
22030.0 0.00082249
22050.0 0.0008252
22070.0 0.00082744
22090.0 0.00082911
22110.0 0.00083034
22130.0 0.00083103
22150.0 0.00083113
22170.0 0.00083065
22190.0 0.00082953
22210.0 0.00082776
22230.0 0.00082545
22250.0 0.00082247
22270.0 0.00081879
22290.0 0.00081461
22310.0 0.00080991
22330.0 0.00080437
22350.0 0.00079836
22370.0 0.00079201
22390.0 0.00078503
22410.0 0.00077736
22430.0 0.00076965
22450.0 0.00076163
22470.0 0.000753
22490.0 0.0007442
22510.0 0.0007355
22530.0 0.00072628
22550.0 0.00071679
22570.0 0.00070766
22590.0 0.00069854
22610.0 0.00068918
22630.0 0.00068007
22650.0 0.00067151
22670.0 0.00066282
22690.0 0.00065431
22710.0 0.00064638
22730.0 0.00063877
22750.0 0.00063108
22770.0 0.00062405
22790.0 0.00061757
22810.0 0.00061125
22830.0 0.00060524
22850.0 0.00059982
22870.0 0.00059467
22890.0 0.00058965
22910.0 0.00058508
22930.0 0.00058089
22950.0 0.00057683
22970.0 0.00057295
22990.0 0.00056954
23010.0 0.00056627
23030.0 0.00056311
23050.0 0.0005602
23070.0 0.00055753
23090.0 0.00055483
23110.0 0.00055228
23130.0 0.00054993
23150.0 0.00054763
23170.0 0.00054534
23190.0 0.00054318
23210.0 0.00054114
23230.0 0.00053908
23250.0 0.00053711
23270.0 0.00053529
23290.0 0.00053355
23310.0 0.00053186
23330.0 0.00053041
23350.0 0.00052915
23370.0 0.00052805
23390.0 0.00052716
23410.0 0.00052652
23430.0 0.00052607
23450.0 0.00052583
23470.0 0.00052581
23490.0 0.00052595
23510.0 0.00052627
23530.0 0.00052672
23550.0 0.00052724
23570.0 0.00052786
23590.0 0.00052853
23610.0 0.00052921
23630.0 0.00052989
23650.0 0.0005306
23670.0 0.0005313
23690.0 0.00053199
23710.0 0.00053273
23730.0 0.00053355
23750.0 0.00053443
23770.0 0.00053547
23790.0 0.00053676
23810.0 0.00053832
23830.0 0.00054018
23850.0 0.00054255
23870.0 0.00054548
