#lamb flux
1010.0 0.00030787
1030.0 0.00041683
1050.0 0.00056421
1070.0 0.00075867
1090.0 0.0010139
1110.0 0.0013261
1130.0 0.0016964
1150.0 0.0021362
1170.0 0.0026459
1190.0 0.0031995
1210.0 0.0038061
1230.0 0.0044631
1250.0 0.0051383
1270.0 0.0058081
1290.0 0.0064841
1310.0 0.0071232
1330.0 0.0076841
1350.0 0.0081675
1370.0 0.0085642
1390.0 0.0088349
1410.0 0.0089695
1430.0 0.0089954
1450.0 0.0088955
1470.0 0.0086659
1490.0 0.0083358
1510.0 0.0079325
1530.0 0.0074389
1550.0 0.0068884
1570.0 0.0063081
1590.0 0.0057071
1610.0 0.0050937
1630.0 0.0044944
1650.0 0.0039162
1670.0 0.00336
1690.0 0.0028357
1710.0 0.0023507
1730.0 0.0019035
1750.0 0.001493
1770.0 0.0011237
1790.0 0.0007933
1810.0 0.00049956
1830.0 0.0002418
1850.0 9.8939e-05
1870.0 5.266e-05
1890.0 1.4023e-05
1910.0 1e-99
1930.0 1e-99
1950.0 1e-99
1970.0 1e-99
1990.0 1e-99
2010.0 1e-99
2030.0 1e-99
2050.0 1e-99
2070.0 1e-99
2090.0 1e-99
2110.0 1e-99
2130.0 2.7788e-05
2150.0 6.0911e-05
2170.0 9.7729e-05
2190.0 0.000138
2210.0 0.00024012
2230.0 0.00041923
2250.0 0.00060807
2270.0 0.00080586
2290.0 0.0010105
2310.0 0.00122
2330.0 0.0014339
2350.0 0.0016505
2370.0 0.0018669
2390.0 0.0020825
2410.0 0.0022965
2430.0 0.0025045
2450.0 0.0027044
2470.0 0.002895
2490.0 0.0030736
2510.0 0.0032372
2530.0 0.0033899
2550.0 0.003539
2570.0 0.0036965
2590.0 0.0038797
2610.0 0.0041289
2630.0 0.0044787
2650.0 0.0049466
2670.0 0.0055796
2690.0 0.0064245
2710.0 0.007431
2730.0 0.008554
2750.0 0.0098283
2770.0 0.011111
2790.0 0.012261
2810.0 0.013271
2830.0 0.014126
2850.0 0.014669
2870.0 0.014987
2890.0 0.015152
2910.0 0.015164
2930.0 0.015026
2950.0 0.014828
2970.0 0.014576
2990.0 0.014242
3010.0 0.01386
3030.0 0.01347
3050.0 0.01306
3070.0 0.0126
3090.0 0.012154
3110.0 0.011723
3130.0 0.011299
3150.0 0.010071
3170.0 0.0090553
3190.0 0.0079662
3210.0 0.0069359
3230.0 0.0063199
3250.0 0.0075698
3270.0 0.011539
3290.0 0.013255
3310.0 0.0075675
3330.0 0.006843
3350.0 0.0072573
3370.0 0.0078296
3390.0 0.008346
3410.0 0.0084864
3430.0 0.0083282
3450.0 0.0080858
3470.0 0.0079969
3490.0 0.0073705
3510.0 0.0044522
3530.0 0.00064565
3550.0 0.00024465
3570.0 0.0059747
3590.0 0.016268
3610.0 0.021431
3630.0 0.035295
3650.0 0.037995
3670.0 0.029933
3690.0 0.019729
3710.0 0.013587
3730.0 0.014031
3750.0 0.015013
3770.0 0.015535
3790.0 0.015946
3810.0 0.02056
3830.0 0.018456
3850.0 0.013198
3870.0 0.010184
3890.0 0.014393
3910.0 0.017543
3930.0 0.0177
3950.0 0.019696
3970.0 0.021935
3990.0 0.020711
4010.0 0.022911
4030.0 0.021769
4050.0 0.02014
4070.0 0.018812
4090.0 0.019211
4110.0 0.020533
4130.0 0.020252
4150.0 0.018866
4170.0 0.018015
4190.0 0.018765
4210.0 0.016553
4230.0 0.014747
4250.0 0.012165
4270.0 0.0092133
4290.0 0.0093363
4310.0 0.0089511
4330.0 0.0088482
4350.0 0.012364
4370.0 0.01249
4390.0 0.015115
4410.0 0.016786
4430.0 0.0185
4450.0 0.015967
4470.0 0.012704
4490.0 0.011958
4510.0 0.01083
4530.0 0.010056
4550.0 0.009162
4570.0 0.0089121
4590.0 0.0090874
4610.0 0.0073907
4630.0 0.0063451
4650.0 0.0050111
4670.0 0.004926
4690.0 0.0036469
4710.0 0.002899
4730.0 0.0016057
4750.0 0.00095672
4770.0 0.00017338
4790.0 0.00021788
4810.0 0.00017407
4830.0 1e-99
4850.0 1e-99
4870.0 1e-99
4890.0 1e-99
4910.0 8.1499e-05
4930.0 0.00024288
4950.0 1e-99
4970.0 1e-99
4990.0 1e-99
5010.0 1e-99
5030.0 1e-99
5050.0 1e-99
5070.0 1e-99
5090.0 1e-99
5110.0 1e-99
5130.0 1e-99
5150.0 1e-99
5170.0 1e-99
5190.0 1e-99
5210.0 1e-99
5230.0 1e-99
5250.0 1e-99
5270.0 0.00080101
5290.0 0.00066541
5310.0 6.2053e-05
5330.0 0.00013976
5350.0 1e-99
5370.0 1e-99
5390.0 7.9374e-05
5410.0 1.7949e-06
5430.0 0.00040412
5450.0 1e-99
5470.0 1e-99
5490.0 0.0022233
5510.0 0.0021501
5530.0 0.0022674
5550.0 0.001832
5570.0 0.0027757
5590.0 0.0040282
5610.0 0.0041294
5630.0 0.0036554
5650.0 0.0038219
5670.0 0.0038021
5690.0 0.0042538
5710.0 0.0033684
5730.0 0.0038916
5750.0 0.0039512
5770.0 0.0036071
5790.0 0.0048066
5810.0 0.0055876
5830.0 0.0050513
5850.0 0.0035283
5870.0 0.0027327
5890.0 0.0026893
5910.0 0.0037361
5930.0 0.0033988
5950.0 0.0038641
5970.0 0.0039653
5990.0 0.0045258
6010.0 0.004248
6030.0 0.0045002
6050.0 0.0043874
6070.0 0.0035515
6090.0 0.0041235
6110.0 0.0044361
6130.0 0.003985
6150.0 0.0040814
6170.0 0.0043138
6190.0 0.0028464
6210.0 0.0030341
6230.0 0.0034962
6250.0 0.0034465
6270.0 0.0034175
6290.0 0.0040036
6310.0 0.0047532
6330.0 0.0048747
6350.0 0.0046795
6370.0 0.0049346
6390.0 0.0041096
6410.0 0.0043947
6430.0 0.0039806
6450.0 0.004189
6470.0 0.004414
6490.0 0.0045596
6510.0 0.0038097
6530.0 0.0039639
6550.0 0.0039072
6570.0 0.0034661
6590.0 0.00392
6610.0 0.0039676
6630.0 0.0040083
6650.0 0.003577
6670.0 0.003322
6690.0 0.0031569
6710.0 0.0029289
6730.0 0.0027535
6750.0 0.0027678
6770.0 0.0023047
6790.0 0.00043063
6810.0 0.00099348
6830.0 0.002259
6850.0 0.0017794
6870.0 0.0017626
6890.0 0.0016864
6910.0 0.0016422
6930.0 0.0014559
6950.0 0.0017558
6970.0 0.0016745
6990.0 0.0016493
7010.0 0.0015948
7030.0 0.0018701
7050.0 0.0018562
7070.0 0.0010482
7090.0 0.00032808
7110.0 0.00025916
7130.0 0.00036753
7150.0 0.00050997
7170.0 0.00047771
7190.0 0.00022381
7210.0 0.00070681
7230.0 0.0013216
7250.0 0.0012415
7270.0 0.0013207
7290.0 0.0016005
7310.0 0.0010642
7330.0 0.00091851
7350.0 0.00077899
7370.0 0.0012532
7390.0 0.0018499
7410.0 0.00092464
7430.0 0.0010575
7450.0 0.00099466
7470.0 0.0015462
7490.0 0.0016766
7510.0 0.0012118
7530.0 0.0015412
7550.0 0.00013764
7570.0 5.4069e-05
7590.0 0.000581
7610.0 0.0013638
7630.0 0.00085568
7650.0 0.001305
7670.0 0.00021946
7690.0 1e-99
7710.0 5.8359e-05
7730.0 0.00057807
7750.0 5.2932e-05
7770.0 0.00083454
7790.0 0.0012851
7810.0 0.00060211
7830.0 0.0011588
7850.0 0.00023569
7870.0 0.00097375
7890.0 0.00047601
7910.0 0.00050318
7930.0 8.1481e-05
7950.0 1e-99
7970.0 3.5798e-05
7990.0 0.00037498
8010.0 0.0043733
8030.0 0.0042068
8050.0 0.0041339
8070.0 0.0040376
8090.0 0.0038305
8110.0 0.0036895
8130.0 0.0040304
8150.0 0.0043229
8170.0 0.0044995
8190.0 0.0047639
8210.0 0.0045091
8230.0 0.0044999
8250.0 0.0044422
8270.0 0.0045426
8290.0 0.0045309
8310.0 0.0042771
8330.0 0.0040479
8350.0 0.0042027
8370.0 0.0043095
8390.0 0.0041779
8410.0 0.0041313
8430.0 0.0039724
8450.0 0.0038036
8470.0 0.0041455
8490.0 0.0041617
8510.0 0.0038581
8530.0 0.003932
8550.0 0.0038911
8570.0 0.0035351
8590.0 0.0036172
8610.0 0.0035901
8630.0 0.003804
8650.0 0.0038308
8670.0 0.0038961
8690.0 0.0038005
8710.0 0.0037612
8730.0 0.0035656
8750.0 0.0034576
8770.0 0.0034143
8790.0 0.0036774
8810.0 0.0033763
8830.0 0.0032878
8850.0 0.0035296
8870.0 0.003336
8890.0 0.0030265
8910.0 0.0030006
8930.0 0.0031409
8950.0 0.0028236
8970.0 0.0026938
8990.0 0.0026278
9010.0 0.002451
9030.0 0.0024112
9050.0 0.002401
9070.0 0.0023923
9090.0 0.0023835
9110.0 0.0023747
9130.0 0.0023657
9150.0 0.0023565
9170.0 0.0023473
9190.0 0.002338
9210.0 0.0023286
9230.0 0.0023192
9250.0 0.0023096
9270.0 0.0023001
9290.0 0.0022904
9310.0 0.0022828
9330.0 0.0022783
9350.0 0.0022738
9370.0 0.0022691
9390.0 0.0022642
9410.0 0.0022593
9430.0 0.0022544
9450.0 0.0022492
9470.0 0.0022451
9490.0 0.0022403
9510.0 0.0022342
9530.0 0.0022281
9550.0 0.0022222
9570.0 0.0022164
9590.0 0.0022104
9610.0 0.0022079
9630.0 0.0022058
9650.0 0.0022034
9670.0 0.0022006
9690.0 0.002198
9710.0 0.0021952
9730.0 0.0021921
9750.0 0.0021889
9770.0 0.0021859
9790.0 0.0021825
9810.0 0.0021788
9830.0 0.0021753
9850.0 0.0021702
9870.0 0.0021635
9890.0 0.0021612
9910.0 0.0021582
9930.0 0.0021538
9950.0 0.0021496
9970.0 0.0021458
9990.0 0.0021416
10010.0 0.0021371
10030.0 0.0021325
10050.0 0.0021278
10070.0 0.0021229
10090.0 0.0021179
10110.0 0.0021129
10130.0 0.0021077
10150.0 0.0021025
10170.0 0.0020973
10190.0 0.0020919
10210.0 0.0020865
10230.0 0.0020811
10250.0 0.0020756
10270.0 0.00207
10290.0 0.0020643
10310.0 0.0020587
10330.0 0.002053
10350.0 0.0020472
10370.0 0.0020414
10390.0 0.0020355
10410.0 0.0020282
10430.0 0.0020202
10450.0 0.002016
10470.0 0.0020108
10490.0 0.0020054
10510.0 0.0019998
10530.0 0.0019938
10550.0 0.0019879
10570.0 0.001982
10590.0 0.0019759
10610.0 0.0019698
10630.0 0.0019638
10650.0 0.0019578
10670.0 0.0019517
10690.0 0.0019456
10710.0 0.0019396
10730.0 0.0019335
10750.0 0.0019273
10770.0 0.0019214
10790.0 0.0019154
10810.0 0.0019093
10830.0 0.0019033
10850.0 0.0018974
10870.0 0.0018913
10890.0 0.0018851
10910.0 0.0018788
10930.0 0.0018723
10950.0 0.0018652
10970.0 0.0018577
10990.0 0.0018496
11010.0 0.0015552
11030.0 0.0015459
11050.0 0.0015338
11070.0 0.0015194
11090.0 0.0015028
11110.0 0.001485
11130.0 0.0014665
11150.0 0.0014472
11170.0 0.0014274
11190.0 0.0014078
11210.0 0.0013879
11230.0 0.0013676
11250.0 0.0013476
11270.0 0.0013279
11290.0 0.0013079
11310.0 0.0012883
11330.0 0.0012694
11350.0 0.0012507
11370.0 0.0012324
11390.0 0.0012147
11410.0 0.0011977
11430.0 0.0011808
11450.0 0.0011645
11470.0 0.0011488
11490.0 0.0011333
11510.0 0.001118
11530.0 0.0011032
11550.0 0.0010886
11570.0 0.001074
11590.0 0.0010595
11610.0 0.0010452
11630.0 0.0010307
11650.0 0.0010162
11670.0 0.0010018
11690.0 0.00098731
11710.0 0.00097262
11730.0 0.00095789
11750.0 0.00094327
11770.0 0.00092839
11790.0 0.00091336
11810.0 0.00089849
11830.0 0.00088364
11850.0 0.00086854
11870.0 0.00085373
11890.0 0.00083929
11910.0 0.00082492
11930.0 0.00081082
11950.0 0.0007973
11970.0 0.00078418
11990.0 0.00077139
12010.0 0.00075928
12030.0 0.00074784
12050.0 0.00073694
12070.0 0.00072667
12090.0 0.0007172
12110.0 0.00070836
12130.0 0.00070015
12150.0 0.0006926
12170.0 0.00068562
12190.0 0.00067923
12210.0 0.00067335
12230.0 0.00066783
12250.0 0.00066268
12270.0 0.00065787
12290.0 0.00065319
12310.0 0.00064856
12330.0 0.00064408
12350.0 0.00063955
12370.0 0.00063488
12390.0 0.00063009
12410.0 0.00062517
12430.0 0.00061992
12450.0 0.0006144
12470.0 0.00060859
12490.0 0.00060242
12510.0 0.00059594
12530.0 0.00058907
12550.0 0.00058179
12570.0 0.00057419
12590.0 0.00056628
12610.0 0.00055788
12630.0 0.00054913
12650.0 0.00054031
12670.0 0.0005311
12690.0 0.00052156
12710.0 0.00051199
12730.0 0.00050234
12750.0 0.00049225
12770.0 0.00048222
12790.0 0.00047235
12810.0 0.00046236
12830.0 0.00045226
12850.0 0.00044257
12870.0 0.00043308
12890.0 0.00042355
12910.0 0.00041438
12930.0 0.00040572
12950.0 0.0003972
12970.0 0.00038902
12990.0 0.0003816
13010.0 0.0003747
13030.0 0.00036824
13050.0 0.00036249
13070.0 0.00035749
13090.0 0.00035302
13110.0 0.00034921
13130.0 0.00034609
13150.0 0.00034358
13170.0 0.00034165
13190.0 0.00034029
13210.0 0.00033943
13230.0 0.00033906
13250.0 0.00033913
13270.0 0.00033953
13290.0 0.00034027
13310.0 0.00034137
13330.0 0.00034263
13350.0 0.000344
13370.0 0.00034552
13390.0 0.00034709
13410.0 0.00034847
13430.0 0.00034978
13450.0 0.00035096
13470.0 0.00035189
13490.0 0.00035257
13510.0 0.00035305
13530.0 0.00035328
13550.0 0.00035328
13570.0 0.00035311
13590.0 0.00035275
13610.0 0.00035227
13630.0 0.0003517
13650.0 0.00035097
13670.0 0.00035013
13690.0 0.00034921
13710.0 0.00034813
13730.0 0.00034677
13750.0 0.00034533
13770.0 0.00034369
13790.0 0.00034174
13810.0 0.00033955
13830.0 0.00033726
13850.0 0.00033464
13870.0 0.00033173
13890.0 0.00032878
13910.0 0.00032573
13930.0 0.00032242
13950.0 0.0003191
13970.0 0.00031603
13990.0 0.00031289
14010.0 0.00030978
14030.0 0.00030696
14050.0 0.00030435
14070.0 0.00030172
14090.0 0.00029941
14110.0 0.00029742
14130.0 0.00029555
14150.0 0.00029381
14170.0 0.00029242
14190.0 0.0002912
14210.0 0.00029002
14230.0 0.00028903
14250.0 0.00028824
14270.0 0.00028746
14290.0 0.00028674
14310.0 0.00028624
14330.0 0.00028584
14350.0 0.00028547
14370.0 0.00028526
14390.0 0.00028524
14410.0 0.00028527
14430.0 0.00028541
14450.0 0.00028575
14470.0 0.0002862
14490.0 0.0002867
14510.0 0.00028735
14530.0 0.00028813
14550.0 0.00028892
14570.0 0.00028976
14590.0 0.00029069
14610.0 0.00029161
14630.0 0.00029248
14650.0 0.00029339
14670.0 0.00029431
14690.0 0.00029517
14710.0 0.00029597
14730.0 0.00029683
14750.0 0.00029761
14770.0 0.0002983
14790.0 0.00029897
14810.0 0.00029961
14830.0 0.00030007
14850.0 0.00030047
14870.0 0.00030086
14890.0 0.00030115
14910.0 0.00030135
14930.0 0.00030159
14950.0 0.0003019
14970.0 0.00030221
14990.0 0.00030265
15010.0 0.00030329
15030.0 0.00030404
15050.0 0.00030489
15070.0 0.00030592
15090.0 0.00030702
15110.0 0.00030815
15130.0 0.00030929
15150.0 0.00031048
15170.0 0.00031162
15190.0 0.00031272
15210.0 0.00031383
15230.0 0.00031492
15250.0 0.00031595
15270.0 0.00031695
15290.0 0.00031797
15310.0 0.00031893
15330.0 0.00031984
15350.0 0.00032075
15370.0 0.00032164
15390.0 0.00032244
15410.0 0.00032323
15430.0 0.00032401
15450.0 0.00032474
15470.0 0.00032541
15490.0 0.00032609
15510.0 0.00032672
15530.0 0.00032729
15550.0 0.00032784
15570.0 0.00032838
15590.0 0.00032883
15610.0 0.00032924
15630.0 0.00032966
15650.0 0.00033003
15670.0 0.00033033
15690.0 0.00033061
15710.0 0.00033088
15730.0 0.00033107
15750.0 0.00033121
15770.0 0.00033135
15790.0 0.00033145
15810.0 0.00033146
15830.0 0.00033146
15850.0 0.00033145
15870.0 0.00033137
15890.0 0.00033124
15910.0 0.00033111
15930.0 0.00033093
15950.0 0.00033067
15970.0 0.0003304
15990.0 0.00033011
16010.0 0.00032975
16030.0 0.00032934
16050.0 0.00032895
16070.0 0.00032849
16090.0 0.00032798
16110.0 0.00032745
16130.0 0.00032691
16150.0 0.00032627
16170.0 0.00032561
16190.0 0.00032495
16210.0 0.00032424
16230.0 0.00032347
16250.0 0.0003227
16270.0 0.00032191
16290.0 0.00032104
16310.0 0.00032015
16330.0 0.00031926
16350.0 0.00031831
16370.0 0.00031729
16390.0 0.0003163
16410.0 0.00031528
16430.0 0.0003142
16450.0 0.0003131
16470.0 0.00031201
16490.0 0.00031084
16510.0 0.00030964
16530.0 0.00030845
16550.0 0.00030723
16570.0 0.00030594
16590.0 0.00030465
16610.0 0.00030337
16630.0 0.00030203
16650.0 0.00030066
16670.0 0.0002993
16690.0 0.00029792
16710.0 0.00029646
16730.0 0.00029502
16750.0 0.00029358
16770.0 0.00029209
16790.0 0.00029056
16810.0 0.00028907
16830.0 0.00028754
16850.0 0.00028597
16870.0 0.0002844
16890.0 0.00028284
16910.0 0.00028122
16930.0 0.00027957
16950.0 0.00027796
16970.0 0.00027632
16990.0 0.00027465
17010.0 0.00027298
17030.0 0.00027132
17050.0 0.00026961
17070.0 0.00026789
17090.0 0.0002662
17110.0 0.00026448
17130.0 0.00026271
17150.0 0.00026097
17170.0 0.00025924
17190.0 0.00025747
17210.0 0.0002557
17230.0 0.00025395
17250.0 0.00025217
17270.0 0.00025036
17290.0 0.00024858
17310.0 0.0002468
17330.0 0.00024498
17350.0 0.00024316
17370.0 0.00024139
17390.0 0.00023958
17410.0 0.00023775
17430.0 0.00023595
17450.0 0.00023416
17470.0 0.00023231
17490.0 0.00023049
17510.0 0.00022869
17530.0 0.00022688
17550.0 0.00022504
17570.0 0.00022324
17590.0 0.00022145
17610.0 0.00021962
17630.0 0.00021781
17650.0 0.00021602
17670.0 0.00021421
17690.0 0.00021238
17710.0 0.0002106
17730.0 0.00020882
17750.0 0.00020702
17770.0 0.00020523
17790.0 0.00020348
17810.0 0.00020169
17830.0 0.00019991
17850.0 0.00019815
17870.0 0.0001964
17890.0 0.00019463
17910.0 0.00019288
17930.0 0.00019117
17950.0 0.00018943
17970.0 0.0001877
17990.0 0.00018599
18010.0 0.0001843
18030.0 0.00018257
18050.0 0.00018087
18070.0 0.00017921
18090.0 0.00017752
18110.0 0.00017584
18130.0 0.0001742
18150.0 0.00017256
18170.0 0.0001709
18190.0 0.00016927
18210.0 0.00016767
18230.0 0.00016605
18250.0 0.00016442
18270.0 0.00016285
18290.0 0.00016127
18310.0 0.00015969
18330.0 0.00015813
18350.0 0.0001566
18370.0 0.00015505
18390.0 0.00015351
18410.0 0.00015201
18430.0 0.00015051
18450.0 0.00014899
18470.0 0.00014751
18490.0 0.00014605
18510.0 0.00014458
18530.0 0.00014313
18550.0 0.00014171
18570.0 0.00014028
18590.0 0.00013884
18610.0 0.00013745
18630.0 0.00013607
18650.0 0.00013467
18670.0 0.00013329
18690.0 0.00013196
18710.0 0.00013062
18730.0 0.00012927
18750.0 0.00012796
18770.0 0.00012667
18790.0 0.00012535
18810.0 0.00012406
18830.0 0.0001228
18850.0 0.00012154
18870.0 0.00012028
18890.0 0.00011905
18910.0 0.00011784
18930.0 0.00011661
18950.0 0.00011541
18970.0 0.00011423
18990.0 0.00011306
19010.0 0.00011187
19030.0 0.00011073
19050.0 0.00010959
19070.0 0.00010846
19090.0 0.00010734
19110.0 0.00010625
19130.0 0.00010515
19150.0 0.00010405
19170.0 0.00010299
19190.0 0.00010193
19210.0 0.00010087
19230.0 9.9829e-05
19250.0 9.8819e-05
19270.0 9.78e-05
19290.0 9.6788e-05
19310.0 9.5805e-05
19330.0 9.4829e-05
19350.0 9.3837e-05
19370.0 9.2876e-05
19390.0 9.1936e-05
19410.0 9.099e-05
19430.0 9.0049e-05
19450.0 8.9142e-05
19470.0 8.8237e-05
19490.0 8.7326e-05
19510.0 8.6438e-05
19530.0 8.5569e-05
19550.0 8.4687e-05
19570.0 8.3812e-05
19590.0 8.2972e-05
19610.0 8.2132e-05
19630.0 8.1287e-05
19650.0 8.0466e-05
19670.0 7.9663e-05
19690.0 7.8844e-05
19710.0 7.8039e-05
19730.0 7.7257e-05
19750.0 7.6475e-05
19770.0 7.5682e-05
19790.0 7.4919e-05
19810.0 7.417e-05
19830.0 7.3412e-05
19850.0 7.2664e-05
19870.0 7.1941e-05
19890.0 7.1212e-05
19910.0 7.0482e-05
19930.0 6.9785e-05
19950.0 6.9109e-05
19970.0 6.8443e-05
19990.0 6.781e-05
20010.0 6.7233e-05
20030.0 6.6686e-05
20050.0 6.6182e-05
20070.0 6.5738e-05
20090.0 6.5344e-05
20110.0 6.4993e-05
20130.0 6.4697e-05
20150.0 6.4448e-05
20170.0 6.424e-05
20190.0 6.4073e-05
20210.0 6.3938e-05
20230.0 6.3831e-05
20250.0 6.3753e-05
20270.0 6.3692e-05
20290.0 6.3641e-05
20310.0 6.3602e-05
20330.0 6.3572e-05
20350.0 6.3531e-05
20370.0 6.3487e-05
20390.0 6.3439e-05
20410.0 6.3379e-05
20430.0 6.3305e-05
20450.0 6.3225e-05
20470.0 6.3134e-05
20490.0 6.3028e-05
20510.0 6.2916e-05
20530.0 6.2799e-05
20550.0 6.2675e-05
20570.0 6.2545e-05
20590.0 6.2417e-05
20610.0 6.2288e-05
20630.0 6.2157e-05
20650.0 6.2028e-05
20670.0 6.1903e-05
20690.0 6.1774e-05
20710.0 6.1642e-05
20730.0 6.1509e-05
20750.0 6.137e-05
20770.0 6.1218e-05
20790.0 6.1057e-05
20810.0 6.0883e-05
20830.0 6.0691e-05
20850.0 6.0478e-05
20870.0 6.0245e-05
20890.0 5.9987e-05
20910.0 5.9703e-05
20930.0 5.9394e-05
20950.0 5.9056e-05
20970.0 5.8694e-05
20990.0 5.8307e-05
21010.0 5.789e-05
21030.0 5.7451e-05
21050.0 5.6993e-05
21070.0 5.6512e-05
21090.0 5.6006e-05
21110.0 5.5489e-05
21130.0 5.4956e-05
21150.0 5.4402e-05
21170.0 5.3832e-05
21190.0 5.3252e-05
21210.0 5.2648e-05
21230.0 5.2022e-05
21250.0 5.1384e-05
21270.0 5.0725e-05
21290.0 5.0037e-05
21310.0 4.9325e-05
21330.0 4.8597e-05
21350.0 4.7834e-05
21370.0 4.7045e-05
21390.0 4.6808e-05
21410.0 4.6563e-05
21430.0 4.6304e-05
21450.0 4.604e-05
21470.0 4.5771e-05
21490.0 4.5491e-05
21510.0 4.5201e-05
21530.0 4.4909e-05
21550.0 4.4608e-05
21570.0 4.4295e-05
21590.0 4.3977e-05
21610.0 4.3656e-05
21630.0 4.3323e-05
21650.0 4.298e-05
21670.0 4.2638e-05
21690.0 4.2288e-05
21710.0 4.1926e-05
21730.0 4.156e-05
21750.0 4.1192e-05
21770.0 4.0808e-05
21790.0 4.0418e-05
21810.0 4.0026e-05
21830.0 3.9626e-05
21850.0 3.9214e-05
21870.0 3.8799e-05
21890.0 3.8383e-05
21910.0 3.7954e-05
21930.0 3.7518e-05
21950.0 3.7083e-05
21970.0 3.6639e-05
21990.0 3.6184e-05
22010.0 3.5731e-05
22030.0 3.5276e-05
22050.0 3.4813e-05
22070.0 3.4555e-05
22090.0 3.4674e-05
22110.0 3.4792e-05
22130.0 3.4911e-05
22150.0 3.5026e-05
22170.0 3.5139e-05
22190.0 3.5252e-05
22210.0 3.5363e-05
22230.0 3.5471e-05
22250.0 3.5578e-05
22270.0 3.5684e-05
22290.0 3.5789e-05
22310.0 3.5892e-05
22330.0 3.5996e-05
22350.0 3.6099e-05
22370.0 3.6201e-05
22390.0 3.6304e-05
22410.0 3.6407e-05
22430.0 3.6511e-05
22450.0 3.6615e-05
22470.0 3.6721e-05
22490.0 3.6827e-05
22510.0 3.6934e-05
22530.0 3.7043e-05
22550.0 3.7154e-05
22570.0 3.7265e-05
22590.0 3.7378e-05
22610.0 3.7492e-05
22630.0 3.7607e-05
22650.0 3.7723e-05
22670.0 3.784e-05
22690.0 3.7959e-05
22710.0 3.8078e-05
22730.0 3.8199e-05
22750.0 3.832e-05
22770.0 3.8443e-05
22790.0 3.8566e-05
22810.0 3.869e-05
22830.0 3.8815e-05
22850.0 3.8941e-05
22870.0 3.9069e-05
22890.0 3.9198e-05
22910.0 3.9328e-05
22930.0 3.946e-05
22950.0 3.9594e-05
22970.0 3.973e-05
22990.0 3.9869e-05
23010.0 4.001e-05
23030.0 4.0154e-05
23050.0 4.0302e-05
23070.0 4.0452e-05
23090.0 4.0606e-05
23110.0 4.061e-05
23130.0 4.0603e-05
23150.0 4.0595e-05
23170.0 4.0588e-05
23190.0 4.0581e-05
23210.0 4.0574e-05
23230.0 4.0568e-05
23250.0 4.0561e-05
23270.0 4.0555e-05
23290.0 4.0549e-05
23310.0 4.0544e-05
23330.0 4.0538e-05
