#lamb flux
1010.0 4.5086e-07
1030.0 4.8334e-07
1050.0 5.2081e-07
1070.0 5.6303e-07
1090.0 6.11e-07
1110.0 6.6028e-07
1130.0 7.0998e-07
1150.0 7.6214e-07
1170.0 8.1605e-07
1190.0 8.6733e-07
1210.0 9.1943e-07
1230.0 9.734e-07
1250.0 1.0265e-06
1270.0 1.0782e-06
1290.0 1.133e-06
1310.0 1.188e-06
1330.0 1.2409e-06
1350.0 1.2947e-06
1370.0 1.3503e-06
1390.0 1.4049e-06
1410.0 1.4582e-06
1430.0 1.514e-06
1450.0 1.57e-06
1470.0 1.6245e-06
1490.0 1.6798e-06
1510.0 1.7383e-06
1530.0 1.7941e-06
1550.0 1.8493e-06
1570.0 1.9066e-06
1590.0 1.964e-06
1610.0 2.019e-06
1630.0 2.0758e-06
1650.0 2.1339e-06
1670.0 2.1902e-06
1690.0 2.2457e-06
1710.0 2.3031e-06
1730.0 2.3605e-06
1750.0 2.4144e-06
1770.0 2.4694e-06
1790.0 2.525e-06
1810.0 2.5783e-06
1830.0 2.6301e-06
1850.0 2.6845e-06
1870.0 2.7366e-06
1890.0 2.7861e-06
1910.0 2.8358e-06
1930.0 2.8859e-06
1950.0 2.9324e-06
1970.0 2.9773e-06
1990.0 3.0231e-06
2010.0 3.067e-06
2030.0 3.1078e-06
2050.0 3.1491e-06
2070.0 3.1906e-06
2090.0 3.228e-06
2110.0 3.2642e-06
2130.0 3.3008e-06
2150.0 3.3355e-06
2170.0 3.3672e-06
2190.0 3.3998e-06
2210.0 3.4319e-06
2230.0 3.4613e-06
2250.0 3.4899e-06
2270.0 3.5201e-06
2290.0 3.5483e-06
2310.0 3.5742e-06
2330.0 3.6012e-06
2350.0 3.6285e-06
2370.0 3.6537e-06
2390.0 3.6793e-06
2410.0 3.7072e-06
2430.0 3.734e-06
2450.0 3.7604e-06
2470.0 3.7896e-06
2490.0 3.8231e-06
2510.0 3.8621e-06
2530.0 3.9206e-06
2550.0 4.0214e-06
2570.0 4.189e-06
2590.0 4.4525e-06
2610.0 4.8857e-06
2630.0 5.5096e-06
2650.0 6.2936e-06
2670.0 7.2478e-06
2690.0 8.3405e-06
2710.0 9.4265e-06
2730.0 1.0435e-05
2750.0 1.1382e-05
2770.0 1.2186e-05
2790.0 1.2836e-05
2810.0 1.3396e-05
2830.0 1.3916e-05
2850.0 1.4374e-05
2870.0 1.4821e-05
2890.0 1.5293e-05
2910.0 1.5778e-05
2930.0 1.6259e-05
2950.0 1.6775e-05
2970.0 1.7321e-05
2990.0 1.7866e-05
3010.0 8.0782e-05
3030.0 8.3342e-05
3050.0 8.5876e-05
3070.0 8.8131e-05
3090.0 9.0028e-05
3110.0 9.1027e-05
3130.0 9.0487e-05
3150.0 8.7748e-05
3170.0 8.1481e-05
3190.0 7.1585e-05
3210.0 5.8294e-05
3230.0 4.3427e-05
3250.0 5.8311e-05
3270.0 4.2053e-05
3290.0 7.7582e-05
3310.0 3.9777e-05
3330.0 3.9728e-05
3350.0 4.4888e-05
3370.0 5.1144e-05
3390.0 5.8059e-05
3410.0 6.5011e-05
3430.0 7.235e-05
3450.0 7.9808e-05
3470.0 8.6749e-05
3490.0 9.1834e-05
3510.0 0.00010702
3530.0 0.00013312
3550.0 0.0001307
3570.0 0.00011206
3590.0 0.00014434
3610.0 0.00010255
3630.0 0.00015323
3650.0 0.00017575
3670.0 0.00021697
3690.0 0.00020316
3710.0 0.00014409
3730.0 0.0001773
3750.0 0.00018053
3770.0 0.00019517
3790.0 0.00019525
3810.0 0.00020934
3830.0 0.00032152
3850.0 0.0004004
3870.0 0.00048868
3890.0 0.00048418
3910.0 0.00044118
3930.0 0.00044439
3950.0 0.0004741
3970.0 0.0004925
3990.0 0.00030486
4010.0 0.00017171
4030.0 0.00030761
4050.0 0.00041662
4070.0 0.00042873
4090.0 0.0002816
4110.0 0.00018707
4130.0 0.00031515
4150.0 0.00033357
4170.0 0.00029728
4190.0 0.00026141
4210.0 0.00037657
4230.0 0.00029656
4250.0 0.00030757
4270.0 0.00030536
4290.0 0.00028331
4310.0 0.00035998
4330.0 0.00039794
4350.0 0.00035466
4370.0 0.00030672
4390.0 0.00035693
4410.0 0.00035706
4430.0 0.0002626
4450.0 0.00022675
4470.0 0.00027991
4490.0 0.00022739
4510.0 0.00032439
4530.0 0.00033496
4550.0 0.00037644
4570.0 0.00051256
4590.0 0.00053028
4610.0 0.00048433
4630.0 0.0007257
4650.0 0.00090834
4670.0 0.00088424
4690.0 0.00069778
4710.0 0.00072094
4730.0 0.00074859
4750.0 0.00059408
4770.0 0.00046253
4790.0 0.00032559
4810.0 0.00041341
4830.0 0.00048564
4850.0 0.00044282
4870.0 0.00024866
4890.0 0.00051532
4910.0 0.00062918
4930.0 0.0006859
4950.0 0.00073599
4970.0 0.00058932
4990.0 0.00067845
5010.0 0.00075614
5030.0 0.00077309
5050.0 0.00068926
5070.0 0.0004895
5090.0 0.00040113
5110.0 0.00039433
5130.0 0.00038727
5150.0 0.00038894
5170.0 0.00035566
5190.0 0.00040793
5210.0 0.00041684
5230.0 0.00046175
5250.0 0.00053047
5270.0 0.00045746
5290.0 0.00049382
5310.0 0.00069248
5330.0 0.00078518
5350.0 0.00068048
5370.0 0.00063475
5390.0 0.00072173
5410.0 0.00081638
5430.0 0.00084765
5450.0 0.00088936
5470.0 0.00091851
5490.0 0.00098968
5510.0 0.0011862
5530.0 0.001233
5550.0 0.0012798
5570.0 0.0013201
5590.0 0.0012891
5610.0 0.0012104
5630.0 0.0011934
5650.0 0.0012375
5670.0 0.0012046
5690.0 0.0010486
5710.0 0.0010387
5730.0 0.0010168
5750.0 0.0010137
5770.0 0.00088093
5790.0 0.00086759
5810.0 0.00089967
5830.0 0.00097854
5850.0 0.00092686
5870.0 0.00092377
5890.0 0.0010395
5910.0 0.00096561
5930.0 0.00082258
5950.0 0.00076839
5970.0 0.00082759
5990.0 0.00074395
6010.0 0.00066397
6030.0 0.00062884
6050.0 0.00057321
6070.0 0.00046935
6090.0 0.00046397
6110.0 0.0005697
6130.0 0.00061943
6150.0 0.00063535
6170.0 0.00063042
6190.0 0.00062287
6210.0 0.00067135
6230.0 0.00080674
6250.0 0.00074643
6270.0 0.00066465
6290.0 0.00059496
6310.0 0.00052421
6330.0 0.00047887
6350.0 0.00043746
6370.0 0.00045058
6390.0 0.00051699
6410.0 0.00063587
6430.0 0.00076218
6450.0 0.00080247
6470.0 0.00083539
6490.0 0.0009938
6510.0 0.0011231
6530.0 0.0010739
6550.0 0.0010211
6570.0 0.0010344
6590.0 0.0010258
6610.0 0.0010638
6630.0 0.00099471
6650.0 0.00087299
6670.0 0.0008177
6690.0 0.00080841
6710.0 0.00091231
6730.0 0.00080677
6750.0 0.00066988
6770.0 0.00062028
6790.0 0.00066018
6810.0 0.00075415
6830.0 0.00075561
6850.0 0.00068181
6870.0 0.00069825
6890.0 0.00069293
6910.0 0.00065142
6930.0 0.00070305
6950.0 0.00066389
6970.0 0.00062884
6990.0 0.00063234
7010.0 0.00064987
7030.0 0.00063548
7050.0 0.00059994
7070.0 0.00062207
7090.0 0.00057032
7110.0 0.0004855
7130.0 0.00043607
7150.0 0.00044121
7170.0 0.00053063
7190.0 0.00055299
7210.0 0.00052744
7230.0 0.00056196
7250.0 0.00056489
7270.0 0.0005622
7290.0 0.00059611
7310.0 0.00063478
7330.0 0.00061243
7350.0 0.00056799
7370.0 0.00052503
7390.0 0.00052097
7410.0 0.00059024
7430.0 0.00067182
7450.0 0.00072192
7470.0 0.000751
7490.0 0.00085164
7510.0 0.00084421
7530.0 0.00073888
7550.0 0.00067905
7570.0 0.00058064
7590.0 0.000539
7610.0 0.0005216
7630.0 0.00048988
7650.0 0.00052627
7670.0 0.00058812
7690.0 0.0006418
7710.0 0.00073331
7730.0 0.00076534
7750.0 0.00079386
7770.0 0.00083605
7790.0 0.00089613
7810.0 0.00089485
7830.0 0.00080615
7850.0 0.00080703
7870.0 0.0007807
7890.0 0.00078319
7910.0 0.00073439
7930.0 0.00071978
7950.0 0.00060099
7970.0 0.00059575
7990.0 0.00058162
8010.0 0.0006477
8030.0 0.00064589
8050.0 0.00068576
8070.0 0.00066012
8090.0 0.00066257
8110.0 0.00065234
8130.0 0.00063966
8150.0 0.00059751
8170.0 0.00058786
8190.0 0.00058833
8210.0 0.00059402
8230.0 0.00052263
8250.0 0.00047908
8270.0 0.00042306
8290.0 0.00035915
8310.0 0.00031314
8330.0 0.00024481
8350.0 0.00019584
8370.0 0.00018651
8390.0 0.00018212
8410.0 0.00019303
8430.0 0.00024879
8450.0 0.00027202
8470.0 0.00029346
8490.0 0.00034189
8510.0 0.00037178
8530.0 0.00042052
8550.0 0.00049729
8570.0 0.00054732
8590.0 0.00057628
8610.0 0.00064395
8630.0 0.00073631
8650.0 0.0007577
8670.0 0.00077406
8690.0 0.00079883
8710.0 0.00078187
8730.0 0.000754
8750.0 0.00069334
8770.0 0.00069184
8790.0 0.00067999
8810.0 0.0006254
8830.0 0.00062174
8850.0 0.00056393
8870.0 0.000535
8890.0 0.00047985
8910.0 0.00053686
8930.0 0.00048707
8950.0 0.00049021
8970.0 0.0005015
8990.0 0.00048836
9010.0 0.00050045
9030.0 0.00047508
9050.0 0.00047293
9070.0 0.00047327
9090.0 0.00047353
9110.0 0.00047413
9130.0 0.00047428
9150.0 0.00047419
9170.0 0.00047287
9190.0 0.00046978
9210.0 0.00047715
9230.0 0.00047531
9250.0 0.00047434
9270.0 0.00047357
9290.0 0.00047292
9310.0 0.00047234
9330.0 0.00047179
9350.0 0.00047126
9370.0 0.0004707
9390.0 0.00047011
9410.0 0.00046949
9430.0 0.00046887
9450.0 0.00046819
9470.0 0.00046749
9490.0 0.00046679
9510.0 0.00046605
9530.0 0.00046528
9550.0 0.00046452
9570.0 0.00046375
9590.0 0.00046296
9610.0 0.00046216
9630.0 0.00046138
9650.0 0.00046058
9670.0 0.00045976
9690.0 0.00045897
9710.0 0.00045819
9730.0 0.00045738
9750.0 0.0004566
9770.0 0.00045586
9790.0 0.0004551
9810.0 0.00045434
9830.0 0.00045362
9850.0 0.00045293
9870.0 0.00045221
9890.0 0.00045152
9910.0 0.00045089
9930.0 0.00045024
9950.0 0.000449
9970.0 0.00044861
9990.0 0.00044822
10010.0 0.00044777
10030.0 0.00044732
10050.0 0.0004467
10070.0 0.00044516
10090.0 0.0004451
10110.0 0.00044503
10130.0 0.00044487
10150.0 0.00044468
10170.0 0.00044443
10190.0 0.00044415
10210.0 0.0004439
10230.0 0.00044368
10250.0 0.00044344
10270.0 0.00044324
10290.0 0.00044308
10310.0 0.00044293
10330.0 0.00044278
10350.0 0.00044269
10370.0 0.00044263
10390.0 0.00044257
10410.0 0.00044253
10430.0 0.00044255
10450.0 0.00044257
10470.0 0.0004426
10490.0 0.00044268
10510.0 0.00044277
10530.0 0.00044285
10550.0 0.00044297
10570.0 0.00044313
10590.0 0.0004433
10610.0 0.00044347
10630.0 0.00044368
10650.0 0.0004439
10670.0 0.00044412
10690.0 0.00044436
10710.0 0.00044464
10730.0 0.00044491
10750.0 0.00044518
10770.0 0.0004455
10790.0 0.00044582
10810.0 0.00044613
10830.0 0.00044644
10850.0 0.00044674
10870.0 0.00044694
10890.0 0.00044694
10910.0 0.00044665
10930.0 0.00044581
10950.0 0.00044403
10970.0 0.00044113
10990.0 0.00043699
11010.0 0.00044622
11030.0 0.00043805
11050.0 0.00042849
11070.0 0.00041745
11090.0 0.00040466
11110.0 0.00039193
11130.0 0.00037921
11150.0 0.00036621
11170.0 0.00035362
11190.0 0.0003422
11210.0 0.00033123
11230.0 0.00032086
11250.0 0.00031176
11270.0 0.0003037
11290.0 0.00029623
11310.0 0.00028964
11330.0 0.00028415
11350.0 0.0002791
11370.0 0.00027441
11390.0 0.00027018
11410.0 0.00026618
11430.0 0.00026196
11450.0 0.00025772
11470.0 0.00025342
11490.0 0.00024878
11510.0 0.0002437
11530.0 0.00023855
11550.0 0.00023319
11570.0 0.00022739
11590.0 0.00022147
11610.0 0.00021565
11630.0 0.00020955
11650.0 0.00020332
11670.0 0.00019744
11690.0 0.00019169
11710.0 0.00018589
11730.0 0.00018036
11750.0 0.00017525
11770.0 0.00017016
11790.0 0.00016522
11810.0 0.00016067
11830.0 0.00015633
11850.0 0.00015195
11870.0 0.00014787
11890.0 0.00014408
11910.0 0.00014028
11930.0 0.00013655
11950.0 0.00013305
11970.0 0.00012958
11990.0 0.00012603
12010.0 0.00012264
12030.0 0.00011938
12050.0 0.00011611
12070.0 0.00011287
12090.0 0.00010996
12110.0 0.00010717
12130.0 0.0001045
12150.0 0.00010215
12170.0 0.00010015
12190.0 9.8378e-05
12210.0 9.7029e-05
12230.0 9.6159e-05
12250.0 9.5731e-05
12270.0 9.5798e-05
12290.0 9.638e-05
12310.0 9.742e-05
12330.0 9.8983e-05
12350.0 0.00010101
12370.0 0.00010334
12390.0 0.00010603
12410.0 0.00010912
12430.0 0.0001122
12450.0 0.00011532
12470.0 0.00011852
12490.0 0.00012161
12510.0 0.0001244
12530.0 0.00012706
12550.0 0.0001295
12570.0 0.00013156
12590.0 0.00013329
12610.0 0.00013476
12630.0 0.00013589
12650.0 0.00013667
12670.0 0.00013718
12690.0 0.00013744
12710.0 0.00013745
12730.0 0.00013725
12750.0 0.00013683
12770.0 0.00013624
12790.0 0.00013552
12810.0 0.00013463
12830.0 0.00013357
12850.0 0.00013243
12870.0 0.00013115
12890.0 0.00012968
12910.0 0.00012807
12930.0 0.00012637
12950.0 0.00012442
12970.0 0.00012226
12990.0 0.00012004
13010.0 0.00011766
13030.0 0.00011507
13050.0 0.00011241
13070.0 0.00010978
13090.0 0.000107
13110.0 0.00010421
13130.0 0.00010157
13150.0 9.9037e-05
13170.0 9.653e-05
13190.0 9.4323e-05
13210.0 9.2421e-05
13230.0 9.072e-05
13250.0 8.9306e-05
13270.0 8.8244e-05
13290.0 8.7452e-05
13310.0 8.6914e-05
13330.0 8.6654e-05
13350.0 8.6605e-05
13370.0 8.6716e-05
13390.0 8.6944e-05
13410.0 8.7216e-05
13430.0 8.7489e-05
13450.0 8.7716e-05
13470.0 8.7847e-05
13490.0 8.7861e-05
13510.0 8.7723e-05
13530.0 8.7428e-05
13550.0 8.7006e-05
13570.0 8.645e-05
13590.0 8.5768e-05
13610.0 8.5032e-05
13630.0 8.4274e-05
13650.0 8.3468e-05
13670.0 8.268e-05
13690.0 8.1953e-05
13710.0 8.1263e-05
13730.0 8.0604e-05
13750.0 8.0043e-05
13770.0 7.9538e-05
13790.0 7.906e-05
13810.0 7.8615e-05
13830.0 7.8197e-05
13850.0 7.7761e-05
13870.0 7.7294e-05
13890.0 7.6805e-05
13910.0 7.6277e-05
13930.0 7.5679e-05
13950.0 7.5034e-05
13970.0 7.4382e-05
13990.0 7.3685e-05
14010.0 7.2966e-05
14030.0 7.2274e-05
14050.0 7.1608e-05
14070.0 7.0952e-05
14090.0 7.0367e-05
14110.0 6.9859e-05
14130.0 6.9411e-05
14150.0 6.9034e-05
14170.0 6.8745e-05
14190.0 6.8526e-05
14210.0 6.8377e-05
14230.0 6.83e-05
14250.0 6.8289e-05
14270.0 6.8353e-05
14290.0 6.8495e-05
14310.0 6.8695e-05
14330.0 6.8963e-05
14350.0 6.9313e-05
14370.0 6.9719e-05
14390.0 7.0157e-05
14410.0 7.0667e-05
14430.0 7.1219e-05
14450.0 7.1771e-05
14470.0 7.2341e-05
14490.0 7.2958e-05
14510.0 7.3551e-05
14530.0 7.4129e-05
14550.0 7.4745e-05
14570.0 7.5389e-05
14590.0 7.6035e-05
14610.0 7.6747e-05
14630.0 7.757e-05
14650.0 7.8455e-05
14670.0 7.9426e-05
14690.0 8.0562e-05
14710.0 8.1858e-05
14730.0 8.3202e-05
14750.0 8.4709e-05
14770.0 8.6391e-05
14790.0 8.8133e-05
14810.0 8.9911e-05
14830.0 9.1879e-05
14850.0 9.3838e-05
14870.0 9.5699e-05
14890.0 9.7536e-05
14910.0 9.9313e-05
14930.0 0.00010085
14950.0 0.00010215
14970.0 0.00010326
14990.0 0.00010406
15010.0 0.00010454
15030.0 0.00010477
15050.0 0.00010478
15070.0 0.00010458
15090.0 0.00010427
15110.0 0.00010387
15130.0 0.00010341
15150.0 0.00010294
15170.0 0.00010245
15190.0 0.00010195
15210.0 0.00010146
15230.0 0.00010097
15250.0 0.00010047
15270.0 9.9974e-05
15290.0 9.949e-05
15310.0 9.9e-05
15330.0 9.8508e-05
15350.0 9.8026e-05
15370.0 9.7546e-05
15390.0 9.7054e-05
15410.0 9.6572e-05
15430.0 9.6097e-05
15450.0 9.5618e-05
15470.0 9.5136e-05
15490.0 9.4667e-05
15510.0 9.4199e-05
15530.0 9.3724e-05
15550.0 9.3256e-05
15570.0 9.2797e-05
15590.0 9.2329e-05
15610.0 9.186e-05
15630.0 9.1406e-05
15650.0 9.0951e-05
15670.0 9.049e-05
15690.0 9.0038e-05
15710.0 8.9594e-05
15730.0 8.9143e-05
15750.0 8.8692e-05
15770.0 8.8253e-05
15790.0 8.7813e-05
15810.0 8.7365e-05
15830.0 8.6928e-05
15850.0 8.6499e-05
15870.0 8.6065e-05
15890.0 8.5631e-05
15910.0 8.521e-05
15930.0 8.4785e-05
15950.0 8.4355e-05
15970.0 8.3935e-05
15990.0 8.3521e-05
16010.0 8.3101e-05
16030.0 8.2681e-05
16050.0 8.2276e-05
16070.0 8.1868e-05
16090.0 8.1456e-05
16110.0 8.1053e-05
16130.0 8.0657e-05
16150.0 8.0249e-05
16170.0 7.9847e-05
16190.0 7.9456e-05
16210.0 7.9063e-05
16230.0 7.8665e-05
16250.0 7.8279e-05
16270.0 7.7897e-05
16290.0 7.7507e-05
16310.0 7.7123e-05
16330.0 7.6747e-05
16350.0 7.6368e-05
16370.0 7.5981e-05
16390.0 7.561e-05
16410.0 7.5242e-05
16430.0 7.4867e-05
16450.0 7.4497e-05
16470.0 7.4138e-05
16490.0 7.377e-05
16510.0 7.3402e-05
16530.0 7.3044e-05
16550.0 7.2688e-05
16570.0 7.2324e-05
16590.0 7.1965e-05
16610.0 7.1619e-05
16630.0 7.1266e-05
16650.0 7.0912e-05
16670.0 7.0568e-05
16690.0 7.0225e-05
16710.0 6.9871e-05
16730.0 6.9527e-05
16750.0 6.919e-05
16770.0 6.8848e-05
16790.0 6.8504e-05
16810.0 6.8172e-05
16830.0 6.784e-05
16850.0 6.7501e-05
16870.0 6.7169e-05
16890.0 6.6844e-05
16910.0 6.651e-05
16930.0 6.6175e-05
16950.0 6.5854e-05
16970.0 6.5531e-05
16990.0 6.5202e-05
17010.0 6.488e-05
17030.0 6.4566e-05
17050.0 6.4242e-05
17070.0 6.392e-05
17090.0 6.3607e-05
17110.0 6.3293e-05
17130.0 6.297e-05
17150.0 6.2657e-05
17170.0 6.2351e-05
17190.0 6.2037e-05
17210.0 6.1724e-05
17230.0 6.1422e-05
17250.0 6.1115e-05
17270.0 6.0801e-05
17290.0 6.0497e-05
17310.0 6.0197e-05
17330.0 5.989e-05
17350.0 5.9583e-05
17370.0 5.9289e-05
17390.0 5.899e-05
17410.0 5.8687e-05
17430.0 5.8391e-05
17450.0 5.81e-05
17470.0 5.7796e-05
17490.0 5.7498e-05
17510.0 5.7209e-05
17530.0 5.6916e-05
17550.0 5.6619e-05
17570.0 5.6331e-05
17590.0 5.6046e-05
17610.0 5.5752e-05
17630.0 5.5462e-05
17650.0 5.518e-05
17670.0 5.4893e-05
17690.0 5.4597e-05
17710.0 5.4317e-05
17730.0 5.4037e-05
17750.0 5.375e-05
17770.0 5.3466e-05
17790.0 5.3193e-05
17810.0 5.2909e-05
17830.0 5.2624e-05
17850.0 5.2349e-05
17870.0 5.2073e-05
17890.0 5.179e-05
17910.0 5.1511e-05
17930.0 5.1243e-05
17950.0 5.0967e-05
17970.0 5.0689e-05
17990.0 5.042e-05
18010.0 5.0152e-05
18030.0 4.9871e-05
18050.0 4.96e-05
18070.0 4.9335e-05
18090.0 4.9064e-05
18110.0 4.879e-05
18130.0 4.8528e-05
18150.0 4.8264e-05
18170.0 4.7993e-05
18190.0 4.7728e-05
18210.0 4.7469e-05
18230.0 4.7201e-05
18250.0 4.6932e-05
18270.0 4.6675e-05
18290.0 4.6415e-05
18310.0 4.6149e-05
18330.0 4.5891e-05
18350.0 4.5638e-05
18370.0 4.5375e-05
18390.0 4.5114e-05
18410.0 4.4862e-05
18430.0 4.4607e-05
18450.0 4.4343e-05
18470.0 4.409e-05
18490.0 4.3841e-05
18510.0 4.3585e-05
18530.0 4.3331e-05
18550.0 4.3085e-05
18570.0 4.2834e-05
18590.0 4.2577e-05
18610.0 4.233e-05
18630.0 4.2085e-05
18650.0 4.1833e-05
18670.0 4.1581e-05
18690.0 4.1342e-05
18710.0 4.1097e-05
18730.0 4.0848e-05
18750.0 4.0606e-05
18770.0 4.0368e-05
18790.0 4.0117e-05
18810.0 3.9873e-05
18830.0 3.9637e-05
18850.0 3.9396e-05
18870.0 3.9152e-05
18890.0 3.8917e-05
18910.0 3.8683e-05
18930.0 3.8441e-05
18950.0 3.8203e-05
18970.0 3.7972e-05
18990.0 3.7736e-05
19010.0 3.7493e-05
19030.0 3.7264e-05
19050.0 3.7034e-05
19070.0 3.6798e-05
19090.0 3.6567e-05
19110.0 3.6343e-05
19130.0 3.611e-05
19150.0 3.5876e-05
19170.0 3.5651e-05
19190.0 3.5425e-05
19210.0 3.5192e-05
19230.0 3.4964e-05
19250.0 3.4746e-05
19270.0 3.4519e-05
19290.0 3.4292e-05
19310.0 3.4073e-05
19330.0 3.3854e-05
19350.0 3.3623e-05
19370.0 3.3403e-05
19390.0 3.3187e-05
19410.0 3.2964e-05
19430.0 3.2741e-05
19450.0 3.2528e-05
19470.0 3.2313e-05
19490.0 3.2091e-05
19510.0 3.1876e-05
19530.0 3.1666e-05
19550.0 3.1446e-05
19570.0 3.1227e-05
19590.0 3.1019e-05
19610.0 3.0807e-05
19630.0 3.0591e-05
19650.0 3.0381e-05
19670.0 3.0176e-05
19690.0 2.9962e-05
19710.0 2.975e-05
19730.0 2.9545e-05
19750.0 2.9338e-05
19770.0 2.9123e-05
19790.0 2.8919e-05
19810.0 2.8717e-05
19830.0 2.8508e-05
19850.0 2.8299e-05
19870.0 2.8094e-05
19890.0 2.7876e-05
19910.0 2.7639e-05
19930.0 2.7389e-05
19950.0 2.7109e-05
19970.0 2.6773e-05
19990.0 2.638e-05
20010.0 2.5948e-05
20030.0 2.5443e-05
20050.0 2.4877e-05
20070.0 2.4292e-05
20090.0 2.3692e-05
20110.0 2.3052e-05
20130.0 2.2444e-05
20150.0 2.188e-05
20170.0 2.1331e-05
20190.0 2.0813e-05
20210.0 2.0356e-05
20230.0 1.9939e-05
20250.0 1.955e-05
20270.0 1.9215e-05
20290.0 1.8932e-05
20310.0 1.8685e-05
20330.0 1.8479e-05
20350.0 1.833e-05
20370.0 1.8222e-05
20390.0 1.8157e-05
20410.0 1.8138e-05
20430.0 1.8162e-05
20450.0 1.8233e-05
20470.0 1.8352e-05
20490.0 1.851e-05
20510.0 1.8711e-05
20530.0 1.8964e-05
20550.0 1.925e-05
20570.0 1.956e-05
20590.0 1.9914e-05
20610.0 2.0295e-05
20630.0 2.0681e-05
20650.0 2.1084e-05
20670.0 2.1512e-05
20690.0 2.1919e-05
20710.0 2.231e-05
20730.0 2.2699e-05
20750.0 2.3067e-05
20770.0 2.3395e-05
20790.0 2.3704e-05
20810.0 2.3993e-05
20830.0 2.4247e-05
20850.0 2.4474e-05
20870.0 2.469e-05
20890.0 2.4887e-05
20910.0 2.5062e-05
20930.0 2.5231e-05
20950.0 2.5396e-05
20970.0 2.555e-05
20990.0 2.5697e-05
21010.0 2.5844e-05
21030.0 2.598e-05
21050.0 2.61e-05
21070.0 2.6208e-05
21090.0 2.6299e-05
21110.0 2.6364e-05
21130.0 2.6406e-05
21150.0 2.6423e-05
21170.0 2.6414e-05
21190.0 2.638e-05
21210.0 2.632e-05
21230.0 2.6235e-05
21250.0 2.6133e-05
21270.0 2.6014e-05
21290.0 2.5877e-05
21310.0 2.5728e-05
21330.0 2.5579e-05
21350.0 2.542e-05
21370.0 2.5256e-05
21390.0 2.5098e-05
21410.0 2.4945e-05
21430.0 2.4788e-05
21450.0 2.4644e-05
21470.0 2.4514e-05
21490.0 2.4391e-05
21510.0 2.4279e-05
21530.0 2.4185e-05
21550.0 2.4105e-05
21570.0 2.4038e-05
21590.0 2.399e-05
21610.0 2.396e-05
21630.0 2.3948e-05
21650.0 2.3957e-05
21670.0 2.3986e-05
21690.0 2.4035e-05
21710.0 2.4109e-05
21730.0 2.4204e-05
21750.0 2.4317e-05
21770.0 2.4462e-05
21790.0 2.463e-05
21810.0 2.4815e-05
21830.0 2.5023e-05
21850.0 2.5263e-05
21870.0 2.5517e-05
21890.0 2.5781e-05
21910.0 2.6074e-05
21930.0 2.6383e-05
21950.0 2.6694e-05
21970.0 2.702e-05
21990.0 2.737e-05
22010.0 2.7707e-05
22030.0 2.8041e-05
22050.0 2.8382e-05
22070.0 2.8716e-05
22090.0 2.9025e-05
22110.0 2.9326e-05
22130.0 2.9614e-05
22150.0 2.9869e-05
22170.0 3.0095e-05
22190.0 3.0297e-05
22210.0 3.046e-05
22230.0 3.0577e-05
22250.0 3.0655e-05
22270.0 3.0687e-05
22290.0 3.0672e-05
22310.0 3.061e-05
22330.0 3.0493e-05
22350.0 3.0326e-05
22370.0 3.0116e-05
22390.0 2.9852e-05
22410.0 2.9531e-05
22430.0 2.918e-05
22450.0 2.8793e-05
22470.0 2.8353e-05
22490.0 2.7885e-05
22510.0 2.7405e-05
22530.0 2.6881e-05
22550.0 2.6327e-05
22570.0 2.5782e-05
22590.0 2.5229e-05
22610.0 2.4652e-05
22630.0 2.4082e-05
22650.0 2.354e-05
