#lamb flux
1010.0 4.4225e-06
1030.0 4.7411e-06
1050.0 5.1086e-06
1070.0 5.5227e-06
1090.0 5.9933e-06
1110.0 6.4767e-06
1130.0 6.9642e-06
1150.0 7.4758e-06
1170.0 8.0046e-06
1190.0 8.5076e-06
1210.0 9.0187e-06
1230.0 9.5481e-06
1250.0 1.0069e-05
1270.0 1.0576e-05
1290.0 1.1114e-05
1310.0 1.1653e-05
1330.0 1.2172e-05
1350.0 1.2699e-05
1370.0 1.3246e-05
1390.0 1.3781e-05
1410.0 1.4303e-05
1430.0 1.485e-05
1450.0 1.54e-05
1470.0 1.5935e-05
1490.0 1.6477e-05
1510.0 1.7051e-05
1530.0 1.7598e-05
1550.0 1.814e-05
1570.0 1.8701e-05
1590.0 1.9264e-05
1610.0 1.9805e-05
1630.0 2.0361e-05
1650.0 2.0931e-05
1670.0 2.1484e-05
1690.0 2.2028e-05
1710.0 2.2591e-05
1730.0 2.3154e-05
1750.0 2.3682e-05
1770.0 2.4222e-05
1790.0 2.4767e-05
1810.0 2.5291e-05
1830.0 2.5799e-05
1850.0 2.6332e-05
1870.0 2.6843e-05
1890.0 2.7329e-05
1910.0 2.7816e-05
1930.0 2.8307e-05
1950.0 2.8764e-05
1970.0 2.9205e-05
1990.0 2.9654e-05
2010.0 3.0084e-05
2030.0 3.0484e-05
2050.0 3.089e-05
2070.0 3.1297e-05
2090.0 3.1663e-05
2110.0 3.2018e-05
2130.0 3.2378e-05
2150.0 3.2718e-05
2170.0 3.3029e-05
2190.0 3.3348e-05
2210.0 3.3663e-05
2230.0 3.3952e-05
2250.0 3.4233e-05
2270.0 3.4529e-05
2290.0 3.4805e-05
2310.0 3.5059e-05
2330.0 3.5324e-05
2350.0 3.5591e-05
2370.0 3.5839e-05
2390.0 3.609e-05
2410.0 3.6364e-05
2430.0 3.6627e-05
2450.0 3.6886e-05
2470.0 3.7172e-05
2490.0 3.7501e-05
2510.0 3.7883e-05
2530.0 3.8457e-05
2550.0 3.9446e-05
2570.0 4.109e-05
2590.0 4.3674e-05
2610.0 4.7923e-05
2630.0 5.4044e-05
2650.0 6.1733e-05
2670.0 7.1093e-05
2690.0 8.1812e-05
2710.0 9.2465e-05
2730.0 0.00010235
2750.0 0.00011165
2770.0 0.00011953
2790.0 0.0001259
2810.0 0.0001314
2830.0 0.0001365
2850.0 0.00014099
2870.0 0.00014538
2890.0 0.00015001
2910.0 0.00015476
2930.0 0.00015949
2950.0 0.00016455
2970.0 0.0001699
2990.0 0.00017524
3010.0 0.00079239
3030.0 0.0008175
3050.0 0.00084236
3070.0 0.00086448
3090.0 0.00088308
3110.0 0.00089288
3130.0 0.00088758
3150.0 0.00086072
3170.0 0.00079924
3190.0 0.00070218
3210.0 0.0005718
3230.0 0.00042597
3250.0 0.00057197
3270.0 0.0004125
3290.0 0.000761
3310.0 0.00039017
3330.0 0.00038969
3350.0 0.00044031
3370.0 0.00050167
3390.0 0.00056949
3410.0 0.00063769
3430.0 0.00070968
3450.0 0.00078283
3470.0 0.00085092
3490.0 0.0009008
3510.0 0.0010498
3530.0 0.0013057
3550.0 0.001282
3570.0 0.0010992
3590.0 0.0014159
3610.0 0.0010059
3630.0 0.001503
3650.0 0.0017239
3670.0 0.0021282
3690.0 0.0019928
3710.0 0.0014134
3730.0 0.0017391
3750.0 0.0017708
3770.0 0.0019145
3790.0 0.0019152
3810.0 0.0020534
3830.0 0.0031538
3850.0 0.0039275
3870.0 0.0047934
3890.0 0.0047493
3910.0 0.0043275
3930.0 0.004359
3950.0 0.0046504
3970.0 0.0048309
3990.0 0.0029904
4010.0 0.0016843
4030.0 0.0030174
4050.0 0.0040866
4070.0 0.0042054
4090.0 0.0027623
4110.0 0.001835
4130.0 0.0030913
4150.0 0.003272
4170.0 0.002916
4190.0 0.0025641
4210.0 0.0036938
4230.0 0.0029089
4250.0 0.003017
4270.0 0.0029953
4290.0 0.002779
4310.0 0.003531
4330.0 0.0039034
4350.0 0.0034789
4370.0 0.0030086
4390.0 0.0035011
4410.0 0.0035024
4430.0 0.0025758
4450.0 0.0022242
4470.0 0.0027457
4490.0 0.0022305
4510.0 0.003182
4530.0 0.0032856
4550.0 0.0036924
4570.0 0.0050277
4590.0 0.0052015
4610.0 0.0047508
4630.0 0.0071184
4650.0 0.0089099
4670.0 0.0086735
4690.0 0.0068445
4710.0 0.0070717
4730.0 0.0073429
4750.0 0.0058274
4770.0 0.0045369
4790.0 0.0031937
4810.0 0.0040551
4830.0 0.0047636
4850.0 0.0043436
4870.0 0.0024391
4890.0 0.0050547
4910.0 0.0061716
4930.0 0.006728
4950.0 0.0072193
4970.0 0.0057806
4990.0 0.0066549
5010.0 0.0074169
5030.0 0.0075832
5050.0 0.006761
5070.0 0.0048015
5090.0 0.0039347
5110.0 0.0038679
5130.0 0.0037987
5150.0 0.0038151
5170.0 0.0034887
5190.0 0.0040013
5210.0 0.0040843
5230.0 0.0045145
5250.0 0.005175
5270.0 0.0044529
5290.0 0.0047962
5310.0 0.0067105
5330.0 0.0075916
5350.0 0.0065643
5370.0 0.0061092
5390.0 0.0069303
5410.0 0.007821
5430.0 0.0081015
5450.0 0.0084802
5470.0 0.0087373
5490.0 0.0093918
5510.0 0.01123
5530.0 0.011644
5550.0 0.012057
5570.0 0.012406
5590.0 0.012084
5610.0 0.011318
5630.0 0.011131
5650.0 0.011513
5670.0 0.011178
5690.0 0.0097052
5710.0 0.0095889
5730.0 0.0093616
5750.0 0.009309
5770.0 0.0080681
5790.0 0.0079246
5810.0 0.0081954
5830.0 0.0088895
5850.0 0.0083969
5870.0 0.0083458
5890.0 0.0093652
5910.0 0.0086749
5930.0 0.0073689
5950.0 0.0068638
5970.0 0.0073713
5990.0 0.006607
6010.0 0.0058881
6030.0 0.0055766
6050.0 0.0050832
6070.0 0.0041622
6090.0 0.0041145
6110.0 0.0050521
6130.0 0.0054931
6150.0 0.0056343
6170.0 0.0055906
6190.0 0.0055236
6210.0 0.0059536
6230.0 0.0071542
6250.0 0.0066194
6270.0 0.0058941
6290.0 0.0052761
6310.0 0.0046487
6330.0 0.0042466
6350.0 0.0038794
6370.0 0.0039958
6390.0 0.0045847
6410.0 0.0056389
6430.0 0.0067591
6450.0 0.0071163
6470.0 0.0074083
6490.0 0.008813
6510.0 0.0099598
6530.0 0.0095237
6550.0 0.0090548
6570.0 0.0091727
6590.0 0.0090972
6610.0 0.0094337
6630.0 0.0088211
6650.0 0.0077417
6670.0 0.0072514
6690.0 0.007169
6710.0 0.0080904
6730.0 0.0071544
6750.0 0.0059405
6770.0 0.0055007
6790.0 0.0058545
6810.0 0.0066878
6830.0 0.0067008
6850.0 0.0060463
6870.0 0.0061921
6890.0 0.0061449
6910.0 0.0057768
6930.0 0.0062347
6950.0 0.0058874
6970.0 0.0055765
6990.0 0.0056076
7010.0 0.0057631
7030.0 0.0056355
7050.0 0.0053203
7070.0 0.0055165
7090.0 0.0050576
7110.0 0.0043054
7130.0 0.0038671
7150.0 0.0039127
7170.0 0.0047057
7190.0 0.0049039
7210.0 0.0046773
7230.0 0.0049835
7250.0 0.0050095
7270.0 0.0049856
7290.0 0.0052863
7310.0 0.0056292
7330.0 0.005431
7350.0 0.0050369
7370.0 0.004656
7390.0 0.00462
7410.0 0.0052343
7430.0 0.0059577
7450.0 0.006402
7470.0 0.0066599
7490.0 0.0075524
7510.0 0.0074923
7530.0 0.0065678
7550.0 0.0060453
7570.0 0.0051772
7590.0 0.0048133
7610.0 0.0046651
7630.0 0.0043881
7650.0 0.0047212
7670.0 0.005284
7690.0 0.0057751
7710.0 0.0066084
7730.0 0.0069073
7750.0 0.0071754
7770.0 0.0075679
7790.0 0.0081237
7810.0 0.008124
7830.0 0.0073294
7850.0 0.0073482
7870.0 0.0071187
7890.0 0.0071517
7910.0 0.0067158
7930.0 0.0065916
7950.0 0.0055116
7970.0 0.0054713
7990.0 0.005349
8010.0 0.0059652
8030.0 0.0059568
8050.0 0.0063334
8070.0 0.0061051
8090.0 0.0061362
8110.0 0.0060498
8130.0 0.0059403
8150.0 0.0055565
8170.0 0.0054742
8190.0 0.005486
8210.0 0.0055465
8230.0 0.0048865
8250.0 0.0044854
8270.0 0.0039662
8290.0 0.0033715
8310.0 0.0029435
8330.0 0.0023042
8350.0 0.0018457
8370.0 0.0017601
8390.0 0.0017208
8410.0 0.0018264
8430.0 0.0023569
8450.0 0.0025804
8470.0 0.0027873
8490.0 0.0032515
8510.0 0.0035402
8530.0 0.0040094
8550.0 0.0047473
8570.0 0.0052315
8590.0 0.0055152
8610.0 0.0061706
8630.0 0.0070643
8650.0 0.0072786
8670.0 0.0074448
8690.0 0.0076925
8710.0 0.0075384
8730.0 0.0072786
8750.0 0.0067011
8770.0 0.0066948
8790.0 0.006588
8810.0 0.0060663
8830.0 0.0060381
8850.0 0.0054832
8870.0 0.0052081
8890.0 0.0046767
8910.0 0.0052385
8930.0 0.0047582
8950.0 0.0047945
8970.0 0.0049107
8990.0 0.0047876
9010.0 0.0049089
9030.0 0.00466
9050.0 0.004639
9070.0 0.0046423
9090.0 0.0046449
9110.0 0.0046508
9130.0 0.0046522
9150.0 0.0046513
9170.0 0.0046384
9190.0 0.004608
9210.0 0.0046804
9230.0 0.0046623
9250.0 0.0046528
9270.0 0.0046452
9290.0 0.0046389
9310.0 0.0046332
9330.0 0.0046278
9350.0 0.0046225
9370.0 0.0046171
9390.0 0.0046112
9410.0 0.0046053
9430.0 0.0045992
9450.0 0.0045925
9470.0 0.0045856
9490.0 0.0045787
9510.0 0.0045714
9530.0 0.0045639
9550.0 0.0045565
9570.0 0.004549
9590.0 0.0045412
9610.0 0.0045333
9630.0 0.0045256
9650.0 0.0045179
9670.0 0.0045098
9690.0 0.004502
9710.0 0.0044944
9730.0 0.0044865
9750.0 0.0044787
9770.0 0.0044716
9790.0 0.0044641
9810.0 0.0044566
9830.0 0.0044496
9850.0 0.0044427
9870.0 0.0044357
9890.0 0.004429
9910.0 0.0044227
9930.0 0.0044164
9950.0 0.0044042
9970.0 0.0044004
9990.0 0.0043965
10010.0 0.0043922
10030.0 0.0043877
10050.0 0.0043817
10070.0 0.0043666
10090.0 0.004366
10110.0 0.0043652
10130.0 0.0043637
10150.0 0.0043618
10170.0 0.0043594
10190.0 0.0043566
10210.0 0.0043542
10230.0 0.004352
10250.0 0.0043497
10270.0 0.0043477
10290.0 0.0043462
10310.0 0.0043447
10330.0 0.0043432
10350.0 0.0043424
10370.0 0.0043418
10390.0 0.0043411
10410.0 0.0043408
10430.0 0.004341
10450.0 0.0043412
10470.0 0.0043415
10490.0 0.0043422
10510.0 0.0043431
10530.0 0.0043439
10550.0 0.0043451
10570.0 0.0043467
10590.0 0.0043483
10610.0 0.0043499
10630.0 0.004352
10650.0 0.0043542
10670.0 0.0043563
10690.0 0.0043587
10710.0 0.0043614
10730.0 0.0043641
10750.0 0.0043668
10770.0 0.0043699
10790.0 0.004373
10810.0 0.0043761
10830.0 0.0043792
10850.0 0.0043821
10870.0 0.004384
10890.0 0.004384
10910.0 0.0043812
10930.0 0.0043729
10950.0 0.0043555
10970.0 0.004327
10990.0 0.0042865
11010.0 0.004377
11030.0 0.0042968
11050.0 0.004203
11070.0 0.0040947
11090.0 0.0039693
11110.0 0.0038444
11130.0 0.0037197
11150.0 0.0035922
11170.0 0.0034686
11190.0 0.0033566
11210.0 0.003249
11230.0 0.0031473
11250.0 0.003058
11270.0 0.0029789
11290.0 0.0029057
11310.0 0.0028411
11330.0 0.0027872
11350.0 0.0027376
11370.0 0.0026917
11390.0 0.0026502
11410.0 0.0026109
11430.0 0.0025695
11450.0 0.0025279
11470.0 0.0024858
11490.0 0.0024403
11510.0 0.0023904
11530.0 0.0023399
11550.0 0.0022873
11570.0 0.0022305
11590.0 0.0021724
11610.0 0.0021153
11630.0 0.0020555
11650.0 0.0019944
11670.0 0.0019367
11690.0 0.0018803
11710.0 0.0018234
11730.0 0.0017692
11750.0 0.001719
11770.0 0.0016691
11790.0 0.0016207
11810.0 0.001576
11830.0 0.0015334
11850.0 0.0014904
11870.0 0.0014505
11890.0 0.0014133
11910.0 0.001376
11930.0 0.0013394
11950.0 0.001305
11970.0 0.001271
11990.0 0.0012362
12010.0 0.0012029
12030.0 0.001171
12050.0 0.0011389
12070.0 0.0011071
12090.0 0.0010786
12110.0 0.0010512
12130.0 0.0010251
12150.0 0.001002
12170.0 0.0009824
12190.0 0.00096498
12210.0 0.00095176
12230.0 0.00094322
12250.0 0.00093902
12270.0 0.00093968
12290.0 0.00094539
12310.0 0.00095559
12330.0 0.00097093
12350.0 0.00099077
12370.0 0.0010137
12390.0 0.00104
12410.0 0.0010703
12430.0 0.0011006
12450.0 0.0011312
12470.0 0.0011625
12490.0 0.0011928
12510.0 0.0012203
12530.0 0.0012463
12550.0 0.0012702
12570.0 0.0012904
12590.0 0.0013074
12610.0 0.0013218
12630.0 0.0013329
12650.0 0.0013405
12670.0 0.0013456
12690.0 0.0013481
12710.0 0.0013482
12730.0 0.0013463
12750.0 0.0013422
12770.0 0.0013364
12790.0 0.0013293
12810.0 0.0013206
12830.0 0.0013102
12850.0 0.001299
12870.0 0.0012865
12890.0 0.001272
12910.0 0.0012562
12930.0 0.0012395
12950.0 0.0012205
12970.0 0.0011992
12990.0 0.0011774
13010.0 0.0011542
13030.0 0.0011287
13050.0 0.0011026
13070.0 0.0010768
13090.0 0.0010496
13110.0 0.0010222
13130.0 0.00099631
13150.0 0.00097145
13170.0 0.00094686
13190.0 0.00092521
13210.0 0.00090655
13230.0 0.00088987
13250.0 0.000876
13270.0 0.00086559
13290.0 0.00085781
13310.0 0.00085254
13330.0 0.00084999
13350.0 0.00084951
13370.0 0.00085059
13390.0 0.00085283
13410.0 0.0008555
13430.0 0.00085818
13450.0 0.0008604
13470.0 0.00086169
13490.0 0.00086182
13510.0 0.00086047
13530.0 0.00085758
13550.0 0.00085344
13570.0 0.00084799
13590.0 0.0008413
13610.0 0.00083408
13630.0 0.00082665
13650.0 0.00081873
13670.0 0.000811
13690.0 0.00080387
13710.0 0.00079711
13730.0 0.00079064
13750.0 0.00078514
13770.0 0.00078019
13790.0 0.0007755
13810.0 0.00077113
13830.0 0.00076703
13850.0 0.00076276
13870.0 0.00075817
13890.0 0.00075338
13910.0 0.0007482
13930.0 0.00074233
13950.0 0.00073601
13970.0 0.00072961
13990.0 0.00072278
14010.0 0.00071572
14030.0 0.00070893
14050.0 0.00070241
14070.0 0.00069597
14090.0 0.00069023
14110.0 0.00068525
14130.0 0.00068085
14150.0 0.00067715
14170.0 0.00067432
14190.0 0.00067217
14210.0 0.0006707
14230.0 0.00066996
14250.0 0.00066985
14270.0 0.00067047
14290.0 0.00067187
14310.0 0.00067382
14330.0 0.00067646
14350.0 0.00067989
14370.0 0.00068387
14390.0 0.00068817
14410.0 0.00069317
14430.0 0.00069858
14450.0 0.000704
14470.0 0.00070959
14490.0 0.00071564
14510.0 0.00072146
14530.0 0.00072713
14550.0 0.00073318
14570.0 0.00073949
14590.0 0.00074582
14610.0 0.00075281
14630.0 0.00076088
14650.0 0.00076956
14670.0 0.00077909
14690.0 0.00079023
14710.0 0.00080295
14730.0 0.00081612
14750.0 0.0008309
14770.0 0.0008474
14790.0 0.0008645
14810.0 0.00088193
14830.0 0.00090124
14850.0 0.00092045
14870.0 0.00093871
14890.0 0.00095673
14910.0 0.00097416
14930.0 0.00098927
14950.0 0.001002
14970.0 0.0010128
14990.0 0.0010207
15010.0 0.0010254
15030.0 0.0010277
15050.0 0.0010277
15070.0 0.0010258
15090.0 0.0010228
15110.0 0.0010188
15130.0 0.0010144
15150.0 0.0010098
15170.0 0.001005
15190.0 0.0010001
15210.0 0.00099523
15230.0 0.00099042
15250.0 0.00098551
15270.0 0.00098064
15290.0 0.0009759
15310.0 0.00097109
15330.0 0.00096626
15350.0 0.00096153
15370.0 0.00095682
15390.0 0.000952
15410.0 0.00094727
15430.0 0.00094261
15450.0 0.00093791
15470.0 0.00093318
15490.0 0.00092858
15510.0 0.00092399
15530.0 0.00091934
15550.0 0.00091475
15570.0 0.00091024
15590.0 0.00090565
15610.0 0.00090105
15630.0 0.00089659
15650.0 0.00089213
15670.0 0.00088762
15690.0 0.00088318
15710.0 0.00087883
15730.0 0.0008744
15750.0 0.00086998
15770.0 0.00086567
15790.0 0.00086136
15810.0 0.00085696
15830.0 0.00085268
15850.0 0.00084847
15870.0 0.0008442
15890.0 0.00083995
15910.0 0.00083582
15930.0 0.00083166
15950.0 0.00082743
15970.0 0.00082332
15990.0 0.00081925
16010.0 0.00081513
16030.0 0.00081101
16050.0 0.00080704
16070.0 0.00080304
16090.0 0.000799
16110.0 0.00079505
16130.0 0.00079117
16150.0 0.00078716
16170.0 0.00078322
16190.0 0.00077938
16210.0 0.00077552
16230.0 0.00077163
16250.0 0.00076783
16270.0 0.00076409
16290.0 0.00076027
16310.0 0.00075649
16330.0 0.00075281
16350.0 0.00074909
16370.0 0.00074529
16390.0 0.00074166
16410.0 0.00073804
16430.0 0.00073437
16450.0 0.00073074
16470.0 0.00072721
16490.0 0.00072361
16510.0 0.00072
16530.0 0.00071648
16550.0 0.00071299
16570.0 0.00070942
16590.0 0.0007059
16610.0 0.00070251
16630.0 0.00069904
16650.0 0.00069557
16670.0 0.0006922
16690.0 0.00068884
16710.0 0.00068537
16730.0 0.00068199
16750.0 0.00067868
16770.0 0.00067533
16790.0 0.00067195
16810.0 0.0006687
16830.0 0.00066544
16850.0 0.00066212
16870.0 0.00065886
16890.0 0.00065567
16910.0 0.0006524
16930.0 0.00064911
16950.0 0.00064596
16970.0 0.00064279
16990.0 0.00063956
17010.0 0.00063641
17030.0 0.00063333
17050.0 0.00063015
17070.0 0.00062699
17090.0 0.00062392
17110.0 0.00062084
17130.0 0.00061767
17150.0 0.0006146
17170.0 0.0006116
17190.0 0.00060852
17210.0 0.00060545
17230.0 0.00060249
17250.0 0.00059948
17270.0 0.0005964
17290.0 0.00059342
17310.0 0.00059047
17330.0 0.00058746
17350.0 0.00058445
17370.0 0.00058157
17390.0 0.00057863
17410.0 0.00057566
17430.0 0.00057276
17450.0 0.0005699
17470.0 0.00056692
17490.0 0.000564
17510.0 0.00056116
17530.0 0.00055829
17550.0 0.00055537
17570.0 0.00055255
17590.0 0.00054975
17610.0 0.00054687
17630.0 0.00054402
17650.0 0.00054126
17670.0 0.00053844
17690.0 0.00053554
17710.0 0.00053279
17730.0 0.00053004
17750.0 0.00052723
17770.0 0.00052445
17790.0 0.00052177
17810.0 0.00051898
17830.0 0.00051619
17850.0 0.00051349
17870.0 0.00051079
17890.0 0.00050801
17910.0 0.00050527
17930.0 0.00050264
17950.0 0.00049993
17970.0 0.00049721
17990.0 0.00049457
18010.0 0.00049194
18030.0 0.00048919
18050.0 0.00048653
18070.0 0.00048393
18090.0 0.00048126
18110.0 0.00047858
18130.0 0.00047601
18150.0 0.00047342
18170.0 0.00047076
18190.0 0.00046817
18210.0 0.00046563
18230.0 0.00046299
18250.0 0.00046035
18270.0 0.00045783
18290.0 0.00045528
18310.0 0.00045268
18330.0 0.00045014
18350.0 0.00044766
18370.0 0.00044508
18390.0 0.00044253
18410.0 0.00044005
18430.0 0.00043754
18450.0 0.00043496
18470.0 0.00043248
18490.0 0.00043004
18510.0 0.00042753
18530.0 0.00042503
18550.0 0.00042262
18570.0 0.00042016
18590.0 0.00041764
18610.0 0.00041521
18630.0 0.00041281
18650.0 0.00041034
18670.0 0.00040787
18690.0 0.00040552
18710.0 0.00040312
18730.0 0.00040067
18750.0 0.00039831
18770.0 0.00039597
18790.0 0.00039351
18810.0 0.00039112
18830.0 0.0003888
18850.0 0.00038644
18870.0 0.00038404
18890.0 0.00038173
18910.0 0.00037944
18930.0 0.00037707
18950.0 0.00037474
18970.0 0.00037247
18990.0 0.00037015
19010.0 0.00036776
19030.0 0.00036552
19050.0 0.00036327
19070.0 0.00036095
19090.0 0.00035868
19110.0 0.00035649
19130.0 0.0003542
19150.0 0.00035191
19170.0 0.0003497
19190.0 0.00034749
19210.0 0.0003452
19230.0 0.00034297
19250.0 0.00034082
19270.0 0.0003386
19290.0 0.00033637
19310.0 0.00033423
19330.0 0.00033207
19350.0 0.00032981
19370.0 0.00032765
19390.0 0.00032553
19410.0 0.00032335
19430.0 0.00032116
19450.0 0.00031907
19470.0 0.00031696
19490.0 0.00031478
19510.0 0.00031267
19530.0 0.00031061
19550.0 0.00030846
19570.0 0.0003063
19590.0 0.00030426
19610.0 0.00030219
19630.0 0.00030006
19650.0 0.00029801
19670.0 0.000296
19690.0 0.0002939
19710.0 0.00029182
19730.0 0.00028981
19750.0 0.00028778
19770.0 0.00028567
19790.0 0.00028366
19810.0 0.00028168
19830.0 0.00027963
19850.0 0.00027758
19870.0 0.00027558
19890.0 0.00027344
19910.0 0.00027111
19930.0 0.00026866
19950.0 0.00026591
19970.0 0.00026261
19990.0 0.00025876
20010.0 0.00025452
20030.0 0.00024957
20050.0 0.00024402
20070.0 0.00023827
20090.0 0.0002324
20110.0 0.00022612
20130.0 0.00022015
20150.0 0.00021462
20170.0 0.00020924
20190.0 0.00020415
20210.0 0.00019967
20230.0 0.00019558
20250.0 0.00019177
20270.0 0.00018848
20290.0 0.0001857
20310.0 0.00018328
20330.0 0.00018126
20350.0 0.0001798
20370.0 0.00017874
20390.0 0.0001781
20410.0 0.00017792
20430.0 0.00017815
20450.0 0.00017885
20470.0 0.00018001
20490.0 0.00018156
20510.0 0.00018354
20530.0 0.00018601
20550.0 0.00018883
20570.0 0.00019187
20590.0 0.00019533
20610.0 0.00019907
20630.0 0.00020286
20650.0 0.00020681
20670.0 0.00021101
20690.0 0.000215
20710.0 0.00021884
20730.0 0.00022265
20750.0 0.00022627
20770.0 0.00022948
20790.0 0.00023251
20810.0 0.00023535
20830.0 0.00023784
20850.0 0.00024007
20870.0 0.00024218
20890.0 0.00024412
20910.0 0.00024583
20930.0 0.00024749
20950.0 0.00024911
20970.0 0.00025062
20990.0 0.00025206
21010.0 0.0002535
21030.0 0.00025484
21050.0 0.00025601
21070.0 0.00025707
21090.0 0.00025797
21110.0 0.00025861
21130.0 0.00025901
21150.0 0.00025919
21170.0 0.00025909
21190.0 0.00025876
21210.0 0.00025818
21230.0 0.00025734
21250.0 0.00025634
21270.0 0.00025517
21290.0 0.00025382
21310.0 0.00025237
21330.0 0.0002509
21350.0 0.00024934
21370.0 0.00024773
21390.0 0.00024619
21410.0 0.00024468
21430.0 0.00024314
21450.0 0.00024173
21470.0 0.00024046
21490.0 0.00023925
21510.0 0.00023815
21530.0 0.00023723
21550.0 0.00023645
21570.0 0.00023579
21590.0 0.00023532
21610.0 0.00023503
21630.0 0.00023491
21650.0 0.00023499
21670.0 0.00023528
21690.0 0.00023576
21710.0 0.00023648
21730.0 0.00023741
21750.0 0.00023853
21770.0 0.00023994
21790.0 0.00024159
21810.0 0.0002434
21830.0 0.00024545
21850.0 0.0002478
21870.0 0.00025029
21890.0 0.00025289
21910.0 0.00025576
21930.0 0.00025879
21950.0 0.00026184
21970.0 0.00026504
21990.0 0.00026847
22010.0 0.00027178
22030.0 0.00027505
22050.0 0.0002784
22070.0 0.00028168
22090.0 0.0002847
22110.0 0.00028765
22130.0 0.00029048
22150.0 0.00029299
22170.0 0.0002952
22190.0 0.00029718
22210.0 0.00029878
22230.0 0.00029993
22250.0 0.00030069
22270.0 0.00030101
22290.0 0.00030086
22310.0 0.00030025
22330.0 0.00029911
22350.0 0.00029747
22370.0 0.0002954
22390.0 0.00029282
22410.0 0.00028967
22430.0 0.00028623
22450.0 0.00028243
22470.0 0.00027812
22490.0 0.00027352
22510.0 0.00026881
22530.0 0.00026367
22550.0 0.00025824
22570.0 0.0002529
22590.0 0.00024747
22610.0 0.00024181
22630.0 0.00023622
22650.0 0.0002309
22670.0 0.00022546
22690.0 0.00022008
22710.0 0.00021502
22730.0 0.00021013
22750.0 0.00020517
22770.0 0.00020062
22790.0 0.00019644
22810.0 0.00019237
22830.0 0.00018854
22850.0 0.00018516
22870.0 0.00018202
22890.0 0.00017908
22910.0 0.00017656
22930.0 0.00017441
22950.0 0.00017255
22970.0 0.00017102
22990.0 0.00016996
23010.0 0.00016923
23030.0 0.00016886
23050.0 0.00016889
23070.0 0.00016925
23090.0 0.00017
23110.0 0.0001711
23130.0 0.00017246
23150.0 0.00017412
23170.0 0.00017608
