#lamb flux
1010.0 1.0325e-05
1030.0 1.0367e-05
1050.0 1.0414e-05
1070.0 1.0658e-05
1090.0 1.133e-05
1110.0 1.1851e-05
1130.0 1.2224e-05
1150.0 1.2522e-05
1170.0 1.274e-05
1190.0 1.2804e-05
1210.0 1.2818e-05
1230.0 1.2814e-05
1250.0 1.2759e-05
1270.0 1.2662e-05
1290.0 1.2598e-05
1310.0 1.253e-05
1330.0 1.2441e-05
1350.0 1.238e-05
1370.0 1.2366e-05
1390.0 1.2372e-05
1410.0 1.2411e-05
1430.0 1.2532e-05
1450.0 1.2721e-05
1470.0 1.2973e-05
1490.0 1.3324e-05
1510.0 1.3809e-05
1530.0 1.4387e-05
1550.0 1.5096e-05
1570.0 1.5977e-05
1590.0 1.7032e-05
1610.0 1.8262e-05
1630.0 1.9736e-05
1650.0 2.1474e-05
1670.0 2.3469e-05
1690.0 2.5762e-05
1710.0 2.8422e-05
1730.0 3.1466e-05
1750.0 3.4871e-05
1770.0 3.8741e-05
1790.0 4.3111e-05
1810.0 4.7957e-05
1830.0 5.3312e-05
1850.0 5.9292e-05
1870.0 6.5807e-05
1890.0 7.2834e-05
1910.0 8.0437e-05
1930.0 8.8612e-05
1950.0 9.719e-05
1970.0 0.00010617
1990.0 0.00011558
2010.0 0.00012524
2030.0 0.00013499
2050.0 0.00014488
2070.0 0.00015482
2090.0 0.00016445
2110.0 0.0001738
2130.0 0.00018287
2150.0 0.00019141
2170.0 0.00019925
2190.0 0.00020657
2210.0 0.00021321
2230.0 0.00021898
2250.0 0.00022396
2270.0 0.00022832
2290.0 0.00023181
2310.0 0.00023442
2330.0 0.00023644
2350.0 0.00023784
2370.0 0.00023852
2390.0 0.00023875
2410.0 0.00023873
2430.0 0.00023834
2450.0 0.00023771
2470.0 0.00023717
2490.0 0.00023684
2510.0 0.00023662
2530.0 0.00023719
2550.0 0.00023941
2570.0 0.00024392
2590.0 0.00025166
2610.0 0.00026529
2630.0 0.00028526
2650.0 0.00031047
2670.0 0.0003417
2690.0 0.00037859
2710.0 0.00041692
2730.0 0.0004551
2750.0 0.0004952
2770.0 0.00053465
2790.0 0.00057241
2810.0 0.00061108
2830.0 0.00065284
2850.0 0.00069354
2870.0 0.0007354
2890.0 0.00078046
2910.0 0.00082721
2930.0 0.00087383
2950.0 0.00092393
2970.0 0.00097707
2990.0 0.0010308
3010.0 0.0010862
3030.0 0.0011455
3050.0 0.0012068
3070.0 0.0012664
3090.0 0.0013273
3110.0 0.0013864
3130.0 0.0014393
3150.0 0.0014846
3170.0 0.0015207
3190.0 0.0015459
3210.0 0.001564
3230.0 0.001579
3250.0 0.0015967
3270.0 0.0016236
3290.0 0.0016634
3310.0 0.0017193
3330.0 0.0017898
3350.0 0.0018702
3370.0 0.0019592
3390.0 0.0020507
3410.0 0.0021437
3430.0 0.002332
3450.0 0.0024713
3470.0 0.0025943
3490.0 0.002634
3510.0 0.0025995
3530.0 0.0029455
3550.0 0.003504
3570.0 0.0038524
3590.0 0.0041167
3610.0 0.0041514
3630.0 0.0039379
3650.0 0.0042322
3670.0 0.0050625
3690.0 0.0056886
3710.0 0.0059397
3730.0 0.0060803
3750.0 0.0063966
3770.0 0.0064113
3790.0 0.0061448
3810.0 0.0057835
3830.0 0.0053946
3850.0 0.0053795
3870.0 0.0057081
3890.0 0.0060304
3910.0 0.0062799
3930.0 0.0063554
3950.0 0.0067819
3970.0 0.0072453
3990.0 0.00698
4010.0 0.006235
4030.0 0.0055374
4050.0 0.0053305
4070.0 0.0055493
4090.0 0.0055942
4110.0 0.005437
4130.0 0.0053684
4150.0 0.0055108
4170.0 0.0060831
4190.0 0.0065875
4210.0 0.0063811
4230.0 0.0059563
4250.0 0.0057274
4270.0 0.0055973
4290.0 0.0056966
4310.0 0.0058673
4330.0 0.0055876
4350.0 0.0049153
4370.0 0.0043511
4390.0 0.003964
4410.0 0.0036593
4430.0 0.0036606
4450.0 0.0039819
4470.0 0.0043056
4490.0 0.0046858
4510.0 0.0053009
4530.0 0.0064848
4550.0 0.0078271
4570.0 0.0086328
4590.0 0.0092317
4610.0 0.0099264
4630.0 0.010262
4650.0 0.0095597
4670.0 0.0080201
4690.0 0.0068169
4710.0 0.0064036
4730.0 0.00619
4750.0 0.0055469
4770.0 0.0050331
4790.0 0.005227
4810.0 0.0056804
4830.0 0.0056559
4850.0 0.005214
4870.0 0.0051071
4890.0 0.0053281
4910.0 0.0055741
4930.0 0.0055677
4950.0 0.0054135
4970.0 0.0051565
4990.0 0.0047396
5010.0 0.004353
5030.0 0.0041336
5050.0 0.004032
5070.0 0.0039636
5090.0 0.0039001
5110.0 0.0038943
5130.0 0.0039543
5150.0 0.0041764
5170.0 0.004612
5190.0 0.005141
5210.0 0.0056953
5230.0 0.0060329
5250.0 0.0062079
5270.0 0.0065253
5290.0 0.006834
5310.0 0.006907
5330.0 0.0066481
5350.0 0.0063474
5370.0 0.0063467
5390.0 0.0066877
5410.0 0.0070171
5430.0 0.0071302
5450.0 0.0070874
5470.0 0.0068796
5490.0 0.0066246
5510.0 0.0064947
5530.0 0.0065212
5550.0 0.006617
5570.0 0.0066801
5590.0 0.0064806
5610.0 0.0061094
5630.0 0.0057454
5650.0 0.0054593
5670.0 0.0052838
5690.0 0.0050688
5710.0 0.0049042
5730.0 0.0049749
5750.0 0.0049629
5770.0 0.004858
5790.0 0.0048996
5810.0 0.0050114
5830.0 0.005116
5850.0 0.0051526
5870.0 0.0050447
5890.0 0.0048276
5910.0 0.0045797
5930.0 0.0042282
5950.0 0.0039764
5970.0 0.0039696
5990.0 0.0040933
6010.0 0.0041382
6030.0 0.003992
6050.0 0.0039321
6070.0 0.0040837
6090.0 0.0042861
6110.0 0.0043614
6130.0 0.0042123
6150.0 0.0039668
6170.0 0.0038054
6190.0 0.0036456
6210.0 0.0034749
6230.0 0.003345
6250.0 0.0033052
6270.0 0.0033907
6290.0 0.0035442
6310.0 0.0037415
6330.0 0.003958
6350.0 0.0041377
6370.0 0.0042183
6390.0 0.0042267
6410.0 0.0042709
6430.0 0.0043233
6450.0 0.0043378
6470.0 0.0043935
6490.0 0.0044608
6510.0 0.0044793
6530.0 0.0044313
6550.0 0.004306
6570.0 0.0041478
6590.0 0.0040268
6610.0 0.0039374
6630.0 0.0038589
6650.0 0.0037262
6670.0 0.0035687
6690.0 0.003451
6710.0 0.003378
6730.0 0.0033555
6750.0 0.0033143
6770.0 0.0032478
6790.0 0.0031974
6810.0 0.0031572
6830.0 0.0031489
6850.0 0.0031513
6870.0 0.0031269
6890.0 0.0031073
6910.0 0.0030422
6930.0 0.0029712
6950.0 0.0029547
6970.0 0.0029049
6990.0 0.0028143
7010.0 0.0027712
7030.0 0.0027364
7050.0 0.0026748
7070.0 0.0026018
7090.0 0.0025499
7110.0 0.0025767
7130.0 0.002677
7150.0 0.0027915
7170.0 0.0028654
7190.0 0.0028439
7210.0 0.0027888
7230.0 0.0027526
7250.0 0.0027161
7270.0 0.0026926
7290.0 0.0026579
7310.0 0.0026408
7330.0 0.0026866
7350.0 0.0027392
7370.0 0.0027672
7390.0 0.0027401
7410.0 0.0026731
7430.0 0.0026406
7450.0 0.0026109
7470.0 0.0024839
7490.0 0.0023913
7510.0 0.0022909
7530.0 0.0022171
7550.0 0.0022074
7570.0 0.0022332
7590.0 0.0022198
7610.0 0.0021976
7630.0 0.002188
7650.0 0.0021788
7670.0 0.00222
7690.0 0.0023005
7710.0 0.0023958
7730.0 0.0024683
7750.0 0.002539
7770.0 0.002574
7790.0 0.0025672
7810.0 0.002528
7830.0 0.0025545
7850.0 0.0025505
7870.0 0.0024675
7890.0 0.0023784
7910.0 0.0023025
7930.0 0.0022256
7950.0 0.0021717
7970.0 0.0021632
7990.0 0.0021898
8010.0 0.0021655
8030.0 0.0021401
8050.0 0.0021031
8070.0 0.0020625
8090.0 0.0020202
8110.0 0.0020224
8130.0 0.0020377
8150.0 0.0020339
8170.0 0.0020187
8190.0 0.0019764
8210.0 0.0018761
8230.0 0.001749
8250.0 0.0016707
8270.0 0.0016208
8290.0 0.0015893
8310.0 0.0015936
8330.0 0.0016187
8350.0 0.0015835
8370.0 0.0015464
8390.0 0.0015741
8410.0 0.0016456
8430.0 0.0017504
8450.0 0.001852
8470.0 0.001893
8490.0 0.0019249
8510.0 0.0019333
8530.0 0.0019436
8550.0 0.001966
8570.0 0.0019758
8590.0 0.0019851
8610.0 0.0020395
8630.0 0.0020612
8650.0 0.0020176
8670.0 0.0020161
8690.0 0.0020313
8710.0 0.0020276
8730.0 0.00201
8750.0 0.001953
8770.0 0.0019274
8790.0 0.0019127
8810.0 0.0018893
8830.0 0.0017826
8850.0 0.0016401
8870.0 0.0015357
8890.0 0.0014766
8910.0 0.0013893
8930.0 0.0012932
8950.0 0.0012443
8970.0 0.0012376
8990.0 0.0012439
9010.0 0.0012377
9030.0 0.001229
9050.0 0.0012209
9070.0 0.0012134
9090.0 0.0012061
9110.0 0.0011988
9130.0 0.0011915
9150.0 0.0011842
9170.0 0.0011769
9190.0 0.0011697
9210.0 0.0011624
9230.0 0.0011553
9250.0 0.0011482
9270.0 0.0011411
9290.0 0.001134
9310.0 0.001127
9330.0 0.0011199
9350.0 0.001113
9370.0 0.001106
9390.0 0.0010991
9410.0 0.0010922
9430.0 0.0010853
9450.0 0.0010782
9470.0 0.0010712
9490.0 0.0010648
9510.0 0.0010581
9530.0 0.0010515
9550.0 0.0010449
9570.0 0.0010383
9590.0 0.0010317
9610.0 0.0010252
9630.0 0.0010187
9650.0 0.0010122
9670.0 0.0010058
9690.0 0.00099937
9710.0 0.00099299
9730.0 0.00098667
9750.0 0.00098036
9770.0 0.00097406
9790.0 0.00096782
9810.0 0.00096162
9830.0 0.00095532
9850.0 0.00094834
9870.0 0.00094241
9890.0 0.00093662
9910.0 0.00093073
9930.0 0.0009247
9950.0 0.00091891
9970.0 0.00091295
9990.0 0.00090688
10010.0 0.0009001
10030.0 0.00089387
10050.0 0.00088845
10070.0 0.00088294
10090.0 0.00087741
10110.0 0.00087143
10130.0 0.00086423
10150.0 0.00085876
10170.0 0.00085356
10190.0 0.000848
10210.0 0.00084255
10230.0 0.00083711
10250.0 0.00083138
10270.0 0.00082568
10290.0 0.00082018
10310.0 0.00081447
10330.0 0.00080861
10350.0 0.00080301
10370.0 0.00079745
10390.0 0.00079169
10410.0 0.00078598
10430.0 0.00078053
10450.0 0.00077487
10470.0 0.00076912
10490.0 0.00076357
10510.0 0.00075805
10530.0 0.00075219
10550.0 0.0007465
10570.0 0.00074102
10590.0 0.00073535
10610.0 0.00072959
10630.0 0.00072406
10650.0 0.0007185
10670.0 0.00071267
10690.0 0.00070698
10710.0 0.00070143
10730.0 0.00069569
10750.0 0.00068977
10770.0 0.00068422
10790.0 0.00067858
10810.0 0.00067274
10830.0 0.00066701
10850.0 0.00066147
10870.0 0.00065557
10890.0 0.0006497
10910.0 0.00064408
10930.0 0.00063846
10950.0 0.00063271
10970.0 0.0006272
10990.0 0.00062202
11010.0 0.00063436
11030.0 0.00062962
11050.0 0.00062509
11070.0 0.00062052
11090.0 0.00061567
11110.0 0.00061102
11130.0 0.00060639
11150.0 0.00060158
11170.0 0.00059677
11190.0 0.00059222
11210.0 0.00058765
11230.0 0.00058308
11250.0 0.00057881
11270.0 0.00057477
11290.0 0.00057076
11310.0 0.00056695
11330.0 0.00056352
11350.0 0.00056018
11370.0 0.00055693
11390.0 0.00055389
11410.0 0.00055099
11430.0 0.00054799
11450.0 0.00054505
11470.0 0.00054217
11490.0 0.00053916
11510.0 0.00053596
11530.0 0.00053273
11550.0 0.00052937
11570.0 0.00052568
11590.0 0.00052181
11610.0 0.00051785
11630.0 0.00051352
11650.0 0.00050885
11670.0 0.00050418
11690.0 0.00049932
11710.0 0.00049414
11730.0 0.00048888
11750.0 0.00048372
11770.0 0.00047831
11790.0 0.0004728
11810.0 0.00046744
11830.0 0.00046212
11850.0 0.00045657
11870.0 0.00045124
11890.0 0.00044614
11910.0 0.000441
11930.0 0.00043592
11950.0 0.00043114
11970.0 0.00042646
11990.0 0.00042176
12010.0 0.00041733
12030.0 0.00041315
12050.0 0.00040905
12070.0 0.00040506
12090.0 0.00040148
12110.0 0.00039805
12130.0 0.00039477
12150.0 0.00039179
12170.0 0.00038911
12190.0 0.00038658
12210.0 0.00038435
12230.0 0.00038248
12250.0 0.00038089
12270.0 0.00037958
12290.0 0.00037859
12310.0 0.00037789
12330.0 0.00037746
12350.0 0.00037728
12370.0 0.00037729
12390.0 0.00037748
12410.0 0.00037785
12430.0 0.00037826
12450.0 0.00037868
12470.0 0.00037913
12490.0 0.00037952
12510.0 0.00037976
12530.0 0.00037987
12550.0 0.00037979
12570.0 0.00037945
12590.0 0.00037885
12610.0 0.00037794
12630.0 0.00037669
12650.0 0.00037515
12670.0 0.00037326
12690.0 0.00037101
12710.0 0.00036851
12730.0 0.00036575
12750.0 0.00036261
12770.0 0.0003593
12790.0 0.00035589
12810.0 0.00035227
12830.0 0.00034846
12850.0 0.00034473
12870.0 0.00034098
12890.0 0.00033709
12910.0 0.00033326
12930.0 0.00032955
12950.0 0.00032576
12970.0 0.00032194
12990.0 0.00031833
13010.0 0.00031477
13030.0 0.00031116
13050.0 0.00030765
13070.0 0.00030433
13090.0 0.00030096
13110.0 0.00029765
13130.0 0.00029453
13150.0 0.0002915
13170.0 0.00028847
13190.0 0.00028566
13210.0 0.00028305
13230.0 0.0002805
13250.0 0.00027808
13270.0 0.00027586
13290.0 0.00027374
13310.0 0.00027166
13330.0 0.00026972
13350.0 0.00026788
13370.0 0.00026605
13390.0 0.00026423
13410.0 0.00026251
13430.0 0.00026076
13450.0 0.00025896
13470.0 0.00025717
13490.0 0.0002554
13510.0 0.0002535
13530.0 0.00025158
13550.0 0.00024968
13570.0 0.00024774
13590.0 0.00024571
13610.0 0.00024372
13630.0 0.00024176
13650.0 0.00023971
13670.0 0.00023766
13690.0 0.00023568
13710.0 0.00023366
13730.0 0.00023156
13750.0 0.00022956
13770.0 0.00022758
13790.0 0.00022554
13810.0 0.0002235
13830.0 0.00022154
13850.0 0.0002195
13870.0 0.00021742
13890.0 0.00021539
13910.0 0.00021336
13930.0 0.00021125
13950.0 0.00020913
13970.0 0.0002071
13990.0 0.00020501
14010.0 0.00020286
14030.0 0.00020078
14050.0 0.00019871
14070.0 0.00019651
14090.0 0.00019438
14110.0 0.00019231
14130.0 0.00019021
14150.0 0.00018809
14170.0 0.0001861
14190.0 0.00018416
14210.0 0.00018221
14230.0 0.00018037
14250.0 0.00017866
14270.0 0.00017696
14290.0 0.00017533
14310.0 0.00017388
14330.0 0.00017251
14350.0 0.00017119
14370.0 0.00016998
14390.0 0.00016888
14410.0 0.00016781
14430.0 0.0001668
14450.0 0.00016589
14470.0 0.00016501
14490.0 0.00016413
14510.0 0.00016332
14530.0 0.00016256
14550.0 0.0001618
14570.0 0.00016105
14590.0 0.00016036
14610.0 0.00015966
14630.0 0.00015895
14650.0 0.00015829
14670.0 0.00015766
14690.0 0.00015703
14710.0 0.00015644
14730.0 0.00015594
14750.0 0.00015549
14770.0 0.00015511
14790.0 0.00015484
14810.0 0.0001547
14830.0 0.00015468
14850.0 0.00015482
14870.0 0.00015513
14890.0 0.00015559
14910.0 0.0001562
14930.0 0.00015692
14950.0 0.00015768
14970.0 0.00015848
14990.0 0.00015923
15010.0 0.00015986
15030.0 0.0001604
15050.0 0.00016081
15070.0 0.0001611
15090.0 0.00016131
15110.0 0.00016146
15130.0 0.00016157
15150.0 0.00016168
15170.0 0.00016177
15190.0 0.00016186
15210.0 0.00016195
15230.0 0.00016206
15250.0 0.00016216
15270.0 0.00016226
15290.0 0.00016238
15310.0 0.0001625
15330.0 0.00016262
15350.0 0.00016276
15370.0 0.0001629
15390.0 0.00016303
15410.0 0.00016317
15430.0 0.00016333
15450.0 0.00016348
15470.0 0.00016363
15490.0 0.0001638
15510.0 0.00016397
15530.0 0.00016414
15550.0 0.00016432
15570.0 0.00016451
15590.0 0.00016469
15610.0 0.00016487
15630.0 0.00016507
15650.0 0.00016527
15670.0 0.00016547
15690.0 0.00016568
15710.0 0.00016589
15730.0 0.0001661
15750.0 0.00016632
15770.0 0.00016654
15790.0 0.00016677
15810.0 0.00016699
15830.0 0.00016722
15850.0 0.00016746
15870.0 0.0001677
15890.0 0.00016794
15910.0 0.00016819
15930.0 0.00016844
15950.0 0.00016868
15970.0 0.00016893
15990.0 0.00016919
16010.0 0.00016945
16030.0 0.0001697
16050.0 0.00016997
16070.0 0.00017024
16090.0 0.0001705
16110.0 0.00017077
16130.0 0.00017105
16150.0 0.00017132
16170.0 0.00017159
16190.0 0.00017187
16210.0 0.00017215
16230.0 0.00017243
16250.0 0.00017271
16270.0 0.000173
16290.0 0.00017328
16310.0 0.00017356
16330.0 0.00017385
16350.0 0.00017414
16370.0 0.00017442
16390.0 0.00017471
16410.0 0.000175
16430.0 0.00017529
16450.0 0.00017557
16470.0 0.00017587
16490.0 0.00017616
16510.0 0.00017644
16530.0 0.00017673
16550.0 0.00017702
16570.0 0.0001773
16590.0 0.00017759
16610.0 0.00017788
16630.0 0.00017817
16650.0 0.00017845
16670.0 0.00017874
16690.0 0.00017902
16710.0 0.0001793
16730.0 0.00017958
16750.0 0.00017986
16770.0 0.00018013
16790.0 0.0001804
16810.0 0.00018068
16830.0 0.00018095
16850.0 0.00018122
16870.0 0.00018148
16890.0 0.00018175
16910.0 0.00018201
16930.0 0.00018226
16950.0 0.00018252
16970.0 0.00018277
16990.0 0.00018302
17010.0 0.00018327
17030.0 0.00018351
17050.0 0.00018375
17070.0 0.00018398
17090.0 0.00018422
17110.0 0.00018445
17130.0 0.00018466
17150.0 0.00018488
17170.0 0.0001851
17190.0 0.00018531
17210.0 0.00018552
17230.0 0.00018572
17250.0 0.00018592
17270.0 0.00018611
17290.0 0.00018629
17310.0 0.00018648
17330.0 0.00018665
17350.0 0.00018682
17370.0 0.00018699
17390.0 0.00018715
17410.0 0.0001873
17430.0 0.00018745
17450.0 0.0001876
17470.0 0.00018773
17490.0 0.00018786
17510.0 0.00018798
17530.0 0.0001881
17550.0 0.00018821
17570.0 0.00018832
17590.0 0.00018842
17610.0 0.0001885
17630.0 0.00018859
17650.0 0.00018867
17670.0 0.00018874
17690.0 0.00018879
17710.0 0.00018885
17730.0 0.0001889
17750.0 0.00018894
17770.0 0.00018897
17790.0 0.000189
17810.0 0.00018901
17830.0 0.00018902
17850.0 0.00018902
17870.0 0.00018902
17890.0 0.000189
17910.0 0.00018897
17930.0 0.00018895
17950.0 0.00018891
17970.0 0.00018885
17990.0 0.0001888
18010.0 0.00018874
18030.0 0.00018866
18050.0 0.00018858
18070.0 0.00018849
18090.0 0.00018839
18110.0 0.00018827
18130.0 0.00018816
18150.0 0.00018804
18170.0 0.0001879
18190.0 0.00018776
18210.0 0.00018761
18230.0 0.00018744
18250.0 0.00018726
18270.0 0.00018709
18290.0 0.0001869
18310.0 0.0001867
18330.0 0.00018649
18350.0 0.00018628
18370.0 0.00018605
18390.0 0.00018581
18410.0 0.00018557
18430.0 0.00018532
18450.0 0.00018504
18470.0 0.00018477
18490.0 0.0001845
18510.0 0.0001842
18530.0 0.0001839
18550.0 0.0001836
18570.0 0.00018328
18590.0 0.00018294
18610.0 0.00018261
18630.0 0.00018226
18650.0 0.0001819
18670.0 0.00018153
18690.0 0.00018117
18710.0 0.00018079
18730.0 0.00018039
18750.0 0.00017999
18770.0 0.00017959
18790.0 0.00017916
18810.0 0.00017873
18830.0 0.0001783
18850.0 0.00017785
18870.0 0.00017739
18890.0 0.00017693
18910.0 0.00017647
18930.0 0.00017598
18950.0 0.00017549
18970.0 0.000175
18990.0 0.0001745
19010.0 0.00017397
19030.0 0.00017346
19050.0 0.00017293
19070.0 0.00017239
19090.0 0.00017184
19110.0 0.0001713
19130.0 0.00017073
19150.0 0.00017016
19170.0 0.00016959
19190.0 0.00016901
19210.0 0.00016841
19230.0 0.00016781
19250.0 0.00016721
19270.0 0.00016659
19290.0 0.00016597
19310.0 0.00016535
19330.0 0.00016472
19350.0 0.00016407
19370.0 0.00016342
19390.0 0.00016277
19410.0 0.00016211
19430.0 0.00016144
19450.0 0.00016077
19470.0 0.0001601
19490.0 0.00015941
19510.0 0.00015872
19530.0 0.00015802
19550.0 0.00015732
19570.0 0.0001566
19590.0 0.0001559
19610.0 0.00015518
19630.0 0.00015445
19650.0 0.00015373
19670.0 0.000153
19690.0 0.00015226
19710.0 0.00015151
19730.0 0.00015077
19750.0 0.00015002
19770.0 0.00014925
19790.0 0.00014849
19810.0 0.00014773
19830.0 0.00014696
19850.0 0.00014618
19870.0 0.0001454
19890.0 0.00014458
19910.0 0.00014372
19930.0 0.00014281
19950.0 0.00014182
19970.0 0.00014069
19990.0 0.00013939
20010.0 0.00013797
20030.0 0.00013635
20050.0 0.00013453
20070.0 0.00013261
20090.0 0.00013059
20110.0 0.00012841
20130.0 0.00012622
20150.0 0.00012408
20170.0 0.0001219
20190.0 0.00011971
20210.0 0.00011763
20230.0 0.00011559
20250.0 0.00011354
20270.0 0.00011159
20290.0 0.00010974
20310.0 0.00010792
20330.0 0.00010614
20350.0 0.00010453
20370.0 0.00010298
20390.0 0.00010149
20410.0 0.0001001
20430.0 9.8812e-05
20450.0 9.7567e-05
20470.0 9.6407e-05
20490.0 9.5345e-05
20510.0 9.4351e-05
20530.0 9.341e-05
20550.0 9.2547e-05
20570.0 9.1753e-05
20590.0 9.1002e-05
20610.0 9.03e-05
20630.0 8.9649e-05
20650.0 8.9033e-05
20670.0 8.8446e-05
20690.0 8.7889e-05
20710.0 8.7351e-05
20730.0 8.6826e-05
20750.0 8.6306e-05
20770.0 8.5787e-05
20790.0 8.5261e-05
20810.0 8.4721e-05
20830.0 8.4164e-05
20850.0 8.3586e-05
20870.0 8.2975e-05
20890.0 8.2331e-05
20910.0 8.166e-05
20930.0 8.095e-05
20950.0 8.0197e-05
20970.0 7.9414e-05
20990.0 7.8602e-05
21010.0 7.7737e-05
21030.0 7.6843e-05
21050.0 7.5933e-05
21070.0 7.499e-05
21090.0 7.4005e-05
21110.0 7.3027e-05
21130.0 7.2041e-05
21150.0 7.1026e-05
21170.0 7.0011e-05
21190.0 6.9015e-05
21210.0 6.8002e-05
21230.0 6.6985e-05
21250.0 6.6002e-05
21270.0 6.5035e-05
21290.0 6.4067e-05
21310.0 6.3123e-05
21330.0 6.2223e-05
21350.0 6.1328e-05
21370.0 6.045e-05
21390.0 5.9611e-05
21410.0 5.8797e-05
21430.0 5.7983e-05
21450.0 5.7206e-05
21470.0 5.6462e-05
21490.0 5.5727e-05
21510.0 5.5007e-05
21530.0 5.4318e-05
21550.0 5.3642e-05
21570.0 5.2969e-05
21590.0 5.2317e-05
21610.0 5.1684e-05
21630.0 5.1054e-05
21650.0 5.0426e-05
21670.0 4.9824e-05
21690.0 4.9227e-05
21710.0 4.863e-05
21730.0 4.8045e-05
21750.0 4.7473e-05
21770.0 4.6893e-05
21790.0 4.6318e-05
21810.0 4.5755e-05
21830.0 4.5193e-05
21850.0 4.4625e-05
21870.0 4.4064e-05
21890.0 4.3511e-05
21910.0 4.2948e-05
21930.0 4.2385e-05
21950.0 4.1831e-05
21970.0 4.1272e-05
21990.0 4.07e-05
22010.0 4.014e-05
22030.0 3.9584e-05
22050.0 3.9021e-05
22070.0 3.8459e-05
22090.0 3.7912e-05
22110.0 3.7362e-05
22130.0 3.6811e-05
22150.0 3.6273e-05
22170.0 3.5746e-05
22190.0 3.5214e-05
22210.0 3.4693e-05
22230.0 3.4193e-05
22250.0 3.3696e-05
22270.0 3.3204e-05
22290.0 3.2729e-05
22310.0 3.2266e-05
22330.0 3.1801e-05
22350.0 3.1348e-05
22370.0 3.091e-05
22390.0 3.0474e-05
22410.0 3.0038e-05
22430.0 2.9618e-05
22450.0 2.9203e-05
22470.0 2.8784e-05
22490.0 2.8371e-05
22510.0 2.7967e-05
22530.0 2.7557e-05
22550.0 2.7145e-05
22570.0 2.6744e-05
22590.0 2.6344e-05
22610.0 2.5939e-05
22630.0 2.554e-05
22650.0 2.5153e-05
22670.0 2.4762e-05
22690.0 2.4374e-05
22710.0 2.3998e-05
22730.0 2.363e-05
22750.0 2.326e-05
22770.0 2.2906e-05
22790.0 2.2567e-05
22810.0 2.2235e-05
22830.0 2.1914e-05
22850.0 2.1613e-05
22870.0 2.1324e-05
22890.0 2.1047e-05
22910.0 2.0791e-05
22930.0 2.0554e-05
22950.0 2.0334e-05
22970.0 2.0133e-05
22990.0 1.9954e-05
23010.0 1.9793e-05
