#lamb flux
1010.0 4.3131e-09
1030.0 4.7342e-09
1050.0 5.2185e-09
1070.0 5.7636e-09
1090.0 6.3829e-09
1110.0 7.018e-09
1130.0 7.6572e-09
1150.0 8.3268e-09
1170.0 9.0175e-09
1190.0 9.6725e-09
1210.0 1.0336e-08
1230.0 1.1022e-08
1250.0 1.1694e-08
1270.0 1.2347e-08
1290.0 1.3036e-08
1310.0 1.3726e-08
1330.0 1.4386e-08
1350.0 1.5055e-08
1370.0 1.5745e-08
1390.0 1.6417e-08
1410.0 1.707e-08
1430.0 1.7752e-08
1450.0 1.8434e-08
1470.0 1.9094e-08
1490.0 1.976e-08
1510.0 2.0464e-08
1530.0 2.1131e-08
1550.0 2.1789e-08
1570.0 2.247e-08
1590.0 2.3151e-08
1610.0 2.3802e-08
1630.0 2.4474e-08
1650.0 2.5163e-08
1670.0 2.5829e-08
1690.0 2.6487e-08
1710.0 2.7171e-08
1730.0 2.7858e-08
1750.0 2.8504e-08
1770.0 2.9169e-08
1790.0 2.9848e-08
1810.0 3.0505e-08
1830.0 3.1151e-08
1850.0 3.1836e-08
1870.0 3.2503e-08
1890.0 3.3148e-08
1910.0 3.3805e-08
1930.0 3.4477e-08
1950.0 3.5118e-08
1970.0 3.575e-08
1990.0 3.6406e-08
2010.0 3.705e-08
2030.0 3.7668e-08
2050.0 3.8304e-08
2070.0 3.8955e-08
2090.0 3.9565e-08
2110.0 4.0171e-08
2130.0 4.0792e-08
2150.0 4.1398e-08
2170.0 4.1972e-08
2190.0 4.2565e-08
2210.0 4.3157e-08
2230.0 4.3719e-08
2250.0 4.4272e-08
2270.0 4.4848e-08
2290.0 4.5397e-08
2310.0 4.5915e-08
2330.0 4.6451e-08
2350.0 4.6998e-08
2370.0 4.7536e-08
2390.0 4.8125e-08
2410.0 4.8841e-08
2430.0 4.9683e-08
2450.0 5.0717e-08
2470.0 5.208e-08
2490.0 5.3836e-08
2510.0 5.585e-08
2530.0 5.8304e-08
2550.0 6.1407e-08
2570.0 6.5287e-08
2590.0 7.0336e-08
2610.0 7.7899e-08
2630.0 8.8637e-08
2650.0 1.0257e-07
2670.0 1.2045e-07
2690.0 1.4224e-07
2710.0 1.6528e-07
2730.0 1.8779e-07
2750.0 2.0972e-07
2770.0 2.2848e-07
2790.0 2.4303e-07
2810.0 2.5425e-07
2830.0 2.6267e-07
2850.0 2.68e-07
2870.0 2.7159e-07
2890.0 2.7416e-07
2910.0 2.7597e-07
2930.0 2.7726e-07
2950.0 2.7845e-07
2970.0 2.796e-07
2990.0 2.8063e-07
3010.0 8.446e-06
3030.0 8.4759e-06
3050.0 8.5046e-06
3070.0 8.5259e-06
3090.0 8.5409e-06
3110.0 8.5402e-06
3130.0 8.5123e-06
3150.0 8.4489e-06
3170.0 8.3336e-06
3190.0 8.1679e-06
3210.0 7.9655e-06
3230.0 7.7372e-06
3250.0 7.5068e-06
3270.0 7.3362e-06
3290.0 7.2236e-06
3310.0 7.217e-06
3330.0 7.2982e-06
3350.0 7.4582e-06
3370.0 7.6967e-06
3390.0 8.0035e-06
3410.0 8.3406e-06
3430.0 8.7214e-06
3450.0 9.1615e-06
3470.0 9.6441e-06
3490.0 1.0158e-05
3510.0 1.0741e-05
3530.0 1.137e-05
3550.0 1.2021e-05
3570.0 1.2715e-05
3590.0 1.3475e-05
3610.0 1.4285e-05
3630.0 1.5086e-05
3650.0 1.5925e-05
3670.0 1.6684e-05
3690.0 1.7249e-05
3710.0 1.7553e-05
3730.0 1.7486e-05
3750.0 1.7083e-05
3770.0 1.7234e-05
3790.0 1.7089e-05
3810.0 1.5332e-05
3830.0 1.5554e-05
3850.0 1.9453e-05
3870.0 2.0203e-05
3890.0 1.8145e-05
3910.0 1.7575e-05
3930.0 1.9164e-05
3950.0 2.0795e-05
3970.0 2.0532e-05
3990.0 1.5664e-05
4010.0 4.1277e-05
4030.0 4.7362e-05
4050.0 5.402e-05
4070.0 5.0482e-05
4090.0 4.6265e-05
4110.0 3.9978e-05
4130.0 4.056e-05
4150.0 4.7862e-05
4170.0 4.2849e-05
4190.0 4.2628e-05
4210.0 4.4358e-05
4230.0 4.9846e-05
4250.0 5.9593e-05
4270.0 6.2224e-05
4290.0 5.6023e-05
4310.0 5.548e-05
4330.0 5.7134e-05
4350.0 6.7492e-05
4370.0 7.9156e-05
4390.0 6.9177e-05
4410.0 4.5665e-05
4430.0 3.6481e-05
4450.0 3.3877e-05
4470.0 2.3808e-05
4490.0 3.0028e-05
4510.0 5.3902e-05
4530.0 6.3928e-05
4550.0 6.185e-05
4570.0 6.2939e-05
4590.0 6.9657e-05
4610.0 0.00011144
4630.0 0.00015088
4650.0 0.00015367
4670.0 0.00013883
4690.0 0.00013582
4710.0 0.00014258
4730.0 0.00012713
4750.0 8.9994e-05
4770.0 6.3768e-05
4790.0 6.368e-05
4810.0 6.361e-05
4830.0 6.0291e-05
4850.0 6.568e-05
4870.0 8.6871e-05
4890.0 0.00010153
4910.0 8.4656e-05
4930.0 7.8259e-05
4950.0 8.7906e-05
4970.0 0.00011438
4990.0 0.00015487
5010.0 0.00017911
5030.0 0.00015132
5050.0 9.839e-05
5070.0 6.6941e-05
5090.0 5.2237e-05
5110.0 5.1494e-05
5130.0 6.0734e-05
5150.0 6.2947e-05
5170.0 6.079e-05
5190.0 5.5538e-05
5210.0 5.9843e-05
5230.0 6.7507e-05
5250.0 7.5401e-05
5270.0 7.593e-05
5290.0 8.2977e-05
5310.0 0.00010295
5330.0 0.00011286
5350.0 0.00011176
5370.0 0.00012079
5390.0 0.00014427
5410.0 0.00013454
5430.0 0.00011237
5450.0 0.00010741
5470.0 0.00011847
5490.0 0.00014597
5510.0 0.00017992
5530.0 0.00020755
5550.0 0.0001948
5570.0 0.0001762
5590.0 0.0001495
5610.0 0.00014361
5630.0 0.00014918
5650.0 0.00013942
5670.0 0.00013012
5690.0 0.00011104
5710.0 0.00011099
5730.0 0.00010471
5750.0 6.6154e-05
5770.0 4.9584e-05
5790.0 5.8212e-05
5810.0 6.3641e-05
5830.0 8.6608e-05
5850.0 0.00010788
5870.0 0.00011829
5890.0 0.00011709
5910.0 0.00011459
5930.0 0.00010937
5950.0 0.00011197
5970.0 0.00013296
5990.0 0.00011756
6010.0 9.5048e-05
6030.0 7.9214e-05
6050.0 6.9745e-05
6070.0 7.5111e-05
6090.0 8.2657e-05
6110.0 8.8579e-05
6130.0 8.6432e-05
6150.0 7.1558e-05
6170.0 5.9353e-05
6190.0 6.8601e-05
6210.0 9.8197e-05
6230.0 0.00013666
6250.0 0.00014814
6270.0 0.0001218
6290.0 0.00010337
6310.0 7.9849e-05
6330.0 5.9814e-05
6350.0 5.57e-05
6370.0 5.852e-05
6390.0 6.8567e-05
6410.0 8.6665e-05
6430.0 0.00010268
6450.0 0.00012145
6470.0 0.00013344
6490.0 0.0001603
6510.0 0.00017944
6530.0 0.00017993
6550.0 0.00016408
6570.0 0.00013479
6590.0 0.00012434
6610.0 0.00010511
6630.0 0.00010201
6650.0 9.8044e-05
6670.0 8.9891e-05
6690.0 7.5045e-05
6710.0 7.0672e-05
6730.0 4.0478e-05
6750.0 4.579e-05
6770.0 6.0019e-05
6790.0 7.4526e-05
6810.0 5.9387e-05
6830.0 6.0874e-05
6850.0 5.3618e-05
6870.0 4.9422e-05
6890.0 4.4631e-05
6910.0 5.0882e-05
6930.0 4.7818e-05
6950.0 5.3054e-05
6970.0 5.5622e-05
6990.0 6.2438e-05
7010.0 6.1356e-05
7030.0 6.6678e-05
7050.0 6.0504e-05
7070.0 5.3819e-05
7090.0 5.5947e-05
7110.0 5.8717e-05
7130.0 6.5535e-05
7150.0 7.1968e-05
7170.0 8.0187e-05
7190.0 8.7084e-05
7210.0 8.1443e-05
7230.0 8.3134e-05
7250.0 8.9014e-05
7270.0 9.5944e-05
7290.0 0.00011639
7310.0 0.00012512
7330.0 0.00011939
7350.0 0.00010753
7370.0 8.6636e-05
7390.0 8.6285e-05
7410.0 9.8171e-05
7430.0 0.0001106
7450.0 0.00011982
7470.0 0.00011372
7490.0 9.6337e-05
7510.0 0.00013035
7530.0 0.00012386
7550.0 0.00011466
7570.0 8.3444e-05
7590.0 4.7154e-05
7610.0 3.7607e-05
7630.0 4.7841e-05
7650.0 5.9875e-05
7670.0 8.3969e-05
7690.0 9.2843e-05
7710.0 9.0172e-05
7730.0 9.2415e-05
7750.0 0.00011211
7770.0 0.00011467
7790.0 0.00010497
7810.0 9.0039e-05
7830.0 9.5263e-05
7850.0 9.854e-05
7870.0 9.3468e-05
7890.0 7.5514e-05
7910.0 5.5922e-05
7930.0 5.5693e-05
7950.0 5.0574e-05
7970.0 4.472e-05
7990.0 4.2582e-05
8010.0 1.151e-05
8030.0 1.0437e-05
8050.0 1.1293e-05
8070.0 1.2974e-05
8090.0 1.6152e-05
8110.0 1.5255e-05
8130.0 8.7518e-06
8150.0 9.2862e-06
8170.0 4.8881e-06
8190.0 2.6868e-06
8210.0 8.4017e-06
8230.0 1.0279e-05
8250.0 3.7333e-06
8270.0 2.836e-06
8290.0 6.1986e-06
8310.0 5.6308e-06
8330.0 3.4822e-06
8350.0 2.7669e-06
8370.0 5.1191e-07
8390.0 2.9787e-06
8410.0 3.3836e-06
8430.0 4.1849e-06
8450.0 4.7511e-06
8470.0 8.147e-06
8490.0 6.669e-06
8510.0 5.1009e-06
8530.0 2.5565e-06
8550.0 9.33e-06
8570.0 1.4369e-05
8590.0 9.9569e-06
8610.0 1.5074e-05
8630.0 1.6525e-05
8650.0 9.0792e-06
8670.0 1.3378e-05
8690.0 2.0543e-05
8710.0 1.7508e-05
8730.0 1.8718e-05
8750.0 1.4628e-05
8770.0 1.2965e-05
8790.0 1.4339e-05
8810.0 1.5578e-05
8830.0 8.5617e-06
8850.0 3.4556e-06
8870.0 2.3525e-06
8890.0 6.3412e-06
8910.0 1.0228e-05
8930.0 1.3699e-05
8950.0 1.5062e-05
8970.0 1.4445e-05
8990.0 1.054e-05
9010.0 1.9705e-05
9030.0 1.5951e-05
9050.0 1.6305e-05
9070.0 1.6712e-05
9090.0 1.705e-05
9110.0 1.7465e-05
9130.0 1.7768e-05
9150.0 1.7986e-05
9170.0 1.8218e-05
9190.0 1.8466e-05
9210.0 1.8727e-05
9230.0 1.9002e-05
9250.0 1.928e-05
9270.0 1.9567e-05
9290.0 1.9861e-05
9310.0 2.0154e-05
9330.0 2.0451e-05
9350.0 2.0759e-05
9370.0 2.1068e-05
9390.0 2.1378e-05
9410.0 2.1696e-05
9430.0 2.2023e-05
9450.0 2.2345e-05
9470.0 2.2673e-05
9490.0 2.3011e-05
9510.0 2.3351e-05
9530.0 2.369e-05
9550.0 2.4041e-05
9570.0 2.4398e-05
9590.0 2.4754e-05
9610.0 2.5115e-05
9630.0 2.5486e-05
9650.0 2.5859e-05
9670.0 2.6231e-05
9690.0 2.6614e-05
9710.0 2.7001e-05
9730.0 2.7389e-05
9750.0 2.7781e-05
9770.0 2.8187e-05
9790.0 2.859e-05
9810.0 2.8994e-05
9830.0 2.9408e-05
9850.0 2.9827e-05
9870.0 3.0243e-05
9890.0 3.0665e-05
9910.0 3.1097e-05
9930.0 3.1527e-05
9950.0 3.1959e-05
9970.0 3.2401e-05
9990.0 3.2847e-05
10010.0 2.8811e-05
10030.0 2.9198e-05
10050.0 2.9592e-05
10070.0 2.9985e-05
10090.0 3.0374e-05
10110.0 3.0774e-05
10130.0 3.1173e-05
10150.0 3.157e-05
10170.0 3.197e-05
10190.0 3.2378e-05
10210.0 3.2779e-05
10230.0 3.318e-05
10250.0 3.3587e-05
10270.0 3.3993e-05
10290.0 3.4394e-05
10310.0 3.48e-05
10330.0 3.5211e-05
10350.0 3.5614e-05
10370.0 3.6015e-05
10390.0 3.6422e-05
10410.0 3.6826e-05
10430.0 3.7222e-05
10450.0 3.7621e-05
10470.0 3.8022e-05
10490.0 3.8416e-05
10510.0 3.8806e-05
10530.0 3.9203e-05
10550.0 3.9593e-05
10570.0 3.9974e-05
10590.0 4.0357e-05
10610.0 4.074e-05
10630.0 4.1111e-05
10650.0 4.148e-05
10670.0 4.1853e-05
10690.0 4.2217e-05
10710.0 4.2573e-05
10730.0 4.2929e-05
10750.0 4.3286e-05
10770.0 4.3626e-05
10790.0 4.3963e-05
10810.0 4.43e-05
10830.0 4.4626e-05
10850.0 4.4936e-05
10870.0 4.5239e-05
10890.0 4.5512e-05
10910.0 4.5734e-05
10930.0 4.5886e-05
10950.0 4.5928e-05
10970.0 4.5824e-05
10990.0 4.5557e-05
11010.0 4.2938e-05
11030.0 4.2268e-05
11050.0 4.1439e-05
11070.0 4.0439e-05
11090.0 3.9234e-05
11110.0 3.7984e-05
11130.0 3.6682e-05
11150.0 3.5282e-05
11170.0 3.3843e-05
11190.0 3.2451e-05
11210.0 3.1018e-05
11230.0 2.9554e-05
11250.0 2.8159e-05
11270.0 2.6821e-05
11290.0 2.5485e-05
11310.0 2.4221e-05
11330.0 2.3106e-05
11350.0 2.2052e-05
11370.0 2.1076e-05
11390.0 2.0227e-05
11410.0 1.9479e-05
11430.0 1.8779e-05
11450.0 1.817e-05
11470.0 1.7637e-05
11490.0 1.7136e-05
11510.0 1.6651e-05
11530.0 1.6197e-05
11550.0 1.5747e-05
11570.0 1.5269e-05
11590.0 1.4777e-05
11610.0 1.4279e-05
11630.0 1.3741e-05
11650.0 1.317e-05
11670.0 1.261e-05
11690.0 1.2044e-05
11710.0 1.1462e-05
11730.0 1.0899e-05
11750.0 1.0377e-05
11770.0 9.8645e-06
11790.0 9.3835e-06
11810.0 8.9574e-06
11830.0 8.5737e-06
11850.0 8.218e-06
11870.0 7.9166e-06
11890.0 7.6622e-06
11910.0 7.4356e-06
11930.0 7.2377e-06
11950.0 7.0697e-06
11970.0 6.9178e-06
11990.0 6.7735e-06
12010.0 6.6395e-06
12030.0 6.5106e-06
12050.0 6.3789e-06
12070.0 6.2433e-06
12090.0 6.1129e-06
12110.0 5.9812e-06
12130.0 5.8491e-06
12150.0 5.7259e-06
12170.0 5.6158e-06
12190.0 5.5167e-06
12210.0 5.4404e-06
12230.0 5.3915e-06
12250.0 5.3717e-06
12270.0 5.3875e-06
12290.0 5.4392e-06
12310.0 5.524e-06
12330.0 5.6514e-06
12350.0 5.8163e-06
12370.0 6.0076e-06
12390.0 6.2314e-06
12410.0 6.4969e-06
12430.0 6.7675e-06
12450.0 7.0485e-06
12470.0 7.3483e-06
12490.0 7.6495e-06
12510.0 7.9312e-06
12530.0 8.2114e-06
12550.0 8.4811e-06
12570.0 8.7177e-06
12590.0 8.9237e-06
12610.0 9.1061e-06
12630.0 9.2491e-06
12650.0 9.3439e-06
12670.0 9.4022e-06
12690.0 9.4186e-06
12710.0 9.3913e-06
12730.0 9.3252e-06
12750.0 9.2168e-06
12770.0 9.0724e-06
12790.0 8.8999e-06
12810.0 8.6965e-06
12830.0 8.4634e-06
12850.0 8.2206e-06
12870.0 7.9651e-06
12890.0 7.6904e-06
12910.0 7.4122e-06
12930.0 7.1388e-06
12950.0 6.8549e-06
12970.0 6.5671e-06
12990.0 6.2952e-06
13010.0 6.0274e-06
13030.0 5.7574e-06
13050.0 5.4983e-06
13070.0 5.2555e-06
13090.0 5.0121e-06
13110.0 4.7765e-06
13130.0 4.5588e-06
13150.0 4.3521e-06
13170.0 4.1493e-06
13190.0 3.9677e-06
13210.0 3.8066e-06
13230.0 3.6582e-06
13250.0 3.5288e-06
13270.0 3.4245e-06
13290.0 3.3409e-06
13310.0 3.2796e-06
13330.0 3.2458e-06
13350.0 3.2379e-06
13370.0 3.2568e-06
13390.0 3.3046e-06
13410.0 3.3739e-06
13430.0 3.4673e-06
13450.0 3.5857e-06
13470.0 3.7192e-06
13490.0 3.8624e-06
13510.0 4.0259e-06
13530.0 4.1934e-06
13550.0 4.355e-06
13570.0 4.5158e-06
13590.0 4.674e-06
13610.0 4.8159e-06
13630.0 4.9409e-06
13650.0 5.0562e-06
13670.0 5.1532e-06
13690.0 5.2291e-06
13710.0 5.289e-06
13730.0 5.3334e-06
13750.0 5.3572e-06
13770.0 5.3653e-06
13790.0 5.3587e-06
13810.0 5.3373e-06
13830.0 5.3038e-06
13850.0 5.2573e-06
13870.0 5.1979e-06
13890.0 5.1293e-06
13910.0 5.0517e-06
13930.0 4.9618e-06
13950.0 4.8635e-06
13970.0 4.7629e-06
13990.0 4.6535e-06
14010.0 4.5374e-06
14030.0 4.4215e-06
14050.0 4.305e-06
14070.0 4.182e-06
14090.0 4.0642e-06
14110.0 3.9535e-06
14130.0 3.8461e-06
14150.0 3.7449e-06
14170.0 3.6582e-06
14190.0 3.5829e-06
14210.0 3.5186e-06
14230.0 3.4704e-06
14250.0 3.4385e-06
14270.0 3.4219e-06
14290.0 3.4228e-06
14310.0 3.4398e-06
14330.0 3.4722e-06
14350.0 3.5211e-06
14370.0 3.5828e-06
14390.0 3.6535e-06
14410.0 3.7376e-06
14430.0 3.8306e-06
14450.0 3.9263e-06
14470.0 4.0263e-06
14490.0 4.1333e-06
14510.0 4.2364e-06
14530.0 4.3351e-06
14550.0 4.4342e-06
14570.0 4.5299e-06
14590.0 4.6176e-06
14610.0 4.7026e-06
14630.0 4.787e-06
14650.0 4.8656e-06
14670.0 4.9416e-06
14690.0 5.0205e-06
14710.0 5.1032e-06
14730.0 5.1857e-06
14750.0 5.2769e-06
14770.0 5.38e-06
14790.0 5.4918e-06
14810.0 5.613e-06
14830.0 5.7564e-06
14850.0 5.9126e-06
14870.0 6.0759e-06
14890.0 6.2523e-06
14910.0 6.44e-06
14930.0 6.6211e-06
14950.0 6.7909e-06
14970.0 6.9522e-06
14990.0 7.0884e-06
15010.0 7.1937e-06
15030.0 7.273e-06
15050.0 7.3271e-06
15070.0 7.3558e-06
15090.0 7.369e-06
15110.0 7.3713e-06
15130.0 7.3666e-06
15150.0 7.3587e-06
15170.0 7.3485e-06
15190.0 7.3373e-06
15210.0 7.3264e-06
15230.0 7.3155e-06
15250.0 7.304e-06
15270.0 7.2928e-06
15290.0 7.2825e-06
15310.0 7.2718e-06
15330.0 7.2609e-06
15350.0 7.2507e-06
15370.0 7.2406e-06
15390.0 7.2297e-06
15410.0 7.2194e-06
15430.0 7.2096e-06
15450.0 7.1995e-06
15470.0 7.1891e-06
15490.0 7.1795e-06
15510.0 7.1699e-06
15530.0 7.1598e-06
15550.0 7.1501e-06
15570.0 7.1409e-06
15590.0 7.131e-06
15610.0 7.121e-06
15630.0 7.1118e-06
15650.0 7.1025e-06
15670.0 7.0927e-06
15690.0 7.0834e-06
15710.0 7.0745e-06
15730.0 7.0649e-06
15750.0 7.0553e-06
15770.0 7.0463e-06
15790.0 7.0372e-06
15810.0 7.0273e-06
15830.0 7.018e-06
15850.0 7.0092e-06
15870.0 6.9998e-06
15890.0 6.9903e-06
15910.0 6.9815e-06
15930.0 6.9722e-06
15950.0 6.9624e-06
15970.0 6.9532e-06
15990.0 6.9442e-06
16010.0 6.9345e-06
16030.0 6.9247e-06
16050.0 6.9158e-06
16070.0 6.9065e-06
16090.0 6.8967e-06
16110.0 6.8873e-06
16130.0 6.8782e-06
16150.0 6.868e-06
16170.0 6.8581e-06
16190.0 6.8488e-06
16210.0 6.8391e-06
16230.0 6.8288e-06
16250.0 6.8191e-06
16270.0 6.8096e-06
16290.0 6.7993e-06
16310.0 6.7891e-06
16330.0 6.7794e-06
16350.0 6.7692e-06
16370.0 6.7582e-06
16390.0 6.7481e-06
16410.0 6.738e-06
16430.0 6.7272e-06
16450.0 6.7166e-06
16470.0 6.7065e-06
16490.0 6.6956e-06
16510.0 6.6843e-06
16530.0 6.6736e-06
16550.0 6.6629e-06
16570.0 6.6513e-06
16590.0 6.6398e-06
16610.0 6.6291e-06
16630.0 6.6177e-06
16650.0 6.6059e-06
16670.0 6.5946e-06
16690.0 6.5833e-06
16710.0 6.5709e-06
16730.0 6.5589e-06
16750.0 6.5473e-06
16770.0 6.5351e-06
16790.0 6.5224e-06
16810.0 6.5105e-06
16830.0 6.4984e-06
16850.0 6.4855e-06
16870.0 6.4729e-06
16890.0 6.4606e-06
16910.0 6.4474e-06
16930.0 6.4339e-06
16950.0 6.4212e-06
16970.0 6.4082e-06
16990.0 6.3945e-06
17010.0 6.3812e-06
17030.0 6.3682e-06
17050.0 6.3542e-06
17070.0 6.3402e-06
17090.0 6.3267e-06
17110.0 6.3128e-06
17130.0 6.2981e-06
17150.0 6.2839e-06
17170.0 6.27e-06
17190.0 6.2554e-06
17210.0 6.2406e-06
17230.0 6.2265e-06
17250.0 6.2117e-06
17270.0 6.1963e-06
17290.0 6.1814e-06
17310.0 6.1666e-06
17330.0 6.151e-06
17350.0 6.1353e-06
17370.0 6.1204e-06
17390.0 6.1049e-06
17410.0 6.0889e-06
17430.0 6.0733e-06
17450.0 6.0579e-06
17470.0 6.0412e-06
17490.0 6.0249e-06
17510.0 6.0091e-06
17530.0 5.9928e-06
17550.0 5.9759e-06
17570.0 5.9597e-06
17590.0 5.9435e-06
17610.0 5.9263e-06
17630.0 5.9094e-06
17650.0 5.8929e-06
17670.0 5.8758e-06
17690.0 5.8579e-06
17710.0 5.8411e-06
17730.0 5.824e-06
17750.0 5.8063e-06
17770.0 5.7887e-06
17790.0 5.7718e-06
17810.0 5.7538e-06
17830.0 5.7356e-06
17850.0 5.718e-06
17870.0 5.7003e-06
17890.0 5.6818e-06
17910.0 5.6635e-06
17930.0 5.6458e-06
17950.0 5.6275e-06
17970.0 5.6088e-06
17990.0 5.5908e-06
18010.0 5.5725e-06
18030.0 5.5532e-06
18050.0 5.5346e-06
18070.0 5.5162e-06
18090.0 5.4972e-06
18110.0 5.4779e-06
18130.0 5.4595e-06
18150.0 5.4407e-06
18170.0 5.4212e-06
18190.0 5.4021e-06
18210.0 5.3834e-06
18230.0 5.3638e-06
18250.0 5.3439e-06
18270.0 5.325e-06
18290.0 5.3057e-06
18310.0 5.2858e-06
18330.0 5.2664e-06
18350.0 5.2474e-06
18370.0 5.2274e-06
18390.0 5.2074e-06
18410.0 5.188e-06
18430.0 5.1683e-06
18450.0 5.1478e-06
18470.0 5.1281e-06
18490.0 5.1087e-06
18510.0 5.0885e-06
18530.0 5.0683e-06
18550.0 5.0488e-06
18570.0 5.0288e-06
18590.0 5.0081e-06
18610.0 4.9881e-06
18630.0 4.9683e-06
18650.0 4.9478e-06
18670.0 4.9272e-06
18690.0 4.9076e-06
18710.0 4.8873e-06
18730.0 4.8667e-06
18750.0 4.8466e-06
18770.0 4.8268e-06
18790.0 4.8057e-06
18810.0 4.7852e-06
18830.0 4.7652e-06
18850.0 4.7448e-06
18870.0 4.724e-06
18890.0 4.7039e-06
18910.0 4.6838e-06
18930.0 4.6629e-06
18950.0 4.6424e-06
18970.0 4.6224e-06
18990.0 4.6018e-06
19010.0 4.5805e-06
19030.0 4.5605e-06
19050.0 4.5403e-06
19070.0 4.5195e-06
19090.0 4.499e-06
19110.0 4.4791e-06
19130.0 4.4583e-06
19150.0 4.4374e-06
19170.0 4.4172e-06
19190.0 4.3969e-06
19210.0 4.3759e-06
19230.0 4.3553e-06
19250.0 4.3354e-06
19270.0 4.3149e-06
19290.0 4.2942e-06
19310.0 4.2741e-06
19330.0 4.2539e-06
19350.0 4.2328e-06
19370.0 4.2124e-06
19390.0 4.1924e-06
19410.0 4.1718e-06
19430.0 4.1511e-06
19450.0 4.1312e-06
19470.0 4.1111e-06
19490.0 4.0904e-06
19510.0 4.0702e-06
19530.0 4.0503e-06
19550.0 4.0297e-06
19570.0 4.009e-06
19590.0 3.9892e-06
19610.0 3.9691e-06
19630.0 3.9486e-06
19650.0 3.9286e-06
19670.0 3.909e-06
19690.0 3.8885e-06
19710.0 3.8682e-06
19730.0 3.8485e-06
19750.0 3.8285e-06
19770.0 3.8079e-06
19790.0 3.7881e-06
19810.0 3.7685e-06
19830.0 3.7483e-06
19850.0 3.728e-06
19870.0 3.7081e-06
19890.0 3.6869e-06
19910.0 3.6639e-06
19930.0 3.6395e-06
19950.0 3.6121e-06
19970.0 3.579e-06
19990.0 3.5398e-06
20010.0 3.1864e-06
20030.0 3.1382e-06
20050.0 3.0823e-06
20070.0 3.0221e-06
20090.0 2.9577e-06
20110.0 2.8852e-06
20130.0 2.812e-06
20150.0 2.7398e-06
20170.0 2.665e-06
20190.0 2.5895e-06
20210.0 2.5182e-06
20230.0 2.4487e-06
20250.0 2.3793e-06
20270.0 2.3148e-06
20290.0 2.2558e-06
20310.0 2.1998e-06
20330.0 2.1473e-06
20350.0 2.1036e-06
20370.0 2.0645e-06
20390.0 2.0301e-06
20410.0 2.002e-06
20430.0 1.98e-06
20450.0 1.9622e-06
20470.0 1.9498e-06
20490.0 1.9425e-06
20510.0 1.9395e-06
20530.0 1.9406e-06
20550.0 1.9453e-06
20570.0 1.953e-06
20590.0 1.9638e-06
20610.0 1.9773e-06
20630.0 1.9924e-06
20650.0 2.0094e-06
20670.0 2.0292e-06
20690.0 2.0494e-06
20710.0 2.0704e-06
20730.0 2.0932e-06
20750.0 2.1169e-06
20770.0 2.1403e-06
20790.0 2.1647e-06
20810.0 2.1906e-06
20830.0 2.2162e-06
20850.0 2.2418e-06
20870.0 2.2691e-06
20890.0 2.2969e-06
20910.0 2.3235e-06
20930.0 2.351e-06
20950.0 2.3795e-06
20970.0 2.4071e-06
20990.0 2.4343e-06
21010.0 2.4628e-06
21030.0 2.4906e-06
21050.0 2.517e-06
21070.0 2.5434e-06
21090.0 2.5698e-06
21110.0 2.5937e-06
21130.0 2.6162e-06
21150.0 2.6379e-06
21170.0 2.6575e-06
21190.0 2.6743e-06
21210.0 2.6893e-06
21230.0 2.7018e-06
21250.0 2.7105e-06
21270.0 2.7159e-06
21290.0 2.7176e-06
21310.0 2.715e-06
21330.0 2.7083e-06
21350.0 2.6969e-06
21370.0 2.6803e-06
21390.0 2.6594e-06
21410.0 2.6338e-06
21430.0 2.6015e-06
21450.0 2.5652e-06
21470.0 2.5257e-06
21490.0 2.4811e-06
21510.0 2.4322e-06
21530.0 2.3824e-06
21550.0 2.3303e-06
21570.0 2.2747e-06
21590.0 2.22e-06
21610.0 2.1672e-06
21630.0 2.1142e-06
21650.0 2.0624e-06
21670.0 2.0174e-06
21690.0 1.9758e-06
21710.0 1.9383e-06
21730.0 1.9073e-06
21750.0 1.8832e-06
21770.0 1.8646e-06
21790.0 1.8535e-06
21810.0 1.8497e-06
21830.0 1.8527e-06
21850.0 1.8629e-06
21870.0 1.8794e-06
21890.0 1.9011e-06
21910.0 1.9291e-06
21930.0 1.9622e-06
21950.0 1.9982e-06
21970.0 2.0382e-06
21990.0 2.0832e-06
22010.0 2.1283e-06
22030.0 2.1741e-06
22050.0 2.2223e-06
22070.0 2.2709e-06
22090.0 2.3169e-06
22110.0 2.3634e-06
22130.0 2.4099e-06
22150.0 2.4533e-06
22170.0 2.4942e-06
22190.0 2.5349e-06
22210.0 2.5727e-06
22230.0 2.606e-06
22250.0 2.6373e-06
22270.0 2.6662e-06
22290.0 2.6908e-06
22310.0 2.7119e-06
22330.0 2.7304e-06
22350.0 2.7446e-06
22370.0 2.7546e-06
22390.0 2.7606e-06
22410.0 2.7623e-06
22430.0 2.7594e-06
22450.0 2.752e-06
22470.0 2.7395e-06
22490.0 2.7221e-06
22510.0 2.7005e-06
22530.0 2.673e-06
22550.0 2.6396e-06
22570.0 2.6026e-06
22590.0 2.561e-06
22610.0 2.5132e-06
