#lamb flux
1010.0 1.5083e-06
1030.0 1.8578e-06
1050.0 2.2305e-06
1070.0 2.6122e-06
1090.0 3.0001e-06
1110.0 3.3309e-06
1130.0 3.6065e-06
1150.0 4.0287e-06
1170.0 4.4557e-06
1190.0 4.8458e-06
1210.0 5.16e-06
1230.0 5.4717e-06
1250.0 5.7634e-06
1270.0 6.0407e-06
1290.0 6.3474e-06
1310.0 6.6693e-06
1330.0 7.0004e-06
1350.0 7.3713e-06
1370.0 7.7983e-06
1390.0 8.2645e-06
1410.0 8.7719e-06
1430.0 9.3519e-06
1450.0 9.9859e-06
1470.0 1.0656e-05
1490.0 1.1375e-05
1510.0 1.2003e-05
1530.0 1.2562e-05
1550.0 1.3284e-05
1570.0 1.4855e-05
1590.0 1.6455e-05
1610.0 1.8035e-05
1630.0 1.9622e-05
1650.0 2.1201e-05
1670.0 2.2725e-05
1690.0 2.4197e-05
1710.0 2.5647e-05
1730.0 2.7053e-05
1750.0 2.8362e-05
1770.0 2.964e-05
1790.0 3.0884e-05
1810.0 3.2055e-05
1830.0 3.3165e-05
1850.0 3.4271e-05
1870.0 3.5309e-05
1890.0 3.6283e-05
1910.0 3.7239e-05
1930.0 3.8182e-05
1950.0 3.907e-05
1970.0 3.992e-05
1990.0 4.0765e-05
2010.0 4.1564e-05
2030.0 4.2304e-05
2050.0 4.3039e-05
2070.0 4.3785e-05
2090.0 4.4466e-05
2110.0 4.5127e-05
2130.0 4.5793e-05
2150.0 4.6428e-05
2170.0 4.7014e-05
2190.0 4.7616e-05
2210.0 4.8206e-05
2230.0 4.8747e-05
2250.0 4.9276e-05
2270.0 4.9832e-05
2290.0 5.0358e-05
2310.0 5.085e-05
2330.0 5.1363e-05
2350.0 5.188e-05
2370.0 5.2366e-05
2390.0 5.2859e-05
2410.0 5.339e-05
2430.0 5.3911e-05
2450.0 5.445e-05
2470.0 5.5085e-05
2490.0 5.5879e-05
2510.0 5.6848e-05
2530.0 5.8191e-05
2550.0 6.0146e-05
2570.0 6.2844e-05
2590.0 6.6455e-05
2610.0 7.1656e-05
2630.0 7.8523e-05
2650.0 8.6836e-05
2670.0 9.6985e-05
2690.0 0.0001091
2710.0 0.00012214
2730.0 0.00013559
2750.0 0.00014989
2770.0 0.00016377
2790.0 0.00017636
2810.0 0.00018791
2830.0 0.00019843
2850.0 0.00020692
2870.0 0.00021412
2890.0 0.00022053
2910.0 0.00022624
2930.0 0.00023139
2950.0 0.00023651
2970.0 0.00024165
2990.0 0.0002467
3010.0 0.00025178
3030.0 0.00025704
3050.0 0.00026234
3070.0 0.00026743
3090.0 0.00027262
3110.0 0.00027795
3130.0 0.00028353
3150.0 0.00029112
3170.0 0.00030106
3190.0 0.00031479
3210.0 0.00033329
3230.0 0.00035797
3250.0 0.0003871
3270.0 0.00040924
3290.0 0.00045355
3310.0 0.00056272
3330.0 0.00058783
3350.0 0.0005922
3370.0 0.00059538
3390.0 0.00059869
3410.0 0.00060257
3430.0 0.0006069
3450.0 0.00061138
3470.0 0.00061552
3490.0 0.00062005
3510.0 0.0006266
3530.0 0.00061848
3550.0 0.00059497
3570.0 0.00058552
3590.0 0.00060215
3610.0 0.00064464
3630.0 0.00064246
3650.0 0.00060713
3670.0 0.0005611
3690.0 0.00054168
3710.0 0.00055601
3730.0 0.00057432
3750.0 0.00058427
3770.0 0.00060622
3790.0 0.00063206
3810.0 0.00062143
3830.0 0.00058566
3850.0 0.00055906
3870.0 0.00055109
3890.0 0.00054716
3910.0 0.00053927
3930.0 0.00054249
3950.0 0.0005671
3970.0 0.00059597
3990.0 0.00061734
4010.0 0.0006054
4030.0 0.00058726
4050.0 0.00058202
4070.0 0.00057984
4090.0 0.00057918
4110.0 0.00057189
4130.0 0.0005528
4150.0 0.00053356
4170.0 0.00052801
4190.0 0.00050516
4210.0 0.00047228
4230.0 0.00043555
4250.0 0.00039978
4270.0 0.00037537
4290.0 0.00035555
4310.0 0.00034963
4330.0 0.00035903
4350.0 0.00036601
4370.0 0.0003793
4390.0 0.00040041
4410.0 0.00041847
4430.0 0.00041016
4450.0 0.00038153
4470.0 0.0003571
4490.0 0.00034446
4510.0 0.00033848
4530.0 0.00033781
4550.0 0.00033755
4570.0 0.00034011
4590.0 0.00034788
4610.0 0.00036383
4630.0 0.00037389
4650.0 0.00038035
4670.0 0.00037176
4690.0 0.00035101
4710.0 0.00032908
4730.0 0.0003153
4750.0 0.00030582
4770.0 0.00030823
4790.0 0.00030439
4810.0 0.00029531
4830.0 0.00029864
4850.0 0.00030057
4870.0 0.00030613
4890.0 0.00029212
4910.0 0.00027748
4930.0 0.00025671
4950.0 0.00023415
4970.0 0.00021434
4990.0 0.00019798
5010.0 0.0001944
5030.0 0.00019839
5050.0 0.00019584
5070.0 0.00019955
5090.0 0.00020748
5110.0 0.0002062
5130.0 0.00020437
5150.0 0.00020345
5170.0 0.00020355
5190.0 0.00020633
5210.0 0.0002017
5230.0 0.00019741
5250.0 0.00019399
5270.0 0.00019054
5290.0 0.0001885
5310.0 0.00018647
5330.0 0.00018027
5350.0 0.00017755
5370.0 0.00017346
5390.0 0.0001686
5410.0 0.00016582
5430.0 0.00016297
5450.0 0.00016644
5470.0 0.0001689
5490.0 0.00016872
5510.0 0.00017377
5530.0 0.00017576
5550.0 0.00017922
5570.0 0.0001788
5590.0 0.00017404
5610.0 0.0001735
5630.0 0.00017662
5650.0 0.00017556
5670.0 0.00017315
5690.0 0.00016894
5710.0 0.0001716
5730.0 0.00017493
5750.0 0.00016948
5770.0 0.00016335
5790.0 0.00015054
5810.0 0.00013207
5830.0 0.00014621
5850.0 0.0001676
5870.0 0.00017565
5890.0 0.00018011
5910.0 0.00018386
5930.0 0.00018772
5950.0 0.00018782
5970.0 0.0001894
5990.0 0.00018993
6010.0 0.00018843
6030.0 0.00018551
6050.0 0.00018676
6070.0 0.00019119
6090.0 0.00019166
6110.0 0.00018879
6130.0 0.00018679
6150.0 0.00018287
6170.0 0.00017845
6190.0 0.00017576
6210.0 0.00017266
6230.0 0.00017289
6250.0 0.00017251
6270.0 0.00017206
6290.0 0.00017304
6310.0 0.00017392
6330.0 0.0001727
6350.0 0.00016987
6370.0 0.00016873
6390.0 0.00016879
6410.0 0.00016579
6430.0 0.00016374
6450.0 0.00016163
6470.0 0.00015946
6490.0 0.0001583
6510.0 0.00015784
6530.0 0.0001547
6550.0 0.00015226
6570.0 0.00015128
6590.0 0.00015112
6610.0 0.00015063
6630.0 0.00014574
6650.0 0.00014228
6670.0 0.00014117
6690.0 0.00013902
6710.0 0.00013569
6730.0 0.00013436
6750.0 0.00013494
6770.0 0.00014317
6790.0 0.00016232
6810.0 0.00015211
6830.0 0.00013083
6850.0 0.00012518
6870.0 0.00012216
6890.0 0.00012109
6910.0 0.00012015
6930.0 0.00011932
6950.0 0.00011713
6970.0 0.00011277
6990.0 0.00011027
7010.0 0.00011045
7030.0 0.00010899
7050.0 0.00010576
7070.0 0.00010409
7090.0 0.00010404
7110.0 0.00010504
7130.0 0.00010325
7150.0 0.00010165
7170.0 0.00010043
7190.0 0.00010062
7210.0 9.8936e-05
7230.0 9.7325e-05
7250.0 9.688e-05
7270.0 9.5814e-05
7290.0 9.5094e-05
7310.0 9.5698e-05
7330.0 9.3285e-05
7350.0 8.9692e-05
7370.0 8.6086e-05
7390.0 8.3378e-05
7410.0 8.329e-05
7430.0 8.2509e-05
7450.0 8.1476e-05
7470.0 8.0295e-05
7490.0 7.8074e-05
7510.0 7.6301e-05
7530.0 7.5295e-05
7550.0 7.8299e-05
7570.0 7.7073e-05
7590.0 7.0563e-05
7610.0 6.7661e-05
7630.0 7.0966e-05
7650.0 7.0531e-05
7670.0 7.1211e-05
7690.0 7.4311e-05
7710.0 7.4894e-05
7730.0 7.3278e-05
7750.0 7.7041e-05
7770.0 7.2443e-05
7790.0 6.9015e-05
7810.0 7.3024e-05
7830.0 7.4022e-05
7850.0 7.6062e-05
7870.0 7.5545e-05
7890.0 7.5787e-05
7910.0 7.4235e-05
7930.0 7.4654e-05
7950.0 7.7988e-05
7970.0 7.6447e-05
7990.0 6.9593e-05
8010.0 9.1377e-05
8030.0 8.9607e-05
8050.0 8.8133e-05
8070.0 8.5469e-05
8090.0 7.6752e-05
8110.0 7.6074e-05
8130.0 8.4417e-05
8150.0 8.8971e-05
8170.0 9.1136e-05
8190.0 9.4655e-05
8210.0 9.1617e-05
8230.0 9.1643e-05
8250.0 9.1368e-05
8270.0 9.0523e-05
8290.0 8.8989e-05
8310.0 8.4715e-05
8330.0 8.3433e-05
8350.0 8.5726e-05
8370.0 8.6587e-05
8390.0 8.4849e-05
8410.0 8.382e-05
8430.0 8.1247e-05
8450.0 8.0041e-05
8470.0 8.5115e-05
8490.0 8.5692e-05
8510.0 8.0878e-05
8530.0 7.9357e-05
8550.0 7.8445e-05
8570.0 7.4134e-05
8590.0 7.4306e-05
8610.0 7.5249e-05
8630.0 7.7101e-05
8650.0 7.713e-05
8670.0 7.7073e-05
8690.0 7.568e-05
8710.0 7.3121e-05
8730.0 7.134e-05
8750.0 7.0035e-05
8770.0 6.9993e-05
8790.0 7.1518e-05
8810.0 6.8286e-05
8830.0 6.7827e-05
8850.0 7.0385e-05
8870.0 6.6799e-05
8890.0 6.26e-05
8910.0 6.1352e-05
8930.0 6.0626e-05
8950.0 5.7189e-05
8970.0 5.4858e-05
8990.0 5.3697e-05
9010.0 5.0885e-05
9030.0 5.0167e-05
9050.0 4.9902e-05
9070.0 4.9661e-05
9090.0 4.9416e-05
9110.0 4.9166e-05
9130.0 4.8916e-05
9150.0 4.8668e-05
9170.0 4.8417e-05
9190.0 4.8164e-05
9210.0 4.7908e-05
9230.0 4.7651e-05
9250.0 4.7392e-05
9270.0 4.7132e-05
9290.0 4.6871e-05
9310.0 4.6626e-05
9330.0 4.6406e-05
9350.0 4.6186e-05
9370.0 4.5964e-05
9390.0 4.5741e-05
9410.0 4.5517e-05
9430.0 4.5293e-05
9450.0 4.5067e-05
9470.0 4.4864e-05
9490.0 4.4648e-05
9510.0 4.4408e-05
9530.0 4.4169e-05
9550.0 4.3936e-05
9570.0 4.3705e-05
9590.0 4.3474e-05
9610.0 4.3268e-05
9630.0 4.3066e-05
9650.0 4.2863e-05
9670.0 4.2658e-05
9690.0 4.2455e-05
9710.0 4.2252e-05
9730.0 4.2047e-05
9750.0 4.1843e-05
9770.0 4.1642e-05
9790.0 4.1439e-05
9810.0 4.1234e-05
9830.0 4.1033e-05
9850.0 4.081e-05
9870.0 4.0572e-05
9890.0 4.0395e-05
9910.0 4.021e-05
9930.0 3.9992e-05
9950.0 3.9794e-05
9970.0 3.961e-05
9990.0 3.9421e-05
10010.0 3.9231e-05
10030.0 3.9039e-05
10050.0 3.8845e-05
10070.0 3.8652e-05
10090.0 3.8461e-05
10110.0 3.8269e-05
10130.0 3.8078e-05
10150.0 3.789e-05
10170.0 3.7702e-05
10190.0 3.7515e-05
10210.0 3.733e-05
10230.0 3.7147e-05
10250.0 3.6964e-05
10270.0 3.6783e-05
10290.0 3.6604e-05
10310.0 3.6426e-05
10330.0 3.6248e-05
10350.0 3.6073e-05
10370.0 3.59e-05
10390.0 3.5726e-05
10410.0 3.5529e-05
10430.0 3.5326e-05
10450.0 3.5187e-05
10470.0 3.5034e-05
10490.0 3.488e-05
10510.0 3.4724e-05
10530.0 3.4563e-05
10550.0 3.4404e-05
10570.0 3.4249e-05
10590.0 3.4093e-05
10610.0 3.3936e-05
10630.0 3.3785e-05
10650.0 3.3635e-05
10670.0 3.3483e-05
10690.0 3.3334e-05
10710.0 3.319e-05
10730.0 3.3044e-05
10750.0 3.2897e-05
10770.0 3.2758e-05
10790.0 3.2619e-05
10810.0 3.2479e-05
10830.0 3.2342e-05
10850.0 3.221e-05
10870.0 3.2073e-05
10890.0 3.1937e-05
10910.0 3.1805e-05
10930.0 3.1671e-05
10950.0 3.153e-05
10970.0 3.1388e-05
10990.0 3.1245e-05
11010.0 3.0013e-05
11030.0 2.9859e-05
11050.0 2.9711e-05
11070.0 2.9558e-05
11090.0 2.9393e-05
11110.0 2.9233e-05
11130.0 2.9073e-05
11150.0 2.8902e-05
11170.0 2.8727e-05
11190.0 2.8557e-05
11210.0 2.838e-05
11230.0 2.8196e-05
11250.0 2.8017e-05
11270.0 2.7843e-05
11290.0 2.7664e-05
11310.0 2.749e-05
11330.0 2.7332e-05
11350.0 2.7177e-05
11370.0 2.7027e-05
11390.0 2.6889e-05
11410.0 2.6762e-05
11430.0 2.6634e-05
11450.0 2.6515e-05
11470.0 2.6405e-05
11490.0 2.6295e-05
11510.0 2.6183e-05
11530.0 2.6078e-05
11550.0 2.5972e-05
11570.0 2.5859e-05
11590.0 2.5745e-05
11610.0 2.5631e-05
11630.0 2.5508e-05
11650.0 2.5376e-05
11670.0 2.5247e-05
11690.0 2.5113e-05
11710.0 2.497e-05
11730.0 2.4825e-05
11750.0 2.4684e-05
11770.0 2.4534e-05
11790.0 2.4381e-05
11810.0 2.4234e-05
11830.0 2.4087e-05
11850.0 2.3933e-05
11870.0 2.3787e-05
11890.0 2.365e-05
11910.0 2.3512e-05
11930.0 2.3378e-05
11950.0 2.3256e-05
11970.0 2.3139e-05
11990.0 2.3024e-05
12010.0 2.292e-05
12030.0 2.2827e-05
12050.0 2.2738e-05
12070.0 2.2655e-05
12090.0 2.2585e-05
12110.0 2.252e-05
12130.0 2.2459e-05
12150.0 2.2406e-05
12170.0 2.2359e-05
12190.0 2.2311e-05
12210.0 2.2266e-05
12230.0 2.2223e-05
12250.0 2.2178e-05
12270.0 2.2127e-05
12290.0 2.2074e-05
12310.0 2.2016e-05
12330.0 2.1947e-05
12350.0 2.1869e-05
12370.0 2.1784e-05
12390.0 2.1689e-05
12410.0 2.1575e-05
12430.0 2.1458e-05
12450.0 2.1331e-05
12470.0 2.1191e-05
12490.0 2.1041e-05
12510.0 2.089e-05
12530.0 2.0727e-05
12550.0 2.0554e-05
12570.0 2.0381e-05
12590.0 2.0207e-05
12610.0 2.0023e-05
12630.0 1.9837e-05
12650.0 1.9661e-05
12670.0 1.9482e-05
12690.0 1.93e-05
12710.0 1.9129e-05
12730.0 1.8963e-05
12750.0 1.8793e-05
12770.0 1.8634e-05
12790.0 1.8487e-05
12810.0 1.8344e-05
12830.0 1.8205e-05
12850.0 1.8082e-05
12870.0 1.7969e-05
12890.0 1.786e-05
12910.0 1.7763e-05
12930.0 1.7679e-05
12950.0 1.7601e-05
12970.0 1.7534e-05
12990.0 1.748e-05
13010.0 1.7436e-05
13030.0 1.74e-05
13050.0 1.7375e-05
13070.0 1.7359e-05
13090.0 1.7349e-05
13110.0 1.7345e-05
13130.0 1.7345e-05
13150.0 1.7346e-05
13170.0 1.7347e-05
13190.0 1.7345e-05
13210.0 1.7338e-05
13230.0 1.7324e-05
13250.0 1.7302e-05
13270.0 1.7271e-05
13290.0 1.7229e-05
13310.0 1.7174e-05
13330.0 1.7109e-05
13350.0 1.7035e-05
13370.0 1.6947e-05
13390.0 1.6847e-05
13410.0 1.6743e-05
13430.0 1.6628e-05
13450.0 1.6501e-05
13470.0 1.637e-05
13490.0 1.6236e-05
13510.0 1.6087e-05
13530.0 1.5934e-05
13550.0 1.5783e-05
13570.0 1.5625e-05
13590.0 1.5459e-05
13610.0 1.5295e-05
13630.0 1.5133e-05
13650.0 1.4963e-05
13670.0 1.4792e-05
13690.0 1.4627e-05
13710.0 1.4459e-05
13730.0 1.4284e-05
13750.0 1.4121e-05
13770.0 1.3961e-05
13790.0 1.3799e-05
13810.0 1.3641e-05
13830.0 1.3494e-05
13850.0 1.3346e-05
13870.0 1.3201e-05
13890.0 1.3065e-05
13910.0 1.2936e-05
13930.0 1.2806e-05
13950.0 1.2683e-05
13970.0 1.257e-05
13990.0 1.2459e-05
14010.0 1.235e-05
14030.0 1.2249e-05
14050.0 1.2154e-05
14070.0 1.2057e-05
14090.0 1.1967e-05
14110.0 1.1884e-05
14130.0 1.1803e-05
14150.0 1.1724e-05
14170.0 1.1652e-05
14190.0 1.1583e-05
14210.0 1.1515e-05
14230.0 1.1451e-05
14250.0 1.1391e-05
14270.0 1.133e-05
14290.0 1.127e-05
14310.0 1.1215e-05
14330.0 1.116e-05
14350.0 1.1104e-05
14370.0 1.105e-05
14390.0 1.0999e-05
14410.0 1.0946e-05
14430.0 1.0894e-05
14450.0 1.0844e-05
14470.0 1.0794e-05
14490.0 1.0742e-05
14510.0 1.0692e-05
14530.0 1.0643e-05
14550.0 1.0593e-05
14570.0 1.0542e-05
14590.0 1.0493e-05
14610.0 1.0443e-05
14630.0 1.0391e-05
14650.0 1.0339e-05
14670.0 1.0288e-05
14690.0 1.0235e-05
14710.0 1.018e-05
14730.0 1.0128e-05
14750.0 1.0074e-05
14770.0 1.0018e-05
14790.0 9.9626e-06
14810.0 9.9075e-06
14830.0 9.8481e-06
14850.0 9.7887e-06
14870.0 9.7306e-06
14890.0 9.6714e-06
14910.0 9.6108e-06
14930.0 9.5532e-06
14950.0 9.4987e-06
14970.0 9.445e-06
14990.0 9.3959e-06
15010.0 9.3526e-06
15030.0 9.3129e-06
15050.0 9.276e-06
15070.0 9.2445e-06
15090.0 9.2155e-06
15110.0 9.1873e-06
15130.0 9.1604e-06
15150.0 9.135e-06
15170.0 9.1091e-06
15190.0 9.083e-06
15210.0 9.0577e-06
15230.0 9.0326e-06
15250.0 9.0067e-06
15270.0 8.981e-06
15290.0 8.9564e-06
15310.0 8.9311e-06
15330.0 8.9056e-06
15350.0 8.8808e-06
15370.0 8.8562e-06
15390.0 8.8304e-06
15410.0 8.8053e-06
15430.0 8.7808e-06
15450.0 8.7558e-06
15470.0 8.7304e-06
15490.0 8.7061e-06
15510.0 8.6818e-06
15530.0 8.6568e-06
15550.0 8.6322e-06
15570.0 8.6083e-06
15590.0 8.5835e-06
15610.0 8.5584e-06
15630.0 8.5345e-06
15650.0 8.5105e-06
15670.0 8.4858e-06
15690.0 8.4617e-06
15710.0 8.4383e-06
15730.0 8.4139e-06
15750.0 8.3896e-06
15770.0 8.3661e-06
15790.0 8.3425e-06
15810.0 8.3179e-06
15830.0 8.2942e-06
15850.0 8.2711e-06
15870.0 8.2474e-06
15890.0 8.2236e-06
15910.0 8.2007e-06
15930.0 8.1774e-06
15950.0 8.1534e-06
15970.0 8.1303e-06
15990.0 8.1075e-06
16010.0 8.084e-06
16030.0 8.0603e-06
16050.0 8.038e-06
16070.0 8.0152e-06
16090.0 7.9919e-06
16110.0 7.9692e-06
16130.0 7.9471e-06
16150.0 7.9236e-06
16170.0 7.9006e-06
16190.0 7.8785e-06
16210.0 7.8559e-06
16230.0 7.8329e-06
16250.0 7.8107e-06
16270.0 7.7889e-06
16290.0 7.7661e-06
16310.0 7.7437e-06
16330.0 7.722e-06
16350.0 7.6998e-06
16370.0 7.6767e-06
16390.0 7.655e-06
16410.0 7.6334e-06
16430.0 7.6111e-06
16450.0 7.589e-06
16470.0 7.5679e-06
16490.0 7.5458e-06
16510.0 7.5235e-06
16530.0 7.5021e-06
16550.0 7.4807e-06
16570.0 7.4584e-06
16590.0 7.4365e-06
16610.0 7.4156e-06
16630.0 7.394e-06
16650.0 7.3722e-06
16670.0 7.3511e-06
16690.0 7.3301e-06
16710.0 7.3079e-06
16730.0 7.2865e-06
16750.0 7.2657e-06
16770.0 7.2442e-06
16790.0 7.2225e-06
16810.0 7.2018e-06
16830.0 7.1809e-06
16850.0 7.1593e-06
16870.0 7.1382e-06
16890.0 7.1177e-06
16910.0 7.0962e-06
16930.0 7.0746e-06
16950.0 7.054e-06
16970.0 7.0333e-06
16990.0 7.0118e-06
17010.0 6.991e-06
17030.0 6.9707e-06
17050.0 6.9495e-06
17070.0 6.9283e-06
17090.0 6.9079e-06
17110.0 6.8872e-06
17130.0 6.8656e-06
17150.0 6.8449e-06
17170.0 6.8246e-06
17190.0 6.8036e-06
17210.0 6.7827e-06
17230.0 6.7625e-06
17250.0 6.7419e-06
17270.0 6.7205e-06
17290.0 6.6999e-06
17310.0 6.6797e-06
17330.0 6.6586e-06
17350.0 6.6375e-06
17370.0 6.6175e-06
17390.0 6.597e-06
17410.0 6.5759e-06
17430.0 6.5556e-06
17450.0 6.5355e-06
17470.0 6.5141e-06
17490.0 6.4932e-06
17510.0 6.4732e-06
17530.0 6.4526e-06
17550.0 6.4314e-06
17570.0 6.4112e-06
17590.0 6.3911e-06
17610.0 6.3701e-06
17630.0 6.3494e-06
17650.0 6.3293e-06
17670.0 6.3087e-06
17690.0 6.2871e-06
17710.0 6.267e-06
17730.0 6.2468e-06
17750.0 6.2258e-06
17770.0 6.2051e-06
17790.0 6.1853e-06
17810.0 6.1644e-06
17830.0 6.1433e-06
17850.0 6.123e-06
17870.0 6.1027e-06
17890.0 6.0815e-06
17910.0 6.0606e-06
17930.0 6.0407e-06
17950.0 6.02e-06
17970.0 5.999e-06
17990.0 5.9788e-06
18010.0 5.9585e-06
18030.0 5.937e-06
18050.0 5.9163e-06
18070.0 5.8961e-06
18090.0 5.8752e-06
18110.0 5.854e-06
18130.0 5.8338e-06
18150.0 5.8134e-06
18170.0 5.7922e-06
18190.0 5.7715e-06
18210.0 5.7513e-06
18230.0 5.7301e-06
18250.0 5.7087e-06
18270.0 5.6885e-06
18290.0 5.6678e-06
18310.0 5.6466e-06
18330.0 5.6259e-06
18350.0 5.6057e-06
18370.0 5.5844e-06
18390.0 5.5632e-06
18410.0 5.5428e-06
18430.0 5.522e-06
18450.0 5.5003e-06
18470.0 5.4795e-06
18490.0 5.4591e-06
18510.0 5.4379e-06
18530.0 5.4167e-06
18550.0 5.3964e-06
18570.0 5.3754e-06
18590.0 5.3537e-06
18610.0 5.3329e-06
18630.0 5.3122e-06
18650.0 5.2907e-06
18670.0 5.2692e-06
18690.0 5.2489e-06
18710.0 5.2278e-06
18730.0 5.2063e-06
18750.0 5.1854e-06
18770.0 5.1648e-06
18790.0 5.1428e-06
18810.0 5.1214e-06
18830.0 5.1007e-06
18850.0 5.0795e-06
18870.0 5.0577e-06
18890.0 5.0369e-06
18910.0 5.0161e-06
18930.0 4.9943e-06
18950.0 4.9729e-06
18970.0 4.9521e-06
18990.0 4.9307e-06
19010.0 4.9084e-06
19030.0 4.8876e-06
19050.0 4.8665e-06
19070.0 4.8447e-06
19090.0 4.8233e-06
19110.0 4.8026e-06
19130.0 4.7808e-06
19150.0 4.7588e-06
19170.0 4.7377e-06
19190.0 4.7164e-06
19210.0 4.6943e-06
19230.0 4.6726e-06
19250.0 4.6518e-06
19270.0 4.6301e-06
19290.0 4.6082e-06
19310.0 4.5871e-06
19330.0 4.5657e-06
19350.0 4.5432e-06
19370.0 4.5216e-06
19390.0 4.5004e-06
19410.0 4.4785e-06
19430.0 4.4564e-06
19450.0 4.4353e-06
19470.0 4.4138e-06
19490.0 4.3916e-06
19510.0 4.3699e-06
19530.0 4.3487e-06
19550.0 4.3264e-06
19570.0 4.304e-06
19590.0 4.2828e-06
19610.0 4.2611e-06
19630.0 4.2388e-06
19650.0 4.2172e-06
19670.0 4.196e-06
19690.0 4.1736e-06
19710.0 4.1514e-06
19730.0 4.13e-06
19750.0 4.1081e-06
19770.0 4.0854e-06
19790.0 4.0637e-06
19810.0 4.0423e-06
19830.0 4.02e-06
19850.0 3.9979e-06
19870.0 3.9768e-06
19890.0 3.9552e-06
19910.0 3.9334e-06
19930.0 3.9132e-06
19950.0 3.8942e-06
19970.0 3.876e-06
19990.0 3.86e-06
20010.0 3.8468e-06
20030.0 3.8354e-06
20050.0 3.8261e-06
20070.0 3.8189e-06
20090.0 3.8132e-06
20110.0 3.8081e-06
20130.0 3.8039e-06
20150.0 3.8001e-06
20170.0 3.7963e-06
20190.0 3.7924e-06
20210.0 3.7885e-06
20230.0 3.7843e-06
20250.0 3.7797e-06
20270.0 3.775e-06
20290.0 3.77e-06
20310.0 3.7646e-06
20330.0 3.7587e-06
20350.0 3.7529e-06
20370.0 3.7467e-06
20390.0 3.7399e-06
20410.0 3.7331e-06
20430.0 3.7263e-06
20450.0 3.7189e-06
20470.0 3.7113e-06
20490.0 3.704e-06
20510.0 3.6966e-06
20530.0 3.689e-06
20550.0 3.6816e-06
20570.0 3.6747e-06
20590.0 3.6675e-06
20610.0 3.6606e-06
20630.0 3.6541e-06
20650.0 3.6476e-06
20670.0 3.6409e-06
20690.0 3.6346e-06
20710.0 3.6283e-06
20730.0 3.6217e-06
20750.0 3.6148e-06
20770.0 3.608e-06
20790.0 3.6006e-06
20810.0 3.5925e-06
20830.0 3.5841e-06
20850.0 3.5752e-06
20870.0 3.5653e-06
20890.0 3.5547e-06
20910.0 3.544e-06
20930.0 3.5325e-06
20950.0 3.5202e-06
20970.0 3.5078e-06
20990.0 3.4953e-06
21010.0 3.4818e-06
21030.0 3.4684e-06
21050.0 3.4553e-06
21070.0 3.4419e-06
21090.0 3.4281e-06
21110.0 3.4152e-06
21130.0 3.4025e-06
21150.0 3.3895e-06
21170.0 3.3768e-06
21190.0 3.3648e-06
21210.0 3.3523e-06
21230.0 3.3396e-06
21250.0 3.3275e-06
21270.0 3.3154e-06
21290.0 3.3026e-06
21310.0 3.2898e-06
21330.0 3.2775e-06
21350.0 3.2643e-06
21370.0 3.2507e-06
21390.0 3.2371e-06
21410.0 3.2233e-06
21430.0 3.2082e-06
21450.0 3.1933e-06
21470.0 3.1785e-06
21490.0 3.163e-06
21510.0 3.1469e-06
21530.0 3.1313e-06
21550.0 3.1154e-06
21570.0 3.0986e-06
21590.0 3.0821e-06
21610.0 3.0659e-06
21630.0 3.0492e-06
21650.0 3.0319e-06
21670.0 3.0159e-06
21690.0 2.9996e-06
21710.0 2.9829e-06
21730.0 2.9666e-06
21750.0 2.951e-06
21770.0 2.9345e-06
21790.0 2.9181e-06
21810.0 2.9025e-06
21830.0 2.8867e-06
21850.0 2.8704e-06
21870.0 2.8546e-06
21890.0 2.8394e-06
21910.0 2.8236e-06
21930.0 2.8078e-06
21950.0 2.7929e-06
21970.0 2.7778e-06
21990.0 2.7622e-06
22010.0 2.7477e-06
22030.0 2.7338e-06
22050.0 2.7198e-06
22070.0 2.7065e-06
22090.0 2.6948e-06
22110.0 2.6833e-06
22130.0 2.6721e-06
22150.0 2.6619e-06
22170.0 2.6526e-06
22190.0 2.6434e-06
22210.0 2.6348e-06
22230.0 2.6274e-06
22250.0 2.6203e-06
22270.0 2.6134e-06
22290.0 2.6073e-06
22310.0 2.6016e-06
22330.0 2.5958e-06
22350.0 2.5903e-06
22370.0 2.5852e-06
22390.0 2.5801e-06
22410.0 2.5748e-06
22430.0 2.5698e-06
22450.0 2.5649e-06
22470.0 2.5597e-06
22490.0 2.5545e-06
22510.0 2.5495e-06
22530.0 2.5441e-06
22550.0 2.5385e-06
22570.0 2.5334e-06
22590.0 2.5282e-06
22610.0 2.5229e-06
