#lamb flux
1010.0 3.9998e-06
1030.0 4.394e-06
1050.0 4.8473e-06
1070.0 5.3576e-06
1090.0 5.9373e-06
1110.0 6.5318e-06
1130.0 7.1302e-06
1150.0 7.757e-06
1170.0 8.4035e-06
1190.0 9.0166e-06
1210.0 9.6379e-06
1230.0 1.028e-05
1250.0 1.0909e-05
1270.0 1.152e-05
1290.0 1.2165e-05
1310.0 1.281e-05
1330.0 1.3429e-05
1350.0 1.4054e-05
1370.0 1.47e-05
1390.0 1.533e-05
1410.0 1.594e-05
1430.0 1.6579e-05
1450.0 1.7217e-05
1470.0 1.7834e-05
1490.0 1.8457e-05
1510.0 1.9116e-05
1530.0 1.974e-05
1550.0 2.0355e-05
1570.0 2.0991e-05
1590.0 2.1628e-05
1610.0 2.2236e-05
1630.0 2.2862e-05
1650.0 2.3505e-05
1670.0 2.4126e-05
1690.0 2.4739e-05
1710.0 2.5376e-05
1730.0 2.6015e-05
1750.0 2.6615e-05
1770.0 2.7231e-05
1790.0 2.786e-05
1810.0 2.8466e-05
1830.0 2.9061e-05
1850.0 2.9691e-05
1870.0 3.0302e-05
1890.0 3.089e-05
1910.0 3.1487e-05
1930.0 3.2096e-05
1950.0 3.2673e-05
1970.0 3.3239e-05
1990.0 3.3822e-05
2010.0 3.4391e-05
2030.0 3.4931e-05
2050.0 3.5483e-05
2070.0 3.6043e-05
2090.0 3.656e-05
2110.0 3.7066e-05
2130.0 3.758e-05
2150.0 3.8072e-05
2170.0 3.8527e-05
2190.0 3.8991e-05
2210.0 3.9445e-05
2230.0 3.9861e-05
2250.0 4.026e-05
2270.0 4.0668e-05
2290.0 4.104e-05
2310.0 4.1371e-05
2330.0 4.17e-05
2350.0 4.2016e-05
2370.0 4.2291e-05
2390.0 4.2556e-05
2410.0 4.2839e-05
2430.0 4.3105e-05
2450.0 4.3371e-05
2470.0 4.3695e-05
2490.0 4.4117e-05
2510.0 4.4648e-05
2530.0 4.5491e-05
2550.0 4.6954e-05
2570.0 4.9318e-05
2590.0 5.2909e-05
2610.0 5.8645e-05
2630.0 6.6629e-05
2650.0 7.6308e-05
2670.0 8.7696e-05
2690.0 0.00010025
2710.0 0.00011212
2730.0 0.00012249
2750.0 0.00013156
2770.0 0.00013845
2790.0 0.00014321
2810.0 0.0001466
2830.0 0.00014918
2850.0 0.00015088
2870.0 0.00015226
2890.0 0.00015363
2910.0 0.00015493
2930.0 0.00015604
2950.0 0.00015725
2970.0 0.0001585
2990.0 0.0001596
3010.0 0.0015889
3030.0 0.0015999
3050.0 0.0016101
3070.0 0.0016172
3090.0 0.0016228
3110.0 0.0016245
3130.0 0.0016195
3150.0 0.0016069
3170.0 0.001585
3190.0 0.0015545
3210.0 0.0015193
3230.0 0.0014831
3250.0 0.0014481
3270.0 0.0014299
3290.0 0.0014199
3310.0 0.0014387
3330.0 0.0014701
3350.0 0.0015145
3370.0 0.0015731
3390.0 0.0016435
3410.0 0.0017169
3430.0 0.0017959
3450.0 0.0018821
3470.0 0.0019707
3490.0 0.0020596
3510.0 0.0021539
3530.0 0.0022504
3550.0 0.0023517
3570.0 0.0024613
3590.0 0.0025762
3610.0 0.0027052
3630.0 0.0028201
3650.0 0.0029353
3670.0 0.0030278
3690.0 0.0030947
3710.0 0.003134
3730.0 0.0031315
3750.0 0.0031312
3770.0 0.0031483
3790.0 0.0032407
3810.0 0.0034342
3830.0 0.0036933
3850.0 0.0040643
3870.0 0.0045601
3890.0 0.0051192
3910.0 0.0056885
3930.0 0.0061527
3950.0 0.0064419
3970.0 0.0057424
3990.0 0.0044624
4010.0 0.0043044
4030.0 0.0052239
4050.0 0.006069
4070.0 0.0053578
4090.0 0.0037132
4110.0 0.0038643
4130.0 0.0048802
4150.0 0.0053758
4170.0 0.0047738
4190.0 0.0042756
4210.0 0.0051501
4230.0 0.0055895
4250.0 0.0054661
4270.0 0.0055636
4290.0 0.0052183
4310.0 0.0056225
4330.0 0.0064304
4350.0 0.0075465
4370.0 0.0078225
4390.0 0.0074751
4410.0 0.0064325
4430.0 0.0052552
4450.0 0.0041033
4470.0 0.0041885
4490.0 0.0046769
4510.0 0.0060743
4530.0 0.0064348
4550.0 0.0065073
4570.0 0.0075059
4590.0 0.0096419
4610.0 0.013268
4630.0 0.015963
4650.0 0.015913
4670.0 0.016323
4690.0 0.017893
4710.0 0.017636
4730.0 0.014112
4750.0 0.010164
4770.0 0.0084791
4790.0 0.0078066
4810.0 0.0072233
4830.0 0.0076241
4850.0 0.0088612
4870.0 0.010996
4890.0 0.011633
4910.0 0.010032
4930.0 0.010054
4950.0 0.012421
4970.0 0.016127
4990.0 0.018848
5010.0 0.018845
5030.0 0.015524
5050.0 0.01087
5070.0 0.0079984
5090.0 0.0069704
5110.0 0.0071052
5130.0 0.0077773
5150.0 0.0075035
5170.0 0.0075096
5190.0 0.0074086
5210.0 0.0074236
5230.0 0.0079142
5250.0 0.008199
5270.0 0.0091768
5290.0 0.01098
5310.0 0.012044
5330.0 0.012545
5350.0 0.013119
5370.0 0.014197
5390.0 0.014573
5410.0 0.013213
5430.0 0.011806
5450.0 0.011857
5470.0 0.014234
5490.0 0.018425
5510.0 0.022192
5530.0 0.023508
5550.0 0.022665
5570.0 0.021098
5590.0 0.019475
5610.0 0.018625
5630.0 0.018843
5650.0 0.019295
5670.0 0.018721
5690.0 0.017772
5710.0 0.017175
5730.0 0.015029
5750.0 0.011594
5770.0 0.010516
5790.0 0.011856
5810.0 0.013433
5830.0 0.015024
5850.0 0.015665
5870.0 0.015306
5890.0 0.014173
5910.0 0.013335
5930.0 0.013534
5950.0 0.01437
5970.0 0.014598
5990.0 0.013013
6010.0 0.010551
6030.0 0.0084767
6050.0 0.0077026
6070.0 0.0082852
6090.0 0.0093446
6110.0 0.0094393
6130.0 0.008717
6150.0 0.0085861
6170.0 0.0095852
6190.0 0.011416
6210.0 0.013757
6230.0 0.01536
6250.0 0.014776
6270.0 0.012983
6290.0 0.01073
6310.0 0.0084653
6330.0 0.0070894
6350.0 0.006944
6370.0 0.0076522
6390.0 0.0085068
6410.0 0.0098824
6430.0 0.011969
6450.0 0.014725
6470.0 0.017713
6490.0 0.020395
6510.0 0.021484
6530.0 0.020558
6550.0 0.019742
6570.0 0.019786
6590.0 0.019471
6610.0 0.018252
6630.0 0.017122
6650.0 0.016136
6670.0 0.016115
6690.0 0.015716
6710.0 0.014174
6730.0 0.012342
6750.0 0.011143
6770.0 0.01162
6790.0 0.012414
6810.0 0.013289
6830.0 0.013543
6850.0 0.012875
6870.0 0.012373
6890.0 0.012088
6910.0 0.011445
6930.0 0.010946
6950.0 0.011086
6970.0 0.011432
6990.0 0.012265
7010.0 0.013156
7030.0 0.012799
7050.0 0.011617
7070.0 0.010235
7090.0 0.0086545
7110.0 0.0078366
7130.0 0.0083129
7150.0 0.0089611
7170.0 0.009009
7190.0 0.0087507
7210.0 0.0087155
7230.0 0.0098465
7250.0 0.011393
7270.0 0.012469
7290.0 0.012672
7310.0 0.011874
7330.0 0.010782
7350.0 0.0099378
7370.0 0.0095784
7390.0 0.0096254
7410.0 0.010229
7430.0 0.011614
7450.0 0.013
7470.0 0.014632
7490.0 0.016318
7510.0 0.015147
7530.0 0.013276
7550.0 0.011312
7570.0 0.0094841
7590.0 0.0077599
7610.0 0.0074711
7630.0 0.0080003
7650.0 0.0089686
7670.0 0.010266
7690.0 0.011332
7710.0 0.01272
7730.0 0.013472
7750.0 0.013987
7770.0 0.014487
7790.0 0.0145
7810.0 0.014459
7830.0 0.01395
7850.0 0.01354
7870.0 0.012996
7890.0 0.011893
7910.0 0.010772
7930.0 0.0096587
7950.0 0.0084974
7970.0 0.008137
7990.0 0.0084809
8010.0 0.0095163
8030.0 0.0096088
8050.0 0.0098995
8070.0 0.0097844
8090.0 0.0097862
8110.0 0.0095194
8130.0 0.0089432
8150.0 0.008358
8170.0 0.0082933
8190.0 0.0084271
8210.0 0.0085283
8230.0 0.0081592
8250.0 0.0077423
8270.0 0.0068268
8290.0 0.0055475
8310.0 0.004268
8330.0 0.0029871
8350.0 0.0022078
8370.0 0.0021096
8390.0 0.0024253
8410.0 0.0029466
8430.0 0.0036644
8450.0 0.0040494
8470.0 0.0043196
8490.0 0.0046671
8510.0 0.0049786
8530.0 0.005518
8550.0 0.006511
8570.0 0.0075276
8590.0 0.0083973
8610.0 0.0097306
8630.0 0.011285
8650.0 0.012004
8670.0 0.012143
8690.0 0.011975
8710.0 0.011508
8730.0 0.011047
8750.0 0.010457
8770.0 0.010249
8790.0 0.0098896
8810.0 0.0091695
8830.0 0.0085584
8850.0 0.0074096
8870.0 0.0067159
8890.0 0.0062261
8910.0 0.0067494
8930.0 0.0064804
8950.0 0.0066204
8970.0 0.0067331
8990.0 0.0067384
9010.0 0.0068247
9030.0 0.0066324
9050.0 0.0066193
9070.0 0.0066254
9090.0 0.0066318
9110.0 0.0066395
9130.0 0.0066465
9150.0 0.006654
9170.0 0.0066544
9190.0 0.0066452
9210.0 0.0067026
9230.0 0.0067008
9250.0 0.0067057
9270.0 0.0067128
9290.0 0.0067214
9310.0 0.0067313
9330.0 0.0067422
9350.0 0.0067538
9370.0 0.0067661
9390.0 0.0067788
9410.0 0.0067921
9430.0 0.006806
9450.0 0.0068201
9470.0 0.0068348
9490.0 0.0068499
9510.0 0.0068655
9530.0 0.0068815
9550.0 0.006898
9570.0 0.006915
9590.0 0.0069324
9610.0 0.0069502
9630.0 0.0069686
9650.0 0.0069874
9670.0 0.0070065
9690.0 0.0070261
9710.0 0.0070462
9730.0 0.0070665
9750.0 0.0070873
9770.0 0.0071086
9790.0 0.0071302
9810.0 0.007152
9830.0 0.0071743
9850.0 0.0071969
9870.0 0.0072197
9890.0 0.0072428
9910.0 0.0072664
9930.0 0.00729
9950.0 0.0073103
9970.0 0.0073356
9990.0 0.0073609
10010.0 0.0073835
10030.0 0.0074085
10050.0 0.0074312
10070.0 0.0074415
10090.0 0.0074715
10110.0 0.0075008
10130.0 0.0075288
10150.0 0.0075561
10170.0 0.0075822
10190.0 0.0076071
10210.0 0.0076323
10230.0 0.0076575
10250.0 0.0076817
10270.0 0.0077059
10290.0 0.0077304
10310.0 0.0077541
10330.0 0.0077771
10350.0 0.0078005
10370.0 0.0078237
10390.0 0.0078459
10410.0 0.0078678
10430.0 0.0078901
10450.0 0.0079114
10470.0 0.0079319
10490.0 0.0079524
10510.0 0.0079726
10530.0 0.0079912
10550.0 0.0080097
10570.0 0.0080282
10590.0 0.0080456
10610.0 0.0080621
10630.0 0.0080786
10650.0 0.0080943
10670.0 0.0081086
10690.0 0.0081226
10710.0 0.0081362
10730.0 0.0081486
10750.0 0.0081597
10770.0 0.0081711
10790.0 0.0081814
10810.0 0.0081902
10830.0 0.0081982
10850.0 0.0082052
10870.0 0.0082084
10890.0 0.0082072
10910.0 0.0081997
10930.0 0.0081806
10950.0 0.0081424
10970.0 0.008082
10990.0 0.0079975
11010.0 0.0079242
11030.0 0.0077587
11050.0 0.0075693
11070.0 0.0073527
11090.0 0.0071024
11110.0 0.0068538
11130.0 0.006605
11150.0 0.0063498
11170.0 0.0061018
11190.0 0.0058769
11210.0 0.0056613
11230.0 0.0054584
11250.0 0.0052821
11270.0 0.0051281
11290.0 0.0049882
11310.0 0.0048682
11330.0 0.004771
11350.0 0.0046843
11370.0 0.0046061
11390.0 0.0045367
11410.0 0.0044708
11430.0 0.0044005
11450.0 0.0043275
11470.0 0.0042509
11490.0 0.0041652
11510.0 0.0040683
11530.0 0.0039674
11550.0 0.0038606
11570.0 0.0037439
11590.0 0.0036243
11610.0 0.0035067
11630.0 0.0033851
11650.0 0.0032629
11670.0 0.0031501
11690.0 0.0030426
11710.0 0.0029382
11730.0 0.0028422
11750.0 0.0027567
11770.0 0.002675
11790.0 0.0025993
11810.0 0.0025315
11830.0 0.0024686
11850.0 0.0024066
11870.0 0.002349
11890.0 0.0022946
11910.0 0.0022392
11930.0 0.002183
11950.0 0.0021279
11970.0 0.0020712
11990.0 0.0020108
12010.0 0.0019507
12030.0 0.0018909
12050.0 0.0018293
12070.0 0.0017673
12090.0 0.0017105
12110.0 0.0016559
12130.0 0.0016043
12150.0 0.0015592
12170.0 0.0015215
12190.0 0.0014899
12210.0 0.0014676
12230.0 0.001455
12250.0 0.0014519
12270.0 0.0014591
12290.0 0.0014757
12310.0 0.0015002
12330.0 0.0015344
12350.0 0.0015759
12370.0 0.0016213
12390.0 0.0016715
12410.0 0.0017275
12430.0 0.0017809
12450.0 0.0018327
12470.0 0.001884
12490.0 0.0019312
12510.0 0.0019711
12530.0 0.0020067
12550.0 0.0020364
12570.0 0.0020578
12590.0 0.0020719
12610.0 0.0020794
12630.0 0.0020794
12650.0 0.0020725
12670.0 0.0020596
12690.0 0.0020408
12710.0 0.0020174
12730.0 0.0019901
12750.0 0.001958
12770.0 0.0019233
12790.0 0.001887
12810.0 0.0018482
12830.0 0.0018069
12850.0 0.0017658
12870.0 0.0017238
12890.0 0.0016792
12910.0 0.0016339
12930.0 0.0015886
12950.0 0.0015405
12970.0 0.0014901
12990.0 0.0014405
13010.0 0.0013898
13030.0 0.001337
13050.0 0.0012848
13070.0 0.0012347
13090.0 0.001184
13110.0 0.0011348
13130.0 0.0010898
13150.0 0.0010481
13170.0 0.0010088
13190.0 0.00097563
13210.0 0.00094825
13230.0 0.00092545
13250.0 0.00090814
13270.0 0.00089658
13290.0 0.00088983
13310.0 0.00088789
13330.0 0.00089017
13350.0 0.00089573
13370.0 0.00090443
13390.0 0.00091557
13410.0 0.00092714
13430.0 0.00093961
13450.0 0.00095257
13470.0 0.00096465
13490.0 0.00097548
13510.0 0.00098602
13530.0 0.00099498
13550.0 0.0010021
13570.0 0.0010081
13590.0 0.0010132
13610.0 0.0010169
13630.0 0.0010196
13650.0 0.0010219
13670.0 0.0010236
13690.0 0.0010247
13710.0 0.0010255
13730.0 0.0010261
13750.0 0.001026
13770.0 0.0010255
13790.0 0.0010244
13810.0 0.0010226
13830.0 0.0010199
13850.0 0.0010162
13870.0 0.0010114
13890.0 0.0010054
13910.0 0.00099831
13930.0 0.00098985
13950.0 0.00098033
13970.0 0.00097036
13990.0 0.00095958
14010.0 0.00094831
14030.0 0.0009373
14050.0 0.00092659
14070.0 0.00091591
14090.0 0.00090622
14110.0 0.00089761
14130.0 0.00088982
14150.0 0.00088303
14170.0 0.00087758
14190.0 0.00087319
14210.0 0.00086985
14230.0 0.00086769
14250.0 0.00086664
14270.0 0.00086679
14290.0 0.00086826
14310.0 0.00087081
14330.0 0.00087456
14350.0 0.0008797
14370.0 0.00088587
14390.0 0.00089277
14410.0 0.00090094
14430.0 0.00090998
14450.0 0.00091934
14470.0 0.0009293
14490.0 0.00094039
14510.0 0.00095164
14530.0 0.00096321
14550.0 0.00097606
14570.0 0.00099016
14590.0 0.001005
14610.0 0.0010218
14630.0 0.0010414
14650.0 0.0010628
14670.0 0.0010862
14690.0 0.0011132
14710.0 0.0011433
14730.0 0.001174
14750.0 0.0012075
14770.0 0.0012437
14790.0 0.0012802
14810.0 0.0013162
14830.0 0.0013543
14850.0 0.0013908
14870.0 0.0014241
14890.0 0.0014555
14910.0 0.0014844
14930.0 0.0015085
14950.0 0.001528
14970.0 0.001544
14990.0 0.0015554
15010.0 0.0015625
15030.0 0.0015663
15050.0 0.0015673
15070.0 0.0015662
15090.0 0.0015637
15110.0 0.0015603
15130.0 0.0015565
15150.0 0.0015525
15170.0 0.0015483
15190.0 0.0015441
15210.0 0.0015399
15230.0 0.0015359
15250.0 0.0015316
15270.0 0.0015275
15290.0 0.0015236
15310.0 0.0015196
15330.0 0.0015155
15350.0 0.0015116
15370.0 0.0015078
15390.0 0.0015037
15410.0 0.0014998
15430.0 0.0014961
15450.0 0.0014922
15470.0 0.0014882
15490.0 0.0014845
15510.0 0.0014808
15530.0 0.001477
15550.0 0.0014732
15570.0 0.0014696
15590.0 0.0014658
15610.0 0.001462
15630.0 0.0014584
15650.0 0.0014547
15670.0 0.001451
15690.0 0.0014473
15710.0 0.0014438
15730.0 0.0014401
15750.0 0.0014364
15770.0 0.0014328
15790.0 0.0014292
15810.0 0.0014254
15830.0 0.0014218
15850.0 0.0014182
15870.0 0.0014146
15890.0 0.0014109
15910.0 0.0014074
15930.0 0.0014037
15950.0 0.0014
15970.0 0.0013963
15990.0 0.0013928
16010.0 0.001389
16030.0 0.0013852
16050.0 0.0013817
16070.0 0.0013781
16090.0 0.0013743
16110.0 0.0013706
16130.0 0.0013671
16150.0 0.0013632
16170.0 0.0013594
16190.0 0.0013558
16210.0 0.001352
16230.0 0.0013482
16250.0 0.0013444
16270.0 0.0013408
16290.0 0.0013369
16310.0 0.001333
16330.0 0.0013293
16350.0 0.0013255
16370.0 0.0013214
16390.0 0.0013176
16410.0 0.0013138
16430.0 0.0013098
16450.0 0.0013058
16470.0 0.0013021
16490.0 0.001298
16510.0 0.001294
16530.0 0.00129
16550.0 0.0012861
16570.0 0.0012819
16590.0 0.0012778
16610.0 0.0012738
16630.0 0.0012697
16650.0 0.0012655
16670.0 0.0012615
16690.0 0.0012574
16710.0 0.0012531
16730.0 0.0012488
16750.0 0.0012447
16770.0 0.0012404
16790.0 0.0012361
16810.0 0.0012319
16830.0 0.0012277
16850.0 0.0012232
16870.0 0.0012189
16890.0 0.0012147
16910.0 0.0012102
16930.0 0.0012056
16950.0 0.0012013
16970.0 0.0011969
16990.0 0.0011923
17010.0 0.0011878
17030.0 0.0011834
17050.0 0.0011788
17070.0 0.0011742
17090.0 0.0011697
17110.0 0.0011651
17130.0 0.0011603
17150.0 0.0011557
17170.0 0.0011512
17190.0 0.0011464
17210.0 0.0011417
17230.0 0.0011371
17250.0 0.0011323
17270.0 0.0011274
17290.0 0.0011227
17310.0 0.0011179
17330.0 0.001113
17350.0 0.0011081
17370.0 0.0011034
17390.0 0.0010985
17410.0 0.0010935
17430.0 0.0010886
17450.0 0.0010838
17470.0 0.0010787
17490.0 0.0010737
17510.0 0.0010688
17530.0 0.0010638
17550.0 0.0010586
17570.0 0.0010537
17590.0 0.0010487
17610.0 0.0010436
17630.0 0.0010384
17650.0 0.0010334
17670.0 0.0010283
17690.0 0.001023
17710.0 0.0010179
17730.0 0.0010128
17750.0 0.0010076
17770.0 0.0010024
17790.0 0.00099734
17810.0 0.00099206
17830.0 0.00098672
17850.0 0.00098155
17870.0 0.00097636
17890.0 0.00097096
17910.0 0.00096563
17930.0 0.0009605
17950.0 0.00095518
17970.0 0.0009498
17990.0 0.00094458
18010.0 0.00093933
18030.0 0.00093381
18050.0 0.00092846
18070.0 0.00092321
18090.0 0.00091781
18110.0 0.00091232
18130.0 0.00090707
18150.0 0.00090175
18170.0 0.00089625
18190.0 0.00089087
18210.0 0.00088559
18230.0 0.00088008
18250.0 0.00087453
18270.0 0.00086922
18290.0 0.00086384
18310.0 0.0008583
18330.0 0.0008529
18350.0 0.00084761
18370.0 0.00084207
18390.0 0.00083656
18410.0 0.00083121
18430.0 0.00082578
18450.0 0.00082015
18470.0 0.00081473
18490.0 0.00080939
18510.0 0.00080387
18530.0 0.00079837
18550.0 0.00079305
18570.0 0.00078759
18590.0 0.00078198
18610.0 0.00077656
18630.0 0.00077118
18650.0 0.00076563
18670.0 0.00076008
18690.0 0.00075479
18710.0 0.00074934
18730.0 0.0007438
18750.0 0.0007384
18770.0 0.00073308
18790.0 0.00072745
18810.0 0.00072196
18830.0 0.00071663
18850.0 0.00071119
18870.0 0.00070564
18890.0 0.0007003
18910.0 0.00069498
18930.0 0.00068945
18950.0 0.00068401
18970.0 0.00067871
18990.0 0.00067328
19010.0 0.00066768
19030.0 0.0006624
19050.0 0.00065708
19070.0 0.00065161
19090.0 0.00064623
19110.0 0.00064102
19130.0 0.00063557
19150.0 0.00063012
19170.0 0.00062484
19190.0 0.00061954
19210.0 0.00061408
19230.0 0.00060871
19250.0 0.00060354
19270.0 0.00059819
19290.0 0.00059282
19310.0 0.00058762
19330.0 0.00058239
19350.0 0.00057692
19370.0 0.00057166
19390.0 0.00056649
19410.0 0.00056119
19430.0 0.00055584
19450.0 0.00055073
19470.0 0.00054555
19490.0 0.00054022
19510.0 0.00053503
19530.0 0.00052994
19550.0 0.00052465
19570.0 0.00051934
19590.0 0.00051429
19610.0 0.00050915
19630.0 0.0005039
19650.0 0.0004988
19670.0 0.0004938
19690.0 0.00048857
19710.0 0.0004834
19730.0 0.00047839
19750.0 0.00047331
19770.0 0.00046806
19790.0 0.00046304
19810.0 0.00045808
19830.0 0.00045294
19850.0 0.00044782
19870.0 0.00044283
19890.0 0.00043757
19910.0 0.00043197
19930.0 0.00042623
19950.0 0.00042003
19970.0 0.00041291
19990.0 0.00040495
20010.0 0.00039649
20030.0 0.00038695
20050.0 0.00037655
20070.0 0.00036606
20090.0 0.00035556
20110.0 0.00034464
20130.0 0.00033452
20150.0 0.00032534
20170.0 0.00031669
20190.0 0.00030877
20210.0 0.00030202
20230.0 0.00029609
20250.0 0.00029081
20270.0 0.00028648
20290.0 0.00028301
20310.0 0.00028018
20330.0 0.00027803
20350.0 0.00027666
20370.0 0.00027586
20390.0 0.00027566
20410.0 0.00027603
20430.0 0.0002769
20450.0 0.00027838
20470.0 0.00028043
20490.0 0.00028291
20510.0 0.00028591
20530.0 0.00028956
20550.0 0.0002936
20570.0 0.0002979
20590.0 0.00030278
20610.0 0.00030801
20630.0 0.0003133
20650.0 0.00031882
20670.0 0.00032474
20690.0 0.00033039
20710.0 0.00033588
20730.0 0.00034142
20750.0 0.00034681
20770.0 0.00035174
20790.0 0.00035658
20810.0 0.00036138
20830.0 0.00036589
20850.0 0.00037023
20870.0 0.00037476
20890.0 0.00037935
20910.0 0.0003838
20930.0 0.0003885
20950.0 0.00039351
20970.0 0.00039852
20990.0 0.00040357
21010.0 0.00040898
21030.0 0.00041431
21050.0 0.00041935
21070.0 0.00042428
21090.0 0.00042904
21110.0 0.00043311
21130.0 0.00043664
21150.0 0.0004397
21170.0 0.00044205
21190.0 0.00044363
21210.0 0.00044456
21230.0 0.00044474
21250.0 0.00044418
21270.0 0.00044293
21290.0 0.00044096
21310.0 0.00043834
21330.0 0.00043527
21350.0 0.00043155
21370.0 0.00042728
21390.0 0.00042271
21410.0 0.00041781
21430.0 0.00041231
21450.0 0.00040673
21470.0 0.00040116
21490.0 0.00039536
21510.0 0.00038946
21530.0 0.00038387
21550.0 0.00037839
21570.0 0.00037293
21590.0 0.0003679
21610.0 0.00036335
21630.0 0.0003591
21650.0 0.00035529
21670.0 0.00035227
21690.0 0.00034977
21710.0 0.00034787
21730.0 0.00034668
21750.0 0.00034617
21770.0 0.00034634
21790.0 0.00034724
21810.0 0.00034876
21830.0 0.00035095
21850.0 0.00035387
21870.0 0.00035731
21890.0 0.00036116
21910.0 0.00036568
21930.0 0.00037066
21950.0 0.00037585
21970.0 0.00038145
21990.0 0.00038763
22010.0 0.00039374
22030.0 0.0003999
22050.0 0.00040636
22070.0 0.00041286
22090.0 0.000419
22110.0 0.00042518
22130.0 0.00043133
22150.0 0.00043702
22170.0 0.00044231
22190.0 0.00044742
22210.0 0.00045198
22230.0 0.00045577
22250.0 0.00045904
22270.0 0.00046168
22290.0 0.00046347
22310.0 0.00046449
22330.0 0.0004647
22350.0 0.000464
22370.0 0.00046244
22390.0 0.00045995
22410.0 0.00045642
22430.0 0.00045217
22450.0 0.00044712
22470.0 0.00044106
22490.0 0.00043427
22510.0 0.00042703
22530.0 0.00041884
22550.0 0.00040988
22570.0 0.0004008
22590.0 0.00039132
22610.0 0.00038118
22630.0 0.0003709
22650.0 0.00036091
22670.0 0.00035046
22690.0 0.00033989
22710.0 0.00032977
22730.0 0.00031983
22750.0 0.00030957
22770.0 0.00030001
22790.0 0.0002911
22810.0 0.00028237
22830.0 0.00027408
22850.0 0.00026671
22870.0 0.00025988
22890.0 0.0002535
22910.0 0.00024807
22930.0 0.00024352
22950.0 0.00023967
22970.0 0.00023669
22990.0 0.0002348
23010.0 0.00023376
23030.0 0.00023366
23050.0 0.0002345
23070.0 0.00023619
23090.0 0.00023889
23110.0 0.00024246
23130.0 0.00024666
23150.0 0.0002516
23170.0 0.00025734
23190.0 0.00026341
23210.0 0.00026969
23230.0 0.00027648
23250.0 0.0002834
23270.0 0.00029007
23290.0 0.00029674
23310.0 0.00030344
23330.0 0.00030942
23350.0 0.00031487
23370.0 0.00031991
23390.0 0.00032426
23410.0 0.00032772
23430.0 0.00033052
23450.0 0.00033255
23470.0 0.00033369
23490.0 0.00033403
