#lamb flux
1010.0 1.1836e-08
1030.0 1.2951e-08
1050.0 1.4234e-08
1070.0 1.5678e-08
1090.0 1.7318e-08
1110.0 1.9e-08
1130.0 2.0693e-08
1150.0 2.2466e-08
1170.0 2.4295e-08
1190.0 2.603e-08
1210.0 2.7788e-08
1230.0 2.9605e-08
1250.0 3.1384e-08
1270.0 3.3113e-08
1290.0 3.4939e-08
1310.0 3.6764e-08
1330.0 3.8514e-08
1350.0 4.0284e-08
1370.0 4.2111e-08
1390.0 4.3892e-08
1410.0 4.562e-08
1430.0 4.7427e-08
1450.0 4.9233e-08
1470.0 5.0979e-08
1490.0 5.2743e-08
1510.0 5.4606e-08
1530.0 5.6372e-08
1550.0 5.8113e-08
1570.0 5.9913e-08
1590.0 6.1715e-08
1610.0 6.3437e-08
1630.0 6.5211e-08
1650.0 6.7031e-08
1670.0 6.879e-08
1690.0 7.0526e-08
1710.0 7.2328e-08
1730.0 7.4138e-08
1750.0 7.5838e-08
1770.0 7.7586e-08
1790.0 7.9368e-08
1810.0 8.1089e-08
1830.0 8.2776e-08
1850.0 8.4564e-08
1870.0 8.63e-08
1890.0 8.7972e-08
1910.0 8.9671e-08
1930.0 9.1405e-08
1950.0 9.305e-08
1970.0 9.4664e-08
1990.0 9.6332e-08
2010.0 9.7958e-08
2030.0 9.9508e-08
2050.0 1.011e-07
2070.0 1.0271e-07
2090.0 1.042e-07
2110.0 1.0567e-07
2130.0 1.0716e-07
2150.0 1.086e-07
2170.0 1.0994e-07
2190.0 1.113e-07
2210.0 1.1265e-07
2230.0 1.139e-07
2250.0 1.151e-07
2270.0 1.1635e-07
2290.0 1.1749e-07
2310.0 1.1854e-07
2330.0 1.1961e-07
2350.0 1.2067e-07
2370.0 1.2169e-07
2390.0 1.2281e-07
2410.0 1.2422e-07
2430.0 1.2593e-07
2450.0 1.2807e-07
2470.0 1.3102e-07
2490.0 1.3491e-07
2510.0 1.3942e-07
2530.0 1.45e-07
2550.0 1.5222e-07
2570.0 1.6138e-07
2590.0 1.7344e-07
2610.0 1.9166e-07
2630.0 2.1749e-07
2650.0 2.5071e-07
2670.0 2.9295e-07
2690.0 3.4386e-07
2710.0 3.9686e-07
2730.0 4.4776e-07
2750.0 4.9647e-07
2770.0 5.3707e-07
2790.0 5.6736e-07
2810.0 5.8956e-07
2830.0 6.0507e-07
2850.0 6.1344e-07
2870.0 6.1776e-07
2890.0 6.1978e-07
2910.0 6.2013e-07
2930.0 6.1936e-07
2950.0 6.184e-07
2970.0 6.1741e-07
2990.0 6.1626e-07
3010.0 1.9579e-05
3030.0 1.9546e-05
3050.0 1.9513e-05
3070.0 1.9467e-05
3090.0 1.9409e-05
3110.0 1.9319e-05
3130.0 1.9173e-05
3150.0 1.8951e-05
3170.0 1.8616e-05
3190.0 1.8175e-05
3210.0 1.7657e-05
3230.0 1.7085e-05
3250.0 1.65e-05
3270.0 1.6062e-05
3290.0 1.5736e-05
3310.0 1.567e-05
3330.0 1.5787e-05
3350.0 1.6078e-05
3370.0 1.6542e-05
3390.0 1.7156e-05
3410.0 1.784e-05
3430.0 1.862e-05
3450.0 1.9527e-05
3470.0 2.0528e-05
3490.0 2.1601e-05
3510.0 2.2823e-05
3530.0 2.4155e-05
3550.0 2.5572e-05
3570.0 2.7123e-05
3590.0 2.8845e-05
3610.0 3.0744e-05
3630.0 3.2624e-05
3650.0 3.461e-05
3670.0 3.6396e-05
3690.0 3.7722e-05
3710.0 3.8394e-05
3730.0 3.8043e-05
3750.0 3.6719e-05
3770.0 3.7544e-05
3790.0 3.694e-05
3810.0 2.9655e-05
3830.0 2.9116e-05
3850.0 4.154e-05
3870.0 4.1417e-05
3890.0 3.2654e-05
3910.0 3.0915e-05
3930.0 3.7458e-05
3950.0 4.3979e-05
3970.0 4.8047e-05
3990.0 3.3003e-05
4010.0 6.9852e-05
4030.0 7.1788e-05
4050.0 7.9072e-05
4070.0 8.4129e-05
4090.0 7.8751e-05
4110.0 6.776e-05
4130.0 7.9099e-05
4150.0 0.00010367
4170.0 8.408e-05
4190.0 7.6427e-05
4210.0 8.4635e-05
4230.0 0.0001024
4250.0 0.00012301
4270.0 0.00013262
4290.0 0.0001175
4310.0 0.00011026
4330.0 0.00010976
4350.0 0.00013804
4370.0 0.00016689
4390.0 0.00013502
4410.0 7.7459e-05
4430.0 5.6359e-05
4450.0 5.2887e-05
4470.0 3.2742e-05
4490.0 5.376e-05
4510.0 0.00011447
4530.0 0.00013915
4550.0 0.00013073
4570.0 0.00011949
4590.0 0.00012818
4610.0 0.0002459
4630.0 0.00034409
4650.0 0.00032975
4670.0 0.00029092
4690.0 0.0002944
4710.0 0.00030782
4730.0 0.00025659
4750.0 0.00016918
4770.0 0.00011586
4790.0 0.00012629
4810.0 0.00013221
4830.0 0.00012988
4850.0 0.00014089
4870.0 0.00018662
4890.0 0.00021645
4910.0 0.00017025
4930.0 0.00016429
4950.0 0.00018866
4970.0 0.00025006
4990.0 0.00033795
5010.0 0.00039138
5030.0 0.00031569
5050.0 0.00019529
5070.0 0.00013775
5090.0 0.00010469
5110.0 9.8527e-05
5130.0 0.00011844
5150.0 0.00011596
5170.0 0.0001093
5190.0 9.7288e-05
5210.0 0.00010828
5230.0 0.00013298
5250.0 0.00015435
5270.0 0.00014424
5290.0 0.00015562
5310.0 0.00020735
5330.0 0.0002236
5350.0 0.00022049
5370.0 0.00024641
5390.0 0.00030595
5410.0 0.00026512
5430.0 0.00020594
5450.0 0.00020629
5470.0 0.00023819
5490.0 0.00029734
5510.0 0.0003623
5530.0 0.00042015
5550.0 0.00038141
5570.0 0.00034245
5590.0 0.00028242
5610.0 0.00028459
5630.0 0.00031694
5650.0 0.00029218
5670.0 0.00026907
5690.0 0.00021863
5710.0 0.0002243
5730.0 0.00021726
5750.0 0.00012017
5770.0 8.6061e-05
5790.0 0.00010612
5810.0 0.00011208
5830.0 0.00017259
5850.0 0.00022472
5870.0 0.00024228
5890.0 0.00023217
5910.0 0.00022614
5930.0 0.00021725
5950.0 0.00022392
5970.0 0.00027705
5990.0 0.00022944
6010.0 0.00017754
6030.0 0.00014521
6050.0 0.00012945
6070.0 0.00015274
6090.0 0.00017134
6110.0 0.0001756
6130.0 0.00016294
6150.0 0.00012878
6170.0 0.00010027
6190.0 0.00012151
6210.0 0.0001912
6230.0 0.0002815
6250.0 0.00030376
6270.0 0.00023373
6290.0 0.00020007
6310.0 0.00015277
6330.0 0.00011154
6350.0 0.00010914
6370.0 0.00011458
6390.0 0.00013679
6410.0 0.00017684
6430.0 0.00021268
6450.0 0.00026025
6470.0 0.00027548
6490.0 0.00032995
6510.0 0.00037006
6530.0 0.00037743
6550.0 0.00034711
6570.0 0.0002786
6590.0 0.00026453
6610.0 0.00021934
6630.0 0.00022706
6650.0 0.00022057
6670.0 0.00019308
6690.0 0.00014999
6710.0 0.00014633
6730.0 6.415e-05
6750.0 8.6116e-05
6770.0 0.00013513
6790.0 0.00017873
6810.0 0.00012758
6830.0 0.00013028
6850.0 0.00010852
6870.0 0.00010152
6890.0 8.5806e-05
6910.0 0.00010439
6930.0 9.8276e-05
6950.0 0.00011747
6970.0 0.00012204
6990.0 0.00013549
7010.0 0.00013088
7030.0 0.00014982
7050.0 0.00012986
7070.0 0.00010832
7090.0 0.00011618
7110.0 0.00012327
7130.0 0.00014186
7150.0 0.00016077
7170.0 0.00018026
7190.0 0.00019249
7210.0 0.0001716
7230.0 0.00017379
7250.0 0.00018627
7270.0 0.00019994
7290.0 0.00024633
7310.0 0.00026041
7330.0 0.0002436
7350.0 0.00021818
7370.0 0.00016182
7390.0 0.0001669
7410.0 0.00020443
7430.0 0.00023297
7450.0 0.000251
7470.0 0.00022966
7490.0 0.00018339
7510.0 0.00029565
7530.0 0.00026941
7550.0 0.00025412
7570.0 0.00017265
7590.0 7.6628e-05
7610.0 5.41e-05
7630.0 8.2133e-05
7650.0 0.00011044
7670.0 0.0001758
7690.0 0.00019588
7710.0 0.00017702
7730.0 0.00017571
7750.0 0.00023067
7770.0 0.00023708
7790.0 0.00021678
7810.0 0.00017525
7830.0 0.00018989
7850.0 0.00020812
7870.0 0.0002035
7890.0 0.00015907
7910.0 0.00010693
7930.0 0.00011078
7950.0 0.00010008
7970.0 8.4307e-05
7990.0 7.6222e-05
8010.0 4.0049e-05
8030.0 3.6548e-05
8050.0 3.9683e-05
8070.0 4.4979e-05
8090.0 5.5232e-05
8110.0 5.1804e-05
8130.0 3.0313e-05
8150.0 3.158e-05
8170.0 1.7172e-05
8190.0 9.9145e-06
8210.0 2.803e-05
8230.0 3.4055e-05
8250.0 1.2473e-05
8270.0 9.6202e-06
8290.0 2.0118e-05
8310.0 1.7922e-05
8330.0 1.0937e-05
8350.0 8.8357e-06
8370.0 1.8202e-06
8390.0 9.4391e-06
8410.0 1.0891e-05
8430.0 1.3538e-05
8450.0 1.5241e-05
8470.0 2.6021e-05
8490.0 2.1017e-05
8510.0 1.5901e-05
8530.0 7.3381e-06
8550.0 2.8835e-05
8570.0 4.5383e-05
8590.0 3.0866e-05
8610.0 4.6934e-05
8630.0 5.0829e-05
8650.0 2.5875e-05
8670.0 3.9543e-05
8690.0 6.3265e-05
8710.0 5.4046e-05
8730.0 5.8556e-05
8750.0 4.5666e-05
8770.0 4.0419e-05
8790.0 4.5177e-05
8810.0 4.932e-05
8830.0 2.6713e-05
8850.0 1.0768e-05
8870.0 7.4826e-06
8890.0 2.0788e-05
8910.0 3.3541e-05
8930.0 4.4719e-05
8950.0 4.9944e-05
8970.0 4.8016e-05
8990.0 3.5594e-05
9010.0 3.3855e-05
9030.0 2.5558e-05
9050.0 2.6572e-05
9070.0 2.7632e-05
9090.0 2.8494e-05
9110.0 2.9538e-05
9130.0 3.0292e-05
9150.0 3.0829e-05
9170.0 3.1401e-05
9190.0 3.2013e-05
9210.0 3.2656e-05
9230.0 3.3335e-05
9250.0 3.402e-05
9270.0 3.4728e-05
9290.0 3.5454e-05
9310.0 3.6178e-05
9330.0 3.6912e-05
9350.0 3.7671e-05
9370.0 3.8433e-05
9390.0 3.9197e-05
9410.0 3.9981e-05
9430.0 4.0787e-05
9450.0 4.1583e-05
9470.0 4.2392e-05
9490.0 4.3224e-05
9510.0 4.4062e-05
9530.0 4.4898e-05
9550.0 4.5765e-05
9570.0 4.6644e-05
9590.0 4.7522e-05
9610.0 4.8412e-05
9630.0 4.9327e-05
9650.0 5.0247e-05
9670.0 5.1163e-05
9690.0 5.2106e-05
9710.0 5.3063e-05
9730.0 5.4017e-05
9750.0 5.4985e-05
9770.0 5.5986e-05
9790.0 5.6979e-05
9810.0 5.7976e-05
9830.0 5.8995e-05
9850.0 6.0028e-05
9870.0 6.1052e-05
9890.0 6.2094e-05
9910.0 6.3157e-05
9930.0 6.4219e-05
9950.0 6.5283e-05
9970.0 6.637e-05
9990.0 6.7469e-05
10010.0 6.0106e-05
10030.0 6.1067e-05
10050.0 6.2042e-05
10070.0 6.3006e-05
10090.0 6.3977e-05
10110.0 6.4972e-05
10130.0 6.5966e-05
10150.0 6.6951e-05
10170.0 6.7945e-05
10190.0 6.8954e-05
10210.0 6.9949e-05
10230.0 7.0942e-05
10250.0 7.1948e-05
10270.0 7.2953e-05
10290.0 7.3945e-05
10310.0 7.4948e-05
10330.0 7.596e-05
10350.0 7.6954e-05
10370.0 7.7945e-05
10390.0 7.8945e-05
10410.0 7.9939e-05
10430.0 8.0912e-05
10450.0 8.1893e-05
10470.0 8.2876e-05
10490.0 8.384e-05
10510.0 8.4795e-05
10530.0 8.5765e-05
10550.0 8.6716e-05
10570.0 8.7645e-05
10590.0 8.8577e-05
10610.0 8.9506e-05
10630.0 9.0408e-05
10650.0 9.1302e-05
10670.0 9.2202e-05
10690.0 9.308e-05
10710.0 9.3937e-05
10730.0 9.4792e-05
10750.0 9.5646e-05
10770.0 9.6461e-05
10790.0 9.7266e-05
10810.0 9.8067e-05
10830.0 9.884e-05
10850.0 9.9575e-05
10870.0 0.00010029
10890.0 0.00010094
10910.0 0.00010147
10930.0 0.00010184
10950.0 0.00010197
10970.0 0.00010177
10990.0 0.00010121
11010.0 0.00010062
11030.0 9.9084e-05
11050.0 9.7163e-05
11070.0 9.4831e-05
11090.0 9.2008e-05
11110.0 8.9077e-05
11130.0 8.602e-05
11150.0 8.2738e-05
11170.0 7.9368e-05
11190.0 7.6114e-05
11210.0 7.2772e-05
11230.0 6.9368e-05
11250.0 6.6133e-05
11270.0 6.304e-05
11290.0 5.9957e-05
11310.0 5.7045e-05
11330.0 5.4478e-05
11350.0 5.2052e-05
11370.0 4.9802e-05
11390.0 4.7838e-05
11410.0 4.6099e-05
11430.0 4.4464e-05
11450.0 4.3026e-05
11470.0 4.1754e-05
11490.0 4.0549e-05
11510.0 3.937e-05
11530.0 3.8262e-05
11550.0 3.7157e-05
11570.0 3.5988e-05
11590.0 3.4786e-05
11610.0 3.3574e-05
11630.0 3.2274e-05
11650.0 3.0901e-05
11670.0 2.9557e-05
11690.0 2.8204e-05
11710.0 2.6819e-05
11730.0 2.548e-05
11750.0 2.4239e-05
11770.0 2.3022e-05
11790.0 2.1877e-05
11810.0 2.0858e-05
11830.0 1.9936e-05
11850.0 1.9078e-05
11870.0 1.8343e-05
11890.0 1.7715e-05
11910.0 1.715e-05
11930.0 1.665e-05
11950.0 1.6219e-05
11970.0 1.5824e-05
11990.0 1.5446e-05
12010.0 1.5092e-05
12030.0 1.4751e-05
12050.0 1.4403e-05
12070.0 1.4047e-05
12090.0 1.3703e-05
12110.0 1.3356e-05
12130.0 1.3007e-05
12150.0 1.2677e-05
12170.0 1.2376e-05
12190.0 1.2096e-05
12210.0 1.1865e-05
12230.0 1.1693e-05
12250.0 1.1582e-05
12270.0 1.1546e-05
12290.0 1.1586e-05
12310.0 1.1698e-05
12330.0 1.1898e-05
12350.0 1.2176e-05
12370.0 1.2511e-05
12390.0 1.2913e-05
12410.0 1.34e-05
12430.0 1.3899e-05
12450.0 1.442e-05
12470.0 1.4978e-05
12490.0 1.5539e-05
12510.0 1.6061e-05
12530.0 1.6579e-05
12550.0 1.7077e-05
12570.0 1.7508e-05
12590.0 1.7878e-05
12610.0 1.8202e-05
12630.0 1.8448e-05
12650.0 1.86e-05
12670.0 1.8681e-05
12690.0 1.8681e-05
12710.0 1.8597e-05
12730.0 1.8437e-05
12750.0 1.8197e-05
12770.0 1.7888e-05
12790.0 1.7525e-05
12810.0 1.7105e-05
12830.0 1.6628e-05
12850.0 1.6134e-05
12870.0 1.5618e-05
12890.0 1.5066e-05
12910.0 1.4509e-05
12930.0 1.3963e-05
12950.0 1.3398e-05
12970.0 1.2828e-05
12990.0 1.2288e-05
13010.0 1.1758e-05
13030.0 1.1224e-05
13050.0 1.071e-05
13070.0 1.0228e-05
13090.0 9.7445e-06
13110.0 9.2752e-06
13130.0 8.8395e-06
13150.0 8.4241e-06
13170.0 8.0151e-06
13190.0 7.6461e-06
13210.0 7.3159e-06
13230.0 7.0088e-06
13250.0 6.737e-06
13270.0 6.5133e-06
13290.0 6.328e-06
13310.0 6.1842e-06
13330.0 6.0928e-06
13350.0 6.0505e-06
13370.0 6.0586e-06
13390.0 6.1212e-06
13410.0 6.2259e-06
13430.0 6.3771e-06
13450.0 6.5763e-06
13470.0 6.8064e-06
13490.0 7.0571e-06
13510.0 7.3484e-06
13530.0 7.6503e-06
13550.0 7.9445e-06
13570.0 8.2404e-06
13590.0 8.5346e-06
13610.0 8.8009e-06
13630.0 9.0375e-06
13650.0 9.2584e-06
13670.0 9.4459e-06
13690.0 9.5945e-06
13710.0 9.7134e-06
13730.0 9.8036e-06
13750.0 9.8539e-06
13770.0 9.874e-06
13790.0 9.866e-06
13810.0 9.8293e-06
13830.0 9.7688e-06
13850.0 9.6836e-06
13870.0 9.5741e-06
13890.0 9.4471e-06
13910.0 9.3033e-06
13930.0 9.137e-06
13950.0 8.9557e-06
13970.0 8.7706e-06
13990.0 8.57e-06
14010.0 8.3579e-06
14030.0 8.147e-06
14050.0 7.9353e-06
14070.0 7.7128e-06
14090.0 7.5e-06
14110.0 7.3001e-06
14130.0 7.1064e-06
14150.0 6.9235e-06
14170.0 6.7666e-06
14190.0 6.6296e-06
14210.0 6.5118e-06
14230.0 6.4222e-06
14250.0 6.3614e-06
14270.0 6.3273e-06
14290.0 6.3242e-06
14310.0 6.3501e-06
14330.0 6.4037e-06
14350.0 6.4869e-06
14370.0 6.5939e-06
14390.0 6.7185e-06
14410.0 6.8681e-06
14430.0 7.0354e-06
14450.0 7.2095e-06
14470.0 7.3933e-06
14490.0 7.5922e-06
14510.0 7.7861e-06
14530.0 7.9738e-06
14550.0 8.1648e-06
14570.0 8.3516e-06
14590.0 8.525e-06
14610.0 8.6954e-06
14630.0 8.8664e-06
14650.0 9.0279e-06
14670.0 9.1852e-06
14690.0 9.3494e-06
14710.0 9.5216e-06
14730.0 9.6934e-06
14750.0 9.8821e-06
14770.0 1.0094e-05
14790.0 1.0322e-05
14810.0 1.0568e-05
14830.0 1.0856e-05
14850.0 1.1168e-05
14870.0 1.1493e-05
14890.0 1.1843e-05
14910.0 1.2213e-05
14930.0 1.2569e-05
14950.0 1.2904e-05
14970.0 1.3222e-05
14990.0 1.3492e-05
15010.0 1.3703e-05
15030.0 1.3864e-05
15050.0 1.3977e-05
15070.0 1.4042e-05
15090.0 1.4077e-05
15110.0 1.4092e-05
15130.0 1.4093e-05
15150.0 1.4089e-05
15170.0 1.408e-05
15190.0 1.4069e-05
15210.0 1.4059e-05
15230.0 1.405e-05
15250.0 1.4039e-05
15270.0 1.4029e-05
15290.0 1.402e-05
15310.0 1.4011e-05
15330.0 1.4001e-05
15350.0 1.3993e-05
15370.0 1.3985e-05
15390.0 1.3976e-05
15410.0 1.3968e-05
15430.0 1.3961e-05
15450.0 1.3953e-05
15470.0 1.3944e-05
15490.0 1.3938e-05
15510.0 1.3931e-05
15530.0 1.3923e-05
15550.0 1.3916e-05
15570.0 1.391e-05
15590.0 1.3903e-05
15610.0 1.3895e-05
15630.0 1.3889e-05
15650.0 1.3883e-05
15670.0 1.3876e-05
15690.0 1.3869e-05
15710.0 1.3864e-05
15730.0 1.3856e-05
15750.0 1.3849e-05
15770.0 1.3843e-05
15790.0 1.3837e-05
15810.0 1.3829e-05
15830.0 1.3822e-05
15850.0 1.3816e-05
15870.0 1.3809e-05
15890.0 1.3802e-05
15910.0 1.3795e-05
15930.0 1.3788e-05
15950.0 1.378e-05
15970.0 1.3773e-05
15990.0 1.3766e-05
16010.0 1.3757e-05
16030.0 1.3748e-05
16050.0 1.3741e-05
16070.0 1.3733e-05
16090.0 1.3724e-05
16110.0 1.3716e-05
16130.0 1.3708e-05
16150.0 1.3697e-05
16170.0 1.3687e-05
16190.0 1.3678e-05
16210.0 1.3669e-05
16230.0 1.3658e-05
16250.0 1.3648e-05
16270.0 1.3638e-05
16290.0 1.3626e-05
16310.0 1.3615e-05
16330.0 1.3604e-05
16350.0 1.3592e-05
16370.0 1.3579e-05
16390.0 1.3567e-05
16410.0 1.3555e-05
16430.0 1.3541e-05
16450.0 1.3527e-05
16470.0 1.3515e-05
16490.0 1.35e-05
16510.0 1.3485e-05
16530.0 1.3471e-05
16550.0 1.3456e-05
16570.0 1.344e-05
16590.0 1.3423e-05
16610.0 1.3408e-05
16630.0 1.3391e-05
16650.0 1.3374e-05
16670.0 1.3357e-05
16690.0 1.334e-05
16710.0 1.332e-05
16730.0 1.3302e-05
16750.0 1.3283e-05
16770.0 1.3264e-05
16790.0 1.3243e-05
16810.0 1.3224e-05
16830.0 1.3204e-05
16850.0 1.3182e-05
16870.0 1.3161e-05
16890.0 1.314e-05
16910.0 1.3117e-05
16930.0 1.3093e-05
16950.0 1.3071e-05
16970.0 1.3048e-05
16990.0 1.3023e-05
17010.0 1.2999e-05
17030.0 1.2975e-05
17050.0 1.295e-05
17070.0 1.2923e-05
17090.0 1.2898e-05
17110.0 1.2872e-05
17130.0 1.2844e-05
17150.0 1.2817e-05
17170.0 1.279e-05
17190.0 1.2762e-05
17210.0 1.2733e-05
17230.0 1.2705e-05
17250.0 1.2676e-05
17270.0 1.2645e-05
17290.0 1.2615e-05
17310.0 1.2585e-05
17330.0 1.2554e-05
17350.0 1.2522e-05
17370.0 1.2491e-05
17390.0 1.2459e-05
17410.0 1.2426e-05
17430.0 1.2394e-05
17450.0 1.2362e-05
17470.0 1.2327e-05
17490.0 1.2292e-05
17510.0 1.2259e-05
17530.0 1.2224e-05
17550.0 1.2188e-05
17570.0 1.2153e-05
17590.0 1.2118e-05
17610.0 1.2081e-05
17630.0 1.2045e-05
17650.0 1.2009e-05
17670.0 1.1972e-05
17690.0 1.1932e-05
17710.0 1.1895e-05
17730.0 1.1858e-05
17750.0 1.1819e-05
17770.0 1.178e-05
17790.0 1.1742e-05
17810.0 1.1702e-05
17830.0 1.1661e-05
17850.0 1.1622e-05
17870.0 1.1582e-05
17890.0 1.1541e-05
17910.0 1.1499e-05
17930.0 1.1459e-05
17950.0 1.1418e-05
17970.0 1.1375e-05
17990.0 1.1334e-05
18010.0 1.1293e-05
18030.0 1.1249e-05
18050.0 1.1206e-05
18070.0 1.1164e-05
18090.0 1.112e-05
18110.0 1.1076e-05
18130.0 1.1033e-05
18150.0 1.099e-05
18170.0 1.0945e-05
18190.0 1.0901e-05
18210.0 1.0858e-05
18230.0 1.0812e-05
18250.0 1.0766e-05
18270.0 1.0722e-05
18290.0 1.0677e-05
18310.0 1.0631e-05
18330.0 1.0586e-05
18350.0 1.0541e-05
18370.0 1.0494e-05
18390.0 1.0448e-05
18410.0 1.0402e-05
18430.0 1.0356e-05
18450.0 1.0308e-05
18470.0 1.0262e-05
18490.0 1.0216e-05
18510.0 1.0169e-05
18530.0 1.0122e-05
18550.0 1.0076e-05
18570.0 1.0029e-05
18590.0 9.9803e-06
18610.0 9.9333e-06
18630.0 9.8865e-06
18650.0 9.8383e-06
18670.0 9.79e-06
18690.0 9.7436e-06
18710.0 9.696e-06
18730.0 9.6474e-06
18750.0 9.6001e-06
18770.0 9.5531e-06
18790.0 9.5037e-06
18810.0 9.4553e-06
18830.0 9.4082e-06
18850.0 9.3601e-06
18870.0 9.3111e-06
18890.0 9.2637e-06
18910.0 9.2164e-06
18930.0 9.1673e-06
18950.0 9.119e-06
18970.0 9.0717e-06
18990.0 9.0233e-06
19010.0 8.9735e-06
19030.0 8.9262e-06
19050.0 8.8786e-06
19070.0 8.8298e-06
19090.0 8.7816e-06
19110.0 8.7347e-06
19130.0 8.686e-06
19150.0 8.6371e-06
19170.0 8.5896e-06
19190.0 8.542e-06
19210.0 8.4929e-06
19230.0 8.4447e-06
19250.0 8.398e-06
19270.0 8.3499e-06
19290.0 8.3015e-06
19310.0 8.2546e-06
19330.0 8.2074e-06
19350.0 8.1582e-06
19370.0 8.1107e-06
19390.0 8.064e-06
19410.0 8.0161e-06
19430.0 7.968e-06
19450.0 7.9217e-06
19470.0 7.8748e-06
19490.0 7.8268e-06
19510.0 7.7799e-06
19530.0 7.7338e-06
19550.0 7.6861e-06
19570.0 7.6383e-06
19590.0 7.5925e-06
19610.0 7.5461e-06
19630.0 7.4988e-06
19650.0 7.4526e-06
19670.0 7.4073e-06
19690.0 7.3602e-06
19710.0 7.3136e-06
19730.0 7.2683e-06
19750.0 7.2225e-06
19770.0 7.1753e-06
19790.0 7.1299e-06
19810.0 7.0851e-06
19830.0 7.0389e-06
19850.0 6.9928e-06
19870.0 6.9475e-06
19890.0 6.8998e-06
19910.0 6.8488e-06
19930.0 6.7954e-06
19950.0 6.7366e-06
19970.0 6.6672e-06
19990.0 6.5867e-06
20010.0 6.0716e-06
20030.0 5.9733e-06
20050.0 5.8609e-06
20070.0 5.7409e-06
20090.0 5.6134e-06
20110.0 5.4714e-06
20130.0 5.3288e-06
20150.0 5.1885e-06
20170.0 5.0442e-06
20190.0 4.8988e-06
20210.0 4.762e-06
20230.0 4.629e-06
20250.0 4.4962e-06
20270.0 4.3729e-06
20290.0 4.2602e-06
20310.0 4.1528e-06
20330.0 4.052e-06
20350.0 3.9673e-06
20370.0 3.8913e-06
20390.0 3.8237e-06
20410.0 3.7677e-06
20430.0 3.723e-06
20450.0 3.686e-06
20470.0 3.659e-06
20490.0 3.6417e-06
20510.0 3.6324e-06
20530.0 3.6309e-06
20550.0 3.6367e-06
20570.0 3.6482e-06
20590.0 3.6661e-06
20610.0 3.6892e-06
20630.0 3.7158e-06
20650.0 3.7465e-06
20670.0 3.7826e-06
20690.0 3.8199e-06
20710.0 3.8587e-06
20730.0 3.901e-06
20750.0 3.9453e-06
20770.0 3.9885e-06
20790.0 4.0339e-06
20810.0 4.0816e-06
20830.0 4.1286e-06
20850.0 4.1752e-06
20870.0 4.2248e-06
20890.0 4.2749e-06
20910.0 4.3224e-06
20930.0 4.3714e-06
20950.0 4.4217e-06
20970.0 4.4703e-06
20990.0 4.5178e-06
21010.0 4.5677e-06
21030.0 4.6161e-06
21050.0 4.6619e-06
21070.0 4.7074e-06
21090.0 4.7531e-06
21110.0 4.7944e-06
21130.0 4.8329e-06
21150.0 4.8704e-06
21170.0 4.9042e-06
21190.0 4.933e-06
21210.0 4.9591e-06
21230.0 4.9808e-06
21250.0 4.9961e-06
21270.0 5.0057e-06
21290.0 5.0091e-06
21310.0 5.0051e-06
21330.0 4.9939e-06
21350.0 4.9745e-06
21370.0 4.9462e-06
21390.0 4.91e-06
21410.0 4.8656e-06
21430.0 4.8094e-06
21450.0 4.7458e-06
21470.0 4.6762e-06
21490.0 4.5973e-06
21510.0 4.5104e-06
21530.0 4.4215e-06
21550.0 4.328e-06
21570.0 4.2281e-06
21590.0 4.1291e-06
21610.0 4.0329e-06
21630.0 3.9361e-06
21650.0 3.8409e-06
21670.0 3.7573e-06
21690.0 3.6794e-06
21710.0 3.6082e-06
21730.0 3.5485e-06
21750.0 3.5006e-06
21770.0 3.462e-06
21790.0 3.4364e-06
21810.0 3.4237e-06
21830.0 3.4228e-06
21850.0 3.4345e-06
21870.0 3.4575e-06
21890.0 3.4897e-06
21910.0 3.5331e-06
21930.0 3.5856e-06
21950.0 3.6436e-06
21970.0 3.7088e-06
21990.0 3.7833e-06
22010.0 3.8583e-06
22030.0 3.9352e-06
22050.0 4.0168e-06
22070.0 4.0996e-06
22090.0 4.1784e-06
22110.0 4.2586e-06
22130.0 4.3392e-06
22150.0 4.415e-06
22170.0 4.4868e-06
22190.0 4.5586e-06
22210.0 4.6257e-06
22230.0 4.6849e-06
22250.0 4.7408e-06
22270.0 4.7926e-06
22290.0 4.8368e-06
22310.0 4.8746e-06
22330.0 4.9081e-06
22350.0 4.9339e-06
22370.0 4.9518e-06
22390.0 4.9628e-06
22410.0 4.9661e-06
22430.0 4.9608e-06
22450.0 4.9477e-06
22470.0 4.9254e-06
22490.0 4.8944e-06
22510.0 4.8559e-06
22530.0 4.807e-06
22550.0 4.7477e-06
22570.0 4.682e-06
22590.0 4.608e-06
22610.0 4.5231e-06
22630.0 4.4313e-06
