#lamb flux
1010.0 1.4297e-05
1030.0 1.5968e-05
1050.0 1.7851e-05
1070.0 1.9982e-05
1090.0 2.2428e-05
1110.0 2.4955e-05
1130.0 2.7524e-05
1150.0 3.024e-05
1170.0 3.3075e-05
1190.0 3.5812e-05
1210.0 3.8631e-05
1230.0 4.1592e-05
1250.0 4.4555e-05
1270.0 4.7506e-05
1290.0 5.0675e-05
1310.0 5.3918e-05
1330.0 5.7122e-05
1350.0 6.0435e-05
1370.0 6.3918e-05
1390.0 6.7407e-05
1410.0 7.0885e-05
1430.0 7.4563e-05
1450.0 7.831e-05
1470.0 8.2021e-05
1490.0 8.5818e-05
1510.0 8.9834e-05
1530.0 9.3726e-05
1550.0 9.7607e-05
1570.0 0.00010161
1590.0 0.00010563
1610.0 0.00010951
1630.0 0.00011345
1650.0 0.00011745
1670.0 0.00012129
1690.0 0.00012503
1710.0 0.00012881
1730.0 0.00013251
1750.0 0.00013589
1770.0 0.00013924
1790.0 0.0001425
1810.0 0.0001455
1830.0 0.00014826
1850.0 0.00015102
1870.0 0.0001535
1890.0 0.00015564
1910.0 0.00015763
1930.0 0.00015946
1950.0 0.0001609
1970.0 0.00016206
1990.0 0.00016309
2010.0 0.0001638
2030.0 0.00016416
2050.0 0.00016435
2070.0 0.00016435
2090.0 0.00016393
2110.0 0.00016325
2130.0 0.00016241
2150.0 0.00016128
2170.0 0.0001598
2190.0 0.0001582
2210.0 0.00015639
2230.0 0.00015429
2250.0 0.000152
2270.0 0.00014962
2290.0 0.00014702
2310.0 0.00014419
2330.0 0.0001413
2350.0 0.00013831
2370.0 0.00013514
2390.0 0.00013189
2410.0 0.00012862
2430.0 0.00012519
2450.0 0.00012159
2470.0 0.00011786
2490.0 0.00011397
2510.0 0.0001099
2530.0 0.00010587
2550.0 0.0001022
2570.0 9.9329e-05
2590.0 9.7716e-05
2610.0 9.8276e-05
2630.0 0.00010133
2650.0 0.00010649
2670.0 0.00011377
2690.0 0.00012277
2710.0 0.0001317
2730.0 0.00013965
2750.0 0.00014686
2770.0 0.00015222
2790.0 0.00015549
2810.0 0.00015742
2830.0 0.00015852
2850.0 0.0001585
2870.0 0.00015807
2890.0 0.00015764
2910.0 0.00015717
2930.0 0.0001566
2950.0 0.00015631
2970.0 0.00015628
2990.0 0.00015634
3010.0 0.00035711
3030.0 0.00035856
3050.0 0.00036042
3070.0 0.00036199
3090.0 0.00036312
3110.0 0.00036243
3130.0 0.00035853
3150.0 0.00035089
3170.0 0.00033729
3190.0 0.00033797
3210.0 0.00039856
3230.0 0.00051281
3250.0 0.00074932
3270.0 0.00084591
3290.0 0.0010749
3310.0 0.001006
3330.0 0.0010632
3350.0 0.0011633
3370.0 0.0012922
3390.0 0.0014423
3410.0 0.001601
3430.0 0.0017836
3450.0 0.0019837
3470.0 0.0021962
3490.0 0.0023938
3510.0 0.0025933
3530.0 0.0028138
3550.0 0.0028958
3570.0 0.0028632
3590.0 0.0030155
3610.0 0.0029809
3630.0 0.0034525
3650.0 0.0038246
3670.0 0.0040586
3690.0 0.0037977
3710.0 0.003168
3730.0 0.0029059
3750.0 0.0025972
3770.0 0.0023288
3790.0 0.0020685
3810.0 0.0019891
3830.0 0.0022478
3850.0 0.0010178
3870.0 0.0021846
3890.0 0.0027786
3910.0 0.0030197
3930.0 0.0034766
3950.0 0.0037554
3970.0 0.0043179
3990.0 0.0052978
4010.0 0.0039744
4030.0 0.003268
4050.0 0.002905
4070.0 0.0029888
4090.0 0.0042098
4110.0 0.0040246
4130.0 0.0041493
4150.0 0.0039396
4170.0 0.0037643
4190.0 0.0035253
4210.0 0.0049224
4230.0 0.0052434
4250.0 0.0055159
4270.0 0.0051874
4290.0 0.0053908
4310.0 0.0060738
4330.0 0.007011
4350.0 0.0069543
4370.0 0.0066583
4390.0 0.0056838
4410.0 0.005147
4430.0 0.0042326
4450.0 0.0037236
4470.0 0.0041452
4490.0 0.005087
4510.0 0.0053588
4530.0 0.0058177
4550.0 0.0063173
4570.0 0.0083656
4590.0 0.012034
4610.0 0.014754
4630.0 0.014716
4650.0 0.014314
4670.0 0.015597
4690.0 0.01729
4710.0 0.014246
4730.0 0.010672
4750.0 0.0085454
4770.0 0.0079016
4790.0 0.0078472
4810.0 0.0074725
4830.0 0.0081633
4850.0 0.0094525
4870.0 0.010785
4890.0 0.010618
4910.0 0.0093385
4930.0 0.0098363
4950.0 0.01252
4970.0 0.015827
4990.0 0.016525
5010.0 0.01491
5030.0 0.01202
5050.0 0.0088834
5070.0 0.0071211
5090.0 0.006462
5110.0 0.0063468
5130.0 0.0065503
5150.0 0.006517
5170.0 0.0065393
5190.0 0.0062804
5210.0 0.0062614
5230.0 0.0068447
5250.0 0.0074947
5270.0 0.0090296
5290.0 0.010577
5310.0 0.010787
5330.0 0.011255
5350.0 0.012635
5370.0 0.013759
5390.0 0.012731
5410.0 0.01118
5430.0 0.010666
5450.0 0.01228
5470.0 0.015651
5490.0 0.019053
5510.0 0.020686
5530.0 0.020682
5550.0 0.019694
5570.0 0.018941
5590.0 0.018473
5610.0 0.018617
5630.0 0.018695
5650.0 0.018674
5670.0 0.018828
5690.0 0.018065
5710.0 0.015529
5730.0 0.013447
5750.0 0.012077
5770.0 0.012329
5790.0 0.013164
5810.0 0.014108
5830.0 0.014619
5850.0 0.014238
5870.0 0.013234
5890.0 0.012064
5910.0 0.012254
5930.0 0.013333
5950.0 0.013101
5970.0 0.011892
5990.0 0.010265
6010.0 0.0083934
6030.0 0.0072771
6050.0 0.0075013
6070.0 0.0083597
6090.0 0.0085977
6110.0 0.0076443
6130.0 0.0073601
6150.0 0.0082265
6170.0 0.0097571
6190.0 0.011295
6210.0 0.011667
6230.0 0.01125
6250.0 0.010344
6270.0 0.0088861
6290.0 0.0074153
6310.0 0.0063656
6330.0 0.006025
6350.0 0.0062952
6370.0 0.0064276
6390.0 0.0068137
6410.0 0.0080629
6430.0 0.01024
6450.0 0.012448
6470.0 0.01342
6490.0 0.013125
6510.0 0.013213
6530.0 0.013785
6550.0 0.013742
6570.0 0.014105
6590.0 0.014208
6610.0 0.01424
6630.0 0.01439
6650.0 0.014014
6670.0 0.013057
6690.0 0.011557
6710.0 0.010281
6730.0 0.010274
6750.0 0.010961
6770.0 0.011522
6790.0 0.011783
6810.0 0.011817
6830.0 0.011585
6850.0 0.011268
6870.0 0.010601
6890.0 0.010236
6910.0 0.0096865
6930.0 0.0097144
6950.0 0.010472
6970.0 0.010985
6990.0 0.011393
7010.0 0.011303
7030.0 0.010549
7050.0 0.009237
7070.0 0.0077383
7090.0 0.0067523
7110.0 0.006618
7130.0 0.0069378
7150.0 0.0066655
7170.0 0.0061559
7190.0 0.0062821
7210.0 0.0069717
7230.0 0.0080898
7250.0 0.0089628
7270.0 0.0091888
7290.0 0.0084723
7310.0 0.0076128
7330.0 0.0070752
7350.0 0.0070213
7370.0 0.0072132
7390.0 0.0074889
7410.0 0.0080777
7430.0 0.0093374
7450.0 0.010795
7470.0 0.011916
7490.0 0.012213
7510.0 0.011665
7530.0 0.0096604
7550.0 0.0082266
7570.0 0.0070091
7590.0 0.0063613
7610.0 0.0066399
7630.0 0.0075105
7650.0 0.0084968
7670.0 0.0094029
7690.0 0.0099975
7710.0 0.010613
7730.0 0.011266
7750.0 0.011859
7770.0 0.011891
7790.0 0.011864
7810.0 0.012116
7830.0 0.012442
7850.0 0.012181
7870.0 0.011683
7890.0 0.011196
7910.0 0.010503
7930.0 0.010229
7950.0 0.0098551
7970.0 0.0096883
7990.0 0.0095517
8010.0 0.0098827
8030.0 0.0099298
8050.0 0.010079
8070.0 0.0099563
8090.0 0.0099121
8110.0 0.0094795
8130.0 0.0094063
8150.0 0.0091909
8170.0 0.0089187
8190.0 0.0087618
8210.0 0.0087953
8230.0 0.0084176
8250.0 0.0080204
8270.0 0.007059
8290.0 0.0056641
8310.0 0.0042398
8330.0 0.0032064
8350.0 0.0029002
8370.0 0.0033966
8390.0 0.0040838
8410.0 0.0044978
8430.0 0.0047813
8450.0 0.0050115
8470.0 0.0052724
8490.0 0.0058556
8510.0 0.0066186
8530.0 0.0076872
8550.0 0.0088841
8570.0 0.0099611
8590.0 0.010818
8610.0 0.011432
8630.0 0.011712
8650.0 0.011709
8670.0 0.011701
8690.0 0.01213
8710.0 0.012586
8730.0 0.012979
8750.0 0.012835
8770.0 0.012921
8790.0 0.01277
8810.0 0.01191
8830.0 0.011421
8850.0 0.010679
8870.0 0.010086
8890.0 0.0097522
8910.0 0.0098664
8930.0 0.0093288
8950.0 0.0088649
8970.0 0.008673
8990.0 0.0085188
9010.0 0.0082389
9030.0 0.0080465
9050.0 0.0079917
9070.0 0.0079658
9090.0 0.0079419
9110.0 0.007919
9130.0 0.0078949
9150.0 0.0078707
9170.0 0.0078398
9190.0 0.0078074
9210.0 0.0078318
9230.0 0.0077919
9250.0 0.0077594
9270.0 0.0077298
9290.0 0.0077022
9310.0 0.0076753
9330.0 0.0076491
9350.0 0.0076239
9370.0 0.0075987
9390.0 0.0075729
9410.0 0.0075476
9430.0 0.0075218
9450.0 0.0074903
9470.0 0.0074605
9490.0 0.0074403
9510.0 0.0074171
9530.0 0.0073929
9550.0 0.0073683
9570.0 0.0073433
9590.0 0.0073178
9610.0 0.0072923
9630.0 0.0072667
9650.0 0.007241
9670.0 0.0072152
9690.0 0.0071895
9710.0 0.0071638
9730.0 0.0071379
9750.0 0.007112
9770.0 0.0070864
9790.0 0.0070605
9810.0 0.0070345
9830.0 0.0070086
9850.0 0.0069828
9870.0 0.0069567
9890.0 0.0069305
9910.0 0.0069044
9930.0 0.0068775
9950.0 0.0067974
9970.0 0.006787
9990.0 0.0067736
10010.0 0.0067582
10030.0 0.0067384
10050.0 0.0067147
10070.0 0.0066897
10090.0 0.0066658
10110.0 0.0066385
10130.0 0.0066132
10150.0 0.006587
10170.0 0.0065589
10190.0 0.0065291
10210.0 0.0065016
10230.0 0.0064747
10250.0 0.0064456
10270.0 0.0064168
10290.0 0.0063897
10310.0 0.0063606
10330.0 0.0063297
10350.0 0.0063011
10370.0 0.0062723
10390.0 0.0062414
10410.0 0.0062106
10430.0 0.0061819
10450.0 0.006151
10470.0 0.0061189
10490.0 0.0060882
10510.0 0.0060575
10530.0 0.0060233
10550.0 0.0059903
10570.0 0.0059589
10590.0 0.0059254
10610.0 0.0058906
10630.0 0.0058578
10650.0 0.0058243
10670.0 0.0057878
10690.0 0.0057523
10710.0 0.0057177
10730.0 0.005681
10750.0 0.0056421
10770.0 0.0056064
10790.0 0.0055696
10810.0 0.0055303
10830.0 0.0054917
10850.0 0.0054544
10870.0 0.0054129
10890.0 0.0053705
10910.0 0.005329
10930.0 0.0052851
10950.0 0.0052361
10970.0 0.0051852
10990.0 0.0051331
11010.0 0.0049674
11030.0 0.0049023
11050.0 0.0048396
11070.0 0.0047763
11090.0 0.0047094
11110.0 0.0046486
11130.0 0.0045907
11150.0 0.0045323
11170.0 0.0044755
11190.0 0.0044236
11210.0 0.004371
11230.0 0.0043174
11250.0 0.0042666
11270.0 0.0042174
11290.0 0.0041659
11310.0 0.0041147
11330.0 0.0040675
11350.0 0.004019
11370.0 0.0039693
11390.0 0.0039215
11410.0 0.0038744
11430.0 0.0038231
11450.0 0.0037719
11470.0 0.0037214
11490.0 0.0036677
11510.0 0.0036098
11530.0 0.0035527
11550.0 0.0034939
11570.0 0.0034299
11590.0 0.0033642
11610.0 0.0032991
11630.0 0.0032293
11650.0 0.003156
11670.0 0.0030856
11690.0 0.0030147
11710.0 0.0029411
11730.0 0.0028692
11750.0 0.0028014
11770.0 0.0027324
11790.0 0.0026645
11810.0 0.0026013
11830.0 0.0025409
11850.0 0.0024797
11870.0 0.0024235
11890.0 0.0023721
11910.0 0.0023215
11930.0 0.0022728
11950.0 0.0022287
11970.0 0.0021862
11990.0 0.002144
12010.0 0.0021049
12030.0 0.0020687
12050.0 0.0020331
12070.0 0.0019986
12090.0 0.0019684
12110.0 0.0019397
12130.0 0.0019124
12150.0 0.0018883
12170.0 0.0018675
12190.0 0.0018482
12210.0 0.0018325
12230.0 0.0018206
12250.0 0.0018121
12270.0 0.0018071
12290.0 0.0018063
12310.0 0.0018094
12330.0 0.0018167
12350.0 0.0018282
12370.0 0.0018435
12390.0 0.0018629
12410.0 0.0018874
12430.0 0.0019144
12450.0 0.0019442
12470.0 0.0019777
12490.0 0.0020136
12510.0 0.0020494
12530.0 0.0020871
12550.0 0.0021258
12570.0 0.0021626
12590.0 0.0021975
12610.0 0.0022314
12630.0 0.002262
12650.0 0.0022873
12670.0 0.0023091
12690.0 0.0023263
12710.0 0.0023379
12730.0 0.0023446
12750.0 0.0023461
12770.0 0.0023423
12790.0 0.0023341
12810.0 0.0023214
12830.0 0.0023044
12850.0 0.002285
12870.0 0.0022633
12890.0 0.0022388
12910.0 0.0022133
12930.0 0.0021878
12950.0 0.002161
12970.0 0.0021336
12990.0 0.0021078
13010.0 0.0020822
13030.0 0.0020563
13050.0 0.0020311
13070.0 0.0020072
13090.0 0.0019826
13110.0 0.0019578
13130.0 0.0019341
13150.0 0.0019104
13170.0 0.0018856
13190.0 0.0018621
13210.0 0.0018398
13230.0 0.0018177
13250.0 0.0017967
13270.0 0.0017782
13290.0 0.0017615
13310.0 0.0017468
13330.0 0.0017354
13350.0 0.0017273
13370.0 0.0017221
13390.0 0.0017201
13410.0 0.0017208
13430.0 0.0017236
13450.0 0.0017281
13470.0 0.0017331
13490.0 0.0017378
13510.0 0.0017416
13530.0 0.0017433
13550.0 0.0017421
13570.0 0.0017376
13590.0 0.0017292
13610.0 0.0017171
13630.0 0.0017018
13650.0 0.0016824
13670.0 0.0016601
13690.0 0.0016362
13710.0 0.0016103
13730.0 0.0015822
13750.0 0.0015554
13770.0 0.0015293
13790.0 0.0015034
13810.0 0.0014791
13830.0 0.0014575
13850.0 0.0014372
13870.0 0.0014187
13890.0 0.0014029
13910.0 0.0013892
13930.0 0.0013769
13950.0 0.0013664
13970.0 0.0013578
13990.0 0.0013502
14010.0 0.0013435
14030.0 0.0013378
14050.0 0.0013327
14070.0 0.0013276
14090.0 0.0013228
14110.0 0.001318
14130.0 0.0013128
14150.0 0.001307
14170.0 0.001301
14190.0 0.0012944
14210.0 0.0012871
14230.0 0.0012793
14250.0 0.0012713
14270.0 0.0012628
14290.0 0.0012541
14310.0 0.0012459
14330.0 0.0012379
14350.0 0.0012303
14370.0 0.0012235
14390.0 0.0012176
14410.0 0.0012124
14430.0 0.0012081
14450.0 0.0012047
14470.0 0.0012021
14490.0 0.0012001
14510.0 0.0011987
14530.0 0.0011978
14550.0 0.0011972
14570.0 0.0011971
14590.0 0.0011974
14610.0 0.0011981
14630.0 0.0011995
14650.0 0.0012015
14670.0 0.0012043
14690.0 0.0012081
14710.0 0.0012132
14730.0 0.0012191
14750.0 0.0012263
14770.0 0.0012351
14790.0 0.0012451
14810.0 0.0012563
14830.0 0.0012699
14850.0 0.0012851
14870.0 0.0013013
14890.0 0.0013194
14910.0 0.0013391
14930.0 0.0013586
14950.0 0.0013773
14970.0 0.0013954
14990.0 0.0014109
15010.0 0.0014229
15030.0 0.0014317
15050.0 0.0014376
15070.0 0.0014401
15090.0 0.0014406
15110.0 0.0014397
15130.0 0.0014379
15150.0 0.0014355
15170.0 0.0014329
15190.0 0.0014302
15210.0 0.0014274
15230.0 0.0014245
15250.0 0.0014217
15270.0 0.0014188
15290.0 0.001416
15310.0 0.0014132
15330.0 0.0014103
15350.0 0.0014074
15370.0 0.0014046
15390.0 0.0014017
15410.0 0.0013988
15430.0 0.001396
15450.0 0.0013931
15470.0 0.0013902
15490.0 0.0013873
15510.0 0.0013844
15530.0 0.0013815
15550.0 0.0013786
15570.0 0.0013758
15590.0 0.0013728
15610.0 0.0013699
15630.0 0.001367
15650.0 0.0013641
15670.0 0.0013612
15690.0 0.0013583
15710.0 0.0013554
15730.0 0.0013525
15750.0 0.0013495
15770.0 0.0013466
15790.0 0.0013437
15810.0 0.0013408
15830.0 0.0013378
15850.0 0.0013349
15870.0 0.001332
15890.0 0.0013291
15910.0 0.0013261
15930.0 0.0013232
15950.0 0.0013202
15970.0 0.0013173
15990.0 0.0013144
16010.0 0.0013114
16030.0 0.0013085
16050.0 0.0013055
16070.0 0.0013026
16090.0 0.0012996
16110.0 0.0012967
16130.0 0.0012938
16150.0 0.0012908
16170.0 0.0012878
16190.0 0.0012849
16210.0 0.0012819
16230.0 0.0012789
16250.0 0.001276
16270.0 0.001273
16290.0 0.0012701
16310.0 0.0012671
16330.0 0.0012642
16350.0 0.0012612
16370.0 0.0012582
16390.0 0.0012552
16410.0 0.0012523
16430.0 0.0012493
16450.0 0.0012463
16470.0 0.0012434
16490.0 0.0012404
16510.0 0.0012374
16530.0 0.0012344
16550.0 0.0012315
16570.0 0.0012285
16590.0 0.0012255
16610.0 0.0012225
16630.0 0.0012195
16650.0 0.0012165
16670.0 0.0012136
16690.0 0.0012106
16710.0 0.0012076
16730.0 0.0012046
16750.0 0.0012016
16770.0 0.0011986
16790.0 0.0011956
16810.0 0.0011926
16830.0 0.0011896
16850.0 0.0011866
16870.0 0.0011836
16890.0 0.0011806
16910.0 0.0011776
16930.0 0.0011746
16950.0 0.0011716
16970.0 0.0011686
16990.0 0.0011656
17010.0 0.0011626
17030.0 0.0011596
17050.0 0.0011566
17070.0 0.0011535
17090.0 0.0011505
17110.0 0.0011475
17130.0 0.0011445
17150.0 0.0011415
17170.0 0.0011385
17190.0 0.0011354
17210.0 0.0011324
17230.0 0.0011294
17250.0 0.0011264
17270.0 0.0011233
17290.0 0.0011203
17310.0 0.0011173
17330.0 0.0011142
17350.0 0.0011112
17370.0 0.0011082
17390.0 0.0011051
17410.0 0.0011021
17430.0 0.0010991
17450.0 0.001096
17470.0 0.001093
17490.0 0.0010899
17510.0 0.0010869
17530.0 0.0010838
17550.0 0.0010808
17570.0 0.0010777
17590.0 0.0010747
17610.0 0.0010716
17630.0 0.0010686
17650.0 0.0010655
17670.0 0.0010625
17690.0 0.0010594
17710.0 0.0010564
17730.0 0.0010533
17750.0 0.0010503
17770.0 0.0010472
17790.0 0.0010442
17810.0 0.0010411
17830.0 0.001038
17850.0 0.001035
17870.0 0.0010319
17890.0 0.0010289
17910.0 0.0010258
17930.0 0.0010228
17950.0 0.0010197
17970.0 0.0010167
17990.0 0.0010136
18010.0 0.0010106
18030.0 0.0010075
18050.0 0.0010044
18070.0 0.0010014
18090.0 0.00099834
18110.0 0.00099528
18130.0 0.00099225
18150.0 0.00098921
18170.0 0.00098615
18190.0 0.00098311
18210.0 0.00098009
18230.0 0.00097704
18250.0 0.00097398
18270.0 0.00097096
18290.0 0.00096793
18310.0 0.00096489
18330.0 0.00096187
18350.0 0.00095886
18370.0 0.00095583
18390.0 0.0009528
18410.0 0.00094979
18430.0 0.00094678
18450.0 0.00094375
18470.0 0.00094075
18490.0 0.00093776
18510.0 0.00093476
18530.0 0.00093176
18550.0 0.00092879
18570.0 0.0009258
18590.0 0.0009228
18610.0 0.00091983
18630.0 0.00091686
18650.0 0.00091388
18670.0 0.00091091
18690.0 0.00090797
18710.0 0.00090502
18730.0 0.00090206
18750.0 0.00089913
18770.0 0.0008962
18790.0 0.00089325
18810.0 0.00089032
18830.0 0.00088742
18850.0 0.0008845
18870.0 0.00088158
18890.0 0.00087869
18910.0 0.00087581
18930.0 0.00087291
18950.0 0.00087003
18970.0 0.00086717
18990.0 0.0008643
19010.0 0.00086142
19030.0 0.00085858
19050.0 0.00085575
19070.0 0.0008529
19090.0 0.00085007
19110.0 0.00084727
19130.0 0.00084445
19150.0 0.00084164
19170.0 0.00083885
19190.0 0.00083607
19210.0 0.00083327
19230.0 0.0008305
19250.0 0.00082775
19270.0 0.000825
19290.0 0.00082224
19310.0 0.00081952
19330.0 0.0008168
19350.0 0.00081406
19370.0 0.00081135
19390.0 0.00080867
19410.0 0.00080597
19430.0 0.00080328
19450.0 0.00080062
19470.0 0.00079797
19490.0 0.00079531
19510.0 0.00079267
19530.0 0.00079005
19550.0 0.00078742
19570.0 0.00078479
19590.0 0.0007822
19610.0 0.00077962
19630.0 0.00077703
19650.0 0.00077446
19670.0 0.00077191
19690.0 0.00076935
19710.0 0.00076681
19730.0 0.00076429
19750.0 0.00076178
19770.0 0.00075925
19790.0 0.00075676
19810.0 0.00075428
19830.0 0.00075177
19850.0 0.00074925
19870.0 0.0007467
19890.0 0.00074399
19910.0 0.000741
19930.0 0.00073761
19950.0 0.00073361
19970.0 0.0007286
19990.0 0.00072241
20010.0 0.00071519
20030.0 0.00070648
20050.0 0.00069637
20070.0 0.00068548
20090.0 0.00067394
20110.0 0.00066125
20130.0 0.00064865
20150.0 0.00063639
20170.0 0.00062399
20190.0 0.00061166
20210.0 0.00060009
20230.0 0.00058889
20250.0 0.00057769
20270.0 0.00056715
20290.0 0.00055727
20310.0 0.00054759
20330.0 0.00053809
20350.0 0.00052957
20370.0 0.00052136
20390.0 0.00051337
20410.0 0.00050594
20430.0 0.00049912
20450.0 0.00049242
20470.0 0.0004862
20490.0 0.0004806
20510.0 0.00047543
20530.0 0.0004706
20550.0 0.00046635
20570.0 0.00046268
20590.0 0.00045938
20610.0 0.00045658
20630.0 0.00045429
20650.0 0.00045242
20670.0 0.00045098
20690.0 0.00044996
20710.0 0.00044931
20730.0 0.000449
20750.0 0.000449
20770.0 0.00044919
20790.0 0.0004496
20810.0 0.00045021
20830.0 0.00045088
20850.0 0.00045156
20870.0 0.00045233
20890.0 0.00045304
20910.0 0.00045356
20930.0 0.00045397
20950.0 0.00045421
20970.0 0.00045418
20990.0 0.00045388
21010.0 0.00045331
21030.0 0.00045242
21050.0 0.00045121
21070.0 0.00044967
21090.0 0.00044776
21110.0 0.00044558
21130.0 0.00044312
21150.0 0.00044033
21170.0 0.0004373
21190.0 0.00043413
21210.0 0.00043068
21230.0 0.000427
21250.0 0.0004233
21270.0 0.00041952
21290.0 0.00041557
21310.0 0.00041162
21330.0 0.0004078
21350.0 0.00040391
21370.0 0.00040005
21390.0 0.00039638
21410.0 0.00039285
21430.0 0.00038932
21450.0 0.00038609
21470.0 0.00038315
21490.0 0.0003804
21510.0 0.00037791
21530.0 0.00037579
21550.0 0.00037396
21570.0 0.00037245
21590.0 0.00037132
21610.0 0.00037054
21630.0 0.00037012
21650.0 0.0003701
21670.0 0.00037037
21690.0 0.00037097
21710.0 0.00037192
21730.0 0.00037312
21750.0 0.00037448
21770.0 0.00037617
21790.0 0.00037802
21810.0 0.00037989
21830.0 0.00038185
21850.0 0.00038394
21870.0 0.00038594
21890.0 0.00038779
21910.0 0.00038965
21930.0 0.00039139
21950.0 0.00039288
21970.0 0.00039423
21990.0 0.00039546
22010.0 0.00039638
22030.0 0.00039707
22050.0 0.00039757
22070.0 0.00039784
22090.0 0.00039784
22110.0 0.00039765
22130.0 0.00039725
22150.0 0.00039663
22170.0 0.00039581
22190.0 0.00039478
22210.0 0.00039354
22230.0 0.00039216
22250.0 0.00039057
22270.0 0.00038877
22290.0 0.00038683
22310.0 0.00038474
22330.0 0.00038237
22350.0 0.00037983
22370.0 0.00037716
22390.0 0.00037425
22410.0 0.00037106
22430.0 0.00036778
22450.0 0.00036433
22470.0 0.00036057
22490.0 0.00035664
22510.0 0.00035266
22530.0 0.00034837
22550.0 0.00034384
22570.0 0.00033936
22590.0 0.00033477
22610.0 0.00032997
22630.0 0.00032519
22650.0 0.00032059
22670.0 0.00031585
22690.0 0.00031114
22710.0 0.00030667
22730.0 0.00030233
22750.0 0.00029794
22770.0 0.00029388
22790.0 0.00029013
22810.0 0.00028649
22830.0 0.00028304
22850.0 0.00027995
22870.0 0.00027704
22890.0 0.00027427
22910.0 0.00027177
22930.0 0.00026951
22950.0 0.00026737
22970.0 0.00026536
22990.0 0.0002636
23010.0 0.00026193
23030.0 0.00026032
23050.0 0.00025882
23070.0 0.0002574
23090.0 0.00025594
23110.0 0.00025452
23130.0 0.00025312
23150.0 0.00025169
23170.0 0.00025019
23190.0 0.00024869
23210.0 0.00024719
23230.0 0.0002456
23250.0 0.000244
23270.0 0.00024243
23290.0 0.00024084
23310.0 0.00023921
23330.0 0.00023769
23350.0 0.00023623
23370.0 0.00023478
23390.0 0.00023342
23410.0 0.00023217
23430.0 0.00023096
23450.0 0.0002298
23470.0 0.00022873
23490.0 0.00022773
23510.0 0.00022674
