#lamb flux
1010.0 1.9474e-06
1030.0 2.1668e-06
1050.0 2.464e-06
1070.0 2.9085e-06
1090.0 3.4916e-06
1110.0 4.1171e-06
1130.0 4.7711e-06
1150.0 5.4711e-06
1170.0 6.1967e-06
1190.0 6.8749e-06
1210.0 7.5295e-06
1230.0 8.1521e-06
1250.0 8.7284e-06
1270.0 9.197e-06
1290.0 9.5898e-06
1310.0 9.8632e-06
1330.0 9.992e-06
1350.0 1.0009e-05
1370.0 9.93e-06
1390.0 9.7399e-06
1410.0 9.4561e-06
1430.0 9.1259e-06
1450.0 8.747e-06
1470.0 8.3271e-06
1490.0 7.8975e-06
1510.0 7.481e-06
1530.0 7.06e-06
1550.0 6.6566e-06
1570.0 6.2862e-06
1590.0 5.9465e-06
1610.0 5.6495e-06
1630.0 5.4623e-06
1650.0 5.3275e-06
1670.0 5.2412e-06
1690.0 5.2097e-06
1710.0 5.2427e-06
1730.0 5.338e-06
1750.0 5.4894e-06
1770.0 5.7131e-06
1790.0 6.0116e-06
1810.0 6.3811e-06
1830.0 6.827e-06
1850.0 7.3652e-06
1870.0 7.9852e-06
1890.0 8.6866e-06
1910.0 9.4798e-06
1930.0 1.0366e-05
1950.0 1.1328e-05
1970.0 1.2368e-05
1990.0 1.3491e-05
2010.0 1.4676e-05
2030.0 1.5907e-05
2050.0 1.7191e-05
2070.0 1.8515e-05
2090.0 1.9836e-05
2110.0 2.1158e-05
2130.0 2.2479e-05
2150.0 2.3767e-05
2170.0 2.4998e-05
2190.0 2.6195e-05
2210.0 2.7336e-05
2230.0 2.8397e-05
2250.0 2.9386e-05
2270.0 3.0327e-05
2290.0 3.1186e-05
2310.0 3.1964e-05
2330.0 3.2699e-05
2350.0 3.3394e-05
2370.0 3.4037e-05
2390.0 3.4674e-05
2410.0 3.5355e-05
2430.0 3.6073e-05
2450.0 3.6867e-05
2470.0 3.7818e-05
2490.0 3.8967e-05
2510.0 4.0264e-05
2530.0 4.1831e-05
2550.0 4.38e-05
2570.0 4.6221e-05
2590.0 4.9226e-05
2610.0 5.334e-05
2630.0 5.8623e-05
2650.0 6.4886e-05
2670.0 7.2314e-05
2690.0 8.0814e-05
2710.0 8.9514e-05
2730.0 9.8048e-05
2750.0 0.00010672
2770.0 0.00011504
2790.0 0.00012296
2810.0 0.00013105
2830.0 0.00013983
2850.0 0.00014875
2870.0 0.00015819
2890.0 0.00016851
2910.0 0.00017938
2930.0 0.00019037
2950.0 0.00020211
2970.0 0.00021449
2990.0 0.00022698
3010.0 0.00023979
3030.0 0.00025335
3050.0 0.00026728
3070.0 0.00028085
3090.0 0.00029466
3110.0 0.00030815
3130.0 0.00032039
3150.0 0.00033108
3170.0 0.00033985
3190.0 0.00034621
3210.0 0.00035082
3230.0 0.00035406
3250.0 0.00035588
3270.0 0.0003572
3290.0 0.00035881
3310.0 0.00036126
3330.0 0.00036464
3350.0 0.00036867
3370.0 0.00037304
3390.0 0.00037448
3410.0 0.00037685
3430.0 0.00038823
3450.0 0.00039627
3470.0 0.00039783
3490.0 0.00041297
3510.0 0.00047368
3530.0 0.00058319
3550.0 0.00066056
3570.0 0.00072234
3590.0 0.00081305
3610.0 0.00081027
3630.0 0.00074673
3650.0 0.0007842
3670.0 0.00092536
3690.0 0.0010383
3710.0 0.0010761
3730.0 0.0010849
3750.0 0.0011588
3770.0 0.0011652
3790.0 0.0011101
3810.0 0.0010465
3830.0 0.00099201
3850.0 0.00099862
3870.0 0.0010429
3890.0 0.0010747
3910.0 0.0010906
3930.0 0.0010912
3950.0 0.0011678
3970.0 0.0012581
3990.0 0.0012232
4010.0 0.0010913
4030.0 0.00098327
4050.0 0.00097502
4070.0 0.0010191
4090.0 0.0010102
4110.0 0.00097215
4130.0 0.0009667
4150.0 0.0010118
4170.0 0.0011182
4190.0 0.0011748
4210.0 0.0011068
4230.0 0.0010182
4250.0 0.00096361
4270.0 0.00092943
4290.0 0.00093555
4310.0 0.00096059
4330.0 0.00091401
4350.0 0.00081004
4370.0 0.00072258
4390.0 0.00066174
4410.0 0.00062832
4430.0 0.00064629
4450.0 0.00071116
4470.0 0.00078106
4490.0 0.00083525
4510.0 0.0009242
4530.0 0.0010862
4550.0 0.0012562
4570.0 0.00136
4590.0 0.0014493
4610.0 0.0015275
4630.0 0.0015405
4650.0 0.0014296
4670.0 0.0012445
4690.0 0.0010999
4710.0 0.0010516
4730.0 0.0010048
4750.0 0.00088427
4770.0 0.00079091
4790.0 0.00081497
4810.0 0.0008834
4830.0 0.00086369
4850.0 0.00076753
4870.0 0.00078522
4890.0 0.00080537
4910.0 0.00081691
4930.0 0.00080363
4950.0 0.00078856
4970.0 0.00075364
4990.0 0.00069611
5010.0 0.0006553
5030.0 0.00064394
5050.0 0.00064047
5070.0 0.00063941
5090.0 0.00063847
5110.0 0.00063768
5130.0 0.00065067
5150.0 0.00068286
5170.0 0.0007434
5190.0 0.0008232
5210.0 0.00088761
5230.0 0.00092623
5250.0 0.00094794
5270.0 0.00097881
5290.0 0.0010031
5310.0 0.00099808
5330.0 0.00096364
5350.0 0.00092986
5370.0 0.00093123
5390.0 0.0009557
5410.0 0.00097365
5430.0 0.00096588
5450.0 0.00095208
5470.0 0.00093116
5490.0 0.00090989
5510.0 0.00090213
5530.0 0.00090673
5550.0 0.00091635
5570.0 0.00091998
5590.0 0.00089564
5610.0 0.0008509
5630.0 0.00080915
5650.0 0.00077165
5670.0 0.00074554
5690.0 0.00071573
5710.0 0.00069842
5730.0 0.00070174
5750.0 0.0006946
5770.0 0.00068233
5790.0 0.00068879
5810.0 0.00070895
5830.0 0.00072444
5850.0 0.00072889
5870.0 0.00071091
5890.0 0.00068256
5910.0 0.00065737
5930.0 0.00062441
5950.0 0.00059656
5970.0 0.00059992
5990.0 0.00061458
6010.0 0.00061432
6030.0 0.00059326
6050.0 0.00058943
6070.0 0.00060994
6090.0 0.00063082
6110.0 0.00062912
6130.0 0.00059772
6150.0 0.00055658
6170.0 0.00053381
6190.0 0.00052145
6210.0 0.00051054
6230.0 0.00050033
6250.0 0.00049999
6270.0 0.00051421
6290.0 0.00053479
6310.0 0.00055801
6330.0 0.00058248
6350.0 0.00059737
6370.0 0.00059915
6390.0 0.00059578
6410.0 0.00060055
6430.0 0.0006081
6450.0 0.00060781
6470.0 0.00060905
6490.0 0.00061261
6510.0 0.00061242
6530.0 0.00060499
6550.0 0.00058963
6570.0 0.00057085
6590.0 0.00055442
6610.0 0.00054157
6630.0 0.000531
6650.0 0.00051373
6670.0 0.00049465
6690.0 0.00047989
6710.0 0.00047144
6730.0 0.00046671
6750.0 0.00046219
6770.0 0.00045606
6790.0 0.0004478
6810.0 0.00043979
6830.0 0.00043722
6850.0 0.00043497
6870.0 0.00043125
6890.0 0.00043061
6910.0 0.00042481
6930.0 0.00041771
6950.0 0.00041672
6970.0 0.00041304
6990.0 0.00040445
7010.0 0.00039785
7030.0 0.00039076
7050.0 0.0003833
7070.0 0.0003742
7090.0 0.00036622
7110.0 0.00037153
7130.0 0.00038208
7150.0 0.0003904
7170.0 0.00039544
7190.0 0.00039479
7210.0 0.00038974
7230.0 0.00038339
7250.0 0.00037942
7270.0 0.00037273
7290.0 0.0003672
7310.0 0.00036415
7330.0 0.00036793
7350.0 0.00036899
7370.0 0.00036781
7390.0 0.00036442
7410.0 0.00035878
7430.0 0.00035512
7450.0 0.00035141
7470.0 0.00034076
7490.0 0.00032935
7510.0 0.00031554
7530.0 0.00030442
7550.0 0.00029851
7570.0 0.00030251
7590.0 0.00030054
7610.0 0.0002972
7630.0 0.00029417
7650.0 0.00029563
7670.0 0.00030175
7690.0 0.00031401
7710.0 0.00032241
7730.0 0.00033441
7750.0 0.00034197
7770.0 0.0003481
7790.0 0.00034868
7810.0 0.00034197
7830.0 0.00034299
7850.0 0.00033978
7870.0 0.00033123
7890.0 0.00032004
7910.0 0.00031049
7930.0 0.00030331
7950.0 0.00029892
7970.0 0.00029903
7990.0 0.00030141
8010.0 0.00030055
8030.0 0.00029735
8050.0 0.00029186
8070.0 0.00028652
8090.0 0.00028063
8110.0 0.00028167
8130.0 0.00028413
8150.0 0.0002846
8170.0 0.00028219
8190.0 0.00027841
8210.0 0.00026747
8230.0 0.0002502
8250.0 0.00023957
8270.0 0.0002334
8290.0 0.00023041
8310.0 0.00023143
8330.0 0.00023664
8350.0 0.00023246
8370.0 0.00022739
8390.0 0.0002305
8410.0 0.00023773
8430.0 0.00024996
8450.0 0.00026117
8470.0 0.00026413
8490.0 0.00026654
8510.0 0.0002651
8530.0 0.00026351
8550.0 0.00026549
8570.0 0.00026578
8590.0 0.00026495
8610.0 0.00027219
8630.0 0.00027422
8650.0 0.00026824
8670.0 0.00026768
8690.0 0.00026865
8710.0 0.00026493
8730.0 0.00026264
8750.0 0.00025459
8770.0 0.00025118
8790.0 0.00024845
8810.0 0.00024596
8830.0 0.0002352
8850.0 0.00021827
8870.0 0.00020516
8890.0 0.00019794
8910.0 0.00018581
8930.0 0.00017298
8950.0 0.00016839
8970.0 0.00016714
8990.0 0.00016731
9010.0 0.00016603
9030.0 0.00016484
9050.0 0.00016375
9070.0 0.00016268
9090.0 0.00016162
9110.0 0.00016057
9130.0 0.00015951
9150.0 0.00015846
9170.0 0.00015741
9190.0 0.00015635
9210.0 0.0001553
9230.0 0.00015426
9250.0 0.00015322
9270.0 0.00015218
9290.0 0.00015114
9310.0 0.0001501
9330.0 0.00014907
9350.0 0.00014805
9370.0 0.00014702
9390.0 0.000146
9410.0 0.00014499
9430.0 0.00014397
9450.0 0.00014295
9470.0 0.00014195
9490.0 0.00014098
9510.0 0.00013998
9530.0 0.00013899
9550.0 0.000138
9570.0 0.00013702
9590.0 0.00013605
9610.0 0.00013508
9630.0 0.00013411
9650.0 0.00013315
9670.0 0.0001322
9690.0 0.00013125
9710.0 0.00013031
9730.0 0.00012938
9750.0 0.00012845
9770.0 0.00012752
9790.0 0.0001266
9810.0 0.00012569
9830.0 0.00012476
9850.0 0.00012369
9870.0 0.00012283
9890.0 0.000122
9910.0 0.00012115
9930.0 0.00012025
9950.0 0.0001194
9970.0 0.00011855
9990.0 0.00011768
10010.0 0.00011672
10030.0 0.00011583
10050.0 0.00011504
10070.0 0.00011425
10090.0 0.00011346
10110.0 0.00011261
10130.0 0.00011168
10150.0 0.00011089
10170.0 0.00011012
10190.0 0.00010932
10210.0 0.00010853
10230.0 0.00010776
10250.0 0.00010695
10270.0 0.00010616
10290.0 0.00010539
10310.0 0.0001046
10330.0 0.0001038
10350.0 0.00010303
10370.0 0.00010227
10390.0 0.00010149
10410.0 0.00010071
10430.0 9.9975e-05
10450.0 9.9216e-05
10470.0 9.8448e-05
10490.0 9.7707e-05
10510.0 9.6972e-05
10530.0 9.6203e-05
10550.0 9.5455e-05
10570.0 9.4735e-05
10590.0 9.3997e-05
10610.0 9.3251e-05
10630.0 9.2535e-05
10650.0 9.182e-05
10670.0 9.1076e-05
10690.0 9.0352e-05
10710.0 8.9646e-05
10730.0 8.8923e-05
10750.0 8.8182e-05
10770.0 8.7486e-05
10790.0 8.6783e-05
10810.0 8.6061e-05
10830.0 8.5354e-05
10850.0 8.4672e-05
10870.0 8.3953e-05
10890.0 8.3242e-05
10910.0 8.2563e-05
10930.0 8.1888e-05
10950.0 8.1206e-05
10970.0 8.0557e-05
10990.0 7.9951e-05
11010.0 7.9276e-05
11030.0 7.8744e-05
11050.0 7.8245e-05
11070.0 7.7752e-05
11090.0 7.7235e-05
11110.0 7.6739e-05
11130.0 7.6243e-05
11150.0 7.5724e-05
11170.0 7.5194e-05
11190.0 7.4682e-05
11210.0 7.4154e-05
11230.0 7.3613e-05
11250.0 7.3092e-05
11270.0 7.2587e-05
11290.0 7.2072e-05
11310.0 7.1571e-05
11330.0 7.1113e-05
11350.0 7.0661e-05
11370.0 7.0216e-05
11390.0 6.9802e-05
11410.0 6.9408e-05
11430.0 6.9005e-05
11450.0 6.8618e-05
11470.0 6.8247e-05
11490.0 6.787e-05
11510.0 6.7478e-05
11530.0 6.7096e-05
11550.0 6.6706e-05
11570.0 6.6289e-05
11590.0 6.586e-05
11610.0 6.543e-05
11630.0 6.4967e-05
11650.0 6.4478e-05
11670.0 6.3997e-05
11690.0 6.3507e-05
11710.0 6.2992e-05
11730.0 6.2481e-05
11750.0 6.1991e-05
11770.0 6.1486e-05
11790.0 6.0983e-05
11810.0 6.0506e-05
11830.0 6.0044e-05
11850.0 5.9571e-05
11870.0 5.9129e-05
11890.0 5.8719e-05
11910.0 5.8312e-05
11930.0 5.7919e-05
11950.0 5.7561e-05
11970.0 5.7218e-05
11990.0 5.6883e-05
12010.0 5.6579e-05
12030.0 5.6306e-05
12050.0 5.605e-05
12070.0 5.5816e-05
12090.0 5.5626e-05
12110.0 5.5463e-05
12130.0 5.5326e-05
12150.0 5.5226e-05
12170.0 5.516e-05
12190.0 5.5123e-05
12210.0 5.5122e-05
12230.0 5.5152e-05
12250.0 5.5213e-05
12270.0 5.5304e-05
12290.0 5.542e-05
12310.0 5.5553e-05
12330.0 5.571e-05
12350.0 5.5881e-05
12370.0 5.6055e-05
12390.0 5.6235e-05
12410.0 5.6421e-05
12430.0 5.659e-05
12450.0 5.6743e-05
12470.0 5.688e-05
12490.0 5.699e-05
12510.0 5.7065e-05
12530.0 5.7107e-05
12550.0 5.7106e-05
12570.0 5.706e-05
12590.0 5.6969e-05
12610.0 5.6822e-05
12630.0 5.6621e-05
12650.0 5.6384e-05
12670.0 5.6092e-05
12690.0 5.5748e-05
12710.0 5.5376e-05
12730.0 5.4974e-05
12750.0 5.4516e-05
12770.0 5.4043e-05
12790.0 5.3566e-05
12810.0 5.3064e-05
12830.0 5.254e-05
12850.0 5.2038e-05
12870.0 5.1539e-05
12890.0 5.1025e-05
12910.0 5.0523e-05
12930.0 5.0047e-05
12950.0 4.9559e-05
12970.0 4.9071e-05
12990.0 4.8618e-05
13010.0 4.8173e-05
13030.0 4.7723e-05
13050.0 4.7292e-05
13070.0 4.689e-05
13090.0 4.6483e-05
13110.0 4.6088e-05
13130.0 4.5724e-05
13150.0 4.5376e-05
13170.0 4.5029e-05
13190.0 4.4715e-05
13210.0 4.443e-05
13230.0 4.4154e-05
13250.0 4.3895e-05
13270.0 4.3663e-05
13290.0 4.3441e-05
13310.0 4.3222e-05
13330.0 4.3019e-05
13350.0 4.2826e-05
13370.0 4.2628e-05
13390.0 4.2426e-05
13410.0 4.2234e-05
13430.0 4.2035e-05
13450.0 4.1823e-05
13470.0 4.1609e-05
13490.0 4.1394e-05
13510.0 4.1157e-05
13530.0 4.0914e-05
13550.0 4.0673e-05
13570.0 4.0422e-05
13590.0 4.0156e-05
13610.0 3.9893e-05
13630.0 3.9633e-05
13650.0 3.9356e-05
13670.0 3.9077e-05
13690.0 3.8805e-05
13710.0 3.8525e-05
13730.0 3.8228e-05
13750.0 3.7946e-05
13770.0 3.7664e-05
13790.0 3.7369e-05
13810.0 3.7072e-05
13830.0 3.6785e-05
13850.0 3.6484e-05
13870.0 3.6171e-05
13890.0 3.5863e-05
13910.0 3.5553e-05
13930.0 3.5222e-05
13950.0 3.4886e-05
13970.0 3.4562e-05
13990.0 3.422e-05
14010.0 3.3866e-05
14030.0 3.3519e-05
14050.0 3.3171e-05
14070.0 3.28e-05
14090.0 3.2438e-05
14110.0 3.2088e-05
14130.0 3.1733e-05
14150.0 3.1377e-05
14170.0 3.1045e-05
14190.0 3.0724e-05
14210.0 3.0403e-05
14230.0 3.0099e-05
14250.0 2.9817e-05
14270.0 2.9535e-05
14290.0 2.9261e-05
14310.0 2.901e-05
14330.0 2.8767e-05
14350.0 2.8523e-05
14370.0 2.829e-05
14390.0 2.8071e-05
14410.0 2.7846e-05
14430.0 2.7625e-05
14450.0 2.7416e-05
14470.0 2.7211e-05
14490.0 2.7002e-05
14510.0 2.6807e-05
14530.0 2.6624e-05
14550.0 2.6442e-05
14570.0 2.6267e-05
14590.0 2.6106e-05
14610.0 2.5948e-05
14630.0 2.5793e-05
14650.0 2.5648e-05
14670.0 2.5512e-05
14690.0 2.5378e-05
14710.0 2.5249e-05
14730.0 2.5133e-05
14750.0 2.5021e-05
14770.0 2.4914e-05
14790.0 2.4818e-05
14810.0 2.4734e-05
14830.0 2.4656e-05
14850.0 2.4592e-05
14870.0 2.4543e-05
14890.0 2.4505e-05
14910.0 2.448e-05
14930.0 2.4465e-05
14950.0 2.4457e-05
14970.0 2.4452e-05
14990.0 2.4447e-05
15010.0 2.4439e-05
15030.0 2.4424e-05
15050.0 2.4402e-05
15070.0 2.4374e-05
15090.0 2.4341e-05
15110.0 2.4303e-05
15130.0 2.4263e-05
15150.0 2.4223e-05
15170.0 2.418e-05
15190.0 2.4137e-05
15210.0 2.4095e-05
15230.0 2.4052e-05
15250.0 2.4008e-05
15270.0 2.3965e-05
15290.0 2.3923e-05
15310.0 2.388e-05
15330.0 2.3836e-05
15350.0 2.3794e-05
15370.0 2.3751e-05
15390.0 2.3707e-05
15410.0 2.3664e-05
15430.0 2.3621e-05
15450.0 2.3578e-05
15470.0 2.3534e-05
15490.0 2.3492e-05
15510.0 2.3449e-05
15530.0 2.3406e-05
15550.0 2.3363e-05
15570.0 2.3321e-05
15590.0 2.3278e-05
15610.0 2.3234e-05
15630.0 2.3192e-05
15650.0 2.315e-05
15670.0 2.3107e-05
15690.0 2.3065e-05
15710.0 2.3024e-05
15730.0 2.2982e-05
15750.0 2.2939e-05
15770.0 2.2898e-05
15790.0 2.2857e-05
15810.0 2.2814e-05
15830.0 2.2773e-05
15850.0 2.2733e-05
15870.0 2.2691e-05
15890.0 2.265e-05
15910.0 2.261e-05
15930.0 2.257e-05
15950.0 2.2528e-05
15970.0 2.2488e-05
15990.0 2.2449e-05
16010.0 2.2409e-05
16030.0 2.2368e-05
16050.0 2.233e-05
16070.0 2.2291e-05
16090.0 2.2251e-05
16110.0 2.2213e-05
16130.0 2.2175e-05
16150.0 2.2136e-05
16170.0 2.2097e-05
16190.0 2.206e-05
16210.0 2.2022e-05
16230.0 2.1984e-05
16250.0 2.1947e-05
16270.0 2.191e-05
16290.0 2.1873e-05
16310.0 2.1836e-05
16330.0 2.18e-05
16350.0 2.1764e-05
16370.0 2.1726e-05
16390.0 2.1691e-05
16410.0 2.1656e-05
16430.0 2.162e-05
16450.0 2.1584e-05
16470.0 2.155e-05
16490.0 2.1515e-05
16510.0 2.1479e-05
16530.0 2.1445e-05
16550.0 2.1412e-05
16570.0 2.1377e-05
16590.0 2.1342e-05
16610.0 2.1309e-05
16630.0 2.1276e-05
16650.0 2.1242e-05
16670.0 2.1209e-05
16690.0 2.1177e-05
16710.0 2.1143e-05
16730.0 2.111e-05
16750.0 2.1078e-05
16770.0 2.1045e-05
16790.0 2.1012e-05
16810.0 2.0981e-05
16830.0 2.0949e-05
16850.0 2.0917e-05
16870.0 2.0885e-05
16890.0 2.0854e-05
16910.0 2.0822e-05
16930.0 2.0789e-05
16950.0 2.0759e-05
16970.0 2.0728e-05
16990.0 2.0696e-05
17010.0 2.0665e-05
17030.0 2.0635e-05
17050.0 2.0603e-05
17070.0 2.0572e-05
17090.0 2.0542e-05
17110.0 2.0511e-05
17130.0 2.0479e-05
17150.0 2.0449e-05
17170.0 2.0419e-05
17190.0 2.0388e-05
17210.0 2.0357e-05
17230.0 2.0327e-05
17250.0 2.0296e-05
17270.0 2.0265e-05
17290.0 2.0234e-05
17310.0 2.0204e-05
17330.0 2.0173e-05
17350.0 2.0141e-05
17370.0 2.0111e-05
17390.0 2.008e-05
17410.0 2.0049e-05
17430.0 2.0018e-05
17450.0 1.9988e-05
17470.0 1.9955e-05
17490.0 1.9923e-05
17510.0 1.9893e-05
17530.0 1.9861e-05
17550.0 1.9829e-05
17570.0 1.9797e-05
17590.0 1.9766e-05
17610.0 1.9733e-05
17630.0 1.9701e-05
17650.0 1.9669e-05
17670.0 1.9637e-05
17690.0 1.9602e-05
17710.0 1.957e-05
17730.0 1.9538e-05
17750.0 1.9504e-05
17770.0 1.947e-05
17790.0 1.9438e-05
17810.0 1.9403e-05
17830.0 1.9368e-05
17850.0 1.9335e-05
17870.0 1.93e-05
17890.0 1.9265e-05
17910.0 1.9229e-05
17930.0 1.9195e-05
17950.0 1.9159e-05
17970.0 1.9123e-05
17990.0 1.9087e-05
18010.0 1.9052e-05
18030.0 1.9014e-05
18050.0 1.8977e-05
18070.0 1.894e-05
18090.0 1.8902e-05
18110.0 1.8864e-05
18130.0 1.8827e-05
18150.0 1.8789e-05
18170.0 1.8749e-05
18190.0 1.871e-05
18210.0 1.8672e-05
18230.0 1.8631e-05
18250.0 1.8591e-05
18270.0 1.8551e-05
18290.0 1.8511e-05
18310.0 1.8469e-05
18330.0 1.8428e-05
18350.0 1.8387e-05
18370.0 1.8345e-05
18390.0 1.8302e-05
18410.0 1.826e-05
18430.0 1.8217e-05
18450.0 1.8172e-05
18470.0 1.8129e-05
18490.0 1.8086e-05
18510.0 1.8041e-05
18530.0 1.7996e-05
18550.0 1.7952e-05
18570.0 1.7906e-05
18590.0 1.7859e-05
18610.0 1.7813e-05
18630.0 1.7767e-05
18650.0 1.772e-05
18670.0 1.7672e-05
18690.0 1.7626e-05
18710.0 1.7578e-05
18730.0 1.7529e-05
18750.0 1.7481e-05
18770.0 1.7432e-05
18790.0 1.7382e-05
18810.0 1.7332e-05
18830.0 1.7283e-05
18850.0 1.7232e-05
18870.0 1.7181e-05
18890.0 1.713e-05
18910.0 1.708e-05
18930.0 1.7027e-05
18950.0 1.6975e-05
18970.0 1.6924e-05
18990.0 1.6871e-05
19010.0 1.6817e-05
19030.0 1.6764e-05
19050.0 1.6711e-05
19070.0 1.6657e-05
19090.0 1.6602e-05
19110.0 1.6549e-05
19130.0 1.6494e-05
19150.0 1.6438e-05
19170.0 1.6383e-05
19190.0 1.6328e-05
19210.0 1.6271e-05
19230.0 1.6215e-05
19250.0 1.616e-05
19270.0 1.6103e-05
19290.0 1.6045e-05
19310.0 1.5989e-05
19330.0 1.5932e-05
19350.0 1.5873e-05
19370.0 1.5816e-05
19390.0 1.5758e-05
19410.0 1.57e-05
19430.0 1.5641e-05
19450.0 1.5583e-05
19470.0 1.5524e-05
19490.0 1.5465e-05
19510.0 1.5406e-05
19530.0 1.5347e-05
19550.0 1.5287e-05
19570.0 1.5226e-05
19590.0 1.5167e-05
19610.0 1.5107e-05
19630.0 1.5047e-05
19650.0 1.4987e-05
19670.0 1.4927e-05
19690.0 1.4866e-05
19710.0 1.4805e-05
19730.0 1.4745e-05
19750.0 1.4685e-05
19770.0 1.4623e-05
19790.0 1.4562e-05
19810.0 1.4502e-05
19830.0 1.444e-05
19850.0 1.4378e-05
19870.0 1.4317e-05
19890.0 1.4253e-05
19910.0 1.4185e-05
19930.0 1.4114e-05
19950.0 1.4037e-05
19970.0 1.3948e-05
19990.0 1.3847e-05
20010.0 1.3736e-05
20030.0 1.3608e-05
20050.0 1.3464e-05
20070.0 1.3311e-05
20090.0 1.3151e-05
20110.0 1.2976e-05
20130.0 1.2801e-05
20150.0 1.2629e-05
20170.0 1.2454e-05
20190.0 1.2279e-05
20210.0 1.2112e-05
20230.0 1.1949e-05
20250.0 1.1786e-05
20270.0 1.1631e-05
20290.0 1.1486e-05
20310.0 1.1343e-05
20330.0 1.1204e-05
20350.0 1.108e-05
20370.0 1.096e-05
20390.0 1.0846e-05
20410.0 1.0739e-05
20430.0 1.0642e-05
20450.0 1.0548e-05
20470.0 1.0461e-05
20490.0 1.0382e-05
20510.0 1.0308e-05
20530.0 1.0238e-05
20550.0 1.0175e-05
20570.0 1.0118e-05
20590.0 1.0064e-05
20610.0 1.0015e-05
20630.0 9.9703e-06
20650.0 9.9288e-06
20670.0 9.8896e-06
20690.0 9.8537e-06
20710.0 9.8199e-06
20730.0 9.787e-06
20750.0 9.7549e-06
20770.0 9.7232e-06
20790.0 9.6908e-06
20810.0 9.6567e-06
20830.0 9.6211e-06
20850.0 9.5834e-06
20870.0 9.5419e-06
20890.0 9.4967e-06
20910.0 9.449e-06
20930.0 9.3968e-06
20950.0 9.3396e-06
20970.0 9.2794e-06
20990.0 9.2161e-06
21010.0 9.1467e-06
21030.0 9.0743e-06
21050.0 9.0006e-06
21070.0 8.9232e-06
21090.0 8.8413e-06
21110.0 8.7607e-06
21130.0 8.6795e-06
21150.0 8.5952e-06
21170.0 8.5111e-06
21190.0 8.4297e-06
21210.0 8.3461e-06
21230.0 8.262e-06
21250.0 8.182e-06
21270.0 8.1036e-06
21290.0 8.0247e-06
21310.0 7.9484e-06
21330.0 7.8769e-06
21350.0 7.8053e-06
21370.0 7.7352e-06
21390.0 7.6692e-06
21410.0 7.6055e-06
21430.0 7.5407e-06
21450.0 7.4798e-06
21470.0 7.4221e-06
21490.0 7.3645e-06
21510.0 7.3077e-06
21530.0 7.2541e-06
21550.0 7.2013e-06
21570.0 7.1475e-06
21590.0 7.0956e-06
21610.0 7.0454e-06
21630.0 6.9943e-06
21650.0 6.9424e-06
21670.0 6.8937e-06
21690.0 6.8446e-06
21710.0 6.7944e-06
21730.0 6.7452e-06
21750.0 6.6975e-06
21770.0 6.6473e-06
21790.0 6.5973e-06
21810.0 6.5489e-06
21830.0 6.5e-06
21850.0 6.4493e-06
21870.0 6.3998e-06
21890.0 6.3515e-06
21910.0 6.3012e-06
21930.0 6.2507e-06
21950.0 6.2017e-06
21970.0 6.1519e-06
21990.0 6.0997e-06
22010.0 6.0498e-06
22030.0 6.0007e-06
22050.0 5.9501e-06
22070.0 5.8998e-06
22090.0 5.8521e-06
22110.0 5.8039e-06
22130.0 5.7552e-06
22150.0 5.7088e-06
22170.0 5.6642e-06
22190.0 5.6188e-06
22210.0 5.575e-06
22230.0 5.5349e-06
22250.0 5.4954e-06
22270.0 5.4567e-06
22290.0 5.4211e-06
22310.0 5.3875e-06
22330.0 5.3538e-06
22350.0 5.3225e-06
22370.0 5.2938e-06
22390.0 5.2657e-06
22410.0 5.2381e-06
22430.0 5.2133e-06
22450.0 5.1897e-06
22470.0 5.166e-06
22490.0 5.1435e-06
22510.0 5.1228e-06
22530.0 5.1016e-06
22550.0 5.0806e-06
22570.0 5.0614e-06
22590.0 5.0428e-06
22610.0 5.0239e-06
22630.0 5.006e-06
22650.0 4.9898e-06
