#lamb flux
1010.0 7.3123e-10
1030.0 9.5008e-10
1050.0 1.2244e-09
1070.0 1.5624e-09
1090.0 1.9817e-09
1110.0 2.4634e-09
1130.0 3.0058e-09
1150.0 3.6281e-09
1170.0 4.3279e-09
1190.0 5.0639e-09
1210.0 5.8564e-09
1230.0 6.7064e-09
1250.0 7.5717e-09
1270.0 8.4264e-09
1290.0 9.2968e-09
1310.0 1.0129e-08
1330.0 1.0874e-08
1350.0 1.1541e-08
1370.0 1.2124e-08
1390.0 1.2573e-08
1410.0 1.2876e-08
1430.0 1.3076e-08
1450.0 1.3145e-08
1470.0 1.3076e-08
1490.0 1.2905e-08
1510.0 1.2667e-08
1530.0 1.2326e-08
1550.0 1.1925e-08
1570.0 1.1504e-08
1590.0 1.1061e-08
1610.0 1.0598e-08
1630.0 1.0155e-08
1650.0 9.7377e-09
1670.0 9.3376e-09
1690.0 8.9682e-09
1710.0 8.6456e-09
1730.0 8.363e-09
1750.0 8.1079e-09
1770.0 7.9e-09
1790.0 7.7357e-09
1810.0 7.6038e-09
1830.0 7.5062e-09
1850.0 7.6011e-09
1870.0 7.8422e-09
1890.0 8.0675e-09
1910.0 8.2869e-09
1930.0 8.5017e-09
1950.0 8.6843e-09
1970.0 8.8567e-09
1990.0 9.0377e-09
2010.0 9.2179e-09
2030.0 9.3938e-09
2050.0 9.5771e-09
2070.0 9.7426e-09
2090.0 9.8885e-09
2110.0 1.0029e-08
2130.0 1.0169e-08
2150.0 1.0302e-08
2170.0 1.0423e-08
2190.0 1.0547e-08
2210.0 1.0775e-08
2230.0 1.1129e-08
2250.0 1.1494e-08
2270.0 1.1877e-08
2290.0 1.2263e-08
2310.0 1.2648e-08
2330.0 1.3045e-08
2350.0 1.3447e-08
2370.0 1.3842e-08
2390.0 1.424e-08
2410.0 1.4645e-08
2430.0 1.5041e-08
2450.0 1.5433e-08
2470.0 1.5835e-08
2490.0 1.6259e-08
2510.0 1.6705e-08
2530.0 1.7222e-08
2550.0 1.7873e-08
2570.0 1.8704e-08
2590.0 1.9778e-08
2610.0 2.1299e-08
2630.0 2.3337e-08
2650.0 2.587e-08
2670.0 2.9055e-08
2690.0 3.2992e-08
2710.0 3.7391e-08
2730.0 4.2086e-08
2750.0 4.7228e-08
2770.0 5.2353e-08
2790.0 5.7079e-08
2810.0 6.1448e-08
2830.0 6.5451e-08
2850.0 6.8639e-08
2870.0 7.1298e-08
2890.0 7.3644e-08
2910.0 7.5693e-08
2930.0 7.7487e-08
2950.0 7.9275e-08
2970.0 8.1087e-08
2990.0 8.2863e-08
3010.0 8.4677e-08
3030.0 8.6636e-08
3050.0 8.8686e-08
3070.0 9.0732e-08
3090.0 9.2942e-08
3110.0 9.534e-08
3130.0 9.7952e-08
3150.0 1.0015e-07
3170.0 1.0352e-07
3190.0 1.0814e-07
3210.0 1.1457e-07
3230.0 1.2391e-07
3250.0 1.3784e-07
3270.0 1.5397e-07
3290.0 1.7484e-07
3310.0 2.0811e-07
3330.0 2.2042e-07
3350.0 2.2732e-07
3370.0 2.3414e-07
3390.0 2.41e-07
3410.0 2.4754e-07
3430.0 2.5383e-07
3450.0 2.6003e-07
3470.0 2.6627e-07
3490.0 2.7174e-07
3510.0 2.7428e-07
3530.0 2.6922e-07
3550.0 2.6231e-07
3570.0 2.7005e-07
3590.0 2.973e-07
3610.0 3.2786e-07
3630.0 3.5215e-07
3650.0 3.4246e-07
3670.0 3.0945e-07
3690.0 2.846e-07
3710.0 2.8164e-07
3730.0 2.9089e-07
3750.0 2.9661e-07
3770.0 3.0659e-07
3790.0 3.1754e-07
3810.0 3.1796e-07
3830.0 2.9554e-07
3850.0 2.7202e-07
3870.0 2.6028e-07
3890.0 2.6166e-07
3910.0 2.5928e-07
3930.0 2.5656e-07
3950.0 2.6522e-07
3970.0 2.7526e-07
3990.0 2.7617e-07
4010.0 2.6894e-07
4030.0 2.5428e-07
4050.0 2.439e-07
4070.0 2.3514e-07
4090.0 2.2954e-07
4110.0 2.2309e-07
4130.0 2.1059e-07
4150.0 1.969e-07
4170.0 1.887e-07
4190.0 1.7785e-07
4210.0 1.6044e-07
4230.0 1.4329e-07
4250.0 1.2614e-07
4270.0 1.1228e-07
4290.0 1.0438e-07
4310.0 9.9714e-08
4330.0 9.9388e-08
4350.0 1.0337e-07
4370.0 1.043e-07
4390.0 1.103e-07
4410.0 1.1429e-07
4430.0 1.1262e-07
4450.0 1.0136e-07
4470.0 9.044e-08
4490.0 8.555e-08
4510.0 8.1737e-08
4530.0 7.9608e-08
4550.0 7.7547e-08
4570.0 7.6993e-08
4590.0 7.8097e-08
4610.0 7.8467e-08
4630.0 7.8657e-08
4650.0 7.792e-08
4670.0 7.6078e-08
4690.0 7.0558e-08
4710.0 6.5601e-08
4730.0 6.157e-08
4750.0 5.9255e-08
4770.0 6.0105e-08
4790.0 5.9808e-08
4810.0 5.858e-08
4830.0 5.9693e-08
4850.0 6.1133e-08
4870.0 6.2035e-08
4890.0 6.1075e-08
4910.0 5.8761e-08
4930.0 5.5193e-08
4950.0 5.1333e-08
4970.0 4.7834e-08
4990.0 4.4959e-08
5010.0 4.4553e-08
5030.0 4.5997e-08
5050.0 4.704e-08
5070.0 4.8859e-08
5090.0 5.1779e-08
5110.0 5.244e-08
5130.0 5.297e-08
5150.0 5.372e-08
5170.0 5.4618e-08
5190.0 5.5996e-08
5210.0 5.6181e-08
5230.0 5.5729e-08
5250.0 5.5834e-08
5270.0 5.6346e-08
5290.0 5.6374e-08
5310.0 5.6047e-08
5330.0 5.4875e-08
5350.0 5.4601e-08
5370.0 5.3907e-08
5390.0 5.292e-08
5410.0 5.2438e-08
5430.0 5.2091e-08
5450.0 5.3256e-08
5470.0 5.4261e-08
5490.0 5.7203e-08
5510.0 5.8787e-08
5530.0 5.9599e-08
5550.0 5.9997e-08
5570.0 6.108e-08
5590.0 6.1147e-08
5610.0 6.0823e-08
5630.0 6.0748e-08
5650.0 6.0212e-08
5670.0 5.8927e-08
5690.0 5.7722e-08
5710.0 5.6651e-08
5730.0 5.7726e-08
5750.0 5.5473e-08
5770.0 5.2457e-08
5790.0 4.9731e-08
5810.0 4.4898e-08
5830.0 4.7376e-08
5850.0 5.0302e-08
5870.0 5.0465e-08
5890.0 5.0643e-08
5910.0 5.2072e-08
5930.0 5.1588e-08
5950.0 5.1232e-08
5970.0 5.0733e-08
5990.0 5.0596e-08
6010.0 4.8873e-08
6030.0 4.7568e-08
6050.0 4.6743e-08
6070.0 4.5655e-08
6090.0 4.5565e-08
6110.0 4.447e-08
6130.0 4.2611e-08
6150.0 4.1128e-08
6170.0 3.9787e-08
6190.0 3.6663e-08
6210.0 3.5633e-08
6230.0 3.5603e-08
6250.0 3.4843e-08
6270.0 3.413e-08
6290.0 3.4465e-08
6310.0 3.5009e-08
6330.0 3.4445e-08
6350.0 3.3263e-08
6370.0 3.2957e-08
6390.0 3.154e-08
6410.0 3.1051e-08
6430.0 2.9888e-08
6450.0 2.9517e-08
6470.0 2.9193e-08
6490.0 2.8954e-08
6510.0 2.7753e-08
6530.0 2.7296e-08
6550.0 2.6715e-08
6570.0 2.5905e-08
6590.0 2.6329e-08
6610.0 2.6234e-08
6630.0 2.5532e-08
6650.0 2.4483e-08
6670.0 2.4006e-08
6690.0 2.3514e-08
6710.0 2.2797e-08
6730.0 2.2446e-08
6750.0 2.2619e-08
6770.0 2.3327e-08
6790.0 2.4086e-08
6810.0 2.3285e-08
6830.0 2.1885e-08
6850.0 2.063e-08
6870.0 2.0336e-08
6890.0 2.0272e-08
6910.0 2.0279e-08
6930.0 2.0144e-08
6950.0 2.0408e-08
6970.0 1.9866e-08
6990.0 1.9691e-08
7010.0 1.9918e-08
7030.0 2.0302e-08
7050.0 2.0036e-08
7070.0 1.904e-08
7090.0 1.8434e-08
7110.0 1.8948e-08
7130.0 1.899e-08
7150.0 1.9221e-08
7170.0 1.9305e-08
7190.0 1.9501e-08
7210.0 2.0041e-08
7230.0 2.0896e-08
7250.0 2.1092e-08
7270.0 2.1376e-08
7290.0 2.1996e-08
7310.0 2.1839e-08
7330.0 2.1546e-08
7350.0 2.0986e-08
7370.0 2.1214e-08
7390.0 2.1793e-08
7410.0 2.0941e-08
7430.0 2.1341e-08
7450.0 2.1417e-08
7470.0 2.2286e-08
7490.0 2.2315e-08
7510.0 2.1627e-08
7530.0 2.2217e-08
7550.0 2.1579e-08
7570.0 2.1638e-08
7590.0 2.0758e-08
7610.0 2.1405e-08
7630.0 2.2028e-08
7650.0 2.2924e-08
7670.0 2.1967e-08
7690.0 2.3199e-08
7710.0 2.38e-08
7730.0 2.4294e-08
7750.0 2.5288e-08
7770.0 2.5174e-08
7790.0 2.5068e-08
7810.0 2.5788e-08
7830.0 2.7333e-08
7850.0 2.705e-08
7870.0 2.8343e-08
7890.0 2.8052e-08
7910.0 2.7885e-08
7930.0 2.7814e-08
7950.0 2.9308e-08
7970.0 2.9126e-08
7990.0 2.7232e-08
8010.0 1.6566e-08
8030.0 1.7745e-08
8050.0 1.8595e-08
8070.0 1.5898e-08
8090.0 6.5714e-09
8110.0 7.9397e-09
8130.0 1.5162e-08
8150.0 1.6274e-08
8170.0 1.6812e-08
8190.0 1.6544e-08
8210.0 1.7053e-08
8230.0 1.9688e-08
8250.0 2.064e-08
8270.0 1.8296e-08
8290.0 1.697e-08
8310.0 1.7344e-08
8330.0 1.9903e-08
8350.0 2.0899e-08
8370.0 1.9855e-08
8390.0 1.8771e-08
8410.0 1.8877e-08
8430.0 1.741e-08
8450.0 1.87e-08
8470.0 2.0338e-08
8490.0 2.0398e-08
8510.0 1.9002e-08
8530.0 1.6678e-08
8550.0 1.5603e-08
8570.0 1.528e-08
8590.0 1.5684e-08
8610.0 1.7479e-08
8630.0 1.7435e-08
8650.0 1.7825e-08
8670.0 1.6729e-08
8690.0 1.6385e-08
8710.0 1.4443e-08
8730.0 1.4232e-08
8750.0 1.5651e-08
8770.0 1.6242e-08
8790.0 1.5127e-08
8810.0 1.6095e-08
8830.0 1.6998e-08
8850.0 1.7482e-08
8870.0 1.6225e-08
8890.0 1.5779e-08
8910.0 1.5458e-08
8930.0 1.3356e-08
8950.0 1.3656e-08
8970.0 1.4051e-08
8990.0 1.3318e-08
9010.0 1.2589e-08
9030.0 1.2264e-08
9050.0 1.2132e-08
9070.0 1.2013e-08
9090.0 1.1893e-08
9110.0 1.1771e-08
9130.0 1.165e-08
9150.0 1.1529e-08
9170.0 1.1407e-08
9190.0 1.1286e-08
9210.0 1.1164e-08
9230.0 1.1042e-08
9250.0 1.0921e-08
9270.0 1.08e-08
9290.0 1.0679e-08
9310.0 1.0551e-08
9330.0 1.0412e-08
9350.0 1.0273e-08
9370.0 1.0135e-08
9390.0 9.9988e-09
9410.0 9.8632e-09
9430.0 9.7286e-09
9450.0 9.5957e-09
9470.0 9.4605e-09
9490.0 9.3282e-09
9510.0 9.2013e-09
9530.0 9.0756e-09
9550.0 8.9502e-09
9570.0 8.8259e-09
9590.0 8.7034e-09
9610.0 8.5681e-09
9630.0 8.4327e-09
9650.0 8.2995e-09
9670.0 8.1692e-09
9690.0 8.0397e-09
9710.0 7.9121e-09
9730.0 7.7873e-09
9750.0 7.6642e-09
9770.0 7.5418e-09
9790.0 7.4224e-09
9810.0 7.3053e-09
9830.0 7.1894e-09
9850.0 7.0802e-09
9870.0 6.9782e-09
9890.0 6.8625e-09
9910.0 6.7509e-09
9930.0 6.6448e-09
9950.0 6.5398e-09
9970.0 6.4359e-09
9990.0 6.3344e-09
10010.0 6.2354e-09
10030.0 6.1384e-09
10050.0 6.0431e-09
10070.0 5.9497e-09
10090.0 5.8583e-09
10110.0 5.7682e-09
10130.0 5.68e-09
10150.0 5.5936e-09
10170.0 5.5087e-09
10190.0 5.4252e-09
10210.0 5.3435e-09
10230.0 5.2634e-09
10250.0 5.1847e-09
10270.0 5.1074e-09
10290.0 5.0319e-09
10310.0 4.9576e-09
10330.0 4.8846e-09
10350.0 4.8131e-09
10370.0 4.743e-09
10390.0 4.6732e-09
10410.0 4.5931e-09
10430.0 4.5106e-09
10450.0 4.4593e-09
10470.0 4.4016e-09
10490.0 4.3436e-09
10510.0 4.2854e-09
10530.0 4.2251e-09
10550.0 4.1662e-09
10570.0 4.1092e-09
10590.0 4.052e-09
10610.0 3.9952e-09
10630.0 3.9407e-09
10650.0 3.8871e-09
10670.0 3.8328e-09
10690.0 3.7802e-09
10710.0 3.7294e-09
10730.0 3.6784e-09
10750.0 3.6272e-09
10770.0 3.579e-09
10790.0 3.5311e-09
10810.0 3.4829e-09
10830.0 3.4361e-09
10850.0 3.3913e-09
10870.0 3.3451e-09
10890.0 3.3e-09
10910.0 3.2572e-09
10930.0 3.2153e-09
10950.0 3.1738e-09
10970.0 3.135e-09
10990.0 3.0993e-09
11010.0 9.2319e-09
11030.0 9.166e-09
11050.0 9.0979e-09
11070.0 9.0264e-09
11090.0 8.9494e-09
11110.0 8.8729e-09
11130.0 8.7957e-09
11150.0 8.7156e-09
11170.0 8.6343e-09
11190.0 8.5551e-09
11210.0 8.4741e-09
11230.0 8.3915e-09
11250.0 8.3112e-09
11270.0 8.2327e-09
11290.0 8.1531e-09
11310.0 8.0755e-09
11330.0 8.0032e-09
11350.0 7.9322e-09
11370.0 7.863e-09
11390.0 7.7982e-09
11410.0 7.7368e-09
11430.0 7.6757e-09
11450.0 7.6178e-09
11470.0 7.5631e-09
11490.0 7.5091e-09
11510.0 7.4552e-09
11530.0 7.4035e-09
11550.0 7.3524e-09
11570.0 7.2999e-09
11590.0 7.2474e-09
11610.0 7.1957e-09
11630.0 7.1418e-09
11650.0 7.0861e-09
11670.0 7.0314e-09
11690.0 6.9759e-09
11710.0 6.9181e-09
11730.0 6.8602e-09
11750.0 6.8034e-09
11770.0 6.7446e-09
11790.0 6.6851e-09
11810.0 6.6271e-09
11830.0 6.5696e-09
11850.0 6.5103e-09
11870.0 6.4534e-09
11890.0 6.3991e-09
11910.0 6.3449e-09
11930.0 6.2922e-09
11950.0 6.243e-09
11970.0 6.1956e-09
11990.0 6.1493e-09
12010.0 6.1065e-09
12030.0 6.067e-09
12050.0 6.0293e-09
12070.0 5.9938e-09
12090.0 5.9625e-09
12110.0 5.9333e-09
12130.0 5.9059e-09
12150.0 5.8811e-09
12170.0 5.8585e-09
12190.0 5.8367e-09
12210.0 5.8161e-09
12230.0 5.7967e-09
12250.0 5.7773e-09
12270.0 5.7573e-09
12290.0 5.7368e-09
12310.0 5.7156e-09
12330.0 5.6922e-09
12350.0 5.6668e-09
12370.0 5.6398e-09
12390.0 5.6103e-09
12410.0 5.5768e-09
12430.0 5.542e-09
12450.0 5.505e-09
12470.0 5.4646e-09
12490.0 5.4217e-09
12510.0 5.3783e-09
12530.0 5.3318e-09
12550.0 5.2825e-09
12570.0 5.2331e-09
12590.0 5.183e-09
12610.0 5.13e-09
12630.0 5.0763e-09
12650.0 5.0249e-09
12670.0 4.9721e-09
12690.0 4.9185e-09
12710.0 4.8671e-09
12730.0 4.817e-09
12750.0 4.7655e-09
12770.0 4.7164e-09
12790.0 4.6702e-09
12810.0 4.6247e-09
12830.0 4.5802e-09
12850.0 4.5396e-09
12870.0 4.5014e-09
12890.0 4.4643e-09
12910.0 4.4302e-09
12930.0 4.3997e-09
12950.0 4.3709e-09
12970.0 4.3446e-09
12990.0 4.3224e-09
13010.0 4.303e-09
13030.0 4.2862e-09
13050.0 4.2725e-09
13070.0 4.2619e-09
13090.0 4.2533e-09
13110.0 4.2469e-09
13130.0 4.2422e-09
13150.0 4.2387e-09
13170.0 4.2359e-09
13190.0 4.2332e-09
13210.0 4.2302e-09
13230.0 4.2263e-09
13250.0 4.2211e-09
13270.0 4.2145e-09
13290.0 4.2061e-09
13310.0 4.1952e-09
13330.0 4.1824e-09
13350.0 4.1677e-09
13370.0 4.1503e-09
13390.0 4.1302e-09
13410.0 4.1091e-09
13430.0 4.0856e-09
13450.0 4.0593e-09
13470.0 4.0317e-09
13490.0 4.0032e-09
13510.0 3.9712e-09
13530.0 3.9381e-09
13550.0 3.9049e-09
13570.0 3.8701e-09
13590.0 3.8333e-09
13610.0 3.7969e-09
13630.0 3.7608e-09
13650.0 3.7226e-09
13670.0 3.6843e-09
13690.0 3.647e-09
13710.0 3.609e-09
13730.0 3.569e-09
13750.0 3.5315e-09
13770.0 3.4945e-09
13790.0 3.4565e-09
13810.0 3.4193e-09
13830.0 3.3842e-09
13850.0 3.3487e-09
13870.0 3.3131e-09
13890.0 3.2798e-09
13910.0 3.2476e-09
13930.0 3.2151e-09
13950.0 3.1838e-09
13970.0 3.1553e-09
13990.0 3.1269e-09
14010.0 3.0992e-09
14030.0 3.0736e-09
14050.0 3.0494e-09
14070.0 3.0249e-09
14090.0 3.0024e-09
14110.0 2.9818e-09
14130.0 2.9617e-09
14150.0 2.9423e-09
14170.0 2.9248e-09
14190.0 2.9084e-09
14210.0 2.8921e-09
14230.0 2.8768e-09
14250.0 2.8628e-09
14270.0 2.8486e-09
14290.0 2.8347e-09
14310.0 2.822e-09
14330.0 2.8097e-09
14350.0 2.7972e-09
14370.0 2.7853e-09
14390.0 2.7742e-09
14410.0 2.7629e-09
14430.0 2.7518e-09
14450.0 2.7414e-09
14470.0 2.7312e-09
14490.0 2.7206e-09
14510.0 2.7107e-09
14530.0 2.7013e-09
14550.0 2.6915e-09
14570.0 2.6817e-09
14590.0 2.6723e-09
14610.0 2.6627e-09
14630.0 2.6526e-09
14650.0 2.6427e-09
14670.0 2.6329e-09
14690.0 2.6225e-09
14710.0 2.6118e-09
14730.0 2.6017e-09
14750.0 2.5911e-09
14770.0 2.5799e-09
14790.0 2.5688e-09
14810.0 2.5577e-09
14830.0 2.5455e-09
14850.0 2.5332e-09
14870.0 2.5211e-09
14890.0 2.5087e-09
14910.0 2.4959e-09
14930.0 2.4838e-09
14950.0 2.4724e-09
14970.0 2.4612e-09
14990.0 2.4512e-09
15010.0 2.4427e-09
15030.0 2.4352e-09
15050.0 2.4283e-09
15070.0 2.4229e-09
15090.0 2.4182e-09
15110.0 2.4136e-09
15130.0 2.4094e-09
15150.0 2.4055e-09
15170.0 2.4015e-09
15190.0 2.3974e-09
15210.0 2.3934e-09
15230.0 2.3895e-09
15250.0 2.3853e-09
15270.0 2.3811e-09
15290.0 2.3772e-09
15310.0 2.3731e-09
15330.0 2.3688e-09
15350.0 2.3647e-09
15370.0 2.3606e-09
15390.0 2.3561e-09
15410.0 2.3518e-09
15430.0 2.3476e-09
15450.0 2.3432e-09
15470.0 2.3386e-09
15490.0 2.3343e-09
15510.0 2.33e-09
15530.0 2.3253e-09
15550.0 2.3208e-09
15570.0 2.3164e-09
15590.0 2.3116e-09
15610.0 2.3068e-09
15630.0 2.3022e-09
15650.0 2.2975e-09
15670.0 2.2926e-09
15690.0 2.2878e-09
15710.0 2.2832e-09
15730.0 2.2782e-09
15750.0 2.2731e-09
15770.0 2.2683e-09
15790.0 2.2633e-09
15810.0 2.258e-09
15830.0 2.2529e-09
15850.0 2.248e-09
15870.0 2.2427e-09
15890.0 2.2374e-09
15910.0 2.2324e-09
15930.0 2.2271e-09
15950.0 2.2216e-09
15970.0 2.2162e-09
15990.0 2.2109e-09
16010.0 2.2054e-09
16030.0 2.1997e-09
16050.0 2.1944e-09
16070.0 2.1889e-09
16090.0 2.1832e-09
16110.0 2.1776e-09
16130.0 2.1721e-09
16150.0 2.1662e-09
16170.0 2.1603e-09
16190.0 2.1547e-09
16210.0 2.1489e-09
16230.0 2.1429e-09
16250.0 2.137e-09
16270.0 2.1313e-09
16290.0 2.1252e-09
16310.0 2.1192e-09
16330.0 2.1133e-09
16350.0 2.1072e-09
16370.0 2.1009e-09
16390.0 2.0949e-09
16410.0 2.0888e-09
16430.0 2.0826e-09
16450.0 2.0763e-09
16470.0 2.0703e-09
16490.0 2.064e-09
16510.0 2.0575e-09
16530.0 2.0513e-09
16550.0 2.045e-09
16570.0 2.0385e-09
16590.0 2.032e-09
16610.0 2.0258e-09
16630.0 2.0193e-09
16650.0 2.0128e-09
16670.0 2.0064e-09
16690.0 2e-09
16710.0 1.9933e-09
16730.0 1.9867e-09
16750.0 1.9802e-09
16770.0 1.9736e-09
16790.0 1.9668e-09
16810.0 1.9604e-09
16830.0 1.9538e-09
16850.0 1.947e-09
16870.0 1.9403e-09
16890.0 1.9338e-09
16910.0 1.927e-09
16930.0 1.9201e-09
16950.0 1.9135e-09
16970.0 1.9068e-09
16990.0 1.8999e-09
17010.0 1.8931e-09
17030.0 1.8865e-09
17050.0 1.8796e-09
17070.0 1.8727e-09
17090.0 1.866e-09
17110.0 1.8592e-09
17130.0 1.8521e-09
17150.0 1.8453e-09
17170.0 1.8386e-09
17190.0 1.8316e-09
17210.0 1.8247e-09
17230.0 1.818e-09
17250.0 1.8111e-09
17270.0 1.804e-09
17290.0 1.7972e-09
17310.0 1.7904e-09
17330.0 1.7834e-09
17350.0 1.7763e-09
17370.0 1.7696e-09
17390.0 1.7627e-09
17410.0 1.7557e-09
17430.0 1.7488e-09
17450.0 1.7421e-09
17470.0 1.7349e-09
17490.0 1.7279e-09
17510.0 1.7211e-09
17530.0 1.7142e-09
17550.0 1.7072e-09
17570.0 1.7003e-09
17590.0 1.6936e-09
17610.0 1.6865e-09
17630.0 1.6796e-09
17650.0 1.6728e-09
17670.0 1.6659e-09
17690.0 1.6587e-09
17710.0 1.6519e-09
17730.0 1.6451e-09
17750.0 1.6381e-09
17770.0 1.6312e-09
17790.0 1.6246e-09
17810.0 1.6176e-09
17830.0 1.6106e-09
17850.0 1.6038e-09
17870.0 1.597e-09
17890.0 1.59e-09
17910.0 1.5831e-09
17930.0 1.5765e-09
17950.0 1.5696e-09
17970.0 1.5627e-09
17990.0 1.556e-09
18010.0 1.5493e-09
18030.0 1.5423e-09
18050.0 1.5355e-09
18070.0 1.5288e-09
18090.0 1.522e-09
18110.0 1.5151e-09
18130.0 1.5085e-09
18150.0 1.5018e-09
18170.0 1.4949e-09
18190.0 1.4882e-09
18210.0 1.4817e-09
18230.0 1.4748e-09
18250.0 1.468e-09
18270.0 1.4614e-09
18290.0 1.4548e-09
18310.0 1.448e-09
18330.0 1.4414e-09
18350.0 1.4349e-09
18370.0 1.4282e-09
18390.0 1.4215e-09
18410.0 1.415e-09
18430.0 1.4084e-09
18450.0 1.4016e-09
18470.0 1.3951e-09
18490.0 1.3887e-09
18510.0 1.382e-09
18530.0 1.3755e-09
18550.0 1.3691e-09
18570.0 1.3626e-09
18590.0 1.3559e-09
18610.0 1.3494e-09
18630.0 1.3431e-09
18650.0 1.3365e-09
18670.0 1.3299e-09
18690.0 1.3237e-09
18710.0 1.3172e-09
18730.0 1.3107e-09
18750.0 1.3044e-09
18770.0 1.2981e-09
18790.0 1.2915e-09
18810.0 1.2851e-09
18830.0 1.2789e-09
18850.0 1.2725e-09
18870.0 1.2661e-09
18890.0 1.2598e-09
18910.0 1.2537e-09
18930.0 1.2472e-09
18950.0 1.2409e-09
18970.0 1.2348e-09
18990.0 1.2285e-09
19010.0 1.222e-09
19030.0 1.2159e-09
19050.0 1.2098e-09
19070.0 1.2035e-09
19090.0 1.1973e-09
19110.0 1.1913e-09
19130.0 1.185e-09
19150.0 1.1787e-09
19170.0 1.1726e-09
19190.0 1.1666e-09
19210.0 1.1603e-09
19230.0 1.1541e-09
19250.0 1.1482e-09
19270.0 1.142e-09
19290.0 1.1359e-09
19310.0 1.1299e-09
19330.0 1.1239e-09
19350.0 1.1177e-09
19370.0 1.1116e-09
19390.0 1.1057e-09
19410.0 1.0996e-09
19430.0 1.0935e-09
19450.0 1.0877e-09
19470.0 1.0817e-09
19490.0 1.0756e-09
19510.0 1.0697e-09
19530.0 1.0639e-09
19550.0 1.0578e-09
19570.0 1.0517e-09
19590.0 1.0459e-09
19610.0 1.04e-09
19630.0 1.034e-09
19650.0 1.0282e-09
19670.0 1.0224e-09
19690.0 1.0164e-09
19710.0 1.0105e-09
19730.0 1.0047e-09
19750.0 9.9887e-10
19770.0 9.9282e-10
19790.0 9.8703e-10
19810.0 9.8133e-10
19830.0 9.7543e-10
19850.0 9.6959e-10
19870.0 9.6399e-10
19890.0 9.5825e-10
19910.0 9.5249e-10
19930.0 9.4713e-10
19950.0 9.4205e-10
19970.0 9.3717e-10
19990.0 9.328e-10
20010.0 9.2913e-10
20030.0 9.2588e-10
20050.0 9.2314e-10
20070.0 9.2095e-10
20090.0 9.1915e-10
20110.0 9.1755e-10
20130.0 9.162e-10
20150.0 9.1502e-10
20170.0 9.1388e-10
20190.0 9.1276e-10
20210.0 9.1169e-10
20230.0 9.1061e-10
20250.0 9.0947e-10
20270.0 9.0832e-10
20290.0 9.0714e-10
20310.0 9.0587e-10
20330.0 9.045e-10
20350.0 9.0314e-10
20370.0 9.0169e-10
20390.0 9.0013e-10
20410.0 8.9852e-10
20430.0 8.9691e-10
20450.0 8.9515e-10
20470.0 8.9335e-10
20490.0 8.9158e-10
20510.0 8.8978e-10
20530.0 8.8793e-10
20550.0 8.8612e-10
20570.0 8.844e-10
20590.0 8.8265e-10
20610.0 8.8093e-10
20630.0 8.793e-10
20650.0 8.7769e-10
20670.0 8.7603e-10
20690.0 8.7445e-10
20710.0 8.7287e-10
20730.0 8.7122e-10
20750.0 8.6951e-10
20770.0 8.6778e-10
20790.0 8.6593e-10
20810.0 8.639e-10
20830.0 8.6178e-10
20850.0 8.5954e-10
20870.0 8.5704e-10
20890.0 8.5435e-10
20910.0 8.5162e-10
20930.0 8.4867e-10
20950.0 8.4551e-10
20970.0 8.423e-10
20990.0 8.3903e-10
21010.0 8.3552e-10
21030.0 8.3198e-10
21050.0 8.2849e-10
21070.0 8.2491e-10
21090.0 8.2122e-10
21110.0 8.1768e-10
21130.0 8.1419e-10
21150.0 8.106e-10
21170.0 8.0706e-10
21190.0 8.0363e-10
21210.0 8.001e-10
21230.0 7.9648e-10
21250.0 7.9297e-10
21270.0 7.8943e-10
21290.0 7.8572e-10
21310.0 7.8197e-10
21330.0 7.7829e-10
21350.0 7.7439e-10
21370.0 7.7036e-10
21390.0 7.6737e-10
21410.0 7.6433e-10
21430.0 7.6101e-10
21450.0 7.5773e-10
21470.0 7.5448e-10
21490.0 7.5107e-10
21510.0 7.4754e-10
21530.0 7.4411e-10
21550.0 7.4062e-10
21570.0 7.3694e-10
21590.0 7.3332e-10
21610.0 7.2978e-10
21630.0 7.2611e-10
21650.0 7.2232e-10
21670.0 7.1882e-10
21690.0 7.1526e-10
21710.0 7.1161e-10
21730.0 7.0807e-10
21750.0 7.0466e-10
21770.0 7.0106e-10
21790.0 6.975e-10
21810.0 6.9409e-10
21830.0 6.9066e-10
21850.0 6.8711e-10
21870.0 6.8369e-10
21890.0 6.8039e-10
21910.0 6.7696e-10
21930.0 6.7355e-10
21950.0 6.7031e-10
21970.0 6.6705e-10
21990.0 6.6367e-10
22010.0 6.6054e-10
22030.0 6.5754e-10
22050.0 6.5452e-10
22070.0 6.5132e-10
22090.0 6.4788e-10
22110.0 6.4448e-10
22130.0 6.4113e-10
22150.0 6.3803e-10
22170.0 6.3511e-10
22190.0 6.3221e-10
22210.0 6.2947e-10
22230.0 6.2698e-10
22250.0 6.2456e-10
22270.0 6.2219e-10
22290.0 6.2e-10
22310.0 6.179e-10
22330.0 6.1577e-10
22350.0 6.1372e-10
22370.0 6.1176e-10
22390.0 6.0978e-10
22410.0 6.0774e-10
22430.0 6.0579e-10
22450.0 6.0384e-10
22470.0 6.0181e-10
22490.0 5.9978e-10
22510.0 5.9779e-10
22530.0 5.957e-10
22550.0 5.9356e-10
22570.0 5.915e-10
22590.0 5.8943e-10
22610.0 5.873e-10
22630.0 5.852e-10
