#lamb flux
1010.0 1.1099e-05
1030.0 1.1099e-05
1050.0 1.1099e-05
1070.0 1.1099e-05
1090.0 1.1099e-05
1110.0 1.1099e-05
1130.0 1.1099e-05
1150.0 1.1099e-05
1170.0 1.1099e-05
1190.0 1.1099e-05
1210.0 1.1099e-05
1230.0 1.1099e-05
1250.0 1.1099e-05
1270.0 1.1099e-05
1290.0 1.1099e-05
1310.0 1.1099e-05
1330.0 1.1099e-05
1350.0 1.1099e-05
1370.0 1.1099e-05
1390.0 1.1099e-05
1410.0 1.1099e-05
1430.0 1.1099e-05
1450.0 1.2308e-05
1470.0 1.3989e-05
1490.0 1.588e-05
1510.0 1.8019e-05
1530.0 2.0345e-05
1550.0 2.2888e-05
1570.0 2.5702e-05
1590.0 2.8784e-05
1610.0 3.2095e-05
1630.0 3.5674e-05
1650.0 3.9606e-05
1670.0 4.3842e-05
1690.0 4.8418e-05
1710.0 5.3419e-05
1730.0 5.882e-05
1750.0 6.4523e-05
1770.0 7.0656e-05
1790.0 7.721e-05
1810.0 8.4072e-05
1830.0 9.1233e-05
1850.0 9.882e-05
1870.0 0.00010661
1890.0 0.00011453
1910.0 0.00012264
1930.0 0.00013088
1950.0 0.00013899
1970.0 0.00014698
1990.0 0.0001549
2010.0 0.00016253
2030.0 0.00016973
2050.0 0.00017661
2070.0 0.00018311
2090.0 0.00018889
2110.0 0.00019409
2130.0 0.00019877
2150.0 0.00020275
2170.0 0.00020593
2190.0 0.00020858
2210.0 0.0002106
2230.0 0.00021185
2250.0 0.0002125
2270.0 0.00021271
2290.0 0.00021231
2310.0 0.0002113
2330.0 0.00020996
2350.0 0.00020827
2370.0 0.00020616
2390.0 0.00020382
2410.0 0.00020143
2430.0 0.00019885
2450.0 0.00019616
2470.0 0.0001936
2490.0 0.00019124
2510.0 0.00018903
2530.0 0.00018754
2550.0 0.00018749
2570.0 0.00018951
2590.0 0.00019442
2610.0 0.00020447
2630.0 0.0002201
2650.0 0.00024042
2670.0 0.00026611
2690.0 0.00029689
2710.0 0.00032919
2730.0 0.00036165
2750.0 0.00039604
2770.0 0.00043014
2790.0 0.00046306
2810.0 0.00049706
2830.0 0.00053409
2850.0 0.00057063
2870.0 0.00060866
2890.0 0.00065003
2910.0 0.00069349
2930.0 0.00073742
2950.0 0.00078505
2970.0 0.00083601
2990.0 0.00088809
3010.0 0.00094231
3030.0 0.0010006
3050.0 0.001061
3070.0 0.0011203
3090.0 0.0011805
3110.0 0.0012384
3130.0 0.0012892
3150.0 0.0013308
3170.0 0.0013603
3190.0 0.0013739
3210.0 0.0013687
3230.0 0.0013507
3250.0 0.0013439
3270.0 0.0013622
3290.0 0.0013981
3310.0 0.0014428
3330.0 0.001498
3350.0 0.0015601
3370.0 0.0016301
3390.0 0.0017118
3410.0 0.0017894
3430.0 0.0019104
3450.0 0.0020069
3470.0 0.0021081
3490.0 0.0021938
3510.0 0.0022979
3530.0 0.0026422
3550.0 0.0031234
3570.0 0.0034172
3590.0 0.0035457
3610.0 0.0035588
3630.0 0.0034497
3650.0 0.0037281
3670.0 0.0044341
3690.0 0.0049929
3710.0 0.0052897
3730.0 0.005537
3750.0 0.0058089
3770.0 0.0057612
3790.0 0.0054575
3810.0 0.0051101
3830.0 0.0047606
3850.0 0.0047273
3870.0 0.0051172
3890.0 0.0055224
3910.0 0.005802
3930.0 0.005979
3950.0 0.0065047
3970.0 0.0069941
3990.0 0.0066839
4010.0 0.0058803
4030.0 0.0051508
4050.0 0.0049322
4070.0 0.0050568
4090.0 0.0050582
4110.0 0.0049466
4130.0 0.0048646
4150.0 0.0049151
4170.0 0.0053556
4190.0 0.0058813
4210.0 0.0058153
4230.0 0.005501
4250.0 0.0053623
4270.0 0.0053588
4290.0 0.0055881
4310.0 0.0058334
4330.0 0.0055536
4350.0 0.0048182
4370.0 0.0042182
4390.0 0.0037909
4410.0 0.0034275
4430.0 0.0034073
4450.0 0.0036983
4470.0 0.0039548
4490.0 0.0042956
4510.0 0.0049148
4530.0 0.0062174
4550.0 0.0079001
4570.0 0.0089073
4590.0 0.0094957
4610.0 0.010429
4630.0 0.011099
4650.0 0.010382
4670.0 0.0085121
4690.0 0.0069652
4710.0 0.0063324
4730.0 0.0061464
4750.0 0.0056665
4770.0 0.005255
4790.0 0.0055213
4810.0 0.0060373
4830.0 0.0060967
4850.0 0.0056972
4870.0 0.005528
4890.0 0.0058968
4910.0 0.0062729
4930.0 0.0063196
4950.0 0.006102
4970.0 0.0057198
4990.0 0.0051707
5010.0 0.0046814
5030.0 0.0043967
5050.0 0.0042655
5070.0 0.0041603
5090.0 0.0040374
5110.0 0.0040021
5130.0 0.0040265
5150.0 0.0042151
5170.0 0.0046844
5190.0 0.0052816
5210.0 0.0059703
5230.0 0.0064375
5250.0 0.0066904
5270.0 0.0070821
5290.0 0.0075456
5310.0 0.0077396
5330.0 0.0074768
5350.0 0.0070841
5370.0 0.0070917
5390.0 0.0076215
5410.0 0.0082898
5430.0 0.0087157
5450.0 0.0088305
5470.0 0.0086651
5490.0 0.0083585
5510.0 0.0081611
5530.0 0.0081448
5550.0 0.0082272
5570.0 0.0082764
5590.0 0.0081061
5610.0 0.0077602
5630.0 0.0072715
5650.0 0.00675
5670.0 0.006435
5690.0 0.0062826
5710.0 0.00621
5730.0 0.0062603
5750.0 0.0062251
5770.0 0.0061215
5790.0 0.0061645
5810.0 0.0062378
5830.0 0.0063347
5850.0 0.0064081
5870.0 0.0063093
5890.0 0.0060672
5910.0 0.0057315
5930.0 0.0051962
5950.0 0.0047546
5970.0 0.0046652
5990.0 0.0048462
6010.0 0.0049667
6030.0 0.0048012
6050.0 0.0046416
6070.0 0.0048167
6090.0 0.0051905
6110.0 0.0054091
6130.0 0.0052751
6150.0 0.00497
6170.0 0.0047509
6190.0 0.0045476
6210.0 0.0042757
6230.0 0.0039919
6250.0 0.0038571
6270.0 0.0039424
6290.0 0.0040941
6310.0 0.0043358
6330.0 0.0046878
6350.0 0.005063
6370.0 0.0052725
6390.0 0.0053242
6410.0 0.0053762
6430.0 0.0054287
6450.0 0.0054874
6470.0 0.0055957
6490.0 0.0057134
6510.0 0.0057955
6530.0 0.005794
6550.0 0.0057028
6570.0 0.0055096
6590.0 0.0052538
6610.0 0.0050709
6630.0 0.0049658
6650.0 0.0048107
6670.0 0.0045935
6690.0 0.004408
6710.0 0.0043116
6730.0 0.0042673
6750.0 0.0042023
6770.0 0.0041227
6790.0 0.0040557
6810.0 0.0039716
6830.0 0.0039244
6850.0 0.0039927
6870.0 0.004036
6890.0 0.0039951
6910.0 0.0039075
6930.0 0.0038256
6950.0 0.0037548
6970.0 0.0036276
6990.0 0.0034894
7010.0 0.0034288
7030.0 0.003395
7050.0 0.0032949
7070.0 0.003147
7090.0 0.0030839
7110.0 0.0031621
7130.0 0.0033554
7150.0 0.0035627
7170.0 0.0036968
7190.0 0.0036706
7210.0 0.0035271
7230.0 0.0034349
7250.0 0.0034276
7270.0 0.003419
7290.0 0.0033909
7310.0 0.0034161
7330.0 0.003518
7350.0 0.0036519
7370.0 0.0037339
7390.0 0.0037233
7410.0 0.0036428
7430.0 0.003537
7450.0 0.0034138
7470.0 0.0032511
7490.0 0.0031388
7510.0 0.003039
7530.0 0.0029763
7550.0 0.0029895
7570.0 0.0030183
7590.0 0.0030347
7610.0 0.003017
7630.0 0.002996
7650.0 0.0030129
7670.0 0.0030836
7690.0 0.0031739
7710.0 0.0032798
7730.0 0.0033597
7750.0 0.0034548
7770.0 0.0035224
7790.0 0.0035562
7810.0 0.0035517
7830.0 0.0035424
7850.0 0.0034722
7870.0 0.0033157
7890.0 0.0031544
7910.0 0.0030502
7930.0 0.0029731
7950.0 0.0028991
7970.0 0.0028592
7990.0 0.00287
8010.0 0.002755
8030.0 0.0027205
8050.0 0.0026776
8070.0 0.0026259
8090.0 0.0025738
8110.0 0.002567
8130.0 0.0025754
8150.0 0.0025601
8170.0 0.0025352
8190.0 0.0024645
8210.0 0.0023183
8230.0 0.0021602
8250.0 0.0020677
8270.0 0.0019959
8290.0 0.0019223
8310.0 0.0018857
8330.0 0.001877
8350.0 0.001826
8370.0 0.0017979
8390.0 0.0018529
8410.0 0.0019564
8430.0 0.0020907
8450.0 0.0022314
8470.0 0.0023104
8490.0 0.0023793
8510.0 0.002426
8530.0 0.0024723
8550.0 0.0025186
8570.0 0.0025473
8590.0 0.0025728
8610.0 0.0026353
8630.0 0.0026578
8650.0 0.0026004
8670.0 0.0025972
8690.0 0.002634
8710.0 0.0026678
8730.0 0.0026562
8750.0 0.0025872
8770.0 0.0025575
8790.0 0.0025405
8810.0 0.0024944
8830.0 0.0023271
8850.0 0.0021196
8870.0 0.0019706
8890.0 0.0018938
8910.0 0.00179
8930.0 0.0016616
8950.0 0.0015782
8970.0 0.0015614
8990.0 0.0015735
9010.0 0.0015706
9030.0 0.0015589
9050.0 0.0015482
9070.0 0.0015391
9090.0 0.0015304
9110.0 0.0015218
9130.0 0.0015132
9150.0 0.0015046
9170.0 0.0014961
9190.0 0.0014877
9210.0 0.0014792
9230.0 0.0014709
9250.0 0.0014626
9270.0 0.0014543
9290.0 0.0014461
9310.0 0.001438
9330.0 0.0014299
9350.0 0.0014218
9370.0 0.0014138
9390.0 0.0014059
9410.0 0.0013979
9430.0 0.0013899
9450.0 0.0013814
9470.0 0.0013731
9490.0 0.001366
9510.0 0.0013587
9530.0 0.0013513
9550.0 0.0013438
9570.0 0.0013363
9590.0 0.0013289
9610.0 0.0013215
9630.0 0.0013141
9650.0 0.0013067
9670.0 0.0012995
9690.0 0.0012922
9710.0 0.0012849
9730.0 0.0012777
9750.0 0.0012706
9770.0 0.0012634
9790.0 0.0012563
9810.0 0.0012493
9830.0 0.0012421
9850.0 0.0012345
9870.0 0.0012277
9890.0 0.001221
9910.0 0.0012141
9930.0 0.0012073
9950.0 0.0012005
9970.0 0.0011936
9990.0 0.0011866
10010.0 0.001179
10030.0 0.0011718
10050.0 0.0011654
10070.0 0.001159
10090.0 0.0011525
10110.0 0.0011454
10130.0 0.0011361
10150.0 0.0011298
10170.0 0.001124
10190.0 0.0011176
10210.0 0.0011113
10230.0 0.0011049
10250.0 0.0010981
10270.0 0.0010913
10290.0 0.0010847
10310.0 0.0010778
10330.0 0.0010707
10350.0 0.0010639
10370.0 0.0010571
10390.0 0.00105
10410.0 0.0010429
10430.0 0.0010362
10450.0 0.0010292
10470.0 0.001022
10490.0 0.0010151
10510.0 0.0010081
10530.0 0.0010007
10550.0 0.00099344
10570.0 0.00098646
10590.0 0.00097919
10610.0 0.00097174
10630.0 0.00096461
10650.0 0.0009574
10670.0 0.00094975
10690.0 0.00094228
10710.0 0.00093497
10730.0 0.00092736
10750.0 0.00091944
10770.0 0.00091203
10790.0 0.00090447
10810.0 0.00089657
10830.0 0.0008888
10850.0 0.00088127
10870.0 0.00087318
10890.0 0.00086509
10910.0 0.00085732
10930.0 0.00084949
10950.0 0.00084138
10970.0 0.00083356
10990.0 0.00082615
11010.0 0.00080199
11030.0 0.00079427
11050.0 0.00078702
11070.0 0.00077989
11090.0 0.00077256
11110.0 0.00076582
11130.0 0.0007594
11150.0 0.00075303
11170.0 0.00074695
11190.0 0.00074147
11210.0 0.00073622
11230.0 0.00073123
11250.0 0.00072681
11270.0 0.00072285
11290.0 0.00071912
11310.0 0.00071578
11330.0 0.00071293
11350.0 0.00071028
11370.0 0.00070781
11390.0 0.00070557
11410.0 0.00070346
11430.0 0.00070128
11450.0 0.00069911
11470.0 0.00069691
11490.0 0.00069453
11510.0 0.00069188
11530.0 0.00068909
11550.0 0.00068604
11570.0 0.00068257
11590.0 0.00067877
11610.0 0.00067472
11630.0 0.00067013
11650.0 0.00066499
11670.0 0.00065962
11690.0 0.00065383
11710.0 0.0006474
11730.0 0.00064056
11750.0 0.00063357
11770.0 0.0006259
11790.0 0.00061772
11810.0 0.00060943
11830.0 0.00060084
11850.0 0.00059151
11870.0 0.00058222
11890.0 0.00057306
11910.0 0.00056356
11930.0 0.00055394
11950.0 0.00054475
11970.0 0.00053562
11990.0 0.00052633
12010.0 0.00051753
12030.0 0.00050921
12050.0 0.00050098
12070.0 0.00049295
12090.0 0.00048576
12110.0 0.00047883
12130.0 0.00047214
12150.0 0.00046601
12170.0 0.00046046
12190.0 0.00045509
12210.0 0.00045027
12230.0 0.00044612
12250.0 0.00044243
12270.0 0.0004392
12290.0 0.00043659
12310.0 0.00043454
12330.0 0.00043292
12350.0 0.00043178
12370.0 0.00043106
12390.0 0.00043069
12410.0 0.00043067
12430.0 0.00043086
12450.0 0.00043122
12470.0 0.00043175
12490.0 0.00043235
12510.0 0.00043292
12530.0 0.0004335
12550.0 0.00043403
12570.0 0.00043439
12590.0 0.00043457
12610.0 0.00043457
12630.0 0.00043428
12650.0 0.00043366
12670.0 0.00043271
12690.0 0.00043136
12710.0 0.00042963
12730.0 0.00042752
12750.0 0.00042492
12770.0 0.00042193
12790.0 0.00041866
12810.0 0.000415
12830.0 0.00041096
12850.0 0.00040684
12870.0 0.00040258
12890.0 0.00039807
12910.0 0.00039356
12930.0 0.00038915
12950.0 0.00038464
12970.0 0.00038012
12990.0 0.00037589
13010.0 0.00037176
13030.0 0.00036764
13050.0 0.00036372
13070.0 0.00036004
13090.0 0.00035638
13110.0 0.00035283
13130.0 0.00034952
13150.0 0.00034633
13170.0 0.00034316
13190.0 0.00034022
13210.0 0.00033749
13230.0 0.00033483
13250.0 0.0003323
13270.0 0.00032997
13290.0 0.00032774
13310.0 0.00032556
13330.0 0.00032351
13350.0 0.00032155
13370.0 0.00031959
13390.0 0.0003176
13410.0 0.00031569
13430.0 0.00031371
13450.0 0.00031162
13470.0 0.00030949
13490.0 0.0003073
13510.0 0.00030489
13530.0 0.00030238
13550.0 0.00029983
13570.0 0.00029715
13590.0 0.00029428
13610.0 0.00029141
13630.0 0.00028853
13650.0 0.00028548
13670.0 0.00028241
13690.0 0.0002794
13710.0 0.00027635
13730.0 0.00027316
13750.0 0.00027014
13770.0 0.00026717
13790.0 0.00026413
13810.0 0.00026113
13830.0 0.00025829
13850.0 0.0002554
13870.0 0.0002525
13890.0 0.00024976
13910.0 0.00024711
13930.0 0.00024443
13950.0 0.00024186
13970.0 0.0002395
13990.0 0.00023717
14010.0 0.0002349
14030.0 0.0002328
14050.0 0.00023081
14070.0 0.00022881
14090.0 0.00022694
14110.0 0.0002252
14130.0 0.00022348
14150.0 0.0002218
14170.0 0.00022024
14190.0 0.00021873
14210.0 0.00021722
14230.0 0.00021578
14250.0 0.00021442
14270.0 0.00021306
14290.0 0.00021171
14310.0 0.00021047
14330.0 0.00020926
14350.0 0.00020805
14370.0 0.00020691
14390.0 0.00020584
14410.0 0.00020476
14430.0 0.00020371
14450.0 0.00020273
14470.0 0.00020178
14490.0 0.00020081
14510.0 0.00019991
14530.0 0.00019905
14550.0 0.00019816
14570.0 0.00019727
14590.0 0.00019641
14610.0 0.00019552
14630.0 0.00019456
14650.0 0.0001936
14670.0 0.00019266
14690.0 0.00019167
14710.0 0.00019069
14730.0 0.00018984
14750.0 0.00018906
14770.0 0.00018841
14790.0 0.00018798
14810.0 0.00018781
14830.0 0.00018793
14850.0 0.00018841
14870.0 0.00018924
14890.0 0.00019044
14910.0 0.000192
14930.0 0.00019376
14950.0 0.00019562
14970.0 0.00019755
14990.0 0.00019935
15010.0 0.00020088
15030.0 0.00020217
15050.0 0.00020319
15070.0 0.0002039
15090.0 0.00020443
15110.0 0.00020482
15130.0 0.00020512
15150.0 0.00020539
15170.0 0.00020563
15190.0 0.00020586
15210.0 0.0002061
15230.0 0.00020634
15250.0 0.00020659
15270.0 0.00020684
15290.0 0.00020711
15310.0 0.00020738
15330.0 0.00020765
15350.0 0.00020793
15370.0 0.00020823
15390.0 0.00020852
15410.0 0.00020882
15430.0 0.00020913
15450.0 0.00020944
15470.0 0.00020976
15490.0 0.00021009
15510.0 0.00021042
15530.0 0.00021076
15550.0 0.0002111
15570.0 0.00021145
15590.0 0.0002118
15610.0 0.00021216
15630.0 0.00021253
15650.0 0.0002129
15670.0 0.00021327
15690.0 0.00021365
15710.0 0.00021404
15730.0 0.00021443
15750.0 0.00021483
15770.0 0.00021523
15790.0 0.00021563
15810.0 0.00021604
15830.0 0.00021645
15850.0 0.00021687
15870.0 0.00021729
15890.0 0.00021771
15910.0 0.00021815
15930.0 0.00021858
15950.0 0.00021901
15970.0 0.00021945
15990.0 0.0002199
16010.0 0.00022034
16030.0 0.00022079
16050.0 0.00022124
16070.0 0.0002217
16090.0 0.00022215
16110.0 0.00022261
16130.0 0.00022308
16150.0 0.00022354
16170.0 0.000224
16190.0 0.00022448
16210.0 0.00022495
16230.0 0.00022541
16250.0 0.00022589
16270.0 0.00022637
16290.0 0.00022684
16310.0 0.00022732
16330.0 0.0002278
16350.0 0.00022828
16370.0 0.00022875
16390.0 0.00022923
16410.0 0.00022972
16430.0 0.0002302
16450.0 0.00023068
16470.0 0.00023116
16490.0 0.00023164
16510.0 0.00023212
16530.0 0.0002326
16550.0 0.00023308
16570.0 0.00023355
16590.0 0.00023403
16610.0 0.00023451
16630.0 0.00023498
16650.0 0.00023545
16670.0 0.00023593
16690.0 0.0002364
16710.0 0.00023686
16730.0 0.00023733
16750.0 0.00023779
16770.0 0.00023825
16790.0 0.0002387
16810.0 0.00023916
16830.0 0.00023962
16850.0 0.00024006
16870.0 0.00024051
16890.0 0.00024095
16910.0 0.00024139
16930.0 0.00024182
16950.0 0.00024225
16970.0 0.00024268
16990.0 0.00024309
17010.0 0.00024351
17030.0 0.00024393
17050.0 0.00024433
17070.0 0.00024473
17090.0 0.00024513
17110.0 0.00024553
17130.0 0.00024591
17150.0 0.00024629
17170.0 0.00024666
17190.0 0.00024703
17210.0 0.00024739
17230.0 0.00024775
17250.0 0.0002481
17270.0 0.00024844
17290.0 0.00024877
17310.0 0.0002491
17330.0 0.00024942
17350.0 0.00024973
17370.0 0.00025004
17390.0 0.00025034
17410.0 0.00025063
17430.0 0.00025091
17450.0 0.00025119
17470.0 0.00025145
17490.0 0.00025171
17510.0 0.00025196
17530.0 0.0002522
17550.0 0.00025242
17570.0 0.00025265
17590.0 0.00025286
17610.0 0.00025306
17630.0 0.00025326
17650.0 0.00025344
17670.0 0.00025362
17690.0 0.00025377
17710.0 0.00025393
17730.0 0.00025408
17750.0 0.00025421
17770.0 0.00025433
17790.0 0.00025445
17810.0 0.00025454
17830.0 0.00025463
17850.0 0.00025471
17870.0 0.00025478
17890.0 0.00025483
17910.0 0.00025488
17930.0 0.00025492
17950.0 0.00025494
17970.0 0.00025495
17990.0 0.00025495
18010.0 0.00025494
18030.0 0.00025491
18050.0 0.00025487
18070.0 0.00025482
18090.0 0.00025476
18110.0 0.00025468
18130.0 0.0002546
18150.0 0.0002545
18170.0 0.00025439
18190.0 0.00025427
18210.0 0.00025413
18230.0 0.00025398
18250.0 0.00025381
18270.0 0.00025364
18290.0 0.00025346
18310.0 0.00025325
18330.0 0.00025304
18350.0 0.00025282
18370.0 0.00025258
18390.0 0.00025232
18410.0 0.00025206
18430.0 0.00025178
18450.0 0.00025148
18470.0 0.00025118
18490.0 0.00025087
18510.0 0.00025053
18530.0 0.00025019
18550.0 0.00024983
18570.0 0.00024946
18590.0 0.00024907
18610.0 0.00024868
18630.0 0.00024827
18650.0 0.00024784
18670.0 0.0002474
18690.0 0.00024696
18710.0 0.0002465
18730.0 0.00024602
18750.0 0.00024553
18770.0 0.00024503
18790.0 0.00024451
18810.0 0.00024399
18830.0 0.00024345
18850.0 0.0002429
18870.0 0.00024233
18890.0 0.00024175
18910.0 0.00024117
18930.0 0.00024056
18950.0 0.00023995
18970.0 0.00023932
18990.0 0.00023868
19010.0 0.00023802
19030.0 0.00023737
19050.0 0.00023669
19070.0 0.000236
19090.0 0.0002353
19110.0 0.0002346
19130.0 0.00023388
19150.0 0.00023314
19170.0 0.0002324
19190.0 0.00023165
19210.0 0.00023087
19230.0 0.0002301
19250.0 0.00022931
19270.0 0.00022851
19290.0 0.0002277
19310.0 0.00022689
19330.0 0.00022606
19350.0 0.00022522
19370.0 0.00022437
19390.0 0.00022351
19410.0 0.00022264
19430.0 0.00022176
19450.0 0.00022088
19470.0 0.00021998
19490.0 0.00021907
19510.0 0.00021816
19530.0 0.00021724
19550.0 0.0002163
19570.0 0.00021536
19590.0 0.00021441
19610.0 0.00021346
19630.0 0.00021249
19650.0 0.00021152
19670.0 0.00021055
19690.0 0.00020955
19710.0 0.00020856
19730.0 0.00020756
19750.0 0.00020655
19770.0 0.00020553
19790.0 0.00020451
19810.0 0.00020349
19830.0 0.00020245
19850.0 0.0002014
19870.0 0.00020033
19890.0 0.00019922
19910.0 0.00019805
19930.0 0.00019679
19950.0 0.0001954
19970.0 0.0001938
19990.0 0.00019196
20010.0 0.0001899
20030.0 0.00018755
20050.0 0.00018491
20070.0 0.00018211
20090.0 0.00017918
20110.0 0.00017602
20130.0 0.00017286
20150.0 0.00016977
20170.0 0.00016662
20190.0 0.00016347
20210.0 0.00016047
20230.0 0.00015752
20250.0 0.00015456
20270.0 0.00015172
20290.0 0.00014902
20310.0 0.00014636
20330.0 0.00014375
20350.0 0.00014137
20370.0 0.00013907
20390.0 0.00013684
20410.0 0.00013476
20430.0 0.00013283
20450.0 0.00013096
20470.0 0.00012922
20490.0 0.00012762
20510.0 0.00012613
20530.0 0.00012472
20550.0 0.00012344
20570.0 0.00012226
20590.0 0.00012116
20610.0 0.00012014
20630.0 0.0001192
20650.0 0.00011832
20670.0 0.00011749
20690.0 0.00011671
20710.0 0.00011596
20730.0 0.00011523
20750.0 0.00011453
20770.0 0.00011382
20790.0 0.00011311
20810.0 0.00011239
20830.0 0.00011164
20850.0 0.00011086
20870.0 0.00011005
20890.0 0.00010919
20910.0 0.0001083
20930.0 0.00010735
20950.0 0.00010635
20970.0 0.0001053
20990.0 0.00010422
21010.0 0.00010306
21030.0 0.00010187
21050.0 0.00010064
21070.0 9.9375e-05
21090.0 9.805e-05
21110.0 9.6725e-05
21130.0 9.5384e-05
21150.0 9.4003e-05
21170.0 9.2615e-05
21190.0 9.1245e-05
21210.0 8.9847e-05
21230.0 8.8437e-05
21250.0 8.7064e-05
21270.0 8.5706e-05
21290.0 8.4339e-05
21310.0 8.2998e-05
21330.0 8.171e-05
21350.0 8.0424e-05
21370.0 7.9157e-05
21390.0 7.794e-05
21410.0 7.6758e-05
21430.0 7.5577e-05
21450.0 7.4452e-05
21470.0 7.3377e-05
21490.0 7.2324e-05
21510.0 7.1302e-05
21530.0 7.0334e-05
21550.0 6.9397e-05
21570.0 6.8481e-05
21590.0 6.7607e-05
21610.0 6.6771e-05
21630.0 6.5955e-05
21650.0 6.516e-05
21670.0 6.4405e-05
21690.0 6.3667e-05
21710.0 6.2942e-05
21730.0 6.2237e-05
21750.0 6.155e-05
21770.0 6.0865e-05
21790.0 6.0189e-05
21810.0 5.9523e-05
21830.0 5.886e-05
21850.0 5.8193e-05
21870.0 5.753e-05
21890.0 5.6871e-05
21910.0 5.6202e-05
21930.0 5.553e-05
21950.0 5.486e-05
21970.0 5.4184e-05
21990.0 5.3492e-05
22010.0 5.2806e-05
22030.0 5.2117e-05
22050.0 5.1416e-05
22070.0 5.071e-05
22090.0 5.0011e-05
22110.0 4.9302e-05
22130.0 4.8583e-05
22150.0 4.7869e-05
22170.0 4.7156e-05
22190.0 4.6428e-05
22210.0 4.5699e-05
22230.0 4.4983e-05
22250.0 4.426e-05
22270.0 4.3529e-05
22290.0 4.281e-05
22310.0 4.2094e-05
22330.0 4.1363e-05
22350.0 4.064e-05
22370.0 3.9928e-05
22390.0 3.9212e-05
22410.0 3.8487e-05
22430.0 3.7783e-05
22450.0 3.7085e-05
22470.0 3.6378e-05
22490.0 3.5681e-05
22510.0 3.5001e-05
22530.0 3.4314e-05
22550.0 3.3628e-05
22570.0 3.2966e-05
22590.0 3.2313e-05
22610.0 3.166e-05
22630.0 3.1024e-05
22650.0 3.0414e-05
22670.0 2.9807e-05
22690.0 2.9212e-05
22710.0 2.8645e-05
22730.0 2.8095e-05
22750.0 2.755e-05
22770.0 2.7034e-05
22790.0 2.6545e-05
22810.0 2.6069e-05
22830.0 2.5612e-05
22850.0 2.5182e-05
22870.0 2.4771e-05
22890.0 2.4374e-05
22910.0 2.4001e-05
22930.0 2.365e-05
22950.0 2.3314e-05
22970.0 2.2995e-05
22990.0 2.2698e-05
23010.0 2.2414e-05
23030.0 2.2144e-05
