#lamb flux
1010.0 1.2958e-05
1030.0 1.3573e-05
1050.0 1.5093e-05
1070.0 1.6785e-05
1090.0 1.8551e-05
1110.0 2.0316e-05
1130.0 2.2043e-05
1150.0 2.382e-05
1170.0 2.561e-05
1190.0 2.7223e-05
1210.0 2.8801e-05
1230.0 3.0377e-05
1250.0 3.1864e-05
1270.0 3.3218e-05
1290.0 3.4603e-05
1310.0 3.5915e-05
1330.0 3.7092e-05
1350.0 3.8254e-05
1370.0 3.9466e-05
1390.0 4.0652e-05
1410.0 4.1843e-05
1430.0 4.3205e-05
1450.0 4.4698e-05
1470.0 4.6304e-05
1490.0 4.8136e-05
1510.0 5.0307e-05
1530.0 5.2662e-05
1550.0 5.5302e-05
1570.0 5.8338e-05
1590.0 6.1738e-05
1610.0 6.5447e-05
1630.0 6.9657e-05
1650.0 7.4335e-05
1670.0 7.9366e-05
1690.0 8.4782e-05
1710.0 9.0682e-05
1730.0 9.698e-05
1750.0 0.00010347
1770.0 0.00011032
1790.0 0.00011746
1810.0 0.00012468
1830.0 0.00013192
1850.0 0.00013932
1870.0 0.00014654
1890.0 0.00015343
1910.0 0.00016006
1930.0 0.00016635
1950.0 0.00017197
1970.0 0.00017693
1990.0 0.00018133
2010.0 0.00018493
2030.0 0.00018764
2050.0 0.00018964
2070.0 0.00019092
2090.0 0.00019123
2110.0 0.00019079
2130.0 0.00018975
2150.0 0.00018803
2170.0 0.00018564
2190.0 0.0001829
2210.0 0.0001798
2230.0 0.00017631
2250.0 0.00017263
2270.0 0.00016895
2290.0 0.00016517
2310.0 0.00016134
2330.0 0.0001577
2350.0 0.00015426
2370.0 0.00015097
2390.0 0.000148
2410.0 0.00014549
2430.0 0.00014336
2450.0 0.00014168
2470.0 0.00014066
2490.0 0.00014037
2510.0 0.00014073
2530.0 0.00014217
2550.0 0.00014528
2570.0 0.00015051
2590.0 0.00015857
2610.0 0.00017155
2630.0 0.00018996
2650.0 0.00021307
2670.0 0.00024157
2690.0 0.00027505
2710.0 0.00030981
2730.0 0.00034413
2750.0 0.00037903
2770.0 0.0004122
2790.0 0.00044317
2810.0 0.00047414
2830.0 0.00050709
2850.0 0.00054031
2870.0 0.00057561
2890.0 0.00061453
2910.0 0.00065625
2930.0 0.00069945
2950.0 0.00074647
2970.0 0.00079702
2990.0 0.00084926
3010.0 0.0009424
3030.0 0.0010035
3050.0 0.001067
3070.0 0.0011298
3090.0 0.0011934
3110.0 0.0012541
3130.0 0.0013071
3150.0 0.00135
3170.0 0.0013779
3190.0 0.0014
3210.0 0.0014445
3230.0 0.0015065
3250.0 0.0015238
3270.0 0.001485
3290.0 0.0014326
3310.0 0.0014092
3330.0 0.001406
3350.0 0.0014158
3370.0 0.0014319
3390.0 0.0014592
3410.0 0.0014784
3430.0 0.0014627
3450.0 0.0014654
3470.0 0.0014786
3490.0 0.0016344
3510.0 0.0020821
3530.0 0.0025749
3550.0 0.0029317
3570.0 0.0032124
3590.0 0.0033705
3610.0 0.0033399
3630.0 0.0032632
3650.0 0.0034802
3670.0 0.0040442
3690.0 0.0045975
3710.0 0.0050122
3730.0 0.0053817
3750.0 0.005731
3770.0 0.0056469
3790.0 0.0052535
3810.0 0.0048773
3830.0 0.0045464
3850.0 0.0044703
3870.0 0.0048031
3890.0 0.0052454
3910.0 0.005588
3930.0 0.0059467
3950.0 0.0066365
3970.0 0.0071896
3990.0 0.0068958
4010.0 0.006097
4030.0 0.0053282
4050.0 0.0050278
4070.0 0.0049709
4090.0 0.0048736
4110.0 0.004842
4130.0 0.0047977
4150.0 0.0048207
4170.0 0.0051169
4190.0 0.0055512
4210.0 0.0055358
4230.0 0.0053544
4250.0 0.0053089
4270.0 0.0054299
4290.0 0.005751
4310.0 0.0060548
4330.0 0.0058138
4350.0 0.0051239
4370.0 0.0045317
4390.0 0.0040362
4410.0 0.0035915
4430.0 0.0035079
4450.0 0.0037135
4470.0 0.0039217
4490.0 0.0042031
4510.0 0.0048111
4530.0 0.0061345
4550.0 0.0080372
4570.0 0.0092743
4590.0 0.010014
4610.0 0.011249
4630.0 0.01223
4650.0 0.011627
4670.0 0.0097741
4690.0 0.0080494
4710.0 0.0071063
4730.0 0.0066818
4750.0 0.0061593
4770.0 0.0057292
4790.0 0.0059932
4810.0 0.0065381
4830.0 0.0066766
4850.0 0.006355
4870.0 0.0063654
4890.0 0.0068442
4910.0 0.0072781
4930.0 0.0074363
4950.0 0.0073117
4970.0 0.0068871
4990.0 0.0062116
5010.0 0.0055784
5030.0 0.0051436
5050.0 0.0048907
5070.0 0.0047019
5090.0 0.0045165
5110.0 0.0044484
5130.0 0.0044462
5150.0 0.0045657
5170.0 0.0049993
5190.0 0.0056314
5210.0 0.0063787
5230.0 0.0069483
5250.0 0.0073308
5270.0 0.0077968
5290.0 0.0083476
5310.0 0.008627
5330.0 0.0084553
5350.0 0.008072
5370.0 0.0080206
5390.0 0.0084733
5410.0 0.0092025
5430.0 0.0098036
5450.0 0.010133
5470.0 0.010188
5490.0 0.0099924
5510.0 0.0097735
5530.0 0.0096433
5550.0 0.0095713
5570.0 0.0094448
5590.0 0.0092289
5610.0 0.0089074
5630.0 0.0083746
5650.0 0.007683
5670.0 0.0071608
5690.0 0.0069322
5710.0 0.006836
5730.0 0.0067048
5750.0 0.00657
5770.0 0.00649
5790.0 0.0065064
5810.0 0.0064904
5830.0 0.0064996
5850.0 0.0065195
5870.0 0.0063792
5890.0 0.006155
5910.0 0.0058519
5930.0 0.0053192
5950.0 0.0047775
5970.0 0.0045025
5990.0 0.0044872
6010.0 0.004499
6030.0 0.0043521
6050.0 0.0042135
6070.0 0.004375
6090.0 0.0047113
6110.0 0.0049068
6130.0 0.0048302
6150.0 0.0046319
6170.0 0.0044959
6190.0 0.0043814
6210.0 0.0041696
6230.0 0.0038549
6250.0 0.0036262
6270.0 0.0035793
6290.0 0.003583
6310.0 0.0037301
6330.0 0.0040694
6350.0 0.0044779
6370.0 0.004741
6390.0 0.0048839
6410.0 0.0050346
6430.0 0.0051529
6450.0 0.0052611
6470.0 0.0053871
6490.0 0.0055163
6510.0 0.0056201
6530.0 0.0056575
6550.0 0.005656
6570.0 0.00553
6590.0 0.0052678
6610.0 0.0050542
6630.0 0.0049154
6650.0 0.004735
6670.0 0.0044953
6690.0 0.0042923
6710.0 0.0041851
6730.0 0.0040942
6750.0 0.0040139
6770.0 0.0039792
6790.0 0.0039455
6810.0 0.0038565
6830.0 0.0037807
6850.0 0.0038461
6870.0 0.0039037
6890.0 0.0038472
6910.0 0.0037896
6930.0 0.0037445
6950.0 0.0036594
6970.0 0.0035295
6990.0 0.0034075
7010.0 0.003332
7030.0 0.0032629
7050.0 0.0031141
7070.0 0.002923
7090.0 0.0028739
7110.0 0.0029822
7130.0 0.0031527
7150.0 0.0033084
7170.0 0.0034289
7190.0 0.0034588
7210.0 0.0033596
7230.0 0.0032938
7250.0 0.0033354
7270.0 0.00332
7290.0 0.0032783
7310.0 0.0033081
7330.0 0.0034203
7350.0 0.0035752
7370.0 0.0036728
7390.0 0.0037091
7410.0 0.0037086
7430.0 0.0036354
7450.0 0.0035174
7470.0 0.0034103
7490.0 0.0032846
7510.0 0.0031758
7530.0 0.0031439
7550.0 0.003142
7570.0 0.0031455
7590.0 0.0031774
7610.0 0.0031794
7630.0 0.0031791
7650.0 0.00327
7670.0 0.0034055
7690.0 0.0035387
7710.0 0.0036483
7730.0 0.0037488
7750.0 0.0038581
7770.0 0.0039635
7790.0 0.0040531
7810.0 0.004089
7830.0 0.0040253
7850.0 0.0038939
7870.0 0.0037274
7890.0 0.003564
7910.0 0.0034875
7930.0 0.0034362
7950.0 0.0033654
7970.0 0.0032949
7990.0 0.0032741
8010.0 0.0030864
8030.0 0.0030646
8050.0 0.0030369
8070.0 0.0029933
8090.0 0.0029518
8110.0 0.0029441
8130.0 0.0029534
8150.0 0.0029385
8170.0 0.0029108
8190.0 0.0028278
8210.0 0.0026686
8230.0 0.0025134
8250.0 0.002435
8270.0 0.0023454
8290.0 0.0022013
8310.0 0.0020756
8330.0 0.0020006
8350.0 0.001943
8370.0 0.0019668
8390.0 0.0020843
8410.0 0.0022216
8430.0 0.002373
8450.0 0.0025524
8470.0 0.0026919
8490.0 0.0028343
8510.0 0.0029654
8530.0 0.0030929
8550.0 0.0031993
8570.0 0.0032772
8590.0 0.0033399
8610.0 0.0034193
8630.0 0.0034436
8650.0 0.0033802
8670.0 0.0033859
8690.0 0.0034827
8710.0 0.0036025
8730.0 0.0036306
8750.0 0.0035642
8770.0 0.0035525
8790.0 0.003545
8810.0 0.0034624
8830.0 0.0032176
8850.0 0.0029162
8870.0 0.002699
8890.0 0.0026086
8910.0 0.0024969
8930.0 0.0023232
8950.0 0.0021861
8970.0 0.002149
8990.0 0.0021736
9010.0 0.0021736
9030.0 0.0021531
9050.0 0.0021367
9070.0 0.0021247
9090.0 0.0021134
9110.0 0.0021023
9130.0 0.0020913
9150.0 0.0020804
9170.0 0.0020695
9190.0 0.0020589
9210.0 0.0020487
9230.0 0.0020379
9250.0 0.0020273
9270.0 0.0020168
9290.0 0.0020064
9310.0 0.0019962
9330.0 0.001986
9350.0 0.001976
9370.0 0.001966
9390.0 0.0019562
9410.0 0.0019463
9430.0 0.0019363
9450.0 0.0019249
9470.0 0.0019141
9490.0 0.0019062
9510.0 0.0018975
9530.0 0.0018888
9550.0 0.0018797
9570.0 0.0018706
9590.0 0.0018617
9610.0 0.0018527
9630.0 0.0018436
9650.0 0.0018347
9670.0 0.001826
9690.0 0.0018171
9710.0 0.0018083
9730.0 0.0017997
9750.0 0.001791
9770.0 0.0017823
9790.0 0.0017737
9810.0 0.0017652
9830.0 0.0017566
9850.0 0.0017477
9870.0 0.0017395
9890.0 0.0017312
9910.0 0.0017228
9930.0 0.0017145
9950.0 0.0017054
9970.0 0.0016972
9990.0 0.0016888
10010.0 0.0016801
10030.0 0.0016716
10050.0 0.0016636
10070.0 0.0016556
10090.0 0.0016476
10110.0 0.0016386
10130.0 0.0016265
10150.0 0.0016188
10170.0 0.0016117
10190.0 0.0016038
10210.0 0.001596
10230.0 0.0015881
10250.0 0.0015795
10270.0 0.0015708
10290.0 0.0015625
10310.0 0.0015537
10330.0 0.0015445
10350.0 0.0015357
10370.0 0.001527
10390.0 0.0015177
10410.0 0.0015085
10430.0 0.0014997
10450.0 0.0014905
10470.0 0.0014809
10490.0 0.0014716
10510.0 0.0014624
10530.0 0.0014523
10550.0 0.0014425
10570.0 0.0014331
10590.0 0.0014231
10610.0 0.0014129
10630.0 0.0014031
10650.0 0.0013931
10670.0 0.0013824
10690.0 0.001372
10710.0 0.0013617
10730.0 0.001351
10750.0 0.0013397
10770.0 0.0013292
10790.0 0.0013183
10810.0 0.001307
10830.0 0.0012957
10850.0 0.0012848
10870.0 0.001273
10890.0 0.0012611
10910.0 0.0012497
10930.0 0.001238
10950.0 0.0012259
10970.0 0.001214
10990.0 0.0012027
11010.0 0.0011541
11030.0 0.0011415
11050.0 0.0011297
11070.0 0.0011182
11090.0 0.0011064
11110.0 0.0010958
11130.0 0.0010858
11150.0 0.0010761
11170.0 0.0010668
11190.0 0.0010586
11210.0 0.0010508
11230.0 0.0010434
11250.0 0.0010369
11270.0 0.0010311
11290.0 0.0010256
11310.0 0.0010207
11330.0 0.0010166
11350.0 0.0010127
11370.0 0.001009
11390.0 0.0010056
11410.0 0.0010024
11430.0 0.00099898
11450.0 0.0009955
11470.0 0.00099191
11490.0 0.00098794
11510.0 0.00098342
11530.0 0.00097864
11550.0 0.0009734
11570.0 0.00096741
11590.0 0.00096088
11610.0 0.00095397
11630.0 0.00094618
11650.0 0.00093752
11670.0 0.00092855
11690.0 0.00091893
11710.0 0.00090826
11730.0 0.00089697
11750.0 0.0008854
11770.0 0.00087269
11790.0 0.00085907
11810.0 0.0008452
11830.0 0.00083075
11850.0 0.00081496
11870.0 0.00079913
11890.0 0.00078347
11910.0 0.00076712
11930.0 0.00075052
11950.0 0.00073463
11970.0 0.00071882
11990.0 0.00070272
12010.0 0.00068751
12030.0 0.00067316
12050.0 0.00065902
12070.0 0.00064531
12090.0 0.0006331
12110.0 0.00062144
12130.0 0.00061027
12150.0 0.00060015
12170.0 0.0005911
12190.0 0.00058244
12210.0 0.0005748
12230.0 0.00056833
12250.0 0.00056271
12270.0 0.00055794
12290.0 0.00055423
12310.0 0.00055147
12330.0 0.00054948
12350.0 0.00054831
12370.0 0.00054784
12390.0 0.00054796
12410.0 0.00054869
12430.0 0.00054976
12450.0 0.0005511
12470.0 0.00055275
12490.0 0.00055456
12510.0 0.00055632
12530.0 0.00055818
12550.0 0.00056007
12570.0 0.00056175
12590.0 0.00056322
12610.0 0.00056453
12630.0 0.00056549
12650.0 0.00056592
12670.0 0.00056591
12690.0 0.00056534
12710.0 0.00056411
12730.0 0.00056224
12750.0 0.0005596
12770.0 0.00055624
12790.0 0.00055227
12810.0 0.00054761
12830.0 0.00054226
12850.0 0.00053662
12870.0 0.00053066
12890.0 0.00052424
12910.0 0.00051775
12930.0 0.00051138
12950.0 0.00050484
12970.0 0.00049832
12990.0 0.00049224
13010.0 0.00048637
13030.0 0.00048059
13050.0 0.00047515
13070.0 0.00047013
13090.0 0.00046519
13110.0 0.00046046
13130.0 0.0004561
13150.0 0.00045194
13170.0 0.00044784
13190.0 0.00044406
13210.0 0.00044055
13230.0 0.00043715
13250.0 0.00043391
13270.0 0.00043092
13290.0 0.00042805
13310.0 0.00042523
13330.0 0.00042256
13350.0 0.00042
13370.0 0.00041741
13390.0 0.00041477
13410.0 0.00041221
13430.0 0.00040953
13450.0 0.00040669
13470.0 0.00040375
13490.0 0.00040074
13510.0 0.00039739
13530.0 0.00039389
13550.0 0.00039032
13570.0 0.00038654
13590.0 0.00038251
13610.0 0.00037845
13630.0 0.00037438
13650.0 0.00037007
13670.0 0.00036572
13690.0 0.00036148
13710.0 0.00035717
13730.0 0.00035268
13750.0 0.00034844
13770.0 0.00034428
13790.0 0.00034004
13810.0 0.00033589
13830.0 0.00033197
13850.0 0.00032802
13870.0 0.00032411
13890.0 0.00032044
13910.0 0.00031693
13930.0 0.00031346
13950.0 0.00031018
13970.0 0.00030724
13990.0 0.0003044
14010.0 0.00030173
14030.0 0.00029933
14050.0 0.00029712
14070.0 0.00029499
14090.0 0.00029308
14110.0 0.00029135
14130.0 0.00028971
14150.0 0.00028814
14170.0 0.00028673
14190.0 0.00028538
14210.0 0.00028404
14230.0 0.00028276
14250.0 0.00028154
14270.0 0.0002803
14290.0 0.00027904
14310.0 0.00027784
14330.0 0.00027664
14350.0 0.00027539
14370.0 0.00027416
14390.0 0.00027296
14410.0 0.00027172
14430.0 0.00027047
14450.0 0.00026927
14470.0 0.00026808
14490.0 0.00026685
14510.0 0.00026568
14530.0 0.00026456
14550.0 0.00026339
14570.0 0.00026221
14590.0 0.00026105
14610.0 0.00025984
14630.0 0.00025854
14650.0 0.00025724
14670.0 0.00025596
14690.0 0.00025463
14710.0 0.00025335
14730.0 0.00025228
14750.0 0.00025138
14770.0 0.00025074
14790.0 0.00025051
14810.0 0.00025073
14830.0 0.00025153
14850.0 0.00025297
14870.0 0.000255
14890.0 0.00025767
14910.0 0.00026097
14930.0 0.00026458
14950.0 0.0002683
14970.0 0.00027212
14990.0 0.00027564
15010.0 0.00027861
15030.0 0.00028109
15050.0 0.00028305
15070.0 0.00028443
15090.0 0.00028545
15110.0 0.00028622
15130.0 0.00028682
15150.0 0.00028733
15170.0 0.00028781
15190.0 0.00028827
15210.0 0.00028873
15230.0 0.0002892
15250.0 0.00028968
15270.0 0.00029017
15290.0 0.00029067
15310.0 0.00029118
15330.0 0.0002917
15350.0 0.00029224
15370.0 0.00029278
15390.0 0.00029333
15410.0 0.00029389
15430.0 0.00029447
15450.0 0.00029505
15470.0 0.00029564
15490.0 0.00029624
15510.0 0.00029686
15530.0 0.00029747
15550.0 0.0002981
15570.0 0.00029874
15590.0 0.00029939
15610.0 0.00030004
15630.0 0.00030071
15650.0 0.00030138
15670.0 0.00030206
15690.0 0.00030275
15710.0 0.00030345
15730.0 0.00030415
15750.0 0.00030486
15770.0 0.00030558
15790.0 0.00030631
15810.0 0.00030704
15830.0 0.00030778
15850.0 0.00030853
15870.0 0.00030928
15890.0 0.00031004
15910.0 0.0003108
15930.0 0.00031157
15950.0 0.00031235
15970.0 0.00031313
15990.0 0.00031392
16010.0 0.00031471
16030.0 0.0003155
16050.0 0.0003163
16070.0 0.00031711
16090.0 0.00031792
16110.0 0.00031873
16130.0 0.00031955
16150.0 0.00032036
16170.0 0.00032118
16190.0 0.00032201
16210.0 0.00032283
16230.0 0.00032366
16250.0 0.00032449
16270.0 0.00032533
16290.0 0.00032616
16310.0 0.00032699
16330.0 0.00032783
16350.0 0.00032867
16370.0 0.0003295
16390.0 0.00033034
16410.0 0.00033118
16430.0 0.00033201
16450.0 0.00033285
16470.0 0.00033368
16490.0 0.00033451
16510.0 0.00033534
16530.0 0.00033617
16550.0 0.000337
16570.0 0.00033782
16590.0 0.00033864
16610.0 0.00033946
16630.0 0.00034027
16650.0 0.00034108
16670.0 0.00034189
16690.0 0.00034269
16710.0 0.00034348
16730.0 0.00034428
16750.0 0.00034506
16770.0 0.00034584
16790.0 0.00034661
16810.0 0.00034738
16830.0 0.00034815
16850.0 0.0003489
16870.0 0.00034965
16890.0 0.00035039
16910.0 0.00035112
16930.0 0.00035184
16950.0 0.00035256
16970.0 0.00035326
16990.0 0.00035396
17010.0 0.00035465
17030.0 0.00035532
17050.0 0.00035599
17070.0 0.00035665
17090.0 0.0003573
17110.0 0.00035793
17130.0 0.00035856
17150.0 0.00035917
17170.0 0.00035977
17190.0 0.00036036
17210.0 0.00036094
17230.0 0.0003615
17250.0 0.00036206
17270.0 0.00036259
17290.0 0.00036312
17310.0 0.00036363
17330.0 0.00036413
17350.0 0.00036461
17370.0 0.00036508
17390.0 0.00036553
17410.0 0.00036597
17430.0 0.0003664
17450.0 0.00036681
17470.0 0.0003672
17490.0 0.00036757
17510.0 0.00036793
17530.0 0.00036828
17550.0 0.0003686
17570.0 0.00036891
17590.0 0.00036921
17610.0 0.00036949
17630.0 0.00036974
17650.0 0.00036999
17670.0 0.00037021
17690.0 0.00037041
17710.0 0.0003706
17730.0 0.00037077
17750.0 0.00037092
17770.0 0.00037105
17790.0 0.00037117
17810.0 0.00037126
17830.0 0.00037134
17850.0 0.0003714
17870.0 0.00037143
17890.0 0.00037145
17910.0 0.00037145
17930.0 0.00037143
17950.0 0.00037139
17970.0 0.00037132
17990.0 0.00037124
18010.0 0.00037114
18030.0 0.00037102
18050.0 0.00037088
18070.0 0.00037072
18090.0 0.00037054
18110.0 0.00037034
18130.0 0.00037012
18150.0 0.00036987
18170.0 0.00036961
18190.0 0.00036933
18210.0 0.00036902
18230.0 0.0003687
18250.0 0.00036835
18270.0 0.00036799
18290.0 0.00036761
18310.0 0.0003672
18330.0 0.00036677
18350.0 0.00036633
18370.0 0.00036586
18390.0 0.00036537
18410.0 0.00036487
18430.0 0.00036434
18450.0 0.00036379
18470.0 0.00036323
18490.0 0.00036264
18510.0 0.00036203
18530.0 0.00036141
18550.0 0.00036076
18570.0 0.0003601
18590.0 0.00035941
18610.0 0.0003587
18630.0 0.00035798
18650.0 0.00035724
18670.0 0.00035648
18690.0 0.0003557
18710.0 0.0003549
18730.0 0.00035408
18750.0 0.00035324
18770.0 0.00035239
18790.0 0.00035152
18810.0 0.00035063
18830.0 0.00034972
18850.0 0.00034879
18870.0 0.00034785
18890.0 0.00034689
18910.0 0.00034591
18930.0 0.00034492
18950.0 0.00034391
18970.0 0.00034288
18990.0 0.00034184
19010.0 0.00034078
19030.0 0.0003397
19050.0 0.00033861
19070.0 0.0003375
19090.0 0.00033638
19110.0 0.00033525
19130.0 0.0003341
19150.0 0.00033293
19170.0 0.00033175
19190.0 0.00033056
19210.0 0.00032935
19230.0 0.00032813
19250.0 0.00032689
19270.0 0.00032565
19290.0 0.00032438
19310.0 0.00032311
19330.0 0.00032183
19350.0 0.00032053
19370.0 0.00031922
19390.0 0.0003179
19410.0 0.00031657
19430.0 0.00031522
19450.0 0.00031387
19470.0 0.0003125
19490.0 0.00031113
19510.0 0.00030974
19530.0 0.00030835
19550.0 0.00030694
19570.0 0.00030553
19590.0 0.00030411
19610.0 0.00030268
19630.0 0.00030124
19650.0 0.00029979
19670.0 0.00029833
19690.0 0.00029687
19710.0 0.0002954
19730.0 0.00029392
19750.0 0.00029244
19770.0 0.00029094
19790.0 0.00028945
19810.0 0.00028794
19830.0 0.00028642
19850.0 0.00028489
19870.0 0.00028333
19890.0 0.00028172
19910.0 0.00028001
19930.0 0.00027816
19950.0 0.00027611
19970.0 0.00027373
19990.0 0.00027097
20010.0 0.00026788
20030.0 0.00026433
20050.0 0.00026035
20070.0 0.00025613
20090.0 0.00025172
20110.0 0.00024696
20130.0 0.00024224
20150.0 0.00023761
20170.0 0.00023294
20190.0 0.00022827
20210.0 0.00022382
20230.0 0.00021947
20250.0 0.00021511
20270.0 0.00021094
20290.0 0.00020699
20310.0 0.0002031
20330.0 0.00019929
20350.0 0.00019582
20370.0 0.00019248
20390.0 0.00018926
20410.0 0.00018626
20430.0 0.00018349
20450.0 0.00018081
20470.0 0.00017833
20490.0 0.00017608
20510.0 0.00017398
20530.0 0.00017202
20550.0 0.00017023
20570.0 0.00016861
20590.0 0.00016709
20610.0 0.0001657
20630.0 0.00016442
20650.0 0.00016323
20670.0 0.00016211
20690.0 0.00016105
20710.0 0.00016003
20730.0 0.00015904
20750.0 0.00015807
20770.0 0.00015709
20790.0 0.00015611
20810.0 0.00015509
20830.0 0.00015404
20850.0 0.00015295
20870.0 0.0001518
20890.0 0.00015058
20910.0 0.00014932
20930.0 0.00014798
20950.0 0.00014657
20970.0 0.00014511
20990.0 0.0001436
21010.0 0.000142
21030.0 0.00014036
21050.0 0.00013869
21070.0 0.00013696
21090.0 0.00013517
21110.0 0.00013339
21130.0 0.0001316
21150.0 0.00012976
21170.0 0.00012792
21190.0 0.00012611
21210.0 0.00012427
21230.0 0.00012242
21250.0 0.00012063
21270.0 0.00011885
21290.0 0.00011706
21310.0 0.00011531
21330.0 0.00011363
21350.0 0.00011196
21370.0 0.00011031
21390.0 0.00010873
21410.0 0.0001072
21430.0 0.00010568
21450.0 0.00010423
21470.0 0.00010286
21490.0 0.00010153
21510.0 0.00010024
21530.0 9.9038e-05
21550.0 9.7886e-05
21570.0 9.6773e-05
21590.0 9.5724e-05
21610.0 9.473e-05
21630.0 9.3774e-05
21650.0 9.2855e-05
21670.0 9.1986e-05
21690.0 9.1145e-05
21710.0 9.0328e-05
21730.0 8.9535e-05
21750.0 8.8762e-05
21770.0 8.7997e-05
21790.0 8.7243e-05
21810.0 8.6497e-05
21830.0 8.5754e-05
21850.0 8.501e-05
21870.0 8.4266e-05
21890.0 8.3523e-05
21910.0 8.2773e-05
21930.0 8.2018e-05
21950.0 8.1262e-05
21970.0 8.0498e-05
21990.0 7.9719e-05
22010.0 7.8939e-05
22030.0 7.8153e-05
22050.0 7.7351e-05
22070.0 7.6537e-05
22090.0 7.5721e-05
22110.0 7.4888e-05
22130.0 7.4034e-05
22150.0 7.3174e-05
22170.0 7.2304e-05
22190.0 7.1404e-05
22210.0 7.0489e-05
22230.0 6.9578e-05
22250.0 6.8645e-05
22270.0 6.7689e-05
22290.0 6.6734e-05
22310.0 6.5775e-05
22330.0 6.4781e-05
22350.0 6.3787e-05
22370.0 6.2801e-05
22390.0 6.1798e-05
22410.0 6.0773e-05
22430.0 5.9773e-05
22450.0 5.8775e-05
22470.0 5.7759e-05
22490.0 5.6753e-05
22510.0 5.5772e-05
22530.0 5.4775e-05
22550.0 5.3778e-05
22570.0 5.2819e-05
22590.0 5.1875e-05
22610.0 5.093e-05
22630.0 5.0014e-05
22650.0 4.9144e-05
22670.0 4.8278e-05
22690.0 4.7436e-05
22710.0 4.6641e-05
22730.0 4.5876e-05
22750.0 4.512e-05
22770.0 4.4414e-05
22790.0 4.3752e-05
22810.0 4.3112e-05
22830.0 4.2502e-05
22850.0 4.1935e-05
22870.0 4.1396e-05
22890.0 4.0876e-05
22910.0 4.039e-05
22930.0 3.9932e-05
22950.0 3.9492e-05
22970.0 3.9069e-05
22990.0 3.8674e-05
23010.0 3.8291e-05
23030.0 3.792e-05
23050.0 3.7563e-05
23070.0 3.7219e-05
23090.0 3.6877e-05
