#lamb flux
1010.0 8.8111e-07
1030.0 9.7648e-07
1050.0 1.0862e-06
1070.0 1.2097e-06
1090.0 1.35e-06
1110.0 1.4939e-06
1130.0 1.6388e-06
1150.0 1.7905e-06
1170.0 1.9471e-06
1190.0 2.0956e-06
1210.0 2.2461e-06
1230.0 2.4017e-06
1250.0 2.5541e-06
1270.0 2.7022e-06
1290.0 2.8587e-06
1310.0 3.0151e-06
1330.0 3.1651e-06
1350.0 3.3169e-06
1370.0 3.4736e-06
1390.0 3.6264e-06
1410.0 3.7748e-06
1430.0 3.9299e-06
1450.0 4.085e-06
1470.0 4.2349e-06
1490.0 4.3865e-06
1510.0 4.5466e-06
1530.0 4.6983e-06
1550.0 4.848e-06
1570.0 5.0028e-06
1590.0 5.1577e-06
1610.0 5.3057e-06
1630.0 5.4582e-06
1650.0 5.6146e-06
1670.0 5.7658e-06
1690.0 5.9149e-06
1710.0 6.0696e-06
1730.0 6.2248e-06
1750.0 6.3705e-06
1770.0 6.5202e-06
1790.0 6.6726e-06
1810.0 6.8195e-06
1830.0 6.9633e-06
1850.0 7.1155e-06
1870.0 7.263e-06
1890.0 7.4045e-06
1910.0 7.548e-06
1930.0 7.6942e-06
1950.0 7.8322e-06
1970.0 7.9671e-06
1990.0 8.1061e-06
2010.0 8.241e-06
2030.0 8.3687e-06
2050.0 8.499e-06
2070.0 8.6308e-06
2090.0 8.7516e-06
2110.0 8.8695e-06
2130.0 8.9889e-06
2150.0 9.1026e-06
2170.0 9.2069e-06
2190.0 9.313e-06
2210.0 9.4164e-06
2230.0 9.5102e-06
2250.0 9.5994e-06
2270.0 9.6904e-06
2290.0 9.7725e-06
2310.0 9.8443e-06
2330.0 9.9156e-06
2350.0 9.9831e-06
2370.0 1.0041e-05
2390.0 1.0095e-05
2410.0 1.0154e-05
2430.0 1.0208e-05
2450.0 1.0261e-05
2470.0 1.0328e-05
2490.0 1.0415e-05
2510.0 1.0524e-05
2530.0 1.0699e-05
2550.0 1.1003e-05
2570.0 1.1497e-05
2590.0 1.2249e-05
2610.0 1.3458e-05
2630.0 1.5146e-05
2650.0 1.7196e-05
2670.0 1.9609e-05
2690.0 2.2266e-05
2710.0 2.4768e-05
2730.0 2.6938e-05
2750.0 2.8817e-05
2770.0 3.0219e-05
2790.0 3.1153e-05
2810.0 3.1786e-05
2830.0 3.2231e-05
2850.0 3.2486e-05
2870.0 3.2667e-05
2890.0 3.2839e-05
2910.0 3.2996e-05
2930.0 3.3122e-05
2950.0 3.3271e-05
2970.0 3.3435e-05
2990.0 3.3579e-05
3010.0 0.00043977
3030.0 0.00044062
3050.0 0.00044138
3070.0 0.00044151
3090.0 0.00044133
3110.0 0.00044021
3130.0 0.0004374
3150.0 0.00043255
3170.0 0.00042499
3190.0 0.00041486
3210.0 0.00040311
3230.0 0.00039106
3250.0 0.00038676
3270.0 0.00037937
3290.0 0.0003867
3310.0 0.0003839
3330.0 0.00039358
3350.0 0.00040804
3370.0 0.0004268
3390.0 0.00044919
3410.0 0.00047276
3430.0 0.00049859
3450.0 0.00052737
3470.0 0.00055766
3490.0 0.00058839
3510.0 0.00062399
3530.0 0.00066312
3550.0 0.00069609
3570.0 0.00072666
3590.0 0.00077038
3610.0 0.00079954
3630.0 0.00084789
3650.0 0.00089103
3670.0 0.00093457
3690.0 0.00095912
3710.0 0.00096525
3730.0 0.00097891
3750.0 0.0009791
3770.0 0.00090735
3790.0 0.00083261
3810.0 0.0007776
3830.0 0.00070388
3850.0 0.00061217
3870.0 0.00060738
3890.0 0.00078653
3910.0 0.0010529
3930.0 0.00126
3950.0 0.0013348
3970.0 0.0013073
3990.0 0.0013325
4010.0 0.0015064
4030.0 0.001615
4050.0 0.0015643
4070.0 0.0013848
4090.0 0.0012229
4110.0 0.0013722
4130.0 0.0014858
4150.0 0.0014588
4170.0 0.0014587
4190.0 0.0014521
4210.0 0.0015066
4230.0 0.0016033
4250.0 0.0017308
4270.0 0.0017631
4290.0 0.0017469
4310.0 0.0018393
4330.0 0.0020202
4350.0 0.0022927
4370.0 0.0025585
4390.0 0.0024658
4410.0 0.0020831
4430.0 0.0017341
4450.0 0.0014526
4470.0 0.0014237
4490.0 0.0015575
4510.0 0.0017987
4530.0 0.001957
4550.0 0.0021989
4570.0 0.0026233
4590.0 0.0032264
4610.0 0.0041318
4630.0 0.0049723
4650.0 0.0051137
4670.0 0.0050993
4690.0 0.0053954
4710.0 0.0054971
4730.0 0.0046325
4750.0 0.0034254
4770.0 0.0028029
4790.0 0.0026386
4810.0 0.0025016
4830.0 0.002457
4850.0 0.0028267
4870.0 0.0034877
4890.0 0.0038777
4910.0 0.0033975
4930.0 0.0031766
4950.0 0.0036531
4970.0 0.0047441
4990.0 0.0058813
5010.0 0.0060467
5030.0 0.0049856
5050.0 0.0034072
5070.0 0.0024248
5090.0 0.002117
5110.0 0.002168
5130.0 0.0023334
5150.0 0.0024086
5170.0 0.0023909
5190.0 0.0023606
5210.0 0.0023188
5230.0 0.0024029
5250.0 0.0025773
5270.0 0.0029548
5290.0 0.0034083
5310.0 0.0037379
5330.0 0.0038624
5350.0 0.0039622
5370.0 0.0043068
5390.0 0.0045295
5410.0 0.0042878
5430.0 0.0037939
5450.0 0.0036563
5470.0 0.0042207
5490.0 0.0053569
5510.0 0.0066136
5530.0 0.007176
5550.0 0.0070095
5570.0 0.0064873
5590.0 0.0058996
5610.0 0.0055277
5630.0 0.0054062
5650.0 0.0055143
5670.0 0.0053864
5690.0 0.0050603
5710.0 0.0048027
5730.0 0.0042751
5750.0 0.0033105
5770.0 0.0029192
5790.0 0.0032218
5810.0 0.0037797
5830.0 0.004234
5850.0 0.0044861
5870.0 0.0045182
5890.0 0.0043123
5910.0 0.0041221
5930.0 0.0041371
5950.0 0.0043407
5970.0 0.0044915
5990.0 0.0041534
6010.0 0.0034879
6030.0 0.0028957
6050.0 0.0025766
6070.0 0.0026146
6090.0 0.0029073
6110.0 0.0030744
6130.0 0.0029258
6150.0 0.0028137
6170.0 0.003121
6190.0 0.0037225
6210.0 0.0044372
6230.0 0.0049571
6250.0 0.0048842
6270.0 0.0043504
6290.0 0.0036162
6310.0 0.0028976
6330.0 0.0023671
6350.0 0.0022169
6370.0 0.0024369
6390.0 0.0028152
6410.0 0.0032408
6430.0 0.0037779
6450.0 0.0044354
6470.0 0.0054275
6490.0 0.0065494
6510.0 0.0070783
6530.0 0.0066687
6550.0 0.0062555
6570.0 0.0061853
6590.0 0.0059739
6610.0 0.0055118
6630.0 0.0050464
6650.0 0.0047294
6670.0 0.0047971
6690.0 0.0047134
6710.0 0.0042449
6730.0 0.0038425
6750.0 0.0034441
6770.0 0.0034388
6790.0 0.0036712
6810.0 0.0038754
6830.0 0.0039481
6850.0 0.0038257
6870.0 0.0036831
6890.0 0.0035932
6910.0 0.0034002
6930.0 0.0032629
6950.0 0.0032713
6970.0 0.0033649
6990.0 0.0036947
7010.0 0.0038943
7030.0 0.0036274
7050.0 0.0033477
7070.0 0.0030943
7090.0 0.0027184
7110.0 0.0025186
7130.0 0.0025867
7150.0 0.0026842
7170.0 0.002807
7190.0 0.0027903
7210.0 0.0028005
7230.0 0.0030259
7250.0 0.0034795
7270.0 0.0039688
7290.0 0.0042
7310.0 0.0040258
7330.0 0.0036028
7350.0 0.0032666
7370.0 0.0031943
7390.0 0.0032499
7410.0 0.0034244
7430.0 0.003798
7450.0 0.0041385
7470.0 0.0045503
7490.0 0.0048767
7510.0 0.0043531
7530.0 0.0041533
7550.0 0.0036056
7570.0 0.0030767
7590.0 0.0025498
7610.0 0.0023685
7630.0 0.0025075
7650.0 0.0028896
7670.0 0.0032161
7690.0 0.0035903
7710.0 0.0039956
7730.0 0.0042135
7750.0 0.004309
7770.0 0.0043384
7790.0 0.0043348
7810.0 0.0044434
7830.0 0.0043077
7850.0 0.003992
7870.0 0.0037005
7890.0 0.0034399
7910.0 0.0030926
7930.0 0.0027116
7950.0 0.0024702
7970.0 0.0024245
7990.0 0.0025168
8010.0 0.0026858
8030.0 0.0027262
8050.0 0.0027365
8070.0 0.0026723
8090.0 0.0026527
8110.0 0.0025455
8130.0 0.002405
8150.0 0.0022671
8170.0 0.0022425
8190.0 0.0022927
8210.0 0.0022879
8230.0 0.0023004
8250.0 0.0022711
8270.0 0.002019
8290.0 0.0015627
8310.0 0.0011101
8330.0 0.00075004
8350.0 0.00053718
8370.0 0.00059833
8390.0 0.00067437
8410.0 0.00084956
8430.0 0.0010345
8450.0 0.0011325
8470.0 0.0011723
8490.0 0.0012328
8510.0 0.0013022
8530.0 0.0014662
8550.0 0.0016463
8570.0 0.0019141
8590.0 0.0022871
8610.0 0.0026567
8630.0 0.003097
8650.0 0.0034455
8670.0 0.0034086
8690.0 0.0032271
8710.0 0.0030655
8730.0 0.0029127
8750.0 0.0027948
8770.0 0.0027238
8790.0 0.0026242
8810.0 0.0024331
8830.0 0.0022419
8850.0 0.0019518
8870.0 0.0017111
8890.0 0.0015474
8910.0 0.0015897
8930.0 0.001551
8950.0 0.0016264
8970.0 0.001658
8990.0 0.0017099
9010.0 0.0017755
9030.0 0.0017701
9050.0 0.0017709
9070.0 0.0017729
9090.0 0.0017745
9110.0 0.001775
9130.0 0.0017766
9150.0 0.0017792
9170.0 0.0017811
9190.0 0.001782
9210.0 0.0017907
9230.0 0.0017926
9250.0 0.0017956
9270.0 0.0017989
9290.0 0.0018026
9310.0 0.0018067
9330.0 0.0018112
9350.0 0.0018158
9370.0 0.0018208
9390.0 0.001826
9410.0 0.0018315
9430.0 0.0018371
9450.0 0.0018431
9470.0 0.0018493
9490.0 0.0018557
9510.0 0.0018623
9530.0 0.0018693
9550.0 0.0018763
9570.0 0.0018835
9590.0 0.001891
9610.0 0.0018987
9630.0 0.0019064
9650.0 0.0019145
9670.0 0.0019228
9690.0 0.0019311
9710.0 0.0019397
9730.0 0.0019484
9750.0 0.0019573
9770.0 0.0019662
9790.0 0.0019754
9810.0 0.0019847
9830.0 0.0019941
9850.0 0.0020035
9870.0 0.0020132
9890.0 0.0020229
9910.0 0.0020326
9930.0 0.0020425
9950.0 0.0020521
9970.0 0.0020621
9990.0 0.0020721
10010.0 0.0020645
10030.0 0.0020745
10050.0 0.0020841
10070.0 0.0020923
10090.0 0.002103
10110.0 0.0021133
10130.0 0.0021235
10150.0 0.0021338
10170.0 0.0021437
10190.0 0.0021533
10210.0 0.0021631
10230.0 0.0021729
10250.0 0.0021823
10270.0 0.0021916
10290.0 0.002201
10310.0 0.0022101
10330.0 0.0022189
10350.0 0.0022278
10370.0 0.0022366
10390.0 0.002245
10410.0 0.0022532
10430.0 0.0022616
10450.0 0.0022695
10470.0 0.0022771
10490.0 0.0022846
10510.0 0.002292
10530.0 0.0022988
10550.0 0.0023055
10570.0 0.0023121
10590.0 0.0023183
10610.0 0.0023241
10630.0 0.0023299
10650.0 0.0023354
10670.0 0.0023403
10690.0 0.002345
10710.0 0.0023496
10730.0 0.0023536
10750.0 0.0023571
10770.0 0.0023608
10790.0 0.002364
10810.0 0.0023666
10830.0 0.0023689
10850.0 0.0023708
10870.0 0.0023716
10890.0 0.002371
10910.0 0.0023687
10930.0 0.0023632
10950.0 0.0023525
10970.0 0.0023357
10990.0 0.0023124
11010.0 0.0022691
11030.0 0.0022257
11050.0 0.0021755
11070.0 0.0021174
11090.0 0.0020493
11110.0 0.0019805
11130.0 0.0019103
11150.0 0.0018368
11170.0 0.0017635
11190.0 0.0016953
11210.0 0.0016281
11230.0 0.0015627
11250.0 0.0015039
11270.0 0.0014508
11290.0 0.0014009
11310.0 0.0013566
11330.0 0.0013198
11350.0 0.0012866
11370.0 0.0012568
11390.0 0.0012312
11410.0 0.0012081
11430.0 0.0011852
11450.0 0.0011632
11470.0 0.0011413
11490.0 0.001118
11510.0 0.0010922
11530.0 0.0010656
11550.0 0.0010373
11570.0 0.0010061
11590.0 0.00097361
11610.0 0.00094104
11630.0 0.0009067
11650.0 0.00087149
11670.0 0.00083837
11690.0 0.00080635
11710.0 0.00077489
11730.0 0.00074578
11750.0 0.00071987
11770.0 0.00069534
11790.0 0.00067295
11810.0 0.00065348
11830.0 0.00063603
11850.0 0.0006196
11870.0 0.00060511
11890.0 0.00059204
11910.0 0.00057929
11930.0 0.00056675
11950.0 0.00055465
11970.0 0.00054226
11990.0 0.00052901
12010.0 0.00051558
12030.0 0.00050197
12050.0 0.00048765
12070.0 0.00047286
12090.0 0.00045897
12110.0 0.00044529
12130.0 0.00043202
12150.0 0.00042013
12170.0 0.0004099
12190.0 0.00040096
12210.0 0.00039426
12230.0 0.00038999
12250.0 0.00038805
12270.0 0.00038871
12290.0 0.00039182
12310.0 0.00039704
12330.0 0.00040476
12350.0 0.00041448
12370.0 0.00042539
12390.0 0.00043769
12410.0 0.0004517
12430.0 0.00046528
12450.0 0.00047868
12470.0 0.00049221
12490.0 0.00050492
12510.0 0.00051591
12530.0 0.00052594
12550.0 0.0005346
12570.0 0.00054111
12590.0 0.00054569
12610.0 0.00054859
12630.0 0.00054943
12650.0 0.00054829
12670.0 0.0005455
12690.0 0.00054103
12710.0 0.00053521
12730.0 0.00052824
12750.0 0.00051991
12770.0 0.00051079
12790.0 0.00050119
12810.0 0.00049087
12830.0 0.00047985
12850.0 0.00046889
12870.0 0.0004577
12890.0 0.0004459
12910.0 0.00043398
12930.0 0.00042215
12950.0 0.0004097
12970.0 0.00039679
12990.0 0.00038422
13010.0 0.00037148
13030.0 0.0003583
13050.0 0.00034533
13070.0 0.00033293
13090.0 0.00032038
13110.0 0.00030819
13130.0 0.00029697
13150.0 0.0002865
13170.0 0.00027653
13190.0 0.00026799
13210.0 0.00026083
13230.0 0.00025475
13250.0 0.00025003
13270.0 0.00024681
13290.0 0.00024488
13310.0 0.0002443
13330.0 0.00024499
13350.0 0.00024675
13370.0 0.00024961
13390.0 0.00025343
13410.0 0.00025761
13430.0 0.00026235
13450.0 0.00026754
13470.0 0.0002727
13490.0 0.00027765
13510.0 0.00028278
13530.0 0.00028751
13550.0 0.00029163
13570.0 0.00029536
13590.0 0.0002987
13610.0 0.00030136
13630.0 0.00030342
13650.0 0.0003051
13670.0 0.00030624
13690.0 0.00030685
13710.0 0.00030705
13730.0 0.00030687
13750.0 0.00030625
13770.0 0.00030528
13790.0 0.00030397
13810.0 0.00030233
13830.0 0.00030042
13850.0 0.00029818
13870.0 0.0002956
13890.0 0.00029279
13910.0 0.00028974
13930.0 0.00028633
13950.0 0.0002827
13970.0 0.00027907
13990.0 0.00027522
14010.0 0.00027125
14030.0 0.00026739
14050.0 0.00026362
14070.0 0.0002598
14090.0 0.00025628
14110.0 0.0002531
14130.0 0.00025017
14150.0 0.00024758
14170.0 0.00024548
14190.0 0.00024381
14210.0 0.00024257
14230.0 0.00024183
14250.0 0.00024156
14270.0 0.0002418
14290.0 0.00024255
14310.0 0.00024371
14330.0 0.00024529
14350.0 0.00024733
14370.0 0.00024967
14390.0 0.00025218
14410.0 0.00025504
14430.0 0.00025809
14450.0 0.00026115
14470.0 0.00026431
14490.0 0.00026772
14510.0 0.00027108
14530.0 0.00027445
14550.0 0.0002781
14570.0 0.00028201
14590.0 0.00028605
14610.0 0.00029056
14630.0 0.00029578
14650.0 0.00030141
14670.0 0.00030756
14690.0 0.00031462
14710.0 0.00032253
14730.0 0.00033061
14750.0 0.00033947
14770.0 0.00034909
14790.0 0.00035884
14810.0 0.00036856
14830.0 0.00037896
14850.0 0.00038903
14870.0 0.00039836
14890.0 0.00040728
14910.0 0.00041565
14930.0 0.00042277
14950.0 0.00042868
14970.0 0.00043366
14990.0 0.00043731
15010.0 0.00043971
15030.0 0.00044114
15050.0 0.0004417
15070.0 0.00044158
15090.0 0.00044104
15110.0 0.00044019
15130.0 0.00043918
15150.0 0.00043814
15170.0 0.00043701
15190.0 0.00043585
15210.0 0.00043473
15230.0 0.00043363
15250.0 0.00043247
15270.0 0.00043134
15290.0 0.00043027
15310.0 0.00042917
15330.0 0.00042805
15350.0 0.00042699
15370.0 0.00042593
15390.0 0.00042481
15410.0 0.00042373
15430.0 0.00042268
15450.0 0.00042161
15470.0 0.00042051
15490.0 0.00041948
15510.0 0.00041845
15530.0 0.00041737
15550.0 0.00041632
15570.0 0.00041531
15590.0 0.00041424
15610.0 0.00041315
15630.0 0.00041214
15650.0 0.00041111
15670.0 0.00041004
15690.0 0.000409
15710.0 0.000408
15730.0 0.00040694
15750.0 0.00040588
15770.0 0.00040486
15790.0 0.00040383
15810.0 0.00040273
15830.0 0.00040169
15850.0 0.00040068
15870.0 0.00039962
15890.0 0.00039855
15910.0 0.00039753
15930.0 0.00039649
15950.0 0.00039539
15970.0 0.00039434
15990.0 0.0003933
16010.0 0.00039221
16030.0 0.00039111
16050.0 0.00039008
16070.0 0.00038901
16090.0 0.00038791
16110.0 0.00038684
16130.0 0.00038579
16150.0 0.00038465
16170.0 0.00038354
16190.0 0.00038247
16210.0 0.00038136
16230.0 0.00038022
16250.0 0.00037912
16270.0 0.00037804
16290.0 0.00037689
16310.0 0.00037575
16330.0 0.00037464
16350.0 0.0003735
16370.0 0.0003723
16390.0 0.00037117
16410.0 0.00037004
16430.0 0.00036886
16450.0 0.00036768
16470.0 0.00036655
16490.0 0.00036536
16510.0 0.00036414
16530.0 0.00036297
16550.0 0.00036179
16570.0 0.00036055
16590.0 0.00035932
16610.0 0.00035815
16630.0 0.00035692
16650.0 0.00035567
16670.0 0.00035446
16690.0 0.00035325
16710.0 0.00035195
16730.0 0.00035069
16750.0 0.00034946
16770.0 0.00034819
16790.0 0.00034688
16810.0 0.00034563
16830.0 0.00034437
16850.0 0.00034305
16870.0 0.00034176
16890.0 0.00034049
16910.0 0.00033915
16930.0 0.0003378
16950.0 0.00033651
16970.0 0.00033519
16990.0 0.00033383
17010.0 0.0003325
17030.0 0.00033119
17050.0 0.00032982
17070.0 0.00032844
17090.0 0.0003271
17110.0 0.00032575
17130.0 0.00032432
17150.0 0.00032295
17170.0 0.0003216
17190.0 0.00032019
17210.0 0.00031878
17230.0 0.00031742
17250.0 0.00031602
17270.0 0.00031457
17290.0 0.00031316
17310.0 0.00031176
17330.0 0.00031031
17350.0 0.00030885
17370.0 0.00030746
17390.0 0.00030603
17410.0 0.00030456
17430.0 0.00030312
17450.0 0.00030171
17470.0 0.0003002
17490.0 0.00029873
17510.0 0.00029729
17530.0 0.00029582
17550.0 0.00029432
17570.0 0.00029286
17590.0 0.00029141
17610.0 0.0002899
17630.0 0.00028841
17650.0 0.00028695
17670.0 0.00028545
17690.0 0.0002839
17710.0 0.00028243
17730.0 0.00028095
17750.0 0.00027942
17770.0 0.00027791
17790.0 0.00027645
17810.0 0.00027492
17830.0 0.00027338
17850.0 0.00027188
17870.0 0.00027038
17890.0 0.00026882
17910.0 0.00026729
17930.0 0.00026581
17950.0 0.00026427
17970.0 0.00026273
17990.0 0.00026123
18010.0 0.00025972
18030.0 0.00025814
18050.0 0.00025661
18070.0 0.00025511
18090.0 0.00025356
18110.0 0.000252
18130.0 0.0002505
18150.0 0.00024898
18170.0 0.00024742
18190.0 0.00024589
18210.0 0.00024439
18230.0 0.00024283
18250.0 0.00024126
18270.0 0.00023975
18290.0 0.00023823
18310.0 0.00023667
18330.0 0.00023514
18350.0 0.00023365
18370.0 0.00023209
18390.0 0.00023054
18410.0 0.00022904
18430.0 0.00022751
18450.0 0.00022594
18470.0 0.00022442
18490.0 0.00022292
18510.0 0.00022138
18530.0 0.00021985
18550.0 0.00021836
18570.0 0.00021684
18590.0 0.00021529
18610.0 0.00021378
18630.0 0.00021229
18650.0 0.00021075
18670.0 0.00020922
18690.0 0.00020775
18710.0 0.00020624
18730.0 0.00020471
18750.0 0.00020323
18770.0 0.00020176
18790.0 0.00020021
18810.0 0.00019871
18830.0 0.00019724
18850.0 0.00019575
18870.0 0.00019424
18890.0 0.00019277
18910.0 0.00019132
18930.0 0.00018981
18950.0 0.00018833
18970.0 0.00018688
18990.0 0.00018541
19010.0 0.00018389
19030.0 0.00018245
19050.0 0.00018101
19070.0 0.00017953
19090.0 0.00017808
19110.0 0.00017667
19130.0 0.0001752
19150.0 0.00017373
19170.0 0.00017231
19190.0 0.00017088
19210.0 0.00016942
19230.0 0.00016798
19250.0 0.00016659
19270.0 0.00016516
19290.0 0.00016372
19310.0 0.00016233
19330.0 0.00016093
19350.0 0.00015948
19370.0 0.00015808
19390.0 0.0001567
19410.0 0.00015529
19430.0 0.00015387
19450.0 0.00015252
19470.0 0.00015114
19490.0 0.00014973
19510.0 0.00014836
19530.0 0.00014702
19550.0 0.00014562
19570.0 0.00014422
19590.0 0.00014289
19610.0 0.00014154
19630.0 0.00014016
19650.0 0.00013882
19670.0 0.00013751
19690.0 0.00013614
19710.0 0.00013479
19730.0 0.00013348
19750.0 0.00013215
19770.0 0.00013078
19790.0 0.00012947
19810.0 0.00012818
19830.0 0.00012685
19850.0 0.00012552
19870.0 0.00012422
19890.0 0.00012287
19910.0 0.00012144
19930.0 0.00011999
19950.0 0.00011844
19970.0 0.00011669
19990.0 0.00011475
20010.0 0.00011324
20030.0 0.00011093
20050.0 0.0001084
20070.0 0.00010583
20090.0 0.00010321
20110.0 0.00010044
20130.0 9.7794e-05
20150.0 9.5319e-05
20170.0 9.2898e-05
20190.0 9.0587e-05
20210.0 8.8522e-05
20230.0 8.6614e-05
20250.0 8.481e-05
20270.0 8.3229e-05
20290.0 8.1863e-05
20310.0 8.0646e-05
20330.0 7.9595e-05
20350.0 7.8793e-05
20370.0 7.816e-05
20390.0 7.7698e-05
20410.0 7.7428e-05
20430.0 7.733e-05
20450.0 7.7406e-05
20470.0 7.7657e-05
20490.0 7.8052e-05
20510.0 7.8594e-05
20530.0 7.9303e-05
20550.0 8.0123e-05
20570.0 8.1015e-05
20590.0 8.2043e-05
20610.0 8.3156e-05
20630.0 8.4288e-05
20650.0 8.5478e-05
20670.0 8.6764e-05
20690.0 8.8003e-05
20710.0 8.9219e-05
20730.0 9.0468e-05
20750.0 9.1704e-05
20770.0 9.2856e-05
20790.0 9.4011e-05
20810.0 9.5183e-05
20830.0 9.6303e-05
20850.0 9.7397e-05
20870.0 9.855e-05
20890.0 9.9716e-05
20910.0 0.00010084
20930.0 0.00010202
20950.0 0.00010325
20970.0 0.00010448
20990.0 0.0001057
21010.0 0.000107
21030.0 0.00010828
21050.0 0.0001095
21070.0 0.00011071
21090.0 0.0001119
21110.0 0.00011296
21130.0 0.00011392
21150.0 0.0001148
21170.0 0.00011556
21190.0 0.00011616
21210.0 0.00011664
21230.0 0.00011699
21250.0 0.00011716
21270.0 0.00011719
21290.0 0.00011707
21310.0 0.00011679
21330.0 0.00011637
21350.0 0.0001158
21370.0 0.00011507
21390.0 0.00011423
21410.0 0.00011327
21430.0 0.00011212
21450.0 0.00011089
21470.0 0.0001096
21490.0 0.00010819
21510.0 0.00010669
21530.0 0.0001052
21550.0 0.00010366
21570.0 0.00010206
21590.0 0.0001005
21610.0 9.9012e-05
21630.0 9.7537e-05
21650.0 9.6107e-05
21670.0 9.4872e-05
21690.0 9.3738e-05
21710.0 9.2718e-05
21730.0 9.1881e-05
21750.0 9.1232e-05
21770.0 9.0735e-05
21790.0 9.0444e-05
21810.0 9.0355e-05
21830.0 9.0457e-05
21850.0 9.077e-05
21870.0 9.1268e-05
21890.0 9.1922e-05
21910.0 9.2779e-05
21930.0 9.3804e-05
21950.0 9.4937e-05
21970.0 9.6219e-05
21990.0 9.7695e-05
22010.0 9.9207e-05
22030.0 0.00010078
22050.0 0.00010248
22070.0 0.00010423
22090.0 0.00010592
22110.0 0.00010767
22130.0 0.00010946
22150.0 0.00011116
22170.0 0.00011278
22190.0 0.0001144
22210.0 0.00011591
22230.0 0.00011723
22250.0 0.00011844
22270.0 0.00011952
22290.0 0.00012038
22310.0 0.00012105
22330.0 0.00012154
22350.0 0.00012179
22370.0 0.00012181
22390.0 0.0001216
22410.0 0.00012112
22430.0 0.00012043
22450.0 0.00011951
22470.0 0.00011833
22490.0 0.00011693
22510.0 0.00011538
22530.0 0.00011356
22550.0 0.0001115
22570.0 0.00010937
22590.0 0.00010709
22610.0 0.00010459
22630.0 0.00010201
22650.0 9.944e-05
22670.0 9.6704e-05
22690.0 9.3882e-05
22710.0 9.1126e-05
22730.0 8.8366e-05
22750.0 8.5458e-05
22770.0 8.2693e-05
22790.0 8.0064e-05
22810.0 7.7431e-05
22830.0 7.4874e-05
22850.0 7.2546e-05
22870.0 7.0331e-05
22890.0 6.82e-05
22910.0 6.6316e-05
22930.0 6.467e-05
22950.0 6.3194e-05
22970.0 6.1938e-05
22990.0 6.1013e-05
23010.0 6.0319e-05
