#lamb flux
1010.0 1.4826e-07
1030.0 1.6398e-07
1050.0 1.8205e-07
1070.0 2.024e-07
1090.0 2.2552e-07
1110.0 2.4922e-07
1130.0 2.7308e-07
1150.0 2.9808e-07
1170.0 3.2386e-07
1190.0 3.4831e-07
1210.0 3.7308e-07
1230.0 3.9869e-07
1250.0 4.2377e-07
1270.0 4.4813e-07
1290.0 4.7388e-07
1310.0 4.996e-07
1330.0 5.2427e-07
1350.0 5.4921e-07
1370.0 5.7497e-07
1390.0 6.0008e-07
1410.0 6.2445e-07
1430.0 6.4992e-07
1450.0 6.754e-07
1470.0 7.0002e-07
1490.0 7.249e-07
1510.0 7.5119e-07
1530.0 7.7611e-07
1550.0 8.0069e-07
1570.0 8.2613e-07
1590.0 8.5159e-07
1610.0 8.7593e-07
1630.0 9.0103e-07
1650.0 9.268e-07
1670.0 9.5175e-07
1690.0 9.7639e-07
1710.0 1.002e-06
1730.0 1.0278e-06
1750.0 1.052e-06
1770.0 1.077e-06
1790.0 1.1025e-06
1810.0 1.1273e-06
1830.0 1.1516e-06
1850.0 1.1775e-06
1870.0 1.2028e-06
1890.0 1.2272e-06
1910.0 1.2522e-06
1930.0 1.2778e-06
1950.0 1.3023e-06
1970.0 1.3266e-06
1990.0 1.3519e-06
2010.0 1.3768e-06
2030.0 1.4008e-06
2050.0 1.4257e-06
2070.0 1.4512e-06
2090.0 1.4754e-06
2110.0 1.4995e-06
2130.0 1.5244e-06
2150.0 1.5489e-06
2170.0 1.5723e-06
2190.0 1.5967e-06
2210.0 1.6213e-06
2230.0 1.6449e-06
2250.0 1.6685e-06
2270.0 1.6932e-06
2290.0 1.7171e-06
2310.0 1.7401e-06
2330.0 1.764e-06
2350.0 1.7886e-06
2370.0 1.813e-06
2390.0 1.8395e-06
2410.0 1.8709e-06
2430.0 1.907e-06
2450.0 1.9502e-06
2470.0 2.0055e-06
2490.0 2.0751e-06
2510.0 2.1544e-06
2530.0 2.2497e-06
2550.0 2.3691e-06
2570.0 2.5176e-06
2590.0 2.7107e-06
2610.0 2.9999e-06
2630.0 3.4128e-06
2650.0 3.9527e-06
2670.0 4.6507e-06
2690.0 5.5084e-06
2710.0 6.424e-06
2730.0 7.3287e-06
2750.0 8.2199e-06
2770.0 8.995e-06
2790.0 9.6105e-06
2810.0 1.0099e-05
2830.0 1.0481e-05
2850.0 1.0741e-05
2870.0 1.0932e-05
2890.0 1.1084e-05
2910.0 1.1205e-05
2930.0 1.1303e-05
2950.0 1.1398e-05
2970.0 1.149e-05
2990.0 1.1576e-05
3010.0 0.0003272
3030.0 0.00032965
3050.0 0.00033201
3070.0 0.00033404
3090.0 0.00033578
3110.0 0.00033686
3130.0 0.00033682
3150.0 0.00033532
3170.0 0.00033173
3190.0 0.00032609
3210.0 0.00031894
3230.0 0.00031075
3250.0 0.00030267
3270.0 0.00029676
3290.0 0.00029349
3310.0 0.00029402
3330.0 0.00029827
3350.0 0.00030568
3370.0 0.00031626
3390.0 0.0003296
3410.0 0.00034411
3430.0 0.0003604
3450.0 0.00037915
3470.0 0.00039963
3490.0 0.00042134
3510.0 0.00044587
3530.0 0.00047214
3550.0 0.00049874
3570.0 0.00052649
3590.0 0.00055666
3610.0 0.00058776
3630.0 0.00061875
3650.0 0.00065091
3670.0 0.00068027
3690.0 0.00070222
3710.0 0.0007148
3730.0 0.00071522
3750.0 0.00070526
3770.0 0.00070135
3790.0 0.00069718
3810.0 0.00068005
3830.0 0.0007011
3850.0 0.00078391
3870.0 0.00082937
3890.0 0.00082558
3910.0 0.0008291
3930.0 0.00085093
3950.0 0.00086437
3970.0 0.00078752
3990.0 0.00067762
4010.0 0.0020309
4030.0 0.0024608
4050.0 0.0028211
4070.0 0.0024478
4090.0 0.0022169
4110.0 0.0019562
4130.0 0.0018005
4150.0 0.0019152
4170.0 0.0018866
4190.0 0.0020109
4210.0 0.0019925
4230.0 0.0021076
4250.0 0.0024933
4270.0 0.0025226
4290.0 0.0023246
4310.0 0.0024154
4330.0 0.0025693
4350.0 0.0028808
4370.0 0.0032784
4390.0 0.0030764
4410.0 0.0022729
4430.0 0.0019242
4450.0 0.0017681
4470.0 0.0013571
4490.0 0.0014645
4510.0 0.0022121
4530.0 0.0025512
4550.0 0.0025733
4570.0 0.0028957
4590.0 0.0032984
4610.0 0.0044488
4630.0 0.0057781
4650.0 0.0062662
4670.0 0.0058031
4690.0 0.0055372
4710.0 0.0058532
4730.0 0.0055238
4750.0 0.0041298
4770.0 0.0030293
4790.0 0.0028288
4810.0 0.0026963
4830.0 0.0024684
4850.0 0.0027087
4870.0 0.0035784
4890.0 0.00422
4910.0 0.0037025
4930.0 0.0032762
4950.0 0.0035994
4970.0 0.004616
4990.0 0.0062557
5010.0 0.0071964
5030.0 0.0063456
5050.0 0.0042932
5070.0 0.0028294
5090.0 0.0022815
5110.0 0.0023463
5130.0 0.002708
5150.0 0.0029339
5170.0 0.0028899
5190.0 0.0027004
5210.0 0.0028225
5230.0 0.0029671
5250.0 0.0031976
5270.0 0.00345
5290.0 0.0038232
5310.0 0.0044501
5330.0 0.0049245
5350.0 0.0048931
5370.0 0.0051396
5390.0 0.0058978
5410.0 0.0058924
5430.0 0.0052109
5450.0 0.0047876
5470.0 0.0050835
5490.0 0.0062105
5510.0 0.0077653
5530.0 0.0089063
5550.0 0.0086079
5570.0 0.0078252
5590.0 0.006804
5610.0 0.0062747
5630.0 0.0060845
5650.0 0.0057948
5670.0 0.005491
5690.0 0.0049089
5710.0 0.0047862
5730.0 0.0044088
5750.0 0.0031084
5770.0 0.002425
5790.0 0.0027481
5810.0 0.003103
5830.0 0.0038078
5850.0 0.0045327
5870.0 0.005029
5890.0 0.0051142
5910.0 0.0050173
5930.0 0.0047758
5950.0 0.0048664
5970.0 0.0055471
5990.0 0.0052157
6010.0 0.0043723
6030.0 0.0036939
6050.0 0.003217
6070.0 0.0031994
6090.0 0.0034692
6110.0 0.0038791
6130.0 0.0039386
6150.0 0.0033888
6170.0 0.0029811
6190.0 0.0033548
6210.0 0.0044349
6230.0 0.0058199
6250.0 0.0063038
6270.0 0.0055086
6290.0 0.0046347
6310.0 0.0036182
6330.0 0.0027722
6350.0 0.0024728
6370.0 0.0026004
6390.0 0.0030062
6410.0 0.0037067
6430.0 0.0043285
6450.0 0.0049529
6470.0 0.0056711
6490.0 0.0068504
6510.0 0.0076596
6530.0 0.0075146
6550.0 0.0067952
6570.0 0.0057685
6590.0 0.0052016
6610.0 0.0044851
6630.0 0.0040633
6650.0 0.003841
6670.0 0.0037315
6690.0 0.0033716
6710.0 0.0030648
6730.0 0.0022076
6750.0 0.0021886
6770.0 0.0023788
6790.0 0.0027343
6810.0 0.0025019
6830.0 0.0025763
6850.0 0.0024096
6870.0 0.0022012
6890.0 0.0021135
6910.0 0.0022522
6930.0 0.0021095
6950.0 0.0021703
6970.0 0.0022828
6990.0 0.0025911
7010.0 0.0026132
7030.0 0.0026547
7050.0 0.0025317
7070.0 0.0024123
7090.0 0.0024193
7110.0 0.0024893
7130.0 0.0026789
7150.0 0.0028452
7170.0 0.0031395
7190.0 0.0034511
7210.0 0.0033912
7230.0 0.0034862
7250.0 0.0037465
7270.0 0.0040828
7290.0 0.0048458
7310.0 0.0052582
7330.0 0.0050825
7350.0 0.0045968
7370.0 0.0039996
7390.0 0.0038801
7410.0 0.0041234
7430.0 0.0045826
7450.0 0.0049913
7470.0 0.0049455
7490.0 0.0045093
7510.0 0.005108
7530.0 0.0050521
7550.0 0.0045409
7570.0 0.0035473
7590.0 0.0024387
7610.0 0.0020931
7630.0 0.0023782
7650.0 0.0028119
7670.0 0.0034997
7690.0 0.0038512
7710.0 0.0040134
7730.0 0.0042176
7750.0 0.0047348
7770.0 0.0048093
7790.0 0.0044176
7810.0 0.0040308
7830.0 0.0041567
7850.0 0.0040407
7870.0 0.0037047
7890.0 0.0031127
7910.0 0.0025302
7930.0 0.002416
7950.0 0.002201
7970.0 0.0020375
7990.0 0.0020258
8010.0 0.00015011
8030.0 0.00014815
8050.0 0.00014616
8070.0 0.00014809
8090.0 0.00015913
8110.0 0.00015642
8130.0 0.000129
8150.0 0.00012564
8170.0 0.00010819
8190.0 0.00010252
8210.0 0.00013318
8230.0 0.00014829
8250.0 0.0001336
8270.0 0.00011628
8290.0 0.00011338
8310.0 8.7273e-05
8330.0 5.882e-05
8350.0 4.1746e-05
8370.0 2.6288e-05
8390.0 4.8079e-05
8410.0 5.6024e-05
8430.0 6.9058e-05
8450.0 8.1093e-05
8470.0 0.00010081
8490.0 0.00010009
8510.0 9.8444e-05
8530.0 0.00010272
8550.0 0.00013864
8570.0 0.00016415
8590.0 0.00017708
8610.0 0.00022371
8630.0 0.00026948
8650.0 0.00028184
8670.0 0.00029955
8690.0 0.00030128
8710.0 0.00027284
8730.0 0.00025381
8750.0 0.00022402
8770.0 0.00021255
8790.0 0.00020884
8810.0 0.00020013
8830.0 0.00016
8850.0 0.00011711
8870.0 8.9667e-05
8890.0 8.7697e-05
8910.0 0.00010053
8930.0 0.00011436
8950.0 0.00011656
8970.0 0.0001171
8990.0 0.00010442
9010.0 0.0010935
9030.0 0.00099083
9050.0 0.00099562
9070.0 0.0010035
9090.0 0.0010104
9110.0 0.0010189
9130.0 0.0010255
9150.0 0.0010306
9170.0 0.001036
9190.0 0.0010418
9210.0 0.001048
9230.0 0.0010544
9250.0 0.001061
9270.0 0.0010678
9290.0 0.0010748
9310.0 0.0010819
9330.0 0.0010891
9350.0 0.0010965
9370.0 0.0011041
9390.0 0.0011117
9410.0 0.0011196
9430.0 0.0011276
9450.0 0.0011357
9470.0 0.0011439
9490.0 0.0011524
9510.0 0.0011609
9530.0 0.0011695
9550.0 0.0011784
9570.0 0.0011875
9590.0 0.0011966
9610.0 0.0012058
9630.0 0.0012153
9650.0 0.0012249
9670.0 0.0012345
9690.0 0.0012443
9710.0 0.0012543
9730.0 0.0012643
9750.0 0.0012745
9770.0 0.0012849
9790.0 0.0012954
9810.0 0.0013059
9830.0 0.0013166
9850.0 0.0013275
9870.0 0.0013383
9890.0 0.0013493
9910.0 0.0013605
9930.0 0.0013717
9950.0 0.0013829
9970.0 0.0013944
9990.0 0.001406
10010.0 0.00122
10030.0 0.0012301
10050.0 0.0012403
10070.0 0.0012509
10090.0 0.0012608
10110.0 0.001271
10130.0 0.0012813
10150.0 0.0012915
10170.0 0.0013018
10190.0 0.0013124
10210.0 0.0013228
10230.0 0.0013331
10250.0 0.0013437
10270.0 0.0013542
10290.0 0.0013646
10310.0 0.0013751
10330.0 0.0013858
10350.0 0.0013962
10370.0 0.0014066
10390.0 0.0014172
10410.0 0.0014276
10430.0 0.0014379
10450.0 0.0014483
10470.0 0.0014587
10490.0 0.001469
10510.0 0.0014791
10530.0 0.0014895
10550.0 0.0014996
10570.0 0.0015096
10590.0 0.0015196
10610.0 0.0015296
10630.0 0.0015393
10650.0 0.001549
10670.0 0.0015587
10690.0 0.0015683
10710.0 0.0015777
10730.0 0.0015871
10750.0 0.0015965
10770.0 0.0016055
10790.0 0.0016145
10810.0 0.0016234
10830.0 0.0016321
10850.0 0.0016403
10870.0 0.0016482
10890.0 0.0016553
10910.0 0.0016607
10930.0 0.0016637
10950.0 0.001663
10970.0 0.0016574
10990.0 0.0016463
11010.0 0.0016277
11030.0 0.0016018
11050.0 0.0015703
11070.0 0.0015325
11090.0 0.0014872
11110.0 0.0014403
11130.0 0.0013914
11150.0 0.0013387
11170.0 0.0012844
11190.0 0.0012317
11210.0 0.0011773
11230.0 0.0011216
11250.0 0.0010683
11270.0 0.0010171
11290.0 0.00096582
11310.0 0.00091725
11330.0 0.00087447
11350.0 0.00083406
11370.0 0.00079672
11390.0 0.00076441
11410.0 0.00073615
11430.0 0.00070989
11450.0 0.00068726
11470.0 0.00066769
11490.0 0.00064949
11510.0 0.00063194
11530.0 0.00061567
11550.0 0.0005995
11570.0 0.00058224
11590.0 0.00056438
11610.0 0.00054619
11630.0 0.0005264
11650.0 0.00050521
11670.0 0.00048432
11690.0 0.00046315
11710.0 0.0004413
11730.0 0.00042013
11750.0 0.00040053
11770.0 0.00038132
11790.0 0.00036331
11810.0 0.00034746
11830.0 0.00033328
11850.0 0.00032022
11870.0 0.0003093
11890.0 0.00030022
11910.0 0.00029224
11930.0 0.00028538
11950.0 0.00027967
11970.0 0.00027457
11990.0 0.00026975
12010.0 0.00026529
12030.0 0.00026099
12050.0 0.00025654
12070.0 0.00025192
12090.0 0.00024746
12110.0 0.00024293
12130.0 0.0002384
12150.0 0.00023422
12170.0 0.00023057
12190.0 0.00022742
12210.0 0.00022521
12230.0 0.00022415
12250.0 0.00022432
12270.0 0.00022601
12290.0 0.00022921
12310.0 0.0002338
12330.0 0.00024021
12350.0 0.00024822
12370.0 0.00025734
12390.0 0.00026786
12410.0 0.00028017
12430.0 0.00029269
12450.0 0.00030566
12470.0 0.00031945
12490.0 0.00033329
12510.0 0.00034628
12530.0 0.00035921
12550.0 0.00037167
12570.0 0.00038268
12590.0 0.00039234
12610.0 0.00040095
12630.0 0.00040781
12650.0 0.00041255
12670.0 0.00041566
12690.0 0.00041691
12710.0 0.00041622
12730.0 0.00041381
12750.0 0.00040951
12770.0 0.0004036
12790.0 0.00039644
12810.0 0.00038788
12830.0 0.00037798
12850.0 0.00036763
12870.0 0.00035669
12890.0 0.00034485
12910.0 0.00033281
12930.0 0.00032095
12950.0 0.00030857
12970.0 0.00029597
12990.0 0.00028405
13010.0 0.00027227
13030.0 0.00026037
13050.0 0.00024893
13070.0 0.00023822
13090.0 0.00022747
13110.0 0.00021707
13130.0 0.00020748
13150.0 0.0001984
13170.0 0.00018951
13190.0 0.0001816
13210.0 0.00017464
13230.0 0.00016828
13250.0 0.0001628
13270.0 0.00015847
13290.0 0.00015511
13310.0 0.00015279
13330.0 0.00015174
13350.0 0.00015186
13370.0 0.00015322
13390.0 0.0001559
13410.0 0.00015951
13430.0 0.00016422
13450.0 0.00017002
13470.0 0.00017647
13490.0 0.00018329
13510.0 0.00019099
13530.0 0.0001988
13550.0 0.00020627
13570.0 0.00021364
13590.0 0.00022082
13610.0 0.0002272
13630.0 0.00023278
13650.0 0.00023787
13670.0 0.00024209
13690.0 0.00024536
13710.0 0.00024789
13730.0 0.0002497
13750.0 0.0002506
13770.0 0.0002508
13790.0 0.00025035
13810.0 0.00024924
13830.0 0.00024761
13850.0 0.0002454
13870.0 0.00024261
13890.0 0.00023942
13910.0 0.00023582
13930.0 0.00023166
13950.0 0.00022711
13970.0 0.00022247
13990.0 0.0002174
14010.0 0.00021202
14030.0 0.00020666
14050.0 0.00020125
14070.0 0.00019554
14090.0 0.00019006
14110.0 0.00018492
14130.0 0.00017994
14150.0 0.00017524
14170.0 0.00017124
14190.0 0.00016778
14210.0 0.00016484
14230.0 0.00016266
14250.0 0.00016126
14270.0 0.00016058
14290.0 0.00016072
14310.0 0.00016162
14330.0 0.00016323
14350.0 0.00016559
14370.0 0.00016854
14390.0 0.00017189
14410.0 0.00017584
14430.0 0.00018017
14450.0 0.00018459
14470.0 0.00018918
14490.0 0.00019407
14510.0 0.00019873
14530.0 0.00020317
14550.0 0.0002076
14570.0 0.00021185
14590.0 0.00021573
14610.0 0.00021947
14630.0 0.00022318
14650.0 0.00022663
14670.0 0.00022996
14690.0 0.00023344
14710.0 0.0002371
14730.0 0.00024075
14750.0 0.0002448
14770.0 0.00024939
14790.0 0.00025437
14810.0 0.00025977
14830.0 0.00026616
14850.0 0.00027311
14870.0 0.00028035
14890.0 0.00028818
14910.0 0.00029648
14930.0 0.00030447
14950.0 0.00031193
14970.0 0.00031899
14990.0 0.00032492
15010.0 0.00032945
15030.0 0.00033281
15050.0 0.00033503
15070.0 0.00033611
15090.0 0.00033649
15110.0 0.00033638
15130.0 0.00033595
15150.0 0.00033539
15170.0 0.00033472
15190.0 0.00033399
15210.0 0.00033328
15230.0 0.00033258
15250.0 0.00033184
15270.0 0.00033112
15290.0 0.00033043
15310.0 0.00032972
15330.0 0.00032901
15350.0 0.00032832
15370.0 0.00032764
15390.0 0.00032693
15410.0 0.00032624
15430.0 0.00032557
15450.0 0.00032488
15470.0 0.00032419
15490.0 0.00032353
15510.0 0.00032287
15530.0 0.00032218
15550.0 0.00032152
15570.0 0.00032087
15590.0 0.0003202
15610.0 0.00031952
15630.0 0.00031888
15650.0 0.00031823
15670.0 0.00031757
15690.0 0.00031692
15710.0 0.00031629
15730.0 0.00031563
15750.0 0.00031498
15770.0 0.00031435
15790.0 0.00031372
15810.0 0.00031305
15830.0 0.00031241
15850.0 0.0003118
15870.0 0.00031115
15890.0 0.00031051
15910.0 0.0003099
15930.0 0.00030927
15950.0 0.00030862
15970.0 0.00030799
15990.0 0.00030738
16010.0 0.00030674
16030.0 0.00030609
16050.0 0.00030549
16070.0 0.00030486
16090.0 0.00030422
16110.0 0.0003036
16130.0 0.000303
16150.0 0.00030235
16170.0 0.00030171
16190.0 0.0003011
16210.0 0.00030048
16230.0 0.00029984
16250.0 0.00029922
16270.0 0.00029861
16290.0 0.00029798
16310.0 0.00029734
16330.0 0.00029673
16350.0 0.00029611
16370.0 0.00029545
16390.0 0.00029484
16410.0 0.00029422
16430.0 0.00029358
16450.0 0.00029295
16470.0 0.00029234
16490.0 0.0002917
16510.0 0.00029105
16530.0 0.00029043
16550.0 0.00028981
16570.0 0.00028915
16590.0 0.00028851
16610.0 0.00028789
16630.0 0.00028725
16650.0 0.0002866
16670.0 0.00028598
16690.0 0.00028535
16710.0 0.00028468
16730.0 0.00028403
16750.0 0.0002834
16770.0 0.00028275
16790.0 0.00028209
16810.0 0.00028145
16830.0 0.00028081
16850.0 0.00028015
16870.0 0.00027949
16890.0 0.00027886
16910.0 0.00027819
16930.0 0.00027751
16950.0 0.00027686
16970.0 0.00027621
16990.0 0.00027553
17010.0 0.00027487
17030.0 0.00027423
17050.0 0.00027355
17070.0 0.00027287
17090.0 0.00027221
17110.0 0.00027154
17130.0 0.00027084
17150.0 0.00027017
17170.0 0.00026951
17190.0 0.00026882
17210.0 0.00026813
17230.0 0.00026747
17250.0 0.00026678
17270.0 0.00026607
17290.0 0.00026539
17310.0 0.00026471
17330.0 0.00026401
17350.0 0.0002633
17370.0 0.00026263
17390.0 0.00026193
17410.0 0.00026122
17430.0 0.00026053
17450.0 0.00025984
17470.0 0.00025911
17490.0 0.0002584
17510.0 0.00025771
17530.0 0.000257
17550.0 0.00025627
17570.0 0.00025557
17590.0 0.00025487
17610.0 0.00025414
17630.0 0.00025341
17650.0 0.00025271
17670.0 0.00025199
17690.0 0.00025123
17710.0 0.00025053
17730.0 0.00024981
17750.0 0.00024907
17770.0 0.00024834
17790.0 0.00024763
17810.0 0.00024689
17830.0 0.00024614
17850.0 0.00024542
17870.0 0.00024469
17890.0 0.00024393
17910.0 0.00024318
17930.0 0.00024247
17950.0 0.00024172
17970.0 0.00024097
17990.0 0.00024024
18010.0 0.0002395
18030.0 0.00023872
18050.0 0.00023798
18070.0 0.00023724
18090.0 0.00023648
18110.0 0.00023571
18130.0 0.00023498
18150.0 0.00023423
18170.0 0.00023346
18190.0 0.0002327
18210.0 0.00023197
18230.0 0.00023119
18250.0 0.00023041
18270.0 0.00022967
18290.0 0.00022891
18310.0 0.00022813
18330.0 0.00022737
18350.0 0.00022663
18370.0 0.00022584
18390.0 0.00022507
18410.0 0.00022431
18430.0 0.00022355
18450.0 0.00022275
18470.0 0.00022199
18490.0 0.00022123
18510.0 0.00022045
18530.0 0.00021967
18550.0 0.00021892
18570.0 0.00021815
18590.0 0.00021735
18610.0 0.00021658
18630.0 0.00021581
18650.0 0.00021502
18670.0 0.00021423
18690.0 0.00021348
18710.0 0.0002127
18730.0 0.00021191
18750.0 0.00021114
18770.0 0.00021038
18790.0 0.00020957
18810.0 0.00020878
18830.0 0.00020802
18850.0 0.00020724
18870.0 0.00020644
18890.0 0.00020567
18910.0 0.00020491
18930.0 0.00020411
18950.0 0.00020332
18970.0 0.00020256
18990.0 0.00020177
19010.0 0.00020095
19030.0 0.00020019
19050.0 0.00019942
19070.0 0.00019862
19090.0 0.00019784
19110.0 0.00019708
19130.0 0.00019628
19150.0 0.00019548
19170.0 0.00019471
19190.0 0.00019394
19210.0 0.00019313
19230.0 0.00019234
19250.0 0.00019158
19270.0 0.00019079
19290.0 0.00019
19310.0 0.00018923
19330.0 0.00018846
19350.0 0.00018765
19370.0 0.00018687
19390.0 0.0001861
19410.0 0.00018531
19430.0 0.00018451
19450.0 0.00018375
19470.0 0.00018297
19490.0 0.00018218
19510.0 0.0001814
19530.0 0.00018064
19550.0 0.00017984
19570.0 0.00017904
19590.0 0.00017828
19610.0 0.0001775
19630.0 0.00017671
19650.0 0.00017594
19670.0 0.00017518
19690.0 0.00017438
19710.0 0.00017359
19730.0 0.00017283
19750.0 0.00017206
19770.0 0.00017125
19790.0 0.00017048
19810.0 0.00016972
19830.0 0.00016893
19850.0 0.00016814
19870.0 0.00016736
19890.0 0.00016653
19910.0 0.00016561
19930.0 0.00016463
19950.0 0.0001635
19970.0 0.00016212
19990.0 0.00016045
20010.0 0.00014275
20030.0 0.00014069
20050.0 0.00013827
20070.0 0.00013565
20090.0 0.00013283
20110.0 0.00012964
20130.0 0.00012641
20150.0 0.00012322
20170.0 0.0001199
20190.0 0.00011654
20210.0 0.00011336
20230.0 0.00011026
20250.0 0.00010716
20270.0 0.00010427
20290.0 0.00010164
20310.0 9.9142e-05
20330.0 9.6806e-05
20350.0 9.4866e-05
20370.0 9.3144e-05
20390.0 9.1635e-05
20410.0 9.0416e-05
20430.0 8.9475e-05
20450.0 8.873e-05
20470.0 8.8232e-05
20490.0 8.7964e-05
20510.0 8.7886e-05
20530.0 8.7995e-05
20550.0 8.8266e-05
20570.0 8.8662e-05
20590.0 8.9197e-05
20610.0 8.9845e-05
20630.0 9.0559e-05
20650.0 9.1357e-05
20670.0 9.227e-05
20690.0 9.32e-05
20710.0 9.4162e-05
20730.0 9.52e-05
20750.0 9.6284e-05
20770.0 9.7349e-05
20790.0 9.8468e-05
20810.0 9.9651e-05
20830.0 0.00010083
20850.0 0.00010201
20870.0 0.00010328
20890.0 0.00010457
20910.0 0.00010582
20930.0 0.00010711
20950.0 0.00010845
20970.0 0.00010975
20990.0 0.00011104
21010.0 0.0001124
21030.0 0.00011372
21050.0 0.00011498
21070.0 0.00011625
21090.0 0.00011751
21110.0 0.00011867
21130.0 0.00011975
21150.0 0.0001208
21170.0 0.00012175
21190.0 0.00012257
21210.0 0.00012331
21230.0 0.00012392
21250.0 0.00012436
21270.0 0.00012463
21290.0 0.00012474
21310.0 0.00012464
21330.0 0.00012434
21350.0 0.00012383
21370.0 0.00012307
21390.0 0.00012211
21410.0 0.00012093
21430.0 0.00011943
21450.0 0.00011775
21470.0 0.00011593
21490.0 0.00011386
21510.0 0.00011159
21530.0 0.00010929
21550.0 0.00010688
21570.0 0.00010431
21590.0 0.00010177
21610.0 9.933e-05
21630.0 9.6882e-05
21650.0 9.449e-05
21670.0 9.2417e-05
21690.0 9.0506e-05
21710.0 8.8784e-05
21730.0 8.7374e-05
21750.0 8.6286e-05
21770.0 8.5457e-05
21790.0 8.498e-05
21810.0 8.4848e-05
21830.0 8.5036e-05
21850.0 8.5568e-05
21870.0 8.6397e-05
21890.0 8.7468e-05
21910.0 8.8841e-05
21930.0 9.0452e-05
21950.0 9.2197e-05
21970.0 9.413e-05
21990.0 9.6301e-05
22010.0 9.8469e-05
22030.0 0.00010067
22050.0 0.00010298
22070.0 0.00010531
22090.0 0.00010751
22110.0 0.00010973
22130.0 0.00011195
22150.0 0.00011402
22170.0 0.00011597
22190.0 0.00011791
22210.0 0.0001197
22230.0 0.00012129
22250.0 0.00012278
22270.0 0.00012415
22290.0 0.00012533
22310.0 0.00012634
22330.0 0.00012722
22350.0 0.00012791
22370.0 0.00012839
22390.0 0.00012869
22410.0 0.00012879
22430.0 0.00012867
22450.0 0.00012834
22470.0 0.00012776
22490.0 0.00012696
22510.0 0.00012596
22530.0 0.00012467
22550.0 0.00012311
22570.0 0.00012138
22590.0 0.00011943
22610.0 0.00011718
22630.0 0.00011475
22650.0 0.00011224
22670.0 0.00010946
22690.0 0.00010649
22710.0 0.0001035
22730.0 0.00010042
22750.0 9.7075e-05
22770.0 9.3807e-05
22790.0 9.0617e-05
22810.0 8.7342e-05
22830.0 8.4075e-05
22850.0 8.1017e-05
22870.0 7.8019e-05
22890.0 7.5036e-05
22910.0 7.2288e-05
22930.0 6.977e-05
22950.0 6.7371e-05
