#lamb flux
1010.0 0.0001463
1030.0 0.00018552
1050.0 0.00023028
1070.0 0.00027984
1090.0 0.00033453
1110.0 0.00038807
1130.0 0.00043838
1150.0 0.00048669
1170.0 0.00053108
1190.0 0.00056596
1210.0 0.00059459
1230.0 0.00061746
1250.0 0.00063173
1270.0 0.0006374
1290.0 0.00063859
1310.0 0.0006332
1330.0 0.00062064
1350.0 0.00060545
1370.0 0.00059424
1390.0 0.00057728
1410.0 0.00055572
1430.0 0.00053237
1450.0 0.00050695
1470.0 0.00047974
1490.0 0.00045248
1510.0 0.00042572
1530.0 0.00039813
1550.0 0.00037187
1570.0 0.00034775
1590.0 0.0003268
1610.0 0.00031117
1630.0 0.00029817
1650.0 0.00028759
1670.0 0.0002789
1690.0 0.00027229
1710.0 0.00026814
1730.0 0.00026595
1750.0 0.00026357
1770.0 0.00026315
1790.0 0.00026464
1810.0 0.00026771
1830.0 0.00027229
1850.0 0.00027474
1870.0 0.00027942
1890.0 0.00028567
1910.0 0.0002939
1930.0 0.00030425
1950.0 0.00031641
1970.0 0.00033077
1990.0 0.00034782
2010.0 0.00036744
2030.0 0.0003897
2050.0 0.00041531
2070.0 0.00044457
2090.0 0.00047707
2110.0 0.00051351
2130.0 0.00055449
2150.0 0.00059986
2170.0 0.00064958
2190.0 0.0007047
2210.0 0.00076514
2230.0 0.00083046
2250.0 0.00090114
2270.0 0.0009779
2290.0 0.0010597
2310.0 0.001146
2330.0 0.0012377
2350.0 0.0013343
2370.0 0.0014341
2390.0 0.0015374
2410.0 0.0016441
2430.0 0.0017512
2450.0 0.0018574
2470.0 0.0019619
2490.0 0.0020625
2510.0 0.0021576
2530.0 0.0022494
2550.0 0.0023426
2570.0 0.0024455
2590.0 0.0025699
2610.0 0.002742
2630.0 0.0029838
2650.0 0.0033051
2670.0 0.0037319
2690.0 0.0042871
2710.0 0.0049382
2730.0 0.0056622
2750.0 0.0064822
2770.0 0.0073301
2790.0 0.0081419
2810.0 0.0089186
2830.0 0.0096535
2850.0 0.010263
2870.0 0.010785
2890.0 0.011253
2910.0 0.011664
2930.0 0.012023
2950.0 0.012371
2970.0 0.012711
2990.0 0.013033
3010.0 0.013345
3030.0 0.013666
3050.0 0.013982
3070.0 0.014271
3090.0 0.014555
3110.0 0.01482
3130.0 0.015042
3150.0 0.015221
3170.0 0.01536
3190.0 0.015451
3210.0 0.015515
3230.0 0.015582
3250.0 0.015683
3270.0 0.015841
3290.0 0.016079
3310.0 0.016423
3330.0 0.016849
3350.0 0.017326
3370.0 0.01786
3390.0 0.01842
3410.0 0.018942
3430.0 0.019423
3450.0 0.019816
3470.0 0.020975
3490.0 0.021015
3510.0 0.018659
3530.0 0.019136
3550.0 0.023074
3570.0 0.026183
3590.0 0.028217
3610.0 0.030241
3630.0 0.031454
3650.0 0.028424
3670.0 0.025611
3690.0 0.025911
3710.0 0.028602
3730.0 0.032232
3750.0 0.031552
3770.0 0.031598
3790.0 0.032864
3810.0 0.031021
3830.0 0.027333
3850.0 0.024526
3870.0 0.023727
3890.0 0.026605
3910.0 0.028898
3930.0 0.029724
3950.0 0.030288
3970.0 0.031249
3990.0 0.032651
4010.0 0.032747
4030.0 0.030729
4050.0 0.027961
4070.0 0.027806
4090.0 0.029494
4110.0 0.031221
4130.0 0.030455
4150.0 0.029652
4170.0 0.029362
4190.0 0.030564
4210.0 0.030208
4230.0 0.027835
4250.0 0.024853
4270.0 0.022454
4290.0 0.020509
4310.0 0.01903
4330.0 0.019021
4350.0 0.020695
4370.0 0.021275
4390.0 0.021989
4410.0 0.022734
4430.0 0.022993
4450.0 0.022604
4470.0 0.022095
4490.0 0.023022
4510.0 0.023603
4530.0 0.024106
4550.0 0.024529
4570.0 0.02483
4590.0 0.025462
4610.0 0.025794
4630.0 0.026517
4650.0 0.027465
4670.0 0.026617
4690.0 0.024844
4710.0 0.022686
4730.0 0.021794
4750.0 0.021464
4770.0 0.020793
4790.0 0.019944
4810.0 0.019163
4830.0 0.019811
4850.0 0.020795
4870.0 0.018611
4890.0 0.018154
4910.0 0.017512
4930.0 0.017901
4950.0 0.016525
4970.0 0.015087
4990.0 0.014712
5010.0 0.013712
5030.0 0.012821
5050.0 0.012958
5070.0 0.013991
5090.0 0.01451
5110.0 0.016063
5130.0 0.016547
5150.0 0.017095
5170.0 0.017639
5190.0 0.017214
5210.0 0.017478
5230.0 0.017828
5250.0 0.017921
5270.0 0.018324
5290.0 0.018069
5310.0 0.01768
5330.0 0.016752
5350.0 0.015849
5370.0 0.014895
5390.0 0.015174
5410.0 0.015371
5430.0 0.015432
5450.0 0.015516
5470.0 0.015327
5490.0 0.015102
5510.0 0.01486
5530.0 0.014488
5550.0 0.014456
5570.0 0.014637
5590.0 0.014844
5610.0 0.014818
5630.0 0.014499
5650.0 0.014331
5670.0 0.01395
5690.0 0.013561
5710.0 0.013106
5730.0 0.012961
5750.0 0.01287
5770.0 0.01255
5790.0 0.012496
5810.0 0.012406
5830.0 0.012677
5850.0 0.012859
5870.0 0.01293
5890.0 0.01275
5910.0 0.012735
5930.0 0.012652
5950.0 0.012686
5970.0 0.012478
5990.0 0.012245
6010.0 0.012416
6030.0 0.012575
6050.0 0.012333
6070.0 0.012238
6090.0 0.012145
6110.0 0.012241
6130.0 0.012234
6150.0 0.011889
6170.0 0.011064
6190.0 0.01023
6210.0 0.0097853
6230.0 0.0096503
6250.0 0.0097191
6270.0 0.01004
6290.0 0.010375
6310.0 0.010847
6330.0 0.011159
6350.0 0.011279
6370.0 0.011319
6390.0 0.011108
6410.0 0.010856
6430.0 0.010518
6450.0 0.010281
6470.0 0.010174
6490.0 0.010168
6510.0 0.010127
6530.0 0.010117
6550.0 0.0099378
6570.0 0.0096797
6590.0 0.009625
6610.0 0.0094572
6630.0 0.0092588
6650.0 0.009053
6670.0 0.0087791
6690.0 0.0085708
6710.0 0.0083217
6730.0 0.0082238
6750.0 0.0080894
6770.0 0.0079642
6790.0 0.0079986
6810.0 0.0078818
6830.0 0.0077419
6850.0 0.0076587
6870.0 0.0075085
6890.0 0.0074284
6910.0 0.007369
6930.0 0.0072487
6950.0 0.0072105
6970.0 0.0070929
6990.0 0.0070955
7010.0 0.0069982
7030.0 0.0069813
7050.0 0.006891
7070.0 0.0067765
7090.0 0.0066577
7110.0 0.0064468
7130.0 0.0064289
7150.0 0.0065158
7170.0 0.0065904
7190.0 0.0066289
7210.0 0.006695
7230.0 0.0068065
7250.0 0.0068
7270.0 0.0067436
7290.0 0.0066795
7310.0 0.0065234
7330.0 0.0062243
7350.0 0.0061562
7370.0 0.0061152
7390.0 0.0060081
7410.0 0.0059877
7430.0 0.0059402
7450.0 0.0058538
7470.0 0.0057968
7490.0 0.0057021
7510.0 0.0054291
7530.0 0.0054634
7550.0 0.0055252
7570.0 0.0052981
7590.0 0.0049841
7610.0 0.0050311
7630.0 0.0050406
7650.0 0.0050113
7670.0 0.0050624
7690.0 0.0050599
7710.0 0.0051267
7730.0 0.0052647
7750.0 0.0055137
7770.0 0.0057327
7790.0 0.0059488
7810.0 0.0061437
7830.0 0.0063506
7850.0 0.0064117
7870.0 0.0064497
7890.0 0.0063731
7910.0 0.0061953
7930.0 0.0060588
7950.0 0.0059528
7970.0 0.0059082
7990.0 0.0058952
8010.0 0.0053585
8030.0 0.0053262
8050.0 0.0052205
8070.0 0.0051707
8090.0 0.0050253
8110.0 0.0050638
8130.0 0.0051267
8150.0 0.0052155
8170.0 0.0051635
8190.0 0.0052422
8210.0 0.0051719
8230.0 0.0049088
8250.0 0.0048231
8270.0 0.0047391
8290.0 0.0046596
8310.0 0.004489
8330.0 0.0045434
8350.0 0.0045219
8370.0 0.0045272
8390.0 0.0046081
8410.0 0.004584
8430.0 0.0046476
8450.0 0.0047058
8470.0 0.0047407
8490.0 0.0047985
8510.0 0.0047146
8530.0 0.0045488
8550.0 0.0045863
8570.0 0.0045907
8590.0 0.0044511
8610.0 0.0045464
8630.0 0.0044839
8650.0 0.0043948
8670.0 0.0043657
8690.0 0.0043582
8710.0 0.0041821
8730.0 0.0042455
8750.0 0.0041029
8770.0 0.0040832
8790.0 0.0039687
8810.0 0.0039206
8830.0 0.003918
8850.0 0.0037407
8870.0 0.0035514
8890.0 0.0035055
8910.0 0.0033037
8930.0 0.0030502
8950.0 0.0030496
8970.0 0.0029454
8990.0 0.0029241
9010.0 0.0028985
9030.0 0.0028786
9050.0 0.0028581
9070.0 0.0028375
9090.0 0.0028167
9110.0 0.0027957
9130.0 0.0027747
9150.0 0.0027539
9170.0 0.002733
9190.0 0.002712
9210.0 0.0026909
9230.0 0.0026698
9250.0 0.0026487
9270.0 0.0026275
9290.0 0.0026064
9310.0 0.0025853
9330.0 0.0025642
9350.0 0.0025432
9370.0 0.0025222
9390.0 0.0025012
9410.0 0.0024803
9430.0 0.0024595
9450.0 0.0024387
9470.0 0.0024195
9490.0 0.0023996
9510.0 0.0023782
9530.0 0.0023572
9550.0 0.0023365
9570.0 0.0023161
9590.0 0.0022959
9610.0 0.0022759
9630.0 0.0022561
9650.0 0.0022364
9670.0 0.0022167
9690.0 0.0021973
9710.0 0.0021781
9730.0 0.0021589
9750.0 0.0021399
9770.0 0.0021212
9790.0 0.0021025
9810.0 0.002084
9830.0 0.0020654
9850.0 0.0020443
9870.0 0.0020258
9890.0 0.0020096
9910.0 0.0019931
9930.0 0.0019731
9950.0 0.0019559
9970.0 0.0019403
9990.0 0.0019242
10010.0 0.0019081
10030.0 0.0018919
10050.0 0.0018758
10070.0 0.00186
10090.0 0.0018444
10110.0 0.0018285
10130.0 0.0018128
10150.0 0.0017976
10170.0 0.0017826
10190.0 0.0017674
10210.0 0.0017528
10230.0 0.0017384
10250.0 0.001724
10270.0 0.0017098
10290.0 0.001696
10310.0 0.0016822
10330.0 0.0016683
10350.0 0.001655
10370.0 0.0016419
10390.0 0.0016287
10410.0 0.0016157
10430.0 0.001603
10450.0 0.0015907
10470.0 0.0015783
10490.0 0.0015663
10510.0 0.0015546
10530.0 0.0015425
10550.0 0.0015309
10570.0 0.0015196
10590.0 0.0015084
10610.0 0.0014971
10630.0 0.0014864
10650.0 0.0014757
10670.0 0.0014649
10690.0 0.0014545
10710.0 0.0014443
10730.0 0.0014341
10750.0 0.0014239
10770.0 0.0014143
10790.0 0.0014047
10810.0 0.001395
10830.0 0.0013856
10850.0 0.0013767
10870.0 0.0013674
10890.0 0.0013584
10910.0 0.0013498
10930.0 0.0013414
10950.0 0.0013331
10970.0 0.0013253
10990.0 0.001318
11010.0 0.0013951
11030.0 0.0013897
11050.0 0.0013845
11070.0 0.001379
11090.0 0.0013729
11110.0 0.0013667
11130.0 0.0013602
11150.0 0.0013529
11170.0 0.0013453
11190.0 0.0013376
11210.0 0.0013296
11230.0 0.0013212
11250.0 0.001313
11270.0 0.001305
11290.0 0.0012968
11310.0 0.0012889
11330.0 0.0012818
11350.0 0.0012748
11370.0 0.0012681
11390.0 0.001262
11410.0 0.0012564
11430.0 0.0012506
11450.0 0.0012453
11470.0 0.0012403
11490.0 0.0012352
11510.0 0.0012299
11530.0 0.0012248
11550.0 0.0012196
11570.0 0.0012139
11590.0 0.0012081
11610.0 0.0012023
11630.0 0.001196
11650.0 0.0011893
11670.0 0.0011829
11690.0 0.0011765
11710.0 0.0011697
11730.0 0.0011631
11750.0 0.001157
11770.0 0.0011506
11790.0 0.0011443
11810.0 0.0011384
11830.0 0.0011327
11850.0 0.0011266
11870.0 0.0011211
11890.0 0.0011159
11910.0 0.0011108
11930.0 0.0011059
11950.0 0.0011015
11970.0 0.0010975
11990.0 0.0010937
12010.0 0.0010906
12030.0 0.0010882
12050.0 0.0010862
12070.0 0.0010849
12090.0 0.0010846
12110.0 0.0010849
12130.0 0.0010858
12150.0 0.0010874
12170.0 0.0010897
12190.0 0.0010924
12210.0 0.0010957
12230.0 0.0010994
12250.0 0.0011033
12270.0 0.0011075
12290.0 0.0011117
12310.0 0.0011159
12330.0 0.0011202
12350.0 0.0011243
12370.0 0.0011281
12390.0 0.0011317
12410.0 0.0011349
12430.0 0.0011377
12450.0 0.0011399
12470.0 0.0011415
12490.0 0.0011424
12510.0 0.0011427
12530.0 0.0011421
12550.0 0.0011405
12570.0 0.0011382
12590.0 0.0011351
12610.0 0.0011308
12630.0 0.0011256
12650.0 0.0011201
12670.0 0.0011136
12690.0 0.0011062
12710.0 0.0010986
12730.0 0.0010906
12750.0 0.0010816
12770.0 0.0010727
12790.0 0.0010639
12810.0 0.0010547
12830.0 0.0010453
12850.0 0.0010366
12870.0 0.0010281
12890.0 0.0010194
12910.0 0.0010113
12930.0 0.0010039
12950.0 0.00099648
12970.0 0.00098935
12990.0 0.00098305
13010.0 0.00097711
13030.0 0.00097129
13050.0 0.00096592
13070.0 0.00096106
13090.0 0.00095618
13110.0 0.00095146
13130.0 0.00094711
13150.0 0.00094288
13170.0 0.00093852
13190.0 0.00093445
13210.0 0.00093062
13230.0 0.00092671
13250.0 0.00092281
13270.0 0.00091913
13290.0 0.0009154
13310.0 0.00091144
13330.0 0.00090755
13350.0 0.00090364
13370.0 0.00089943
13390.0 0.00089494
13410.0 0.00089054
13430.0 0.00088583
13450.0 0.00088073
13470.0 0.00087552
13490.0 0.00087022
13510.0 0.00086435
13530.0 0.00085832
13550.0 0.00085233
13570.0 0.00084607
13590.0 0.00083945
13610.0 0.00083289
13630.0 0.00082637
13650.0 0.00081944
13670.0 0.00081245
13690.0 0.00080558
13710.0 0.00079853
13730.0 0.00079106
13750.0 0.00078393
13770.0 0.0007768
13790.0 0.00076941
13810.0 0.00076202
13830.0 0.00075492
13850.0 0.00074761
13870.0 0.00074018
13890.0 0.00073302
13910.0 0.00072597
13930.0 0.00071872
13950.0 0.00071159
13970.0 0.00070486
13990.0 0.00069804
14010.0 0.00069121
14030.0 0.00068466
14050.0 0.00067825
14070.0 0.00067161
14090.0 0.0006652
14110.0 0.00065902
14130.0 0.00065276
14150.0 0.00064645
14170.0 0.00064044
14190.0 0.00063448
14210.0 0.00062839
14230.0 0.00062245
14250.0 0.00061672
14270.0 0.00061087
14290.0 0.00060504
14310.0 0.00059955
14330.0 0.00059415
14350.0 0.00058875
14370.0 0.00058357
14390.0 0.00057868
14410.0 0.00057377
14430.0 0.000569
14450.0 0.00056449
14470.0 0.0005601
14490.0 0.00055567
14510.0 0.00055147
14530.0 0.00054742
14550.0 0.00054336
14570.0 0.00053933
14590.0 0.00053546
14610.0 0.00053158
14630.0 0.00052763
14650.0 0.00052379
14670.0 0.00052002
14690.0 0.00051619
14710.0 0.00051237
14730.0 0.00050872
14750.0 0.00050506
14770.0 0.00050139
14790.0 0.00049783
14810.0 0.00049437
14830.0 0.00049083
14850.0 0.00048738
14870.0 0.00048405
14890.0 0.00048073
14910.0 0.00047741
14930.0 0.00047421
14950.0 0.00047111
14970.0 0.00046802
14990.0 0.00046504
15010.0 0.00046221
15030.0 0.00045946
15050.0 0.00045674
15070.0 0.00045418
15090.0 0.00045168
15110.0 0.00044919
15130.0 0.00044673
15150.0 0.00044433
15170.0 0.00044191
15190.0 0.00043947
15210.0 0.00043709
15230.0 0.00043471
15250.0 0.0004323
15270.0 0.00042991
15290.0 0.00042758
15310.0 0.00042522
15330.0 0.00042286
15350.0 0.00042054
15370.0 0.00041823
15390.0 0.00041588
15410.0 0.00041357
15430.0 0.00041129
15450.0 0.000409
15470.0 0.0004067
15490.0 0.00040446
15510.0 0.00040223
15530.0 0.00039997
15550.0 0.00039775
15570.0 0.00039556
15590.0 0.00039334
15610.0 0.00039113
15630.0 0.00038897
15650.0 0.00038682
15670.0 0.00038465
15690.0 0.00038252
15710.0 0.00038043
15730.0 0.00037831
15750.0 0.0003762
15770.0 0.00037414
15790.0 0.00037208
15810.0 0.00037
15830.0 0.00036796
15850.0 0.00036597
15870.0 0.00036395
15890.0 0.00036195
15910.0 0.00035999
15930.0 0.00035804
15950.0 0.00035606
15970.0 0.00035413
15990.0 0.00035223
16010.0 0.00035031
16030.0 0.0003484
16050.0 0.00034656
16070.0 0.00034471
16090.0 0.00034285
16110.0 0.00034103
16130.0 0.00033924
16150.0 0.00033741
16170.0 0.00033562
16190.0 0.00033387
16210.0 0.00033212
16230.0 0.00033036
16250.0 0.00032865
16270.0 0.00032696
16290.0 0.00032525
16310.0 0.00032357
16330.0 0.00032193
16350.0 0.00032028
16370.0 0.00031861
16390.0 0.000317
16410.0 0.00031542
16430.0 0.00031381
16450.0 0.00031223
16470.0 0.0003107
16490.0 0.00030915
16510.0 0.0003076
16530.0 0.00030609
16550.0 0.0003046
16570.0 0.00030309
16590.0 0.0003016
16610.0 0.00030017
16630.0 0.00029872
16650.0 0.00029727
16670.0 0.00029586
16690.0 0.00029447
16710.0 0.00029305
16730.0 0.00029167
16750.0 0.00029032
16770.0 0.00028896
16790.0 0.0002876
16810.0 0.00028629
16830.0 0.00028498
16850.0 0.00028367
16870.0 0.00028238
16890.0 0.00028112
16910.0 0.00027984
16930.0 0.00027856
16950.0 0.00027734
16970.0 0.00027612
16990.0 0.00027489
17010.0 0.00027368
17030.0 0.00027251
17050.0 0.00027132
17070.0 0.00027013
17090.0 0.00026899
17110.0 0.00026784
17130.0 0.00026668
17150.0 0.00026555
17170.0 0.00026446
17190.0 0.00026334
17210.0 0.00026224
17230.0 0.00026117
17250.0 0.0002601
17270.0 0.00025901
17290.0 0.00025796
17310.0 0.00025693
17330.0 0.00025588
17350.0 0.00025483
17370.0 0.00025384
17390.0 0.00025283
17410.0 0.00025182
17430.0 0.00025083
17450.0 0.00024987
17470.0 0.00024887
17490.0 0.0002479
17510.0 0.00024696
17530.0 0.00024601
17550.0 0.00024505
17570.0 0.00024413
17590.0 0.00024322
17610.0 0.00024229
17630.0 0.00024137
17650.0 0.00024049
17670.0 0.00023959
17690.0 0.00023867
17710.0 0.0002378
17730.0 0.00023694
17750.0 0.00023606
17770.0 0.0002352
17790.0 0.00023437
17810.0 0.00023351
17830.0 0.00023265
17850.0 0.00023182
17870.0 0.000231
17890.0 0.00023016
17910.0 0.00022933
17930.0 0.00022854
17950.0 0.00022773
17970.0 0.00022691
17990.0 0.00022613
18010.0 0.00022535
18030.0 0.00022453
18050.0 0.00022375
18070.0 0.00022298
18090.0 0.0002222
18110.0 0.00022141
18130.0 0.00022066
18150.0 0.00021991
18170.0 0.00021914
18190.0 0.00021838
18210.0 0.00021765
18230.0 0.00021689
18250.0 0.00021612
18270.0 0.0002154
18290.0 0.00021467
18310.0 0.00021392
18330.0 0.00021319
18350.0 0.00021248
18370.0 0.00021174
18390.0 0.00021101
18410.0 0.0002103
18430.0 0.00020959
18450.0 0.00020884
18470.0 0.00020813
18490.0 0.00020744
18510.0 0.00020672
18530.0 0.000206
18550.0 0.00020532
18570.0 0.00020461
18590.0 0.00020388
18610.0 0.00020319
18630.0 0.0002025
18650.0 0.00020179
18670.0 0.00020107
18690.0 0.0002004
18710.0 0.0001997
18730.0 0.00019899
18750.0 0.0001983
18770.0 0.00019763
18790.0 0.0001969
18810.0 0.0001962
18830.0 0.00019553
18850.0 0.00019483
18870.0 0.00019412
18890.0 0.00019344
18910.0 0.00019276
18930.0 0.00019205
18950.0 0.00019135
18970.0 0.00019068
18990.0 0.00018998
19010.0 0.00018925
19030.0 0.00018857
19050.0 0.00018789
19070.0 0.00018718
19090.0 0.00018648
19110.0 0.0001858
19130.0 0.00018509
19150.0 0.00018437
19170.0 0.00018368
19190.0 0.00018299
19210.0 0.00018226
19230.0 0.00018155
19250.0 0.00018087
19270.0 0.00018015
19290.0 0.00017943
19310.0 0.00017874
19330.0 0.00017803
19350.0 0.00017729
19370.0 0.00017658
19390.0 0.00017587
19410.0 0.00017514
19430.0 0.00017441
19450.0 0.0001737
19470.0 0.00017299
19490.0 0.00017224
19510.0 0.00017152
19530.0 0.0001708
19550.0 0.00017005
19570.0 0.0001693
19590.0 0.00016858
19610.0 0.00016784
19630.0 0.00016708
19650.0 0.00016635
19670.0 0.00016562
19690.0 0.00016486
19710.0 0.00016409
19730.0 0.00016336
19750.0 0.0001626
19770.0 0.00016181
19790.0 0.00016106
19810.0 0.00016032
19830.0 0.00015954
19850.0 0.00015877
19870.0 0.00015802
19890.0 0.00015725
19910.0 0.00015645
19930.0 0.00015569
19950.0 0.00015494
19970.0 0.00015417
19990.0 0.00015341
20010.0 0.0001527
20030.0 0.00015197
20050.0 0.00015124
20070.0 0.00015053
20090.0 0.00014983
20110.0 0.00014909
20130.0 0.00014836
20150.0 0.00014765
20170.0 0.00014692
20190.0 0.00014617
20210.0 0.00014544
20230.0 0.00014472
20250.0 0.00014397
20270.0 0.00014324
20290.0 0.00014254
20310.0 0.00014184
20330.0 0.00014113
20350.0 0.00014048
20370.0 0.00013984
20390.0 0.00013921
20410.0 0.00013862
20430.0 0.00013807
20450.0 0.00013752
20470.0 0.000137
20490.0 0.00013654
20510.0 0.0001361
20530.0 0.00013569
20550.0 0.00013532
20570.0 0.000135
20590.0 0.00013471
20610.0 0.00013446
20630.0 0.00013426
20650.0 0.00013409
20670.0 0.00013397
20690.0 0.00013388
20710.0 0.00013383
20730.0 0.00013381
20750.0 0.00013382
20770.0 0.00013384
20790.0 0.00013387
20810.0 0.0001339
20830.0 0.00013393
20850.0 0.00013394
20870.0 0.00013393
20890.0 0.00013389
20910.0 0.0001338
20930.0 0.00013366
20950.0 0.00013347
20970.0 0.00013322
20990.0 0.00013291
21010.0 0.00013253
21030.0 0.00013208
21050.0 0.00013158
21070.0 0.00013101
21090.0 0.00013037
21110.0 0.00012969
21130.0 0.00012898
21150.0 0.0001282
21170.0 0.0001274
21190.0 0.00012659
21210.0 0.00012574
21230.0 0.00012486
21250.0 0.000124
21270.0 0.00012314
21290.0 0.00012226
21310.0 0.00012139
21330.0 0.00012055
21350.0 0.00011969
21370.0 0.00011882
21390.0 0.00011798
21410.0 0.00011714
21430.0 0.00011625
21450.0 0.00011539
21470.0 0.00011453
21490.0 0.00011364
21510.0 0.00011273
21530.0 0.00011184
21550.0 0.00011092
21570.0 0.00010996
21590.0 0.00010901
21610.0 0.00010807
21630.0 0.00010709
21650.0 0.00010608
21670.0 0.00010512
21690.0 0.00010415
21710.0 0.00010316
21730.0 0.00010219
21750.0 0.00010125
21770.0 0.00010028
21790.0 9.9322e-05
21810.0 9.8406e-05
21830.0 9.7497e-05
21850.0 9.658e-05
21870.0 9.5695e-05
21890.0 9.4843e-05
21910.0 9.3977e-05
21930.0 9.3121e-05
21950.0 9.2296e-05
21970.0 9.1468e-05
21990.0 9.0616e-05
22010.0 8.9794e-05
22030.0 8.898e-05
22050.0 8.8143e-05
22070.0 8.73e-05
22090.0 8.6478e-05
22110.0 8.5634e-05
22130.0 8.4764e-05
22150.0 8.3904e-05
22170.0 8.3044e-05
22190.0 8.2145e-05
22210.0 8.1239e-05
22230.0 8.036e-05
22250.0 7.9458e-05
22270.0 7.8538e-05
22290.0 7.7637e-05
22310.0 7.6744e-05
22330.0 7.5817e-05
22350.0 7.4905e-05
22370.0 7.402e-05
22390.0 7.3126e-05
22410.0 7.2221e-05
22430.0 7.1362e-05
22450.0 7.0518e-05
22470.0 6.9666e-05
22490.0 6.8839e-05
22510.0 6.8051e-05
22530.0 6.7258e-05
22550.0 6.6477e-05
22570.0 6.5741e-05
22590.0 6.5026e-05
22610.0 6.4316e-05
22630.0 6.3634e-05
22650.0 6.2991e-05
22670.0 6.2351e-05
22690.0 6.1725e-05
22710.0 6.1132e-05
22730.0 6.0556e-05
22750.0 5.9975e-05
22770.0 5.9424e-05
22790.0 5.8899e-05
22810.0 5.8379e-05
22830.0 5.7872e-05
22850.0 5.7394e-05
22870.0 5.6929e-05
22890.0 5.6471e-05
22910.0 5.604e-05
22930.0 5.5633e-05
22950.0 5.524e-05
22970.0 5.4865e-05
22990.0 5.4527e-05
23010.0 5.4208e-05
23030.0 5.3912e-05
23050.0 5.3645e-05
23070.0 5.3406e-05
23090.0 5.3192e-05
23110.0 5.3009e-05
23130.0 5.2855e-05
23150.0 5.273e-05
23170.0 5.2636e-05
23190.0 5.2568e-05
23210.0 5.2522e-05
23230.0 5.2505e-05
23250.0 5.251e-05
23270.0 5.2527e-05
23290.0 5.2561e-05
23310.0 5.2615e-05
23330.0 5.2664e-05
23350.0 5.271e-05
23370.0 5.2757e-05
