#lamb flux
1010.0 6.8888e-07
1030.0 7.5839e-07
1050.0 8.3833e-07
1070.0 9.2833e-07
1090.0 1.0306e-06
1110.0 1.1354e-06
1130.0 1.2409e-06
1150.0 1.3515e-06
1170.0 1.4655e-06
1190.0 1.5736e-06
1210.0 1.6832e-06
1230.0 1.7964e-06
1250.0 1.9074e-06
1270.0 2.0151e-06
1290.0 2.1289e-06
1310.0 2.2427e-06
1330.0 2.3518e-06
1350.0 2.4621e-06
1370.0 2.576e-06
1390.0 2.687e-06
1410.0 2.7947e-06
1430.0 2.9073e-06
1450.0 3.0199e-06
1470.0 3.1287e-06
1490.0 3.2386e-06
1510.0 3.3547e-06
1530.0 3.4647e-06
1550.0 3.5732e-06
1570.0 3.6853e-06
1590.0 3.7976e-06
1610.0 3.9047e-06
1630.0 4.0152e-06
1650.0 4.1284e-06
1670.0 4.2379e-06
1690.0 4.3458e-06
1710.0 4.4578e-06
1730.0 4.5702e-06
1750.0 4.6757e-06
1770.0 4.7841e-06
1790.0 4.8945e-06
1810.0 5.0009e-06
1830.0 5.1051e-06
1850.0 5.2155e-06
1870.0 5.3225e-06
1890.0 5.4252e-06
1910.0 5.5294e-06
1930.0 5.6355e-06
1950.0 5.7357e-06
1970.0 5.8338e-06
1990.0 5.9348e-06
2010.0 6.0329e-06
2030.0 6.1258e-06
2050.0 6.2205e-06
2070.0 6.3163e-06
2090.0 6.4041e-06
2110.0 6.4897e-06
2130.0 6.5764e-06
2150.0 6.6588e-06
2170.0 6.7343e-06
2190.0 6.8111e-06
2210.0 6.8856e-06
2230.0 6.9531e-06
2250.0 7.017e-06
2270.0 7.0822e-06
2290.0 7.1407e-06
2310.0 7.1917e-06
2330.0 7.2427e-06
2350.0 7.2921e-06
2370.0 7.3366e-06
2390.0 7.3843e-06
2410.0 7.4453e-06
2430.0 7.5176e-06
2450.0 7.6091e-06
2470.0 7.7375e-06
2490.0 7.9104e-06
2510.0 8.1114e-06
2530.0 8.367e-06
2550.0 8.7096e-06
2570.0 9.161e-06
2590.0 9.7741e-06
2610.0 1.0725e-05
2630.0 1.2081e-05
2650.0 1.3819e-05
2670.0 1.601e-05
2690.0 1.8618e-05
2710.0 2.1286e-05
2730.0 2.3797e-05
2750.0 2.6151e-05
2770.0 2.8055e-05
2790.0 2.9414e-05
2810.0 3.0353e-05
2830.0 3.0951e-05
2850.0 3.1195e-05
2870.0 3.1243e-05
2890.0 3.1181e-05
2910.0 3.1041e-05
2930.0 3.085e-05
2950.0 3.0652e-05
2970.0 3.0456e-05
2990.0 3.0255e-05
3010.0 0.00094737
3030.0 0.00094171
3050.0 0.00093614
3070.0 0.00093008
3090.0 0.00092361
3110.0 0.00091575
3130.0 0.00090542
3150.0 0.00089182
3170.0 0.00087325
3190.0 0.00085007
3210.0 0.00082376
3230.0 0.00079539
3250.0 0.0007667
3270.0 0.00074523
3290.0 0.00072899
3310.0 0.00072516
3330.0 0.00072972
3350.0 0.00074241
3370.0 0.00076315
3390.0 0.00079091
3410.0 0.00082208
3430.0 0.00085782
3450.0 0.00089955
3470.0 0.00094569
3490.0 0.00099535
3510.0 0.001052
3530.0 0.001114
3550.0 0.0011808
3570.0 0.0012547
3590.0 0.0013377
3610.0 0.0014307
3630.0 0.0015239
3650.0 0.001623
3670.0 0.0017126
3690.0 0.0017795
3710.0 0.0018132
3730.0 0.0017933
3750.0 0.0017201
3770.0 0.0017476
3790.0 0.001691
3810.0 0.0012878
3830.0 0.0012105
3850.0 0.0017503
3870.0 0.0016185
3890.0 0.001232
3910.0 0.0012871
3930.0 0.0016941
3950.0 0.0020077
3970.0 0.0023309
3990.0 0.001693
4010.0 0.0028473
4030.0 0.0026356
4050.0 0.0026246
4070.0 0.0030595
4090.0 0.002925
4110.0 0.0027134
4130.0 0.0034082
4150.0 0.0045223
4170.0 0.0035934
4190.0 0.0031509
4210.0 0.0035492
4230.0 0.0044372
4250.0 0.0052502
4270.0 0.0057101
4290.0 0.0051321
4310.0 0.0047274
4330.0 0.0047107
4350.0 0.0060616
4370.0 0.0073616
4390.0 0.0058592
4410.0 0.0033347
4430.0 0.0023719
4450.0 0.0021833
4470.0 0.0014618
4490.0 0.0024862
4510.0 0.0050346
4530.0 0.0061148
4550.0 0.0058745
4570.0 0.0053312
4590.0 0.0057723
4610.0 0.011225
4630.0 0.015628
4650.0 0.01468
4670.0 0.012937
4690.0 0.013478
4710.0 0.014161
4730.0 0.011417
4750.0 0.0072907
4770.0 0.0050961
4790.0 0.0057089
4810.0 0.0059653
4830.0 0.0059121
4850.0 0.0064578
4870.0 0.0085524
4890.0 0.0099209
4910.0 0.0076464
4930.0 0.0073783
4950.0 0.008511
4970.0 0.011442
4990.0 0.015403
5010.0 0.017657
5030.0 0.013962
5050.0 0.0084016
5070.0 0.0060025
5090.0 0.0046433
5110.0 0.004361
5130.0 0.0051707
5150.0 0.0049649
5170.0 0.004674
5190.0 0.0041919
5210.0 0.0045884
5230.0 0.005719
5250.0 0.0066826
5270.0 0.0062032
5290.0 0.0067496
5310.0 0.0090408
5330.0 0.0095555
5350.0 0.0094097
5370.0 0.010661
5390.0 0.013257
5410.0 0.011263
5430.0 0.0085068
5450.0 0.0085945
5470.0 0.010115
5490.0 0.012801
5510.0 0.015696
5530.0 0.018161
5550.0 0.016339
5570.0 0.014592
5590.0 0.011982
5610.0 0.01221
5630.0 0.013727
5650.0 0.012785
5670.0 0.011807
5690.0 0.0095478
5710.0 0.0097977
5730.0 0.0095538
5750.0 0.0050807
5770.0 0.0036982
5790.0 0.0046097
5810.0 0.0049553
5830.0 0.0076629
5850.0 0.0099303
5870.0 0.010534
5890.0 0.0099359
5910.0 0.0096132
5930.0 0.0093358
5950.0 0.0096815
5970.0 0.01199
5990.0 0.0098151
6010.0 0.0075101
6030.0 0.006089
6050.0 0.005426
6070.0 0.006532
6090.0 0.0074294
6110.0 0.0075518
6130.0 0.0068538
6150.0 0.0054061
6170.0 0.0043901
6190.0 0.0054853
6210.0 0.0085857
6230.0 0.012454
6250.0 0.013236
6270.0 0.010099
6290.0 0.0086228
6310.0 0.0065861
6330.0 0.0048128
6350.0 0.0047363
6370.0 0.0049817
6390.0 0.0060204
6410.0 0.0077232
6430.0 0.0093075
6450.0 0.011493
6470.0 0.012221
6490.0 0.014732
6510.0 0.016543
6530.0 0.016694
6550.0 0.015387
6570.0 0.01264
6590.0 0.012222
6610.0 0.010145
6630.0 0.01053
6650.0 0.010146
6670.0 0.0089927
6690.0 0.0071318
6710.0 0.0069215
6730.0 0.0033272
6750.0 0.0042231
6770.0 0.006397
6790.0 0.0084738
6810.0 0.0061681
6830.0 0.0063044
6850.0 0.0053317
6870.0 0.005052
6890.0 0.0043141
6910.0 0.0050888
6930.0 0.0047739
6950.0 0.0057079
6970.0 0.005847
6990.0 0.0064746
7010.0 0.0063713
7030.0 0.007109
7050.0 0.0061438
7070.0 0.0051881
7090.0 0.0054679
7110.0 0.0056722
7130.0 0.0064687
7150.0 0.0073678
7170.0 0.008216
7190.0 0.0086181
7210.0 0.0076108
7230.0 0.0076883
7250.0 0.0083446
7270.0 0.0091127
7290.0 0.011058
7310.0 0.011432
7330.0 0.010474
7350.0 0.0093403
7370.0 0.0069227
7390.0 0.007254
7410.0 0.0089853
7430.0 0.010209
7450.0 0.010978
7470.0 0.010199
7490.0 0.0086148
7510.0 0.013772
7530.0 0.012334
7550.0 0.011433
7570.0 0.0076941
7590.0 0.0033869
7610.0 0.0023953
7630.0 0.0036157
7650.0 0.0048495
7670.0 0.0077073
7690.0 0.0086638
7710.0 0.007801
7730.0 0.0076539
7750.0 0.0099854
7770.0 0.010216
7790.0 0.0094072
7810.0 0.0076998
7830.0 0.0082633
7850.0 0.0089939
7870.0 0.0088074
7890.0 0.0069289
7910.0 0.0046345
7930.0 0.0047253
7950.0 0.004249
7970.0 0.0035921
7990.0 0.0032463
8010.0 0.0026666
8030.0 0.0025075
8050.0 0.0026692
8070.0 0.0028888
8090.0 0.0033705
8110.0 0.0031551
8130.0 0.0020738
8150.0 0.0020692
8170.0 0.0013619
8190.0 0.0010149
8210.0 0.0018752
8230.0 0.0021916
8250.0 0.001159
8270.0 0.00096357
8290.0 0.0013515
8310.0 0.0011053
8330.0 0.00068214
8350.0 0.00054157
8370.0 0.00021955
8390.0 0.00059361
8410.0 0.00070809
8430.0 0.00088164
8450.0 0.00098827
8470.0 0.0015074
8490.0 0.0012677
8510.0 0.0010373
8530.0 0.00065014
8550.0 0.0016836
8570.0 0.002531
8590.0 0.0019427
8610.0 0.0027783
8630.0 0.0030509
8650.0 0.0019446
8670.0 0.0025743
8690.0 0.0036546
8710.0 0.003201
8730.0 0.0033814
8750.0 0.0027432
8770.0 0.0024824
8790.0 0.0027035
8810.0 0.0028602
8830.0 0.0017324
8850.0 0.00092908
8870.0 0.00070255
8890.0 0.0013093
8910.0 0.0019253
8930.0 0.002456
8950.0 0.0027758
8970.0 0.0027015
8990.0 0.0021392
9010.0 0.0015814
9030.0 0.0012775
9050.0 0.0013263
9070.0 0.0013736
9090.0 0.0014112
9110.0 0.0014554
9130.0 0.0014875
9150.0 0.0015109
9170.0 0.0015357
9190.0 0.0015623
9210.0 0.0015902
9230.0 0.0016198
9250.0 0.0016498
9270.0 0.0016808
9290.0 0.0017127
9310.0 0.0017446
9330.0 0.0017772
9350.0 0.0018108
9370.0 0.0018447
9390.0 0.0018788
9410.0 0.0019138
9430.0 0.0019498
9450.0 0.0019856
9470.0 0.0020221
9490.0 0.0020596
9510.0 0.0020974
9530.0 0.0021354
9550.0 0.0021746
9570.0 0.0022144
9590.0 0.0022544
9610.0 0.0022949
9630.0 0.0023365
9650.0 0.0023784
9670.0 0.0024204
9690.0 0.0024634
9710.0 0.0025071
9730.0 0.0025509
9750.0 0.0025952
9770.0 0.0026409
9790.0 0.0026864
9810.0 0.0027322
9830.0 0.0027789
9850.0 0.0028262
9870.0 0.0028733
9890.0 0.0029212
9910.0 0.0029698
9930.0 0.0030185
9950.0 0.0030675
9970.0 0.0031172
9990.0 0.0031675
10010.0 0.0028892
10030.0 0.0029339
10050.0 0.0029791
10070.0 0.0030237
10090.0 0.003069
10110.0 0.0031151
10130.0 0.0031611
10150.0 0.0032068
10170.0 0.0032529
10190.0 0.0032994
10210.0 0.0033454
10230.0 0.0033913
10250.0 0.0034376
10270.0 0.0034838
10290.0 0.0035296
10310.0 0.0035756
10330.0 0.0036218
10350.0 0.0036674
10370.0 0.0037127
10390.0 0.0037583
10410.0 0.0038035
10430.0 0.0038479
10450.0 0.0038924
10470.0 0.0039368
10490.0 0.0039804
10510.0 0.0040236
10530.0 0.004067
10550.0 0.0041096
10570.0 0.0041513
10590.0 0.0041929
10610.0 0.0042341
10630.0 0.0042742
10650.0 0.0043138
10670.0 0.0043533
10690.0 0.0043919
10710.0 0.0044294
10730.0 0.0044667
10750.0 0.0045035
10770.0 0.0045389
10790.0 0.0045735
10810.0 0.0046077
10830.0 0.0046407
10850.0 0.0046719
10870.0 0.0047019
10890.0 0.0047287
10910.0 0.0047504
10930.0 0.0047649
10950.0 0.0047681
10970.0 0.0047567
10990.0 0.0047292
11010.0 0.0048286
11030.0 0.004756
11050.0 0.0046654
11070.0 0.0045554
11090.0 0.004422
11110.0 0.0042834
11130.0 0.0041386
11150.0 0.0039828
11170.0 0.0038227
11190.0 0.0036681
11210.0 0.0035094
11230.0 0.003348
11250.0 0.0031948
11270.0 0.0030488
11290.0 0.0029037
11310.0 0.002767
11330.0 0.0026469
11350.0 0.0025337
11370.0 0.002429
11390.0 0.0023376
11410.0 0.0022568
11430.0 0.0021807
11450.0 0.0021135
11470.0 0.0020537
11490.0 0.0019966
11510.0 0.0019403
11530.0 0.0018868
11550.0 0.0018331
11570.0 0.0017758
11590.0 0.0017168
11610.0 0.0016572
11630.0 0.0015932
11650.0 0.0015256
11670.0 0.0014595
11690.0 0.0013931
11710.0 0.0013253
11730.0 0.0012599
11750.0 0.0011994
11770.0 0.0011402
11790.0 0.0010846
11810.0 0.0010353
11830.0 0.00099063
11850.0 0.00094907
11870.0 0.00091345
11890.0 0.00088294
11910.0 0.00085536
11930.0 0.00083077
11950.0 0.00080935
11970.0 0.00078952
11990.0 0.00077028
12010.0 0.00075203
12030.0 0.00073423
12050.0 0.0007159
12070.0 0.00069696
12090.0 0.0006786
12110.0 0.00065994
12130.0 0.00064106
12150.0 0.00062309
12170.0 0.00060653
12190.0 0.00059085
12210.0 0.00057749
12230.0 0.00056707
12250.0 0.00055955
12270.0 0.00055549
12290.0 0.00055515
12310.0 0.00055824
12330.0 0.00056539
12350.0 0.00057623
12370.0 0.00058978
12390.0 0.00060642
12410.0 0.0006269
12430.0 0.00064799
12450.0 0.00067004
12470.0 0.00069374
12490.0 0.00071751
12510.0 0.00073949
12530.0 0.00076123
12550.0 0.00078194
12570.0 0.00079966
12590.0 0.00081466
12610.0 0.00082755
12630.0 0.00083704
12650.0 0.00084241
12670.0 0.00084474
12690.0 0.00084363
12710.0 0.00083894
12730.0 0.00083113
12750.0 0.00082
12770.0 0.00080604
12790.0 0.0007899
12810.0 0.0007714
12830.0 0.00075065
12850.0 0.00072919
12870.0 0.0007068
12890.0 0.00068296
12910.0 0.00065888
12930.0 0.0006352
12950.0 0.0006107
12970.0 0.00058586
12990.0 0.00056224
13010.0 0.00053888
13030.0 0.00051526
13050.0 0.00049242
13070.0 0.00047083
13090.0 0.00044909
13110.0 0.00042789
13130.0 0.0004081
13150.0 0.00038917
13170.0 0.00037048
13190.0 0.00035357
13210.0 0.0003384
13230.0 0.00032428
13250.0 0.00031176
13270.0 0.00030141
13290.0 0.0002928
13310.0 0.00028604
13330.0 0.0002816
13350.0 0.00027932
13370.0 0.00027923
13390.0 0.00028147
13410.0 0.0002855
13430.0 0.00029148
13450.0 0.00029946
13470.0 0.0003087
13490.0 0.00031879
13510.0 0.00033053
13530.0 0.00034269
13550.0 0.00035453
13570.0 0.00036642
13590.0 0.00037825
13610.0 0.00038892
13630.0 0.00039837
13650.0 0.00040718
13670.0 0.0004146
13690.0 0.00042041
13710.0 0.00042499
13730.0 0.00042837
13750.0 0.00043009
13770.0 0.00043054
13790.0 0.00042983
13810.0 0.00042793
13830.0 0.00042506
13850.0 0.00042119
13870.0 0.00041634
13890.0 0.0004108
13910.0 0.00040462
13930.0 0.00039757
13950.0 0.00038996
13970.0 0.00038225
13990.0 0.00037397
14010.0 0.00036528
14030.0 0.0003567
14050.0 0.00034813
14070.0 0.00033918
14090.0 0.00033067
14110.0 0.0003227
14130.0 0.00031501
14150.0 0.00030779
14170.0 0.00030161
14190.0 0.00029623
14210.0 0.00029162
14230.0 0.00028812
14250.0 0.00028576
14270.0 0.00028445
14290.0 0.00028436
14310.0 0.0002854
14330.0 0.00028753
14350.0 0.00029083
14370.0 0.00029507
14390.0 0.00030001
14410.0 0.00030596
14430.0 0.00031265
14450.0 0.00031965
14470.0 0.00032708
14490.0 0.0003352
14510.0 0.00034322
14530.0 0.00035108
14550.0 0.00035921
14570.0 0.00036734
14590.0 0.00037505
14610.0 0.00038283
14630.0 0.00039086
14650.0 0.00039867
14670.0 0.00040647
14690.0 0.00041477
14710.0 0.0004236
14730.0 0.00043244
14750.0 0.0004421
14770.0 0.00045284
14790.0 0.0004642
14810.0 0.00047621
14830.0 0.00049001
14850.0 0.00050461
14870.0 0.00051951
14890.0 0.00053524
14910.0 0.00055163
14930.0 0.0005672
14950.0 0.00058164
14970.0 0.00059522
14990.0 0.00060665
15010.0 0.00061554
15030.0 0.0006223
15050.0 0.00062703
15070.0 0.00062976
15090.0 0.00063126
15110.0 0.00063191
15130.0 0.00063202
15150.0 0.0006319
15170.0 0.0006316
15190.0 0.00063122
15210.0 0.00063087
15230.0 0.00063054
15250.0 0.00063016
15270.0 0.0006298
15290.0 0.00062953
15310.0 0.00062922
15330.0 0.00062891
15350.0 0.00062865
15370.0 0.00062841
15390.0 0.0006281
15410.0 0.00062784
15430.0 0.00062763
15450.0 0.00062738
15470.0 0.00062711
15490.0 0.00062692
15510.0 0.00062673
15530.0 0.00062648
15550.0 0.00062627
15570.0 0.00062611
15590.0 0.00062588
15610.0 0.00062563
15630.0 0.00062546
15650.0 0.00062528
15670.0 0.00062504
15690.0 0.00062484
15710.0 0.00062469
15730.0 0.00062446
15750.0 0.00062423
15770.0 0.00062404
15790.0 0.00062384
15810.0 0.00062356
15830.0 0.00062334
15850.0 0.00062315
15870.0 0.00062289
15890.0 0.00062263
15910.0 0.00062242
15930.0 0.00062217
15950.0 0.00062185
15970.0 0.00062157
15990.0 0.00062132
16010.0 0.00062099
16030.0 0.00062064
16050.0 0.00062037
16070.0 0.00062005
16090.0 0.00061967
16110.0 0.00061932
16130.0 0.000619
16150.0 0.00061856
16170.0 0.00061813
16190.0 0.00061776
16210.0 0.00061733
16230.0 0.00061684
16250.0 0.0006164
16270.0 0.00061597
16290.0 0.00061545
16310.0 0.00061492
16330.0 0.00061443
16350.0 0.00061389
16370.0 0.00061325
16390.0 0.0006127
16410.0 0.00061213
16430.0 0.00061149
16450.0 0.00061084
16470.0 0.00061024
16490.0 0.00060955
16510.0 0.00060881
16530.0 0.00060812
16550.0 0.0006074
16570.0 0.0006066
16590.0 0.0006058
16610.0 0.00060506
16630.0 0.00060423
16650.0 0.00060336
16670.0 0.00060253
16690.0 0.00060168
16710.0 0.00060071
16730.0 0.00059977
16750.0 0.00059886
16770.0 0.00059787
16790.0 0.00059683
16810.0 0.00059586
16830.0 0.00059485
16850.0 0.00059375
16870.0 0.00059267
16890.0 0.00059161
16910.0 0.00059044
16930.0 0.00058924
16950.0 0.00058811
16970.0 0.00058693
16990.0 0.00058567
17010.0 0.00058443
17030.0 0.00058322
17050.0 0.00058191
17070.0 0.00058057
17090.0 0.00057927
17110.0 0.00057793
17130.0 0.00057649
17150.0 0.0005751
17170.0 0.00057373
17190.0 0.00057226
17210.0 0.00057078
17230.0 0.00056935
17250.0 0.00056785
17270.0 0.00056626
17290.0 0.00056472
17310.0 0.00056319
17330.0 0.00056157
17350.0 0.00055991
17370.0 0.00055834
17390.0 0.0005567
17410.0 0.00055499
17430.0 0.00055332
17450.0 0.00055165
17470.0 0.00054986
17490.0 0.00054808
17510.0 0.00054636
17530.0 0.00054457
17550.0 0.00054272
17570.0 0.00054092
17590.0 0.00053912
17610.0 0.00053722
17630.0 0.00053533
17650.0 0.00053347
17670.0 0.00053156
17690.0 0.00052955
17710.0 0.00052764
17730.0 0.00052571
17750.0 0.0005237
17770.0 0.00052169
17790.0 0.00051975
17810.0 0.0005177
17830.0 0.00051562
17850.0 0.00051359
17870.0 0.00051154
17890.0 0.00050941
17910.0 0.00050729
17930.0 0.00050524
17950.0 0.00050311
17970.0 0.00050095
17990.0 0.00049884
18010.0 0.00049671
18030.0 0.00049447
18050.0 0.00049228
18070.0 0.00049013
18090.0 0.0004879
18110.0 0.00048565
18130.0 0.00048347
18150.0 0.00048126
18170.0 0.00047897
18190.0 0.00047672
18210.0 0.00047451
18230.0 0.0004722
18250.0 0.00046986
18270.0 0.00046762
18290.0 0.00046534
18310.0 0.00046299
18330.0 0.00046069
18350.0 0.00045843
18370.0 0.00045607
18390.0 0.00045371
18410.0 0.00045141
18430.0 0.00044908
18450.0 0.00044667
18470.0 0.00044433
18490.0 0.00044201
18510.0 0.00043963
18530.0 0.00043725
18550.0 0.00043493
18570.0 0.00043255
18590.0 0.00043012
18610.0 0.00042776
18630.0 0.00042541
18650.0 0.00042299
18670.0 0.00042057
18690.0 0.00041823
18710.0 0.00041585
18730.0 0.00041342
18750.0 0.00041105
18770.0 0.0004087
18790.0 0.00040624
18810.0 0.00040382
18830.0 0.00040147
18850.0 0.00039907
18870.0 0.00039663
18890.0 0.00039427
18910.0 0.00039191
18930.0 0.00038948
18950.0 0.00038708
18970.0 0.00038473
18990.0 0.00038233
19010.0 0.00037987
19030.0 0.00037752
19050.0 0.00037517
19070.0 0.00037276
19090.0 0.00037038
19110.0 0.00036806
19130.0 0.00036566
19150.0 0.00036325
19170.0 0.00036091
19190.0 0.00035857
19210.0 0.00035616
19230.0 0.0003538
19250.0 0.0003515
19270.0 0.00034914
19290.0 0.00034677
19310.0 0.00034447
19330.0 0.00034216
19350.0 0.00033977
19370.0 0.00033745
19390.0 0.00033517
19410.0 0.00033284
19430.0 0.0003305
19450.0 0.00032824
19470.0 0.00032596
19490.0 0.00032363
19510.0 0.00032136
19530.0 0.00031912
19550.0 0.00031681
19570.0 0.0003145
19590.0 0.00031229
19610.0 0.00031004
19630.0 0.00030776
19650.0 0.00030554
19670.0 0.00030335
19690.0 0.00030109
19710.0 0.00029885
19730.0 0.00029667
19750.0 0.00029447
19770.0 0.00029222
19790.0 0.00029004
19810.0 0.00028789
19830.0 0.00028569
19850.0 0.00028349
19870.0 0.00028133
19890.0 0.00027908
19910.0 0.00027669
19930.0 0.00027422
19950.0 0.00027153
19970.0 0.00026842
19990.0 0.00026487
20010.0 0.00025273
20030.0 0.00024837
20050.0 0.00024345
20070.0 0.00023824
20090.0 0.00023276
20110.0 0.0002267
20130.0 0.00022065
20150.0 0.00021473
20170.0 0.00020867
20190.0 0.0002026
20210.0 0.0001969
20230.0 0.00019137
20250.0 0.00018586
20270.0 0.00018075
20290.0 0.00017607
20310.0 0.00017161
20330.0 0.00016742
20350.0 0.00016389
20370.0 0.0001607
20390.0 0.00015785
20410.0 0.00015548
20430.0 0.00015357
20450.0 0.00015197
20470.0 0.00015079
20490.0 0.00015
20510.0 0.00014955
20530.0 0.00014943
20550.0 0.00014962
20570.0 0.00015005
20590.0 0.00015075
20610.0 0.00015169
20630.0 0.00015277
20650.0 0.00015403
20670.0 0.00015552
20690.0 0.00015706
20710.0 0.00015867
20730.0 0.00016043
20750.0 0.00016226
20770.0 0.00016405
20790.0 0.00016591
20810.0 0.00016787
20830.0 0.00016978
20850.0 0.00017168
20870.0 0.00017368
20890.0 0.0001757
20910.0 0.0001776
20930.0 0.00017955
20950.0 0.00018156
20970.0 0.00018349
20990.0 0.00018537
21010.0 0.00018734
21030.0 0.00018926
21050.0 0.00019107
21070.0 0.00019288
21090.0 0.0001947
21110.0 0.00019635
21130.0 0.0001979
21150.0 0.00019943
21170.0 0.00020082
21190.0 0.00020202
21210.0 0.00020314
21230.0 0.00020411
21250.0 0.00020484
21270.0 0.00020536
21290.0 0.00020568
21310.0 0.00020572
21330.0 0.00020547
21350.0 0.00020494
21370.0 0.00020406
21390.0 0.00020288
21410.0 0.00020137
21430.0 0.00019941
21450.0 0.00019713
21470.0 0.00019459
21490.0 0.00019167
21510.0 0.00018841
21530.0 0.00018502
21550.0 0.00018141
21570.0 0.0001775
21590.0 0.00017357
21610.0 0.00016971
21630.0 0.00016576
21650.0 0.00016182
21670.0 0.0001583
21690.0 0.00015495
21710.0 0.00015181
21730.0 0.00014908
21750.0 0.0001468
21770.0 0.00014483
21790.0 0.00014335
21810.0 0.00014238
21830.0 0.00014185
21850.0 0.0001418
21870.0 0.00014221
21890.0 0.000143
21910.0 0.00014423
21930.0 0.00014585
21950.0 0.00014772
21970.0 0.0001499
21990.0 0.00015248
22010.0 0.00015514
22030.0 0.00015792
22050.0 0.00016093
22070.0 0.00016404
22090.0 0.00016705
22110.0 0.00017015
22130.0 0.00017333
22150.0 0.00017636
22170.0 0.00017926
22190.0 0.00018221
22210.0 0.000185
22230.0 0.00018749
22250.0 0.00018987
22270.0 0.0001921
22290.0 0.00019402
22310.0 0.00019568
22330.0 0.00019718
22350.0 0.00019835
22370.0 0.0001992
22390.0 0.00019976
22410.0 0.00019999
22430.0 0.00019986
22450.0 0.00019941
22470.0 0.00019858
22490.0 0.00019739
22510.0 0.00019588
22530.0 0.00019396
22550.0 0.00019161
22570.0 0.00018899
22590.0 0.00018604
22610.0 0.00018265
22630.0 0.00017897
22650.0 0.00017515
22670.0 0.00017093
22690.0 0.0001664
22710.0 0.00016183
22730.0 0.00015709
22750.0 0.00015195
22770.0 0.0001469
22790.0 0.00014194
22810.0 0.00013684
22830.0 0.00013174
22850.0 0.00012694
22870.0 0.00012223
22890.0 0.00011753
22910.0 0.00011319
22930.0 0.0001092
22950.0 0.00010539
22970.0 0.00010187
22990.0 9.8933e-05
23010.0 9.6324e-05
23030.0 9.4074e-05
23050.0 9.2315e-05
23070.0 9.1021e-05
23090.0 9.0114e-05
23110.0 8.9691e-05
