#lamb flux
1010.0 7.4231e-08
1030.0 8.21e-08
1050.0 9.1151e-08
1070.0 1.0134e-07
1090.0 1.1291e-07
1110.0 1.2478e-07
1130.0 1.3673e-07
1150.0 1.4924e-07
1170.0 1.6215e-07
1190.0 1.7439e-07
1210.0 1.868e-07
1230.0 1.9962e-07
1250.0 2.1218e-07
1270.0 2.2437e-07
1290.0 2.3726e-07
1310.0 2.5014e-07
1330.0 2.6249e-07
1350.0 2.7498e-07
1370.0 2.8788e-07
1390.0 3.0045e-07
1410.0 3.1265e-07
1430.0 3.2541e-07
1450.0 3.3816e-07
1470.0 3.5049e-07
1490.0 3.6295e-07
1510.0 3.7611e-07
1530.0 3.8859e-07
1550.0 4.0089e-07
1570.0 4.1363e-07
1590.0 4.2638e-07
1610.0 4.3857e-07
1630.0 4.5114e-07
1650.0 4.6404e-07
1670.0 4.7653e-07
1690.0 4.8886e-07
1710.0 5.0168e-07
1730.0 5.1459e-07
1750.0 5.2673e-07
1770.0 5.3925e-07
1790.0 5.5203e-07
1810.0 5.6442e-07
1830.0 5.7661e-07
1850.0 5.8956e-07
1870.0 6.022e-07
1890.0 6.1444e-07
1910.0 6.2695e-07
1930.0 6.3979e-07
1950.0 6.5206e-07
1970.0 6.6422e-07
1990.0 6.7687e-07
2010.0 6.8933e-07
2030.0 7.0138e-07
2050.0 7.1382e-07
2070.0 7.2661e-07
2090.0 7.387e-07
2110.0 7.5078e-07
2130.0 7.6324e-07
2150.0 7.755e-07
2170.0 7.8725e-07
2190.0 7.9946e-07
2210.0 8.1177e-07
2230.0 8.236e-07
2250.0 8.354e-07
2270.0 8.4774e-07
2290.0 8.5972e-07
2310.0 8.7123e-07
2330.0 8.8321e-07
2350.0 8.9551e-07
2370.0 9.0775e-07
2390.0 9.2102e-07
2410.0 9.3674e-07
2430.0 9.5481e-07
2450.0 9.7642e-07
2470.0 1.0041e-06
2490.0 1.039e-06
2510.0 1.0787e-06
2530.0 1.1264e-06
2550.0 1.1862e-06
2570.0 1.2605e-06
2590.0 1.3572e-06
2610.0 1.502e-06
2630.0 1.7087e-06
2650.0 1.979e-06
2670.0 2.3285e-06
2690.0 2.758e-06
2710.0 3.2164e-06
2730.0 3.6694e-06
2750.0 4.1156e-06
2770.0 4.5037e-06
2790.0 4.8119e-06
2810.0 5.0564e-06
2830.0 5.2475e-06
2850.0 5.3779e-06
2870.0 5.4737e-06
2890.0 5.5495e-06
2910.0 5.61e-06
2930.0 5.6594e-06
2950.0 5.7066e-06
2970.0 5.7527e-06
2990.0 5.796e-06
3010.0 0.00016383
3030.0 0.00016505
3050.0 0.00016624
3070.0 0.00016725
3090.0 0.00016812
3110.0 0.00016866
3130.0 0.00016864
3150.0 0.00016789
3170.0 0.00016609
3190.0 0.00016327
3210.0 0.00015969
3230.0 0.00015559
3250.0 0.00015154
3270.0 0.00014859
3290.0 0.00014694
3310.0 0.00014721
3330.0 0.00014934
3350.0 0.00015305
3370.0 0.00015835
3390.0 0.00016502
3410.0 0.00017229
3430.0 0.00018045
3450.0 0.00018984
3470.0 0.00020009
3490.0 0.00021096
3510.0 0.00022324
3530.0 0.0002364
3550.0 0.00024971
3570.0 0.00026361
3590.0 0.00027871
3610.0 0.00029428
3630.0 0.0003098
3650.0 0.0003259
3670.0 0.0003406
3690.0 0.00035159
3710.0 0.00035789
3730.0 0.0003581
3750.0 0.00035312
3770.0 0.00035116
3790.0 0.00034907
3810.0 0.00034049
3830.0 0.00035103
3850.0 0.00039249
3870.0 0.00041525
3890.0 0.00041336
3910.0 0.00041512
3930.0 0.00042605
3950.0 0.00043278
3970.0 0.0003943
3990.0 0.00033928
4010.0 0.0010169
4030.0 0.0012321
4050.0 0.0014125
4070.0 0.0012256
4090.0 0.00111
4110.0 0.00097947
4130.0 0.0009015
4150.0 0.00095892
4170.0 0.00094458
4190.0 0.0010069
4210.0 0.00099764
4230.0 0.0010552
4250.0 0.0012484
4270.0 0.001263
4290.0 0.0011639
4310.0 0.0012094
4330.0 0.0012864
4350.0 0.0014424
4370.0 0.0016414
4390.0 0.0015403
4410.0 0.001138
4430.0 0.00096341
4450.0 0.00088526
4470.0 0.00067947
4490.0 0.00073324
4510.0 0.0011076
4530.0 0.0012774
4550.0 0.0012884
4570.0 0.0014498
4590.0 0.0016515
4610.0 0.0022275
4630.0 0.002893
4650.0 0.0031374
4670.0 0.0029056
4690.0 0.0027724
4710.0 0.0029306
4730.0 0.0027657
4750.0 0.0020677
4770.0 0.0015167
4790.0 0.0014163
4810.0 0.00135
4830.0 0.0012359
4850.0 0.0013562
4870.0 0.0017917
4890.0 0.0021129
4910.0 0.0018538
4930.0 0.0016403
4950.0 0.0018022
4970.0 0.0023112
4990.0 0.0031322
5010.0 0.0036031
5030.0 0.0031771
5050.0 0.0021495
5070.0 0.0014166
5090.0 0.0011423
5110.0 0.0011748
5130.0 0.0013558
5150.0 0.001469
5170.0 0.0014469
5190.0 0.0013521
5210.0 0.0014132
5230.0 0.0014856
5250.0 0.0016011
5270.0 0.0017274
5290.0 0.0019144
5310.0 0.0022283
5330.0 0.0024659
5350.0 0.0024501
5370.0 0.0025736
5390.0 0.0029533
5410.0 0.0029507
5430.0 0.0026094
5450.0 0.0023975
5470.0 0.0025457
5490.0 0.0031101
5510.0 0.0038888
5530.0 0.0044602
5550.0 0.0043109
5570.0 0.0039189
5590.0 0.0034076
5610.0 0.0031426
5630.0 0.0030473
5650.0 0.0029023
5670.0 0.0027501
5690.0 0.0024586
5710.0 0.0023972
5730.0 0.0022082
5750.0 0.0015569
5770.0 0.0012147
5790.0 0.0013765
5810.0 0.0015543
5830.0 0.0019073
5850.0 0.0022705
5870.0 0.0025191
5890.0 0.0025618
5910.0 0.0025133
5930.0 0.0023924
5950.0 0.0024378
5970.0 0.0027788
5990.0 0.0026128
6010.0 0.0021903
6030.0 0.0018505
6050.0 0.0016116
6070.0 0.0016028
6090.0 0.0017379
6110.0 0.0019433
6130.0 0.001973
6150.0 0.0016976
6170.0 0.0014934
6190.0 0.0016806
6210.0 0.0022217
6230.0 0.0029155
6250.0 0.0031579
6270.0 0.0027596
6290.0 0.0023218
6310.0 0.0018126
6330.0 0.0013888
6350.0 0.0012387
6370.0 0.0013027
6390.0 0.001506
6410.0 0.0018569
6430.0 0.0021684
6450.0 0.0024812
6470.0 0.002841
6490.0 0.0034317
6510.0 0.0038371
6530.0 0.0037645
6550.0 0.0034041
6570.0 0.0028898
6590.0 0.0026058
6610.0 0.0022469
6630.0 0.0020356
6650.0 0.0019242
6670.0 0.0018693
6690.0 0.001689
6710.0 0.0015354
6730.0 0.0011059
6750.0 0.0010964
6770.0 0.0011917
6790.0 0.0013697
6810.0 0.0012533
6830.0 0.0012906
6850.0 0.0012071
6870.0 0.0011027
6890.0 0.0010588
6910.0 0.0011283
6930.0 0.0010568
6950.0 0.0010872
6970.0 0.0011436
6990.0 0.001298
7010.0 0.0013091
7030.0 0.0013299
7050.0 0.0012683
7070.0 0.0012084
7090.0 0.001212
7110.0 0.001247
7130.0 0.001342
7150.0 0.0014253
7170.0 0.0015727
7190.0 0.0017289
7210.0 0.0016988
7230.0 0.0017464
7250.0 0.0018768
7270.0 0.0020453
7290.0 0.0024276
7310.0 0.0026341
7330.0 0.0025461
7350.0 0.0023028
7370.0 0.0020036
7390.0 0.0019438
7410.0 0.0020656
7430.0 0.0022957
7450.0 0.0025004
7470.0 0.0024775
7490.0 0.002259
7510.0 0.0025589
7530.0 0.0025308
7550.0 0.0022748
7570.0 0.001777
7590.0 0.0012216
7610.0 0.0010485
7630.0 0.0011913
7650.0 0.0014086
7670.0 0.0017531
7690.0 0.0019291
7710.0 0.0020104
7730.0 0.0021127
7750.0 0.0023717
7770.0 0.002409
7790.0 0.0022128
7810.0 0.002019
7830.0 0.0020821
7850.0 0.002024
7870.0 0.0018556
7890.0 0.0015591
7910.0 0.0012673
7930.0 0.0012101
7950.0 0.0011024
7970.0 0.0010205
7990.0 0.0010147
8010.0 7.515e-05
8030.0 7.4173e-05
8050.0 7.3173e-05
8070.0 7.4131e-05
8090.0 7.9652e-05
8110.0 7.8295e-05
8130.0 6.4583e-05
8150.0 6.2897e-05
8170.0 5.4176e-05
8190.0 5.1344e-05
8210.0 6.6675e-05
8230.0 7.4234e-05
8250.0 6.6906e-05
8270.0 5.8233e-05
8290.0 5.6766e-05
8310.0 4.3689e-05
8330.0 2.9447e-05
8350.0 2.0898e-05
8370.0 1.3167e-05
8390.0 2.4068e-05
8410.0 2.8046e-05
8430.0 3.4571e-05
8450.0 4.0596e-05
8470.0 5.0458e-05
8490.0 5.0102e-05
8510.0 4.9283e-05
8530.0 5.1434e-05
8550.0 6.9394e-05
8570.0 8.2153e-05
8590.0 8.8642e-05
8610.0 0.00011197
8630.0 0.00013489
8650.0 0.00014111
8670.0 0.00014996
8690.0 0.0001508
8710.0 0.00013657
8730.0 0.00012703
8750.0 0.00011213
8770.0 0.00010639
8790.0 0.00010452
8810.0 0.00010016
8830.0 8.009e-05
8850.0 5.8632e-05
8870.0 4.4894e-05
8890.0 4.3891e-05
8910.0 5.0299e-05
8930.0 5.7212e-05
8950.0 5.8308e-05
8970.0 5.8583e-05
8990.0 5.2249e-05
9010.0 0.00054754
9030.0 0.00049614
9050.0 0.00049854
9070.0 0.00050247
9090.0 0.00050592
9110.0 0.00051018
9130.0 0.00051347
9150.0 0.00051603
9170.0 0.00051876
9190.0 0.00052166
9210.0 0.00052473
9230.0 0.00052796
9250.0 0.00053125
9270.0 0.00053466
9290.0 0.00053817
9310.0 0.0005417
9330.0 0.00054531
9350.0 0.00054904
9370.0 0.00055283
9390.0 0.00055664
9410.0 0.00056057
9430.0 0.00056462
9450.0 0.00056865
9470.0 0.00057277
9490.0 0.000577
9510.0 0.00058129
9530.0 0.0005856
9550.0 0.00059005
9570.0 0.00059458
9590.0 0.00059913
9610.0 0.00060376
9630.0 0.0006085
9650.0 0.00061329
9670.0 0.00061809
9690.0 0.00062302
9710.0 0.00062802
9730.0 0.00063303
9750.0 0.00063812
9770.0 0.00064336
9790.0 0.00064859
9810.0 0.00065385
9830.0 0.00065921
9850.0 0.00066465
9870.0 0.00067007
9890.0 0.00067557
9910.0 0.00068118
9930.0 0.00068679
9950.0 0.00069242
9970.0 0.00069817
9990.0 0.00070397
10010.0 0.00061086
10030.0 0.00061587
10050.0 0.00062099
10070.0 0.00062628
10090.0 0.00063127
10110.0 0.00063638
10130.0 0.00064152
10150.0 0.00064663
10170.0 0.00065181
10190.0 0.00065708
10210.0 0.00066228
10230.0 0.00066747
10250.0 0.00067275
10270.0 0.00067801
10290.0 0.00068322
10310.0 0.00068849
10330.0 0.00069381
10350.0 0.00069904
10370.0 0.00070426
10390.0 0.00070953
10410.0 0.00071478
10430.0 0.00071993
10450.0 0.00072512
10470.0 0.00073034
10490.0 0.00073546
10510.0 0.00074055
10530.0 0.00074572
10550.0 0.00075081
10570.0 0.00075579
10590.0 0.0007608
10610.0 0.0007658
10630.0 0.00077068
10650.0 0.00077552
10670.0 0.00078041
10690.0 0.0007852
10710.0 0.00078989
10730.0 0.00079459
10750.0 0.0007993
10770.0 0.00080382
10790.0 0.0008083
10810.0 0.00081277
10830.0 0.00081711
10850.0 0.00082123
10870.0 0.00082521
10890.0 0.00082872
10910.0 0.00083143
10930.0 0.00083295
10950.0 0.0008326
10970.0 0.00082978
10990.0 0.00082424
11010.0 0.00081498
11030.0 0.00080202
11050.0 0.00078622
11070.0 0.00076732
11090.0 0.00074462
11110.0 0.00072114
11130.0 0.00069664
11150.0 0.00067027
11170.0 0.00064308
11190.0 0.00061671
11210.0 0.00058948
11230.0 0.00056155
11250.0 0.00053487
11270.0 0.00050924
11290.0 0.00048357
11310.0 0.00045925
11330.0 0.00043783
11350.0 0.0004176
11370.0 0.00039891
11390.0 0.00038273
11410.0 0.00036858
11430.0 0.00035543
11450.0 0.0003441
11470.0 0.0003343
11490.0 0.00032519
11510.0 0.00031641
11530.0 0.00030826
11550.0 0.00030016
11570.0 0.00029152
11590.0 0.00028258
11610.0 0.00027347
11630.0 0.00026356
11650.0 0.00025295
11670.0 0.0002425
11690.0 0.00023189
11710.0 0.00022095
11730.0 0.00021035
11750.0 0.00020054
11770.0 0.00019092
11790.0 0.00018191
11810.0 0.00017397
11830.0 0.00016687
11850.0 0.00016033
11870.0 0.00015486
11890.0 0.00015032
11910.0 0.00014632
11930.0 0.00014289
11950.0 0.00014003
11970.0 0.00013747
11990.0 0.00013506
12010.0 0.00013283
12030.0 0.00013067
12050.0 0.00012845
12070.0 0.00012613
12090.0 0.0001239
12110.0 0.00012163
12130.0 0.00011936
12150.0 0.00011727
12170.0 0.00011544
12190.0 0.00011386
12210.0 0.00011276
12230.0 0.00011223
12250.0 0.00011231
12270.0 0.00011316
12290.0 0.00011476
12310.0 0.00011706
12330.0 0.00012027
12350.0 0.00012428
12370.0 0.00012885
12390.0 0.00013411
12410.0 0.00014028
12430.0 0.00014655
12450.0 0.00015304
12470.0 0.00015994
12490.0 0.00016688
12510.0 0.00017338
12530.0 0.00017985
12550.0 0.00018609
12570.0 0.0001916
12590.0 0.00019644
12610.0 0.00020075
12630.0 0.00020419
12650.0 0.00020656
12670.0 0.00020812
12690.0 0.00020874
12710.0 0.0002084
12730.0 0.00020719
12750.0 0.00020503
12770.0 0.00020208
12790.0 0.00019849
12810.0 0.00019421
12830.0 0.00018925
12850.0 0.00018407
12870.0 0.00017859
12890.0 0.00017266
12910.0 0.00016663
12930.0 0.00016069
12950.0 0.0001545
12970.0 0.00014819
12990.0 0.00014222
13010.0 0.00013632
13030.0 0.00013036
13050.0 0.00012464
13070.0 0.00011927
13090.0 0.00011389
13110.0 0.00010869
13130.0 0.00010388
13150.0 9.9339e-05
13170.0 9.4888e-05
13190.0 9.0927e-05
13210.0 8.744e-05
13230.0 8.4254e-05
13250.0 8.151e-05
13270.0 7.9345e-05
13290.0 7.7661e-05
13310.0 7.6502e-05
13330.0 7.5974e-05
13350.0 7.6035e-05
13370.0 7.6717e-05
13390.0 7.8057e-05
13410.0 7.9867e-05
13430.0 8.2221e-05
13450.0 8.5128e-05
13470.0 8.8355e-05
13490.0 9.1773e-05
13510.0 9.5628e-05
13530.0 9.9536e-05
13550.0 0.00010328
13570.0 0.00010697
13590.0 0.00011056
13610.0 0.00011376
13630.0 0.00011655
13650.0 0.0001191
13670.0 0.00012121
13690.0 0.00012285
13710.0 0.00012412
13730.0 0.00012502
13750.0 0.00012547
13770.0 0.00012557
13790.0 0.00012535
13810.0 0.00012479
13830.0 0.00012397
13850.0 0.00012287
13870.0 0.00012147
13890.0 0.00011987
13910.0 0.00011807
13930.0 0.00011599
13950.0 0.00011371
13970.0 0.00011139
13990.0 0.00010885
14010.0 0.00010616
14030.0 0.00010347
14050.0 0.00010076
14070.0 9.7902e-05
14090.0 9.5162e-05
14110.0 9.2587e-05
14130.0 9.0091e-05
14150.0 8.7742e-05
14170.0 8.5737e-05
14190.0 8.4003e-05
14210.0 8.2533e-05
14230.0 8.1444e-05
14250.0 8.074e-05
14270.0 8.0399e-05
14290.0 8.0471e-05
14310.0 8.092e-05
14330.0 8.1725e-05
14350.0 8.291e-05
14370.0 8.4387e-05
14390.0 8.6064e-05
14410.0 8.8039e-05
14430.0 9.0208e-05
14450.0 9.2424e-05
14470.0 9.4722e-05
14490.0 9.7166e-05
14510.0 9.9503e-05
14530.0 0.00010172
14550.0 0.00010394
14570.0 0.00010607
14590.0 0.00010801
14610.0 0.00010989
14630.0 0.00011174
14650.0 0.00011347
14670.0 0.00011514
14690.0 0.00011688
14710.0 0.00011871
14730.0 0.00012054
14750.0 0.00012257
14770.0 0.00012487
14790.0 0.00012736
14810.0 0.00013006
14830.0 0.00013326
14850.0 0.00013674
14870.0 0.00014037
14890.0 0.00014429
14910.0 0.00014844
14930.0 0.00015244
14950.0 0.00015618
14970.0 0.00015972
14990.0 0.00016268
15010.0 0.00016495
15030.0 0.00016663
15050.0 0.00016774
15070.0 0.00016829
15090.0 0.00016848
15110.0 0.00016842
15130.0 0.00016821
15150.0 0.00016792
15170.0 0.00016759
15190.0 0.00016723
15210.0 0.00016687
15230.0 0.00016652
15250.0 0.00016615
15270.0 0.00016579
15290.0 0.00016544
15310.0 0.00016509
15330.0 0.00016473
15350.0 0.00016439
15370.0 0.00016405
15390.0 0.00016369
15410.0 0.00016334
15430.0 0.00016301
15450.0 0.00016266
15470.0 0.00016232
15490.0 0.00016198
15510.0 0.00016165
15530.0 0.00016131
15550.0 0.00016098
15570.0 0.00016066
15590.0 0.00016032
15610.0 0.00015998
15630.0 0.00015966
15650.0 0.00015933
15670.0 0.000159
15690.0 0.00015868
15710.0 0.00015836
15730.0 0.00015803
15750.0 0.00015771
15770.0 0.00015739
15790.0 0.00015707
15810.0 0.00015674
15830.0 0.00015642
15850.0 0.00015611
15870.0 0.00015579
15890.0 0.00015547
15910.0 0.00015516
15930.0 0.00015485
15950.0 0.00015452
15970.0 0.00015421
15990.0 0.0001539
16010.0 0.00015358
16030.0 0.00015326
16050.0 0.00015295
16070.0 0.00015264
16090.0 0.00015232
16110.0 0.00015201
16130.0 0.00015171
16150.0 0.00015138
16170.0 0.00015106
16190.0 0.00015076
16210.0 0.00015045
16230.0 0.00015013
16250.0 0.00014982
16270.0 0.00014951
16290.0 0.00014919
16310.0 0.00014888
16330.0 0.00014857
16350.0 0.00014826
16370.0 0.00014793
16390.0 0.00014762
16410.0 0.00014731
16430.0 0.00014699
16450.0 0.00014667
16470.0 0.00014637
16490.0 0.00014605
16510.0 0.00014573
16530.0 0.00014541
16550.0 0.0001451
16570.0 0.00014477
16590.0 0.00014445
16610.0 0.00014414
16630.0 0.00014382
16650.0 0.0001435
16670.0 0.00014318
16690.0 0.00014287
16710.0 0.00014253
16730.0 0.00014221
16750.0 0.0001419
16770.0 0.00014157
16790.0 0.00014124
16810.0 0.00014092
16830.0 0.0001406
16850.0 0.00014027
16870.0 0.00013994
16890.0 0.00013962
16910.0 0.00013929
16930.0 0.00013894
16950.0 0.00013862
16970.0 0.0001383
16990.0 0.00013796
17010.0 0.00013762
17030.0 0.0001373
17050.0 0.00013696
17070.0 0.00013662
17090.0 0.00013629
17110.0 0.00013596
17130.0 0.00013561
17150.0 0.00013527
17170.0 0.00013494
17190.0 0.00013459
17210.0 0.00013425
17230.0 0.00013392
17250.0 0.00013357
17270.0 0.00013322
17290.0 0.00013288
17310.0 0.00013254
17330.0 0.00013219
17350.0 0.00013183
17370.0 0.00013149
17390.0 0.00013115
17410.0 0.00013079
17430.0 0.00013044
17450.0 0.0001301
17470.0 0.00012973
17490.0 0.00012938
17510.0 0.00012903
17530.0 0.00012867
17550.0 0.00012831
17570.0 0.00012796
17590.0 0.00012761
17610.0 0.00012724
17630.0 0.00012688
17650.0 0.00012653
17670.0 0.00012617
17690.0 0.00012579
17710.0 0.00012543
17730.0 0.00012508
17750.0 0.00012471
17770.0 0.00012434
17790.0 0.00012399
17810.0 0.00012362
17830.0 0.00012324
17850.0 0.00012288
17870.0 0.00012251
17890.0 0.00012213
17910.0 0.00012176
17930.0 0.0001214
17950.0 0.00012103
17970.0 0.00012065
17990.0 0.00012028
18010.0 0.00011992
18030.0 0.00011953
18050.0 0.00011915
18070.0 0.00011878
18090.0 0.0001184
18110.0 0.00011802
18130.0 0.00011765
18150.0 0.00011728
18170.0 0.00011689
18190.0 0.00011651
18210.0 0.00011614
18230.0 0.00011575
18250.0 0.00011536
18270.0 0.00011499
18290.0 0.00011461
18310.0 0.00011422
18330.0 0.00011384
18350.0 0.00011347
18370.0 0.00011308
18390.0 0.00011269
18410.0 0.00011231
18430.0 0.00011193
18450.0 0.00011153
18470.0 0.00011115
18490.0 0.00011077
18510.0 0.00011038
18530.0 0.00010999
18550.0 0.00010961
18570.0 0.00010922
18590.0 0.00010882
18610.0 0.00010844
18630.0 0.00010806
18650.0 0.00010766
18670.0 0.00010726
18690.0 0.00010689
18710.0 0.0001065
18730.0 0.0001061
18750.0 0.00010572
18770.0 0.00010533
18790.0 0.00010493
18810.0 0.00010454
18830.0 0.00010415
18850.0 0.00010376
18870.0 0.00010336
18890.0 0.00010298
18910.0 0.00010259
18930.0 0.00010219
18950.0 0.0001018
18970.0 0.00010142
18990.0 0.00010102
19010.0 0.00010062
19030.0 0.00010023
19050.0 9.9846e-05
19070.0 9.9447e-05
19090.0 9.9054e-05
19110.0 9.8675e-05
19130.0 9.8276e-05
19150.0 9.7876e-05
19170.0 9.7489e-05
19190.0 9.7101e-05
19210.0 9.6698e-05
19230.0 9.6303e-05
19250.0 9.5923e-05
19270.0 9.5528e-05
19290.0 9.5131e-05
19310.0 9.4747e-05
19330.0 9.4359e-05
19350.0 9.3953e-05
19370.0 9.3562e-05
19390.0 9.3178e-05
19410.0 9.2782e-05
19430.0 9.2382e-05
19450.0 9.2001e-05
19470.0 9.1613e-05
19490.0 9.1214e-05
19510.0 9.0824e-05
19530.0 9.0442e-05
19550.0 9.0043e-05
19570.0 8.9643e-05
19590.0 8.9261e-05
19610.0 8.8873e-05
19630.0 8.8475e-05
19650.0 8.8088e-05
19670.0 8.7709e-05
19690.0 8.7311e-05
19710.0 8.6917e-05
19730.0 8.6535e-05
19750.0 8.6147e-05
19770.0 8.5744e-05
19790.0 8.5359e-05
19810.0 8.4978e-05
19830.0 8.4583e-05
19850.0 8.4186e-05
19870.0 8.3796e-05
19890.0 8.3377e-05
19910.0 8.2918e-05
19930.0 8.2426e-05
19950.0 8.1863e-05
19970.0 8.117e-05
19990.0 8.0336e-05
20010.0 7.1474e-05
20030.0 7.044e-05
20050.0 6.9229e-05
20070.0 6.7918e-05
20090.0 6.6506e-05
20110.0 6.491e-05
20130.0 6.3294e-05
20150.0 6.1693e-05
20170.0 6.0032e-05
20190.0 5.8348e-05
20210.0 5.6758e-05
20230.0 5.5206e-05
20250.0 5.3652e-05
20270.0 5.2209e-05
20290.0 5.0891e-05
20310.0 4.9639e-05
20330.0 4.8469e-05
20350.0 4.7498e-05
20370.0 4.6636e-05
20390.0 4.588e-05
20410.0 4.527e-05
20430.0 4.4799e-05
20450.0 4.4426e-05
20470.0 4.4176e-05
20490.0 4.4042e-05
20510.0 4.4003e-05
20530.0 4.4058e-05
20550.0 4.4194e-05
20570.0 4.4392e-05
20590.0 4.466e-05
20610.0 4.4984e-05
20630.0 4.5342e-05
20650.0 4.5741e-05
20670.0 4.6198e-05
20690.0 4.6664e-05
20710.0 4.7146e-05
20730.0 4.7665e-05
20750.0 4.8208e-05
20770.0 4.8741e-05
20790.0 4.9302e-05
20810.0 4.9894e-05
20830.0 5.0484e-05
20850.0 5.1076e-05
20870.0 5.171e-05
20890.0 5.2357e-05
20910.0 5.2981e-05
20930.0 5.3628e-05
20950.0 5.4298e-05
20970.0 5.4952e-05
20990.0 5.5597e-05
21010.0 5.6276e-05
21030.0 5.6939e-05
21050.0 5.7572e-05
21070.0 5.8203e-05
21090.0 5.8837e-05
21110.0 5.9415e-05
21130.0 5.9958e-05
21150.0 6.0484e-05
21170.0 6.096e-05
21190.0 6.137e-05
21210.0 6.1739e-05
21230.0 6.2046e-05
21250.0 6.2264e-05
21270.0 6.2403e-05
21290.0 6.2455e-05
21310.0 6.2405e-05
21330.0 6.2258e-05
21350.0 6.1999e-05
21370.0 6.1619e-05
21390.0 6.1137e-05
21410.0 6.0546e-05
21430.0 5.9798e-05
21450.0 5.8958e-05
21470.0 5.8043e-05
21490.0 5.7009e-05
21510.0 5.5874e-05
21530.0 5.472e-05
21550.0 5.3513e-05
21570.0 5.2224e-05
21590.0 5.0957e-05
21610.0 4.9733e-05
21630.0 4.8508e-05
21650.0 4.731e-05
21670.0 4.6272e-05
21690.0 4.5315e-05
21710.0 4.4453e-05
21730.0 4.3747e-05
21750.0 4.3202e-05
21770.0 4.2787e-05
21790.0 4.2549e-05
21810.0 4.2482e-05
21830.0 4.2577e-05
21850.0 4.2843e-05
21870.0 4.3258e-05
21890.0 4.3794e-05
21910.0 4.4482e-05
21930.0 4.5288e-05
21950.0 4.6162e-05
21970.0 4.713e-05
21990.0 4.8216e-05
22010.0 4.9302e-05
22030.0 5.0405e-05
22050.0 5.1563e-05
22070.0 5.2728e-05
22090.0 5.383e-05
22110.0 5.4942e-05
22130.0 5.6052e-05
22150.0 5.7088e-05
22170.0 5.8065e-05
22190.0 5.9034e-05
22210.0 5.9935e-05
22230.0 6.0728e-05
22250.0 6.1475e-05
22270.0 6.2162e-05
22290.0 6.275e-05
22310.0 6.3254e-05
22330.0 6.3699e-05
22350.0 6.4042e-05
22370.0 6.4284e-05
22390.0 6.4436e-05
22410.0 6.4484e-05
22430.0 6.4422e-05
22450.0 6.4256e-05
22470.0 6.3969e-05
22490.0 6.3566e-05
22510.0 6.3064e-05
22530.0 6.2422e-05
22550.0 6.1641e-05
22570.0 6.0774e-05
22590.0 5.9796e-05
22610.0 5.8672e-05
22630.0 5.7455e-05
22650.0 5.6197e-05
22670.0 5.4806e-05
22690.0 5.332e-05
22710.0 5.1822e-05
22730.0 5.0278e-05
22750.0 4.8604e-05
22770.0 4.6968e-05
22790.0 4.5371e-05
22810.0 4.3731e-05
