#lamb flux
1010.0 7.798e-06
1030.0 8.7786e-06
1050.0 9.8402e-06
1070.0 1.1041e-05
1090.0 1.2433e-05
1110.0 1.3869e-05
1130.0 1.5326e-05
1150.0 1.6867e-05
1170.0 1.8476e-05
1190.0 2.0032e-05
1210.0 2.1641e-05
1230.0 2.3336e-05
1250.0 2.5039e-05
1270.0 2.6744e-05
1290.0 2.8586e-05
1310.0 3.0482e-05
1330.0 3.2367e-05
1350.0 3.4326e-05
1370.0 3.639e-05
1390.0 3.8465e-05
1410.0 4.0539e-05
1430.0 4.2729e-05
1450.0 4.4958e-05
1470.0 4.7161e-05
1490.0 4.9408e-05
1510.0 5.1773e-05
1530.0 5.4054e-05
1550.0 5.6316e-05
1570.0 5.8636e-05
1590.0 6.0948e-05
1610.0 6.3156e-05
1630.0 6.5382e-05
1650.0 6.7619e-05
1670.0 6.9747e-05
1690.0 7.1795e-05
1710.0 7.3849e-05
1730.0 7.584e-05
1750.0 7.7635e-05
1770.0 7.9396e-05
1790.0 8.1099e-05
1810.0 8.2642e-05
1830.0 8.4049e-05
1850.0 8.5458e-05
1870.0 8.6708e-05
1890.0 8.7785e-05
1910.0 8.8785e-05
1930.0 8.9714e-05
1950.0 9.0447e-05
1970.0 9.1047e-05
1990.0 9.1596e-05
2010.0 9.2002e-05
2030.0 9.2234e-05
2050.0 9.2399e-05
2070.0 9.2485e-05
2090.0 9.2358e-05
2110.0 9.2106e-05
2130.0 9.1776e-05
2150.0 9.1292e-05
2170.0 9.0621e-05
2190.0 8.9878e-05
2210.0 8.9019e-05
2230.0 8.7982e-05
2250.0 8.6821e-05
2270.0 8.5601e-05
2290.0 8.4229e-05
2310.0 8.2704e-05
2330.0 8.1118e-05
2350.0 7.9447e-05
2370.0 7.7645e-05
2390.0 7.577e-05
2410.0 7.3852e-05
2430.0 7.1807e-05
2450.0 6.9638e-05
2470.0 6.7371e-05
2490.0 6.4984e-05
2510.0 6.2486e-05
2530.0 6.0015e-05
2550.0 5.7767e-05
2570.0 5.5994e-05
2590.0 5.4961e-05
2610.0 5.5186e-05
2630.0 5.682e-05
2650.0 5.9583e-05
2670.0 6.3458e-05
2690.0 6.8145e-05
2710.0 7.2557e-05
2730.0 7.6138e-05
2750.0 7.8885e-05
2770.0 8.0089e-05
2790.0 7.96e-05
2810.0 7.7719e-05
2830.0 7.4562e-05
2850.0 7.0347e-05
2870.0 6.5457e-05
2890.0 6.0037e-05
2910.0 5.4305e-05
2930.0 4.8517e-05
2950.0 4.2568e-05
2970.0 3.6527e-05
2990.0 3.0602e-05
3010.0 5.5703e-05
3030.0 4.2358e-05
3050.0 2.9034e-05
3070.0 1.609e-05
3090.0 1.2117e-05
3110.0 1.2117e-05
3130.0 1.2117e-05
3150.0 1.2117e-05
3170.0 1.2117e-05
3190.0 1.2117e-05
3210.0 5.0955e-05
3230.0 0.00023778
3250.0 0.00047482
3270.0 0.00051625
3290.0 0.00063845
3310.0 0.00053805
3330.0 0.0005541
3350.0 0.00061298
3370.0 0.00069367
3390.0 0.00078669
3410.0 0.00088585
3430.0 0.0010067
3450.0 0.0011342
3470.0 0.0012687
3490.0 0.0013688
3510.0 0.0014193
3530.0 0.0015009
3550.0 0.0015409
3570.0 0.0015007
3590.0 0.0015819
3610.0 0.0015127
3630.0 0.0018531
3650.0 0.0020985
3670.0 0.0022513
3690.0 0.0020739
3710.0 0.0016333
3730.0 0.0014812
3750.0 0.0012928
3770.0 0.0011481
3790.0 0.0010055
3810.0 0.000981
3830.0 0.0012073
3850.0 0.00047717
3870.0 0.0011139
3890.0 0.0013551
3910.0 0.0014398
3930.0 0.001713
3950.0 0.0018638
3970.0 0.0022168
3990.0 0.0027413
4010.0 0.0019195
4030.0 0.0015476
4050.0 0.0012831
4070.0 0.0013865
4090.0 0.0021594
4110.0 0.0019983
4130.0 0.0021128
4150.0 0.0019765
4170.0 0.0018926
4190.0 0.0017438
4210.0 0.0025927
4230.0 0.0026991
4250.0 0.0029023
4270.0 0.0027087
4290.0 0.0027946
4310.0 0.0031891
4330.0 0.0037284
4350.0 0.003652
4370.0 0.0034976
4390.0 0.0030539
4410.0 0.0028352
4430.0 0.0022685
4450.0 0.0019577
4470.0 0.0022147
4490.0 0.0026792
4510.0 0.0027838
4530.0 0.0029488
4550.0 0.0031481
4570.0 0.0043479
4590.0 0.0063202
4610.0 0.0075168
4630.0 0.0074993
4650.0 0.0075773
4670.0 0.00846
4690.0 0.0092998
4710.0 0.0076166
4730.0 0.0057818
4750.0 0.0046392
4770.0 0.0042006
4790.0 0.0040519
4810.0 0.0038783
4830.0 0.0042617
4850.0 0.004883
4870.0 0.0053818
4890.0 0.0055216
4910.0 0.0049745
4930.0 0.0052364
4950.0 0.0065395
4970.0 0.0080005
4990.0 0.0083778
5010.0 0.0076857
5030.0 0.0063393
5050.0 0.0047741
5070.0 0.0037771
5090.0 0.0033891
5110.0 0.0033083
5130.0 0.0033897
5150.0 0.003384
5170.0 0.0033142
5190.0 0.003163
5210.0 0.0031128
5230.0 0.0034558
5250.0 0.0038933
5270.0 0.0046524
5290.0 0.0054394
5310.0 0.0056797
5330.0 0.0060581
5350.0 0.0067717
5370.0 0.0073018
5390.0 0.0067327
5410.0 0.0059905
5430.0 0.0057816
5450.0 0.006698
5470.0 0.0084528
5490.0 0.010136
5510.0 0.010965
5530.0 0.010914
5550.0 0.010448
5570.0 0.010173
5590.0 0.0099383
5610.0 0.0099609
5630.0 0.0099763
5650.0 0.010017
5670.0 0.010109
5690.0 0.0095409
5710.0 0.0081233
5730.0 0.0071857
5750.0 0.0067065
5770.0 0.0068741
5790.0 0.007243
5810.0 0.0077138
5830.0 0.007988
5850.0 0.0077208
5870.0 0.0072516
5890.0 0.0068479
5910.0 0.0070683
5930.0 0.0076039
5950.0 0.007341
5970.0 0.0066423
5990.0 0.0056925
6010.0 0.0046491
6030.0 0.0041366
6050.0 0.0043548
6070.0 0.0047421
6090.0 0.0047417
6110.0 0.0042004
6130.0 0.0041568
6150.0 0.0047444
6170.0 0.0055618
6190.0 0.0063018
6210.0 0.0064154
6230.0 0.0062366
6250.0 0.0057272
6270.0 0.0048769
6290.0 0.0040631
6310.0 0.0035424
6330.0 0.003403
6350.0 0.0035162
6370.0 0.0035409
6390.0 0.0038114
6410.0 0.0046251
6430.0 0.00586
6450.0 0.0069071
6470.0 0.0072779
6490.0 0.0071352
6510.0 0.0072665
6530.0 0.0075789
6550.0 0.0075121
6570.0 0.0077607
6590.0 0.0078637
6610.0 0.0079696
6630.0 0.0080012
6650.0 0.0076566
6670.0 0.0070482
6690.0 0.0062698
6710.0 0.0057522
6730.0 0.0057669
6750.0 0.0060539
6770.0 0.0062776
6790.0 0.0064294
6810.0 0.0065043
6830.0 0.0063696
6850.0 0.0061461
6870.0 0.005777
6890.0 0.0056206
6910.0 0.005342
6930.0 0.0054534
6950.0 0.0058582
6970.0 0.0060666
6990.0 0.006244
7010.0 0.0061351
7030.0 0.0056886
7050.0 0.0050057
7070.0 0.0043017
7090.0 0.0038452
7110.0 0.0037811
7130.0 0.0038663
7150.0 0.0036032
7170.0 0.0033669
7190.0 0.0035303
7210.0 0.0039656
7230.0 0.0046019
7250.0 0.0050002
7270.0 0.0050488
7290.0 0.0046459
7310.0 0.0042234
7330.0 0.0039694
7350.0 0.003954
7370.0 0.0040498
7390.0 0.0042134
7410.0 0.0045944
7430.0 0.0053286
7450.0 0.006116
7470.0 0.0066227
7490.0 0.0066617
7510.0 0.0062961
7530.0 0.0052386
7550.0 0.0045787
7570.0 0.00396
7590.0 0.0036466
7610.0 0.0037859
7630.0 0.0041957
7650.0 0.0046973
7670.0 0.0051565
7690.0 0.0054408
7710.0 0.0057667
7730.0 0.0061214
7750.0 0.0064318
7770.0 0.0063707
7790.0 0.0063605
7810.0 0.0064939
7830.0 0.0065889
7850.0 0.0063946
7870.0 0.0061178
7890.0 0.0059764
7910.0 0.0056494
7930.0 0.0055359
7950.0 0.0052566
7970.0 0.0051382
7990.0 0.0049995
8010.0 0.0051707
8030.0 0.0051922
8050.0 0.005242
8070.0 0.0051723
8090.0 0.0051348
8110.0 0.0049066
8130.0 0.0048679
8150.0 0.0047647
8170.0 0.004619
8190.0 0.0045243
8210.0 0.0045263
8230.0 0.0043602
8250.0 0.0041881
8270.0 0.0037101
8290.0 0.0029808
8310.0 0.0022131
8330.0 0.0016718
8350.0 0.0015286
8370.0 0.0018121
8390.0 0.0021971
8410.0 0.0024029
8430.0 0.0025095
8450.0 0.0026256
8470.0 0.0027736
8490.0 0.0030856
8510.0 0.0035035
8530.0 0.0040564
8550.0 0.0046386
8570.0 0.0051495
8590.0 0.0055489
8610.0 0.0058103
8630.0 0.0058895
8650.0 0.00586
8670.0 0.0058477
8690.0 0.0060787
8710.0 0.0063595
8730.0 0.0065783
8750.0 0.0065195
8770.0 0.0065724
8790.0 0.006504
8810.0 0.0060687
8830.0 0.0057753
8850.0 0.0053633
8870.0 0.0050289
8890.0 0.0048764
8910.0 0.004908
8930.0 0.0046389
8950.0 0.0043752
8970.0 0.0042636
8990.0 0.0041966
9010.0 0.0040386
9030.0 0.0039465
9050.0 0.0039175
9070.0 0.003904
9090.0 0.0038918
9110.0 0.0038801
9130.0 0.003868
9150.0 0.0038561
9170.0 0.0038415
9190.0 0.0038282
9210.0 0.0038377
9230.0 0.0038182
9250.0 0.0038022
9270.0 0.0037879
9290.0 0.0037748
9310.0 0.003762
9330.0 0.0037496
9350.0 0.0037379
9370.0 0.0037262
9390.0 0.0037143
9410.0 0.0037026
9430.0 0.0036908
9450.0 0.0036754
9470.0 0.0036612
9490.0 0.003653
9510.0 0.0036429
9530.0 0.0036323
9550.0 0.0036215
9570.0 0.0036104
9590.0 0.0035991
9610.0 0.0035878
9630.0 0.0035765
9650.0 0.0035652
9670.0 0.0035537
9690.0 0.0035424
9710.0 0.0035311
9730.0 0.0035197
9750.0 0.0035083
9770.0 0.0034971
9790.0 0.0034857
9810.0 0.0034743
9830.0 0.0034629
9850.0 0.0034516
9870.0 0.0034401
9890.0 0.0034286
9910.0 0.0034171
9930.0 0.0034051
9950.0 0.0033657
9970.0 0.0033623
9990.0 0.0033572
10010.0 0.0033512
10030.0 0.0033428
10050.0 0.0033325
10070.0 0.0033216
10090.0 0.003311
10110.0 0.0032986
10130.0 0.0032872
10150.0 0.0032753
10170.0 0.0032624
10190.0 0.0032487
10210.0 0.003236
10230.0 0.0032237
10250.0 0.0032102
10270.0 0.0031968
10290.0 0.0031842
10310.0 0.0031705
10330.0 0.0031559
10350.0 0.0031423
10370.0 0.0031287
10390.0 0.0031139
10410.0 0.0030991
10430.0 0.0030854
10450.0 0.0030704
10470.0 0.0030547
10490.0 0.0030398
10510.0 0.0030248
10530.0 0.0030079
10550.0 0.0029916
10570.0 0.002976
10590.0 0.0029593
10610.0 0.0029419
10630.0 0.0029254
10650.0 0.0029086
10670.0 0.0028901
10690.0 0.002872
10710.0 0.0028545
10730.0 0.0028357
10750.0 0.0028157
10770.0 0.0027973
10790.0 0.0027783
10810.0 0.002758
10830.0 0.0027379
10850.0 0.0027185
10870.0 0.0026969
10890.0 0.0026748
10910.0 0.0026532
10930.0 0.0026305
10950.0 0.0026054
10970.0 0.0025797
10990.0 0.0025537
11010.0 0.0025609
11030.0 0.0025285
11050.0 0.0024971
11070.0 0.0024653
11090.0 0.0024317
11110.0 0.0024011
11130.0 0.0023719
11150.0 0.0023425
11170.0 0.002314
11190.0 0.0022879
11210.0 0.0022615
11230.0 0.0022347
11250.0 0.0022093
11270.0 0.0021846
11290.0 0.0021588
11310.0 0.0021331
11330.0 0.0021092
11350.0 0.0020846
11370.0 0.0020591
11390.0 0.0020343
11410.0 0.0020096
11430.0 0.0019825
11450.0 0.0019551
11470.0 0.0019277
11490.0 0.0018985
11510.0 0.0018668
11530.0 0.0018353
11550.0 0.0018028
11570.0 0.0017675
11590.0 0.0017315
11610.0 0.0016957
11630.0 0.0016577
11650.0 0.0016181
11670.0 0.0015801
11690.0 0.0015421
11710.0 0.0015031
11730.0 0.001465
11750.0 0.0014293
11770.0 0.0013932
11790.0 0.0013577
11810.0 0.0013247
11830.0 0.0012931
11850.0 0.0012612
11870.0 0.0012318
11890.0 0.0012046
11910.0 0.0011778
11930.0 0.001152
11950.0 0.0011283
11970.0 0.0011054
11990.0 0.0010825
12010.0 0.0010613
12030.0 0.0010414
12050.0 0.0010219
12070.0 0.0010031
12090.0 0.00098648
12110.0 0.00097073
12130.0 0.00095581
12150.0 0.00094261
12170.0 0.00093121
12190.0 0.00092073
12210.0 0.00091212
12230.0 0.00090558
12250.0 0.00090075
12270.0 0.00089776
12290.0 0.00089682
12310.0 0.00089776
12330.0 0.00090072
12350.0 0.0009057
12370.0 0.00091236
12390.0 0.00092093
12410.0 0.00093191
12430.0 0.00094396
12450.0 0.00095729
12470.0 0.00097241
12490.0 0.0009886
12510.0 0.0010048
12530.0 0.0010219
12550.0 0.0010395
12570.0 0.0010563
12590.0 0.0010721
12610.0 0.0010875
12630.0 0.0011013
12650.0 0.0011124
12670.0 0.0011218
12690.0 0.0011289
12710.0 0.0011331
12730.0 0.0011348
12750.0 0.0011338
12770.0 0.0011302
12790.0 0.0011243
12810.0 0.0011161
12830.0 0.0011057
12850.0 0.0010943
12870.0 0.0010817
12890.0 0.0010678
12910.0 0.0010536
12930.0 0.0010395
12950.0 0.0010249
12970.0 0.0010103
12990.0 0.0009966
13010.0 0.00098328
13030.0 0.00096998
13050.0 0.00095728
13070.0 0.00094535
13090.0 0.00093326
13110.0 0.0009213
13130.0 0.00090985
13150.0 0.0008985
13170.0 0.00088673
13190.0 0.00087543
13210.0 0.00086462
13230.0 0.00085377
13250.0 0.00084327
13270.0 0.00083371
13290.0 0.00082478
13310.0 0.00081653
13330.0 0.00080966
13350.0 0.00080411
13370.0 0.00079979
13390.0 0.00079685
13410.0 0.00079527
13430.0 0.00079474
13450.0 0.00079511
13470.0 0.00079598
13490.0 0.00079697
13510.0 0.00079786
13530.0 0.00079808
13550.0 0.0007973
13570.0 0.0007953
13590.0 0.00079174
13610.0 0.00078668
13630.0 0.00078023
13650.0 0.00077204
13670.0 0.00076252
13690.0 0.00075224
13710.0 0.00074103
13730.0 0.00072875
13750.0 0.00071695
13770.0 0.00070537
13790.0 0.00069383
13810.0 0.00068297
13830.0 0.00067329
13850.0 0.00066418
13870.0 0.00065589
13890.0 0.00064881
13910.0 0.00064269
13930.0 0.00063722
13950.0 0.0006326
13970.0 0.00062881
13990.0 0.00062545
14010.0 0.00062248
14030.0 0.0006199
14050.0 0.0006175
14070.0 0.00061507
14090.0 0.00061265
14110.0 0.00061014
14130.0 0.00060737
14150.0 0.00060424
14170.0 0.00060091
14190.0 0.00059726
14210.0 0.00059315
14230.0 0.0005888
14250.0 0.00058436
14270.0 0.0005796
14290.0 0.00057473
14310.0 0.00057015
14330.0 0.00056573
14350.0 0.00056148
14370.0 0.00055771
14390.0 0.00055448
14410.0 0.00055163
14430.0 0.00054929
14450.0 0.00054752
14470.0 0.00054619
14490.0 0.00054527
14510.0 0.00054476
14530.0 0.00054456
14550.0 0.00054465
14570.0 0.00054502
14590.0 0.00054562
14610.0 0.00054651
14630.0 0.00054778
14650.0 0.00054938
14670.0 0.00055135
14690.0 0.00055386
14710.0 0.00055695
14730.0 0.00056036
14750.0 0.0005644
14770.0 0.00056917
14790.0 0.00057443
14810.0 0.00058018
14830.0 0.00058706
14850.0 0.00059461
14870.0 0.0006026
14890.0 0.00061142
14910.0 0.00062106
14930.0 0.0006306
14950.0 0.00063979
14970.0 0.00064879
14990.0 0.00065661
15010.0 0.00066281
15030.0 0.00066762
15050.0 0.00067104
15070.0 0.00067296
15090.0 0.00067394
15110.0 0.00067428
15130.0 0.00067418
15150.0 0.00067385
15170.0 0.0006734
15190.0 0.0006729
15210.0 0.00067238
15230.0 0.00067186
15250.0 0.00067133
15270.0 0.0006708
15290.0 0.00067029
15310.0 0.00066977
15330.0 0.00066926
15350.0 0.00066875
15370.0 0.00066825
15390.0 0.00066774
15410.0 0.00066724
15430.0 0.00066675
15450.0 0.00066625
15470.0 0.00066575
15490.0 0.00066526
15510.0 0.00066478
15530.0 0.00066429
15550.0 0.0006638
15570.0 0.00066332
15590.0 0.00066283
15610.0 0.00066234
15630.0 0.00066187
15650.0 0.00066139
15670.0 0.0006609
15690.0 0.00066042
15710.0 0.00065995
15730.0 0.00065947
15750.0 0.00065899
15770.0 0.00065851
15790.0 0.00065804
15810.0 0.00065754
15830.0 0.00065706
15850.0 0.00065659
15870.0 0.0006561
15890.0 0.00065561
15910.0 0.00065514
15930.0 0.00065465
15950.0 0.00065415
15970.0 0.00065366
15990.0 0.00065318
16010.0 0.00065268
16030.0 0.00065217
16050.0 0.00065168
16070.0 0.00065118
16090.0 0.00065067
16110.0 0.00065016
16130.0 0.00064966
16150.0 0.00064913
16170.0 0.00064861
16190.0 0.00064809
16210.0 0.00064756
16230.0 0.00064702
16250.0 0.00064649
16270.0 0.00064596
16290.0 0.00064541
16310.0 0.00064485
16330.0 0.00064431
16350.0 0.00064375
16370.0 0.00064316
16390.0 0.0006426
16410.0 0.00064203
16430.0 0.00064144
16450.0 0.00064084
16470.0 0.00064026
16490.0 0.00063965
16510.0 0.00063903
16530.0 0.00063842
16550.0 0.0006378
16570.0 0.00063716
16590.0 0.00063651
16610.0 0.00063588
16630.0 0.00063522
16650.0 0.00063455
16670.0 0.00063389
16690.0 0.00063321
16710.0 0.00063251
16730.0 0.00063181
16750.0 0.00063111
16770.0 0.00063039
16790.0 0.00062966
16810.0 0.00062893
16830.0 0.00062819
16850.0 0.00062743
16870.0 0.00062667
16890.0 0.0006259
16910.0 0.00062511
16930.0 0.00062431
16950.0 0.00062351
16970.0 0.0006227
16990.0 0.00062186
17010.0 0.00062103
17030.0 0.00062019
17050.0 0.00061932
17070.0 0.00061845
17090.0 0.00061757
17110.0 0.00061668
17130.0 0.00061576
17150.0 0.00061484
17170.0 0.00061392
17190.0 0.00061297
17210.0 0.00061201
17230.0 0.00061106
17250.0 0.00061008
17270.0 0.00060908
17290.0 0.00060808
17310.0 0.00060706
17330.0 0.00060603
17350.0 0.00060498
17370.0 0.00060394
17390.0 0.00060287
17410.0 0.00060179
17430.0 0.0006007
17450.0 0.0005996
17470.0 0.00059847
17490.0 0.00059734
17510.0 0.0005962
17530.0 0.00059504
17550.0 0.00059387
17570.0 0.00059269
17590.0 0.0005915
17610.0 0.00059029
17630.0 0.00058907
17650.0 0.00058784
17670.0 0.00058659
17690.0 0.00058532
17710.0 0.00058405
17730.0 0.00058277
17750.0 0.00058147
17770.0 0.00058016
17790.0 0.00057885
17810.0 0.00057751
17830.0 0.00057616
17850.0 0.0005748
17870.0 0.00057344
17890.0 0.00057205
17910.0 0.00057065
17930.0 0.00056925
17950.0 0.00056783
17970.0 0.0005664
17990.0 0.00056496
18010.0 0.00056352
18030.0 0.00056204
18050.0 0.00056057
18070.0 0.00055909
18090.0 0.00055759
18110.0 0.00055608
18130.0 0.00055457
18150.0 0.00055305
18170.0 0.0005515
18190.0 0.00054996
18210.0 0.00054841
18230.0 0.00054684
18250.0 0.00054526
18270.0 0.00054368
18290.0 0.00054209
18310.0 0.00054048
18330.0 0.00053887
18350.0 0.00053726
18370.0 0.00053563
18390.0 0.00053399
18410.0 0.00053236
18430.0 0.00053071
18450.0 0.00052904
18470.0 0.00052738
18490.0 0.00052572
18510.0 0.00052403
18530.0 0.00052235
18550.0 0.00052067
18570.0 0.00051897
18590.0 0.00051726
18610.0 0.00051556
18630.0 0.00051385
18650.0 0.00051213
18670.0 0.0005104
18690.0 0.00050869
18710.0 0.00050696
18730.0 0.00050522
18750.0 0.00050348
18770.0 0.00050175
18790.0 0.00049999
18810.0 0.00049824
18830.0 0.0004965
18850.0 0.00049474
18870.0 0.00049298
18890.0 0.00049123
18910.0 0.00048947
18930.0 0.00048771
18950.0 0.00048594
18970.0 0.00048418
18990.0 0.00048242
19010.0 0.00048064
19030.0 0.00047888
19050.0 0.00047712
19070.0 0.00047535
19090.0 0.00047358
19110.0 0.00047182
19130.0 0.00047005
19150.0 0.00046828
19170.0 0.00046652
19190.0 0.00046476
19210.0 0.00046299
19230.0 0.00046122
19250.0 0.00045947
19270.0 0.00045771
19290.0 0.00045596
19310.0 0.00045421
19330.0 0.00045246
19350.0 0.00045071
19370.0 0.00044896
19390.0 0.00044723
19410.0 0.00044548
19430.0 0.00044375
19450.0 0.00044202
19470.0 0.0004403
19490.0 0.00043857
19510.0 0.00043685
19530.0 0.00043514
19550.0 0.00043342
19570.0 0.00043171
19590.0 0.00043001
19610.0 0.00042832
19630.0 0.00042662
19650.0 0.00042494
19670.0 0.00042326
19690.0 0.00042158
19710.0 0.00041991
19730.0 0.00041825
19750.0 0.00041659
19770.0 0.00041493
19790.0 0.00041328
19810.0 0.00041164
19830.0 0.00040999
19850.0 0.00040833
19870.0 0.00040665
19890.0 0.00040489
19910.0 0.00040297
19930.0 0.00040083
19950.0 0.00039835
19970.0 0.00039532
19990.0 0.00039164
20010.0 0.0003874
20030.0 0.00038234
20050.0 0.00037653
20070.0 0.0003703
20090.0 0.00036372
20110.0 0.00035655
20130.0 0.00034943
20150.0 0.00034253
20170.0 0.00033556
20190.0 0.00032865
20210.0 0.00032217
20230.0 0.00031591
20250.0 0.00030966
20270.0 0.00030377
20290.0 0.00029825
20310.0 0.00029283
20330.0 0.00028751
20350.0 0.00028271
20370.0 0.00027807
20390.0 0.00027354
20410.0 0.00026928
20430.0 0.00026534
20450.0 0.00026144
20470.0 0.00025778
20490.0 0.00025443
20510.0 0.00025129
20530.0 0.00024832
20550.0 0.00024564
20570.0 0.00024326
20590.0 0.00024106
20610.0 0.00023912
20630.0 0.00023745
20650.0 0.00023601
20670.0 0.00023479
20690.0 0.00023381
20710.0 0.00023303
20730.0 0.00023245
20750.0 0.00023204
20770.0 0.00023176
20790.0 0.00023162
20810.0 0.0002316
20830.0 0.00023163
20850.0 0.00023171
20870.0 0.00023184
20890.0 0.00023197
20910.0 0.00023203
20930.0 0.00023205
20950.0 0.000232
20970.0 0.00023183
20990.0 0.00023154
21010.0 0.00023113
21030.0 0.00023056
21050.0 0.00022983
21070.0 0.00022894
21090.0 0.00022787
21110.0 0.00022666
21130.0 0.0002253
21150.0 0.00022377
21170.0 0.0002221
21190.0 0.00022036
21210.0 0.00021846
21230.0 0.00021643
21250.0 0.00021437
21270.0 0.00021225
21290.0 0.00021002
21310.0 0.00020778
21330.0 0.00020558
21350.0 0.00020333
21370.0 0.00020107
21390.0 0.00019889
21410.0 0.00019678
21430.0 0.00019464
21450.0 0.00019264
21470.0 0.00019079
21490.0 0.00018902
21510.0 0.00018738
21530.0 0.00018593
21550.0 0.00018463
21570.0 0.00018349
21590.0 0.00018254
21610.0 0.00018179
21630.0 0.00018123
21650.0 0.00018086
21670.0 0.00018067
21690.0 0.00018065
21710.0 0.00018081
21730.0 0.00018111
21750.0 0.00018151
21770.0 0.00018207
21790.0 0.00018272
21810.0 0.00018339
21830.0 0.00018412
21850.0 0.00018491
21870.0 0.00018566
21890.0 0.00018635
21910.0 0.00018704
21930.0 0.00018768
21950.0 0.00018819
21970.0 0.00018864
21990.0 0.00018904
22010.0 0.00018929
22030.0 0.00018943
22050.0 0.00018948
22070.0 0.00018943
22090.0 0.00018927
22110.0 0.00018902
22130.0 0.00018869
22150.0 0.00018826
22170.0 0.00018776
22190.0 0.00018718
22210.0 0.00018653
22230.0 0.00018582
22250.0 0.00018504
22270.0 0.00018418
22290.0 0.00018327
22310.0 0.0001823
22330.0 0.00018122
22350.0 0.00018008
22370.0 0.00017888
22390.0 0.00017757
22410.0 0.00017613
22430.0 0.00017464
22450.0 0.00017307
22470.0 0.00017134
22490.0 0.00016952
22510.0 0.00016766
22530.0 0.00016563
22550.0 0.00016348
22570.0 0.00016132
22590.0 0.0001591
22610.0 0.00015676
22630.0 0.00015441
22650.0 0.00015212
22670.0 0.00014976
22690.0 0.0001474
22710.0 0.00014515
22730.0 0.00014295
22750.0 0.00014072
22770.0 0.00013866
22790.0 0.00013674
22810.0 0.00013487
22830.0 0.00013311
22850.0 0.00013153
22870.0 0.00013004
22890.0 0.00012862
22910.0 0.00012735
22930.0 0.0001262
22950.0 0.00012511
22970.0 0.0001241
22990.0 0.00012321
23010.0 0.00012236
23030.0 0.00012155
23050.0 0.00012079
23070.0 0.00012007
23090.0 0.00011933
