#lamb flux
1010.0 2.1247e-10
1030.0 2.6706e-10
1050.0 3.2969e-10
1070.0 4.0003e-10
1090.0 4.797e-10
1110.0 5.611e-10
1130.0 6.4268e-10
1150.0 7.2781e-10
1170.0 8.1527e-10
1190.0 8.9775e-10
1210.0 9.8108e-10
1230.0 1.067e-09
1250.0 1.151e-09
1270.0 1.2324e-09
1290.0 1.3187e-09
1310.0 1.4051e-09
1330.0 1.4884e-09
1350.0 1.5731e-09
1370.0 1.6612e-09
1390.0 1.7478e-09
1410.0 1.8326e-09
1430.0 1.922e-09
1450.0 2.0122e-09
1470.0 2.1003e-09
1490.0 2.1899e-09
1510.0 2.2849e-09
1530.0 2.3756e-09
1550.0 2.4655e-09
1570.0 2.5586e-09
1590.0 2.6519e-09
1610.0 2.7414e-09
1630.0 2.8335e-09
1650.0 2.9278e-09
1670.0 3.0191e-09
1690.0 3.1091e-09
1710.0 3.2023e-09
1730.0 3.2959e-09
1750.0 3.3839e-09
1770.0 3.4744e-09
1790.0 3.5665e-09
1810.0 3.6556e-09
1830.0 3.7432e-09
1850.0 3.8352e-09
1870.0 3.9241e-09
1890.0 4.0103e-09
1910.0 4.0985e-09
1930.0 4.1892e-09
1950.0 4.2763e-09
1970.0 4.3627e-09
1990.0 4.4527e-09
2010.0 4.5415e-09
2030.0 4.6276e-09
2050.0 4.7167e-09
2070.0 4.8086e-09
2090.0 4.8958e-09
2110.0 4.9833e-09
2130.0 5.0739e-09
2150.0 5.1634e-09
2170.0 5.2497e-09
2190.0 5.3397e-09
2210.0 5.4302e-09
2230.0 5.5171e-09
2250.0 5.6042e-09
2270.0 5.6957e-09
2290.0 5.7851e-09
2310.0 5.8717e-09
2330.0 5.9615e-09
2350.0 6.0527e-09
2370.0 6.1408e-09
2390.0 6.2302e-09
2410.0 6.3242e-09
2430.0 6.4172e-09
2450.0 6.5118e-09
2470.0 6.617e-09
2490.0 6.7398e-09
2510.0 6.8816e-09
2530.0 7.0657e-09
2550.0 7.321e-09
2570.0 7.6645e-09
2590.0 8.1191e-09
2610.0 8.769e-09
2630.0 9.6307e-09
2650.0 1.0684e-08
2670.0 1.1985e-08
2690.0 1.3559e-08
2710.0 1.5284e-08
2730.0 1.7098e-08
2750.0 1.9061e-08
2770.0 2.1009e-08
2790.0 2.2821e-08
2810.0 2.4523e-08
2830.0 2.6118e-08
2850.0 2.7459e-08
2870.0 2.8647e-08
2890.0 2.9754e-08
2910.0 3.079e-08
2930.0 3.1773e-08
2950.0 3.2783e-08
2970.0 3.3834e-08
2990.0 3.4907e-08
3010.0 3.6025e-08
3030.0 3.7219e-08
3050.0 3.847e-08
3070.0 3.9743e-08
3090.0 4.1091e-08
3110.0 4.2525e-08
3130.0 4.4064e-08
3150.0 4.5818e-08
3170.0 4.8052e-08
3190.0 5.0959e-08
3210.0 5.4763e-08
3230.0 5.982e-08
3250.0 6.6232e-08
3270.0 7.2315e-08
3290.0 8.1997e-08
3310.0 1.0189e-07
3330.0 1.0849e-07
3350.0 1.1173e-07
3370.0 1.1485e-07
3390.0 1.1801e-07
3410.0 1.2122e-07
3430.0 1.2445e-07
3450.0 1.2768e-07
3470.0 1.3086e-07
3490.0 1.3392e-07
3510.0 1.3671e-07
3530.0 1.3551e-07
3550.0 1.3176e-07
3570.0 1.3367e-07
3590.0 1.4205e-07
3610.0 1.5479e-07
3630.0 1.5979e-07
3650.0 1.5345e-07
3670.0 1.4097e-07
3690.0 1.3374e-07
3710.0 1.3547e-07
3730.0 1.3993e-07
3750.0 1.4232e-07
3770.0 1.4711e-07
3790.0 1.5247e-07
3810.0 1.5028e-07
3830.0 1.4006e-07
3850.0 1.3093e-07
3870.0 1.2661e-07
3890.0 1.2513e-07
3910.0 1.2231e-07
3930.0 1.2089e-07
3950.0 1.2429e-07
3970.0 1.2827e-07
3990.0 1.2944e-07
4010.0 1.2466e-07
4030.0 1.1788e-07
4050.0 1.1353e-07
4070.0 1.0984e-07
4090.0 1.0685e-07
4110.0 1.0293e-07
4130.0 9.6772e-08
4150.0 9.0583e-08
4170.0 8.6911e-08
4190.0 8.1031e-08
4210.0 7.336e-08
4230.0 6.5592e-08
4250.0 5.8223e-08
4270.0 5.2727e-08
4290.0 4.8649e-08
4310.0 4.6493e-08
4330.0 4.6417e-08
4350.0 4.6625e-08
4370.0 4.7071e-08
4390.0 4.8798e-08
4410.0 4.9992e-08
4430.0 4.8247e-08
4450.0 4.3811e-08
4470.0 3.9941e-08
4490.0 3.783e-08
4510.0 3.6478e-08
4530.0 3.5804e-08
4550.0 3.5226e-08
4570.0 3.5079e-08
4590.0 3.5561e-08
4610.0 3.6664e-08
4630.0 3.7323e-08
4650.0 3.7653e-08
4670.0 3.6737e-08
4690.0 3.4557e-08
4710.0 3.2382e-08
4730.0 3.0979e-08
4750.0 3.0115e-08
4770.0 3.022e-08
4790.0 3.0102e-08
4810.0 2.9456e-08
4830.0 2.951e-08
4850.0 3.0432e-08
4870.0 3.0734e-08
4890.0 3.018e-08
4910.0 2.9485e-08
4930.0 2.7808e-08
4950.0 2.538e-08
4970.0 2.3722e-08
4990.0 2.2362e-08
5010.0 2.207e-08
5030.0 2.2814e-08
5050.0 2.3399e-08
5070.0 2.4273e-08
5090.0 2.5741e-08
5110.0 2.6134e-08
5130.0 2.6361e-08
5150.0 2.6849e-08
5170.0 2.7072e-08
5190.0 2.7782e-08
5210.0 2.7927e-08
5230.0 2.7639e-08
5250.0 2.7864e-08
5270.0 2.8254e-08
5290.0 2.8331e-08
5310.0 2.8119e-08
5330.0 2.7585e-08
5350.0 2.7207e-08
5370.0 2.6918e-08
5390.0 2.6563e-08
5410.0 2.6267e-08
5430.0 2.626e-08
5450.0 2.6643e-08
5470.0 2.7138e-08
5490.0 2.7899e-08
5510.0 2.8745e-08
5530.0 2.9099e-08
5550.0 2.9535e-08
5570.0 2.9593e-08
5590.0 2.8972e-08
5610.0 2.8761e-08
5630.0 2.8981e-08
5650.0 2.8629e-08
5670.0 2.7995e-08
5690.0 2.7153e-08
5710.0 2.7087e-08
5730.0 2.737e-08
5750.0 2.6203e-08
5770.0 2.4859e-08
5790.0 2.2845e-08
5810.0 1.9975e-08
5830.0 2.1539e-08
5850.0 2.3858e-08
5870.0 2.438e-08
5890.0 2.4512e-08
5910.0 2.4706e-08
5930.0 2.4656e-08
5950.0 2.4245e-08
5970.0 2.3955e-08
5990.0 2.3606e-08
6010.0 2.2888e-08
6030.0 2.2102e-08
6050.0 2.1757e-08
6070.0 2.1664e-08
6090.0 2.1332e-08
6110.0 2.0618e-08
6130.0 1.9919e-08
6150.0 1.9118e-08
6170.0 1.8317e-08
6190.0 1.7504e-08
6210.0 1.6884e-08
6230.0 1.6637e-08
6250.0 1.6284e-08
6270.0 1.5943e-08
6290.0 1.5816e-08
6310.0 1.5709e-08
6330.0 1.5363e-08
6350.0 1.4864e-08
6370.0 1.4578e-08
6390.0 1.4295e-08
6410.0 1.3894e-08
6430.0 1.3519e-08
6450.0 1.322e-08
6470.0 1.2935e-08
6490.0 1.2737e-08
6510.0 1.2521e-08
6530.0 1.2202e-08
6550.0 1.1931e-08
6570.0 1.175e-08
6590.0 1.1728e-08
6610.0 1.1653e-08
6630.0 1.1263e-08
6650.0 1.0946e-08
6670.0 1.0834e-08
6690.0 1.0664e-08
6710.0 1.0409e-08
6730.0 1.0318e-08
6750.0 1.0398e-08
6770.0 1.102e-08
6790.0 1.2327e-08
6810.0 1.1704e-08
6830.0 1.0272e-08
6850.0 9.8683e-09
6870.0 9.7172e-09
6890.0 9.7187e-09
6910.0 9.7397e-09
6930.0 9.763e-09
6950.0 9.7309e-09
6970.0 9.4841e-09
6990.0 9.3984e-09
7010.0 9.5387e-09
7030.0 9.5817e-09
7050.0 9.4426e-09
7070.0 9.3518e-09
7090.0 9.4168e-09
7110.0 9.6356e-09
7130.0 9.6672e-09
7150.0 9.702e-09
7170.0 9.7538e-09
7190.0 9.8894e-09
7210.0 9.9944e-09
7230.0 1.0098e-08
7250.0 1.0233e-08
7270.0 1.0329e-08
7290.0 1.049e-08
7310.0 1.0686e-08
7330.0 1.0605e-08
7350.0 1.0383e-08
7370.0 1.0238e-08
7390.0 1.021e-08
7410.0 1.0258e-08
7430.0 1.0385e-08
7450.0 1.045e-08
7470.0 1.0594e-08
7490.0 1.0533e-08
7510.0 1.0421e-08
7530.0 1.0541e-08
7550.0 1.0876e-08
7570.0 1.0848e-08
7590.0 1.0286e-08
7610.0 1.0196e-08
7630.0 1.0777e-08
7650.0 1.099e-08
7670.0 1.1071e-08
7690.0 1.1562e-08
7710.0 1.1937e-08
7730.0 1.205e-08
7750.0 1.268e-08
7770.0 1.2352e-08
7790.0 1.2056e-08
7810.0 1.2777e-08
7830.0 1.3263e-08
7850.0 1.3601e-08
7870.0 1.3864e-08
7890.0 1.3974e-08
7910.0 1.3871e-08
7930.0 1.3968e-08
7950.0 1.4597e-08
7970.0 1.4595e-08
7990.0 1.3594e-08
8010.0 1.3099e-08
8030.0 1.3356e-08
8050.0 1.364e-08
8070.0 1.2344e-08
8090.0 8.0983e-09
8110.0 8.45e-09
8130.0 1.2044e-08
8150.0 1.2972e-08
8170.0 1.3487e-08
8190.0 1.3784e-08
8210.0 1.3606e-08
8230.0 1.4744e-08
8250.0 1.5062e-08
8270.0 1.4251e-08
8290.0 1.3691e-08
8310.0 1.3488e-08
8330.0 1.4215e-08
8350.0 1.4887e-08
8370.0 1.461e-08
8390.0 1.3933e-08
8410.0 1.3919e-08
8430.0 1.3043e-08
8450.0 1.3324e-08
8470.0 1.456e-08
8490.0 1.4604e-08
8510.0 1.3542e-08
8530.0 1.2698e-08
8550.0 1.2174e-08
8570.0 1.147e-08
8590.0 1.1798e-08
8610.0 1.2514e-08
8630.0 1.2853e-08
8650.0 1.3075e-08
8670.0 1.2719e-08
8690.0 1.2423e-08
8710.0 1.1559e-08
8730.0 1.1142e-08
8750.0 1.1592e-08
8770.0 1.1772e-08
8790.0 1.1742e-08
8810.0 1.1679e-08
8830.0 1.1925e-08
8850.0 1.2524e-08
8870.0 1.1696e-08
8890.0 1.1028e-08
8910.0 1.0866e-08
8930.0 1.0221e-08
8950.0 9.8419e-09
8970.0 9.8353e-09
8990.0 9.4156e-09
9010.0 8.8387e-09
9030.0 8.6383e-09
9050.0 8.5665e-09
9070.0 8.5026e-09
9090.0 8.4382e-09
9110.0 8.3735e-09
9130.0 8.3084e-09
9150.0 8.2431e-09
9170.0 8.1775e-09
9190.0 8.1119e-09
9210.0 8.0461e-09
9230.0 7.9803e-09
9250.0 7.9144e-09
9270.0 7.8487e-09
9290.0 7.783e-09
9310.0 7.7176e-09
9330.0 7.6524e-09
9350.0 7.5875e-09
9370.0 7.5228e-09
9390.0 7.4584e-09
9410.0 7.3943e-09
9430.0 7.3306e-09
9450.0 7.2673e-09
9470.0 7.2044e-09
9490.0 7.1419e-09
9510.0 7.0799e-09
9530.0 7.0184e-09
9550.0 6.9574e-09
9570.0 6.8968e-09
9590.0 6.8369e-09
9610.0 6.7775e-09
9630.0 6.7187e-09
9650.0 6.6605e-09
9670.0 6.6029e-09
9690.0 6.5458e-09
9710.0 6.4894e-09
9730.0 6.4335e-09
9750.0 6.3783e-09
9770.0 6.3237e-09
9790.0 6.2697e-09
9810.0 6.2163e-09
9830.0 6.1635e-09
9850.0 6.1113e-09
9870.0 6.0597e-09
9890.0 6.0089e-09
9910.0 5.9586e-09
9930.0 5.9089e-09
9950.0 5.8599e-09
9970.0 5.8114e-09
9990.0 5.7636e-09
10010.0 5.7164e-09
10030.0 5.6698e-09
10050.0 5.6237e-09
10070.0 5.5783e-09
10090.0 5.5334e-09
10110.0 5.4891e-09
10130.0 5.4455e-09
10150.0 5.4023e-09
10170.0 5.3597e-09
10190.0 5.3177e-09
10210.0 5.2762e-09
10230.0 5.2353e-09
10250.0 5.1949e-09
10270.0 5.155e-09
10290.0 5.1156e-09
10310.0 5.0767e-09
10330.0 5.0384e-09
10350.0 5.0005e-09
10370.0 4.9631e-09
10390.0 4.9256e-09
10410.0 4.8816e-09
10430.0 4.8356e-09
10450.0 4.8084e-09
10470.0 4.7771e-09
10490.0 4.7453e-09
10510.0 4.713e-09
10530.0 4.6794e-09
10550.0 4.6462e-09
10570.0 4.6139e-09
10590.0 4.5813e-09
10610.0 4.5488e-09
10630.0 4.5174e-09
10650.0 4.4862e-09
10670.0 4.4546e-09
10690.0 4.4238e-09
10710.0 4.3938e-09
10730.0 4.3636e-09
10750.0 4.3331e-09
10770.0 4.3042e-09
10790.0 4.2754e-09
10810.0 4.2463e-09
10830.0 4.2178e-09
10850.0 4.1903e-09
10870.0 4.1619e-09
10890.0 4.1337e-09
10910.0 4.1065e-09
10930.0 4.0792e-09
10950.0 4.0512e-09
10970.0 4.0234e-09
10990.0 3.9962e-09
11010.0 3.9302e-09
11030.0 3.9015e-09
11050.0 3.8732e-09
11070.0 3.8443e-09
11090.0 3.8137e-09
11110.0 3.784e-09
11130.0 3.7544e-09
11150.0 3.7236e-09
11170.0 3.6925e-09
11190.0 3.6623e-09
11210.0 3.6314e-09
11230.0 3.5998e-09
11250.0 3.5693e-09
11270.0 3.5395e-09
11290.0 3.5093e-09
11310.0 3.4799e-09
11330.0 3.4528e-09
11350.0 3.4263e-09
11370.0 3.4005e-09
11390.0 3.3767e-09
11410.0 3.3542e-09
11430.0 3.3319e-09
11450.0 3.3108e-09
11470.0 3.2911e-09
11490.0 3.2716e-09
11510.0 3.252e-09
11530.0 3.2334e-09
11550.0 3.2149e-09
11570.0 3.1957e-09
11590.0 3.1764e-09
11610.0 3.1574e-09
11630.0 3.1374e-09
11650.0 3.1165e-09
11670.0 3.096e-09
11690.0 3.0751e-09
11710.0 3.0531e-09
11730.0 3.0311e-09
11750.0 3.0097e-09
11770.0 2.9873e-09
11790.0 2.9646e-09
11810.0 2.9427e-09
11830.0 2.9209e-09
11850.0 2.8984e-09
11870.0 2.8769e-09
11890.0 2.8566e-09
11910.0 2.8364e-09
11930.0 2.8167e-09
11950.0 2.7985e-09
11970.0 2.7811e-09
11990.0 2.764e-09
12010.0 2.7484e-09
12030.0 2.7341e-09
12050.0 2.7204e-09
12070.0 2.7076e-09
12090.0 2.6965e-09
12110.0 2.6861e-09
12130.0 2.6764e-09
12150.0 2.6676e-09
12170.0 2.6596e-09
12190.0 2.6518e-09
12210.0 2.6443e-09
12230.0 2.6372e-09
12250.0 2.6299e-09
12270.0 2.6221e-09
12290.0 2.614e-09
12310.0 2.6055e-09
12330.0 2.5958e-09
12350.0 2.5851e-09
12370.0 2.5736e-09
12390.0 2.5609e-09
12410.0 2.5462e-09
12430.0 2.5311e-09
12450.0 2.5149e-09
12470.0 2.4971e-09
12490.0 2.4782e-09
12510.0 2.4592e-09
12530.0 2.4389e-09
12550.0 2.4173e-09
12570.0 2.3958e-09
12590.0 2.3742e-09
12610.0 2.3513e-09
12630.0 2.3282e-09
12650.0 2.3063e-09
12670.0 2.284e-09
12690.0 2.2614e-09
12710.0 2.24e-09
12730.0 2.2192e-09
12750.0 2.198e-09
12770.0 2.178e-09
12790.0 2.1594e-09
12810.0 2.1412e-09
12830.0 2.1236e-09
12850.0 2.1079e-09
12870.0 2.0932e-09
12890.0 2.0791e-09
12910.0 2.0664e-09
12930.0 2.0553e-09
12950.0 2.045e-09
12970.0 2.0358e-09
12990.0 2.0283e-09
13010.0 2.022e-09
13030.0 2.0167e-09
13050.0 2.0127e-09
13070.0 2.0099e-09
13090.0 2.0079e-09
13110.0 2.0066e-09
13130.0 2.0058e-09
13150.0 2.0054e-09
13170.0 2.005e-09
13190.0 2.0043e-09
13210.0 2.0032e-09
13230.0 2.0014e-09
13250.0 1.9987e-09
13270.0 1.9951e-09
13290.0 1.9903e-09
13310.0 1.9841e-09
13330.0 1.9768e-09
13350.0 1.9685e-09
13370.0 1.9587e-09
13390.0 1.9475e-09
13410.0 1.9359e-09
13430.0 1.923e-09
13450.0 1.9088e-09
13470.0 1.8941e-09
13490.0 1.8791e-09
13510.0 1.8623e-09
13530.0 1.845e-09
13550.0 1.8279e-09
13570.0 1.8101e-09
13590.0 1.7913e-09
13610.0 1.7727e-09
13630.0 1.7544e-09
13650.0 1.7351e-09
13670.0 1.7157e-09
13690.0 1.697e-09
13710.0 1.678e-09
13730.0 1.6581e-09
13750.0 1.6395e-09
13770.0 1.6212e-09
13790.0 1.6027e-09
13810.0 1.5847e-09
13830.0 1.5678e-09
13850.0 1.5508e-09
13870.0 1.5341e-09
13890.0 1.5184e-09
13910.0 1.5035e-09
13930.0 1.4885e-09
13950.0 1.4741e-09
13970.0 1.461e-09
13990.0 1.4481e-09
14010.0 1.4355e-09
14030.0 1.4238e-09
14050.0 1.4127e-09
14070.0 1.4015e-09
14090.0 1.3911e-09
14110.0 1.3815e-09
14130.0 1.3722e-09
14150.0 1.3631e-09
14170.0 1.3549e-09
14190.0 1.347e-09
14210.0 1.3393e-09
14230.0 1.332e-09
14250.0 1.3252e-09
14270.0 1.3183e-09
14290.0 1.3115e-09
14310.0 1.3053e-09
14330.0 1.2991e-09
14350.0 1.2929e-09
14370.0 1.2869e-09
14390.0 1.2812e-09
14410.0 1.2753e-09
14430.0 1.2695e-09
14450.0 1.264e-09
14470.0 1.2585e-09
14490.0 1.2529e-09
14510.0 1.2474e-09
14530.0 1.2421e-09
14550.0 1.2367e-09
14570.0 1.2312e-09
14590.0 1.2259e-09
14610.0 1.2204e-09
14630.0 1.2147e-09
14650.0 1.2092e-09
14670.0 1.2036e-09
14690.0 1.1979e-09
14710.0 1.1919e-09
14730.0 1.1863e-09
14750.0 1.1804e-09
14770.0 1.1742e-09
14790.0 1.1682e-09
14810.0 1.1621e-09
14830.0 1.1556e-09
14850.0 1.149e-09
14870.0 1.1426e-09
14890.0 1.1361e-09
14910.0 1.1293e-09
14930.0 1.123e-09
14950.0 1.117e-09
14970.0 1.111e-09
14990.0 1.1056e-09
15010.0 1.1009e-09
15030.0 1.0966e-09
15050.0 1.0927e-09
15070.0 1.0894e-09
15090.0 1.0863e-09
15110.0 1.0834e-09
15130.0 1.0806e-09
15150.0 1.078e-09
15170.0 1.0753e-09
15190.0 1.0726e-09
15210.0 1.07e-09
15230.0 1.0674e-09
15250.0 1.0647e-09
15270.0 1.0621e-09
15290.0 1.0595e-09
15310.0 1.0569e-09
15330.0 1.0542e-09
15350.0 1.0516e-09
15370.0 1.049e-09
15390.0 1.0463e-09
15410.0 1.0437e-09
15430.0 1.0411e-09
15450.0 1.0384e-09
15470.0 1.0357e-09
15490.0 1.0332e-09
15510.0 1.0306e-09
15530.0 1.0279e-09
15550.0 1.0253e-09
15570.0 1.0227e-09
15590.0 1.0201e-09
15610.0 1.0173e-09
15630.0 1.0148e-09
15650.0 1.0122e-09
15670.0 1.0095e-09
15690.0 1.0069e-09
15710.0 1.0043e-09
15730.0 1.0017e-09
15750.0 9.9899e-10
15770.0 9.9642e-10
15790.0 9.9382e-10
15810.0 9.9109e-10
15830.0 9.8847e-10
15850.0 9.8592e-10
15870.0 9.8327e-10
15890.0 9.8061e-10
15910.0 9.7806e-10
15930.0 9.7545e-10
15950.0 9.7275e-10
15970.0 9.7014e-10
15990.0 9.6757e-10
16010.0 9.649e-10
16030.0 9.6221e-10
16050.0 9.5968e-10
16070.0 9.5707e-10
16090.0 9.544e-10
16110.0 9.518e-10
16130.0 9.4926e-10
16150.0 9.4655e-10
16170.0 9.4389e-10
16190.0 9.4133e-10
16210.0 9.3872e-10
16230.0 9.3603e-10
16250.0 9.3344e-10
16270.0 9.3089e-10
16290.0 9.2822e-10
16310.0 9.2559e-10
16330.0 9.2303e-10
16350.0 9.2041e-10
16370.0 9.1768e-10
16390.0 9.1511e-10
16410.0 9.1254e-10
16430.0 9.0988e-10
16450.0 9.0725e-10
16470.0 9.0472e-10
16490.0 9.0208e-10
16510.0 8.994e-10
16530.0 8.9682e-10
16550.0 8.9424e-10
16570.0 8.9155e-10
16590.0 8.889e-10
16610.0 8.8637e-10
16630.0 8.8375e-10
16650.0 8.8109e-10
16670.0 8.7852e-10
16690.0 8.7596e-10
16710.0 8.7324e-10
16730.0 8.7062e-10
16750.0 8.6807e-10
16770.0 8.6543e-10
16790.0 8.6275e-10
16810.0 8.602e-10
16830.0 8.5762e-10
16850.0 8.5496e-10
16870.0 8.5235e-10
16890.0 8.498e-10
16910.0 8.4714e-10
16930.0 8.4445e-10
16950.0 8.4189e-10
16970.0 8.3931e-10
16990.0 8.3664e-10
17010.0 8.3403e-10
17030.0 8.315e-10
17050.0 8.2884e-10
17070.0 8.2619e-10
17090.0 8.2363e-10
17110.0 8.2104e-10
17130.0 8.1832e-10
17150.0 8.1572e-10
17170.0 8.1318e-10
17190.0 8.1054e-10
17210.0 8.0789e-10
17230.0 8.0536e-10
17250.0 8.0275e-10
17270.0 8.0006e-10
17290.0 7.9746e-10
17310.0 7.949e-10
17330.0 7.9224e-10
17350.0 7.8957e-10
17370.0 7.8704e-10
17390.0 7.8444e-10
17410.0 7.8178e-10
17430.0 7.7919e-10
17450.0 7.7665e-10
17470.0 7.7394e-10
17490.0 7.713e-10
17510.0 7.6875e-10
17530.0 7.6614e-10
17550.0 7.6346e-10
17570.0 7.6089e-10
17590.0 7.5834e-10
17610.0 7.5567e-10
17630.0 7.5304e-10
17650.0 7.5049e-10
17670.0 7.4787e-10
17690.0 7.4515e-10
17710.0 7.4259e-10
17730.0 7.4002e-10
17750.0 7.3736e-10
17770.0 7.3474e-10
17790.0 7.3222e-10
17810.0 7.2957e-10
17830.0 7.269e-10
17850.0 7.2433e-10
17870.0 7.2175e-10
17890.0 7.1906e-10
17910.0 7.1642e-10
17930.0 7.1389e-10
17950.0 7.1127e-10
17970.0 7.0861e-10
17990.0 7.0605e-10
18010.0 7.0348e-10
18030.0 7.0077e-10
18050.0 6.9816e-10
18070.0 6.956e-10
18090.0 6.9296e-10
18110.0 6.9029e-10
18130.0 6.8774e-10
18150.0 6.8516e-10
18170.0 6.8249e-10
18190.0 6.7989e-10
18210.0 6.7734e-10
18230.0 6.7467e-10
18250.0 6.7199e-10
18270.0 6.6944e-10
18290.0 6.6684e-10
18310.0 6.6417e-10
18330.0 6.6158e-10
18350.0 6.5904e-10
18370.0 6.5638e-10
18390.0 6.5373e-10
18410.0 6.5116e-10
18430.0 6.4856e-10
18450.0 6.4585e-10
18470.0 6.4326e-10
18490.0 6.4071e-10
18510.0 6.3806e-10
18530.0 6.3542e-10
18550.0 6.3288e-10
18570.0 6.3026e-10
18590.0 6.2757e-10
18610.0 6.2498e-10
18630.0 6.2241e-10
18650.0 6.1974e-10
18670.0 6.1708e-10
18690.0 6.1455e-10
18710.0 6.1194e-10
18730.0 6.0927e-10
18750.0 6.0669e-10
18770.0 6.0414e-10
18790.0 6.0143e-10
18810.0 5.9878e-10
18830.0 5.9623e-10
18850.0 5.9361e-10
18870.0 5.9093e-10
18890.0 5.8837e-10
18910.0 5.858e-10
18930.0 5.8313e-10
18950.0 5.805e-10
18970.0 5.7795e-10
18990.0 5.7532e-10
19010.0 5.7259e-10
19030.0 5.7004e-10
19050.0 5.6746e-10
19070.0 5.648e-10
19090.0 5.6218e-10
19110.0 5.5965e-10
19130.0 5.5699e-10
19150.0 5.5432e-10
19170.0 5.5174e-10
19190.0 5.4915e-10
19210.0 5.4646e-10
19230.0 5.4382e-10
19250.0 5.4129e-10
19270.0 5.3866e-10
19290.0 5.36e-10
19310.0 5.3344e-10
19330.0 5.3086e-10
19350.0 5.2814e-10
19370.0 5.2553e-10
19390.0 5.2296e-10
19410.0 5.2032e-10
19430.0 5.1764e-10
19450.0 5.151e-10
19470.0 5.1251e-10
19490.0 5.0983e-10
19510.0 5.0723e-10
19530.0 5.0467e-10
19550.0 5.0199e-10
19570.0 4.9931e-10
19590.0 4.9676e-10
19610.0 4.9415e-10
19630.0 4.9148e-10
19650.0 4.8889e-10
19670.0 4.8634e-10
19690.0 4.8367e-10
19710.0 4.8102e-10
19730.0 4.7845e-10
19750.0 4.7584e-10
19770.0 4.7312e-10
19790.0 4.7053e-10
19810.0 4.6798e-10
19830.0 4.6533e-10
19850.0 4.627e-10
19870.0 4.6018e-10
19890.0 4.576e-10
19910.0 4.55e-10
19930.0 4.5259e-10
19950.0 4.5032e-10
19970.0 4.4815e-10
19990.0 4.4622e-10
20010.0 4.4463e-10
20030.0 4.4324e-10
20050.0 4.4208e-10
20070.0 4.4118e-10
20090.0 4.4045e-10
20110.0 4.3981e-10
20130.0 4.3926e-10
20150.0 4.3878e-10
20170.0 4.3829e-10
20190.0 4.378e-10
20210.0 4.3731e-10
20230.0 4.3681e-10
20250.0 4.3625e-10
20270.0 4.3568e-10
20290.0 4.3509e-10
20310.0 4.3445e-10
20330.0 4.3375e-10
20350.0 4.3306e-10
20370.0 4.3233e-10
20390.0 4.3154e-10
20410.0 4.3074e-10
20430.0 4.2994e-10
20450.0 4.2907e-10
20470.0 4.2818e-10
20490.0 4.2731e-10
20510.0 4.2644e-10
20530.0 4.2553e-10
20550.0 4.2466e-10
20570.0 4.2383e-10
20590.0 4.2299e-10
20610.0 4.2217e-10
20630.0 4.2139e-10
20650.0 4.2062e-10
20670.0 4.1982e-10
20690.0 4.1906e-10
20710.0 4.1832e-10
20730.0 4.1753e-10
20750.0 4.1671e-10
20770.0 4.159e-10
20790.0 4.1502e-10
20810.0 4.1406e-10
20830.0 4.1306e-10
20850.0 4.1201e-10
20870.0 4.1083e-10
20890.0 4.0958e-10
20910.0 4.0831e-10
20930.0 4.0695e-10
20950.0 4.0549e-10
20970.0 4.0402e-10
20990.0 4.0253e-10
21010.0 4.0093e-10
21030.0 3.9933e-10
21050.0 3.9777e-10
21070.0 3.9617e-10
21090.0 3.9453e-10
21110.0 3.9297e-10
21130.0 3.9145e-10
21150.0 3.8988e-10
21170.0 3.8835e-10
21190.0 3.8689e-10
21210.0 3.8538e-10
21230.0 3.8384e-10
21250.0 3.8236e-10
21270.0 3.8088e-10
21290.0 3.7933e-10
21310.0 3.7777e-10
21330.0 3.7625e-10
21350.0 3.7464e-10
21370.0 3.7297e-10
21390.0 3.7131e-10
21410.0 3.6961e-10
21430.0 3.6777e-10
21450.0 3.6594e-10
21470.0 3.6412e-10
21490.0 3.6222e-10
21510.0 3.6025e-10
21530.0 3.5833e-10
21550.0 3.5636e-10
21570.0 3.543e-10
21590.0 3.5226e-10
21610.0 3.5027e-10
21630.0 3.482e-10
21650.0 3.4606e-10
21670.0 3.4406e-10
21690.0 3.4204e-10
21710.0 3.3996e-10
21730.0 3.3792e-10
21750.0 3.3596e-10
21770.0 3.3389e-10
21790.0 3.3183e-10
21810.0 3.2985e-10
21830.0 3.2785e-10
21850.0 3.2579e-10
21870.0 3.2378e-10
21890.0 3.2184e-10
21910.0 3.1982e-10
21930.0 3.1781e-10
21950.0 3.1588e-10
21970.0 3.1394e-10
21990.0 3.1193e-10
22010.0 3.1004e-10
22030.0 3.0822e-10
22050.0 3.0639e-10
22070.0 3.0461e-10
22090.0 3.0297e-10
22110.0 3.0135e-10
22130.0 2.9976e-10
22150.0 2.9829e-10
22170.0 2.9691e-10
22190.0 2.9554e-10
22210.0 2.9424e-10
22230.0 2.9308e-10
22250.0 2.9194e-10
22270.0 2.9083e-10
22290.0 2.8981e-10
22310.0 2.8883e-10
22330.0 2.8784e-10
22350.0 2.8689e-10
22370.0 2.8598e-10
22390.0 2.8506e-10
22410.0 2.8412e-10
22430.0 2.8322e-10
22450.0 2.8232e-10
22470.0 2.8138e-10
22490.0 2.8044e-10
22510.0 2.7952e-10
22530.0 2.7855e-10
22550.0 2.7756e-10
22570.0 2.7661e-10
22590.0 2.7565e-10
