#lamb flux
1010.0 1.392e-07
1030.0 1.5668e-07
1050.0 1.7478e-07
1070.0 1.9525e-07
1090.0 2.192e-07
1110.0 2.4384e-07
1130.0 2.6879e-07
1150.0 2.9512e-07
1170.0 3.2261e-07
1190.0 3.4921e-07
1210.0 3.7674e-07
1230.0 4.0585e-07
1250.0 4.3514e-07
1270.0 4.6462e-07
1290.0 4.966e-07
1310.0 5.2968e-07
1330.0 5.6274e-07
1350.0 5.9718e-07
1370.0 6.3356e-07
1390.0 6.7018e-07
1410.0 7.0678e-07
1430.0 7.4535e-07
1450.0 7.845e-07
1470.0 8.2306e-07
1490.0 8.6218e-07
1510.0 9.031e-07
1530.0 9.4231e-07
1550.0 9.8087e-07
1570.0 1.0201e-06
1590.0 1.0589e-06
1610.0 1.0955e-06
1630.0 1.1319e-06
1650.0 1.1682e-06
1670.0 1.2022e-06
1690.0 1.2345e-06
1710.0 1.2667e-06
1730.0 1.2974e-06
1750.0 1.3247e-06
1770.0 1.3512e-06
1790.0 1.3767e-06
1810.0 1.3994e-06
1830.0 1.42e-06
1850.0 1.4409e-06
1870.0 1.4593e-06
1890.0 1.4753e-06
1910.0 1.4905e-06
1930.0 1.5052e-06
1950.0 1.5173e-06
1970.0 1.528e-06
1990.0 1.5386e-06
2010.0 1.5477e-06
2030.0 1.5548e-06
2050.0 1.5616e-06
2070.0 1.5679e-06
2090.0 1.5714e-06
2110.0 1.5735e-06
2130.0 1.5748e-06
2150.0 1.574e-06
2170.0 1.5705e-06
2190.0 1.566e-06
2210.0 1.5596e-06
2230.0 1.5503e-06
2250.0 1.5388e-06
2270.0 1.5261e-06
2290.0 1.5105e-06
2310.0 1.492e-06
2330.0 1.4721e-06
2350.0 1.4503e-06
2370.0 1.4257e-06
2390.0 1.3993e-06
2410.0 1.3718e-06
2430.0 1.3414e-06
2450.0 1.3084e-06
2470.0 1.2732e-06
2490.0 1.2355e-06
2510.0 1.1955e-06
2530.0 1.156e-06
2550.0 1.1211e-06
2570.0 1.0956e-06
2590.0 1.0849e-06
2610.0 1.0998e-06
2630.0 1.1433e-06
2650.0 1.2096e-06
2670.0 1.2985e-06
2690.0 1.4034e-06
2710.0 1.5009e-06
2730.0 1.5785e-06
2750.0 1.6335e-06
2770.0 1.6493e-06
2790.0 1.6217e-06
2810.0 1.5547e-06
2830.0 1.448e-06
2850.0 1.3117e-06
2870.0 1.1539e-06
2890.0 9.7631e-07
2910.0 7.8713e-07
2930.0 5.9613e-07
2950.0 3.9617e-07
2970.0 1.8994e-07
2990.0 9.4954e-08
3010.0 2.0957e-07
3030.0 2.0957e-07
3050.0 2.0957e-07
3070.0 2.0957e-07
3090.0 2.0957e-07
3110.0 2.0957e-07
3130.0 2.0957e-07
3150.0 2.0957e-07
3170.0 2.0957e-07
3190.0 2.0957e-07
3210.0 2.0957e-07
3230.0 5.7069e-06
3250.0 1.1345e-05
3270.0 1.1351e-05
3290.0 1.2231e-05
3310.0 9.6312e-06
3330.0 9.6218e-06
3350.0 1.0679e-05
3370.0 1.2195e-05
3390.0 1.3905e-05
3410.0 1.5736e-05
3430.0 1.8071e-05
3450.0 2.0441e-05
3470.0 2.2917e-05
3490.0 2.4278e-05
3510.0 2.3612e-05
3530.0 2.3916e-05
3550.0 2.5211e-05
3570.0 2.539e-05
3590.0 2.7071e-05
3610.0 2.5903e-05
3630.0 3.2066e-05
3650.0 3.5975e-05
3670.0 3.8427e-05
3690.0 3.6298e-05
3710.0 2.9868e-05
3730.0 2.8037e-05
3750.0 2.5287e-05
3770.0 2.3358e-05
3790.0 2.1192e-05
3810.0 2.0475e-05
3830.0 2.3536e-05
3850.0 1.0342e-05
3870.0 1.9019e-05
3890.0 2.247e-05
3910.0 2.5301e-05
3930.0 3.1478e-05
3950.0 3.4219e-05
3970.0 3.9903e-05
3990.0 4.8917e-05
4010.0 3.6773e-05
4030.0 3.0467e-05
4050.0 2.3122e-05
4070.0 2.378e-05
4090.0 3.7325e-05
4110.0 3.5418e-05
4130.0 3.8185e-05
4150.0 3.5967e-05
4170.0 3.4246e-05
4190.0 3.1152e-05
4210.0 4.5236e-05
4230.0 4.716e-05
4250.0 5.129e-05
4270.0 4.8148e-05
4290.0 4.8616e-05
4310.0 5.4553e-05
4330.0 6.4201e-05
4350.0 6.4442e-05
4370.0 6.2751e-05
4390.0 5.6124e-05
4410.0 5.2246e-05
4430.0 4.1039e-05
4450.0 3.4341e-05
4470.0 3.8266e-05
4490.0 4.5611e-05
4510.0 4.7237e-05
4530.0 4.8662e-05
4550.0 5.0498e-05
4570.0 7.1496e-05
4590.0 0.00010571
4610.0 0.00012426
4630.0 0.00012462
4650.0 0.00013049
4670.0 0.00014944
4690.0 0.00016329
4710.0 0.00013451
4730.0 0.00010249
4750.0 8.1376e-05
4770.0 7.187e-05
4790.0 6.7367e-05
4810.0 6.424e-05
4830.0 7.0975e-05
4850.0 8.224e-05
4870.0 8.975e-05
4890.0 9.3634e-05
4910.0 8.6263e-05
4930.0 9.1825e-05
4950.0 0.00011329
4970.0 0.00013501
4990.0 0.00014103
5010.0 0.0001301
5030.0 0.00010813
5050.0 8.2429e-05
5070.0 6.5158e-05
5090.0 5.8445e-05
5110.0 5.7167e-05
5130.0 5.8343e-05
5150.0 5.8154e-05
5170.0 5.5648e-05
5190.0 5.2581e-05
5210.0 5.1306e-05
5230.0 5.7311e-05
5250.0 6.6173e-05
5270.0 7.8553e-05
5290.0 9.0337e-05
5310.0 9.5204e-05
5330.0 0.0001029
5350.0 0.00011396
5370.0 0.00011983
5390.0 0.00010876
5410.0 9.6187e-05
5430.0 9.2891e-05
5450.0 0.00010739
5470.0 0.0001332
5490.0 0.00015617
5510.0 0.00016638
5530.0 0.00016354
5550.0 0.00015541
5570.0 0.00015014
5590.0 0.00014474
5610.0 0.00014255
5630.0 0.00014123
5650.0 0.00014079
5670.0 0.00013934
5690.0 0.00012773
5710.0 0.00010708
5730.0 9.4732e-05
5750.0 8.9341e-05
5770.0 9.0731e-05
5790.0 9.3577e-05
5810.0 9.7414e-05
5830.0 9.8984e-05
5850.0 9.3945e-05
5870.0 8.762e-05
5890.0 8.3501e-05
5910.0 8.5585e-05
5930.0 8.9488e-05
5950.0 8.4069e-05
5970.0 7.4191e-05
5990.0 6.1616e-05
6010.0 4.9732e-05
6030.0 4.5171e-05
6050.0 4.8369e-05
6070.0 5.1894e-05
6090.0 5.053e-05
6110.0 4.4605e-05
6130.0 4.5038e-05
6150.0 5.2116e-05
6170.0 6.0511e-05
6190.0 6.7398e-05
6210.0 6.8301e-05
6230.0 6.6877e-05
6250.0 6.1254e-05
6270.0 5.1631e-05
6290.0 4.2804e-05
6310.0 3.7686e-05
6330.0 3.6543e-05
6350.0 3.7413e-05
6370.0 3.7634e-05
6390.0 4.1409e-05
6410.0 5.1178e-05
6430.0 6.4184e-05
6450.0 7.3674e-05
6470.0 7.6539e-05
6490.0 7.5458e-05
6510.0 7.7128e-05
6530.0 8.0066e-05
6550.0 7.9372e-05
6570.0 8.2293e-05
6590.0 8.3927e-05
6610.0 8.542e-05
6630.0 8.4925e-05
6650.0 8.0143e-05
6670.0 7.329e-05
6690.0 6.5831e-05
6710.0 6.1589e-05
6730.0 6.143e-05
6750.0 6.3483e-05
6770.0 6.5385e-05
6790.0 6.7213e-05
6810.0 6.8405e-05
6830.0 6.7016e-05
6850.0 6.4174e-05
6870.0 6.0206e-05
6890.0 5.879e-05
6910.0 5.6376e-05
6930.0 5.8118e-05
6950.0 6.2066e-05
6970.0 6.3873e-05
6990.0 6.5365e-05
7010.0 6.3788e-05
7030.0 5.8845e-05
7050.0 5.194e-05
7070.0 4.5569e-05
7090.0 4.1708e-05
7110.0 4.1167e-05
7130.0 4.1063e-05
7150.0 3.7338e-05
7170.0 3.5178e-05
7190.0 3.7769e-05
7210.0 4.3087e-05
7230.0 4.9913e-05
7250.0 5.3438e-05
7270.0 5.331e-05
7290.0 4.9061e-05
7310.0 4.4975e-05
7330.0 4.2718e-05
7350.0 4.2692e-05
7370.0 4.3602e-05
7390.0 4.5519e-05
7410.0 5.0108e-05
7430.0 5.8121e-05
7450.0 6.6201e-05
7470.0 7.064e-05
7490.0 6.9921e-05
7510.0 6.5814e-05
7530.0 5.6239e-05
7550.0 5.0639e-05
7570.0 4.4859e-05
7590.0 4.2133e-05
7610.0 4.3826e-05
7630.0 4.8245e-05
7650.0 5.4033e-05
7670.0 5.9633e-05
7690.0 6.3436e-05
7710.0 6.773e-05
7730.0 7.2346e-05
7750.0 7.6408e-05
7770.0 7.5971e-05
7790.0 7.6584e-05
7810.0 7.8572e-05
7830.0 7.9402e-05
7850.0 7.7274e-05
7870.0 7.4689e-05
7890.0 7.4612e-05
7910.0 7.1888e-05
7930.0 7.1099e-05
7950.0 6.7608e-05
7970.0 6.6212e-05
7990.0 6.4327e-05
8010.0 6.6394e-05
8030.0 6.7126e-05
8050.0 6.7973e-05
8070.0 6.7456e-05
8090.0 6.7289e-05
8110.0 6.4837e-05
8130.0 6.4818e-05
8150.0 6.4004e-05
8170.0 6.2463e-05
8190.0 6.1423e-05
8210.0 6.161e-05
8230.0 6.0032e-05
8250.0 5.8505e-05
8270.0 5.2609e-05
8290.0 4.2738e-05
8310.0 3.194e-05
8330.0 2.4423e-05
8350.0 2.2696e-05
8370.0 2.7209e-05
8390.0 3.3236e-05
8410.0 3.6273e-05
8430.0 3.7608e-05
8450.0 3.9575e-05
8470.0 4.2268e-05
8490.0 4.7395e-05
8510.0 5.4242e-05
8530.0 6.2846e-05
8550.0 7.1438e-05
8570.0 7.8851e-05
8590.0 8.4691e-05
8610.0 8.8381e-05
8630.0 8.9283e-05
8650.0 8.8913e-05
8670.0 8.9112e-05
8690.0 9.3434e-05
8710.0 9.8981e-05
8730.0 0.00010309
8750.0 0.00010282
8770.0 0.00010431
8790.0 0.0001039
8810.0 9.7533e-05
8830.0 9.2618e-05
8850.0 8.5794e-05
8870.0 8.026e-05
8890.0 7.8307e-05
8910.0 7.8849e-05
8930.0 7.4766e-05
8950.0 7.0337e-05
8970.0 6.8594e-05
8990.0 6.7966e-05
9010.0 6.5397e-05
9030.0 6.3918e-05
9050.0 6.3413e-05
9070.0 6.318e-05
9090.0 6.2975e-05
9110.0 6.2778e-05
9130.0 6.2577e-05
9150.0 6.238e-05
9170.0 6.2148e-05
9190.0 6.1964e-05
9210.0 6.208e-05
9230.0 6.1765e-05
9250.0 6.1506e-05
9270.0 6.1277e-05
9290.0 6.1068e-05
9310.0 6.0864e-05
9330.0 6.0669e-05
9350.0 6.0487e-05
9370.0 6.0305e-05
9390.0 6.0118e-05
9410.0 5.9939e-05
9430.0 5.9755e-05
9450.0 5.9504e-05
9470.0 5.9276e-05
9490.0 5.9165e-05
9510.0 5.902e-05
9530.0 5.8864e-05
9550.0 5.8705e-05
9570.0 5.8541e-05
9590.0 5.8374e-05
9610.0 5.8205e-05
9630.0 5.8038e-05
9650.0 5.787e-05
9670.0 5.7701e-05
9690.0 5.7535e-05
9710.0 5.7368e-05
9730.0 5.7201e-05
9750.0 5.7034e-05
9770.0 5.6869e-05
9790.0 5.6702e-05
9810.0 5.6535e-05
9830.0 5.6369e-05
9850.0 5.6203e-05
9870.0 5.6034e-05
9890.0 5.5865e-05
9910.0 5.5696e-05
9930.0 5.552e-05
9950.0 5.4896e-05
9970.0 5.4859e-05
9990.0 5.4795e-05
10010.0 5.4714e-05
10030.0 5.4595e-05
10050.0 5.4444e-05
10070.0 5.4286e-05
10090.0 5.4129e-05
10110.0 5.3942e-05
10130.0 5.3768e-05
10150.0 5.359e-05
10170.0 5.3396e-05
10190.0 5.3187e-05
10210.0 5.2995e-05
10230.0 5.2808e-05
10250.0 5.2601e-05
10270.0 5.2394e-05
10290.0 5.2201e-05
10310.0 5.1989e-05
10330.0 5.176e-05
10350.0 5.155e-05
10370.0 5.1337e-05
10390.0 5.1104e-05
10410.0 5.087e-05
10430.0 5.0653e-05
10450.0 5.0415e-05
10470.0 5.0165e-05
10490.0 4.9926e-05
10510.0 4.9685e-05
10530.0 4.9412e-05
10550.0 4.9148e-05
10570.0 4.8896e-05
10590.0 4.8624e-05
10610.0 4.834e-05
10630.0 4.807e-05
10650.0 4.7793e-05
10670.0 4.7488e-05
10690.0 4.7189e-05
10710.0 4.6898e-05
10730.0 4.6585e-05
10750.0 4.6252e-05
10770.0 4.5946e-05
10790.0 4.5627e-05
10810.0 4.5285e-05
10830.0 4.4948e-05
10850.0 4.4621e-05
10870.0 4.4255e-05
10890.0 4.3883e-05
10910.0 4.352e-05
10930.0 4.3139e-05
10950.0 4.2721e-05
10970.0 4.2296e-05
10990.0 4.1872e-05
11010.0 4.3212e-05
11030.0 4.2689e-05
11050.0 4.2182e-05
11070.0 4.1665e-05
11090.0 4.1117e-05
11110.0 4.0616e-05
11130.0 4.0137e-05
11150.0 3.9651e-05
11170.0 3.9178e-05
11190.0 3.8743e-05
11210.0 3.8303e-05
11230.0 3.7854e-05
11250.0 3.7429e-05
11270.0 3.7015e-05
11290.0 3.6582e-05
11310.0 3.6151e-05
11330.0 3.5748e-05
11350.0 3.5332e-05
11370.0 3.49e-05
11390.0 3.4478e-05
11410.0 3.4055e-05
11430.0 3.3589e-05
11450.0 3.3116e-05
11470.0 3.264e-05
11490.0 3.213e-05
11510.0 3.1577e-05
11530.0 3.1024e-05
11550.0 3.0453e-05
11570.0 2.9834e-05
11590.0 2.9201e-05
11610.0 2.8573e-05
11630.0 2.7909e-05
11650.0 2.7218e-05
11670.0 2.6558e-05
11690.0 2.59e-05
11710.0 2.5226e-05
11730.0 2.4571e-05
11750.0 2.3958e-05
11770.0 2.3338e-05
11790.0 2.273e-05
11810.0 2.2165e-05
11830.0 2.1622e-05
11850.0 2.1074e-05
11870.0 2.0565e-05
11890.0 2.0093e-05
11910.0 1.9627e-05
11930.0 1.9175e-05
11950.0 1.8758e-05
11970.0 1.8354e-05
11990.0 1.795e-05
12010.0 1.7573e-05
12030.0 1.722e-05
12050.0 1.6873e-05
12070.0 1.6539e-05
12090.0 1.6244e-05
12110.0 1.5964e-05
12130.0 1.5701e-05
12150.0 1.5468e-05
12170.0 1.5267e-05
12190.0 1.5084e-05
12210.0 1.4934e-05
12230.0 1.482e-05
12250.0 1.4735e-05
12270.0 1.4682e-05
12290.0 1.4664e-05
12310.0 1.4675e-05
12330.0 1.472e-05
12350.0 1.4796e-05
12370.0 1.4898e-05
12390.0 1.5029e-05
12410.0 1.5197e-05
12430.0 1.5379e-05
12450.0 1.558e-05
12470.0 1.5807e-05
12490.0 1.605e-05
12510.0 1.629e-05
12530.0 1.6543e-05
12550.0 1.6804e-05
12570.0 1.705e-05
12590.0 1.728e-05
12610.0 1.7502e-05
12630.0 1.7697e-05
12650.0 1.785e-05
12670.0 1.7974e-05
12690.0 1.806e-05
12710.0 1.81e-05
12730.0 1.8098e-05
12750.0 1.8054e-05
12770.0 1.7966e-05
12790.0 1.7842e-05
12810.0 1.7681e-05
12830.0 1.7485e-05
12850.0 1.7272e-05
12870.0 1.7042e-05
12890.0 1.6791e-05
12910.0 1.6536e-05
12930.0 1.6286e-05
12950.0 1.6029e-05
12970.0 1.5772e-05
12990.0 1.5533e-05
13010.0 1.5302e-05
13030.0 1.5074e-05
13050.0 1.4857e-05
13070.0 1.4654e-05
13090.0 1.445e-05
13110.0 1.4251e-05
13130.0 1.4061e-05
13150.0 1.3873e-05
13170.0 1.3681e-05
13190.0 1.3495e-05
13210.0 1.3317e-05
13230.0 1.3137e-05
13250.0 1.2961e-05
13270.0 1.2798e-05
13290.0 1.2642e-05
13310.0 1.2495e-05
13330.0 1.2365e-05
13350.0 1.2255e-05
13370.0 1.216e-05
13390.0 1.2085e-05
13410.0 1.2032e-05
13430.0 1.1994e-05
13450.0 1.1972e-05
13470.0 1.196e-05
13490.0 1.1953e-05
13510.0 1.1947e-05
13530.0 1.1937e-05
13550.0 1.1916e-05
13570.0 1.1881e-05
13590.0 1.1827e-05
13610.0 1.1755e-05
13630.0 1.1664e-05
13650.0 1.155e-05
13670.0 1.1417e-05
13690.0 1.1274e-05
13710.0 1.1117e-05
13730.0 1.0945e-05
13750.0 1.0779e-05
13770.0 1.0615e-05
13790.0 1.0451e-05
13810.0 1.0297e-05
13830.0 1.0158e-05
13850.0 1.0028e-05
13870.0 9.9087e-06
13890.0 9.8067e-06
13910.0 9.718e-06
13930.0 9.6387e-06
13950.0 9.571e-06
13970.0 9.5148e-06
13990.0 9.4643e-06
14010.0 9.4185e-06
14030.0 9.3773e-06
14050.0 9.3379e-06
14070.0 9.2966e-06
14090.0 9.2543e-06
14110.0 9.2097e-06
14130.0 9.16e-06
14150.0 9.1038e-06
14170.0 9.0443e-06
14190.0 8.9795e-06
14210.0 8.9073e-06
14230.0 8.8316e-06
14250.0 8.755e-06
14270.0 8.6737e-06
14290.0 8.5912e-06
14310.0 8.5144e-06
14330.0 8.4409e-06
14350.0 8.3708e-06
14370.0 8.3089e-06
14390.0 8.2566e-06
14410.0 8.2108e-06
14430.0 8.174e-06
14450.0 8.1468e-06
14470.0 8.1274e-06
14490.0 8.1149e-06
14510.0 8.1095e-06
14530.0 8.1097e-06
14550.0 8.1149e-06
14570.0 8.1251e-06
14590.0 8.1394e-06
14610.0 8.1587e-06
14630.0 8.1847e-06
14650.0 8.2161e-06
14670.0 8.2537e-06
14690.0 8.3004e-06
14710.0 8.3565e-06
14730.0 8.4179e-06
14750.0 8.4895e-06
14770.0 8.5727e-06
14790.0 8.6637e-06
14810.0 8.7624e-06
14830.0 8.8788e-06
14850.0 9.0057e-06
14870.0 9.1396e-06
14890.0 9.2863e-06
14910.0 9.446e-06
14930.0 9.6044e-06
14950.0 9.7575e-06
14970.0 9.908e-06
14990.0 1.004e-05
15010.0 1.0148e-05
15030.0 1.0234e-05
15050.0 1.0298e-05
15070.0 1.0339e-05
15090.0 1.0366e-05
15110.0 1.0382e-05
15130.0 1.0392e-05
15150.0 1.0399e-05
15170.0 1.0404e-05
15190.0 1.0408e-05
15210.0 1.0412e-05
15230.0 1.0416e-05
15250.0 1.042e-05
15270.0 1.0424e-05
15290.0 1.0429e-05
15310.0 1.0433e-05
15330.0 1.0438e-05
15350.0 1.0443e-05
15370.0 1.0448e-05
15390.0 1.0454e-05
15410.0 1.0459e-05
15430.0 1.0465e-05
15450.0 1.047e-05
15470.0 1.0476e-05
15490.0 1.0482e-05
15510.0 1.0489e-05
15530.0 1.0495e-05
15550.0 1.0501e-05
15570.0 1.0508e-05
15590.0 1.0514e-05
15610.0 1.0521e-05
15630.0 1.0528e-05
15650.0 1.0535e-05
15670.0 1.0542e-05
15690.0 1.0549e-05
15710.0 1.0556e-05
15730.0 1.0563e-05
15750.0 1.057e-05
15770.0 1.0578e-05
15790.0 1.0585e-05
15810.0 1.0592e-05
15830.0 1.06e-05
15850.0 1.0607e-05
15870.0 1.0615e-05
15890.0 1.0622e-05
15910.0 1.063e-05
15930.0 1.0637e-05
15950.0 1.0645e-05
15970.0 1.0652e-05
15990.0 1.066e-05
16010.0 1.0667e-05
16030.0 1.0674e-05
16050.0 1.0682e-05
16070.0 1.0689e-05
16090.0 1.0697e-05
16110.0 1.0704e-05
16130.0 1.0711e-05
16150.0 1.0718e-05
16170.0 1.0725e-05
16190.0 1.0732e-05
16210.0 1.0739e-05
16230.0 1.0746e-05
16250.0 1.0753e-05
16270.0 1.076e-05
16290.0 1.0766e-05
16310.0 1.0772e-05
16330.0 1.0779e-05
16350.0 1.0785e-05
16370.0 1.0791e-05
16390.0 1.0797e-05
16410.0 1.0803e-05
16430.0 1.0808e-05
16450.0 1.0813e-05
16470.0 1.0819e-05
16490.0 1.0824e-05
16510.0 1.0828e-05
16530.0 1.0833e-05
16550.0 1.0838e-05
16570.0 1.0842e-05
16590.0 1.0846e-05
16610.0 1.085e-05
16630.0 1.0853e-05
16650.0 1.0856e-05
16670.0 1.086e-05
16690.0 1.0863e-05
16710.0 1.0865e-05
16730.0 1.0867e-05
16750.0 1.0869e-05
16770.0 1.0871e-05
16790.0 1.0873e-05
16810.0 1.0874e-05
16830.0 1.0875e-05
16850.0 1.0875e-05
16870.0 1.0876e-05
16890.0 1.0876e-05
16910.0 1.0876e-05
16930.0 1.0875e-05
16950.0 1.0874e-05
16970.0 1.0873e-05
16990.0 1.0871e-05
17010.0 1.0869e-05
17030.0 1.0867e-05
17050.0 1.0864e-05
17070.0 1.0861e-05
17090.0 1.0858e-05
17110.0 1.0854e-05
17130.0 1.085e-05
17150.0 1.0845e-05
17170.0 1.084e-05
17190.0 1.0835e-05
17210.0 1.0829e-05
17230.0 1.0823e-05
17250.0 1.0817e-05
17270.0 1.081e-05
17290.0 1.0802e-05
17310.0 1.0795e-05
17330.0 1.0787e-05
17350.0 1.0778e-05
17370.0 1.0769e-05
17390.0 1.076e-05
17410.0 1.075e-05
17430.0 1.074e-05
17450.0 1.0729e-05
17470.0 1.0718e-05
17490.0 1.0707e-05
17510.0 1.0695e-05
17530.0 1.0683e-05
17550.0 1.067e-05
17570.0 1.0657e-05
17590.0 1.0643e-05
17610.0 1.0629e-05
17630.0 1.0614e-05
17650.0 1.06e-05
17670.0 1.0584e-05
17690.0 1.0568e-05
17710.0 1.0552e-05
17730.0 1.0535e-05
17750.0 1.0518e-05
17770.0 1.0501e-05
17790.0 1.0483e-05
17810.0 1.0465e-05
17830.0 1.0446e-05
17850.0 1.0426e-05
17870.0 1.0407e-05
17890.0 1.0387e-05
17910.0 1.0366e-05
17930.0 1.0345e-05
17950.0 1.0324e-05
17970.0 1.0302e-05
17990.0 1.028e-05
18010.0 1.0258e-05
18030.0 1.0235e-05
18050.0 1.0212e-05
18070.0 1.0188e-05
18090.0 1.0164e-05
18110.0 1.0139e-05
18130.0 1.0115e-05
18150.0 1.009e-05
18170.0 1.0064e-05
18190.0 1.0038e-05
18210.0 1.0012e-05
18230.0 9.9853e-06
18250.0 9.9582e-06
18270.0 9.931e-06
18290.0 9.9034e-06
18310.0 9.8754e-06
18330.0 9.8472e-06
18350.0 9.8187e-06
18370.0 9.7897e-06
18390.0 9.7604e-06
18410.0 9.731e-06
18430.0 9.7012e-06
18450.0 9.671e-06
18470.0 9.6407e-06
18490.0 9.6101e-06
18510.0 9.5792e-06
18530.0 9.548e-06
18550.0 9.5166e-06
18570.0 9.485e-06
18590.0 9.4529e-06
18610.0 9.4208e-06
18630.0 9.3885e-06
18650.0 9.3559e-06
18670.0 9.323e-06
18690.0 9.2901e-06
18710.0 9.2569e-06
18730.0 9.2235e-06
18750.0 9.1899e-06
18770.0 9.1562e-06
18790.0 9.1222e-06
18810.0 9.088e-06
18830.0 9.0539e-06
18850.0 9.0195e-06
18870.0 8.9848e-06
18890.0 8.9502e-06
18910.0 8.9155e-06
18930.0 8.8805e-06
18950.0 8.8454e-06
18970.0 8.8103e-06
18990.0 8.7751e-06
19010.0 8.7396e-06
19030.0 8.7042e-06
19050.0 8.6688e-06
19070.0 8.6331e-06
19090.0 8.5974e-06
19110.0 8.5618e-06
19130.0 8.526e-06
19150.0 8.4901e-06
19170.0 8.4543e-06
19190.0 8.4184e-06
19210.0 8.3824e-06
19230.0 8.3464e-06
19250.0 8.3105e-06
19270.0 8.2745e-06
19290.0 8.2385e-06
19310.0 8.2026e-06
19330.0 8.1666e-06
19350.0 8.1305e-06
19370.0 8.0946e-06
19390.0 8.0587e-06
19410.0 8.0228e-06
19430.0 7.9869e-06
19450.0 7.9511e-06
19470.0 7.9154e-06
19490.0 7.8796e-06
19510.0 7.8439e-06
19530.0 7.8084e-06
19550.0 7.7727e-06
19570.0 7.7372e-06
19590.0 7.7019e-06
19610.0 7.6665e-06
19630.0 7.6312e-06
19650.0 7.5961e-06
19670.0 7.5611e-06
19690.0 7.5261e-06
19710.0 7.4912e-06
19730.0 7.4564e-06
19750.0 7.4218e-06
19770.0 7.3871e-06
19790.0 7.3527e-06
19810.0 7.3184e-06
19830.0 7.2839e-06
19850.0 7.2493e-06
19870.0 7.2142e-06
19890.0 7.1778e-06
19910.0 7.1386e-06
19930.0 7.0954e-06
19950.0 7.0462e-06
19970.0 6.9871e-06
19990.0 6.9164e-06
20010.0 6.8357e-06
20030.0 6.7408e-06
20050.0 6.6323e-06
20070.0 6.5166e-06
20090.0 6.395e-06
20110.0 6.2629e-06
20130.0 6.1322e-06
20150.0 6.0053e-06
20170.0 5.8776e-06
20190.0 5.7512e-06
20210.0 5.6326e-06
20230.0 5.518e-06
20250.0 5.404e-06
20270.0 5.2966e-06
20290.0 5.1958e-06
20310.0 5.0972e-06
20330.0 5.0008e-06
20350.0 4.9136e-06
20370.0 4.8295e-06
20390.0 4.7475e-06
20410.0 4.6706e-06
20430.0 4.5993e-06
20450.0 4.5289e-06
20470.0 4.4627e-06
20490.0 4.402e-06
20510.0 4.3447e-06
20530.0 4.2903e-06
20550.0 4.2408e-06
20570.0 4.1963e-06
20590.0 4.1547e-06
20610.0 4.1173e-06
20630.0 4.0844e-06
20650.0 4.055e-06
20670.0 4.029e-06
20690.0 4.0069e-06
20710.0 3.9881e-06
20730.0 3.9722e-06
20750.0 3.9591e-06
20770.0 3.9481e-06
20790.0 3.9392e-06
20810.0 3.9321e-06
20830.0 3.9259e-06
20850.0 3.9204e-06
20870.0 3.9158e-06
20890.0 3.9111e-06
20910.0 3.9054e-06
20930.0 3.8992e-06
20950.0 3.892e-06
20970.0 3.8831e-06
20990.0 3.8724e-06
21010.0 3.8599e-06
21030.0 3.8451e-06
21050.0 3.8281e-06
21070.0 3.8087e-06
21090.0 3.7866e-06
21110.0 3.7625e-06
21130.0 3.7364e-06
21150.0 3.7076e-06
21170.0 3.677e-06
21190.0 3.6452e-06
21210.0 3.611e-06
21230.0 3.5749e-06
21250.0 3.5384e-06
21270.0 3.5011e-06
21290.0 3.4621e-06
21310.0 3.4227e-06
21330.0 3.3843e-06
21350.0 3.3449e-06
21370.0 3.3053e-06
21390.0 3.2672e-06
21410.0 3.2299e-06
21430.0 3.1921e-06
21450.0 3.1566e-06
21470.0 3.1235e-06
21490.0 3.0915e-06
21510.0 3.0616e-06
21530.0 3.0347e-06
21550.0 3.0102e-06
21570.0 2.9879e-06
21590.0 2.9689e-06
21610.0 2.9529e-06
21630.0 2.9397e-06
21650.0 2.9295e-06
21670.0 2.9222e-06
21690.0 2.9176e-06
21710.0 2.9157e-06
21730.0 2.916e-06
21750.0 2.9178e-06
21770.0 2.9222e-06
21790.0 2.928e-06
21810.0 2.9343e-06
21830.0 2.9415e-06
21850.0 2.9496e-06
21870.0 2.9573e-06
21890.0 2.9641e-06
21910.0 2.971e-06
21930.0 2.9771e-06
21950.0 2.9816e-06
21970.0 2.9851e-06
21990.0 2.9878e-06
22010.0 2.9885e-06
22030.0 2.9876e-06
22050.0 2.9855e-06
22070.0 2.982e-06
22090.0 2.9769e-06
22110.0 2.9707e-06
22130.0 2.9634e-06
22150.0 2.9549e-06
22170.0 2.9454e-06
22190.0 2.935e-06
22210.0 2.9237e-06
22230.0 2.9117e-06
22250.0 2.8989e-06
22270.0 2.8851e-06
22290.0 2.8707e-06
22310.0 2.8555e-06
22330.0 2.839e-06
22350.0 2.8215e-06
22370.0 2.8032e-06
22390.0 2.7833e-06
22410.0 2.7616e-06
22430.0 2.739e-06
22450.0 2.7149e-06
22470.0 2.6884e-06
22490.0 2.6605e-06
22510.0 2.6316e-06
22530.0 2.6001e-06
22550.0 2.5664e-06
22570.0 2.5324e-06
22590.0 2.4972e-06
22610.0 2.46e-06
22630.0 2.4223e-06
