#lamb flux
1010.0 2.6386e-05
1030.0 3.3396e-05
1050.0 4.1601e-05
1070.0 5.1022e-05
1090.0 6.1942e-05
1110.0 7.3461e-05
1130.0 8.5378e-05
1150.0 9.7827e-05
1170.0 0.0001109
1190.0 0.00012371
1210.0 0.00013896
1230.0 0.00015508
1250.0 0.00017124
1270.0 0.0001871
1290.0 0.00020346
1310.0 0.00021936
1330.0 0.00023397
1350.0 0.00024773
1370.0 0.00026071
1390.0 0.00027195
1410.0 0.00028131
1430.0 0.00028971
1450.0 0.0002966
1470.0 0.00030165
1490.0 0.00030557
1510.0 0.00031346
1530.0 0.00032194
1550.0 0.00032974
1570.0 0.00033632
1590.0 0.00034276
1610.0 0.00034867
1630.0 0.00035497
1650.0 0.00036165
1670.0 0.00036812
1690.0 0.00037466
1710.0 0.00038182
1730.0 0.00038928
1750.0 0.00039636
1770.0 0.00040399
1790.0 0.00041207
1810.0 0.00042005
1830.0 0.0004281
1850.0 0.00043697
1870.0 0.00044578
1890.0 0.00045446
1910.0 0.00046353
1930.0 0.00047304
1950.0 0.00048228
1970.0 0.00049158
1990.0 0.00050143
2010.0 0.00051129
2030.0 0.00052098
2050.0 0.00053112
2070.0 0.0005417
2090.0 0.00055188
2110.0 0.00056221
2130.0 0.000573
2150.0 0.00058379
2170.0 0.00059434
2190.0 0.00060542
2210.0 0.00061675
2230.0 0.00062786
2250.0 0.00063911
2270.0 0.00065097
2290.0 0.0006627
2310.0 0.00067419
2330.0 0.00068615
2350.0 0.00069832
2370.0 0.00071019
2390.0 0.00072225
2410.0 0.00073487
2430.0 0.00074735
2450.0 0.00075998
2470.0 0.00077376
2490.0 0.00078945
2510.0 0.00080716
2530.0 0.00082957
2550.0 0.00085996
2570.0 0.0009003
2590.0 0.00095323
2610.0 0.0010286
2630.0 0.0011282
2650.0 0.0012498
2670.0 0.0013997
2690.0 0.0015808
2710.0 0.0017783
2730.0 0.0019847
2750.0 0.0022062
2770.0 0.002423
2790.0 0.0026202
2810.0 0.0028003
2830.0 0.0029632
2850.0 0.0030916
2870.0 0.0031973
2890.0 0.0032886
2910.0 0.0033663
2930.0 0.0034326
2950.0 0.0034962
2970.0 0.0035582
2990.0 0.0036163
3010.0 0.0036726
3030.0 0.0037303
3050.0 0.0037868
3070.0 0.0038384
3090.0 0.0038904
3110.0 0.0039433
3130.0 0.0039982
3150.0 0.0040598
3170.0 0.0041549
3190.0 0.0042954
3210.0 0.0044962
3230.0 0.0047825
3250.0 0.0051632
3270.0 0.0055105
3290.0 0.0060838
3310.0 0.0073044
3330.0 0.0075665
3350.0 0.0075896
3370.0 0.0075985
3390.0 0.0076055
3410.0 0.0076094
3430.0 0.0076111
3450.0 0.0076129
3470.0 0.0076159
3490.0 0.0076093
3510.0 0.0075748
3530.0 0.0073289
3550.0 0.0069887
3570.0 0.0070349
3590.0 0.0074071
3610.0 0.0079671
3630.0 0.0081866
3650.0 0.0077865
3670.0 0.0070442
3690.0 0.0065687
3710.0 0.0065635
3730.0 0.0067393
3750.0 0.0068326
3770.0 0.0070502
3790.0 0.007307
3810.0 0.0072547
3830.0 0.0067915
3850.0 0.0063676
3870.0 0.0062001
3890.0 0.0062252
3910.0 0.006188
3930.0 0.0062133
3950.0 0.0065081
3970.0 0.0068571
3990.0 0.0070593
4010.0 0.006976
4030.0 0.0067625
4050.0 0.0066833
4070.0 0.006645
4090.0 0.0066619
4110.0 0.0066273
4130.0 0.0064378
4150.0 0.0062256
4170.0 0.006177
4190.0 0.0059711
4210.0 0.0055938
4230.0 0.0051811
4250.0 0.0047604
4270.0 0.0044565
4290.0 0.0042685
4310.0 0.0042276
4330.0 0.0043739
4350.0 0.0045721
4370.0 0.0047775
4390.0 0.0051374
4410.0 0.0054469
4430.0 0.005441
4450.0 0.0050891
4470.0 0.0047668
4490.0 0.0046444
4510.0 0.0045951
4530.0 0.0046218
4550.0 0.0046522
4570.0 0.0047367
4590.0 0.004902
4610.0 0.0051376
4630.0 0.0053128
4650.0 0.0054335
4670.0 0.0053739
4690.0 0.005108
4710.0 0.0048324
4730.0 0.0046533
4750.0 0.0045472
4770.0 0.0045686
4790.0 0.0045642
4810.0 0.00447
4830.0 0.004465
4850.0 0.0045941
4870.0 0.0046069
4890.0 0.0045077
4910.0 0.0043815
4930.0 0.0041027
4950.0 0.0036975
4970.0 0.0034184
4990.0 0.0031874
5010.0 0.0030955
5030.0 0.0031529
5050.0 0.0031969
5070.0 0.0032678
5090.0 0.0034095
5110.0 0.003409
5130.0 0.0033823
5150.0 0.0033898
5170.0 0.0033525
5190.0 0.0033783
5210.0 0.0033438
5230.0 0.0032488
5250.0 0.0032276
5270.0 0.0032341
5290.0 0.0031897
5310.0 0.0031091
5330.0 0.003005
5350.0 0.002913
5370.0 0.0028422
5390.0 0.0027687
5410.0 0.0027047
5430.0 0.002677
5450.0 0.0026783
5470.0 0.0026997
5490.0 0.0027713
5510.0 0.0028339
5530.0 0.0028476
5550.0 0.002871
5570.0 0.0028681
5590.0 0.0028053
5610.0 0.0027761
5630.0 0.0027883
5650.0 0.0027524
5670.0 0.0026948
5690.0 0.0026193
5710.0 0.0026151
5730.0 0.0026528
5750.0 0.0025529
5770.0 0.0024357
5790.0 0.0022608
5810.0 0.0020006
5830.0 0.0021663
5850.0 0.0024059
5870.0 0.0024763
5890.0 0.002515
5910.0 0.0025688
5930.0 0.0025927
5950.0 0.002583
5970.0 0.0025871
5990.0 0.0025868
6010.0 0.0025423
6030.0 0.0024919
6050.0 0.0024866
6070.0 0.0025082
6090.0 0.0025106
6110.0 0.0024646
6130.0 0.0024144
6150.0 0.0023535
6170.0 0.0022906
6190.0 0.0022132
6210.0 0.0021696
6230.0 0.0021719
6250.0 0.0021563
6270.0 0.0021425
6290.0 0.0021584
6310.0 0.0021764
6330.0 0.0021584
6350.0 0.0021156
6370.0 0.0021022
6390.0 0.00208
6410.0 0.0020471
6430.0 0.0020117
6450.0 0.0019881
6470.0 0.0019655
6490.0 0.0019545
6510.0 0.0019333
6530.0 0.0019005
6550.0 0.0018714
6570.0 0.0018522
6590.0 0.0018615
6610.0 0.0018587
6630.0 0.0018057
6650.0 0.0017597
6670.0 0.0017446
6690.0 0.0017185
6710.0 0.0016782
6730.0 0.0016638
6750.0 0.0016765
6770.0 0.0017709
6790.0 0.0019608
6810.0 0.0018625
6830.0 0.0016396
6850.0 0.0015679
6870.0 0.0015367
6890.0 0.0015284
6910.0 0.0015235
6930.0 0.0015157
6950.0 0.0015031
6970.0 0.0014543
6990.0 0.0014299
7010.0 0.0014371
7030.0 0.0014325
7050.0 0.0013989
7070.0 0.0013665
7090.0 0.0013561
7110.0 0.0013714
7130.0 0.0013624
7150.0 0.0013523
7170.0 0.0013437
7190.0 0.0013433
7210.0 0.0013454
7230.0 0.0013455
7250.0 0.0013464
7270.0 0.0013405
7290.0 0.0013457
7310.0 0.001349
7330.0 0.0013204
7350.0 0.0012744
7370.0 0.0012422
7390.0 0.001226
7410.0 0.0012091
7430.0 0.0012088
7450.0 0.0011981
7470.0 0.001201
7490.0 0.0011769
7510.0 0.0011443
7530.0 0.0011445
7550.0 0.0011543
7570.0 0.0011364
7590.0 0.0010669
7610.0 0.0010497
7630.0 0.0010903
7650.0 0.0011006
7670.0 0.0010871
7690.0 0.0011168
7710.0 0.0011391
7730.0 0.0011415
7750.0 0.0011796
7770.0 0.0011429
7790.0 0.001106
7810.0 0.0011535
7830.0 0.0011884
7850.0 0.0011982
7870.0 0.001215
7890.0 0.0012085
7910.0 0.001188
7930.0 0.0011814
7950.0 0.0012191
7970.0 0.0012111
7990.0 0.0011224
8010.0 0.001106
8030.0 0.0010927
8050.0 0.001072
8070.0 0.0010473
8090.0 0.00095558
8110.0 0.00095735
8130.0 0.0010328
8150.0 0.0010749
8170.0 0.0010874
8190.0 0.0011207
8210.0 0.0010969
8230.0 0.0010812
8250.0 0.0010795
8270.0 0.0010598
8290.0 0.0010382
8310.0 0.00098839
8330.0 0.0009871
8350.0 0.0010038
8370.0 0.0010105
8390.0 0.0010039
8410.0 0.0009901
8430.0 0.00097226
8450.0 0.00096916
8470.0 0.0010098
8490.0 0.0010202
8510.0 0.00097737
8530.0 0.00094434
8550.0 0.00093925
8570.0 0.00091042
8590.0 0.00089686
8610.0 0.00091309
8630.0 0.00091637
8650.0 0.0009099
8670.0 0.00090414
8690.0 0.00089265
8710.0 0.00085412
8730.0 0.00085132
8750.0 0.00083251
8770.0 0.00083515
8790.0 0.00082918
8810.0 0.00080548
8830.0 0.00080739
8850.0 0.00081462
8870.0 0.00077582
8890.0 0.000744
8910.0 0.00072026
8930.0 0.00068927
8950.0 0.00066881
8970.0 0.00064074
8990.0 0.00063014
9010.0 0.00060675
9030.0 0.00059969
9050.0 0.00059606
9070.0 0.00059259
9090.0 0.00058907
9110.0 0.00058547
9130.0 0.00058187
9150.0 0.00057834
9170.0 0.00057476
9190.0 0.00057116
9210.0 0.00056753
9230.0 0.00056387
9250.0 0.00056021
9270.0 0.00055653
9290.0 0.00055283
9310.0 0.0005492
9330.0 0.00054569
9350.0 0.00054216
9370.0 0.00053863
9390.0 0.00053509
9410.0 0.00053155
9430.0 0.00052801
9450.0 0.00052448
9470.0 0.00052127
9490.0 0.00051789
9510.0 0.00051419
9530.0 0.00051052
9550.0 0.00050694
9570.0 0.00050341
9590.0 0.00049988
9610.0 0.00049648
9630.0 0.00049312
9650.0 0.00048976
9670.0 0.0004864
9690.0 0.00048308
9710.0 0.00047978
9730.0 0.00047648
9750.0 0.0004732
9770.0 0.00046997
9790.0 0.00046673
9810.0 0.00046351
9830.0 0.00046032
9850.0 0.00045687
9870.0 0.00045337
9890.0 0.00045052
9910.0 0.00044761
9930.0 0.00044415
9950.0 0.00044111
9970.0 0.00043833
9990.0 0.00043548
10010.0 0.00043264
10030.0 0.00042978
10050.0 0.00042688
10070.0 0.00042403
10090.0 0.00042122
10110.0 0.00041838
10130.0 0.00041559
10150.0 0.00041285
10170.0 0.00041014
10190.0 0.00040743
10210.0 0.00040478
10230.0 0.00040218
10250.0 0.00039958
10270.0 0.00039701
10290.0 0.0003945
10310.0 0.000392
10330.0 0.00038951
10350.0 0.00038709
10370.0 0.0003847
10390.0 0.0003823
10410.0 0.00037975
10430.0 0.00037719
10450.0 0.00037515
10470.0 0.00037299
10490.0 0.00037087
10510.0 0.00036876
10530.0 0.00036659
10550.0 0.00036447
10570.0 0.00036243
10590.0 0.00036037
10610.0 0.00035832
10630.0 0.00035635
10650.0 0.00035441
10670.0 0.00035244
10690.0 0.00035053
10710.0 0.00034868
10730.0 0.00034683
10750.0 0.00034496
10770.0 0.0003432
10790.0 0.00034146
10810.0 0.0003397
10830.0 0.00033799
10850.0 0.00033635
10870.0 0.00033466
10890.0 0.000333
10910.0 0.00033141
10930.0 0.00032982
10950.0 0.0003282
10970.0 0.00032661
10990.0 0.00032506
11010.0 0.00033908
11030.0 0.00033732
11050.0 0.00033557
11070.0 0.00033376
11090.0 0.00033179
11110.0 0.00032989
11130.0 0.00032799
11150.0 0.00032598
11170.0 0.00032393
11190.0 0.00032197
11210.0 0.00031993
11230.0 0.00031784
11250.0 0.00031582
11270.0 0.00031387
11290.0 0.00031188
11310.0 0.00030995
11330.0 0.00030823
11350.0 0.00030655
11370.0 0.00030494
11390.0 0.00030348
11410.0 0.00030216
11430.0 0.00030083
11450.0 0.00029963
11470.0 0.00029854
11490.0 0.00029746
11510.0 0.00029638
11530.0 0.00029538
11550.0 0.00029439
11570.0 0.00029333
11590.0 0.00029226
11610.0 0.0002912
11630.0 0.00029005
11650.0 0.00028881
11670.0 0.00028761
11690.0 0.00028635
11710.0 0.000285
11730.0 0.00028362
11750.0 0.00028229
11770.0 0.00028087
11790.0 0.0002794
11810.0 0.00027799
11830.0 0.00027659
11850.0 0.0002751
11870.0 0.0002737
11890.0 0.0002724
11910.0 0.0002711
11930.0 0.00026984
11950.0 0.00026871
11970.0 0.00026765
11990.0 0.00026661
12010.0 0.0002657
12030.0 0.00026491
12050.0 0.00026418
12070.0 0.00026352
12090.0 0.00026302
12110.0 0.00026258
12130.0 0.0002622
12150.0 0.00026191
12170.0 0.0002617
12190.0 0.00026149
12210.0 0.00026131
12230.0 0.00026116
12250.0 0.00026099
12270.0 0.00026076
12290.0 0.00026049
12310.0 0.00026017
12330.0 0.00025972
12350.0 0.00025917
12370.0 0.00025852
12390.0 0.00025774
12410.0 0.00025675
12430.0 0.0002557
12450.0 0.00025453
12470.0 0.00025319
12490.0 0.00025171
12510.0 0.00025022
12530.0 0.00024856
12550.0 0.00024677
12570.0 0.00024496
12590.0 0.00024312
12610.0 0.00024113
12630.0 0.00023911
12650.0 0.0002372
12670.0 0.00023521
12690.0 0.00023319
12710.0 0.00023126
12730.0 0.0002294
12750.0 0.00022746
12770.0 0.00022564
12790.0 0.00022394
12810.0 0.00022228
12830.0 0.00022066
12850.0 0.00021921
12870.0 0.00021787
12890.0 0.00021658
12910.0 0.00021541
12930.0 0.0002144
12950.0 0.00021347
12970.0 0.00021264
12990.0 0.00021198
13010.0 0.00021144
13030.0 0.000211
13050.0 0.00021068
13070.0 0.00021049
13090.0 0.00021036
13110.0 0.00021031
13130.0 0.00021032
13150.0 0.00021034
13170.0 0.00021037
13190.0 0.00021036
13210.0 0.00021031
13230.0 0.00021017
13250.0 0.00020993
13270.0 0.00020959
13290.0 0.00020913
13310.0 0.00020851
13330.0 0.00020777
13350.0 0.00020692
13370.0 0.0002059
13390.0 0.00020473
13410.0 0.0002035
13430.0 0.00020214
13450.0 0.00020063
13470.0 0.00019906
13490.0 0.00019744
13510.0 0.00019564
13530.0 0.00019378
13550.0 0.00019192
13570.0 0.00018999
13590.0 0.00018795
13610.0 0.00018592
13630.0 0.00018392
13650.0 0.00018181
13670.0 0.00017969
13690.0 0.00017762
13710.0 0.00017553
13730.0 0.00017333
13750.0 0.00017127
13770.0 0.00016925
13790.0 0.00016718
13810.0 0.00016517
13830.0 0.00016327
13850.0 0.00016136
13870.0 0.00015946
13890.0 0.00015768
13910.0 0.00015597
13930.0 0.00015424
13950.0 0.00015259
13970.0 0.00015106
13990.0 0.00014955
14010.0 0.00014807
14030.0 0.00014668
14050.0 0.00014536
14070.0 0.00014402
14090.0 0.00014277
14110.0 0.0001416
14130.0 0.00014046
14150.0 0.00013934
14170.0 0.00013831
14190.0 0.00013732
14210.0 0.00013634
14230.0 0.0001354
14250.0 0.00013451
14270.0 0.00013362
14290.0 0.00013274
14310.0 0.00013191
14330.0 0.00013109
14350.0 0.00013027
14370.0 0.00012947
14390.0 0.0001287
14410.0 0.00012791
14430.0 0.00012714
14450.0 0.00012639
14470.0 0.00012564
14490.0 0.00012488
14510.0 0.00012414
14530.0 0.00012342
14550.0 0.00012268
14570.0 0.00012194
14590.0 0.00012122
14610.0 0.00012049
14630.0 0.00011973
14650.0 0.00011899
14670.0 0.00011825
14690.0 0.00011749
14710.0 0.00011672
14730.0 0.00011597
14750.0 0.00011521
14770.0 0.00011442
14790.0 0.00011364
14810.0 0.00011286
14830.0 0.00011204
14850.0 0.00011122
14870.0 0.00011041
14890.0 0.00010959
14910.0 0.00010876
14930.0 0.00010797
14950.0 0.00010721
14970.0 0.00010646
14990.0 0.00010576
15010.0 0.00010513
15030.0 0.00010455
15050.0 0.000104
15070.0 0.00010351
15090.0 0.00010305
15110.0 0.0001026
15130.0 0.00010217
15150.0 0.00010175
15170.0 0.00010133
15190.0 0.00010091
15210.0 0.0001005
15230.0 0.00010009
15250.0 9.9678e-05
15270.0 9.9266e-05
15290.0 9.8869e-05
15310.0 9.8464e-05
15330.0 9.8058e-05
15350.0 9.7662e-05
15370.0 9.7269e-05
15390.0 9.6863e-05
15410.0 9.6468e-05
15430.0 9.608e-05
15450.0 9.5687e-05
15470.0 9.5292e-05
15490.0 9.491e-05
15510.0 9.4529e-05
15530.0 9.4141e-05
15550.0 9.376e-05
15570.0 9.3387e-05
15590.0 9.3006e-05
15610.0 9.2624e-05
15630.0 9.2256e-05
15650.0 9.1887e-05
15670.0 9.1513e-05
15690.0 9.1146e-05
15710.0 9.0788e-05
15730.0 9.0422e-05
15750.0 9.0057e-05
15770.0 8.9703e-05
15790.0 8.9348e-05
15810.0 8.8985e-05
15830.0 8.8632e-05
15850.0 8.8288e-05
15870.0 8.7937e-05
15890.0 8.7588e-05
15910.0 8.725e-05
15930.0 8.6908e-05
15950.0 8.6561e-05
15970.0 8.6224e-05
15990.0 8.5892e-05
16010.0 8.5554e-05
16030.0 8.5216e-05
16050.0 8.4893e-05
16070.0 8.4566e-05
16090.0 8.4236e-05
16110.0 8.3914e-05
16130.0 8.3599e-05
16150.0 8.3271e-05
16170.0 8.2949e-05
16190.0 8.2639e-05
16210.0 8.2325e-05
16230.0 8.2007e-05
16250.0 8.17e-05
16270.0 8.1398e-05
16290.0 8.1087e-05
16310.0 8.0781e-05
16330.0 8.0484e-05
16350.0 8.0184e-05
16370.0 7.9875e-05
16390.0 7.9583e-05
16410.0 7.9292e-05
16430.0 7.8995e-05
16450.0 7.8703e-05
16470.0 7.8421e-05
16490.0 7.8132e-05
16510.0 7.7841e-05
16530.0 7.756e-05
16550.0 7.7282e-05
16570.0 7.6995e-05
16590.0 7.6714e-05
16610.0 7.6445e-05
16630.0 7.6169e-05
16650.0 7.5892e-05
16670.0 7.5625e-05
16690.0 7.536e-05
16710.0 7.5083e-05
16730.0 7.4816e-05
16750.0 7.4556e-05
16770.0 7.4291e-05
16790.0 7.4024e-05
16810.0 7.377e-05
16830.0 7.3515e-05
16850.0 7.3253e-05
16870.0 7.2998e-05
16890.0 7.2751e-05
16910.0 7.2494e-05
16930.0 7.2237e-05
16950.0 7.1993e-05
16970.0 7.1747e-05
16990.0 7.1497e-05
17010.0 7.1253e-05
17030.0 7.1016e-05
17050.0 7.077e-05
17070.0 7.0526e-05
17090.0 7.0291e-05
17110.0 7.0055e-05
17130.0 6.981e-05
17150.0 6.9576e-05
17170.0 6.9348e-05
17190.0 6.9113e-05
17210.0 6.8879e-05
17230.0 6.8655e-05
17250.0 6.8427e-05
17270.0 6.8192e-05
17290.0 6.7967e-05
17310.0 6.7746e-05
17330.0 6.7518e-05
17350.0 6.729e-05
17370.0 6.7076e-05
17390.0 6.6856e-05
17410.0 6.6632e-05
17430.0 6.6416e-05
17450.0 6.6204e-05
17470.0 6.5979e-05
17490.0 6.5761e-05
17510.0 6.5552e-05
17530.0 6.5338e-05
17550.0 6.5121e-05
17570.0 6.4912e-05
17590.0 6.4707e-05
17610.0 6.4492e-05
17630.0 6.4282e-05
17650.0 6.4079e-05
17670.0 6.3872e-05
17690.0 6.3656e-05
17710.0 6.3455e-05
17730.0 6.3254e-05
17750.0 6.3047e-05
17770.0 6.2843e-05
17790.0 6.2648e-05
17810.0 6.2443e-05
17830.0 6.2238e-05
17850.0 6.2041e-05
17870.0 6.1844e-05
17890.0 6.1639e-05
17910.0 6.1438e-05
17930.0 6.1248e-05
17950.0 6.105e-05
17970.0 6.085e-05
17990.0 6.0659e-05
18010.0 6.0468e-05
18030.0 6.0265e-05
18050.0 6.0071e-05
18070.0 5.9882e-05
18090.0 5.9687e-05
18110.0 5.9489e-05
18130.0 5.9303e-05
18150.0 5.9114e-05
18170.0 5.8918e-05
18190.0 5.8728e-05
18210.0 5.8544e-05
18230.0 5.8349e-05
18250.0 5.8153e-05
18270.0 5.797e-05
18290.0 5.7783e-05
18310.0 5.759e-05
18330.0 5.7403e-05
18350.0 5.7222e-05
18370.0 5.703e-05
18390.0 5.684e-05
18410.0 5.6657e-05
18430.0 5.6472e-05
18450.0 5.6277e-05
18470.0 5.6092e-05
18490.0 5.5912e-05
18510.0 5.5723e-05
18530.0 5.5535e-05
18550.0 5.5357e-05
18570.0 5.5171e-05
18590.0 5.4979e-05
18610.0 5.4795e-05
18630.0 5.4614e-05
18650.0 5.4425e-05
18670.0 5.4236e-05
18690.0 5.4059e-05
18710.0 5.3875e-05
18730.0 5.3686e-05
18750.0 5.3504e-05
18770.0 5.3326e-05
18790.0 5.3132e-05
18810.0 5.2946e-05
18830.0 5.2767e-05
18850.0 5.2582e-05
18870.0 5.2392e-05
18890.0 5.2211e-05
18910.0 5.2032e-05
18930.0 5.1842e-05
18950.0 5.1656e-05
18970.0 5.1477e-05
18990.0 5.1291e-05
19010.0 5.1095e-05
19030.0 5.0916e-05
19050.0 5.0734e-05
19070.0 5.0545e-05
19090.0 5.0359e-05
19110.0 5.0181e-05
19130.0 4.9991e-05
19150.0 4.98e-05
19170.0 4.9617e-05
19190.0 4.9433e-05
19210.0 4.924e-05
19230.0 4.9051e-05
19250.0 4.8871e-05
19270.0 4.8682e-05
19290.0 4.8491e-05
19310.0 4.8308e-05
19330.0 4.8123e-05
19350.0 4.7926e-05
19370.0 4.7737e-05
19390.0 4.7553e-05
19410.0 4.7361e-05
19430.0 4.7167e-05
19450.0 4.6983e-05
19470.0 4.6795e-05
19490.0 4.6599e-05
19510.0 4.641e-05
19530.0 4.6224e-05
19550.0 4.6027e-05
19570.0 4.5829e-05
19590.0 4.5642e-05
19610.0 4.5451e-05
19630.0 4.5253e-05
19650.0 4.5062e-05
19670.0 4.4874e-05
19690.0 4.4675e-05
19710.0 4.4477e-05
19730.0 4.4287e-05
19750.0 4.4092e-05
19770.0 4.3887e-05
19790.0 4.3693e-05
19810.0 4.3502e-05
19830.0 4.3302e-05
19850.0 4.3103e-05
19870.0 4.2914e-05
19890.0 4.2719e-05
19910.0 4.2522e-05
19930.0 4.2342e-05
19950.0 4.2174e-05
19970.0 4.2015e-05
19990.0 4.1879e-05
20010.0 4.1773e-05
20030.0 4.1687e-05
20050.0 4.1622e-05
20070.0 4.1582e-05
20090.0 4.1557e-05
20110.0 4.1541e-05
20130.0 4.1534e-05
20150.0 4.1533e-05
20170.0 4.1532e-05
20190.0 4.153e-05
20210.0 4.1529e-05
20230.0 4.1527e-05
20250.0 4.1519e-05
20270.0 4.1511e-05
20290.0 4.15e-05
20310.0 4.1485e-05
20330.0 4.1464e-05
20350.0 4.1443e-05
20370.0 4.1419e-05
20390.0 4.1389e-05
20410.0 4.1357e-05
20430.0 4.1324e-05
20450.0 4.1285e-05
20470.0 4.1245e-05
20490.0 4.1206e-05
20510.0 4.1165e-05
20530.0 4.1122e-05
20550.0 4.1082e-05
20570.0 4.1045e-05
20590.0 4.1007e-05
20610.0 4.097e-05
20630.0 4.0938e-05
20650.0 4.0906e-05
20670.0 4.0871e-05
20690.0 4.084e-05
20710.0 4.0809e-05
20730.0 4.0775e-05
20750.0 4.0737e-05
20770.0 4.0699e-05
20790.0 4.0655e-05
20810.0 4.0602e-05
20830.0 4.0546e-05
20850.0 4.0484e-05
20870.0 4.0409e-05
20890.0 4.0326e-05
20910.0 4.0241e-05
20930.0 4.0147e-05
20950.0 4.0042e-05
20970.0 3.9936e-05
20990.0 3.9827e-05
21010.0 3.9707e-05
21030.0 3.9587e-05
21050.0 3.9469e-05
21070.0 3.9348e-05
21090.0 3.9221e-05
21110.0 3.9103e-05
21130.0 3.8987e-05
21150.0 3.8867e-05
21170.0 3.875e-05
21190.0 3.8639e-05
21210.0 3.8522e-05
21230.0 3.8403e-05
21250.0 3.8289e-05
21270.0 3.8174e-05
21290.0 3.8051e-05
21310.0 3.7927e-05
21330.0 3.7806e-05
21350.0 3.7676e-05
21370.0 3.754e-05
21390.0 3.7404e-05
21410.0 3.7264e-05
21430.0 3.7109e-05
21450.0 3.6954e-05
21470.0 3.6801e-05
21490.0 3.6637e-05
21510.0 3.6467e-05
21530.0 3.6301e-05
21550.0 3.613e-05
21570.0 3.5948e-05
21590.0 3.5769e-05
21610.0 3.5592e-05
21630.0 3.5408e-05
21650.0 3.5216e-05
21670.0 3.5038e-05
21690.0 3.4857e-05
21710.0 3.4669e-05
21730.0 3.4485e-05
21750.0 3.4308e-05
21770.0 3.4119e-05
21790.0 3.3931e-05
21810.0 3.375e-05
21830.0 3.3567e-05
21850.0 3.3376e-05
21870.0 3.319e-05
21890.0 3.3011e-05
21910.0 3.2823e-05
21930.0 3.2635e-05
21950.0 3.2456e-05
21970.0 3.2274e-05
21990.0 3.2085e-05
22010.0 3.1908e-05
22030.0 3.1737e-05
22050.0 3.1564e-05
22070.0 3.1397e-05
22090.0 3.1243e-05
22110.0 3.109e-05
22130.0 3.0941e-05
22150.0 3.0803e-05
22170.0 3.0674e-05
22190.0 3.0545e-05
22210.0 3.0425e-05
22230.0 3.0317e-05
22250.0 3.0212e-05
22270.0 3.011e-05
22290.0 3.0016e-05
22310.0 2.9928e-05
22330.0 2.9836e-05
22350.0 2.9749e-05
22370.0 2.9667e-05
22390.0 2.9583e-05
22410.0 2.9496e-05
22430.0 2.9413e-05
22450.0 2.933e-05
22470.0 2.9242e-05
22490.0 2.9154e-05
22510.0 2.9068e-05
22530.0 2.8977e-05
22550.0 2.8883e-05
22570.0 2.8792e-05
22590.0 2.8701e-05
22610.0 2.8606e-05
22630.0 2.8513e-05
22650.0 2.8425e-05
22670.0 2.8335e-05
22690.0 2.8246e-05
22710.0 2.8163e-05
22730.0 2.8083e-05
22750.0 2.8001e-05
22770.0 2.7928e-05
22790.0 2.786e-05
22810.0 2.7795e-05
22830.0 2.7734e-05
22850.0 2.768e-05
22870.0 2.7629e-05
22890.0 2.7581e-05
22910.0 2.7539e-05
22930.0 2.75e-05
