#lamb flux
1010.0 0.00065507
1030.0 0.00085316
1050.0 0.0010869
1070.0 0.0013546
1090.0 0.0016604
1110.0 0.0019742
1130.0 0.0022847
1150.0 0.0025974
1170.0 0.0029006
1190.0 0.0031611
1210.0 0.003393
1230.0 0.0035962
1250.0 0.0037503
1270.0 0.0038515
1290.0 0.0039215
1310.0 0.0039449
1330.0 0.0039155
1350.0 0.0038538
1370.0 0.0037792
1390.0 0.003667
1410.0 0.0035247
1430.0 0.0033708
1450.0 0.0032033
1470.0 0.0030242
1490.0 0.0028449
1510.0 0.0026699
1530.0 0.0024908
1550.0 0.0023201
1570.0 0.0021632
1590.0 0.0020209
1610.0 0.0018962
1630.0 0.0017869
1650.0 0.0016917
1670.0 0.001607
1690.0 0.0015338
1710.0 0.0014736
1730.0 0.0014231
1750.0 0.0013708
1770.0 0.0013273
1790.0 0.0012915
1810.0 0.0012612
1830.0 0.0012357
1850.0 0.0012053
1870.0 0.0011813
1890.0 0.0011609
1910.0 0.0011457
1930.0 0.0011357
1950.0 0.0011295
1970.0 0.0011283
1990.0 0.0011338
2010.0 0.0011457
2030.0 0.0011643
2050.0 0.0011924
2070.0 0.0012311
2090.0 0.0012803
2110.0 0.0013427
2130.0 0.0014209
2150.0 0.0015158
2170.0 0.0016286
2190.0 0.0017632
2210.0 0.001921
2230.0 0.0021021
2250.0 0.002309
2270.0 0.002545
2290.0 0.0028082
2310.0 0.0030984
2330.0 0.0034186
2350.0 0.0037675
2370.0 0.0041412
2390.0 0.0045399
2410.0 0.0049629
2430.0 0.0054005
2450.0 0.0058472
2470.0 0.0062982
2490.0 0.0067445
2510.0 0.0071782
2530.0 0.0076039
2550.0 0.0080355
2570.0 0.0085016
2590.0 0.0090448
2610.0 0.0097592
2630.0 0.010732
2650.0 0.012007
2670.0 0.013688
2690.0 0.015871
2710.0 0.018447
2730.0 0.021332
2750.0 0.024615
2770.0 0.028035
2790.0 0.031338
2810.0 0.034515
2830.0 0.037531
2850.0 0.040048
2870.0 0.042213
2890.0 0.044146
2910.0 0.045838
2930.0 0.047306
2950.0 0.048712
2970.0 0.05007
2990.0 0.051334
3010.0 0.052549
3030.0 0.053776
3050.0 0.054967
3070.0 0.05604
3090.0 0.057083
3110.0 0.058045
3130.0 0.05884
3150.0 0.059478
3170.0 0.059975
3190.0 0.060293
3210.0 0.060504
3230.0 0.060709
3250.0 0.060994
3270.0 0.061412
3290.0 0.062048
3310.0 0.062977
3330.0 0.064107
3350.0 0.065343
3370.0 0.066701
3390.0 0.068104
3410.0 0.069386
3430.0 0.070551
3450.0 0.071476
3470.0 0.07468
3490.0 0.074222
3510.0 0.066645
3530.0 0.070693
3550.0 0.082724
3570.0 0.091793
3590.0 0.1021
3610.0 0.10887
3630.0 0.11378
3650.0 0.10288
3670.0 0.090691
3690.0 0.088463
3710.0 0.097242
3730.0 0.11186
3750.0 0.1132
3770.0 0.11392
3790.0 0.11777
3810.0 0.11036
3830.0 0.09802
3850.0 0.088344
3870.0 0.083282
3890.0 0.092866
3910.0 0.10099
3930.0 0.10369
3950.0 0.10531
3970.0 0.10945
3990.0 0.11536
4010.0 0.11631
4030.0 0.11013
4050.0 0.099834
4070.0 0.098774
4090.0 0.10424
4110.0 0.11055
4130.0 0.10757
4150.0 0.10464
4170.0 0.10346
4190.0 0.10829
4210.0 0.10743
4230.0 0.099284
4250.0 0.088728
4270.0 0.079828
4290.0 0.072672
4310.0 0.067629
4330.0 0.066697
4350.0 0.072928
4370.0 0.074933
4390.0 0.077273
4410.0 0.080837
4430.0 0.082521
4450.0 0.080797
4470.0 0.078731
4490.0 0.081139
4510.0 0.083033
4530.0 0.084918
4550.0 0.086436
4570.0 0.086944
4590.0 0.089505
4610.0 0.090808
4630.0 0.093642
4650.0 0.096767
4670.0 0.094525
4690.0 0.088404
4710.0 0.080482
4730.0 0.077021
4750.0 0.076161
4770.0 0.073552
4790.0 0.070298
4810.0 0.067763
4830.0 0.069421
4850.0 0.070867
4870.0 0.068238
4890.0 0.066151
4910.0 0.061615
4930.0 0.062567
4950.0 0.058158
4970.0 0.05294
4990.0 0.051644
5010.0 0.048195
5030.0 0.045156
5050.0 0.045296
5070.0 0.049055
5090.0 0.050915
5110.0 0.056458
5130.0 0.058182
5150.0 0.060011
5170.0 0.061933
5190.0 0.06074
5210.0 0.061139
5230.0 0.062357
5250.0 0.062596
5270.0 0.064115
5290.0 0.063488
5310.0 0.062255
5330.0 0.059018
5350.0 0.055871
5370.0 0.052402
5390.0 0.053159
5410.0 0.054137
5430.0 0.054123
5450.0 0.054513
5470.0 0.053953
5490.0 0.053117
5510.0 0.052511
5530.0 0.051267
5550.0 0.051368
5570.0 0.051992
5590.0 0.052695
5610.0 0.052308
5630.0 0.051138
5650.0 0.050526
5670.0 0.049398
5690.0 0.047946
5710.0 0.046408
5730.0 0.045774
5750.0 0.045595
5770.0 0.044659
5790.0 0.043956
5810.0 0.043656
5830.0 0.044512
5850.0 0.045195
5870.0 0.045287
5890.0 0.044668
5910.0 0.0446
5930.0 0.044644
5950.0 0.044552
5970.0 0.043974
5990.0 0.043235
6010.0 0.044001
6030.0 0.044335
6050.0 0.043375
6070.0 0.043351
6090.0 0.043144
6110.0 0.043309
6130.0 0.043299
6150.0 0.042026
6170.0 0.03896
6190.0 0.036005
6210.0 0.034621
6230.0 0.034091
6250.0 0.034306
6270.0 0.035567
6290.0 0.036654
6310.0 0.038019
6330.0 0.039118
6350.0 0.039665
6370.0 0.039725
6390.0 0.038811
6410.0 0.03797
6430.0 0.036827
6450.0 0.035925
6470.0 0.035437
6490.0 0.035478
6510.0 0.035426
6530.0 0.035375
6550.0 0.034664
6570.0 0.033963
6590.0 0.033752
6610.0 0.03303
6630.0 0.032505
6650.0 0.031906
6670.0 0.030919
6690.0 0.029996
6710.0 0.029175
6730.0 0.028865
6750.0 0.028406
6770.0 0.02807
6790.0 0.028122
6810.0 0.027668
6830.0 0.027298
6850.0 0.027016
6870.0 0.026408
6890.0 0.026217
6910.0 0.026006
6930.0 0.025521
6950.0 0.025489
6970.0 0.025136
6990.0 0.025142
7010.0 0.024735
7030.0 0.024561
7050.0 0.02437
7070.0 0.023918
7090.0 0.023312
7110.0 0.022657
7130.0 0.022642
7150.0 0.022951
7170.0 0.02315
7190.0 0.023472
7210.0 0.023711
7230.0 0.024013
7250.0 0.024182
7270.0 0.023782
7290.0 0.0236
7310.0 0.023109
7330.0 0.022142
7350.0 0.02175
7370.0 0.021502
7390.0 0.02118
7410.0 0.021279
7430.0 0.021134
7450.0 0.020789
7470.0 0.020456
7490.0 0.019854
7510.0 0.018713
7530.0 0.019094
7550.0 0.019282
7570.0 0.018826
7590.0 0.017544
7610.0 0.017865
7630.0 0.017787
7650.0 0.017826
7670.0 0.017866
7690.0 0.018157
7710.0 0.01808
7730.0 0.018744
7750.0 0.019293
7770.0 0.020137
7790.0 0.020901
7810.0 0.021448
7830.0 0.022252
7850.0 0.02223
7870.0 0.022533
7890.0 0.022215
7910.0 0.021517
7930.0 0.021175
7950.0 0.020914
7970.0 0.020739
7990.0 0.020752
8010.0 0.018887
8030.0 0.018773
8050.0 0.018397
8070.0 0.018222
8090.0 0.017685
8110.0 0.01782
8130.0 0.018061
8150.0 0.018388
8170.0 0.018213
8190.0 0.018508
8210.0 0.018265
8230.0 0.017352
8250.0 0.017068
8270.0 0.01677
8290.0 0.016483
8310.0 0.015857
8330.0 0.01604
8350.0 0.015974
8370.0 0.016003
8390.0 0.016284
8410.0 0.016184
8430.0 0.016388
8450.0 0.01658
8470.0 0.016716
8490.0 0.016924
8510.0 0.016618
8530.0 0.016021
8550.0 0.016151
8570.0 0.016159
8590.0 0.015661
8610.0 0.015992
8630.0 0.015767
8650.0 0.015458
8670.0 0.015354
8690.0 0.015322
8710.0 0.014692
8730.0 0.014923
8750.0 0.014423
8770.0 0.014361
8790.0 0.013954
8810.0 0.01378
8830.0 0.013785
8850.0 0.013183
8870.0 0.012522
8890.0 0.012361
8910.0 0.011657
8930.0 0.010766
8950.0 0.010764
8970.0 0.010386
8990.0 0.010307
9010.0 0.010212
9030.0 0.010141
9050.0 0.010069
9070.0 0.0099965
9090.0 0.0099235
9110.0 0.0098496
9130.0 0.0097757
9150.0 0.0097024
9170.0 0.0096288
9190.0 0.0095549
9210.0 0.0094808
9230.0 0.0094065
9250.0 0.0093322
9270.0 0.0092578
9290.0 0.0091834
9310.0 0.0091091
9330.0 0.0090349
9350.0 0.0089608
9370.0 0.0088868
9390.0 0.0088131
9410.0 0.0087394
9430.0 0.008666
9450.0 0.0085929
9470.0 0.0085254
9490.0 0.0084553
9510.0 0.00838
9530.0 0.0083058
9550.0 0.008233
9570.0 0.0081613
9590.0 0.00809
9610.0 0.0080193
9630.0 0.0079496
9650.0 0.0078802
9670.0 0.007811
9690.0 0.0077427
9710.0 0.0076749
9730.0 0.0076074
9750.0 0.0075405
9770.0 0.0074746
9790.0 0.0074089
9810.0 0.0073436
9830.0 0.0072781
9850.0 0.0072041
9870.0 0.0071387
9890.0 0.0070815
9910.0 0.0070235
9930.0 0.0069528
9950.0 0.0068922
9970.0 0.0068374
9990.0 0.0067809
10010.0 0.0067243
10030.0 0.0066675
10050.0 0.0066107
10070.0 0.0065549
10090.0 0.0065
10110.0 0.0064441
10130.0 0.0063888
10150.0 0.0063356
10170.0 0.0062826
10190.0 0.0062293
10210.0 0.0061778
10230.0 0.0061273
10250.0 0.0060765
10270.0 0.0060266
10290.0 0.0059782
10310.0 0.0059296
10330.0 0.005881
10350.0 0.0058342
10370.0 0.0057882
10390.0 0.0057419
10410.0 0.0056959
10430.0 0.0056516
10450.0 0.0056083
10470.0 0.0055649
10490.0 0.0055229
10510.0 0.0054816
10530.0 0.0054395
10550.0 0.0053986
10570.0 0.0053592
10590.0 0.0053197
10610.0 0.0052803
10630.0 0.0052426
10650.0 0.0052054
10670.0 0.0051676
10690.0 0.0051309
10710.0 0.0050955
10730.0 0.0050599
10750.0 0.005024
10770.0 0.0049904
10790.0 0.0049569
10810.0 0.0049231
10830.0 0.0048904
10850.0 0.004859
10870.0 0.0048267
10890.0 0.0047952
10910.0 0.0047653
10930.0 0.0047361
10950.0 0.004707
10970.0 0.0046797
10990.0 0.0046544
11010.0 0.0049582
11030.0 0.0049393
11050.0 0.0049207
11070.0 0.0049014
11090.0 0.0048797
11110.0 0.0048576
11130.0 0.0048342
11150.0 0.0048086
11170.0 0.0047814
11190.0 0.0047543
11210.0 0.0047258
11230.0 0.004696
11250.0 0.0046671
11270.0 0.0046389
11290.0 0.00461
11310.0 0.0045821
11330.0 0.0045569
11350.0 0.0045324
11370.0 0.0045086
11390.0 0.004487
11410.0 0.004467
11430.0 0.0044467
11450.0 0.0044277
11470.0 0.0044099
11490.0 0.0043917
11510.0 0.0043727
11530.0 0.0043543
11550.0 0.0043355
11570.0 0.0043151
11590.0 0.004294
11610.0 0.0042731
11630.0 0.0042505
11650.0 0.0042264
11670.0 0.0042034
11690.0 0.0041802
11710.0 0.004156
11730.0 0.0041322
11750.0 0.00411
11770.0 0.0040871
11790.0 0.0040641
11810.0 0.0040428
11830.0 0.004022
11850.0 0.0040002
11870.0 0.0039799
11890.0 0.0039613
11910.0 0.0039426
11930.0 0.0039246
11950.0 0.0039088
11970.0 0.0038941
11990.0 0.0038802
12010.0 0.0038687
12030.0 0.0038597
12050.0 0.0038525
12070.0 0.0038474
12090.0 0.0038457
12110.0 0.0038462
12130.0 0.003849
12150.0 0.0038543
12170.0 0.0038616
12190.0 0.0038709
12210.0 0.0038818
12230.0 0.0038939
12250.0 0.0039069
12270.0 0.0039208
12290.0 0.0039348
12310.0 0.0039487
12330.0 0.0039625
12350.0 0.0039757
12370.0 0.0039879
12390.0 0.0039992
12410.0 0.0040091
12430.0 0.0040173
12450.0 0.0040238
12470.0 0.0040279
12490.0 0.0040296
12510.0 0.0040291
12530.0 0.0040256
12550.0 0.0040187
12570.0 0.0040093
12590.0 0.003997
12610.0 0.0039808
12630.0 0.0039614
12650.0 0.0039408
12670.0 0.0039169
12690.0 0.0038901
12710.0 0.0038623
12730.0 0.0038334
12750.0 0.0038011
12770.0 0.0037687
12790.0 0.0037369
12810.0 0.003704
12830.0 0.0036702
12850.0 0.0036387
12870.0 0.003608
12890.0 0.003577
12910.0 0.0035477
12930.0 0.0035207
12950.0 0.003494
12970.0 0.0034683
12990.0 0.0034454
13010.0 0.0034239
13030.0 0.0034028
13050.0 0.0033834
13070.0 0.0033657
13090.0 0.0033481
13110.0 0.0033311
13130.0 0.0033153
13150.0 0.0033001
13170.0 0.0032844
13190.0 0.0032698
13210.0 0.003256
13230.0 0.0032419
13250.0 0.0032279
13270.0 0.0032146
13290.0 0.0032012
13310.0 0.003187
13330.0 0.0031731
13350.0 0.003159
13370.0 0.003144
13390.0 0.0031279
13410.0 0.0031122
13430.0 0.0030953
13450.0 0.0030771
13470.0 0.0030585
13490.0 0.0030396
13510.0 0.0030186
13530.0 0.0029971
13550.0 0.0029756
13570.0 0.0029533
13590.0 0.0029296
13610.0 0.0029062
13630.0 0.0028828
13650.0 0.0028581
13670.0 0.0028331
13690.0 0.0028085
13710.0 0.0027833
13730.0 0.0027566
13750.0 0.0027311
13770.0 0.0027056
13790.0 0.0026792
13810.0 0.0026528
13830.0 0.0026273
13850.0 0.0026012
13870.0 0.0025747
13890.0 0.0025491
13910.0 0.0025239
13930.0 0.0024981
13950.0 0.0024728
13970.0 0.0024489
13990.0 0.0024248
14010.0 0.0024006
14030.0 0.0023775
14050.0 0.0023549
14070.0 0.0023316
14090.0 0.0023091
14110.0 0.0022875
14130.0 0.0022656
14150.0 0.0022435
14170.0 0.0022224
14190.0 0.0022015
14210.0 0.0021802
14230.0 0.0021594
14250.0 0.0021393
14270.0 0.0021189
14290.0 0.0020984
14310.0 0.0020792
14330.0 0.0020603
14350.0 0.0020414
14370.0 0.0020233
14390.0 0.0020062
14410.0 0.0019891
14430.0 0.0019726
14450.0 0.0019569
14470.0 0.0019417
14490.0 0.0019263
14510.0 0.0019118
14530.0 0.0018978
14550.0 0.0018838
14570.0 0.0018699
14590.0 0.0018565
14610.0 0.001843
14630.0 0.0018294
14650.0 0.0018161
14670.0 0.001803
14690.0 0.0017897
14710.0 0.0017764
14730.0 0.0017638
14750.0 0.0017511
14770.0 0.0017383
14790.0 0.0017259
14810.0 0.0017138
14830.0 0.0017015
14850.0 0.0016894
14870.0 0.0016778
14890.0 0.0016661
14910.0 0.0016545
14930.0 0.0016432
14950.0 0.0016324
14970.0 0.0016216
14990.0 0.0016111
15010.0 0.0016013
15030.0 0.0015918
15050.0 0.0015824
15070.0 0.0015736
15090.0 0.0015651
15110.0 0.0015565
15130.0 0.0015482
15150.0 0.00154
15170.0 0.0015318
15190.0 0.0015235
15210.0 0.0015155
15230.0 0.0015074
15250.0 0.0014993
15270.0 0.0014912
15290.0 0.0014834
15310.0 0.0014754
15330.0 0.0014675
15350.0 0.0014597
15370.0 0.001452
15390.0 0.0014441
15410.0 0.0014363
15430.0 0.0014287
15450.0 0.0014211
15470.0 0.0014134
15490.0 0.001406
15510.0 0.0013985
15530.0 0.001391
15550.0 0.0013837
15570.0 0.0013764
15590.0 0.0013691
15610.0 0.0013617
15630.0 0.0013546
15650.0 0.0013475
15670.0 0.0013404
15690.0 0.0013334
15710.0 0.0013265
15730.0 0.0013195
15750.0 0.0013126
15770.0 0.0013059
15790.0 0.0012992
15810.0 0.0012923
15830.0 0.0012857
15850.0 0.0012792
15870.0 0.0012726
15890.0 0.0012661
15910.0 0.0012598
15930.0 0.0012534
15950.0 0.001247
15970.0 0.0012408
15990.0 0.0012347
16010.0 0.0012285
16030.0 0.0012223
16050.0 0.0012164
16070.0 0.0012104
16090.0 0.0012044
16110.0 0.0011986
16130.0 0.0011929
16150.0 0.001187
16170.0 0.0011813
16190.0 0.0011757
16210.0 0.0011702
16230.0 0.0011646
16250.0 0.0011591
16270.0 0.0011538
16290.0 0.0011484
16310.0 0.001143
16330.0 0.0011378
16350.0 0.0011326
16370.0 0.0011274
16390.0 0.0011223
16410.0 0.0011173
16430.0 0.0011123
16450.0 0.0011073
16470.0 0.0011025
16490.0 0.0010977
16510.0 0.0010928
16530.0 0.0010881
16550.0 0.0010835
16570.0 0.0010787
16590.0 0.0010741
16610.0 0.0010697
16630.0 0.0010652
16650.0 0.0010607
16670.0 0.0010563
16690.0 0.001052
16710.0 0.0010476
16730.0 0.0010434
16750.0 0.0010392
16770.0 0.001035
16790.0 0.0010308
16810.0 0.0010268
16830.0 0.0010228
16850.0 0.0010188
16870.0 0.0010148
16890.0 0.001011
16910.0 0.0010071
16930.0 0.0010032
16950.0 0.00099944
16970.0 0.00099572
16990.0 0.00099195
17010.0 0.00098829
17030.0 0.00098475
17050.0 0.0009811
17070.0 0.0009775
17090.0 0.00097403
17110.0 0.00097057
17130.0 0.00096701
17150.0 0.00096361
17170.0 0.00096029
17190.0 0.00095691
17210.0 0.00095356
17230.0 0.00095036
17250.0 0.00094711
17270.0 0.0009438
17290.0 0.00094063
17310.0 0.00093752
17330.0 0.00093434
17350.0 0.00093117
17370.0 0.00092818
17390.0 0.00092514
17410.0 0.00092207
17430.0 0.0009191
17450.0 0.00091621
17470.0 0.00091316
17490.0 0.0009102
17510.0 0.00090737
17530.0 0.0009045
17550.0 0.00090158
17570.0 0.00089879
17590.0 0.00089605
17610.0 0.0008932
17630.0 0.00089042
17650.0 0.00088774
17670.0 0.000885
17690.0 0.00088217
17710.0 0.00087954
17730.0 0.00087691
17750.0 0.0008742
17770.0 0.00087155
17790.0 0.00086902
17810.0 0.00086637
17830.0 0.00086371
17850.0 0.00086117
17870.0 0.00085864
17890.0 0.00085601
17910.0 0.00085343
17930.0 0.00085099
17950.0 0.00084846
17970.0 0.0008459
17990.0 0.00084346
18010.0 0.00084101
18030.0 0.00083842
18050.0 0.00083595
18070.0 0.00083354
18090.0 0.00083106
18110.0 0.00082854
18130.0 0.00082617
18150.0 0.00082377
18170.0 0.00082127
18190.0 0.00081885
18210.0 0.0008165
18230.0 0.00081402
18250.0 0.00081152
18270.0 0.00080917
18290.0 0.00080678
18310.0 0.00080431
18330.0 0.00080192
18350.0 0.0007996
18370.0 0.00079713
18390.0 0.00079468
18410.0 0.00079233
18430.0 0.00078994
18450.0 0.00078742
18470.0 0.00078502
18490.0 0.00078268
18510.0 0.00078022
18530.0 0.00077777
18550.0 0.00077543
18570.0 0.000773
18590.0 0.00077048
18610.0 0.00076806
18630.0 0.00076567
18650.0 0.00076316
18670.0 0.00076065
18690.0 0.00075828
18710.0 0.00075582
18730.0 0.00075329
18750.0 0.00075084
18770.0 0.00074842
18790.0 0.00074581
18810.0 0.00074327
18830.0 0.00074082
18850.0 0.00073829
18870.0 0.00073569
18890.0 0.00073319
18910.0 0.0007307
18930.0 0.00072806
18950.0 0.00072547
18970.0 0.00072295
18990.0 0.00072034
19010.0 0.0007176
19030.0 0.00071505
19050.0 0.00071246
19070.0 0.00070976
19090.0 0.00070709
19110.0 0.00070452
19130.0 0.00070179
19150.0 0.00069903
19170.0 0.00069636
19190.0 0.00069367
19210.0 0.00069084
19230.0 0.00068807
19250.0 0.0006854
19270.0 0.00068259
19290.0 0.00067975
19310.0 0.00067701
19330.0 0.00067422
19350.0 0.00067127
19370.0 0.00066842
19390.0 0.00066561
19410.0 0.00066269
19430.0 0.00065973
19450.0 0.0006569
19470.0 0.000654
19490.0 0.00065099
19510.0 0.00064804
19530.0 0.00064514
19550.0 0.00064208
19570.0 0.00063899
19590.0 0.00063604
19610.0 0.00063302
19630.0 0.00062991
19650.0 0.00062687
19670.0 0.00062387
19690.0 0.0006207
19710.0 0.00061755
19730.0 0.00061448
19750.0 0.00061134
19770.0 0.00060807
19790.0 0.00060492
19810.0 0.0006018
19830.0 0.00059855
19850.0 0.00059531
19870.0 0.00059217
19890.0 0.00058892
19910.0 0.0005856
19930.0 0.0005824
19950.0 0.00057924
19970.0 0.00057601
19990.0 0.00057285
20010.0 0.00056987
20030.0 0.00056684
20050.0 0.00056382
20070.0 0.00056091
20090.0 0.00055805
20110.0 0.00055503
20130.0 0.00055209
20150.0 0.00054921
20170.0 0.00054626
20190.0 0.00054325
20210.0 0.00054034
20230.0 0.00053742
20250.0 0.00053442
20270.0 0.00053149
20290.0 0.00052864
20310.0 0.00052578
20330.0 0.00052289
20350.0 0.00052021
20370.0 0.00051756
20390.0 0.00051493
20410.0 0.00051242
20430.0 0.00051006
20450.0 0.0005077
20470.0 0.00050544
20490.0 0.00050334
20510.0 0.00050134
20530.0 0.00049942
20550.0 0.00049766
20570.0 0.00049605
20590.0 0.00049454
20610.0 0.00049317
20630.0 0.00049196
20650.0 0.00049087
20670.0 0.00048992
20690.0 0.00048911
20710.0 0.0004884
20730.0 0.0004878
20750.0 0.00048729
20770.0 0.00048681
20790.0 0.00048637
20810.0 0.00048594
20830.0 0.00048548
20850.0 0.00048494
20870.0 0.00048434
20890.0 0.0004836
20910.0 0.00048271
20930.0 0.00048165
20950.0 0.00048039
20970.0 0.00047893
20990.0 0.00047727
21010.0 0.00047535
21030.0 0.0004732
21050.0 0.00047087
21070.0 0.00046831
21090.0 0.00046548
21110.0 0.00046255
21130.0 0.00045949
21150.0 0.00045621
21170.0 0.00045284
21190.0 0.00044946
21210.0 0.00044593
21230.0 0.0004423
21250.0 0.00043875
21270.0 0.00043519
21290.0 0.00043155
21310.0 0.00042794
21330.0 0.00042445
21350.0 0.00042089
21370.0 0.00041731
21390.0 0.00041381
21410.0 0.00041032
21430.0 0.00040668
21450.0 0.0004031
21470.0 0.00039957
21490.0 0.00039593
21510.0 0.00039222
21530.0 0.00038856
21550.0 0.00038485
21570.0 0.000381
21590.0 0.00037717
21610.0 0.00037338
21630.0 0.00036948
21650.0 0.00036548
21670.0 0.00036167
21690.0 0.00035782
21710.0 0.00035391
21730.0 0.00035008
21750.0 0.00034636
21770.0 0.00034255
21790.0 0.0003388
21810.0 0.00033519
21830.0 0.00033161
21850.0 0.00032801
21870.0 0.00032453
21890.0 0.00032118
21910.0 0.00031779
21930.0 0.00031444
21950.0 0.0003112
21970.0 0.00030797
21990.0 0.00030467
22010.0 0.00030149
22030.0 0.00029834
22050.0 0.00029513
22070.0 0.00029191
22090.0 0.00028878
22110.0 0.00028558
22130.0 0.00028231
22150.0 0.00027909
22170.0 0.00027588
22190.0 0.00027256
22210.0 0.00026922
22230.0 0.00026599
22250.0 0.00026269
22270.0 0.00025934
22290.0 0.00025606
22310.0 0.00025282
22330.0 0.00024948
22350.0 0.00024621
22370.0 0.00024302
22390.0 0.00023982
22410.0 0.0002366
22430.0 0.00023352
22450.0 0.00023052
22470.0 0.00022749
22490.0 0.00022456
22510.0 0.00022176
22530.0 0.00021895
22550.0 0.00021619
22570.0 0.00021359
22590.0 0.00021106
22610.0 0.00020856
22630.0 0.00020615
22650.0 0.00020389
22670.0 0.00020163
22690.0 0.00019944
22710.0 0.00019735
22730.0 0.00019533
22750.0 0.0001933
22770.0 0.00019138
22790.0 0.00018954
22810.0 0.00018773
22830.0 0.00018597
22850.0 0.00018432
22870.0 0.00018271
22890.0 0.00018113
22910.0 0.00017965
22930.0 0.00017826
22950.0 0.00017692
22970.0 0.00017565
22990.0 0.0001745
23010.0 0.00017342
23030.0 0.00017243
23050.0 0.00017153
23070.0 0.00017074
23090.0 0.00017004
23110.0 0.00016944
23130.0 0.00016894
23150.0 0.00016854
23170.0 0.00016824
23190.0 0.00016804
23210.0 0.00016792
23230.0 0.00016789
23250.0 0.00016794
23270.0 0.00016804
23290.0 0.0001682
23310.0 0.00016842
23330.0 0.00016864
23350.0 0.00016886
23370.0 0.00016909
23390.0 0.0001693
23410.0 0.00016946
23430.0 0.00016958
23450.0 0.00016993
23470.0 0.00017028
23490.0 0.0001706
23510.0 0.0001709
23530.0 0.00017118
23550.0 0.00017145
23570.0 0.00017174
23590.0 0.00017207
23610.0 0.00017245
23630.0 0.0001729
23650.0 0.00017345
23670.0 0.00017411
23690.0 0.00017485
23710.0 0.00017572
23730.0 0.00017673
23750.0 0.00017781
23770.0 0.00017899
23790.0 0.00018031
23810.0 0.00018172
23830.0 0.0001832
