#lamb flux
1010.0 6.7783e-06
1030.0 7.4239e-06
1050.0 8.1666e-06
1070.0 9.0028e-06
1090.0 9.9525e-06
1110.0 1.0927e-05
1130.0 1.1907e-05
1150.0 1.2935e-05
1170.0 1.3995e-05
1190.0 1.5e-05
1210.0 1.6019e-05
1230.0 1.7072e-05
1250.0 1.8104e-05
1270.0 1.9106e-05
1290.0 2.0166e-05
1310.0 2.1225e-05
1330.0 2.224e-05
1350.0 2.3268e-05
1370.0 2.4329e-05
1390.0 2.5363e-05
1410.0 2.6368e-05
1430.0 2.7418e-05
1450.0 2.8468e-05
1470.0 2.9483e-05
1490.0 3.0509e-05
1510.0 3.1594e-05
1530.0 3.2621e-05
1550.0 3.3635e-05
1570.0 3.4683e-05
1590.0 3.5732e-05
1610.0 3.6735e-05
1630.0 3.7768e-05
1650.0 3.8828e-05
1670.0 3.9852e-05
1690.0 4.0862e-05
1710.0 4.191e-05
1730.0 4.2963e-05
1750.0 4.3951e-05
1770.0 4.4967e-05
1790.0 4.6e-05
1810.0 4.6998e-05
1830.0 4.7974e-05
1850.0 4.9008e-05
1870.0 5.0011e-05
1890.0 5.0974e-05
1910.0 5.1951e-05
1930.0 5.2947e-05
1950.0 5.3889e-05
1970.0 5.481e-05
1990.0 5.5761e-05
2010.0 5.6685e-05
2030.0 5.7562e-05
2050.0 5.8457e-05
2070.0 5.9364e-05
2090.0 6.0199e-05
2110.0 6.1015e-05
2130.0 6.1844e-05
2150.0 6.2636e-05
2170.0 6.3366e-05
2190.0 6.4112e-05
2210.0 6.4841e-05
2230.0 6.5507e-05
2250.0 6.6145e-05
2270.0 6.6798e-05
2290.0 6.7393e-05
2310.0 6.7921e-05
2330.0 6.8448e-05
2350.0 6.8952e-05
2370.0 6.9388e-05
2390.0 6.9807e-05
2410.0 7.0248e-05
2430.0 7.065e-05
2450.0 7.1038e-05
2470.0 7.1493e-05
2490.0 7.2072e-05
2510.0 7.2794e-05
2530.0 7.3976e-05
2550.0 7.6108e-05
2570.0 7.9657e-05
2590.0 8.5164e-05
2610.0 9.4109e-05
2630.0 0.00010672
2650.0 0.00012215
2670.0 0.00014047
2690.0 0.00016084
2710.0 0.00018027
2730.0 0.00019743
2750.0 0.00021261
2770.0 0.00022437
2790.0 0.00023268
2810.0 0.00023881
2830.0 0.00024367
2850.0 0.00024711
2870.0 0.00025002
2890.0 0.00025295
2910.0 0.00025578
2930.0 0.0002583
2950.0 0.00026101
2970.0 0.00026383
2990.0 0.00026639
3010.0 0.0024467
3030.0 0.0024706
3050.0 0.0024932
3070.0 0.0025102
3090.0 0.0025241
3110.0 0.0025298
3130.0 0.0025214
3150.0 0.0024957
3170.0 0.002447
3190.0 0.0023759
3210.0 0.0022887
3230.0 0.0021956
3250.0 0.0021869
3270.0 0.002117
3290.0 0.0022003
3310.0 0.0021208
3330.0 0.0021616
3350.0 0.0022344
3370.0 0.0023298
3390.0 0.0024429
3410.0 0.0025599
3430.0 0.0026851
3450.0 0.0028197
3470.0 0.0029553
3490.0 0.0030855
3510.0 0.0032502
3530.0 0.0034471
3550.0 0.0035715
3570.0 0.0036633
3590.0 0.0039044
3610.0 0.0039645
3630.0 0.004262
3650.0 0.0044813
3670.0 0.0047139
3690.0 0.0047506
3710.0 0.0046185
3730.0 0.0046863
3750.0 0.0046868
3770.0 0.0048799
3790.0 0.0051678
3810.0 0.0057486
3830.0 0.0069557
3850.0 0.0082846
3870.0 0.0095386
3890.0 0.010364
3910.0 0.010748
3930.0 0.01118
3950.0 0.011622
3970.0 0.010192
3990.0 0.0069223
4010.0 0.0059859
4030.0 0.0081786
4050.0 0.010311
4070.0 0.0091646
4090.0 0.0056496
4110.0 0.0054968
4130.0 0.0078167
4150.0 0.0088612
4170.0 0.0074599
4190.0 0.0063649
4210.0 0.0083505
4230.0 0.0087696
4250.0 0.0083295
4270.0 0.0083916
4290.0 0.0076514
4310.0 0.0085895
4330.0 0.010011
4350.0 0.011499
4370.0 0.01145
4390.0 0.011161
4410.0 0.0098508
4430.0 0.0077704
4450.0 0.0059146
4470.0 0.0064163
4490.0 0.006945
4510.0 0.009513
4530.0 0.0099202
4550.0 0.0097654
4570.0 0.011346
4590.0 0.014469
4610.0 0.019795
4630.0 0.024281
4650.0 0.024514
4670.0 0.025308
4690.0 0.027275
4710.0 0.02671
4730.0 0.021529
4750.0 0.015349
4770.0 0.012817
4790.0 0.011301
4810.0 0.01071
4830.0 0.011703
4850.0 0.013144
4870.0 0.01543
4890.0 0.016942
4910.0 0.015083
4930.0 0.015697
4950.0 0.019516
4970.0 0.024175
4990.0 0.027781
5010.0 0.027769
5030.0 0.023517
5050.0 0.017026
5070.0 0.012475
5090.0 0.010791
5110.0 0.011076
5130.0 0.012064
5150.0 0.011359
5170.0 0.011315
5190.0 0.011266
5210.0 0.011468
5230.0 0.012404
5250.0 0.012798
5270.0 0.013781
5290.0 0.016528
5310.0 0.018725
5330.0 0.019766
5350.0 0.020151
5370.0 0.02151
5390.0 0.022356
5410.0 0.020536
5430.0 0.018696
5450.0 0.019091
5470.0 0.022603
5490.0 0.028964
5510.0 0.034781
5530.0 0.036592
5550.0 0.035501
5570.0 0.033532
5590.0 0.031371
5610.0 0.029985
5630.0 0.03048
5650.0 0.031456
5670.0 0.030424
5690.0 0.028619
5710.0 0.027898
5730.0 0.024656
5750.0 0.019666
5770.0 0.017895
5790.0 0.020142
5810.0 0.022402
5830.0 0.02499
5850.0 0.025658
5870.0 0.024962
5890.0 0.023633
5910.0 0.022004
5930.0 0.02193
5950.0 0.023135
5970.0 0.023608
5990.0 0.020837
6010.0 0.016962
6030.0 0.013738
6050.0 0.012431
6070.0 0.013179
6090.0 0.014801
6110.0 0.015166
6130.0 0.014205
6150.0 0.014079
6170.0 0.015564
6190.0 0.018164
6210.0 0.021756
6230.0 0.024561
6250.0 0.023302
6270.0 0.020344
6290.0 0.016991
6310.0 0.013474
6330.0 0.011414
6350.0 0.011269
6370.0 0.012369
6390.0 0.013646
6410.0 0.015964
6430.0 0.019647
6450.0 0.024191
6470.0 0.028382
6490.0 0.032082
6510.0 0.034002
6530.0 0.032807
6550.0 0.031516
6570.0 0.031667
6590.0 0.031481
6610.0 0.029962
6630.0 0.028221
6650.0 0.026255
6670.0 0.026007
6690.0 0.025351
6710.0 0.023441
6730.0 0.020395
6750.0 0.018176
6770.0 0.018748
6790.0 0.020015
6810.0 0.021747
6830.0 0.02217
6850.0 0.020836
6870.0 0.020224
6890.0 0.019816
6910.0 0.018725
6930.0 0.018083
6950.0 0.018219
6970.0 0.018609
6990.0 0.01968
7010.0 0.021186
7030.0 0.020769
7050.0 0.018822
7070.0 0.01691
7090.0 0.01445
7110.0 0.012871
7130.0 0.013525
7150.0 0.014653
7170.0 0.01493
7190.0 0.014589
7210.0 0.014437
7230.0 0.01621
7250.0 0.018462
7270.0 0.019871
7290.0 0.020053
7310.0 0.019071
7330.0 0.017515
7350.0 0.016199
7370.0 0.015386
7390.0 0.015216
7410.0 0.016265
7430.0 0.018737
7450.0 0.020918
7470.0 0.023548
7490.0 0.026922
7510.0 0.025749
7530.0 0.021704
7550.0 0.018315
7570.0 0.015242
7590.0 0.012623
7610.0 0.01223
7630.0 0.012856
7650.0 0.0142
7670.0 0.016283
7690.0 0.017943
7710.0 0.020255
7730.0 0.021192
7750.0 0.021943
7770.0 0.023231
7790.0 0.023473
7810.0 0.023143
7830.0 0.021936
7850.0 0.021457
7870.0 0.020779
7890.0 0.019113
7910.0 0.017433
7930.0 0.015864
7950.0 0.013634
7970.0 0.012973
7990.0 0.013412
8010.0 0.015556
8030.0 0.01566
8050.0 0.016274
8070.0 0.016014
8090.0 0.016025
8110.0 0.01564
8130.0 0.014778
8150.0 0.013747
8170.0 0.013637
8190.0 0.013829
8210.0 0.013983
8230.0 0.013106
8250.0 0.012323
8270.0 0.010856
8290.0 0.0089263
8310.0 0.0070714
8330.0 0.0050678
8350.0 0.0038121
8370.0 0.0035848
8390.0 0.0039568
8410.0 0.0046735
8430.0 0.0058678
8450.0 0.0064845
8470.0 0.0069539
8490.0 0.0076497
8510.0 0.0082087
8530.0 0.0091125
8550.0 0.010771
8570.0 0.0123
8590.0 0.013492
8610.0 0.015532
8630.0 0.017977
8650.0 0.018949
8670.0 0.019241
8690.0 0.019161
8710.0 0.01851
8730.0 0.017755
8750.0 0.016658
8770.0 0.016383
8790.0 0.015852
8810.0 0.014668
8830.0 0.013869
8850.0 0.012093
8870.0 0.011086
8890.0 0.010212
8910.0 0.011207
8930.0 0.010608
8950.0 0.010806
8970.0 0.011015
8990.0 0.010948
9010.0 0.011093
9030.0 0.010704
9050.0 0.010677
9070.0 0.010688
9090.0 0.010698
9110.0 0.010714
9130.0 0.010725
9150.0 0.010735
9170.0 0.01073
9190.0 0.010704
9210.0 0.010816
9230.0 0.010806
9250.0 0.010809
9270.0 0.010815
9290.0 0.010824
9310.0 0.010835
9330.0 0.010848
9350.0 0.010862
9370.0 0.010876
9390.0 0.010891
9410.0 0.010907
9430.0 0.010923
9450.0 0.010939
9470.0 0.010956
9490.0 0.010973
9510.0 0.010991
9530.0 0.011009
9550.0 0.011028
9570.0 0.011048
9590.0 0.011068
9610.0 0.011088
9630.0 0.01111
9650.0 0.011131
9670.0 0.011153
9690.0 0.011176
9710.0 0.011199
9730.0 0.011223
9750.0 0.011247
9770.0 0.011273
9790.0 0.011298
9810.0 0.011324
9830.0 0.01135
9850.0 0.011378
9870.0 0.011405
9890.0 0.011432
9910.0 0.011461
9930.0 0.01149
9950.0 0.011511
9970.0 0.011543
9990.0 0.011575
10010.0 0.011605
10030.0 0.011636
10050.0 0.011663
10070.0 0.011669
10090.0 0.011709
10110.0 0.011748
10130.0 0.011785
10150.0 0.011821
10170.0 0.011855
10190.0 0.011887
10210.0 0.01192
10230.0 0.011952
10250.0 0.011984
10270.0 0.012015
10290.0 0.012048
10310.0 0.012079
10330.0 0.012109
10350.0 0.01214
10370.0 0.012171
10390.0 0.0122
10410.0 0.01223
10430.0 0.01226
10450.0 0.012288
10470.0 0.012316
10490.0 0.012344
10510.0 0.012372
10530.0 0.012398
10550.0 0.012423
10570.0 0.012449
10590.0 0.012474
10610.0 0.012497
10630.0 0.01252
10650.0 0.012543
10670.0 0.012564
10690.0 0.012584
10710.0 0.012604
10730.0 0.012623
10750.0 0.012639
10770.0 0.012657
10790.0 0.012673
10810.0 0.012687
10830.0 0.0127
10850.0 0.012711
10870.0 0.012718
10890.0 0.012717
10910.0 0.012707
10930.0 0.012679
10950.0 0.012622
10970.0 0.01253
10990.0 0.012401
11010.0 0.012491
11030.0 0.012232
11050.0 0.011935
11070.0 0.011594
11090.0 0.011201
11110.0 0.010812
11130.0 0.010423
11150.0 0.010026
11170.0 0.009641
11190.0 0.0092934
11210.0 0.0089614
11230.0 0.0086502
11250.0 0.0083806
11270.0 0.0081459
11290.0 0.0079331
11310.0 0.0077505
11330.0 0.0076022
11350.0 0.0074693
11370.0 0.0073483
11390.0 0.0072396
11410.0 0.0071355
11430.0 0.0070234
11450.0 0.0069065
11470.0 0.0067837
11490.0 0.0066467
11510.0 0.0064924
11530.0 0.0063326
11550.0 0.0061642
11570.0 0.0059813
11590.0 0.0057946
11610.0 0.0056116
11630.0 0.0054229
11650.0 0.0052334
11670.0 0.0050585
11690.0 0.0048913
11710.0 0.0047283
11730.0 0.0045775
11750.0 0.004442
11770.0 0.0043114
11790.0 0.0041887
11810.0 0.0040776
11830.0 0.0039731
11850.0 0.003869
11870.0 0.0037715
11890.0 0.003679
11910.0 0.0035849
11930.0 0.0034896
11950.0 0.0033968
11970.0 0.0033021
11990.0 0.0032022
12010.0 0.0031036
12030.0 0.0030064
12050.0 0.0029071
12070.0 0.0028077
12090.0 0.0027171
12110.0 0.0026302
12130.0 0.0025482
12150.0 0.0024765
12170.0 0.0024165
12190.0 0.0023657
12210.0 0.0023294
12230.0 0.0023083
12250.0 0.0023018
12270.0 0.0023113
12290.0 0.0023358
12310.0 0.0023727
12330.0 0.0024248
12350.0 0.0024887
12370.0 0.002559
12390.0 0.0026372
12410.0 0.0027247
12430.0 0.0028085
12450.0 0.00289
12470.0 0.002971
12490.0 0.003046
12510.0 0.0031097
12530.0 0.003167
12550.0 0.0032156
12570.0 0.0032514
12590.0 0.003276
12610.0 0.0032911
12630.0 0.0032948
12650.0 0.0032879
12670.0 0.0032721
12690.0 0.0032476
12710.0 0.003216
12730.0 0.0031785
12750.0 0.0031339
12770.0 0.0030851
12790.0 0.0030336
12810.0 0.0029781
12830.0 0.0029185
12850.0 0.0028587
12870.0 0.0027968
12890.0 0.0027307
12910.0 0.0026628
12930.0 0.0025942
12950.0 0.0025206
12970.0 0.0024428
12990.0 0.0023656
13010.0 0.0022862
13030.0 0.0022027
13050.0 0.0021196
13070.0 0.0020396
13090.0 0.001958
13110.0 0.0018785
13130.0 0.0018054
13150.0 0.0017373
13170.0 0.0016728
13190.0 0.0016179
13210.0 0.0015723
13230.0 0.0015337
13250.0 0.0015038
13270.0 0.0014831
13290.0 0.0014699
13310.0 0.001464
13330.0 0.0014647
13350.0 0.0014705
13370.0 0.0014807
13390.0 0.0014943
13410.0 0.0015084
13430.0 0.0015234
13450.0 0.0015386
13470.0 0.001552
13490.0 0.0015633
13510.0 0.0015734
13530.0 0.001581
13550.0 0.0015859
13570.0 0.0015891
13590.0 0.0015909
13610.0 0.0015913
13630.0 0.0015907
13650.0 0.00159
13670.0 0.001589
13690.0 0.001588
13710.0 0.0015872
13730.0 0.0015867
13750.0 0.001586
13770.0 0.0015852
13790.0 0.001584
13810.0 0.0015821
13830.0 0.0015791
13850.0 0.0015748
13870.0 0.0015688
13890.0 0.0015611
13910.0 0.0015517
13930.0 0.0015401
13950.0 0.0015268
13970.0 0.0015128
13990.0 0.0014975
14010.0 0.0014814
14030.0 0.0014656
14050.0 0.0014504
14070.0 0.0014353
14090.0 0.0014217
14110.0 0.0014098
14130.0 0.0013991
14150.0 0.0013899
14170.0 0.0013826
14190.0 0.0013768
14210.0 0.0013723
14230.0 0.0013695
14250.0 0.0013681
14270.0 0.0013683
14290.0 0.0013703
14310.0 0.0013739
14330.0 0.0013792
14350.0 0.0013865
14370.0 0.0013955
14390.0 0.0014057
14410.0 0.0014179
14430.0 0.0014315
14450.0 0.0014458
14470.0 0.0014612
14490.0 0.0014785
14510.0 0.0014961
14530.0 0.0015142
14550.0 0.0015344
14570.0 0.0015566
14590.0 0.0015798
14610.0 0.0016061
14630.0 0.0016367
14650.0 0.00167
14670.0 0.0017064
14690.0 0.0017481
14710.0 0.0017947
14730.0 0.0018423
14750.0 0.0018942
14770.0 0.0019503
14790.0 0.0020068
14810.0 0.0020629
14830.0 0.0021224
14850.0 0.0021795
14870.0 0.002232
14890.0 0.0022817
14910.0 0.0023277
14930.0 0.0023662
14950.0 0.0023978
14970.0 0.0024239
14990.0 0.0024426
15010.0 0.0024545
15030.0 0.0024611
15050.0 0.0024632
15070.0 0.0024616
15090.0 0.002458
15110.0 0.0024527
15130.0 0.0024467
15150.0 0.0024405
15170.0 0.0024339
15190.0 0.0024271
15210.0 0.0024206
15230.0 0.0024142
15250.0 0.0024075
15270.0 0.0024009
15290.0 0.0023947
15310.0 0.0023883
15330.0 0.0023819
15350.0 0.0023757
15370.0 0.0023696
15390.0 0.0023632
15410.0 0.002357
15430.0 0.002351
15450.0 0.0023448
15470.0 0.0023386
15490.0 0.0023327
15510.0 0.0023268
15530.0 0.0023207
15550.0 0.0023147
15570.0 0.002309
15590.0 0.002303
15610.0 0.0022969
15630.0 0.0022911
15650.0 0.0022854
15670.0 0.0022794
15690.0 0.0022735
15710.0 0.002268
15730.0 0.0022621
15750.0 0.0022562
15770.0 0.0022505
15790.0 0.0022448
15810.0 0.0022388
15830.0 0.002233
15850.0 0.0022274
15870.0 0.0022216
15890.0 0.0022158
15910.0 0.0022102
15930.0 0.0022045
15950.0 0.0021985
15970.0 0.0021928
15990.0 0.0021871
16010.0 0.0021812
16030.0 0.0021753
16050.0 0.0021697
16070.0 0.0021639
16090.0 0.002158
16110.0 0.0021522
16130.0 0.0021466
16150.0 0.0021405
16170.0 0.0021345
16190.0 0.0021288
16210.0 0.0021229
16230.0 0.0021168
16250.0 0.002111
16270.0 0.0021052
16290.0 0.0020991
16310.0 0.0020931
16330.0 0.0020872
16350.0 0.0020812
16370.0 0.0020748
16390.0 0.0020689
16410.0 0.0020629
16430.0 0.0020567
16450.0 0.0020505
16470.0 0.0020445
16490.0 0.0020383
16510.0 0.0020318
16530.0 0.0020257
16550.0 0.0020195
16570.0 0.002013
16590.0 0.0020065
16610.0 0.0020004
16630.0 0.001994
16650.0 0.0019874
16670.0 0.0019811
16690.0 0.0019748
16710.0 0.001968
16730.0 0.0019614
16750.0 0.001955
16770.0 0.0019483
16790.0 0.0019415
16810.0 0.001935
16830.0 0.0019284
16850.0 0.0019215
16870.0 0.0019147
16890.0 0.0019081
16910.0 0.0019011
16930.0 0.001894
16950.0 0.0018873
16970.0 0.0018804
16990.0 0.0018733
17010.0 0.0018663
17030.0 0.0018595
17050.0 0.0018523
17070.0 0.0018451
17090.0 0.0018381
17110.0 0.001831
17130.0 0.0018235
17150.0 0.0018163
17170.0 0.0018092
17190.0 0.0018018
17210.0 0.0017944
17230.0 0.0017873
17250.0 0.0017799
17270.0 0.0017722
17290.0 0.0017648
17310.0 0.0017575
17330.0 0.0017498
17350.0 0.0017421
17370.0 0.0017348
17390.0 0.0017272
17410.0 0.0017194
17430.0 0.0017119
17450.0 0.0017044
17470.0 0.0016964
17490.0 0.0016886
17510.0 0.001681
17530.0 0.0016732
17550.0 0.0016652
17570.0 0.0016574
17590.0 0.0016497
17610.0 0.0016417
17630.0 0.0016337
17650.0 0.0016259
17670.0 0.0016179
17690.0 0.0016096
17710.0 0.0016018
17730.0 0.0015938
17750.0 0.0015856
17770.0 0.0015775
17790.0 0.0015697
17810.0 0.0015615
17830.0 0.0015531
17850.0 0.0015451
17870.0 0.001537
17890.0 0.0015286
17910.0 0.0015203
17930.0 0.0015123
17950.0 0.001504
17970.0 0.0014956
17990.0 0.0014875
18010.0 0.0014793
18030.0 0.0014707
18050.0 0.0014624
18070.0 0.0014542
18090.0 0.0014458
18110.0 0.0014372
18130.0 0.001429
18150.0 0.0014207
18170.0 0.0014122
18190.0 0.0014038
18210.0 0.0013956
18230.0 0.001387
18250.0 0.0013783
18270.0 0.00137
18290.0 0.0013617
18310.0 0.001353
18330.0 0.0013446
18350.0 0.0013364
18370.0 0.0013277
18390.0 0.0013191
18410.0 0.0013108
18430.0 0.0013023
18450.0 0.0012936
18470.0 0.0012851
18490.0 0.0012768
18510.0 0.0012682
18530.0 0.0012596
18550.0 0.0012514
18570.0 0.0012428
18590.0 0.0012341
18610.0 0.0012257
18630.0 0.0012173
18650.0 0.0012086
18670.0 0.0012
18690.0 0.0011917
18710.0 0.0011833
18730.0 0.0011746
18750.0 0.0011662
18770.0 0.0011579
18790.0 0.0011492
18810.0 0.0011406
18830.0 0.0011323
18850.0 0.0011239
18870.0 0.0011152
18890.0 0.0011069
18910.0 0.0010986
18930.0 0.00109
18950.0 0.0010816
18970.0 0.0010733
18990.0 0.0010649
19010.0 0.0010561
19030.0 0.0010479
19050.0 0.0010397
19070.0 0.0010312
19090.0 0.0010228
19110.0 0.0010147
19130.0 0.0010062
19150.0 0.00099774
19170.0 0.00098953
19190.0 0.00098131
19210.0 0.00097281
19230.0 0.00096447
19250.0 0.00095644
19270.0 0.00094813
19290.0 0.00093979
19310.0 0.00093171
19330.0 0.0009236
19350.0 0.00091511
19370.0 0.00090694
19390.0 0.00089892
19410.0 0.00089068
19430.0 0.00088239
19450.0 0.00087445
19470.0 0.00086641
19490.0 0.00085816
19510.0 0.00085011
19530.0 0.00084222
19550.0 0.00083401
19570.0 0.00082579
19590.0 0.00081795
19610.0 0.00081
19630.0 0.00080187
19650.0 0.00079396
19670.0 0.00078621
19690.0 0.00077812
19710.0 0.00077012
19730.0 0.00076236
19750.0 0.0007545
19770.0 0.00074638
19790.0 0.0007386
19810.0 0.00073093
19830.0 0.00072299
19850.0 0.00071506
19870.0 0.00070733
19890.0 0.00069916
19910.0 0.00069043
19930.0 0.00068142
19950.0 0.00067161
19970.0 0.00066025
19990.0 0.00064743
20010.0 0.00063373
20030.0 0.00061817
20050.0 0.00060115
20070.0 0.00058395
20090.0 0.00056672
20110.0 0.00054879
20130.0 0.0005322
20150.0 0.00051718
20170.0 0.00050306
20190.0 0.00049017
20210.0 0.00047922
20230.0 0.00046964
20250.0 0.00046112
20270.0 0.00045417
20290.0 0.00044863
20310.0 0.00044414
20330.0 0.00044074
20350.0 0.00043859
20370.0 0.00043737
20390.0 0.0004371
20410.0 0.00043776
20430.0 0.00043923
20450.0 0.0004417
20470.0 0.00044509
20490.0 0.00044922
20510.0 0.00045422
20530.0 0.0004603
20550.0 0.00046706
20570.0 0.00047428
20590.0 0.00048247
20610.0 0.00049127
20630.0 0.00050018
20650.0 0.00050947
20670.0 0.00051943
20690.0 0.00052893
20710.0 0.00053813
20730.0 0.00054737
20750.0 0.00055631
20770.0 0.00056442
20790.0 0.00057231
20810.0 0.00058006
20830.0 0.00058725
20850.0 0.00059409
20870.0 0.00060118
20890.0 0.00060829
20910.0 0.00061513
20930.0 0.00062235
20950.0 0.00063001
20970.0 0.00063766
20990.0 0.00064537
21010.0 0.00065362
21030.0 0.00066171
21050.0 0.00066935
21070.0 0.00067677
21090.0 0.00068389
21110.0 0.00068991
21130.0 0.00069504
21150.0 0.00069939
21170.0 0.0007026
21190.0 0.00070461
21210.0 0.00070559
21230.0 0.00070539
21250.0 0.00070406
21270.0 0.00070171
21290.0 0.00069826
21310.0 0.00069387
21330.0 0.00068884
21350.0 0.00068289
21370.0 0.00067617
21390.0 0.00066907
21410.0 0.00066156
21430.0 0.00065321
21450.0 0.00064484
21470.0 0.00063655
21490.0 0.00062798
21510.0 0.00061935
21530.0 0.00061122
21550.0 0.00060332
21570.0 0.0005955
21590.0 0.00058836
21610.0 0.00058196
21630.0 0.00057605
21650.0 0.00057081
21670.0 0.00056673
21690.0 0.00056346
21710.0 0.00056109
21730.0 0.00055978
21750.0 0.00055945
21770.0 0.00056018
21790.0 0.00056199
21810.0 0.00056472
21830.0 0.00056843
21850.0 0.00057327
21870.0 0.00057887
21890.0 0.00058506
21910.0 0.00059226
21930.0 0.00060016
21950.0 0.00060834
21970.0 0.00061713
21990.0 0.00062679
22010.0 0.00063629
22030.0 0.00064585
22050.0 0.00065583
22070.0 0.00066582
22090.0 0.00067522
22110.0 0.00068465
22130.0 0.00069396
22150.0 0.00070252
22170.0 0.00071041
22190.0 0.00071795
22210.0 0.00072461
22230.0 0.00073002
22250.0 0.00073458
22270.0 0.00073809
22290.0 0.00074027
22310.0 0.00074122
22330.0 0.00074086
22350.0 0.00073905
22370.0 0.00073592
22390.0 0.00073133
22410.0 0.0007251
22430.0 0.00071778
22450.0 0.00070924
22470.0 0.00069913
22490.0 0.00068793
22510.0 0.0006761
22530.0 0.00066281
22550.0 0.00064838
22570.0 0.00063385
22590.0 0.00061875
22610.0 0.00060266
22630.0 0.00058646
22650.0 0.00057074
22670.0 0.00055437
22690.0 0.00053789
22710.0 0.00052214
22730.0 0.00050672
22750.0 0.00049084
22770.0 0.00047609
22790.0 0.00046236
22810.0 0.00044893
22830.0 0.00043621
22850.0 0.00042491
22870.0 0.00041443
22890.0 0.00040468
22910.0 0.00039636
22930.0 0.00038942
22950.0 0.00038354
22970.0 0.00037899
22990.0 0.0003761
23010.0 0.00037452
23030.0 0.00037437
23050.0 0.00037567
23070.0 0.00037824
23090.0 0.00038238
23110.0 0.00038782
23130.0 0.00039423
23150.0 0.00040176
23170.0 0.0004105
23190.0 0.00041974
23210.0 0.00042927
23230.0 0.00043959
23250.0 0.00045007
23270.0 0.00046017
23290.0 0.00047026
23310.0 0.00048037
23330.0 0.00048938
23350.0 0.00049757
23370.0 0.00050514
23390.0 0.00051164
23410.0 0.0005168
23430.0 0.00052096
23450.0 0.00052396
23470.0 0.00052561
23490.0 0.00052607
23510.0 0.00052529
23530.0 0.00052328
23550.0 0.00052029
23570.0 0.00051622
23590.0 0.00051109
23610.0 0.0005053
23630.0 0.00049886
23650.0 0.00049143
23670.0 0.00048367
23690.0 0.00047581
23710.0 0.0004676
23730.0 0.00045916
23750.0 0.00045136
23770.0 0.00044398
23790.0 0.00043697
23810.0 0.00043095
23830.0 0.00042615
