#lamb flux
1010.0 2.9483e-09
1030.0 3.2609e-09
1050.0 3.6203e-09
1070.0 4.025e-09
1090.0 4.4847e-09
1110.0 4.9561e-09
1130.0 5.4306e-09
1150.0 5.9276e-09
1170.0 6.4404e-09
1190.0 6.9265e-09
1210.0 7.4193e-09
1230.0 7.9284e-09
1250.0 8.4273e-09
1270.0 8.9117e-09
1290.0 9.4237e-09
1310.0 9.9352e-09
1330.0 1.0426e-08
1350.0 1.0922e-08
1370.0 1.1434e-08
1390.0 1.1933e-08
1410.0 1.2418e-08
1430.0 1.2925e-08
1450.0 1.3431e-08
1470.0 1.3921e-08
1490.0 1.4416e-08
1510.0 1.4938e-08
1530.0 1.5434e-08
1550.0 1.5923e-08
1570.0 1.6429e-08
1590.0 1.6935e-08
1610.0 1.7419e-08
1630.0 1.7918e-08
1650.0 1.8431e-08
1670.0 1.8927e-08
1690.0 1.9417e-08
1710.0 1.9926e-08
1730.0 2.0438e-08
1750.0 2.0921e-08
1770.0 2.1418e-08
1790.0 2.1926e-08
1810.0 2.2418e-08
1830.0 2.2902e-08
1850.0 2.3416e-08
1870.0 2.3918e-08
1890.0 2.4405e-08
1910.0 2.4901e-08
1930.0 2.5411e-08
1950.0 2.5899e-08
1970.0 2.6382e-08
1990.0 2.6884e-08
2010.0 2.7379e-08
2030.0 2.7857e-08
2050.0 2.8352e-08
2070.0 2.886e-08
2090.0 2.934e-08
2110.0 2.9819e-08
2130.0 3.0315e-08
2150.0 3.0801e-08
2170.0 3.1268e-08
2190.0 3.1753e-08
2210.0 3.2242e-08
2230.0 3.2712e-08
2250.0 3.318e-08
2270.0 3.3671e-08
2290.0 3.4146e-08
2310.0 3.4604e-08
2330.0 3.5079e-08
2350.0 3.5568e-08
2370.0 3.6054e-08
2390.0 3.6581e-08
2410.0 3.7205e-08
2430.0 3.7923e-08
2450.0 3.8782e-08
2470.0 3.9881e-08
2490.0 4.1267e-08
2510.0 4.2842e-08
2530.0 4.4739e-08
2550.0 4.7112e-08
2570.0 5.0065e-08
2590.0 5.3907e-08
2610.0 5.9657e-08
2630.0 6.7868e-08
2650.0 7.8604e-08
2670.0 9.2485e-08
2690.0 1.0954e-07
2710.0 1.2775e-07
2730.0 1.4574e-07
2750.0 1.6346e-07
2770.0 1.7888e-07
2790.0 1.9112e-07
2810.0 2.0083e-07
2830.0 2.0842e-07
2850.0 2.136e-07
2870.0 2.174e-07
2890.0 2.2041e-07
2910.0 2.2282e-07
2930.0 2.2478e-07
2950.0 2.2665e-07
2970.0 2.2849e-07
2990.0 2.3021e-07
3010.0 6.5069e-06
3030.0 6.5555e-06
3050.0 6.6025e-06
3070.0 6.6428e-06
3090.0 6.6774e-06
3110.0 6.6989e-06
3130.0 6.6981e-06
3150.0 6.6683e-06
3170.0 6.5969e-06
3190.0 6.4847e-06
3210.0 6.3425e-06
3230.0 6.1797e-06
3250.0 6.019e-06
3270.0 5.9015e-06
3290.0 5.8363e-06
3310.0 5.8469e-06
3330.0 5.9315e-06
3350.0 6.0789e-06
3370.0 6.2893e-06
3390.0 6.5545e-06
3410.0 6.843e-06
3430.0 7.167e-06
3450.0 7.5399e-06
3470.0 7.9473e-06
3490.0 8.3789e-06
3510.0 8.8668e-06
3530.0 9.3892e-06
3550.0 9.9181e-06
3570.0 1.047e-05
3590.0 1.107e-05
3610.0 1.1688e-05
3630.0 1.2305e-05
3650.0 1.2944e-05
3670.0 1.3528e-05
3690.0 1.3965e-05
3710.0 1.4215e-05
3730.0 1.4223e-05
3750.0 1.4025e-05
3770.0 1.3947e-05
3790.0 1.3864e-05
3810.0 1.3524e-05
3830.0 1.3942e-05
3850.0 1.5589e-05
3870.0 1.6493e-05
3890.0 1.6418e-05
3910.0 1.6488e-05
3930.0 1.6922e-05
3950.0 1.7189e-05
3970.0 1.5661e-05
3990.0 1.3475e-05
4010.0 4.0388e-05
4030.0 4.8936e-05
4050.0 5.6101e-05
4070.0 4.8677e-05
4090.0 4.4087e-05
4110.0 3.8903e-05
4130.0 3.5806e-05
4150.0 3.8087e-05
4170.0 3.7517e-05
4190.0 3.999e-05
4210.0 3.9625e-05
4230.0 4.1912e-05
4250.0 4.9583e-05
4270.0 5.0166e-05
4290.0 4.6227e-05
4310.0 4.8033e-05
4330.0 5.1093e-05
4350.0 5.7288e-05
4370.0 6.5195e-05
4390.0 6.1178e-05
4410.0 4.52e-05
4430.0 3.8265e-05
4450.0 3.5161e-05
4470.0 2.6987e-05
4490.0 2.9123e-05
4510.0 4.399e-05
4530.0 5.0734e-05
4550.0 5.1174e-05
4570.0 5.7584e-05
4590.0 6.5594e-05
4610.0 8.847e-05
4630.0 0.0001149
4650.0 0.00012461
4670.0 0.0001154
4690.0 0.00011011
4710.0 0.0001164
4730.0 0.00010985
4750.0 8.2126e-05
4770.0 6.0242e-05
4790.0 5.6254e-05
4810.0 5.3619e-05
4830.0 4.9088e-05
4850.0 5.3866e-05
4870.0 7.1162e-05
4890.0 8.392e-05
4910.0 7.3629e-05
4930.0 6.5151e-05
4950.0 7.1578e-05
4970.0 9.1795e-05
4990.0 0.0001244
5010.0 0.00014311
5030.0 0.00012619
5050.0 8.5376e-05
5070.0 5.6266e-05
5090.0 4.537e-05
5110.0 4.6659e-05
5130.0 5.3852e-05
5150.0 5.8344e-05
5170.0 5.7469e-05
5190.0 5.3701e-05
5210.0 5.613e-05
5230.0 5.9005e-05
5250.0 6.3591e-05
5270.0 6.861e-05
5290.0 7.6035e-05
5310.0 8.8503e-05
5330.0 9.794e-05
5350.0 9.7315e-05
5370.0 0.00010222
5390.0 0.0001173
5410.0 0.0001172
5430.0 0.00010364
5450.0 9.5224e-05
5470.0 0.00010111
5490.0 0.00012353
5510.0 0.00015446
5530.0 0.00017715
5550.0 0.00017122
5570.0 0.00015565
5590.0 0.00013534
5610.0 0.00012482
5630.0 0.00012103
5650.0 0.00011527
5670.0 0.00010923
5690.0 9.7653e-05
5710.0 9.5214e-05
5730.0 8.7707e-05
5750.0 6.1838e-05
5770.0 4.8244e-05
5790.0 5.4671e-05
5810.0 6.1734e-05
5830.0 7.5756e-05
5850.0 9.0179e-05
5870.0 0.00010006
5890.0 0.00010175
5910.0 9.9825e-05
5930.0 9.5022e-05
5950.0 9.6826e-05
5970.0 0.00011037
5990.0 0.00010378
6010.0 8.6998e-05
6030.0 7.35e-05
6050.0 6.4009e-05
6070.0 6.3659e-05
6090.0 6.9028e-05
6110.0 7.7185e-05
6130.0 7.8367e-05
6150.0 6.7428e-05
6170.0 5.9316e-05
6190.0 6.6751e-05
6210.0 8.8244e-05
6230.0 0.0001158
6250.0 0.00012543
6270.0 0.00010961
6290.0 9.2219e-05
6310.0 7.1993e-05
6330.0 5.516e-05
6350.0 4.9201e-05
6370.0 5.1741e-05
6390.0 5.9815e-05
6410.0 7.3755e-05
6430.0 8.6125e-05
6450.0 9.855e-05
6470.0 0.00011284
6490.0 0.00013631
6510.0 0.00015241
6530.0 0.00014952
6550.0 0.00013521
6570.0 0.00011478
6590.0 0.0001035
6610.0 8.9242e-05
6630.0 8.085e-05
6650.0 7.6427e-05
6670.0 7.4247e-05
6690.0 6.7086e-05
6710.0 6.0983e-05
6730.0 4.3925e-05
6750.0 4.3547e-05
6770.0 4.7332e-05
6790.0 5.4405e-05
6810.0 4.9781e-05
6830.0 5.1261e-05
6850.0 4.7946e-05
6870.0 4.3798e-05
6890.0 4.2053e-05
6910.0 4.4813e-05
6930.0 4.1974e-05
6950.0 4.3184e-05
6970.0 4.5421e-05
6990.0 5.1557e-05
7010.0 5.1996e-05
7030.0 5.2822e-05
7050.0 5.0374e-05
7070.0 4.7998e-05
7090.0 4.8138e-05
7110.0 4.9531e-05
7130.0 5.3303e-05
7150.0 5.6612e-05
7170.0 6.2467e-05
7190.0 6.8669e-05
7210.0 6.7476e-05
7230.0 6.9367e-05
7250.0 7.4546e-05
7270.0 8.1237e-05
7290.0 9.642e-05
7310.0 0.00010462
7330.0 0.00010113
7350.0 9.1464e-05
7370.0 7.9582e-05
7390.0 7.7205e-05
7410.0 8.2045e-05
7430.0 9.1183e-05
7450.0 9.9315e-05
7470.0 9.8402e-05
7490.0 8.9724e-05
7510.0 0.00010164
7530.0 0.00010052
7550.0 9.0351e-05
7570.0 7.0581e-05
7590.0 4.8522e-05
7610.0 4.1646e-05
7630.0 4.7318e-05
7650.0 5.5947e-05
7670.0 6.963e-05
7690.0 7.6623e-05
7710.0 7.985e-05
7730.0 8.3913e-05
7750.0 9.4201e-05
7770.0 9.5682e-05
7790.0 8.7889e-05
7810.0 8.0193e-05
7830.0 8.2697e-05
7850.0 8.0389e-05
7870.0 7.3703e-05
7890.0 6.1925e-05
7910.0 5.0336e-05
7930.0 4.8064e-05
7950.0 4.3788e-05
7970.0 4.0533e-05
7990.0 4.0302e-05
8010.0 2.9849e-06
8030.0 2.9461e-06
8050.0 2.9063e-06
8070.0 2.9444e-06
8090.0 3.1637e-06
8110.0 3.1098e-06
8130.0 2.5652e-06
8150.0 2.4982e-06
8170.0 2.1518e-06
8190.0 2.0393e-06
8210.0 2.6482e-06
8230.0 2.9485e-06
8250.0 2.6574e-06
8270.0 2.3129e-06
8290.0 2.2547e-06
8310.0 1.7353e-06
8330.0 1.1696e-06
8350.0 8.3003e-07
8370.0 5.2296e-07
8390.0 9.5595e-07
8410.0 1.1139e-06
8430.0 1.3731e-06
8450.0 1.6124e-06
8470.0 2.0041e-06
8490.0 1.99e-06
8510.0 1.9574e-06
8530.0 2.0429e-06
8550.0 2.7562e-06
8570.0 3.263e-06
8590.0 3.5207e-06
8610.0 4.4474e-06
8630.0 5.3576e-06
8650.0 5.6046e-06
8670.0 5.956e-06
8690.0 5.9893e-06
8710.0 5.4242e-06
8730.0 5.0453e-06
8750.0 4.4534e-06
8770.0 4.2257e-06
8790.0 4.1515e-06
8810.0 3.978e-06
8830.0 3.181e-06
8850.0 2.3287e-06
8870.0 1.7831e-06
8890.0 1.7433e-06
8910.0 1.9978e-06
8930.0 2.2724e-06
8950.0 2.3159e-06
8970.0 2.3268e-06
8990.0 2.0752e-06
9010.0 2.1747e-05
9030.0 1.9706e-05
9050.0 1.9801e-05
9070.0 1.9957e-05
9090.0 2.0094e-05
9110.0 2.0264e-05
9130.0 2.0394e-05
9150.0 2.0496e-05
9170.0 2.0604e-05
9190.0 2.072e-05
9210.0 2.0841e-05
9230.0 2.097e-05
9250.0 2.11e-05
9270.0 2.1236e-05
9290.0 2.1375e-05
9310.0 2.1515e-05
9330.0 2.1659e-05
9350.0 2.1807e-05
9370.0 2.1957e-05
9390.0 2.2109e-05
9410.0 2.2265e-05
9430.0 2.2426e-05
9450.0 2.2586e-05
9470.0 2.2749e-05
9490.0 2.2918e-05
9510.0 2.3088e-05
9530.0 2.3259e-05
9550.0 2.3436e-05
9570.0 2.3616e-05
9590.0 2.3796e-05
9610.0 2.398e-05
9630.0 2.4169e-05
9650.0 2.4359e-05
9670.0 2.4549e-05
9690.0 2.4745e-05
9710.0 2.4944e-05
9730.0 2.5143e-05
9750.0 2.5345e-05
9770.0 2.5553e-05
9790.0 2.5761e-05
9810.0 2.597e-05
9830.0 2.6183e-05
9850.0 2.6399e-05
9870.0 2.6614e-05
9890.0 2.6832e-05
9910.0 2.7055e-05
9930.0 2.7278e-05
9950.0 2.7502e-05
9970.0 2.773e-05
9990.0 2.796e-05
10010.0 2.4262e-05
10030.0 2.4461e-05
10050.0 2.4665e-05
10070.0 2.4875e-05
10090.0 2.5073e-05
10110.0 2.5276e-05
10130.0 2.548e-05
10150.0 2.5683e-05
10170.0 2.5889e-05
10190.0 2.6098e-05
10210.0 2.6304e-05
10230.0 2.6511e-05
10250.0 2.672e-05
10270.0 2.6929e-05
10290.0 2.7136e-05
10310.0 2.7345e-05
10330.0 2.7557e-05
10350.0 2.7765e-05
10370.0 2.7972e-05
10390.0 2.8181e-05
10410.0 2.839e-05
10430.0 2.8594e-05
10450.0 2.8801e-05
10470.0 2.9008e-05
10490.0 2.9211e-05
10510.0 2.9413e-05
10530.0 2.9619e-05
10550.0 2.9821e-05
10570.0 3.0019e-05
10590.0 3.0217e-05
10610.0 3.0416e-05
10630.0 3.061e-05
10650.0 3.0802e-05
10670.0 3.0996e-05
10690.0 3.1187e-05
10710.0 3.1373e-05
10730.0 3.156e-05
10750.0 3.1747e-05
10770.0 3.1926e-05
10790.0 3.2104e-05
10810.0 3.2282e-05
10830.0 3.2454e-05
10850.0 3.2618e-05
10870.0 3.2776e-05
10890.0 3.2915e-05
10910.0 3.3023e-05
10930.0 3.3083e-05
10950.0 3.3069e-05
10970.0 3.2957e-05
10990.0 3.2737e-05
11010.0 3.237e-05
11030.0 3.1855e-05
11050.0 3.1227e-05
11070.0 3.0477e-05
11090.0 2.9575e-05
11110.0 2.8642e-05
11130.0 2.7669e-05
11150.0 2.6622e-05
11170.0 2.5542e-05
11190.0 2.4495e-05
11210.0 2.3413e-05
11230.0 2.2304e-05
11250.0 2.1244e-05
11270.0 2.0226e-05
11290.0 1.9207e-05
11310.0 1.8241e-05
11330.0 1.739e-05
11350.0 1.6586e-05
11370.0 1.5844e-05
11390.0 1.5201e-05
11410.0 1.4639e-05
11430.0 1.4117e-05
11450.0 1.3667e-05
11470.0 1.3278e-05
11490.0 1.2916e-05
11510.0 1.2567e-05
11530.0 1.2243e-05
11550.0 1.1922e-05
11570.0 1.1579e-05
11590.0 1.1223e-05
11610.0 1.0862e-05
11630.0 1.0468e-05
11650.0 1.0047e-05
11670.0 9.6314e-06
11690.0 9.2103e-06
11710.0 8.7758e-06
11730.0 8.3548e-06
11750.0 7.9652e-06
11770.0 7.5831e-06
11790.0 7.225e-06
11810.0 6.9097e-06
11830.0 6.6278e-06
11850.0 6.3681e-06
11870.0 6.1509e-06
11890.0 5.9703e-06
11910.0 5.8116e-06
11930.0 5.6752e-06
11950.0 5.5617e-06
11970.0 5.4602e-06
11990.0 5.3643e-06
12010.0 5.2756e-06
12030.0 5.1901e-06
12050.0 5.1017e-06
12070.0 5.0097e-06
12090.0 4.9211e-06
12110.0 4.8311e-06
12130.0 4.7409e-06
12150.0 4.6578e-06
12170.0 4.5852e-06
12190.0 4.5225e-06
12210.0 4.4787e-06
12230.0 4.4575e-06
12250.0 4.4609e-06
12270.0 4.4946e-06
12290.0 4.5582e-06
12310.0 4.6494e-06
12330.0 4.777e-06
12350.0 4.9362e-06
12370.0 5.1176e-06
12390.0 5.3267e-06
12410.0 5.5716e-06
12430.0 5.8206e-06
12450.0 6.0785e-06
12470.0 6.3526e-06
12490.0 6.628e-06
12510.0 6.8863e-06
12530.0 7.1433e-06
12550.0 7.3912e-06
12570.0 7.6101e-06
12590.0 7.8022e-06
12610.0 7.9734e-06
12630.0 8.1099e-06
12650.0 8.2041e-06
12670.0 8.266e-06
12690.0 8.2908e-06
12710.0 8.2772e-06
12730.0 8.2292e-06
12750.0 8.1436e-06
12770.0 8.0261e-06
12790.0 7.8837e-06
12810.0 7.7135e-06
12830.0 7.5167e-06
12850.0 7.3109e-06
12870.0 7.0933e-06
12890.0 6.8578e-06
12910.0 6.6184e-06
12930.0 6.3825e-06
12950.0 6.1363e-06
12970.0 5.8857e-06
12990.0 5.6486e-06
13010.0 5.4145e-06
13030.0 5.1778e-06
13050.0 4.9504e-06
13070.0 4.7374e-06
13090.0 4.5236e-06
13110.0 4.3168e-06
13130.0 4.1261e-06
13150.0 3.9455e-06
13170.0 3.7688e-06
13190.0 3.6114e-06
13210.0 3.473e-06
13230.0 3.3464e-06
13250.0 3.2374e-06
13270.0 3.1514e-06
13290.0 3.0846e-06
13310.0 3.0385e-06
13330.0 3.0175e-06
13350.0 3.02e-06
13370.0 3.047e-06
13390.0 3.1003e-06
13410.0 3.1722e-06
13430.0 3.2656e-06
13450.0 3.3811e-06
13470.0 3.5093e-06
13490.0 3.6451e-06
13510.0 3.7982e-06
13530.0 3.9534e-06
13550.0 4.102e-06
13570.0 4.2485e-06
13590.0 4.3912e-06
13610.0 4.5182e-06
13630.0 4.6291e-06
13650.0 4.7304e-06
13670.0 4.8144e-06
13690.0 4.8794e-06
13710.0 4.9296e-06
13730.0 4.9655e-06
13750.0 4.9835e-06
13770.0 4.9876e-06
13790.0 4.9785e-06
13810.0 4.9565e-06
13830.0 4.9241e-06
13850.0 4.88e-06
13870.0 4.8246e-06
13890.0 4.7611e-06
13910.0 4.6896e-06
13930.0 4.6068e-06
13950.0 4.5164e-06
13970.0 4.424e-06
13990.0 4.3234e-06
14010.0 4.2164e-06
14030.0 4.1096e-06
14050.0 4.0021e-06
14070.0 3.8885e-06
14090.0 3.7797e-06
14110.0 3.6774e-06
14130.0 3.5783e-06
14150.0 3.485e-06
14170.0 3.4053e-06
14190.0 3.3365e-06
14210.0 3.278e-06
14230.0 3.2348e-06
14250.0 3.2068e-06
14270.0 3.1933e-06
14290.0 3.1962e-06
14310.0 3.214e-06
14330.0 3.246e-06
14350.0 3.293e-06
14370.0 3.3517e-06
14390.0 3.4183e-06
14410.0 3.4968e-06
14430.0 3.5829e-06
14450.0 3.6709e-06
14470.0 3.7622e-06
14490.0 3.8592e-06
14510.0 3.9521e-06
14530.0 4.0402e-06
14550.0 4.1284e-06
14570.0 4.213e-06
14590.0 4.29e-06
14610.0 4.3645e-06
14630.0 4.4382e-06
14650.0 4.5069e-06
14670.0 4.5732e-06
14690.0 4.6423e-06
14710.0 4.715e-06
14730.0 4.7876e-06
14750.0 4.8682e-06
14770.0 4.9595e-06
14790.0 5.0585e-06
14810.0 5.1658e-06
14830.0 5.2929e-06
14850.0 5.4311e-06
14870.0 5.5752e-06
14890.0 5.7308e-06
14910.0 5.8959e-06
14930.0 6.0547e-06
14950.0 6.2031e-06
14970.0 6.3436e-06
14990.0 6.4615e-06
15010.0 6.5515e-06
15030.0 6.6183e-06
15050.0 6.6624e-06
15070.0 6.684e-06
15090.0 6.6915e-06
15110.0 6.6893e-06
15130.0 6.6809e-06
15150.0 6.6696e-06
15170.0 6.6563e-06
15190.0 6.6419e-06
15210.0 6.6278e-06
15230.0 6.6137e-06
15250.0 6.5991e-06
15270.0 6.5847e-06
15290.0 6.571e-06
15310.0 6.557e-06
15330.0 6.5428e-06
15350.0 6.5291e-06
15370.0 6.5156e-06
15390.0 6.5014e-06
15410.0 6.4876e-06
15430.0 6.4743e-06
15450.0 6.4607e-06
15470.0 6.4469e-06
15490.0 6.4337e-06
15510.0 6.4206e-06
15530.0 6.407e-06
15550.0 6.3938e-06
15570.0 6.381e-06
15590.0 6.3676e-06
15610.0 6.3541e-06
15630.0 6.3413e-06
15650.0 6.3285e-06
15670.0 6.3152e-06
15690.0 6.3023e-06
15710.0 6.2899e-06
15730.0 6.2768e-06
15750.0 6.2638e-06
15770.0 6.2513e-06
15790.0 6.2387e-06
15810.0 6.2254e-06
15830.0 6.2128e-06
15850.0 6.2005e-06
15870.0 6.1877e-06
15890.0 6.1749e-06
15910.0 6.1627e-06
15930.0 6.1502e-06
15950.0 6.1373e-06
15970.0 6.1248e-06
15990.0 6.1126e-06
16010.0 6.0999e-06
16030.0 6.087e-06
16050.0 6.075e-06
16070.0 6.0626e-06
16090.0 6.0499e-06
16110.0 6.0376e-06
16130.0 6.0256e-06
16150.0 6.0126e-06
16170.0 6e-06
16190.0 5.9879e-06
16210.0 5.9755e-06
16230.0 5.9627e-06
16250.0 5.9504e-06
16270.0 5.9384e-06
16290.0 5.9256e-06
16310.0 5.9131e-06
16330.0 5.901e-06
16350.0 5.8885e-06
16370.0 5.8754e-06
16390.0 5.8632e-06
16410.0 5.851e-06
16430.0 5.8382e-06
16450.0 5.8256e-06
16470.0 5.8136e-06
16490.0 5.8009e-06
16510.0 5.788e-06
16530.0 5.7756e-06
16550.0 5.7632e-06
16570.0 5.7502e-06
16590.0 5.7373e-06
16610.0 5.7251e-06
16630.0 5.7124e-06
16650.0 5.6995e-06
16670.0 5.687e-06
16690.0 5.6745e-06
16710.0 5.6612e-06
16730.0 5.6484e-06
16750.0 5.6359e-06
16770.0 5.6229e-06
16790.0 5.6096e-06
16810.0 5.5971e-06
16830.0 5.5844e-06
16850.0 5.5711e-06
16870.0 5.5581e-06
16890.0 5.5455e-06
16910.0 5.5321e-06
16930.0 5.5186e-06
16950.0 5.5058e-06
16970.0 5.4928e-06
16990.0 5.4793e-06
17010.0 5.4662e-06
17030.0 5.4534e-06
17050.0 5.4398e-06
17070.0 5.4263e-06
17090.0 5.4132e-06
17110.0 5.4e-06
17130.0 5.386e-06
17150.0 5.3726e-06
17170.0 5.3595e-06
17190.0 5.3458e-06
17210.0 5.3321e-06
17230.0 5.3189e-06
17250.0 5.3053e-06
17270.0 5.2912e-06
17290.0 5.2776e-06
17310.0 5.2642e-06
17330.0 5.2501e-06
17350.0 5.236e-06
17370.0 5.2227e-06
17390.0 5.2089e-06
17410.0 5.1947e-06
17430.0 5.1809e-06
17450.0 5.1673e-06
17470.0 5.1528e-06
17490.0 5.1386e-06
17510.0 5.1248e-06
17530.0 5.1107e-06
17550.0 5.0962e-06
17570.0 5.0823e-06
17590.0 5.0684e-06
17610.0 5.0538e-06
17630.0 5.0395e-06
17650.0 5.0255e-06
17670.0 5.0111e-06
17690.0 4.9961e-06
17710.0 4.982e-06
17730.0 4.9678e-06
17750.0 4.9531e-06
17770.0 4.9386e-06
17790.0 4.9245e-06
17810.0 4.9098e-06
17830.0 4.8949e-06
17850.0 4.8804e-06
17870.0 4.866e-06
17890.0 4.8509e-06
17910.0 4.836e-06
17930.0 4.8218e-06
17950.0 4.8069e-06
17970.0 4.7919e-06
17990.0 4.7774e-06
18010.0 4.7628e-06
18030.0 4.7474e-06
18050.0 4.7325e-06
18070.0 4.7179e-06
18090.0 4.7028e-06
18110.0 4.6875e-06
18130.0 4.6728e-06
18150.0 4.658e-06
18170.0 4.6427e-06
18190.0 4.6276e-06
18210.0 4.6129e-06
18230.0 4.5975e-06
18250.0 4.582e-06
18270.0 4.5672e-06
18290.0 4.5522e-06
18310.0 4.5367e-06
18330.0 4.5215e-06
18350.0 4.5068e-06
18370.0 4.4912e-06
18390.0 4.4758e-06
18410.0 4.4608e-06
18430.0 4.4456e-06
18450.0 4.4297e-06
18470.0 4.4145e-06
18490.0 4.3995e-06
18510.0 4.384e-06
18530.0 4.3685e-06
18550.0 4.3535e-06
18570.0 4.3381e-06
18590.0 4.3222e-06
18610.0 4.3069e-06
18630.0 4.2918e-06
18650.0 4.2761e-06
18670.0 4.2603e-06
18690.0 4.2453e-06
18710.0 4.2299e-06
18730.0 4.2141e-06
18750.0 4.1988e-06
18770.0 4.1837e-06
18790.0 4.1676e-06
18810.0 4.1519e-06
18830.0 4.1368e-06
18850.0 4.1212e-06
18870.0 4.1053e-06
18890.0 4.0901e-06
18910.0 4.0748e-06
18930.0 4.0589e-06
18950.0 4.0433e-06
18970.0 4.0281e-06
18990.0 4.0125e-06
19010.0 3.9963e-06
19030.0 3.981e-06
19050.0 3.9657e-06
19070.0 3.9499e-06
19090.0 3.9343e-06
19110.0 3.9192e-06
19130.0 3.9033e-06
19150.0 3.8875e-06
19170.0 3.8721e-06
19190.0 3.8567e-06
19210.0 3.8407e-06
19230.0 3.825e-06
19250.0 3.8099e-06
19270.0 3.7942e-06
19290.0 3.7784e-06
19310.0 3.7632e-06
19330.0 3.7478e-06
19350.0 3.7316e-06
19370.0 3.7161e-06
19390.0 3.7008e-06
19410.0 3.6851e-06
19430.0 3.6693e-06
19450.0 3.6541e-06
19470.0 3.6387e-06
19490.0 3.6228e-06
19510.0 3.6074e-06
19530.0 3.5922e-06
19550.0 3.5763e-06
19570.0 3.5604e-06
19590.0 3.5453e-06
19610.0 3.5299e-06
19630.0 3.5141e-06
19650.0 3.4987e-06
19670.0 3.4836e-06
19690.0 3.4678e-06
19710.0 3.4522e-06
19730.0 3.437e-06
19750.0 3.4216e-06
19770.0 3.4056e-06
19790.0 3.3903e-06
19810.0 3.3752e-06
19830.0 3.3595e-06
19850.0 3.3437e-06
19870.0 3.3282e-06
19890.0 3.3116e-06
19910.0 3.2933e-06
19930.0 3.2738e-06
19950.0 3.2514e-06
19970.0 3.2239e-06
19990.0 3.1908e-06
20010.0 2.8388e-06
20030.0 2.7977e-06
20050.0 2.7497e-06
20070.0 2.6976e-06
20090.0 2.6415e-06
20110.0 2.5781e-06
20130.0 2.5139e-06
20150.0 2.4503e-06
20170.0 2.3844e-06
20190.0 2.3175e-06
20210.0 2.2543e-06
20230.0 2.1927e-06
20250.0 2.1309e-06
20270.0 2.0736e-06
20290.0 2.0213e-06
20310.0 1.9716e-06
20330.0 1.9251e-06
20350.0 1.8865e-06
20370.0 1.8523e-06
20390.0 1.8223e-06
20410.0 1.798e-06
20430.0 1.7793e-06
20450.0 1.7645e-06
20470.0 1.7546e-06
20490.0 1.7493e-06
20510.0 1.7477e-06
20530.0 1.7499e-06
20550.0 1.7553e-06
20570.0 1.7632e-06
20590.0 1.7738e-06
20610.0 1.7867e-06
20630.0 1.8009e-06
20650.0 1.8168e-06
20670.0 1.8349e-06
20690.0 1.8534e-06
20710.0 1.8725e-06
20730.0 1.8932e-06
20750.0 1.9147e-06
20770.0 1.9359e-06
20790.0 1.9582e-06
20810.0 1.9817e-06
20830.0 2.0051e-06
20850.0 2.0286e-06
20870.0 2.0538e-06
20890.0 2.0795e-06
20910.0 2.1043e-06
20930.0 2.13e-06
20950.0 2.1566e-06
20970.0 2.1826e-06
20990.0 2.2082e-06
21010.0 2.2352e-06
21030.0 2.2615e-06
21050.0 2.2866e-06
21070.0 2.3117e-06
21090.0 2.3369e-06
21110.0 2.3599e-06
21130.0 2.3814e-06
21150.0 2.4023e-06
21170.0 2.4212e-06
21190.0 2.4375e-06
21210.0 2.4522e-06
21230.0 2.4643e-06
21250.0 2.473e-06
21270.0 2.4785e-06
21290.0 2.4806e-06
21310.0 2.4786e-06
21330.0 2.4728e-06
21350.0 2.4625e-06
21370.0 2.4474e-06
21390.0 2.4282e-06
21410.0 2.4048e-06
21430.0 2.3751e-06
21450.0 2.3417e-06
21470.0 2.3054e-06
21490.0 2.2643e-06
21510.0 2.2192e-06
21530.0 2.1734e-06
21550.0 2.1254e-06
21570.0 2.0743e-06
21590.0 2.0239e-06
21610.0 1.9753e-06
21630.0 1.9266e-06
21650.0 1.8791e-06
21670.0 1.8378e-06
21690.0 1.7998e-06
21710.0 1.7656e-06
21730.0 1.7375e-06
21750.0 1.7159e-06
21770.0 1.6994e-06
21790.0 1.6899e-06
21810.0 1.6873e-06
21830.0 1.6911e-06
21850.0 1.7016e-06
21870.0 1.7181e-06
21890.0 1.7394e-06
21910.0 1.7667e-06
21930.0 1.7988e-06
21950.0 1.8335e-06
21970.0 1.8719e-06
21990.0 1.9151e-06
22010.0 1.9582e-06
22030.0 2.002e-06
22050.0 2.048e-06
22070.0 2.0942e-06
22090.0 2.138e-06
22110.0 2.1822e-06
22130.0 2.2263e-06
22150.0 2.2674e-06
22170.0 2.3062e-06
22190.0 2.3447e-06
22210.0 2.3805e-06
22230.0 2.412e-06
22250.0 2.4417e-06
22270.0 2.469e-06
22290.0 2.4923e-06
22310.0 2.5123e-06
22330.0 2.53e-06
22350.0 2.5436e-06
22370.0 2.5532e-06
22390.0 2.5593e-06
22410.0 2.5612e-06
22430.0 2.5587e-06
22450.0 2.5521e-06
22470.0 2.5407e-06
22490.0 2.5247e-06
22510.0 2.5048e-06
22530.0 2.4793e-06
22550.0 2.4482e-06
22570.0 2.4138e-06
22590.0 2.375e-06
22610.0 2.3303e-06
22630.0 2.282e-06
