#lamb flux
1010.0 9.7063e-05
1030.0 0.00013002
1050.0 0.00017383
1070.0 0.00023081
1090.0 0.00030474
1110.0 0.00039408
1130.0 0.00049908
1150.0 0.00062349
1170.0 0.00076705
1190.0 0.00092223
1210.0 0.0010916
1230.0 0.0012748
1250.0 0.0014629
1270.0 0.0016492
1290.0 0.0018376
1310.0 0.002016
1330.0 0.002173
1350.0 0.0023092
1370.0 0.002422
1390.0 0.0025006
1410.0 0.0025424
1430.0 0.0025549
1450.0 0.0025334
1470.0 0.0024767
1490.0 0.0023928
1510.0 0.002289
1530.0 0.0021603
1550.0 0.0020165
1570.0 0.0018671
1590.0 0.001712
1610.0 0.0015534
1630.0 0.0013988
1650.0 0.0012499
1670.0 0.0011068
1690.0 0.00097214
1710.0 0.00084823
1730.0 0.00073451
1750.0 0.00063029
1770.0 0.00053726
1790.0 0.0004548
1810.0 0.00038197
1830.0 0.0003187
1850.0 0.00026138
1870.0 0.00020958
1890.0 0.00016689
1910.0 0.00013304
1930.0 0.00010753
1950.0 9.9702e-05
1970.0 9.9569e-05
1990.0 0.00010064
2010.0 0.00010278
2030.0 0.00010591
2050.0 0.00011009
2070.0 0.00013065
2090.0 0.0001592
2110.0 0.0001932
2130.0 0.00023248
2150.0 0.00027659
2170.0 0.00032501
2190.0 0.00037777
2210.0 0.00043179
2230.0 0.00048563
2250.0 0.00054208
2270.0 0.0006012
2290.0 0.00066199
2310.0 0.00072386
2330.0 0.00078711
2350.0 0.00085113
2370.0 0.00091485
2390.0 0.00097836
2410.0 0.0010417
2430.0 0.0011033
2450.0 0.0011628
2470.0 0.0012203
2490.0 0.0012758
2510.0 0.0013284
2530.0 0.0013807
2550.0 0.0014366
2570.0 0.0015004
2590.0 0.0015782
2610.0 0.0016862
2630.0 0.0018346
2650.0 0.0020267
2670.0 0.0022783
2690.0 0.0026035
2710.0 0.0029804
2730.0 0.0033927
2750.0 0.0038531
2770.0 0.0043128
2790.0 0.0047258
2810.0 0.0050917
2830.0 0.0054072
2850.0 0.0056204
2870.0 0.0057615
2890.0 0.0058544
2910.0 0.0058993
2930.0 0.0058985
2950.0 0.0058808
2970.0 0.0058482
2990.0 0.0057925
3010.0 0.0057235
3030.0 0.005654
3050.0 0.0055789
3070.0 0.0054888
3090.0 0.0054032
3110.0 0.0053232
3130.0 0.0052469
3150.0 0.0049623
3170.0 0.0047544
3190.0 0.0045545
3210.0 0.0044066
3230.0 0.0044201
3250.0 0.0049858
3270.0 0.0062558
3290.0 0.0070651
3310.0 0.0063011
3330.0 0.0062905
3350.0 0.006442
3370.0 0.006629
3390.0 0.0068019
3410.0 0.0068747
3430.0 0.0068683
3450.0 0.0068399
3470.0 0.0068519
3490.0 0.0067178
3510.0 0.005962
3530.0 0.0043705
3550.0 0.0037522
3570.0 0.0060938
3590.0 0.0090897
3610.0 0.010856
3630.0 0.014705
3650.0 0.015195
3670.0 0.01261
3690.0 0.0096311
3710.0 0.00804
3730.0 0.0083123
3750.0 0.0086709
3770.0 0.0089941
3790.0 0.0093173
3810.0 0.010529
3830.0 0.0096753
3850.0 0.0080139
3870.0 0.0071209
3890.0 0.0082696
3910.0 0.0090924
3930.0 0.0091686
3950.0 0.0099235
3970.0 0.01078
3990.0 0.010613
4010.0 0.011138
4030.0 0.010682
4050.0 0.010191
4070.0 0.0098071
4090.0 0.0099152
4110.0 0.010228
4130.0 0.0099992
4150.0 0.0094611
4170.0 0.0091792
4190.0 0.0092057
4210.0 0.0083278
4230.0 0.0075319
4250.0 0.0065278
4270.0 0.0055096
4290.0 0.0053835
4310.0 0.0052245
4330.0 0.0052631
4350.0 0.0062893
4370.0 0.0064198
4390.0 0.0073052
4410.0 0.0078996
4430.0 0.0083018
4450.0 0.0073662
4470.0 0.0062607
4490.0 0.005946
4510.0 0.005576
4530.0 0.0053444
4550.0 0.0050824
4570.0 0.0050202
4590.0 0.0051144
4610.0 0.0047482
4630.0 0.0045183
4650.0 0.0041811
4670.0 0.0040804
4690.0 0.0035603
4710.0 0.0031809
4730.0 0.0027103
4750.0 0.0024505
4770.0 0.0016673
4790.0 0.0017004
4810.0 0.0015997
4830.0 0.00058429
4850.0 0.0010776
4870.0 0.00050465
4890.0 0.00061716
4910.0 0.0013917
4930.0 0.0014907
4950.0 0.00049435
4970.0 0.00058599
4990.0 0.00065309
5010.0 0.00036115
5030.0 0.00032913
5050.0 0.00063139
5070.0 0.00058107
5090.0 0.00062509
5110.0 0.00072889
5130.0 0.00065287
5150.0 0.00084783
5170.0 0.00041719
5190.0 0.00038528
5210.0 0.00056732
5230.0 0.00040073
5250.0 0.00073123
5270.0 0.0014748
5290.0 0.0014246
5310.0 0.00096596
5330.0 0.0010339
5350.0 0.00059452
5370.0 0.0006819
5390.0 0.00090932
5410.0 0.00080215
5430.0 0.0011978
5450.0 0.00074793
5470.0 0.00074592
5490.0 0.0017505
5510.0 0.0017684
5530.0 0.0018188
5550.0 0.0017264
5570.0 0.0019901
5590.0 0.0023098
5610.0 0.0023395
5630.0 0.0022351
5650.0 0.0022796
5670.0 0.002263
5690.0 0.0023645
5710.0 0.0021433
5730.0 0.0023179
5750.0 0.0023016
5770.0 0.0021681
5790.0 0.0024148
5810.0 0.0025035
5830.0 0.0024617
5850.0 0.0021994
5870.0 0.0020427
5890.0 0.0020691
5910.0 0.0023934
5930.0 0.002334
5950.0 0.0024698
5970.0 0.0025153
5990.0 0.0026807
6010.0 0.0025975
6030.0 0.0026508
6050.0 0.002634
6070.0 0.0024399
6090.0 0.0026073
6110.0 0.0026769
6130.0 0.0025404
6150.0 0.002541
6170.0 0.0025755
6190.0 0.0021497
6210.0 0.0021811
6230.0 0.0023146
6250.0 0.0023005
6270.0 0.0022915
6290.0 0.0024647
6310.0 0.0026826
6330.0 0.0027089
6350.0 0.0026341
6370.0 0.0026978
6390.0 0.0024699
6410.0 0.0025269
6430.0 0.0023965
6450.0 0.0024387
6470.0 0.002485
6490.0 0.0025169
6510.0 0.0023046
6530.0 0.0023229
6550.0 0.0022879
6570.0 0.0021571
6590.0 0.002282
6610.0 0.0022909
6630.0 0.0022632
6650.0 0.002115
6670.0 0.0020345
6690.0 0.0019707
6710.0 0.00188
6730.0 0.0018196
6750.0 0.0018269
6770.0 0.0017609
6790.0 0.0013033
6810.0 0.0014624
6830.0 0.0016472
6850.0 0.0014681
6870.0 0.0014383
6890.0 0.0014071
6910.0 0.0013856
6930.0 0.0013256
6950.0 0.0013903
6970.0 0.0013321
6990.0 0.001304
7010.0 0.0012883
7030.0 0.0013518
7050.0 0.0013212
7070.0 0.0010818
7090.0 0.0008791
7110.0 0.00080617
7130.0 0.00087991
7150.0 0.00090539
7170.0 0.00088518
7190.0 0.00074145
7210.0 0.0009334
7230.0 0.0010901
7250.0 0.0010624
7270.0 0.0010744
7290.0 0.0011447
7310.0 0.00099792
7330.0 0.00093759
7350.0 0.0008705
7370.0 0.00097393
7390.0 0.001118
7410.0 0.00085849
7430.0 0.00088781
7450.0 0.00086106
7470.0 0.0010038
7490.0 0.0010224
7510.0 0.00087901
7530.0 0.00096151
7550.0 0.00053179
7570.0 0.00042305
7590.0 0.00065685
7610.0 0.00085211
7630.0 0.00073282
7650.0 0.00085289
7670.0 0.00055515
7690.0 0.00028859
7710.0 0.00042192
7730.0 0.00066458
7750.0 0.00042775
7770.0 0.00072723
7790.0 0.00082738
7810.0 0.00066421
7830.0 0.000824
7850.0 0.00058086
7870.0 0.00078061
7890.0 0.00064321
7910.0 0.00063918
7930.0 0.00045709
7950.0 0.0002604
7970.0 0.00041153
7990.0 0.00056879
8010.0 0.0018022
8030.0 0.0017469
8050.0 0.0017183
8070.0 0.0016702
8090.0 0.0015403
8110.0 0.0015001
8130.0 0.0016594
8150.0 0.0017694
8170.0 0.001832
8190.0 0.0019252
8210.0 0.0018373
8230.0 0.0018401
8250.0 0.0018241
8270.0 0.0018414
8290.0 0.0018257
8310.0 0.0017302
8330.0 0.0016638
8350.0 0.0017222
8370.0 0.0017546
8390.0 0.0017054
8410.0 0.0016864
8430.0 0.0016239
8450.0 0.0015723
8470.0 0.0017003
8490.0 0.0017081
8510.0 0.0015925
8530.0 0.0015993
8550.0 0.0015802
8570.0 0.0014554
8590.0 0.0014798
8610.0 0.0014811
8630.0 0.001551
8650.0 0.0015593
8670.0 0.0015747
8690.0 0.0015393
8710.0 0.0015095
8730.0 0.0014444
8750.0 0.0014096
8770.0 0.0013985
8790.0 0.0014779
8810.0 0.0013774
8830.0 0.0013514
8850.0 0.001435
8870.0 0.0013579
8890.0 0.0012456
8910.0 0.0012308
8930.0 0.0012617
8950.0 0.0011539
8970.0 0.0011041
8990.0 0.0010778
9010.0 0.00101
9030.0 0.0009942
9050.0 0.00098966
9070.0 0.0009857
9090.0 0.00098169
9110.0 0.00097765
9130.0 0.00097355
9150.0 0.00096943
9170.0 0.00096527
9190.0 0.00096107
9210.0 0.00095683
9230.0 0.00095257
9250.0 0.00094827
9270.0 0.00094395
9290.0 0.00093959
9310.0 0.00093589
9330.0 0.00093316
9350.0 0.00093043
9370.0 0.00092764
9390.0 0.0009248
9410.0 0.00092194
9430.0 0.00091906
9450.0 0.0009161
9470.0 0.00091359
9490.0 0.00091082
9510.0 0.00090752
9530.0 0.00090423
9550.0 0.00090106
9570.0 0.0008979
9590.0 0.0008947
9610.0 0.00089255
9630.0 0.00089053
9650.0 0.00088843
9670.0 0.00088621
9690.0 0.00088404
9710.0 0.00088185
9730.0 0.00087954
9750.0 0.00087722
9770.0 0.00087498
9790.0 0.0008726
9810.0 0.00087017
9830.0 0.00086777
9850.0 0.00086484
9870.0 0.0008614
9890.0 0.0008595
9910.0 0.00085734
9930.0 0.00085462
9950.0 0.0008521
9970.0 0.00084974
9990.0 0.00084726
10010.0 0.00084471
10030.0 0.0008421
10050.0 0.00083945
10070.0 0.00083677
10090.0 0.00083408
10110.0 0.00083137
10130.0 0.00082865
10150.0 0.00082591
10170.0 0.00082317
10190.0 0.00082043
10210.0 0.00081767
10230.0 0.00081491
10250.0 0.00081214
10270.0 0.00080937
10290.0 0.0008066
10310.0 0.00080382
10330.0 0.00080105
10350.0 0.00079827
10370.0 0.00079549
10390.0 0.00079267
10410.0 0.0007893
10430.0 0.00078573
10450.0 0.00078363
10470.0 0.00078117
10490.0 0.00077864
10510.0 0.00077605
10530.0 0.00077332
10550.0 0.00077061
10570.0 0.00076794
10590.0 0.00076522
10610.0 0.00076249
10630.0 0.00075982
10650.0 0.00075716
10670.0 0.00075445
10690.0 0.00075178
10710.0 0.00074916
10730.0 0.00074651
10750.0 0.00074383
10770.0 0.00074126
10790.0 0.00073868
10810.0 0.00073607
10830.0 0.0007335
10850.0 0.00073099
10870.0 0.00072838
10890.0 0.00072577
10910.0 0.00072318
10930.0 0.0007205
10950.0 0.00071762
10970.0 0.00071461
10990.0 0.00071146
11010.0 0.00067721
11030.0 0.0006734
11050.0 0.00066883
11070.0 0.00066357
11090.0 0.00065759
11110.0 0.00065134
11130.0 0.00064487
11150.0 0.00063808
11170.0 0.00063113
11190.0 0.00062426
11210.0 0.00061723
11230.0 0.00061005
11250.0 0.00060299
11270.0 0.00059603
11290.0 0.00058898
11310.0 0.00058203
11330.0 0.00057544
11350.0 0.00056892
11370.0 0.00056252
11390.0 0.00055643
11410.0 0.00055058
11430.0 0.00054476
11450.0 0.00053918
11470.0 0.00053383
11490.0 0.00052856
11510.0 0.00052331
11530.0 0.00051824
11550.0 0.00051323
11570.0 0.00050815
11590.0 0.0005031
11610.0 0.0004981
11630.0 0.00049299
11650.0 0.00048778
11670.0 0.00048262
11690.0 0.00047742
11710.0 0.00047208
11730.0 0.0004667
11750.0 0.0004614
11770.0 0.00045595
11790.0 0.00045043
11810.0 0.00044499
11830.0 0.00043957
11850.0 0.00043403
11870.0 0.00042862
11890.0 0.0004234
11910.0 0.00041819
11930.0 0.00041308
11950.0 0.00040823
11970.0 0.00040354
11990.0 0.00039895
12010.0 0.00039465
12030.0 0.00039061
12050.0 0.00038676
12070.0 0.00038313
12090.0 0.00037983
12110.0 0.00037675
12130.0 0.00037388
12150.0 0.00037126
12170.0 0.00036883
12190.0 0.00036658
12210.0 0.00036448
12230.0 0.00036251
12250.0 0.00036061
12270.0 0.00035878
12290.0 0.00035696
12310.0 0.00035511
12330.0 0.00035323
12350.0 0.00035126
12370.0 0.0003492
12390.0 0.00034702
12410.0 0.00034467
12430.0 0.00034219
12450.0 0.00033957
12470.0 0.00033676
12490.0 0.00033378
12510.0 0.0003307
12530.0 0.00032744
12550.0 0.00032397
12570.0 0.00032042
12590.0 0.00031678
12610.0 0.00031292
12630.0 0.00030895
12650.0 0.00030505
12670.0 0.00030101
12690.0 0.00029687
12710.0 0.0002928
12730.0 0.00028876
12750.0 0.00028457
12770.0 0.00028047
12790.0 0.00027652
12810.0 0.00027257
12830.0 0.00026863
12850.0 0.00026493
12870.0 0.00026135
12890.0 0.00025781
12910.0 0.00025446
12930.0 0.00025136
12950.0 0.00024835
12970.0 0.00024551
12990.0 0.00024299
13010.0 0.0002407
13030.0 0.0002386
13050.0 0.00023678
13070.0 0.00023524
13090.0 0.0002339
13110.0 0.00023279
13130.0 0.0002319
13150.0 0.0002312
13170.0 0.00023066
13190.0 0.00023025
13210.0 0.00022995
13230.0 0.00022974
13250.0 0.00022958
13270.0 0.00022944
13290.0 0.00022932
13310.0 0.0002292
13330.0 0.00022905
13350.0 0.00022885
13370.0 0.00022859
13390.0 0.00022825
13410.0 0.00022784
13430.0 0.00022731
13450.0 0.00022667
13470.0 0.00022591
13490.0 0.00022507
13510.0 0.00022406
13530.0 0.00022294
13550.0 0.00022178
13570.0 0.00022052
13590.0 0.00021914
13610.0 0.00021775
13630.0 0.00021635
13650.0 0.00021484
13670.0 0.00021329
13690.0 0.00021177
13710.0 0.00021019
13730.0 0.00020847
13750.0 0.00020681
13770.0 0.00020514
13790.0 0.00020335
13810.0 0.00020154
13830.0 0.00019978
13850.0 0.00019793
13870.0 0.00019601
13890.0 0.00019416
13910.0 0.00019233
13930.0 0.00019043
13950.0 0.00018857
13970.0 0.00018687
13990.0 0.00018515
14010.0 0.00018347
14030.0 0.00018193
14050.0 0.00018049
14070.0 0.00017904
14090.0 0.00017773
14110.0 0.00017656
14130.0 0.00017544
14150.0 0.00017437
14170.0 0.00017346
14190.0 0.00017262
14210.0 0.00017179
14230.0 0.00017105
14250.0 0.0001704
14270.0 0.00016974
14290.0 0.00016911
14310.0 0.00016858
14330.0 0.00016807
14350.0 0.00016757
14370.0 0.00016713
14390.0 0.00016677
14410.0 0.0001664
14430.0 0.00016607
14450.0 0.00016581
14470.0 0.00016558
14490.0 0.00016535
14510.0 0.00016518
14530.0 0.00016505
14550.0 0.00016492
14570.0 0.00016479
14590.0 0.00016471
14610.0 0.00016461
14630.0 0.00016448
14650.0 0.00016437
14670.0 0.00016426
14690.0 0.00016412
14710.0 0.00016395
14730.0 0.00016381
14750.0 0.00016364
14770.0 0.00016343
14790.0 0.00016321
14810.0 0.00016299
14830.0 0.00016269
14850.0 0.00016237
14870.0 0.00016205
14890.0 0.0001617
14910.0 0.00016131
14930.0 0.00016096
14950.0 0.00016065
14970.0 0.00016034
14990.0 0.00016011
15010.0 0.00015998
15030.0 0.00015991
15050.0 0.00015988
15070.0 0.00015996
15090.0 0.00016007
15110.0 0.0001602
15130.0 0.00016034
15150.0 0.0001605
15170.0 0.00016065
15190.0 0.00016078
15210.0 0.00016092
15230.0 0.00016106
15250.0 0.00016118
15270.0 0.00016128
15290.0 0.0001614
15310.0 0.0001615
15330.0 0.00016159
15350.0 0.00016167
15370.0 0.00016176
15390.0 0.0001618
15410.0 0.00016186
15430.0 0.00016191
15450.0 0.00016194
15470.0 0.00016195
15490.0 0.00016198
15510.0 0.00016199
15530.0 0.00016198
15550.0 0.00016196
15570.0 0.00016195
15590.0 0.0001619
15610.0 0.00016184
15630.0 0.00016179
15650.0 0.00016173
15670.0 0.00016164
15690.0 0.00016155
15710.0 0.00016146
15730.0 0.00016134
15750.0 0.00016121
15770.0 0.00016109
15790.0 0.00016094
15810.0 0.00016077
15830.0 0.00016061
15850.0 0.00016044
15870.0 0.00016024
15890.0 0.00016004
15910.0 0.00015984
15930.0 0.00015962
15950.0 0.00015937
15970.0 0.00015913
15990.0 0.00015889
16010.0 0.00015861
16030.0 0.00015833
16050.0 0.00015805
16070.0 0.00015776
16090.0 0.00015745
16110.0 0.00015713
16130.0 0.00015682
16150.0 0.00015646
16170.0 0.00015611
16190.0 0.00015576
16210.0 0.0001554
16230.0 0.00015501
16250.0 0.00015463
16270.0 0.00015424
16290.0 0.00015383
16310.0 0.00015341
16330.0 0.000153
16350.0 0.00015257
16370.0 0.0001521
16390.0 0.00015166
16410.0 0.00015121
16430.0 0.00015074
16450.0 0.00015026
16470.0 0.0001498
16490.0 0.0001493
16510.0 0.00014879
16530.0 0.00014829
16550.0 0.00014779
16570.0 0.00014725
16590.0 0.00014672
16610.0 0.0001462
16630.0 0.00014566
16650.0 0.00014511
16670.0 0.00014456
16690.0 0.00014401
16710.0 0.00014343
16730.0 0.00014285
16750.0 0.00014229
16770.0 0.0001417
16790.0 0.0001411
16810.0 0.00014052
16830.0 0.00013992
16850.0 0.00013931
16870.0 0.0001387
16890.0 0.0001381
16910.0 0.00013748
16930.0 0.00013684
16950.0 0.00013623
16970.0 0.0001356
16990.0 0.00013496
17010.0 0.00013432
17030.0 0.00013369
17050.0 0.00013304
17070.0 0.00013239
17090.0 0.00013175
17110.0 0.0001311
17130.0 0.00013043
17150.0 0.00012977
17170.0 0.00012912
17190.0 0.00012845
17210.0 0.00012778
17230.0 0.00012713
17250.0 0.00012646
17270.0 0.00012578
17290.0 0.00012511
17310.0 0.00012444
17330.0 0.00012376
17350.0 0.00012307
17370.0 0.00012241
17390.0 0.00012173
17410.0 0.00012104
17430.0 0.00012037
17450.0 0.0001197
17470.0 0.000119
17490.0 0.00011832
17510.0 0.00011765
17530.0 0.00011696
17550.0 0.00011627
17570.0 0.0001156
17590.0 0.00011493
17610.0 0.00011424
17630.0 0.00011355
17650.0 0.00011288
17670.0 0.0001122
17690.0 0.00011151
17710.0 0.00011084
17730.0 0.00011017
17750.0 0.00010949
17770.0 0.00010881
17790.0 0.00010815
17810.0 0.00010747
17830.0 0.00010679
17850.0 0.00010613
17870.0 0.00010546
17890.0 0.00010479
17910.0 0.00010412
17930.0 0.00010347
17950.0 0.0001028
17970.0 0.00010214
17990.0 0.00010149
18010.0 0.00010084
18030.0 0.00010017
18050.0 9.9515e-05
18070.0 9.8873e-05
18090.0 9.8222e-05
18110.0 9.7568e-05
18130.0 9.6935e-05
18150.0 9.6299e-05
18170.0 9.5653e-05
18190.0 9.5018e-05
18210.0 9.4394e-05
18230.0 9.3756e-05
18250.0 9.3118e-05
18270.0 9.2501e-05
18290.0 9.1881e-05
18310.0 9.1253e-05
18330.0 9.0638e-05
18350.0 9.0035e-05
18370.0 8.9416e-05
18390.0 8.8802e-05
18410.0 8.8204e-05
18430.0 8.7602e-05
18450.0 8.6989e-05
18470.0 8.6395e-05
18490.0 8.5809e-05
18510.0 8.5214e-05
18530.0 8.4623e-05
18550.0 8.4048e-05
18570.0 8.3466e-05
18590.0 8.2876e-05
18610.0 8.2304e-05
18630.0 8.1738e-05
18650.0 8.1162e-05
18670.0 8.0589e-05
18690.0 8.0038e-05
18710.0 7.9479e-05
18730.0 7.8916e-05
18750.0 7.8367e-05
18770.0 7.7825e-05
18790.0 7.7265e-05
18810.0 7.6718e-05
18830.0 7.6186e-05
18850.0 7.5648e-05
18870.0 7.5107e-05
18890.0 7.4582e-05
18910.0 7.4062e-05
18930.0 7.353e-05
18950.0 7.3008e-05
18970.0 7.2498e-05
18990.0 7.1982e-05
19010.0 7.1456e-05
19030.0 7.0956e-05
19050.0 7.0456e-05
19070.0 6.9949e-05
19090.0 6.9449e-05
19110.0 6.8966e-05
19130.0 6.8468e-05
19150.0 6.7971e-05
19170.0 6.749e-05
19190.0 6.7011e-05
19210.0 6.6522e-05
19230.0 6.6043e-05
19250.0 6.558e-05
19270.0 6.5107e-05
19290.0 6.4634e-05
19310.0 6.4177e-05
19330.0 6.3719e-05
19350.0 6.3247e-05
19370.0 6.2792e-05
19390.0 6.2346e-05
19410.0 6.1892e-05
19430.0 6.1438e-05
19450.0 6.1002e-05
19470.0 6.0563e-05
19490.0 6.0117e-05
19510.0 5.9682e-05
19530.0 5.9256e-05
19550.0 5.8818e-05
19570.0 5.8381e-05
19590.0 5.7963e-05
19610.0 5.7542e-05
19630.0 5.7114e-05
19650.0 5.6699e-05
19670.0 5.6291e-05
19690.0 5.5871e-05
19710.0 5.5455e-05
19730.0 5.5053e-05
19750.0 5.4647e-05
19770.0 5.4231e-05
19790.0 5.3832e-05
19810.0 5.3439e-05
19830.0 5.3037e-05
19850.0 5.2639e-05
19870.0 5.2256e-05
19890.0 5.1867e-05
19910.0 5.1477e-05
19930.0 5.111e-05
19950.0 5.0757e-05
19970.0 5.0415e-05
19990.0 5.0099e-05
20010.0 4.9822e-05
20030.0 4.9567e-05
20050.0 4.9341e-05
20070.0 4.9149e-05
20090.0 4.8984e-05
20110.0 4.8835e-05
20130.0 4.8709e-05
20150.0 4.8599e-05
20170.0 4.8501e-05
20190.0 4.8413e-05
20210.0 4.8334e-05
20230.0 4.8261e-05
20250.0 4.8192e-05
20270.0 4.8127e-05
20290.0 4.8063e-05
20310.0 4.8e-05
20330.0 4.7934e-05
20350.0 4.7866e-05
20370.0 4.7794e-05
20390.0 4.7717e-05
20410.0 4.7636e-05
20430.0 4.7551e-05
20450.0 4.746e-05
20470.0 4.7365e-05
20490.0 4.7267e-05
20510.0 4.7167e-05
20530.0 4.7064e-05
20550.0 4.6961e-05
20570.0 4.686e-05
20590.0 4.6758e-05
20610.0 4.6657e-05
20630.0 4.6559e-05
20650.0 4.6462e-05
20670.0 4.6365e-05
20690.0 4.6269e-05
20710.0 4.6173e-05
20730.0 4.6074e-05
20750.0 4.5971e-05
20770.0 4.5866e-05
20790.0 4.5753e-05
20810.0 4.5631e-05
20830.0 4.5501e-05
20850.0 4.5363e-05
20870.0 4.521e-05
20890.0 4.5045e-05
20910.0 4.4872e-05
20930.0 4.4685e-05
20950.0 4.4485e-05
20970.0 4.4277e-05
20990.0 4.4061e-05
21010.0 4.3829e-05
21030.0 4.3591e-05
21050.0 4.3351e-05
21070.0 4.3103e-05
21090.0 4.2844e-05
21110.0 4.2589e-05
21130.0 4.2332e-05
21150.0 4.2067e-05
21170.0 4.1799e-05
21190.0 4.1534e-05
21210.0 4.1259e-05
21230.0 4.0976e-05
21250.0 4.0695e-05
21270.0 4.0407e-05
21290.0 4.0107e-05
21310.0 3.98e-05
21330.0 3.9491e-05
21350.0 3.9167e-05
21370.0 3.883e-05
21390.0 3.8462e-05
21410.0 3.8084e-05
21430.0 3.7682e-05
21450.0 3.7274e-05
21470.0 3.6861e-05
21490.0 3.643e-05
21510.0 3.5984e-05
21530.0 3.5537e-05
21550.0 3.5079e-05
21570.0 3.4601e-05
21590.0 3.4119e-05
21610.0 3.3634e-05
21630.0 3.3132e-05
21650.0 3.2614e-05
21670.0 3.2105e-05
21690.0 3.1584e-05
21710.0 3.1047e-05
21730.0 3.0507e-05
21750.0 2.9967e-05
21770.0 2.9404e-05
21790.0 2.8834e-05
21810.0 2.8265e-05
21830.0 2.7685e-05
21850.0 2.7088e-05
21870.0 2.6491e-05
21890.0 2.5894e-05
21910.0 2.5278e-05
21930.0 2.4656e-05
21950.0 2.4036e-05
21970.0 2.3407e-05
21990.0 2.2761e-05
22010.0 2.2124e-05
22030.0 2.1486e-05
22050.0 2.0839e-05
22070.0 2.0372e-05
22090.0 2.0242e-05
22110.0 2.011e-05
22130.0 1.9979e-05
22150.0 1.9852e-05
22170.0 1.9726e-05
22190.0 1.96e-05
22210.0 1.9476e-05
22230.0 1.9356e-05
22250.0 1.9236e-05
22270.0 1.9117e-05
22290.0 1.9e-05
22310.0 1.8884e-05
22330.0 1.8768e-05
22350.0 1.8652e-05
22370.0 1.8537e-05
22390.0 1.8421e-05
22410.0 1.8304e-05
22430.0 1.8187e-05
22450.0 1.807e-05
22470.0 1.7951e-05
22490.0 1.7831e-05
22510.0 1.771e-05
22530.0 1.7587e-05
22550.0 1.7463e-05
22570.0 1.7337e-05
22590.0 1.721e-05
22610.0 1.7082e-05
22630.0 1.6952e-05
22650.0 1.6821e-05
22670.0 1.6688e-05
22690.0 1.6553e-05
22710.0 1.6418e-05
22730.0 1.6282e-05
22750.0 1.6143e-05
22770.0 1.6004e-05
22790.0 1.5864e-05
22810.0 1.5722e-05
22830.0 1.5578e-05
22850.0 1.5434e-05
22870.0 1.5288e-05
22890.0 1.5139e-05
22910.0 1.4989e-05
22930.0 1.4837e-05
22950.0 1.4682e-05
