#lamb flux
1010.0 4.2565e-08
1030.0 4.7972e-08
1050.0 5.4192e-08
1070.0 6.1194e-08
1090.0 6.9147e-08
1110.0 7.7304e-08
1130.0 8.5513e-08
1150.0 9.4113e-08
1170.0 1.0298e-07
1190.0 1.114e-07
1210.0 1.1992e-07
1230.0 1.2873e-07
1250.0 1.3736e-07
1270.0 1.4575e-07
1290.0 1.546e-07
1310.0 1.6345e-07
1330.0 1.7194e-07
1350.0 1.8052e-07
1370.0 1.8939e-07
1390.0 1.9802e-07
1410.0 2.0641e-07
1430.0 2.1517e-07
1450.0 2.2393e-07
1470.0 2.3239e-07
1490.0 2.4095e-07
1510.0 2.4998e-07
1530.0 2.5854e-07
1550.0 2.6698e-07
1570.0 2.7571e-07
1590.0 2.8445e-07
1610.0 2.9278e-07
1630.0 3.0138e-07
1650.0 3.1019e-07
1670.0 3.187e-07
1690.0 3.271e-07
1710.0 3.358e-07
1730.0 3.4455e-07
1750.0 3.5275e-07
1770.0 3.6117e-07
1790.0 3.6975e-07
1810.0 3.7802e-07
1830.0 3.8611e-07
1850.0 3.9468e-07
1870.0 4.0297e-07
1890.0 4.1093e-07
1910.0 4.19e-07
1930.0 4.2722e-07
1950.0 4.3497e-07
1970.0 4.4254e-07
1990.0 4.5034e-07
2010.0 4.579e-07
2030.0 4.6504e-07
2050.0 4.7232e-07
2070.0 4.7966e-07
2090.0 4.8638e-07
2110.0 4.9291e-07
2130.0 4.995e-07
2150.0 5.0575e-07
2170.0 5.1144e-07
2190.0 5.172e-07
2210.0 5.2278e-07
2230.0 5.2779e-07
2250.0 5.325e-07
2270.0 5.3727e-07
2290.0 5.415e-07
2310.0 5.451e-07
2330.0 5.4863e-07
2350.0 5.519e-07
2370.0 5.5456e-07
2390.0 5.5705e-07
2410.0 5.5973e-07
2430.0 5.6214e-07
2450.0 5.6453e-07
2470.0 5.6758e-07
2490.0 5.7161e-07
2510.0 5.7636e-07
2530.0 5.8379e-07
2550.0 5.9673e-07
2570.0 6.178e-07
2590.0 6.5059e-07
2610.0 7.0508e-07
2630.0 7.8358e-07
2650.0 8.8158e-07
2670.0 1.0001e-06
2690.0 1.1341e-06
2710.0 1.2629e-06
2730.0 1.3766e-06
2750.0 1.4763e-06
2770.0 1.5507e-06
2790.0 1.5989e-06
2810.0 1.6288e-06
2830.0 1.6459e-06
2850.0 1.6503e-06
2870.0 1.6485e-06
2890.0 1.6442e-06
2910.0 1.638e-06
2930.0 1.6299e-06
2950.0 1.6223e-06
2970.0 1.6152e-06
2990.0 1.6074e-06
3010.0 3.3264e-05
3030.0 3.3092e-05
3050.0 3.2921e-05
3070.0 3.2721e-05
3090.0 3.251e-05
3110.0 3.2253e-05
3130.0 3.191e-05
3150.0 3.1462e-05
3170.0 3.0874e-05
3190.0 3.0161e-05
3210.0 2.9385e-05
3230.0 2.8605e-05
3250.0 2.7957e-05
3270.0 2.7528e-05
3290.0 2.743e-05
3310.0 2.7644e-05
3330.0 2.8234e-05
3350.0 2.911e-05
3370.0 3.0292e-05
3390.0 3.1742e-05
3410.0 3.3303e-05
3430.0 3.5049e-05
3450.0 3.7045e-05
3470.0 3.9205e-05
3490.0 4.1471e-05
3510.0 4.4e-05
3530.0 4.6682e-05
3550.0 4.9365e-05
3570.0 5.2161e-05
3590.0 5.5273e-05
3610.0 5.8477e-05
3630.0 6.1848e-05
3650.0 6.5354e-05
3670.0 6.865e-05
3690.0 7.1224e-05
3710.0 7.2827e-05
3730.0 7.3139e-05
3750.0 7.2155e-05
3770.0 6.6381e-05
3790.0 5.9893e-05
3810.0 5.553e-05
3830.0 4.8498e-05
3850.0 3.6088e-05
3870.0 2.5656e-05
3890.0 4.2895e-05
3910.0 6.976e-05
3930.0 8.4368e-05
3950.0 8.2899e-05
3970.0 8.4734e-05
3990.0 9.9527e-05
4010.0 0.00012784
4030.0 0.00012939
4050.0 0.00011467
4070.0 0.00010164
4090.0 9.6089e-05
4110.0 0.00011582
4130.0 0.00012106
4150.0 0.00011814
4170.0 0.0001198
4190.0 0.00012214
4210.0 0.00012056
4230.0 0.00013317
4250.0 0.00014556
4270.0 0.00014765
4290.0 0.00014949
4310.0 0.00015333
4330.0 0.00016906
4350.0 0.00019496
4370.0 0.00022135
4390.0 0.00021013
4410.0 0.00017207
4430.0 0.00014439
4450.0 0.00012368
4470.0 0.00012006
4490.0 0.00013191
4510.0 0.00014797
4530.0 0.00016349
4550.0 0.00018937
4570.0 0.00022408
4590.0 0.00027165
4610.0 0.00034885
4630.0 0.00042382
4650.0 0.00043579
4670.0 0.00042079
4690.0 0.00044845
4710.0 0.00047356
4730.0 0.00040166
4750.0 0.00028699
4770.0 0.00023382
4790.0 0.00022596
4810.0 0.00021011
4830.0 0.00019827
4850.0 0.00022706
4870.0 0.00029307
4890.0 0.00033685
4910.0 0.0002858
4930.0 0.0002529
4950.0 0.00028314
4970.0 0.00037949
4990.0 0.00049231
5010.0 0.00052375
5030.0 0.00043325
5050.0 0.00027968
5070.0 0.00019217
5090.0 0.00017053
5110.0 0.00017822
5130.0 0.00019187
5150.0 0.00020156
5170.0 0.00020133
5190.0 0.00019706
5210.0 0.00019087
5230.0 0.00019566
5250.0 0.00020916
5270.0 0.00024075
5290.0 0.00027785
5310.0 0.00030623
5330.0 0.00031428
5350.0 0.00031678
5370.0 0.00034438
5390.0 0.00037225
5410.0 0.00036218
5430.0 0.00031313
5450.0 0.00028806
5470.0 0.0003228
5490.0 0.00041419
5510.0 0.00052933
5530.0 0.0005887
5550.0 0.00057105
5570.0 0.00051774
5590.0 0.00046191
5610.0 0.00042692
5630.0 0.00040549
5650.0 0.0004148
5670.0 0.0004051
5690.0 0.00037608
5710.0 0.00035628
5730.0 0.0003234
5750.0 0.00023232
5770.0 0.00020175
5790.0 0.00022701
5810.0 0.00027447
5830.0 0.00031259
5850.0 0.00034303
5870.0 0.00035331
5890.0 0.00034145
5910.0 0.000327
5930.0 0.000328
5950.0 0.0003437
5970.0 0.00036644
5990.0 0.00034724
6010.0 0.00029221
6030.0 0.00024271
6050.0 0.00021063
6070.0 0.00020935
6090.0 0.00023598
6110.0 0.00025922
6130.0 0.00024983
6150.0 0.00023037
6170.0 0.00025047
6190.0 0.00030193
6210.0 0.00036833
6230.0 0.00042438
6250.0 0.00042547
6270.0 0.00038094
6290.0 0.00031551
6310.0 0.00025071
6330.0 0.00019931
6350.0 0.00017944
6370.0 0.00019414
6390.0 0.00022956
6410.0 0.00026514
6430.0 0.0003074
6450.0 0.00035775
6470.0 0.00043745
6490.0 0.0005386
6510.0 0.00059577
6530.0 0.00055404
6550.0 0.00050866
6570.0 0.00049401
6590.0 0.00047484
6610.0 0.000424
6630.0 0.00038176
6650.0 0.0003513
6670.0 0.0003641
6690.0 0.00035955
6710.0 0.00031941
6730.0 0.00029025
6750.0 0.00026009
6770.0 0.0002525
6790.0 0.00027817
6810.0 0.00028627
6830.0 0.00029393
6850.0 0.00028787
6870.0 0.00027549
6890.0 0.00026891
6910.0 0.00025882
6930.0 0.00024311
6950.0 0.00024729
6970.0 0.00025095
6990.0 0.00028025
7010.0 0.00029864
7030.0 0.0002736
7050.0 0.00025657
7070.0 0.00024904
7090.0 0.00022798
7110.0 0.00021362
7130.0 0.00021826
7150.0 0.00022908
7170.0 0.00024305
7190.0 0.00024476
7210.0 0.00024283
7230.0 0.0002529
7250.0 0.00028984
7270.0 0.00033911
7290.0 0.0003677
7310.0 0.00035923
7330.0 0.00031969
7350.0 0.00028644
7370.0 0.00027623
7390.0 0.00027863
7410.0 0.00029118
7430.0 0.00031824
7450.0 0.0003446
7470.0 0.00037869
7490.0 0.00041943
7510.0 0.00040766
7530.0 0.00038588
7550.0 0.00032219
7570.0 0.00026349
7590.0 0.00020904
7610.0 0.00018965
7630.0 0.00019983
7650.0 0.00022868
7670.0 0.00025332
7690.0 0.00028672
7710.0 0.00031527
7730.0 0.00032722
7750.0 0.00033121
7770.0 0.00032941
7790.0 0.00032115
7810.0 0.00032982
7830.0 0.00031988
7850.0 0.00028562
7870.0 0.00025719
7890.0 0.00023685
7910.0 0.00021015
7930.0 0.00018025
7950.0 0.00016426
7970.0 0.00016261
7990.0 0.00016942
8010.0 0.00017963
8030.0 0.00018142
8050.0 0.00018128
8070.0 0.00017662
8090.0 0.00017757
8110.0 0.00016805
8130.0 0.00015305
8150.0 0.0001436
8170.0 0.00013721
8190.0 0.00013872
8210.0 0.00014213
8230.0 0.0001498
8250.0 0.0001457
8270.0 0.00013025
8290.0 0.00010219
8310.0 6.9486e-05
8330.0 4.548e-05
8350.0 3.2582e-05
8370.0 3.7628e-05
8390.0 4.2224e-05
8410.0 5.3978e-05
8430.0 6.5596e-05
8450.0 7.209e-05
8470.0 7.6517e-05
8490.0 7.7214e-05
8510.0 7.9548e-05
8530.0 8.693e-05
8550.0 9.8538e-05
8570.0 0.00011767
8590.0 0.00014148
8610.0 0.0001675
8630.0 0.00019533
8650.0 0.00021537
8670.0 0.00021416
8690.0 0.00020429
8710.0 0.00019236
8730.0 0.0001825
8750.0 0.00017242
8770.0 0.00016668
8790.0 0.00016294
8810.0 0.00015303
8830.0 0.00013451
8850.0 0.00011466
8870.0 9.6824e-05
8890.0 8.9569e-05
8910.0 9.244e-05
8930.0 9.4514e-05
8950.0 0.0001045
8970.0 0.00010676
8990.0 0.00010895
9010.0 0.00011016
9030.0 0.00011057
9050.0 0.00011127
9070.0 0.00011179
9090.0 0.00011217
9110.0 0.00011245
9130.0 0.00011276
9150.0 0.0001131
9170.0 0.00011345
9190.0 0.00011382
9210.0 0.00011426
9230.0 0.00011467
9250.0 0.00011512
9270.0 0.0001156
9290.0 0.00011609
9310.0 0.00011662
9330.0 0.00011718
9350.0 0.00011776
9370.0 0.00011836
9390.0 0.00011899
9410.0 0.00011965
9430.0 0.00012032
9450.0 0.00012102
9470.0 0.00012175
9490.0 0.00012249
9510.0 0.00012326
9530.0 0.00012406
9550.0 0.00012487
9570.0 0.00012569
9590.0 0.00012655
9610.0 0.00012743
9630.0 0.00012831
9650.0 0.00012922
9670.0 0.00013016
9690.0 0.0001311
9710.0 0.00013206
9730.0 0.00013304
9750.0 0.00013404
9770.0 0.00013504
9790.0 0.00013606
9810.0 0.00013711
9830.0 0.00013815
9850.0 0.00013921
9870.0 0.00014028
9890.0 0.00014137
9910.0 0.00014245
9930.0 0.00014355
9950.0 0.00014466
9970.0 0.00014577
9990.0 0.00014688
10010.0 0.00014308
10030.0 0.00014415
10050.0 0.00014521
10070.0 0.00014626
10090.0 0.00014735
10110.0 0.00014842
10130.0 0.00014949
10150.0 0.00015056
10170.0 0.00015163
10190.0 0.00015268
10210.0 0.00015373
10230.0 0.00015479
10250.0 0.00015582
10270.0 0.00015685
10290.0 0.00015788
10310.0 0.00015888
10330.0 0.00015987
10350.0 0.00016085
10370.0 0.00016183
10390.0 0.00016278
10410.0 0.00016371
10430.0 0.00016465
10450.0 0.00016555
10470.0 0.00016642
10490.0 0.00016729
10510.0 0.00016815
10530.0 0.00016895
10550.0 0.00016975
10570.0 0.00017053
10590.0 0.00017128
10610.0 0.000172
10630.0 0.00017271
10650.0 0.00017339
10670.0 0.00017402
10690.0 0.00017463
10710.0 0.00017523
10730.0 0.00017578
10750.0 0.00017629
10770.0 0.0001768
10790.0 0.00017727
10810.0 0.00017768
10830.0 0.00017808
10850.0 0.00017844
10870.0 0.0001787
10890.0 0.00017886
10910.0 0.00017889
10930.0 0.00017869
10950.0 0.0001781
10970.0 0.00017707
10990.0 0.00017555
11010.0 0.00016939
11030.0 0.00016655
11050.0 0.00016321
11070.0 0.00015929
11090.0 0.00015461
11110.0 0.0001498
11130.0 0.00014481
11150.0 0.00013946
11170.0 0.00013399
11190.0 0.00012878
11210.0 0.00012349
11230.0 0.00011819
11250.0 0.00011327
11270.0 0.00010869
11290.0 0.00010423
11310.0 0.00010015
11330.0 9.6668e-05
11350.0 9.3461e-05
11370.0 9.0558e-05
11390.0 8.8076e-05
11410.0 8.5897e-05
11430.0 8.3825e-05
11450.0 8.1956e-05
11470.0 8.0229e-05
11490.0 7.849e-05
11510.0 7.6664e-05
11530.0 7.4837e-05
11550.0 7.292e-05
11570.0 7.0803e-05
11590.0 6.8577e-05
11610.0 6.6312e-05
11630.0 6.3876e-05
11650.0 6.1319e-05
11670.0 5.8859e-05
11690.0 5.6426e-05
11710.0 5.3984e-05
11730.0 5.1681e-05
11750.0 4.9599e-05
11770.0 4.7603e-05
11790.0 4.5771e-05
11810.0 4.418e-05
11830.0 4.2768e-05
11850.0 4.1468e-05
11870.0 4.0362e-05
11890.0 3.941e-05
11910.0 3.8528e-05
11930.0 3.771e-05
11950.0 3.6959e-05
11970.0 3.6217e-05
11990.0 3.5443e-05
12010.0 3.4662e-05
12030.0 3.3866e-05
12050.0 3.3015e-05
12070.0 3.2116e-05
12090.0 3.1246e-05
12110.0 3.0365e-05
12130.0 2.9483e-05
12150.0 2.8661e-05
12170.0 2.7925e-05
12190.0 2.7247e-05
12210.0 2.6697e-05
12230.0 2.6299e-05
12250.0 2.6044e-05
12270.0 2.5956e-05
12290.0 2.6037e-05
12310.0 2.6268e-05
12330.0 2.6674e-05
12350.0 2.7231e-05
12370.0 2.7891e-05
12390.0 2.8666e-05
12410.0 2.9581e-05
12430.0 3.0498e-05
12450.0 3.1431e-05
12470.0 3.2401e-05
12490.0 3.3344e-05
12510.0 3.419e-05
12530.0 3.4994e-05
12550.0 3.5726e-05
12570.0 3.6318e-05
12590.0 3.6785e-05
12610.0 3.7145e-05
12630.0 3.7363e-05
12650.0 3.7429e-05
12670.0 3.7376e-05
12690.0 3.7197e-05
12710.0 3.6905e-05
12730.0 3.6515e-05
12750.0 3.6018e-05
12770.0 3.5445e-05
12790.0 3.4818e-05
12810.0 3.4125e-05
12830.0 3.3368e-05
12850.0 3.26e-05
12870.0 3.1805e-05
12890.0 3.096e-05
12910.0 3.01e-05
12930.0 2.9246e-05
12950.0 2.8347e-05
12970.0 2.7417e-05
12990.0 2.6514e-05
13010.0 2.5602e-05
13030.0 2.4662e-05
13050.0 2.3737e-05
13070.0 2.2852e-05
13090.0 2.1952e-05
13110.0 2.1072e-05
13130.0 2.0254e-05
13150.0 1.9478e-05
13170.0 1.8725e-05
13190.0 1.8061e-05
13210.0 1.7487e-05
13230.0 1.6977e-05
13250.0 1.6555e-05
13270.0 1.6238e-05
13290.0 1.601e-05
13310.0 1.5877e-05
13330.0 1.5845e-05
13350.0 1.5901e-05
13370.0 1.6048e-05
13390.0 1.6281e-05
13410.0 1.6563e-05
13430.0 1.6905e-05
13450.0 1.7302e-05
13470.0 1.7719e-05
13490.0 1.8137e-05
13510.0 1.859e-05
13530.0 1.9028e-05
13550.0 1.9426e-05
13570.0 1.9803e-05
13590.0 2.0155e-05
13610.0 2.045e-05
13630.0 2.0693e-05
13650.0 2.09e-05
13670.0 2.1054e-05
13690.0 2.1152e-05
13710.0 2.1207e-05
13730.0 2.1219e-05
13750.0 2.1183e-05
13770.0 2.1109e-05
13790.0 2.0999e-05
13810.0 2.0856e-05
13830.0 2.0688e-05
13850.0 2.0491e-05
13870.0 2.0265e-05
13890.0 2.0024e-05
13910.0 1.9765e-05
13930.0 1.9481e-05
13950.0 1.9183e-05
13970.0 1.8887e-05
13990.0 1.8575e-05
14010.0 1.8253e-05
14030.0 1.7941e-05
14050.0 1.7633e-05
14070.0 1.7319e-05
14090.0 1.7026e-05
14110.0 1.6757e-05
14130.0 1.6505e-05
14150.0 1.6276e-05
14170.0 1.6088e-05
14190.0 1.5933e-05
14210.0 1.5811e-05
14230.0 1.5732e-05
14250.0 1.5693e-05
14270.0 1.5694e-05
14290.0 1.5739e-05
14310.0 1.5819e-05
14330.0 1.5935e-05
14350.0 1.6088e-05
14370.0 1.6268e-05
14390.0 1.6463e-05
14410.0 1.6688e-05
14430.0 1.693e-05
14450.0 1.7176e-05
14470.0 1.7431e-05
14490.0 1.7708e-05
14510.0 1.798e-05
14530.0 1.8252e-05
14550.0 1.8543e-05
14570.0 1.8849e-05
14590.0 1.9157e-05
14610.0 1.9493e-05
14630.0 1.9869e-05
14650.0 2.0266e-05
14670.0 2.0691e-05
14690.0 2.117e-05
14710.0 2.1701e-05
14730.0 2.2241e-05
14750.0 2.2832e-05
14770.0 2.3476e-05
14790.0 2.4134e-05
14810.0 2.4797e-05
14830.0 2.5519e-05
14850.0 2.6232e-05
14870.0 2.691e-05
14890.0 2.7577e-05
14910.0 2.8222e-05
14930.0 2.8791e-05
14950.0 2.9283e-05
14970.0 2.9714e-05
14990.0 3.005e-05
15010.0 3.0287e-05
15030.0 3.0447e-05
15050.0 3.0535e-05
15070.0 3.0563e-05
15090.0 3.0552e-05
15110.0 3.0515e-05
15130.0 3.0462e-05
15150.0 3.0404e-05
15170.0 3.0339e-05
15190.0 3.0272e-05
15210.0 3.0207e-05
15230.0 3.0143e-05
15250.0 3.0075e-05
15270.0 3.0009e-05
15290.0 2.9947e-05
15310.0 2.9883e-05
15330.0 2.9818e-05
15350.0 2.9756e-05
15370.0 2.9694e-05
15390.0 2.9629e-05
15410.0 2.9566e-05
15430.0 2.9505e-05
15450.0 2.9442e-05
15470.0 2.9378e-05
15490.0 2.9318e-05
15510.0 2.9257e-05
15530.0 2.9194e-05
15550.0 2.9132e-05
15570.0 2.9073e-05
15590.0 2.901e-05
15610.0 2.8946e-05
15630.0 2.8886e-05
15650.0 2.8825e-05
15670.0 2.8762e-05
15690.0 2.87e-05
15710.0 2.8641e-05
15730.0 2.8578e-05
15750.0 2.8514e-05
15770.0 2.8453e-05
15790.0 2.8391e-05
15810.0 2.8326e-05
15830.0 2.8263e-05
15850.0 2.8202e-05
15870.0 2.8137e-05
15890.0 2.8073e-05
15910.0 2.8011e-05
15930.0 2.7947e-05
15950.0 2.788e-05
15970.0 2.7815e-05
15990.0 2.7751e-05
16010.0 2.7684e-05
16030.0 2.7616e-05
16050.0 2.7552e-05
16070.0 2.7486e-05
16090.0 2.7417e-05
16110.0 2.735e-05
16130.0 2.7285e-05
16150.0 2.7213e-05
16170.0 2.7143e-05
16190.0 2.7075e-05
16210.0 2.7005e-05
16230.0 2.6933e-05
16250.0 2.6863e-05
16270.0 2.6794e-05
16290.0 2.672e-05
16310.0 2.6647e-05
16330.0 2.6576e-05
16350.0 2.6503e-05
16370.0 2.6425e-05
16390.0 2.6352e-05
16410.0 2.6278e-05
16430.0 2.6201e-05
16450.0 2.6124e-05
16470.0 2.6051e-05
16490.0 2.5972e-05
16510.0 2.5892e-05
16530.0 2.5815e-05
16550.0 2.5737e-05
16570.0 2.5655e-05
16590.0 2.5574e-05
16610.0 2.5496e-05
16630.0 2.5414e-05
16650.0 2.5331e-05
16670.0 2.525e-05
16690.0 2.5169e-05
16710.0 2.5082e-05
16730.0 2.4997e-05
16750.0 2.4914e-05
16770.0 2.4828e-05
16790.0 2.474e-05
16810.0 2.4656e-05
16830.0 2.457e-05
16850.0 2.4481e-05
16870.0 2.4393e-05
16890.0 2.4306e-05
16910.0 2.4215e-05
16930.0 2.4123e-05
16950.0 2.4035e-05
16970.0 2.3944e-05
16990.0 2.3851e-05
17010.0 2.376e-05
17030.0 2.367e-05
17050.0 2.3575e-05
17070.0 2.3481e-05
17090.0 2.3388e-05
17110.0 2.3294e-05
17130.0 2.3196e-05
17150.0 2.3101e-05
17170.0 2.3007e-05
17190.0 2.291e-05
17210.0 2.2812e-05
17230.0 2.2717e-05
17250.0 2.2619e-05
17270.0 2.2519e-05
17290.0 2.2421e-05
17310.0 2.2323e-05
17330.0 2.2222e-05
17350.0 2.212e-05
17370.0 2.2023e-05
17390.0 2.1922e-05
17410.0 2.182e-05
17430.0 2.1719e-05
17450.0 2.162e-05
17470.0 2.1514e-05
17490.0 2.1411e-05
17510.0 2.131e-05
17530.0 2.1207e-05
17550.0 2.1102e-05
17570.0 2.0999e-05
17590.0 2.0897e-05
17610.0 2.0791e-05
17630.0 2.0686e-05
17650.0 2.0583e-05
17670.0 2.0478e-05
17690.0 2.0369e-05
17710.0 2.0265e-05
17730.0 2.016e-05
17750.0 2.0053e-05
17770.0 1.9946e-05
17790.0 1.9843e-05
17810.0 1.9735e-05
17830.0 1.9627e-05
17850.0 1.9521e-05
17870.0 1.9415e-05
17890.0 1.9305e-05
17910.0 1.9197e-05
17930.0 1.9092e-05
17950.0 1.8984e-05
17970.0 1.8875e-05
17990.0 1.8769e-05
18010.0 1.8663e-05
18030.0 1.8552e-05
18050.0 1.8444e-05
18070.0 1.8337e-05
18090.0 1.8228e-05
18110.0 1.8118e-05
18130.0 1.8012e-05
18150.0 1.7905e-05
18170.0 1.7795e-05
18190.0 1.7687e-05
18210.0 1.7581e-05
18230.0 1.7472e-05
18250.0 1.7361e-05
18270.0 1.7255e-05
18290.0 1.7148e-05
18310.0 1.7038e-05
18330.0 1.6931e-05
18350.0 1.6825e-05
18370.0 1.6716e-05
18390.0 1.6607e-05
18410.0 1.6501e-05
18430.0 1.6394e-05
18450.0 1.6284e-05
18470.0 1.6177e-05
18490.0 1.6072e-05
18510.0 1.5964e-05
18530.0 1.5857e-05
18550.0 1.5752e-05
18570.0 1.5646e-05
18590.0 1.5537e-05
18610.0 1.5432e-05
18630.0 1.5327e-05
18650.0 1.522e-05
18670.0 1.5113e-05
18690.0 1.501e-05
18710.0 1.4905e-05
18730.0 1.4798e-05
18750.0 1.4695e-05
18770.0 1.4592e-05
18790.0 1.4485e-05
18810.0 1.438e-05
18830.0 1.4278e-05
18850.0 1.4174e-05
18870.0 1.4069e-05
18890.0 1.3967e-05
18910.0 1.3866e-05
18930.0 1.3762e-05
18950.0 1.3659e-05
18970.0 1.3559e-05
18990.0 1.3457e-05
19010.0 1.3352e-05
19030.0 1.3253e-05
19050.0 1.3153e-05
19070.0 1.3051e-05
19090.0 1.2951e-05
19110.0 1.2853e-05
19130.0 1.2752e-05
19150.0 1.2652e-05
19170.0 1.2554e-05
19190.0 1.2456e-05
19210.0 1.2355e-05
19230.0 1.2257e-05
19250.0 1.2161e-05
19270.0 1.2063e-05
19290.0 1.1965e-05
19310.0 1.187e-05
19330.0 1.1774e-05
19350.0 1.1675e-05
19370.0 1.158e-05
19390.0 1.1486e-05
19410.0 1.139e-05
19430.0 1.1293e-05
19450.0 1.1201e-05
19470.0 1.1108e-05
19490.0 1.1012e-05
19510.0 1.0919e-05
19530.0 1.0828e-05
19550.0 1.0734e-05
19570.0 1.0639e-05
19590.0 1.0549e-05
19610.0 1.0458e-05
19630.0 1.0365e-05
19650.0 1.0275e-05
19670.0 1.0186e-05
19690.0 1.0094e-05
19710.0 1.0004e-05
19730.0 9.9155e-06
19750.0 9.8265e-06
19770.0 9.7351e-06
19790.0 9.6473e-06
19810.0 9.5607e-06
19830.0 9.4718e-06
19850.0 9.3832e-06
19870.0 9.2967e-06
19890.0 9.2065e-06
19910.0 9.1115e-06
19930.0 9.0147e-06
19950.0 8.911e-06
19970.0 8.7933e-06
19990.0 8.6622e-06
20010.0 8.6909e-06
20030.0 8.5287e-06
20050.0 8.3491e-06
20070.0 8.1631e-06
20090.0 7.9708e-06
20110.0 7.7625e-06
20130.0 7.559e-06
20150.0 7.3634e-06
20170.0 7.167e-06
20190.0 6.9736e-06
20210.0 6.795e-06
20230.0 6.6247e-06
20250.0 6.4579e-06
20270.0 6.3057e-06
20290.0 6.1688e-06
20310.0 6.041e-06
20330.0 5.9239e-06
20350.0 5.8279e-06
20370.0 5.7446e-06
20390.0 5.6739e-06
20410.0 5.6193e-06
20430.0 5.5798e-06
20450.0 5.5528e-06
20470.0 5.54e-06
20490.0 5.54e-06
20510.0 5.5516e-06
20530.0 5.5754e-06
20550.0 5.6084e-06
20570.0 5.6483e-06
20590.0 5.6976e-06
20610.0 5.7537e-06
20630.0 5.8128e-06
20650.0 5.8767e-06
20670.0 5.948e-06
20690.0 6.0183e-06
20710.0 6.089e-06
20730.0 6.1636e-06
20750.0 6.2393e-06
20770.0 6.3117e-06
20790.0 6.3861e-06
20810.0 6.4633e-06
20830.0 6.5385e-06
20850.0 6.6128e-06
20870.0 6.692e-06
20890.0 6.7721e-06
20910.0 6.849e-06
20930.0 6.929e-06
20950.0 7.0125e-06
20970.0 7.0942e-06
20990.0 7.1753e-06
21010.0 7.2617e-06
21030.0 7.3467e-06
21050.0 7.4281e-06
21070.0 7.5101e-06
21090.0 7.593e-06
21110.0 7.6687e-06
21130.0 7.7402e-06
21150.0 7.8103e-06
21170.0 7.8745e-06
21190.0 7.9306e-06
21210.0 7.9829e-06
21230.0 8.0292e-06
21250.0 8.0655e-06
21270.0 8.0939e-06
21290.0 8.1146e-06
21310.0 8.1253e-06
21330.0 8.1258e-06
21350.0 8.1166e-06
21370.0 8.096e-06
21390.0 8.0647e-06
21410.0 8.0224e-06
21430.0 7.9654e-06
21450.0 7.8975e-06
21470.0 7.8202e-06
21490.0 7.7296e-06
21510.0 7.6267e-06
21530.0 7.5183e-06
21550.0 7.4012e-06
21570.0 7.2723e-06
21590.0 7.141e-06
21610.0 7.0096e-06
21630.0 6.8732e-06
21650.0 6.7342e-06
21670.0 6.6076e-06
21690.0 6.4845e-06
21710.0 6.3659e-06
21730.0 6.2598e-06
21750.0 6.1678e-06
21770.0 6.0839e-06
21790.0 6.0157e-06
21810.0 5.965e-06
21830.0 5.9293e-06
21850.0 5.9095e-06
21870.0 5.9069e-06
21890.0 5.9194e-06
21910.0 5.9481e-06
21930.0 5.9922e-06
21950.0 6.0482e-06
21970.0 6.1177e-06
21990.0 6.2036e-06
22010.0 6.2964e-06
22030.0 6.3969e-06
22050.0 6.509e-06
22070.0 6.6282e-06
22090.0 6.7469e-06
22110.0 6.8723e-06
22130.0 7.0033e-06
22150.0 7.1309e-06
22170.0 7.2557e-06
22190.0 7.3838e-06
22210.0 7.5069e-06
22230.0 7.6181e-06
22250.0 7.725e-06
22270.0 7.8252e-06
22290.0 7.9117e-06
22310.0 7.9864e-06
22330.0 8.052e-06
22350.0 8.102e-06
22370.0 8.1363e-06
22390.0 8.1563e-06
22410.0 8.16e-06
22430.0 8.1472e-06
22450.0 8.1187e-06
22470.0 8.0727e-06
22490.0 8.0104e-06
22510.0 7.935e-06
22530.0 7.8409e-06
22550.0 7.7288e-06
22570.0 7.607e-06
22590.0 7.472e-06
22610.0 7.319e-06
22630.0 7.1556e-06
22650.0 6.9886e-06
