#lamb flux
1010.0 2.6892e-07
1030.0 2.8253e-07
1050.0 2.9829e-07
1070.0 3.1607e-07
1090.0 3.3629e-07
1110.0 3.5711e-07
1130.0 3.7816e-07
1150.0 4.0031e-07
1170.0 4.2326e-07
1190.0 4.452e-07
1210.0 4.6756e-07
1230.0 4.908e-07
1250.0 5.1376e-07
1270.0 5.3626e-07
1290.0 5.6017e-07
1310.0 5.8426e-07
1330.0 6.0763e-07
1350.0 6.3146e-07
1370.0 6.5625e-07
1390.0 6.8071e-07
1410.0 7.0475e-07
1430.0 7.3003e-07
1450.0 7.5557e-07
1470.0 7.8058e-07
1490.0 8.0608e-07
1510.0 8.3311e-07
1530.0 8.5909e-07
1550.0 8.8496e-07
1570.0 9.1179e-07
1590.0 9.3879e-07
1610.0 9.6484e-07
1630.0 9.9168e-07
1650.0 1.0192e-06
1670.0 1.0458e-06
1690.0 1.0721e-06
1710.0 1.0992e-06
1730.0 1.1262e-06
1750.0 1.1515e-06
1770.0 1.1771e-06
1790.0 1.2029e-06
1810.0 1.2274e-06
1830.0 1.251e-06
1850.0 1.2755e-06
1870.0 1.2987e-06
1890.0 1.3205e-06
1910.0 1.342e-06
1930.0 1.3634e-06
1950.0 1.3829e-06
1970.0 1.4013e-06
1990.0 1.4199e-06
2010.0 1.4373e-06
2030.0 1.4531e-06
2050.0 1.469e-06
2070.0 1.4848e-06
2090.0 1.4986e-06
2110.0 1.512e-06
2130.0 1.5255e-06
2150.0 1.5384e-06
2170.0 1.5501e-06
2190.0 1.5626e-06
2210.0 1.5752e-06
2230.0 1.5872e-06
2250.0 1.5994e-06
2270.0 1.613e-06
2290.0 1.6266e-06
2310.0 1.6401e-06
2330.0 1.6552e-06
2350.0 1.6715e-06
2370.0 1.6882e-06
2390.0 1.7065e-06
2410.0 1.7271e-06
2430.0 1.7488e-06
2450.0 1.7718e-06
2470.0 1.7972e-06
2490.0 1.8255e-06
2510.0 1.8565e-06
2530.0 1.8953e-06
2550.0 1.9504e-06
2570.0 2.032e-06
2590.0 2.1527e-06
2610.0 2.3437e-06
2630.0 2.618e-06
2650.0 2.968e-06
2670.0 3.4026e-06
2690.0 3.9141e-06
2710.0 4.445e-06
2730.0 4.9653e-06
2750.0 5.4839e-06
2770.0 5.9627e-06
2790.0 6.3919e-06
2810.0 6.7992e-06
2830.0 7.2072e-06
2850.0 7.5978e-06
2870.0 7.9961e-06
2890.0 8.4208e-06
2910.0 8.8652e-06
2930.0 9.3178e-06
2950.0 9.8024e-06
2970.0 1.0316e-05
2990.0 1.084e-05
3010.0 2.4867e-05
3030.0 2.6103e-05
3050.0 2.734e-05
3070.0 2.8476e-05
3090.0 2.9457e-05
3110.0 3.0036e-05
3130.0 2.9921e-05
3150.0 2.8784e-05
3170.0 2.5965e-05
3190.0 2.1388e-05
3210.0 1.5114e-05
3230.0 8.0334e-06
3250.0 1.5654e-05
3270.0 7.0799e-06
3290.0 2.4732e-05
3310.0 5.4415e-06
3330.0 5.3079e-06
3350.0 7.6889e-06
3370.0 1.0471e-05
3390.0 1.3462e-05
3410.0 1.6448e-05
3430.0 1.9583e-05
3450.0 2.2722e-05
3470.0 2.5594e-05
3490.0 2.7498e-05
3510.0 3.4437e-05
3530.0 4.7106e-05
3550.0 4.5898e-05
3570.0 3.6721e-05
3590.0 5.2992e-05
3610.0 3.1204e-05
3630.0 5.5261e-05
3650.0 6.4823e-05
3670.0 8.4856e-05
3690.0 7.8864e-05
3710.0 5.1106e-05
3730.0 6.9562e-05
3750.0 7.1905e-05
3770.0 7.5586e-05
3790.0 6.9708e-05
3810.0 6.5592e-05
3830.0 0.00010192
3850.0 0.00011899
3870.0 0.00014873
3890.0 0.00014035
3910.0 0.00012312
3930.0 0.00012779
3950.0 0.0001416
3970.0 0.00017402
3990.0 0.00012337
4010.0 6.9272e-05
4030.0 0.00011114
4050.0 0.00013567
4070.0 0.0001535
4090.0 0.0001214
4110.0 7.5877e-05
4130.0 0.00011353
4150.0 0.00010836
4170.0 0.00010958
4190.0 0.0001053
4210.0 0.00014085
4230.0 9.581e-05
4250.0 0.00011178
4270.0 0.00011137
4290.0 0.00010981
4310.0 0.00013948
4330.0 0.00014529
4350.0 0.0001109
4370.0 9.2193e-05
4390.0 0.00011779
4410.0 0.00012315
4430.0 9.2015e-05
4450.0 9.0116e-05
4470.0 0.00010908
4490.0 7.8485e-05
4510.0 0.0001027
4530.0 0.00010873
4550.0 0.00014101
4570.0 0.00020709
4590.0 0.00019574
4610.0 0.00012635
4630.0 0.00021735
4650.0 0.00031558
4670.0 0.00029209
4690.0 0.00017282
4710.0 0.00019102
4730.0 0.00024782
4750.0 0.00021668
4770.0 0.00016231
4790.0 0.00010609
4810.0 0.00015746
4830.0 0.0001844
4850.0 0.00015767
4870.0 4.3032e-05
4890.0 0.00017211
4910.0 0.00024465
4930.0 0.0002636
4950.0 0.00025806
4970.0 0.00015181
4990.0 0.00017903
5010.0 0.000219
5030.0 0.0002478
5050.0 0.0002454
5070.0 0.00017386
5090.0 0.00014016
5110.0 0.00013194
5130.0 0.00011895
5150.0 0.00013242
5170.0 0.00011448
5190.0 0.00014342
5210.0 0.00014391
5230.0 0.00015876
5250.0 0.00019829
5270.0 0.00015985
5290.0 0.00015738
5310.0 0.00024185
5330.0 0.00028222
5350.0 0.0002304
5370.0 0.00019797
5390.0 0.00023302
5410.0 0.00029698
5430.0 0.00032655
5450.0 0.00034585
5470.0 0.00034057
5490.0 0.0003313
5510.0 0.0003935
5530.0 0.00040865
5550.0 0.00044052
5570.0 0.00047151
5590.0 0.00046715
5610.0 0.00043777
5630.0 0.00042205
5650.0 0.00043349
5670.0 0.00042683
5690.0 0.00035975
5710.0 0.00035225
5730.0 0.00036165
5750.0 0.00039537
5770.0 0.00033867
5790.0 0.00031038
5810.0 0.00031379
5830.0 0.00033373
5850.0 0.00030434
5870.0 0.00030866
5890.0 0.00037409
5910.0 0.00035287
5930.0 0.00028304
5950.0 0.00024482
5970.0 0.00026865
5990.0 0.00024781
6010.0 0.0002338
6030.0 0.00023932
6050.0 0.00022159
6070.0 0.00016236
6090.0 0.00014625
6110.0 0.00019605
6130.0 0.00022804
6150.0 0.00023815
6170.0 0.00022772
6190.0 0.00020955
6210.0 0.00020763
6230.0 0.00025099
6250.0 0.00023191
6270.0 0.00021174
6290.0 0.0001959
6310.0 0.00018433
6330.0 0.00017451
6350.0 0.00015193
6370.0 0.0001508
6390.0 0.00017889
6410.0 0.00022406
6430.0 0.00025901
6450.0 0.00024325
6470.0 0.00023658
6490.0 0.00029983
6510.0 0.00034961
6530.0 0.00032949
6550.0 0.0003131
6570.0 0.00031811
6590.0 0.00030969
6610.0 0.000337
6630.0 0.00031405
6650.0 0.00027166
6670.0 0.00024508
6690.0 0.00024218
6710.0 0.00030345
6730.0 0.00027437
6750.0 0.00022653
6770.0 0.00019939
6790.0 0.00021064
6810.0 0.00024045
6830.0 0.0002364
6850.0 0.00021169
6870.0 0.00022156
6890.0 0.00021977
6910.0 0.00020675
6930.0 0.00023813
6950.0 0.00021811
6970.0 0.00020022
6990.0 0.00019813
7010.0 0.00019244
7030.0 0.00018381
7050.0 0.00017924
7070.0 0.00019949
7090.0 0.00018956
7110.0 0.00016122
7130.0 0.00013009
7150.0 0.00012078
7170.0 0.00016313
7190.0 0.00017733
7210.0 0.00016803
7230.0 0.00017387
7250.0 0.00016093
7270.0 0.00015258
7290.0 0.00017061
7310.0 0.00019374
7330.0 0.00019095
7350.0 0.00017771
7370.0 0.00016615
7390.0 0.00017072
7410.0 0.00019959
7430.0 0.00022033
7450.0 0.00023243
7470.0 0.00022756
7490.0 0.00024188
7510.0 0.00023571
7530.0 0.00022859
7550.0 0.00022592
7570.0 0.00019851
7590.0 0.00019555
7610.0 0.00018885
7630.0 0.00017159
7650.0 0.00018569
7670.0 0.00020322
7690.0 0.00022067
7710.0 0.00024982
7730.0 0.00026478
7750.0 0.00027615
7770.0 0.00028003
7790.0 0.00030777
7810.0 0.00031512
7830.0 0.00028459
7850.0 0.00028673
7870.0 0.00027395
7890.0 0.0002875
7910.0 0.00027237
7930.0 0.00027452
7950.0 0.0002357
7970.0 0.00024057
7990.0 0.00023017
8010.0 0.00023875
8030.0 0.00023755
8050.0 0.00025131
8070.0 0.00024093
8090.0 0.0002419
8110.0 0.0002374
8130.0 0.00023702
8150.0 0.00022494
8170.0 0.0002195
8190.0 0.0002176
8210.0 0.00021952
8230.0 0.00019231
8250.0 0.00017554
8270.0 0.00015486
8290.0 0.00013077
8310.0 0.0001149
8330.0 9.2095e-05
8350.0 7.6082e-05
8370.0 7.5771e-05
8390.0 7.442e-05
8410.0 7.76e-05
8430.0 9.7925e-05
8450.0 0.00010568
8470.0 0.00011277
8490.0 0.0001313
8510.0 0.00014287
8530.0 0.00016373
8550.0 0.00019365
8570.0 0.0002135
8590.0 0.00022599
8610.0 0.00024843
8630.0 0.0002784
8650.0 0.00028409
8670.0 0.0002887
8690.0 0.00030067
8710.0 0.00029577
8730.0 0.0002893
8750.0 0.00026943
8770.0 0.00026984
8790.0 0.00026648
8810.0 0.00024526
8830.0 0.00024643
8850.0 0.00022911
8870.0 0.00021967
8890.0 0.000198
8910.0 0.00021694
8930.0 0.00019662
8950.0 0.00019519
8970.0 0.00019767
8990.0 0.00019124
9010.0 0.00019615
9030.0 0.00018696
9050.0 0.00018597
9070.0 0.00018591
9090.0 0.0001858
9110.0 0.00018579
9130.0 0.00018562
9150.0 0.00018537
9170.0 0.00018462
9190.0 0.0001831
9210.0 0.00018573
9230.0 0.00018478
9250.0 0.00018416
9270.0 0.00018359
9290.0 0.00018306
9310.0 0.00018255
9330.0 0.00018205
9350.0 0.00018153
9370.0 0.00018101
9390.0 0.00018046
9410.0 0.0001799
9430.0 0.00017932
9450.0 0.00017872
9470.0 0.00017811
9490.0 0.00017748
9510.0 0.00017685
9530.0 0.0001762
9550.0 0.00017554
9570.0 0.00017487
9590.0 0.00017419
9610.0 0.0001735
9630.0 0.00017281
9650.0 0.00017212
9670.0 0.00017142
9690.0 0.00017071
9710.0 0.00017001
9730.0 0.00016931
9750.0 0.0001686
9770.0 0.0001679
9790.0 0.0001672
9810.0 0.0001665
9830.0 0.00016581
9850.0 0.00016512
9870.0 0.00016443
9890.0 0.00016375
9910.0 0.00016308
9930.0 0.00016241
9950.0 0.00016141
9970.0 0.00016086
9990.0 0.00016031
10010.0 0.00015974
10030.0 0.00015916
10050.0 0.00015853
10070.0 0.00015767
10090.0 0.00015718
10110.0 0.00015669
10130.0 0.00015618
10150.0 0.00015568
10170.0 0.00015516
10190.0 0.00015463
10210.0 0.00015412
10230.0 0.00015363
10250.0 0.00015314
10270.0 0.00015266
10290.0 0.00015221
10310.0 0.00015176
10330.0 0.00015131
10350.0 0.00015089
10370.0 0.00015049
10390.0 0.00015009
10410.0 0.00014971
10430.0 0.00014936
10450.0 0.000149
10470.0 0.00014866
10490.0 0.00014834
10510.0 0.00014804
10530.0 0.00014773
10550.0 0.00014744
10570.0 0.00014718
10590.0 0.00014692
10610.0 0.00014668
10630.0 0.00014645
10650.0 0.00014624
10670.0 0.00014603
10690.0 0.00014584
10710.0 0.00014567
10730.0 0.0001455
10750.0 0.00014534
10770.0 0.00014521
10790.0 0.00014509
10810.0 0.00014496
10830.0 0.00014485
10850.0 0.00014475
10870.0 0.00014462
10890.0 0.00014445
10910.0 0.00014421
10930.0 0.00014382
10950.0 0.00014318
10970.0 0.00014224
10990.0 0.00014097
11010.0 0.00014156
11030.0 0.00013934
11050.0 0.00013673
11070.0 0.00013371
11090.0 0.0001302
11110.0 0.00012669
11130.0 0.00012317
11150.0 0.00011954
11170.0 0.00011599
11190.0 0.00011273
11210.0 0.00010955
11230.0 0.00010647
11250.0 0.0001037
11270.0 0.00010118
11290.0 9.8765e-05
11310.0 9.6573e-05
11330.0 9.4696e-05
11350.0 9.2938e-05
11370.0 9.1293e-05
11390.0 8.9823e-05
11410.0 8.8462e-05
11430.0 8.7076e-05
11450.0 8.5747e-05
11470.0 8.4462e-05
11490.0 8.3123e-05
11510.0 8.1694e-05
11530.0 8.0276e-05
11550.0 7.8812e-05
11570.0 7.7216e-05
11590.0 7.557e-05
11610.0 7.3926e-05
11630.0 7.2162e-05
11650.0 7.0305e-05
11670.0 6.8511e-05
11690.0 6.6707e-05
11710.0 6.4837e-05
11730.0 6.3009e-05
11750.0 6.1293e-05
11770.0 5.9551e-05
11790.0 5.7844e-05
11810.0 5.6267e-05
11830.0 5.4765e-05
11850.0 5.3256e-05
11870.0 5.1877e-05
11890.0 5.0623e-05
11910.0 4.9395e-05
11930.0 4.8218e-05
11950.0 4.7152e-05
11970.0 4.6124e-05
11990.0 4.5094e-05
12010.0 4.4136e-05
12030.0 4.3238e-05
12050.0 4.2342e-05
12070.0 4.1459e-05
12090.0 4.0676e-05
12110.0 3.9919e-05
12130.0 3.9186e-05
12150.0 3.8532e-05
12170.0 3.7968e-05
12190.0 3.7445e-05
12210.0 3.7029e-05
12230.0 3.6744e-05
12250.0 3.6576e-05
12270.0 3.654e-05
12290.0 3.666e-05
12310.0 3.6927e-05
12330.0 3.7352e-05
12350.0 3.7932e-05
12370.0 3.8636e-05
12390.0 3.9469e-05
12410.0 4.0453e-05
12430.0 4.1478e-05
12450.0 4.2547e-05
12470.0 4.3676e-05
12490.0 4.4806e-05
12510.0 4.5876e-05
12530.0 4.693e-05
12550.0 4.7943e-05
12570.0 4.8856e-05
12590.0 4.9679e-05
12610.0 5.0436e-05
12630.0 5.1095e-05
12650.0 5.164e-05
12670.0 5.2108e-05
12690.0 5.2492e-05
12710.0 5.2791e-05
12730.0 5.3017e-05
12750.0 5.3171e-05
12770.0 5.3257e-05
12790.0 5.3286e-05
12810.0 5.3253e-05
12830.0 5.315e-05
12850.0 5.3006e-05
12870.0 5.2808e-05
12890.0 5.2536e-05
12910.0 5.2209e-05
12930.0 5.1842e-05
12950.0 5.139e-05
12970.0 5.0859e-05
12990.0 5.0302e-05
13010.0 4.9687e-05
13030.0 4.8988e-05
13050.0 4.8253e-05
13070.0 4.7513e-05
13090.0 4.6704e-05
13110.0 4.5866e-05
13130.0 4.5057e-05
13150.0 4.4257e-05
13170.0 4.3435e-05
13190.0 4.2691e-05
13210.0 4.2032e-05
13230.0 4.142e-05
13250.0 4.0891e-05
13270.0 4.0482e-05
13290.0 4.0161e-05
13310.0 3.9926e-05
13330.0 3.9799e-05
13350.0 3.9757e-05
13370.0 3.9781e-05
13390.0 3.9857e-05
13410.0 3.9963e-05
13430.0 4.0076e-05
13450.0 4.0173e-05
13470.0 4.0234e-05
13490.0 4.0248e-05
13510.0 4.019e-05
13530.0 4.0056e-05
13550.0 3.9858e-05
13570.0 3.9585e-05
13590.0 3.9235e-05
13610.0 3.8844e-05
13630.0 3.8427e-05
13650.0 3.7963e-05
13670.0 3.7489e-05
13690.0 3.7034e-05
13710.0 3.6582e-05
13730.0 3.6126e-05
13750.0 3.5723e-05
13770.0 3.5348e-05
13790.0 3.4985e-05
13810.0 3.4647e-05
13830.0 3.4342e-05
13850.0 3.4039e-05
13870.0 3.3737e-05
13890.0 3.3448e-05
13910.0 3.316e-05
13930.0 3.2857e-05
13950.0 3.255e-05
13970.0 3.2254e-05
13990.0 3.1948e-05
14010.0 3.1639e-05
14030.0 3.1346e-05
14050.0 3.1066e-05
14070.0 3.079e-05
14090.0 3.0542e-05
14110.0 3.0325e-05
14130.0 3.0131e-05
14150.0 2.9964e-05
14170.0 2.9835e-05
14190.0 2.9735e-05
14210.0 2.9665e-05
14230.0 2.9627e-05
14250.0 2.9618e-05
14270.0 2.9641e-05
14290.0 2.9697e-05
14310.0 2.9774e-05
14330.0 2.9878e-05
14350.0 3.0011e-05
14370.0 3.0161e-05
14390.0 3.0318e-05
14410.0 3.0496e-05
14430.0 3.0681e-05
14450.0 3.0857e-05
14470.0 3.1031e-05
14490.0 3.1209e-05
14510.0 3.1368e-05
14530.0 3.1508e-05
14550.0 3.1648e-05
14570.0 3.1783e-05
14590.0 3.1906e-05
14610.0 3.2038e-05
14630.0 3.2191e-05
14650.0 3.2356e-05
14670.0 3.2543e-05
14690.0 3.2774e-05
14710.0 3.3055e-05
14730.0 3.3357e-05
14750.0 3.3716e-05
14770.0 3.4139e-05
14790.0 3.4598e-05
14810.0 3.5086e-05
14830.0 3.5657e-05
14850.0 3.6251e-05
14870.0 3.6837e-05
14890.0 3.744e-05
14910.0 3.8049e-05
14930.0 3.8594e-05
14950.0 3.9065e-05
14970.0 3.9477e-05
14990.0 3.9778e-05
15010.0 3.9955e-05
15030.0 4.0031e-05
15050.0 4.0014e-05
15070.0 3.9909e-05
15090.0 3.9751e-05
15110.0 3.9555e-05
15130.0 3.9335e-05
15150.0 3.9106e-05
15170.0 3.8868e-05
15190.0 3.8626e-05
15210.0 3.8386e-05
15230.0 3.8145e-05
15250.0 3.7902e-05
15270.0 3.766e-05
15290.0 3.7421e-05
15310.0 3.7181e-05
15330.0 3.694e-05
15350.0 3.6702e-05
15370.0 3.6464e-05
15390.0 3.6224e-05
15410.0 3.5986e-05
15430.0 3.575e-05
15450.0 3.5514e-05
15470.0 3.5277e-05
15490.0 3.5044e-05
15510.0 3.4811e-05
15530.0 3.4577e-05
15550.0 3.4346e-05
15570.0 3.4117e-05
15590.0 3.3886e-05
15610.0 3.3655e-05
15630.0 3.3429e-05
15650.0 3.3204e-05
15670.0 3.2977e-05
15690.0 3.2753e-05
15710.0 3.2532e-05
15730.0 3.2309e-05
15750.0 3.2088e-05
15770.0 3.187e-05
15790.0 3.1653e-05
15810.0 3.1434e-05
15830.0 3.1219e-05
15850.0 3.1006e-05
15870.0 3.0793e-05
15890.0 3.0581e-05
15910.0 3.0373e-05
15930.0 3.0165e-05
15950.0 2.9957e-05
15970.0 2.9751e-05
15990.0 2.9549e-05
16010.0 2.9345e-05
16030.0 2.9143e-05
16050.0 2.8945e-05
16070.0 2.8747e-05
16090.0 2.855e-05
16110.0 2.8355e-05
16130.0 2.8164e-05
16150.0 2.7969e-05
16170.0 2.7778e-05
16190.0 2.759e-05
16210.0 2.7403e-05
16230.0 2.7216e-05
16250.0 2.7032e-05
16270.0 2.6851e-05
16290.0 2.6668e-05
16310.0 2.6488e-05
16330.0 2.6311e-05
16350.0 2.6134e-05
16370.0 2.5956e-05
16390.0 2.5784e-05
16410.0 2.5613e-05
16430.0 2.5441e-05
16450.0 2.5272e-05
16470.0 2.5106e-05
16490.0 2.4939e-05
16510.0 2.4773e-05
16530.0 2.4611e-05
16550.0 2.445e-05
16570.0 2.4288e-05
16590.0 2.4128e-05
16610.0 2.3973e-05
16630.0 2.3817e-05
16650.0 2.3662e-05
16670.0 2.351e-05
16690.0 2.3359e-05
16710.0 2.3207e-05
16730.0 2.3058e-05
16750.0 2.2912e-05
16770.0 2.2765e-05
16790.0 2.2619e-05
16810.0 2.2477e-05
16830.0 2.2336e-05
16850.0 2.2194e-05
16870.0 2.2055e-05
16890.0 2.1919e-05
16910.0 2.1781e-05
16930.0 2.1644e-05
16950.0 2.1511e-05
16970.0 2.1379e-05
16990.0 2.1247e-05
17010.0 2.1117e-05
17030.0 2.0989e-05
17050.0 2.0861e-05
17070.0 2.0733e-05
17090.0 2.0609e-05
17110.0 2.0485e-05
17130.0 2.036e-05
17150.0 2.0239e-05
17170.0 2.0119e-05
17190.0 1.9999e-05
17210.0 1.988e-05
17230.0 1.9765e-05
17250.0 1.9649e-05
17270.0 1.9532e-05
17290.0 1.9419e-05
17310.0 1.9307e-05
17330.0 1.9194e-05
17350.0 1.9082e-05
17370.0 1.8974e-05
17390.0 1.8866e-05
17410.0 1.8757e-05
17430.0 1.8651e-05
17450.0 1.8547e-05
17470.0 1.8441e-05
17490.0 1.8336e-05
17510.0 1.8235e-05
17530.0 1.8133e-05
17550.0 1.8031e-05
17570.0 1.7932e-05
17590.0 1.7834e-05
17610.0 1.7735e-05
17630.0 1.7638e-05
17650.0 1.7543e-05
17670.0 1.7448e-05
17690.0 1.7351e-05
17710.0 1.7258e-05
17730.0 1.7166e-05
17750.0 1.7074e-05
17770.0 1.6982e-05
17790.0 1.6894e-05
17810.0 1.6804e-05
17830.0 1.6714e-05
17850.0 1.6627e-05
17870.0 1.654e-05
17890.0 1.6453e-05
17910.0 1.6367e-05
17930.0 1.6284e-05
17950.0 1.6199e-05
17970.0 1.6115e-05
17990.0 1.6034e-05
18010.0 1.5953e-05
18030.0 1.587e-05
18050.0 1.5789e-05
18070.0 1.5711e-05
18090.0 1.5631e-05
18110.0 1.5551e-05
18130.0 1.5475e-05
18150.0 1.5399e-05
18170.0 1.5321e-05
18190.0 1.5246e-05
18210.0 1.5172e-05
18230.0 1.5096e-05
18250.0 1.5021e-05
18270.0 1.4949e-05
18290.0 1.4877e-05
18310.0 1.4804e-05
18330.0 1.4733e-05
18350.0 1.4663e-05
18370.0 1.4592e-05
18390.0 1.4522e-05
18410.0 1.4453e-05
18430.0 1.4385e-05
18450.0 1.4315e-05
18470.0 1.4248e-05
18490.0 1.4182e-05
18510.0 1.4115e-05
18530.0 1.4049e-05
18550.0 1.3985e-05
18570.0 1.392e-05
18590.0 1.3854e-05
18610.0 1.3791e-05
18630.0 1.3728e-05
18650.0 1.3664e-05
18670.0 1.3601e-05
18690.0 1.3541e-05
18710.0 1.3479e-05
18730.0 1.3417e-05
18750.0 1.3357e-05
18770.0 1.3299e-05
18790.0 1.3237e-05
18810.0 1.3177e-05
18830.0 1.312e-05
18850.0 1.3061e-05
18870.0 1.3002e-05
18890.0 1.2945e-05
18910.0 1.2889e-05
18930.0 1.2832e-05
18950.0 1.2775e-05
18970.0 1.272e-05
18990.0 1.2664e-05
19010.0 1.2607e-05
19030.0 1.2554e-05
19050.0 1.25e-05
19070.0 1.2445e-05
19090.0 1.2391e-05
19110.0 1.234e-05
19130.0 1.2286e-05
19150.0 1.2232e-05
19170.0 1.2181e-05
19190.0 1.2129e-05
19210.0 1.2076e-05
19230.0 1.2025e-05
19250.0 1.1976e-05
19270.0 1.1925e-05
19290.0 1.1874e-05
19310.0 1.1825e-05
19330.0 1.1776e-05
19350.0 1.1724e-05
19370.0 1.1675e-05
19390.0 1.1628e-05
19410.0 1.1579e-05
19430.0 1.1529e-05
19450.0 1.1483e-05
19470.0 1.1436e-05
19490.0 1.1387e-05
19510.0 1.1341e-05
19530.0 1.1295e-05
19550.0 1.1247e-05
19570.0 1.12e-05
19590.0 1.1155e-05
19610.0 1.1109e-05
19630.0 1.1063e-05
19650.0 1.1018e-05
19670.0 1.0974e-05
19690.0 1.0928e-05
19710.0 1.0883e-05
19730.0 1.084e-05
19750.0 1.0796e-05
19770.0 1.075e-05
19790.0 1.0707e-05
19810.0 1.0664e-05
19830.0 1.062e-05
19850.0 1.0576e-05
19870.0 1.0532e-05
19890.0 1.0485e-05
19910.0 1.0433e-05
19930.0 1.0376e-05
19950.0 1.031e-05
19970.0 1.0228e-05
19990.0 1.0127e-05
20010.0 1.0013e-05
20030.0 9.8747e-06
20050.0 9.7143e-06
20070.0 9.5437e-06
20090.0 9.3636e-06
20110.0 9.1644e-06
20130.0 8.9683e-06
20150.0 8.7796e-06
20170.0 8.5889e-06
20190.0 8.4007e-06
20210.0 8.2278e-06
20230.0 8.0633e-06
20250.0 7.9022e-06
20270.0 7.7568e-06
20290.0 7.6279e-06
20310.0 7.509e-06
20330.0 7.4024e-06
20350.0 7.3193e-06
20370.0 7.2511e-06
20390.0 7.1985e-06
20410.0 7.1652e-06
20430.0 7.1504e-06
20450.0 7.1529e-06
20470.0 7.1746e-06
20490.0 7.2131e-06
20510.0 7.2684e-06
20530.0 7.3423e-06
20550.0 7.4296e-06
20570.0 7.5264e-06
20590.0 7.6381e-06
20610.0 7.7596e-06
20630.0 7.8836e-06
20650.0 8.0132e-06
20670.0 8.1511e-06
20690.0 8.2824e-06
20710.0 8.4086e-06
20730.0 8.5332e-06
20750.0 8.6507e-06
20770.0 8.7543e-06
20790.0 8.8502e-06
20810.0 8.9373e-06
20830.0 9.0106e-06
20850.0 9.0721e-06
20870.0 9.125e-06
20890.0 9.1669e-06
20910.0 9.198e-06
20930.0 9.2214e-06
20950.0 9.2375e-06
20970.0 9.2465e-06
20990.0 9.2497e-06
21010.0 9.2469e-06
21030.0 9.2386e-06
21050.0 9.2258e-06
21070.0 9.2076e-06
21090.0 9.1834e-06
21110.0 9.1558e-06
21130.0 9.1242e-06
21150.0 9.0871e-06
21170.0 9.0468e-06
21190.0 9.0055e-06
21210.0 8.9602e-06
21230.0 8.9127e-06
21250.0 8.8672e-06
21270.0 8.8227e-06
21290.0 8.7783e-06
21310.0 8.7373e-06
21330.0 8.7019e-06
21350.0 8.6695e-06
21370.0 8.642e-06
21390.0 8.6212e-06
21410.0 8.6064e-06
21430.0 8.5973e-06
21450.0 8.5955e-06
21470.0 8.6002e-06
21490.0 8.6113e-06
21510.0 8.6291e-06
21530.0 8.652e-06
21550.0 8.6805e-06
21570.0 8.7155e-06
21590.0 8.7549e-06
21610.0 8.7978e-06
21630.0 8.8464e-06
21650.0 8.9008e-06
21670.0 8.9558e-06
21690.0 9.0154e-06
21710.0 9.0805e-06
21730.0 9.1481e-06
21750.0 9.2173e-06
21770.0 9.2942e-06
21790.0 9.3748e-06
21810.0 9.4563e-06
21830.0 9.5423e-06
21850.0 9.6351e-06
21870.0 9.729e-06
21890.0 9.8232e-06
21910.0 9.924e-06
21930.0 1.0027e-05
21950.0 1.0129e-05
21970.0 1.0233e-05
21990.0 1.0342e-05
22010.0 1.0446e-05
22030.0 1.0547e-05
22050.0 1.0648e-05
22070.0 1.0745e-05
22090.0 1.0832e-05
22110.0 1.0916e-05
22130.0 1.0993e-05
22150.0 1.1058e-05
22170.0 1.1113e-05
22190.0 1.1158e-05
22210.0 1.1189e-05
22230.0 1.1205e-05
22250.0 1.1208e-05
22270.0 1.1195e-05
22290.0 1.1167e-05
22310.0 1.1125e-05
22330.0 1.1064e-05
22350.0 1.0988e-05
22370.0 1.09e-05
22390.0 1.0796e-05
22410.0 1.0674e-05
22430.0 1.0545e-05
22450.0 1.0407e-05
22470.0 1.0254e-05
22490.0 1.0094e-05
22510.0 9.9329e-06
22530.0 9.7602e-06
22550.0 9.5805e-06
22570.0 9.4068e-06
22590.0 9.2327e-06
22610.0 9.0536e-06
