#lamb flux
1010.0 1.0799e-08
1030.0 1.1943e-08
1050.0 1.326e-08
1070.0 1.4742e-08
1090.0 1.6426e-08
1110.0 1.8152e-08
1130.0 1.989e-08
1150.0 2.1711e-08
1170.0 2.3589e-08
1190.0 2.5369e-08
1210.0 2.7174e-08
1230.0 2.9039e-08
1250.0 3.0866e-08
1270.0 3.264e-08
1290.0 3.4515e-08
1310.0 3.6389e-08
1330.0 3.8186e-08
1350.0 4.0003e-08
1370.0 4.1879e-08
1390.0 4.3708e-08
1410.0 4.5482e-08
1430.0 4.7338e-08
1450.0 4.9193e-08
1470.0 5.0986e-08
1490.0 5.2799e-08
1510.0 5.4714e-08
1530.0 5.6529e-08
1550.0 5.8319e-08
1570.0 6.0172e-08
1590.0 6.2026e-08
1610.0 6.3799e-08
1630.0 6.5628e-08
1650.0 6.7505e-08
1670.0 6.9321e-08
1690.0 7.1116e-08
1710.0 7.2981e-08
1730.0 7.4858e-08
1750.0 7.6625e-08
1770.0 7.8445e-08
1790.0 8.0305e-08
1810.0 8.2107e-08
1830.0 8.388e-08
1850.0 8.5765e-08
1870.0 8.7604e-08
1890.0 8.9385e-08
1910.0 9.1204e-08
1930.0 9.3071e-08
1950.0 9.4857e-08
1970.0 9.6626e-08
1990.0 9.8466e-08
2010.0 1.0028e-07
2030.0 1.0203e-07
2050.0 1.0384e-07
2070.0 1.057e-07
2090.0 1.0746e-07
2110.0 1.0922e-07
2130.0 1.1103e-07
2150.0 1.1281e-07
2170.0 1.1452e-07
2190.0 1.163e-07
2210.0 1.1809e-07
2230.0 1.1981e-07
2250.0 1.2153e-07
2270.0 1.2332e-07
2290.0 1.2506e-07
2310.0 1.2674e-07
2330.0 1.2848e-07
2350.0 1.3027e-07
2370.0 1.3205e-07
2390.0 1.3398e-07
2410.0 1.3627e-07
2430.0 1.389e-07
2450.0 1.4204e-07
2470.0 1.4607e-07
2490.0 1.5115e-07
2510.0 1.5692e-07
2530.0 1.6386e-07
2550.0 1.7255e-07
2570.0 1.8337e-07
2590.0 1.9744e-07
2610.0 2.185e-07
2630.0 2.4857e-07
2650.0 2.879e-07
2670.0 3.3874e-07
2690.0 4.0121e-07
2710.0 4.679e-07
2730.0 5.338e-07
2750.0 5.987e-07
2770.0 6.5516e-07
2790.0 6.9999e-07
2810.0 7.3557e-07
2830.0 7.6336e-07
2850.0 7.8234e-07
2870.0 7.9627e-07
2890.0 8.0729e-07
2910.0 8.1609e-07
2930.0 8.2328e-07
2950.0 8.3015e-07
2970.0 8.3686e-07
2990.0 8.4315e-07
3010.0 2.3832e-05
3030.0 2.401e-05
3050.0 2.4183e-05
3070.0 2.433e-05
3090.0 2.4457e-05
3110.0 2.4535e-05
3130.0 2.4532e-05
3150.0 2.4423e-05
3170.0 2.4162e-05
3190.0 2.3751e-05
3210.0 2.323e-05
3230.0 2.2634e-05
3250.0 2.2045e-05
3270.0 2.1615e-05
3290.0 2.1376e-05
3310.0 2.1415e-05
3330.0 2.1725e-05
3350.0 2.2265e-05
3370.0 2.3035e-05
3390.0 2.4006e-05
3410.0 2.5063e-05
3430.0 2.625e-05
3450.0 2.7616e-05
3470.0 2.9108e-05
3490.0 3.0689e-05
3510.0 3.2476e-05
3530.0 3.4389e-05
3550.0 3.6326e-05
3570.0 3.8347e-05
3590.0 4.0545e-05
3610.0 4.281e-05
3630.0 4.5068e-05
3650.0 4.741e-05
3670.0 4.9548e-05
3690.0 5.1147e-05
3710.0 5.2063e-05
3730.0 5.2093e-05
3750.0 5.1368e-05
3770.0 5.1084e-05
3790.0 5.078e-05
3810.0 4.9532e-05
3830.0 5.1065e-05
3850.0 5.7097e-05
3870.0 6.0408e-05
3890.0 6.0132e-05
3910.0 6.0389e-05
3930.0 6.1978e-05
3950.0 6.2957e-05
3970.0 5.7359e-05
3990.0 4.9355e-05
4010.0 0.00014792
4030.0 0.00017923
4050.0 0.00020548
4070.0 0.00017829
4090.0 0.00016147
4110.0 0.00014249
4130.0 0.00013114
4150.0 0.0001395
4170.0 0.00013741
4190.0 0.00014647
4210.0 0.00014513
4230.0 0.00015351
4250.0 0.0001816
4270.0 0.00018374
4290.0 0.00016931
4310.0 0.00017593
4330.0 0.00018713
4350.0 0.00020982
4370.0 0.00023878
4390.0 0.00022407
4410.0 0.00016555
4430.0 0.00014015
4450.0 0.00012878
4470.0 9.8844e-05
4490.0 0.00010667
4510.0 0.00016112
4530.0 0.00018582
4550.0 0.00018743
4570.0 0.00021091
4590.0 0.00024024
4610.0 0.00032403
4630.0 0.00042085
4650.0 0.00045641
4670.0 0.00042268
4690.0 0.00040331
4710.0 0.00042633
4730.0 0.00040233
4750.0 0.00030079
4770.0 0.00022064
4790.0 0.00020604
4810.0 0.00019639
4830.0 0.00017979
4850.0 0.00019729
4870.0 0.00026064
4890.0 0.00030737
4910.0 0.00026967
4930.0 0.00023862
4950.0 0.00026216
4970.0 0.00033621
4990.0 0.00045564
5010.0 0.00052416
5030.0 0.00046218
5050.0 0.0003127
5070.0 0.00020608
5090.0 0.00016617
5110.0 0.00017089
5130.0 0.00019724
5150.0 0.00021369
5170.0 0.00021049
5190.0 0.00019669
5210.0 0.00020558
5230.0 0.00021611
5250.0 0.00023291
5270.0 0.00025129
5290.0 0.00027849
5310.0 0.00032415
5330.0 0.00035871
5350.0 0.00035643
5370.0 0.00037439
5390.0 0.00042962
5410.0 0.00042924
5430.0 0.0003796
5450.0 0.00034877
5470.0 0.00037033
5490.0 0.00045244
5510.0 0.00056571
5530.0 0.00064885
5550.0 0.00062712
5570.0 0.0005701
5590.0 0.00049571
5610.0 0.00045716
5630.0 0.0004433
5650.0 0.0004222
5670.0 0.00040007
5690.0 0.00035766
5710.0 0.00034873
5730.0 0.00032123
5750.0 0.00022649
5770.0 0.0001767
5790.0 0.00020024
5810.0 0.00022611
5830.0 0.00027746
5850.0 0.00033029
5870.0 0.00036646
5890.0 0.00037267
5910.0 0.00036562
5930.0 0.00034803
5950.0 0.00035464
5970.0 0.00040425
5990.0 0.0003801
6010.0 0.00031864
6030.0 0.0002692
6050.0 0.00023444
6070.0 0.00023316
6090.0 0.00025282
6110.0 0.0002827
6130.0 0.00028703
6150.0 0.00024696
6170.0 0.00021725
6190.0 0.00024448
6210.0 0.0003232
6230.0 0.00042413
6250.0 0.0004594
6270.0 0.00040145
6290.0 0.00033776
6310.0 0.00026368
6330.0 0.00020203
6350.0 0.00018021
6370.0 0.0001895
6390.0 0.00021908
6410.0 0.00027013
6430.0 0.00031544
6450.0 0.00036095
6470.0 0.00041329
6490.0 0.00049923
6510.0 0.0005582
6530.0 0.00054763
6550.0 0.00049521
6570.0 0.00042039
6590.0 0.00037907
6610.0 0.00032686
6630.0 0.00029612
6650.0 0.00027992
6670.0 0.00027194
6690.0 0.00024571
6710.0 0.00022335
6730.0 0.00016088
6750.0 0.00015949
6770.0 0.00017336
6790.0 0.00019926
6810.0 0.00018233
6830.0 0.00018775
6850.0 0.00017561
6870.0 0.00016041
6890.0 0.00015402
6910.0 0.00016413
6930.0 0.00015373
6950.0 0.00015816
6970.0 0.00016636
6990.0 0.00018883
7010.0 0.00019044
7030.0 0.00019347
7050.0 0.0001845
7070.0 0.0001758
7090.0 0.00017631
7110.0 0.00018141
7130.0 0.00019523
7150.0 0.00020735
7170.0 0.00022879
7190.0 0.00025151
7210.0 0.00024714
7230.0 0.00025406
7250.0 0.00027303
7270.0 0.00029754
7290.0 0.00035315
7310.0 0.0003832
7330.0 0.00037039
7350.0 0.000335
7370.0 0.00029148
7390.0 0.00028277
7410.0 0.0003005
7430.0 0.00033396
7450.0 0.00036375
7470.0 0.00036041
7490.0 0.00032862
7510.0 0.00037225
7530.0 0.00036817
7550.0 0.00033092
7570.0 0.00025851
7590.0 0.00017772
7610.0 0.00015253
7630.0 0.00017331
7650.0 0.00020491
7670.0 0.00025503
7690.0 0.00028064
7710.0 0.00029246
7730.0 0.00030734
7750.0 0.00034502
7770.0 0.00035045
7790.0 0.0003219
7810.0 0.00029372
7830.0 0.00030289
7850.0 0.00029443
7870.0 0.00026995
7890.0 0.00022681
7910.0 0.00018436
7930.0 0.00017604
7950.0 0.00016038
7970.0 0.00014846
7990.0 0.00014761
8010.0 1.0932e-05
8030.0 1.079e-05
8050.0 1.0645e-05
8070.0 1.0784e-05
8090.0 1.1587e-05
8110.0 1.139e-05
8130.0 9.3952e-06
8150.0 9.1498e-06
8170.0 7.8812e-06
8190.0 7.4691e-06
8210.0 9.6994e-06
8230.0 1.0799e-05
8250.0 9.733e-06
8270.0 8.4713e-06
8290.0 8.2579e-06
8310.0 6.3556e-06
8330.0 4.2837e-06
8350.0 3.0401e-06
8370.0 1.9154e-06
8390.0 3.5013e-06
8410.0 4.0799e-06
8430.0 5.0291e-06
8450.0 5.9056e-06
8470.0 7.3403e-06
8490.0 7.2885e-06
8510.0 7.1693e-06
8530.0 7.4822e-06
8550.0 1.0095e-05
8570.0 1.1951e-05
8590.0 1.2895e-05
8610.0 1.6289e-05
8630.0 1.9623e-05
8650.0 2.0527e-05
8670.0 2.1814e-05
8690.0 2.1937e-05
8710.0 1.9867e-05
8730.0 1.8479e-05
8750.0 1.6311e-05
8770.0 1.5477e-05
8790.0 1.5205e-05
8810.0 1.457e-05
8830.0 1.1651e-05
8850.0 8.5293e-06
8870.0 6.5308e-06
8890.0 6.3849e-06
8910.0 7.3171e-06
8930.0 8.3227e-06
8950.0 8.4821e-06
8970.0 8.5222e-06
8990.0 7.6008e-06
9010.0 7.9652e-05
9030.0 7.2175e-05
9050.0 7.2523e-05
9070.0 7.3096e-05
9090.0 7.3598e-05
9110.0 7.4218e-05
9130.0 7.4696e-05
9150.0 7.5068e-05
9170.0 7.5464e-05
9190.0 7.5888e-05
9210.0 7.6334e-05
9230.0 7.6804e-05
9250.0 7.7282e-05
9270.0 7.7777e-05
9290.0 7.8288e-05
9310.0 7.8802e-05
9330.0 7.9327e-05
9350.0 7.9871e-05
9370.0 8.0421e-05
9390.0 8.0976e-05
9410.0 8.1548e-05
9430.0 8.2136e-05
9450.0 8.2723e-05
9470.0 8.3322e-05
9490.0 8.3938e-05
9510.0 8.4561e-05
9530.0 8.5188e-05
9550.0 8.5836e-05
9570.0 8.6495e-05
9590.0 8.7157e-05
9610.0 8.783e-05
9630.0 8.852e-05
9650.0 8.9217e-05
9670.0 8.9915e-05
9690.0 9.0632e-05
9710.0 9.1359e-05
9730.0 9.2089e-05
9750.0 9.2829e-05
9770.0 9.3591e-05
9790.0 9.4351e-05
9810.0 9.5116e-05
9830.0 9.5897e-05
9850.0 9.6688e-05
9870.0 9.7476e-05
9890.0 9.8277e-05
9910.0 9.9093e-05
9930.0 9.9909e-05
9950.0 0.00010073
9970.0 0.00010156
9990.0 0.00010241
10010.0 8.8863e-05
10030.0 8.9593e-05
10050.0 9.0337e-05
10070.0 9.1107e-05
10090.0 9.1832e-05
10110.0 9.2576e-05
10130.0 9.3323e-05
10150.0 9.4067e-05
10170.0 9.482e-05
10190.0 9.5586e-05
10210.0 9.6343e-05
10230.0 9.7098e-05
10250.0 9.7866e-05
10270.0 9.8632e-05
10290.0 9.9389e-05
10310.0 0.00010016
10330.0 0.00010093
10350.0 0.00010169
10370.0 0.00010245
10390.0 0.00010322
10410.0 0.00010398
10430.0 0.00010473
10450.0 0.00010549
10470.0 0.00010624
10490.0 0.00010699
10510.0 0.00010773
10530.0 0.00010848
10550.0 0.00010922
10570.0 0.00010995
10590.0 0.00011067
10610.0 0.0001114
10630.0 0.00011211
10650.0 0.00011282
10670.0 0.00011353
10690.0 0.00011422
10710.0 0.00011491
10730.0 0.00011559
10750.0 0.00011628
10770.0 0.00011693
10790.0 0.00011759
10810.0 0.00011824
10830.0 0.00011887
10850.0 0.00011947
10870.0 0.00012005
10890.0 0.00012056
10910.0 0.00012095
10930.0 0.00012117
10950.0 0.00012112
10970.0 0.00012071
10990.0 0.0001199
11010.0 0.00011856
11030.0 0.00011667
11050.0 0.00011437
11070.0 0.00011162
11090.0 0.00010832
11110.0 0.00010491
11130.0 0.00010134
11150.0 9.7506e-05
11170.0 9.3551e-05
11190.0 8.9714e-05
11210.0 8.5753e-05
11230.0 8.169e-05
11250.0 7.7809e-05
11270.0 7.4081e-05
11290.0 7.0346e-05
11310.0 6.6808e-05
11330.0 6.3693e-05
11350.0 6.0749e-05
11370.0 5.803e-05
11390.0 5.5676e-05
11410.0 5.3618e-05
11430.0 5.1705e-05
11450.0 5.0057e-05
11470.0 4.8632e-05
11490.0 4.7306e-05
11510.0 4.6028e-05
11530.0 4.4843e-05
11550.0 4.3665e-05
11570.0 4.2408e-05
11590.0 4.1107e-05
11610.0 3.9782e-05
11630.0 3.8341e-05
11650.0 3.6797e-05
11670.0 3.5276e-05
11690.0 3.3734e-05
11710.0 3.2142e-05
11730.0 3.06e-05
11750.0 2.9173e-05
11770.0 2.7774e-05
11790.0 2.6462e-05
11810.0 2.5308e-05
11830.0 2.4275e-05
11850.0 2.3324e-05
11870.0 2.2528e-05
11890.0 2.1867e-05
11910.0 2.1286e-05
11930.0 2.0786e-05
11950.0 2.037e-05
11970.0 1.9999e-05
11990.0 1.9647e-05
12010.0 1.9322e-05
12030.0 1.9009e-05
12050.0 1.8685e-05
12070.0 1.8349e-05
12090.0 1.8024e-05
12110.0 1.7694e-05
12130.0 1.7364e-05
12150.0 1.706e-05
12170.0 1.6794e-05
12190.0 1.6564e-05
12210.0 1.6404e-05
12230.0 1.6326e-05
12250.0 1.6339e-05
12270.0 1.6462e-05
12290.0 1.6695e-05
12310.0 1.7029e-05
12330.0 1.7496e-05
12350.0 1.808e-05
12370.0 1.8744e-05
12390.0 1.9509e-05
12410.0 2.0407e-05
12430.0 2.1319e-05
12450.0 2.2263e-05
12470.0 2.3267e-05
12490.0 2.4276e-05
12510.0 2.5222e-05
12530.0 2.6163e-05
12550.0 2.7071e-05
12570.0 2.7873e-05
12590.0 2.8577e-05
12610.0 2.9204e-05
12630.0 2.9704e-05
12650.0 3.0048e-05
12670.0 3.0275e-05
12690.0 3.0366e-05
12710.0 3.0316e-05
12730.0 3.014e-05
12750.0 2.9827e-05
12770.0 2.9396e-05
12790.0 2.8875e-05
12810.0 2.8252e-05
12830.0 2.7531e-05
12850.0 2.6777e-05
12870.0 2.598e-05
12890.0 2.5117e-05
12910.0 2.4241e-05
12930.0 2.3377e-05
12950.0 2.2475e-05
12970.0 2.1557e-05
12990.0 2.0689e-05
13010.0 1.9831e-05
13030.0 1.8964e-05
13050.0 1.8131e-05
13070.0 1.7351e-05
13090.0 1.6568e-05
13110.0 1.5811e-05
13130.0 1.5112e-05
13150.0 1.4451e-05
13170.0 1.3803e-05
13190.0 1.3227e-05
13210.0 1.272e-05
13230.0 1.2257e-05
13250.0 1.1857e-05
13270.0 1.1542e-05
13290.0 1.1298e-05
13310.0 1.1129e-05
13330.0 1.1052e-05
13350.0 1.1061e-05
13370.0 1.116e-05
13390.0 1.1355e-05
13410.0 1.1618e-05
13430.0 1.1961e-05
13450.0 1.2384e-05
13470.0 1.2853e-05
13490.0 1.335e-05
13510.0 1.3911e-05
13530.0 1.448e-05
13550.0 1.5024e-05
13570.0 1.556e-05
13590.0 1.6083e-05
13610.0 1.6549e-05
13630.0 1.6955e-05
13650.0 1.7325e-05
13670.0 1.7633e-05
13690.0 1.7871e-05
13710.0 1.8055e-05
13730.0 1.8187e-05
13750.0 1.8253e-05
13770.0 1.8268e-05
13790.0 1.8234e-05
13810.0 1.8154e-05
13830.0 1.8035e-05
13850.0 1.7874e-05
13870.0 1.767e-05
13890.0 1.7438e-05
13910.0 1.7176e-05
13930.0 1.6873e-05
13950.0 1.6542e-05
13970.0 1.6204e-05
13990.0 1.5835e-05
14010.0 1.5443e-05
14030.0 1.5052e-05
14050.0 1.4658e-05
14070.0 1.4242e-05
14090.0 1.3843e-05
14110.0 1.3469e-05
14130.0 1.3106e-05
14150.0 1.2764e-05
14170.0 1.2472e-05
14190.0 1.222e-05
14210.0 1.2006e-05
14230.0 1.1848e-05
14250.0 1.1745e-05
14270.0 1.1696e-05
14290.0 1.1706e-05
14310.0 1.1772e-05
14330.0 1.1889e-05
14350.0 1.2061e-05
14370.0 1.2276e-05
14390.0 1.252e-05
14410.0 1.2807e-05
14430.0 1.3123e-05
14450.0 1.3445e-05
14470.0 1.3779e-05
14490.0 1.4135e-05
14510.0 1.4475e-05
14530.0 1.4798e-05
14550.0 1.5121e-05
14570.0 1.5431e-05
14590.0 1.5713e-05
14610.0 1.5985e-05
14630.0 1.6255e-05
14650.0 1.6507e-05
14670.0 1.675e-05
14690.0 1.7003e-05
14710.0 1.7269e-05
14730.0 1.7535e-05
14750.0 1.783e-05
14770.0 1.8165e-05
14790.0 1.8527e-05
14810.0 1.892e-05
14830.0 1.9386e-05
14850.0 1.9892e-05
14870.0 2.042e-05
14890.0 2.099e-05
14910.0 2.1594e-05
14930.0 2.2176e-05
14950.0 2.272e-05
14970.0 2.3234e-05
14990.0 2.3666e-05
15010.0 2.3996e-05
15030.0 2.424e-05
15050.0 2.4402e-05
15070.0 2.4481e-05
15090.0 2.4508e-05
15110.0 2.45e-05
15130.0 2.447e-05
15150.0 2.4428e-05
15170.0 2.4379e-05
15190.0 2.4327e-05
15210.0 2.4275e-05
15230.0 2.4224e-05
15250.0 2.417e-05
15270.0 2.4117e-05
15290.0 2.4067e-05
15310.0 2.4016e-05
15330.0 2.3964e-05
15350.0 2.3914e-05
15370.0 2.3864e-05
15390.0 2.3812e-05
15410.0 2.3762e-05
15430.0 2.3713e-05
15450.0 2.3663e-05
15470.0 2.3612e-05
15490.0 2.3564e-05
15510.0 2.3516e-05
15530.0 2.3467e-05
15550.0 2.3418e-05
15570.0 2.3371e-05
15590.0 2.3322e-05
15610.0 2.3273e-05
15630.0 2.3226e-05
15650.0 2.3179e-05
15670.0 2.313e-05
15690.0 2.3083e-05
15710.0 2.3037e-05
15730.0 2.299e-05
15750.0 2.2942e-05
15770.0 2.2896e-05
15790.0 2.285e-05
15810.0 2.2801e-05
15830.0 2.2755e-05
15850.0 2.271e-05
15870.0 2.2663e-05
15890.0 2.2616e-05
15910.0 2.2572e-05
15930.0 2.2526e-05
15950.0 2.2478e-05
15970.0 2.2433e-05
15990.0 2.2388e-05
16010.0 2.2341e-05
16030.0 2.2294e-05
16050.0 2.225e-05
16070.0 2.2205e-05
16090.0 2.2158e-05
16110.0 2.2113e-05
16130.0 2.2069e-05
16150.0 2.2022e-05
16170.0 2.1976e-05
16190.0 2.1931e-05
16210.0 2.1886e-05
16230.0 2.1839e-05
16250.0 2.1794e-05
16270.0 2.175e-05
16290.0 2.1703e-05
16310.0 2.1657e-05
16330.0 2.1613e-05
16350.0 2.1567e-05
16370.0 2.1519e-05
16390.0 2.1475e-05
16410.0 2.143e-05
16430.0 2.1383e-05
16450.0 2.1337e-05
16470.0 2.1293e-05
16490.0 2.1246e-05
16510.0 2.1199e-05
16530.0 2.1154e-05
16550.0 2.1108e-05
16570.0 2.1061e-05
16590.0 2.1014e-05
16610.0 2.0969e-05
16630.0 2.0922e-05
16650.0 2.0875e-05
16670.0 2.0829e-05
16690.0 2.0784e-05
16710.0 2.0735e-05
16730.0 2.0688e-05
16750.0 2.0642e-05
16770.0 2.0594e-05
16790.0 2.0546e-05
16810.0 2.05e-05
16830.0 2.0453e-05
16850.0 2.0405e-05
16870.0 2.0357e-05
16890.0 2.0311e-05
16910.0 2.0262e-05
16930.0 2.0213e-05
16950.0 2.0166e-05
16970.0 2.0118e-05
16990.0 2.0069e-05
17010.0 2.002e-05
17030.0 1.9974e-05
17050.0 1.9924e-05
17070.0 1.9874e-05
17090.0 1.9827e-05
17110.0 1.9778e-05
17130.0 1.9727e-05
17150.0 1.9678e-05
17170.0 1.963e-05
17190.0 1.958e-05
17210.0 1.9529e-05
17230.0 1.9481e-05
17250.0 1.9431e-05
17270.0 1.938e-05
17290.0 1.933e-05
17310.0 1.9281e-05
17330.0 1.9229e-05
17350.0 1.9177e-05
17370.0 1.9129e-05
17390.0 1.9078e-05
17410.0 1.9026e-05
17430.0 1.8976e-05
17450.0 1.8926e-05
17470.0 1.8873e-05
17490.0 1.8821e-05
17510.0 1.877e-05
17530.0 1.8719e-05
17550.0 1.8665e-05
17570.0 1.8614e-05
17590.0 1.8564e-05
17610.0 1.851e-05
17630.0 1.8458e-05
17650.0 1.8407e-05
17670.0 1.8354e-05
17690.0 1.8299e-05
17710.0 1.8247e-05
17730.0 1.8195e-05
17750.0 1.8141e-05
17770.0 1.8088e-05
17790.0 1.8037e-05
17810.0 1.7983e-05
17830.0 1.7928e-05
17850.0 1.7875e-05
17870.0 1.7822e-05
17890.0 1.7767e-05
17910.0 1.7713e-05
17930.0 1.766e-05
17950.0 1.7606e-05
17970.0 1.7551e-05
17990.0 1.7498e-05
18010.0 1.7444e-05
18030.0 1.7388e-05
18050.0 1.7333e-05
18070.0 1.728e-05
18090.0 1.7224e-05
18110.0 1.7168e-05
18130.0 1.7115e-05
18150.0 1.7061e-05
18170.0 1.7004e-05
18190.0 1.6949e-05
18210.0 1.6895e-05
18230.0 1.6839e-05
18250.0 1.6782e-05
18270.0 1.6728e-05
18290.0 1.6673e-05
18310.0 1.6616e-05
18330.0 1.6561e-05
18350.0 1.6507e-05
18370.0 1.645e-05
18390.0 1.6393e-05
18410.0 1.6338e-05
18430.0 1.6282e-05
18450.0 1.6224e-05
18470.0 1.6169e-05
18490.0 1.6114e-05
18510.0 1.6057e-05
18530.0 1.6e-05
18550.0 1.5945e-05
18570.0 1.5889e-05
18590.0 1.5831e-05
18610.0 1.5775e-05
18630.0 1.5719e-05
18650.0 1.5662e-05
18670.0 1.5604e-05
18690.0 1.5549e-05
18710.0 1.5492e-05
18730.0 1.5435e-05
18750.0 1.5379e-05
18770.0 1.5323e-05
18790.0 1.5264e-05
18810.0 1.5207e-05
18830.0 1.5151e-05
18850.0 1.5094e-05
18870.0 1.5036e-05
18890.0 1.498e-05
18910.0 1.4925e-05
18930.0 1.4866e-05
18950.0 1.4809e-05
18970.0 1.4753e-05
18990.0 1.4696e-05
19010.0 1.4637e-05
19030.0 1.4581e-05
19050.0 1.4525e-05
19070.0 1.4467e-05
19090.0 1.441e-05
19110.0 1.4354e-05
19130.0 1.4296e-05
19150.0 1.4238e-05
19170.0 1.4182e-05
19190.0 1.4126e-05
19210.0 1.4067e-05
19230.0 1.4009e-05
19250.0 1.3954e-05
19270.0 1.3897e-05
19290.0 1.3839e-05
19310.0 1.3783e-05
19330.0 1.3727e-05
19350.0 1.3667e-05
19370.0 1.3611e-05
19390.0 1.3555e-05
19410.0 1.3497e-05
19430.0 1.3439e-05
19450.0 1.3384e-05
19470.0 1.3327e-05
19490.0 1.3269e-05
19510.0 1.3212e-05
19530.0 1.3157e-05
19550.0 1.3099e-05
19570.0 1.304e-05
19590.0 1.2985e-05
19610.0 1.2929e-05
19630.0 1.2871e-05
19650.0 1.2814e-05
19670.0 1.2759e-05
19690.0 1.2701e-05
19710.0 1.2644e-05
19730.0 1.2588e-05
19750.0 1.2532e-05
19770.0 1.2473e-05
19790.0 1.2417e-05
19810.0 1.2362e-05
19830.0 1.2304e-05
19850.0 1.2247e-05
19870.0 1.219e-05
19890.0 1.2129e-05
19910.0 1.2062e-05
19930.0 1.1991e-05
19950.0 1.1909e-05
19970.0 1.1808e-05
19990.0 1.1687e-05
20010.0 1.0398e-05
20030.0 1.0247e-05
20050.0 1.0071e-05
20070.0 9.8801e-06
20090.0 9.6748e-06
20110.0 9.4426e-06
20130.0 9.2075e-06
20150.0 8.9746e-06
20170.0 8.733e-06
20190.0 8.4881e-06
20210.0 8.2567e-06
20230.0 8.031e-06
20250.0 7.8048e-06
20270.0 7.5949e-06
20290.0 7.4032e-06
20310.0 7.2211e-06
20330.0 7.051e-06
20350.0 6.9097e-06
20370.0 6.7843e-06
20390.0 6.6743e-06
20410.0 6.5855e-06
20430.0 6.517e-06
20450.0 6.4628e-06
20470.0 6.4264e-06
20490.0 6.4069e-06
20510.0 6.4013e-06
20530.0 6.4092e-06
20550.0 6.429e-06
20570.0 6.4578e-06
20590.0 6.4967e-06
20610.0 6.5439e-06
20630.0 6.5959e-06
20650.0 6.6541e-06
20670.0 6.7206e-06
20690.0 6.7883e-06
20710.0 6.8584e-06
20730.0 6.934e-06
20750.0 7.0129e-06
20770.0 7.0905e-06
20790.0 7.172e-06
20810.0 7.2582e-06
20830.0 7.344e-06
20850.0 7.4301e-06
20870.0 7.5224e-06
20890.0 7.6164e-06
20910.0 7.7072e-06
20930.0 7.8013e-06
20950.0 7.8989e-06
20970.0 7.994e-06
20990.0 8.0879e-06
21010.0 8.1865e-06
21030.0 8.283e-06
21050.0 8.375e-06
21070.0 8.4669e-06
21090.0 8.5592e-06
21110.0 8.6432e-06
21130.0 8.7222e-06
21150.0 8.7988e-06
21170.0 8.868e-06
21190.0 8.9277e-06
21210.0 8.9813e-06
21230.0 9.0259e-06
21250.0 9.0577e-06
21270.0 9.0778e-06
21290.0 9.0854e-06
21310.0 9.0781e-06
21330.0 9.0567e-06
21350.0 9.0191e-06
21370.0 8.9639e-06
21390.0 8.8937e-06
21410.0 8.8078e-06
21430.0 8.6989e-06
21450.0 8.5767e-06
21470.0 8.4437e-06
21490.0 8.2931e-06
21510.0 8.128e-06
21530.0 7.9603e-06
21550.0 7.7846e-06
21570.0 7.5972e-06
21590.0 7.4128e-06
21610.0 7.2348e-06
21630.0 7.0565e-06
21650.0 6.8823e-06
21670.0 6.7313e-06
21690.0 6.5921e-06
21710.0 6.4667e-06
21730.0 6.3639e-06
21750.0 6.2847e-06
21770.0 6.2243e-06
21790.0 6.1896e-06
21810.0 6.18e-06
21830.0 6.1937e-06
21850.0 6.2324e-06
21870.0 6.2928e-06
21890.0 6.3708e-06
21910.0 6.4708e-06
21930.0 6.5882e-06
21950.0 6.7153e-06
21970.0 6.8561e-06
21990.0 7.0141e-06
22010.0 7.1721e-06
22030.0 7.3325e-06
22050.0 7.501e-06
22070.0 7.6704e-06
22090.0 7.8308e-06
22110.0 7.9925e-06
22130.0 8.1539e-06
22150.0 8.3047e-06
22170.0 8.4469e-06
22190.0 8.5877e-06
22210.0 8.7188e-06
22230.0 8.8342e-06
22250.0 8.9428e-06
22270.0 9.0428e-06
22290.0 9.1284e-06
22310.0 9.2017e-06
22330.0 9.2664e-06
22350.0 9.3163e-06
22370.0 9.3515e-06
22390.0 9.3736e-06
22410.0 9.3805e-06
22430.0 9.3716e-06
22450.0 9.3475e-06
22470.0 9.3057e-06
22490.0 9.2471e-06
22510.0 9.1741e-06
22530.0 9.0807e-06
22550.0 8.967e-06
22570.0 8.8409e-06
22590.0 8.6987e-06
22610.0 8.5351e-06
22630.0 8.358e-06
