#lamb flux
1010.0 4.9971e-06
1030.0 5.2834e-06
1050.0 5.6145e-06
1070.0 5.988e-06
1090.0 6.4125e-06
1110.0 6.8492e-06
1130.0 7.2904e-06
1150.0 7.7542e-06
1170.0 8.2345e-06
1190.0 8.6926e-06
1210.0 9.1591e-06
1230.0 9.6434e-06
1250.0 1.0121e-05
1270.0 1.0588e-05
1290.0 1.1084e-05
1310.0 1.1583e-05
1330.0 1.2066e-05
1350.0 1.2558e-05
1370.0 1.3068e-05
1390.0 1.3571e-05
1410.0 1.4064e-05
1430.0 1.4581e-05
1450.0 1.5103e-05
1470.0 1.5613e-05
1490.0 1.6132e-05
1510.0 1.6682e-05
1530.0 1.7209e-05
1550.0 1.7733e-05
1570.0 1.8276e-05
1590.0 1.8822e-05
1610.0 1.9348e-05
1630.0 1.9889e-05
1650.0 2.0444e-05
1670.0 2.0982e-05
1690.0 2.1512e-05
1710.0 2.2059e-05
1730.0 2.2605e-05
1750.0 2.3116e-05
1770.0 2.3636e-05
1790.0 2.4159e-05
1810.0 2.4658e-05
1830.0 2.514e-05
1850.0 2.5641e-05
1870.0 2.6119e-05
1890.0 2.6568e-05
1910.0 2.7014e-05
1930.0 2.7459e-05
1950.0 2.7868e-05
1970.0 2.8257e-05
1990.0 2.865e-05
2010.0 2.902e-05
2030.0 2.9361e-05
2050.0 2.9702e-05
2070.0 3.0042e-05
2090.0 3.0344e-05
2110.0 3.0633e-05
2130.0 3.0928e-05
2150.0 3.1205e-05
2170.0 3.1458e-05
2190.0 3.1722e-05
2210.0 3.1987e-05
2230.0 3.2234e-05
2250.0 3.2481e-05
2270.0 3.2751e-05
2290.0 3.3014e-05
2310.0 3.3267e-05
2330.0 3.3545e-05
2350.0 3.3839e-05
2370.0 3.413e-05
2390.0 3.4444e-05
2410.0 3.4795e-05
2430.0 3.5155e-05
2450.0 3.553e-05
2470.0 3.5946e-05
2490.0 3.6413e-05
2510.0 3.6934e-05
2530.0 3.7626e-05
2550.0 3.8675e-05
2570.0 4.03e-05
2590.0 4.2765e-05
2610.0 4.6727e-05
2630.0 5.2426e-05
2650.0 5.9659e-05
2670.0 6.8572e-05
2690.0 7.8957e-05
2710.0 8.9566e-05
2730.0 9.9765e-05
2750.0 0.00010973
2770.0 0.00011867
2790.0 0.00012644
2810.0 0.00013361
2830.0 0.00014064
2850.0 0.00014724
2870.0 0.0001539
2890.0 0.00016098
2910.0 0.00016837
2930.0 0.00017586
2950.0 0.00018388
2970.0 0.00019238
2990.0 0.00020101
3010.0 0.00056238
3030.0 0.00058732
3050.0 0.00061222
3070.0 0.00063492
3090.0 0.0006543
3110.0 0.00066526
3130.0 0.00066175
3150.0 0.00063705
3170.0 0.00057768
3190.0 0.0004823
3210.0 0.0003524
3230.0 0.0002062
3250.0 0.00036289
3270.0 0.00019227
3290.0 0.00055589
3310.0 0.0001631
3330.0 0.00015992
3350.0 0.00020842
3370.0 0.00026575
3390.0 0.00032788
3410.0 0.00038998
3430.0 0.00045532
3450.0 0.00052096
3470.0 0.00058118
3490.0 0.00062199
3510.0 0.00076598
3530.0 0.0010249
3550.0 0.00099547
3570.0 0.00080084
3590.0 0.0011276
3610.0 0.00068236
3630.0 0.0011812
3650.0 0.0013869
3670.0 0.0017989
3690.0 0.0016659
3710.0 0.0010808
3730.0 0.0014445
3750.0 0.0014867
3770.0 0.0015799
3790.0 0.0014904
3810.0 0.0014667
3830.0 0.0023172
3850.0 0.0027841
3870.0 0.0034618
3890.0 0.0033082
3910.0 0.0029169
3930.0 0.002984
3950.0 0.0032655
3970.0 0.0038137
3990.0 0.0025609
4010.0 0.0013859
4030.0 0.0023712
4050.0 0.0030276
4070.0 0.0033465
4090.0 0.002493
4110.0 0.0015468
4130.0 0.0024413
4150.0 0.0024051
4170.0 0.0023388
4190.0 0.0021881
4210.0 0.003019
4230.0 0.002114
4250.0 0.0023863
4270.0 0.0023739
4290.0 0.0022969
4310.0 0.0029435
4330.0 0.0031165
4350.0 0.0024602
4370.0 0.0020476
4390.0 0.0025809
4410.0 0.0026842
4430.0 0.0019846
4450.0 0.0018802
4470.0 0.0023072
4490.0 0.0016931
4510.0 0.0022941
4530.0 0.0024049
4550.0 0.0029987
4570.0 0.004337
4590.0 0.0041588
4610.0 0.0029137
4630.0 0.004894
4650.0 0.0068703
4670.0 0.0064377
4690.0 0.0041104
4710.0 0.0044685
4730.0 0.0054753
4750.0 0.004663
4770.0 0.0035174
4790.0 0.0023129
4810.0 0.0033324
4830.0 0.0039194
4850.0 0.0033698
4870.0 0.0010789
4890.0 0.0037416
4910.0 0.005168
4930.0 0.0055925
4950.0 0.0055832
4970.0 0.0035114
4990.0 0.0041265
5010.0 0.0049618
5030.0 0.005514
5050.0 0.0053364
5070.0 0.0037697
5090.0 0.0030408
5110.0 0.0028958
5130.0 0.0026707
5150.0 0.0028837
5170.0 0.002523
5190.0 0.0031022
5210.0 0.0031279
5230.0 0.0034552
5250.0 0.0042167
5270.0 0.0034109
5290.0 0.00343
5310.0 0.0052009
5330.0 0.0060301
5350.0 0.0049499
5370.0 0.0043176
5390.0 0.0050669
5410.0 0.0062939
5430.0 0.0068261
5450.0 0.0071914
5470.0 0.0071128
5490.0 0.0070602
5510.0 0.0084147
5530.0 0.0087265
5550.0 0.009323
5570.0 0.0098994
5590.0 0.0097623
5610.0 0.009119
5630.0 0.0088202
5650.0 0.0090782
5670.0 0.0088912
5690.0 0.0075151
5710.0 0.0073936
5730.0 0.0075167
5750.0 0.0080498
5770.0 0.0068874
5790.0 0.0064004
5810.0 0.0064903
5830.0 0.0069403
5850.0 0.006367
5870.0 0.0064268
5890.0 0.0076757
5910.0 0.0071862
5930.0 0.0058027
5950.0 0.0050943
5970.0 0.0055804
5990.0 0.0051042
6010.0 0.0047515
6030.0 0.0047837
6050.0 0.0044043
6070.0 0.0032854
6090.0 0.0030249
6110.0 0.0040026
6130.0 0.0045962
6150.0 0.0047758
6170.0 0.0045863
6190.0 0.0042682
6210.0 0.0043222
6230.0 0.0052592
6250.0 0.0048582
6270.0 0.0044066
6290.0 0.0040516
6310.0 0.0037533
6330.0 0.0035237
6350.0 0.0030975
6370.0 0.0030998
6390.0 0.0036491
6410.0 0.0045592
6430.0 0.0053221
6450.0 0.0051337
6470.0 0.0050685
6490.0 0.0063338
6510.0 0.0073533
6530.0 0.006951
6550.0 0.0065927
6570.0 0.0066944
6590.0 0.0065549
6610.0 0.0070548
6630.0 0.0065696
6650.0 0.0056777
6670.0 0.0051694
6690.0 0.0051257
6710.0 0.0062931
6730.0 0.0056454
6750.0 0.0046325
6770.0 0.0041077
6790.0 0.0043532
6810.0 0.0049995
6830.0 0.0049439
6850.0 0.0044216
6870.0 0.0046151
6890.0 0.0045866
6910.0 0.0043114
6930.0 0.0048958
6950.0 0.0045059
6970.0 0.004151
6990.0 0.0041148
7010.0 0.0040641
7030.0 0.0039156
7050.0 0.0037932
7070.0 0.0041716
7090.0 0.0039336
7110.0 0.0033339
7130.0 0.0027586
7150.0 0.0026289
7170.0 0.0034584
7190.0 0.0037203
7210.0 0.0035187
7230.0 0.0036629
7250.0 0.0034561
7270.0 0.0033141
7290.0 0.0036597
7310.0 0.004104
7330.0 0.0040281
7350.0 0.003741
7370.0 0.0034739
7390.0 0.0035265
7410.0 0.004096
7430.0 0.0045631
7450.0 0.0048267
7470.0 0.0047926
7490.0 0.0052128
7510.0 0.005123
7530.0 0.0048144
7550.0 0.0046807
7570.0 0.0040884
7590.0 0.0039763
7610.0 0.0038422
7630.0 0.0035035
7650.0 0.0037778
7670.0 0.0041602
7690.0 0.0045268
7710.0 0.0051555
7730.0 0.0054432
7750.0 0.0056727
7770.0 0.005826
7790.0 0.006382
7810.0 0.0064923
7830.0 0.0058378
7850.0 0.0058805
7870.0 0.0056441
7890.0 0.0058756
7910.0 0.005559
7930.0 0.0055767
7950.0 0.0047325
7970.0 0.0048004
7990.0 0.004613
8010.0 0.0048978
8030.0 0.0048783
8050.0 0.0051803
8070.0 0.0049675
8090.0 0.0049929
8110.0 0.0049143
8130.0 0.0048919
8150.0 0.0046218
8170.0 0.0045245
8190.0 0.0045011
8210.0 0.0045465
8230.0 0.0039739
8250.0 0.0036303
8270.0 0.0032094
8290.0 0.0027252
8310.0 0.0024081
8330.0 0.0019244
8350.0 0.0015755
8370.0 0.001545
8390.0 0.0015022
8410.0 0.0015647
8430.0 0.0019995
8450.0 0.0021692
8470.0 0.002327
8490.0 0.0027233
8510.0 0.0029652
8530.0 0.0033883
8550.0 0.0040103
8570.0 0.0044104
8590.0 0.0046499
8610.0 0.0051387
8630.0 0.0058096
8650.0 0.0059462
8670.0 0.0060618
8690.0 0.0063119
8710.0 0.0062015
8730.0 0.006037
8750.0 0.0055897
8770.0 0.0056004
8790.0 0.0055318
8810.0 0.0050903
8830.0 0.0051162
8850.0 0.0047264
8870.0 0.0045239
8890.0 0.0040613
8910.0 0.0044964
8930.0 0.0040677
8950.0 0.0040609
8970.0 0.0041338
8990.0 0.0040072
9010.0 0.0041181
9030.0 0.0039148
9050.0 0.0038949
9070.0 0.0038952
9090.0 0.0038946
9110.0 0.0038964
9130.0 0.0038945
9150.0 0.0038908
9170.0 0.0038763
9190.0 0.0038457
9210.0 0.0039048
9230.0 0.0038859
9250.0 0.0038743
9270.0 0.003864
9290.0 0.0038546
9310.0 0.0038456
9330.0 0.0038368
9350.0 0.0038278
9370.0 0.0038187
9390.0 0.0038091
9410.0 0.0037992
9430.0 0.0037891
9450.0 0.0037785
9470.0 0.0037676
9490.0 0.0037565
9510.0 0.0037451
9530.0 0.0037334
9550.0 0.0037217
9570.0 0.0037097
9590.0 0.0036976
9610.0 0.0036853
9630.0 0.0036729
9650.0 0.0036605
9670.0 0.0036479
9690.0 0.0036354
9710.0 0.0036228
9730.0 0.0036102
9750.0 0.0035976
9770.0 0.0035852
9790.0 0.0035728
9810.0 0.0035603
9830.0 0.003548
9850.0 0.0035359
9870.0 0.0035237
9890.0 0.0035118
9910.0 0.0035001
9930.0 0.0034884
9950.0 0.0034706
9970.0 0.0034612
9990.0 0.0034519
10010.0 0.0034422
10030.0 0.0034323
10050.0 0.0034212
10070.0 0.0034043
10090.0 0.0033969
10110.0 0.0033893
10130.0 0.0033813
10150.0 0.0033732
10170.0 0.0033648
10190.0 0.0033562
10210.0 0.0033481
10230.0 0.0033402
10250.0 0.0033322
10270.0 0.0033246
10290.0 0.0033175
10310.0 0.0033105
10330.0 0.0033035
10350.0 0.0032971
10370.0 0.0032911
10390.0 0.003285
10410.0 0.0032794
10430.0 0.0032742
10450.0 0.0032692
10470.0 0.0032643
10490.0 0.0032598
10510.0 0.0032557
10530.0 0.0032516
10550.0 0.0032478
10570.0 0.0032446
10590.0 0.0032414
10610.0 0.0032384
10630.0 0.0032359
10650.0 0.0032336
10670.0 0.0032313
10690.0 0.0032294
10710.0 0.0032279
10730.0 0.0032265
10750.0 0.0032252
10770.0 0.0032244
10790.0 0.0032238
10810.0 0.0032232
10830.0 0.0032228
10850.0 0.0032225
10870.0 0.0032216
10890.0 0.0032196
10910.0 0.0032158
10930.0 0.0032085
10950.0 0.0031952
10970.0 0.0031746
10990.0 0.003146
11010.0 0.0031828
11030.0 0.0031301
11050.0 0.0030681
11070.0 0.0029962
11090.0 0.0029127
11110.0 0.0028293
11130.0 0.0027457
11150.0 0.0026599
11170.0 0.0025763
11190.0 0.0024998
11210.0 0.0024256
11230.0 0.0023544
11250.0 0.002291
11270.0 0.0022338
11290.0 0.0021797
11310.0 0.002131
11330.0 0.0020897
11350.0 0.0020513
11370.0 0.0020154
11390.0 0.0019833
11410.0 0.0019533
11430.0 0.0019225
11450.0 0.0018925
11470.0 0.001863
11490.0 0.0018318
11510.0 0.0017983
11530.0 0.0017648
11550.0 0.0017302
11570.0 0.0016925
11590.0 0.0016538
11610.0 0.0016154
11630.0 0.0015745
11650.0 0.0015319
11670.0 0.0014911
11690.0 0.0014505
11710.0 0.0014087
11730.0 0.0013682
11750.0 0.0013303
11770.0 0.0012921
11790.0 0.0012548
11810.0 0.0012203
11830.0 0.0011875
11850.0 0.0011544
11870.0 0.001124
11890.0 0.0010961
11910.0 0.0010687
11930.0 0.0010421
11950.0 0.0010178
11970.0 0.0009941
11990.0 0.00097019
12010.0 0.00094776
12030.0 0.00092657
12050.0 0.00090535
12070.0 0.00088441
12090.0 0.00086576
12110.0 0.00084777
12130.0 0.00083043
12150.0 0.00081503
12170.0 0.0008018
12190.0 0.0007897
12210.0 0.00078022
12230.0 0.00077384
12250.0 0.00077026
12270.0 0.00076984
12290.0 0.00077298
12310.0 0.00077941
12330.0 0.00078947
12350.0 0.00080296
12370.0 0.00081905
12390.0 0.00083791
12410.0 0.00085999
12430.0 0.00088267
12450.0 0.00090609
12470.0 0.00093059
12490.0 0.00095486
12510.0 0.0009775
12530.0 0.00099959
12550.0 0.0010205
12570.0 0.0010391
12590.0 0.0010555
12610.0 0.0010703
12630.0 0.0010829
12650.0 0.0010929
12670.0 0.0011012
12690.0 0.0011077
12710.0 0.0011123
12730.0 0.0011153
12750.0 0.0011168
12770.0 0.0011168
12790.0 0.0011158
12810.0 0.0011134
12830.0 0.0011095
12850.0 0.0011048
12870.0 0.0010991
12890.0 0.0010917
12910.0 0.0010832
12930.0 0.0010738
12950.0 0.0010626
12970.0 0.0010497
12990.0 0.0010362
13010.0 0.0010214
13030.0 0.0010048
13050.0 0.00098755
13070.0 0.00097025
13090.0 0.00095156
13110.0 0.00093237
13130.0 0.00091399
13150.0 0.00089596
13170.0 0.00087768
13190.0 0.00086128
13210.0 0.00084688
13230.0 0.00083366
13250.0 0.00082237
13270.0 0.00081371
13290.0 0.000807
13310.0 0.00080218
13330.0 0.00079963
13350.0 0.00079884
13370.0 0.00079938
13390.0 0.00080096
13410.0 0.00080308
13430.0 0.00080527
13450.0 0.00080709
13470.0 0.00080814
13490.0 0.00080819
13510.0 0.00080679
13530.0 0.0008039
13550.0 0.00079975
13570.0 0.0007942
13590.0 0.00078722
13610.0 0.00077954
13630.0 0.00077145
13650.0 0.00076258
13670.0 0.00075365
13690.0 0.00074517
13710.0 0.00073686
13730.0 0.00072859
13750.0 0.00072136
13770.0 0.00071469
13790.0 0.00070827
13810.0 0.0007023
13830.0 0.00069687
13850.0 0.00069142
13870.0 0.0006859
13890.0 0.0006805
13910.0 0.000675
13930.0 0.00066908
13950.0 0.00066298
13970.0 0.00065701
13990.0 0.00065077
14010.0 0.00064442
14030.0 0.00063837
14050.0 0.00063257
14070.0 0.00062685
14090.0 0.00062172
14110.0 0.00061724
14130.0 0.00061326
14150.0 0.00060988
14170.0 0.00060727
14190.0 0.00060528
14210.0 0.00060392
14230.0 0.00060322
14250.0 0.00060311
14270.0 0.00060367
14290.0 0.00060493
14310.0 0.00060665
14330.0 0.00060892
14350.0 0.00061184
14370.0 0.00061514
14390.0 0.00061862
14410.0 0.00062258
14430.0 0.00062676
14450.0 0.0006308
14470.0 0.00063484
14490.0 0.00063906
14510.0 0.00064292
14530.0 0.00064648
14550.0 0.0006501
14570.0 0.00065371
14590.0 0.00065716
14610.0 0.00066088
14630.0 0.00066519
14650.0 0.00066981
14670.0 0.00067496
14690.0 0.00068117
14710.0 0.0006885
14730.0 0.00069625
14750.0 0.00070525
14770.0 0.00071562
14790.0 0.00072668
14810.0 0.00073824
14830.0 0.0007515
14850.0 0.00076507
14870.0 0.00077829
14890.0 0.0007917
14910.0 0.00080503
14930.0 0.00081683
14950.0 0.00082694
14970.0 0.0008357
14990.0 0.00084205
15010.0 0.00084579
15030.0 0.00084743
15050.0 0.00084713
15070.0 0.00084505
15090.0 0.00084188
15110.0 0.00083794
15130.0 0.00083353
15150.0 0.00082894
15170.0 0.00082416
15190.0 0.00081931
15210.0 0.00081449
15230.0 0.00080968
15250.0 0.0008048
15270.0 0.00079994
15290.0 0.00079518
15310.0 0.00079037
15330.0 0.00078554
15350.0 0.00078079
15370.0 0.00077605
15390.0 0.00077123
15410.0 0.00076648
15430.0 0.00076178
15450.0 0.00075706
15470.0 0.00075232
15490.0 0.00074768
15510.0 0.00074304
15530.0 0.00073837
15550.0 0.00073375
15570.0 0.00072919
15590.0 0.00072458
15610.0 0.00071997
15630.0 0.00071546
15650.0 0.00071096
15670.0 0.00070644
15690.0 0.00070197
15710.0 0.00069757
15730.0 0.00069313
15750.0 0.0006887
15770.0 0.00068436
15790.0 0.00068002
15810.0 0.00067564
15830.0 0.00067135
15850.0 0.00066712
15870.0 0.00066286
15890.0 0.00065863
15910.0 0.00065448
15930.0 0.00065033
15950.0 0.00064615
15970.0 0.00064205
15990.0 0.000638
16010.0 0.00063392
16030.0 0.00062986
16050.0 0.00062591
16070.0 0.00062196
16090.0 0.00061799
16110.0 0.0006141
16130.0 0.00061026
16150.0 0.00060636
16170.0 0.00060251
16190.0 0.00059875
16210.0 0.00059499
16230.0 0.00059121
16250.0 0.00058752
16270.0 0.00058388
16290.0 0.0005802
16310.0 0.00057657
16330.0 0.00057301
16350.0 0.00056944
16370.0 0.00056584
16390.0 0.00056235
16410.0 0.0005589
16430.0 0.00055542
16450.0 0.00055199
16470.0 0.00054864
16490.0 0.00054525
16510.0 0.00054188
16530.0 0.00053858
16550.0 0.00053531
16570.0 0.00053201
16590.0 0.00052875
16610.0 0.00052559
16630.0 0.0005224
16650.0 0.00051922
16670.0 0.00051612
16690.0 0.00051304
16710.0 0.00050991
16730.0 0.00050685
16750.0 0.00050386
16770.0 0.00050084
16790.0 0.00049783
16810.0 0.00049491
16830.0 0.000492
16850.0 0.00048907
16870.0 0.00048619
16890.0 0.00048337
16910.0 0.00048051
16930.0 0.00047766
16950.0 0.0004749
16970.0 0.00047215
16990.0 0.00046938
17010.0 0.00046666
17030.0 0.00046401
17050.0 0.00046131
17070.0 0.00045863
17090.0 0.00045603
17110.0 0.00045343
17130.0 0.00045078
17150.0 0.00044822
17170.0 0.00044571
17190.0 0.00044316
17210.0 0.00044064
17230.0 0.00043819
17250.0 0.00043572
17270.0 0.00043323
17290.0 0.00043081
17310.0 0.00042842
17330.0 0.00042601
17350.0 0.0004236
17370.0 0.00042129
17390.0 0.00041896
17410.0 0.00041662
17430.0 0.00041433
17450.0 0.00041209
17470.0 0.00040977
17490.0 0.0004075
17510.0 0.0004053
17530.0 0.00040309
17550.0 0.00040086
17570.0 0.00039869
17590.0 0.00039656
17610.0 0.00039438
17630.0 0.00039224
17650.0 0.00039015
17670.0 0.00038805
17690.0 0.0003859
17710.0 0.00038386
17730.0 0.00038182
17750.0 0.00037976
17770.0 0.00037772
17790.0 0.00037576
17810.0 0.00037374
17830.0 0.00037173
17850.0 0.00036977
17870.0 0.00036783
17890.0 0.00036585
17910.0 0.00036391
17930.0 0.00036204
17950.0 0.00036012
17970.0 0.00035821
17990.0 0.00035636
18010.0 0.00035452
18030.0 0.00035262
18050.0 0.00035078
18070.0 0.00034898
18090.0 0.00034715
18110.0 0.00034532
18130.0 0.00034356
18150.0 0.0003418
18170.0 0.00034
18190.0 0.00033825
18210.0 0.00033654
18230.0 0.00033478
18250.0 0.00033302
18270.0 0.00033134
18290.0 0.00032965
18310.0 0.00032793
18330.0 0.00032627
18350.0 0.00032464
18370.0 0.00032295
18390.0 0.00032129
18410.0 0.00031968
18430.0 0.00031806
18450.0 0.00031639
18470.0 0.0003148
18490.0 0.00031323
18510.0 0.00031163
18530.0 0.00031004
18550.0 0.00030851
18570.0 0.00030695
18590.0 0.00030536
18610.0 0.00030383
18630.0 0.00030233
18650.0 0.00030078
18670.0 0.00029925
18690.0 0.00029778
18710.0 0.00029629
18730.0 0.00029478
18750.0 0.00029332
18770.0 0.00029189
18790.0 0.00029038
18810.0 0.00028891
18830.0 0.0002875
18850.0 0.00028606
18870.0 0.00028461
18890.0 0.00028321
18910.0 0.00028182
18930.0 0.00028039
18950.0 0.00027899
18970.0 0.00027763
18990.0 0.00027625
19010.0 0.00027482
19030.0 0.00027348
19050.0 0.00027215
19070.0 0.00027077
19090.0 0.00026943
19110.0 0.00026814
19130.0 0.00026678
19150.0 0.00026544
19170.0 0.00026414
19190.0 0.00026284
19210.0 0.00026151
19230.0 0.0002602
19250.0 0.00025895
19270.0 0.00025766
19290.0 0.00025637
19310.0 0.00025513
19330.0 0.00025388
19350.0 0.00025258
19370.0 0.00025133
19390.0 0.00025011
19410.0 0.00024886
19430.0 0.0002476
19450.0 0.00024641
19470.0 0.0002452
19490.0 0.00024396
19510.0 0.00024275
19530.0 0.00024158
19550.0 0.00024035
19570.0 0.00023913
19590.0 0.00023797
19610.0 0.0002368
19630.0 0.0002356
19650.0 0.00023444
19670.0 0.00023331
19690.0 0.00023212
19710.0 0.00023095
19730.0 0.00022982
19750.0 0.00022868
19770.0 0.00022749
19790.0 0.00022636
19810.0 0.00022526
19830.0 0.00022411
19850.0 0.00022295
19870.0 0.00022183
19890.0 0.00022062
19910.0 0.00021928
19930.0 0.00021785
19950.0 0.00021621
19970.0 0.00021418
19990.0 0.00021176
20010.0 0.00020904
20030.0 0.00020579
20050.0 0.00020207
20070.0 0.00019815
20090.0 0.00019406
20110.0 0.00018958
20130.0 0.00018523
20150.0 0.0001811
20170.0 0.00017697
20190.0 0.00017295
20210.0 0.00016931
20230.0 0.00016589
20250.0 0.00016259
20270.0 0.00015965
20290.0 0.00015708
20310.0 0.00015474
20330.0 0.00015269
20350.0 0.00015113
20370.0 0.00014989
20390.0 0.00014898
20410.0 0.00014848
20430.0 0.00014835
20450.0 0.0001486
20470.0 0.00014925
20490.0 0.00015025
20510.0 0.00015161
20530.0 0.00015336
20550.0 0.0001554
20570.0 0.00015764
20590.0 0.00016021
20610.0 0.00016299
20630.0 0.00016582
20650.0 0.00016877
20670.0 0.0001719
20690.0 0.00017489
20710.0 0.00017775
20730.0 0.00018058
20750.0 0.00018326
20770.0 0.00018562
20790.0 0.00018782
20810.0 0.00018984
20830.0 0.00019156
20850.0 0.00019303
20870.0 0.00019435
20890.0 0.00019546
20910.0 0.00019634
20930.0 0.0001971
20950.0 0.00019774
20970.0 0.00019824
20990.0 0.00019864
21010.0 0.00019895
21030.0 0.00019915
21050.0 0.00019924
21070.0 0.00019923
21090.0 0.00019908
21110.0 0.00019882
21130.0 0.00019845
21150.0 0.00019794
21170.0 0.00019731
21190.0 0.00019661
21210.0 0.0001958
21230.0 0.00019488
21250.0 0.00019396
21270.0 0.00019302
21290.0 0.00019203
21310.0 0.00019107
21330.0 0.00019019
21350.0 0.00018934
21370.0 0.00018855
21390.0 0.00018788
21410.0 0.00018731
21430.0 0.00018682
21450.0 0.00018648
21470.0 0.00018626
21490.0 0.00018616
21510.0 0.00018619
21530.0 0.00018634
21550.0 0.0001866
21570.0 0.000187
21590.0 0.0001875
21610.0 0.0001881
21630.0 0.00018883
21650.0 0.00018969
21670.0 0.0001906
21690.0 0.00019163
21710.0 0.0001928
21730.0 0.00019406
21750.0 0.00019539
21770.0 0.0001969
21790.0 0.00019852
21810.0 0.00020019
21830.0 0.00020199
21850.0 0.00020396
21870.0 0.00020599
21890.0 0.00020804
21910.0 0.00021026
21930.0 0.00021256
21950.0 0.00021484
21970.0 0.00021719
21990.0 0.00021968
22010.0 0.00022206
22030.0 0.00022438
22050.0 0.00022672
22070.0 0.00022899
22090.0 0.00023106
22110.0 0.00023304
22130.0 0.0002349
22150.0 0.0002365
22170.0 0.00023787
22190.0 0.00023904
22210.0 0.00023991
22230.0 0.00024044
22250.0 0.00024067
22270.0 0.00024056
22290.0 0.00024011
22310.0 0.00023932
22330.0 0.00023813
22350.0 0.00023658
22370.0 0.00023475
22390.0 0.00023255
22410.0 0.00022993
22430.0 0.00022716
22450.0 0.00022415
22470.0 0.00022078
22490.0 0.00021725
22510.0 0.00021368
22530.0 0.00020983
22550.0 0.0002058
22570.0 0.00020189
22590.0 0.00019795
22610.0 0.00019388
22630.0 0.0001899
22650.0 0.00018616
22670.0 0.00018235
22690.0 0.00017863
22710.0 0.00017515
22730.0 0.00017183
22750.0 0.00016848
22770.0 0.00016543
22790.0 0.00016264
22810.0 0.00015994
22830.0 0.00015741
22850.0 0.00015517
22870.0 0.00015308
22890.0 0.00015112
22910.0 0.00014942
22930.0 0.00014794
22950.0 0.00014662
22970.0 0.00014549
22990.0 0.00014465
23010.0 0.00014398
23030.0 0.00014352
23050.0 0.00014328
23070.0 0.00014324
23090.0 0.00014341
