#lamb flux
1010.0 2.5968e-07
1030.0 2.8592e-07
1050.0 3.1611e-07
1070.0 3.5009e-07
1090.0 3.8869e-07
1110.0 4.2828e-07
1130.0 4.6813e-07
1150.0 5.0987e-07
1170.0 5.5292e-07
1190.0 5.9375e-07
1210.0 6.3512e-07
1230.0 6.7788e-07
1250.0 7.1977e-07
1270.0 7.6045e-07
1290.0 8.0344e-07
1310.0 8.464e-07
1330.0 8.8759e-07
1350.0 9.2925e-07
1370.0 9.7226e-07
1390.0 1.0142e-06
1410.0 1.0549e-06
1430.0 1.0974e-06
1450.0 1.1399e-06
1470.0 1.1811e-06
1490.0 1.2226e-06
1510.0 1.2665e-06
1530.0 1.3081e-06
1550.0 1.3491e-06
1570.0 1.3916e-06
1590.0 1.4341e-06
1610.0 1.4747e-06
1630.0 1.5166e-06
1650.0 1.5596e-06
1670.0 1.6012e-06
1690.0 1.6422e-06
1710.0 1.6849e-06
1730.0 1.7279e-06
1750.0 1.7683e-06
1770.0 1.8099e-06
1790.0 1.8523e-06
1810.0 1.8935e-06
1830.0 1.9339e-06
1850.0 1.9769e-06
1870.0 2.0188e-06
1890.0 2.0592e-06
1910.0 2.1006e-06
1930.0 2.1429e-06
1950.0 2.1834e-06
1970.0 2.2234e-06
1990.0 2.2649e-06
2010.0 2.3057e-06
2030.0 2.3451e-06
2050.0 2.3857e-06
2070.0 2.4273e-06
2090.0 2.4664e-06
2110.0 2.5055e-06
2130.0 2.5456e-06
2150.0 2.5849e-06
2170.0 2.6224e-06
2190.0 2.6612e-06
2210.0 2.7002e-06
2230.0 2.7375e-06
2250.0 2.7744e-06
2270.0 2.8129e-06
2290.0 2.85e-06
2310.0 2.8853e-06
2330.0 2.922e-06
2350.0 2.9595e-06
2370.0 2.9968e-06
2390.0 3.0373e-06
2410.0 3.0859e-06
2430.0 3.1425e-06
2450.0 3.2111e-06
2470.0 3.3003e-06
2490.0 3.4139e-06
2510.0 3.5437e-06
2530.0 3.7009e-06
2550.0 3.8986e-06
2570.0 4.1451e-06
2590.0 4.4655e-06
2610.0 4.9449e-06
2630.0 5.6274e-06
2650.0 6.5159e-06
2670.0 7.6604e-06
2690.0 9.0614e-06
2710.0 1.055e-05
2730.0 1.2012e-05
2750.0 1.3445e-05
2770.0 1.4681e-05
2790.0 1.5652e-05
2810.0 1.6411e-05
2830.0 1.6994e-05
2850.0 1.7378e-05
2870.0 1.7649e-05
2890.0 1.7855e-05
2910.0 1.8012e-05
2930.0 1.8134e-05
2950.0 1.8249e-05
2970.0 1.8361e-05
2990.0 1.8464e-05
3010.0 0.00053985
3030.0 0.00054282
3050.0 0.00054568
3070.0 0.00054803
3090.0 0.00054994
3110.0 0.0005508
3130.0 0.00054986
3150.0 0.00054659
3170.0 0.00053994
3190.0 0.00052997
3210.0 0.00051759
3230.0 0.00050351
3250.0 0.00048945
3270.0 0.00047909
3290.0 0.00047274
3310.0 0.00047294
3330.0 0.00047901
3350.0 0.00049019
3370.0 0.0005065
3390.0 0.00052726
3410.0 0.00054996
3430.0 0.00057552
3450.0 0.00060501
3470.0 0.00063727
3490.0 0.00067155
3510.0 0.00071035
3530.0 0.00075206
3550.0 0.00079477
3570.0 0.0008398
3590.0 0.00088897
3610.0 0.00094047
3630.0 0.00099164
3650.0 0.0010449
3670.0 0.0010934
3690.0 0.0011295
3710.0 0.0011495
3730.0 0.0011476
3750.0 0.0011264
3770.0 0.0011286
3790.0 0.0011208
3810.0 0.0010485
3830.0 0.001073
3850.0 0.0012704
3870.0 0.001333
3890.0 0.0012595
3910.0 0.0012407
3930.0 0.0013104
3950.0 0.0013764
3970.0 0.0013063
3990.0 0.0010545
4010.0 0.0029697
4030.0 0.0035089
4050.0 0.0040178
4070.0 0.0036124
4090.0 0.0032903
4110.0 0.0028693
4130.0 0.0027713
4150.0 0.0031146
4170.0 0.0029167
4190.0 0.0030027
4210.0 0.0030499
4230.0 0.0033276
4250.0 0.0039604
4270.0 0.0040748
4290.0 0.0037066
4310.0 0.0037561
4330.0 0.0039283
4350.0 0.0045241
4370.0 0.0052314
4390.0 0.0047298
4410.0 0.0033014
4430.0 0.0027183
4450.0 0.0025112
4470.0 0.0018471
4490.0 0.0021454
4510.0 0.0035477
4530.0 0.0041542
4550.0 0.0040942
4570.0 0.0043718
4590.0 0.0049067
4610.0 0.0072352
4630.0 0.0096155
4650.0 0.010081
4670.0 0.0092131
4690.0 0.0089023
4710.0 0.0093734
4730.0 0.0085907
4750.0 0.0062483
4770.0 0.0045015
4790.0 0.0043473
4810.0 0.0042472
4830.0 0.0039603
4850.0 0.004328
4870.0 0.0057211
4890.0 0.006714
4910.0 0.0057373
4930.0 0.0051959
4950.0 0.0057762
4970.0 0.0074627
4990.0 0.010109
5010.0 0.011666
5030.0 0.010058
5050.0 0.0066679
5070.0 0.0044678
5090.0 0.0035391
5110.0 0.0035607
5130.0 0.0041572
5150.0 0.0044044
5170.0 0.0042952
5190.0 0.0039679
5210.0 0.0042126
5230.0 0.0045907
5250.0 0.0050407
5270.0 0.0052465
5290.0 0.0057712
5310.0 0.0069427
5330.0 0.0076486
5350.0 0.0075864
5370.0 0.0080868
5390.0 0.0094804
5410.0 0.009134
5430.0 0.0078465
5450.0 0.0073566
5470.0 0.007966
5490.0 0.0097723
5510.0 0.012124
5530.0 0.013948
5550.0 0.013277
5570.0 0.012039
5590.0 0.010337
5610.0 0.0097351
5630.0 0.0097907
5650.0 0.0092275
5670.0 0.0086722
5690.0 0.007566
5710.0 0.0074734
5730.0 0.0069703
5750.0 0.0046461
5770.0 0.0035514
5790.0 0.0040954
5810.0 0.0045482
5830.0 0.0058824
5850.0 0.0071723
5870.0 0.0079108
5890.0 0.0079333
5910.0 0.0077741
5930.0 0.0074087
5950.0 0.0075665
5970.0 0.0088138
5990.0 0.0080235
6010.0 0.0066031
6030.0 0.0055408
6050.0 0.0048526
6070.0 0.0050289
6090.0 0.0054941
6110.0 0.0060074
6130.0 0.0059775
6150.0 0.0050434
6170.0 0.0043053
6190.0 0.0049062
6210.0 0.0067523
6230.0 0.0091402
6250.0 0.009908
6270.0 0.0083878
6290.0 0.0070893
6310.0 0.0055043
6330.0 0.0041687
6350.0 0.0038016
6370.0 0.0039959
6390.0 0.0046505
6410.0 0.0058105
6430.0 0.0068374
6450.0 0.0079624
6470.0 0.0089167
6490.0 0.010737
6510.0 0.012012
6530.0 0.011926
6550.0 0.010833
6570.0 0.0090311
6590.0 0.0082385
6610.0 0.0070295
6630.0 0.0066079
6650.0 0.0063052
6670.0 0.0059337
6690.0 0.0051406
6710.0 0.0047601
6730.0 0.0030557
6750.0 0.0032316
6770.0 0.0038769
6790.0 0.0046508
6810.0 0.0039432
6830.0 0.0040504
6850.0 0.0036702
6870.0 0.0033671
6890.0 0.0031331
6910.0 0.0034579
6930.0 0.0032449
6950.0 0.0034739
6970.0 0.0036493
6990.0 0.0041179
7010.0 0.0040938
7030.0 0.0043151
7050.0 0.0040067
7070.0 0.003681
7090.0 0.0037628
7110.0 0.0039148
7130.0 0.0042971
7150.0 0.0046466
7170.0 0.0051554
7190.0 0.0056325
7210.0 0.0053899
7230.0 0.0055205
7250.0 0.0059191
7270.0 0.0064098
7290.0 0.0076998
7310.0 0.0083182
7330.0 0.0079894
7350.0 0.0072108
7370.0 0.0060276
7390.0 0.0059251
7410.0 0.006525
7430.0 0.0073054
7450.0 0.0079347
7470.0 0.0076812
7490.0 0.0067332
7510.0 0.008377
7530.0 0.0081109
7550.0 0.0074127
7570.0 0.0055755
7590.0 0.0034716
7610.0 0.0028781
7630.0 0.0034519
7650.0 0.0041995
7670.0 0.0055625
7690.0 0.0061354
7710.0 0.0061609
7730.0 0.006393
7750.0 0.0074755
7770.0 0.0076223
7790.0 0.0069881
7810.0 0.0061705
7830.0 0.0064505
7850.0 0.0064828
7870.0 0.0060548
7890.0 0.0049793
7910.0 0.003854
7930.0 0.0037631
7950.0 0.003423
7970.0 0.0030938
7990.0 0.0030091
8010.0 0.00057164
8030.0 0.0005231
8050.0 0.00055876
8070.0 0.00063506
8090.0 0.00078187
8110.0 0.00074276
8130.0 0.00044223
8150.0 0.00046645
8170.0 0.00026321
8190.0 0.00016251
8210.0 0.00043334
8230.0 0.00052418
8250.0 0.00022713
8270.0 0.0001782
8290.0 0.00032876
8310.0 0.00029267
8330.0 0.00018385
8350.0 0.00014315
8370.0 3.3988e-05
8390.0 0.00015605
8410.0 0.0001773
8430.0 0.00021882
8450.0 0.00025009
8470.0 0.00041128
8490.0 0.00034605
8510.0 0.00027563
8530.0 0.00016518
8550.0 0.00048581
8570.0 0.00072125
8590.0 0.00053186
8610.0 0.00078353
8630.0 0.00087272
8650.0 0.0005504
8670.0 0.00075097
8690.0 0.0010687
8710.0 0.00091781
8730.0 0.00096051
8750.0 0.00076309
8770.0 0.00068311
8790.0 0.00074127
8810.0 0.0007919
8830.0 0.00046033
8850.0 0.00021056
8870.0 0.00014719
8890.0 0.00032267
8910.0 0.00050096
8930.0 0.00066219
8950.0 0.00072062
8970.0 0.0006931
8990.0 0.00051239
9010.0 0.001452
9030.0 0.0012242
9050.0 0.0012427
9070.0 0.0012654
9090.0 0.0012845
9110.0 0.001308
9130.0 0.0013253
9150.0 0.001338
9170.0 0.0013514
9190.0 0.0013658
9210.0 0.001381
9230.0 0.0013969
9250.0 0.0014131
9270.0 0.0014297
9290.0 0.0014468
9310.0 0.0014639
9330.0 0.0014813
9350.0 0.0014992
9370.0 0.0015173
9390.0 0.0015354
9410.0 0.001554
9430.0 0.0015731
9450.0 0.001592
9470.0 0.0016112
9490.0 0.001631
9510.0 0.0016509
9530.0 0.0016709
9550.0 0.0016915
9570.0 0.0017125
9590.0 0.0017334
9610.0 0.0017547
9630.0 0.0017765
9650.0 0.0017985
9670.0 0.0018203
9690.0 0.0018429
9710.0 0.0018657
9730.0 0.0018885
9750.0 0.0019117
9770.0 0.0019356
9790.0 0.0019594
9810.0 0.0019832
9830.0 0.0020076
9850.0 0.0020323
9870.0 0.0020568
9890.0 0.0020818
9910.0 0.0021072
9930.0 0.0021326
9950.0 0.0021581
9970.0 0.0021842
9990.0 0.0022105
10010.0 0.00193
10030.0 0.0019528
10050.0 0.001976
10070.0 0.0019993
10090.0 0.0020222
10110.0 0.0020457
10130.0 0.0020692
10150.0 0.0020925
10170.0 0.002116
10190.0 0.00214
10210.0 0.0021637
10230.0 0.0021872
10250.0 0.0022112
10270.0 0.0022352
10290.0 0.0022588
10310.0 0.0022827
10330.0 0.002307
10350.0 0.0023307
10370.0 0.0023544
10390.0 0.0023784
10410.0 0.0024022
10430.0 0.0024255
10450.0 0.0024491
10470.0 0.0024728
10490.0 0.002496
10510.0 0.0025191
10530.0 0.0025426
10550.0 0.0025656
10570.0 0.0025882
10590.0 0.0026108
10610.0 0.0026335
10630.0 0.0026555
10650.0 0.0026773
10670.0 0.0026994
10690.0 0.0027211
10710.0 0.0027422
10730.0 0.0027633
10750.0 0.0027845
10770.0 0.0028048
10790.0 0.0028249
10810.0 0.002845
10830.0 0.0028644
10850.0 0.0028828
10870.0 0.0029009
10890.0 0.0029171
10910.0 0.0029301
10930.0 0.0029387
10950.0 0.0029404
10970.0 0.0029329
10990.0 0.0029151
11010.0 0.0027202
11030.0 0.0026774
11050.0 0.0026247
11070.0 0.0025614
11090.0 0.0024853
11110.0 0.0024064
11130.0 0.0023242
11150.0 0.0022358
11170.0 0.0021448
11190.0 0.0020566
11210.0 0.0019658
11230.0 0.0018728
11250.0 0.0017841
11270.0 0.001699
11290.0 0.0016138
11310.0 0.0015332
11330.0 0.0014621
11350.0 0.001395
11370.0 0.0013328
11390.0 0.0012789
11410.0 0.0012316
11430.0 0.0011874
11450.0 0.0011492
11470.0 0.0011158
11490.0 0.0010847
11510.0 0.0010546
11530.0 0.0010265
11550.0 0.00099865
11570.0 0.00096903
11590.0 0.00093846
11610.0 0.00090744
11630.0 0.00087385
11650.0 0.00083805
11670.0 0.00080283
11690.0 0.0007672
11710.0 0.00073052
11730.0 0.000695
11750.0 0.00066209
11770.0 0.00062982
11790.0 0.00059953
11810.0 0.00057278
11830.0 0.00054876
11850.0 0.00052655
11870.0 0.00050784
11890.0 0.00049215
11910.0 0.00047825
11930.0 0.00046621
11950.0 0.00045606
11970.0 0.00044694
11990.0 0.00043829
12010.0 0.00043028
12030.0 0.00042258
12050.0 0.00041466
12070.0 0.00040649
12090.0 0.00039862
12110.0 0.00039065
12130.0 0.00038268
12150.0 0.00037527
12170.0 0.00036872
12190.0 0.00036294
12210.0 0.00035866
12230.0 0.00035619
12250.0 0.00035566
12270.0 0.00035752
12290.0 0.00036176
12310.0 0.0003682
12330.0 0.0003775
12350.0 0.0003893
12370.0 0.00040285
12390.0 0.00041859
12410.0 0.00043714
12430.0 0.00045602
12450.0 0.00047559
12470.0 0.00049644
12490.0 0.00051738
12510.0 0.000537
12530.0 0.00055651
12550.0 0.00057532
12570.0 0.00059187
12590.0 0.00060635
12610.0 0.0006192
12630.0 0.00062937
12650.0 0.00063625
12670.0 0.00064064
12690.0 0.00064216
12710.0 0.0006407
12730.0 0.00063657
12750.0 0.00062955
12770.0 0.00062006
12790.0 0.00060864
12810.0 0.0005951
12830.0 0.0005795
12850.0 0.00056323
12870.0 0.00054606
12890.0 0.00052755
12910.0 0.00050877
12930.0 0.00049029
12950.0 0.00047105
12970.0 0.00045152
12990.0 0.00043305
13010.0 0.00041484
13030.0 0.00039646
13050.0 0.00037882
13070.0 0.00036229
13090.0 0.00034571
13110.0 0.00032967
13130.0 0.00031487
13150.0 0.00030083
13170.0 0.00028708
13190.0 0.0002748
13210.0 0.00026395
13230.0 0.00025399
13250.0 0.00024535
13270.0 0.00023847
13290.0 0.00023302
13310.0 0.00022915
13330.0 0.00022718
13350.0 0.000227
13370.0 0.00022869
13390.0 0.00023238
13410.0 0.00023752
13430.0 0.00024432
13450.0 0.00025283
13470.0 0.00026235
13490.0 0.0002725
13510.0 0.00028402
13530.0 0.00029575
13550.0 0.00030703
13570.0 0.0003182
13590.0 0.00032914
13610.0 0.00033892
13630.0 0.00034749
13650.0 0.00035536
13670.0 0.00036194
13690.0 0.00036706
13710.0 0.00037107
13730.0 0.00037399
13750.0 0.00037551
13770.0 0.00037595
13790.0 0.00037539
13810.0 0.00037382
13830.0 0.00037142
13850.0 0.00036814
13870.0 0.00036397
13890.0 0.00035918
13910.0 0.00035376
13930.0 0.00034749
13950.0 0.00034063
13970.0 0.00033362
13990.0 0.00032599
14010.0 0.00031788
14030.0 0.00030978
14050.0 0.00030164
14070.0 0.00029304
14090.0 0.00028479
14110.0 0.00027705
14130.0 0.00026954
14150.0 0.00026246
14170.0 0.00025641
14190.0 0.00025117
14210.0 0.00024671
14230.0 0.00024338
14250.0 0.00024121
14270.0 0.00024011
14290.0 0.00024025
14310.0 0.00024152
14330.0 0.00024386
14350.0 0.00024735
14370.0 0.00025173
14390.0 0.00025673
14410.0 0.00026264
14430.0 0.00026915
14450.0 0.00027583
14470.0 0.00028279
14490.0 0.00029021
14510.0 0.00029733
14530.0 0.00030411
14550.0 0.00031091
14570.0 0.00031745
14590.0 0.00032342
14610.0 0.00032921
14630.0 0.00033493
14650.0 0.00034027
14670.0 0.00034541
14690.0 0.00035076
14710.0 0.00035638
14730.0 0.00036199
14750.0 0.0003682
14770.0 0.00037523
14790.0 0.00038286
14810.0 0.00039113
14830.0 0.00040093
14850.0 0.00041159
14870.0 0.00042273
14890.0 0.00043477
14910.0 0.00044757
14930.0 0.0004599
14950.0 0.00047145
14970.0 0.0004824
14990.0 0.00049162
15010.0 0.00049872
15030.0 0.00050402
15050.0 0.00050758
15070.0 0.0005094
15090.0 0.00051015
15110.0 0.00051015
15130.0 0.00050967
15150.0 0.00050897
15170.0 0.00050811
15190.0 0.00050718
15210.0 0.00050626
15230.0 0.00050535
15250.0 0.0005044
15270.0 0.00050346
15290.0 0.00050259
15310.0 0.00050168
15330.0 0.00050077
15350.0 0.00049989
15370.0 0.00049903
15390.0 0.00049811
15410.0 0.00049724
15430.0 0.00049639
15450.0 0.00049552
15470.0 0.00049464
15490.0 0.00049381
15510.0 0.00049298
15530.0 0.00049211
15550.0 0.00049127
15570.0 0.00049047
15590.0 0.00048962
15610.0 0.00048876
15630.0 0.00048796
15650.0 0.00048715
15670.0 0.0004863
15690.0 0.00048549
15710.0 0.00048471
15730.0 0.00048388
15750.0 0.00048306
15770.0 0.00048227
15790.0 0.00048148
15810.0 0.00048063
15830.0 0.00047983
15850.0 0.00047906
15870.0 0.00047825
15890.0 0.00047744
15910.0 0.00047667
15930.0 0.00047588
15950.0 0.00047504
15970.0 0.00047425
15990.0 0.00047348
16010.0 0.00047266
16030.0 0.00047183
16050.0 0.00047107
16070.0 0.00047028
16090.0 0.00046946
16110.0 0.00046866
16130.0 0.00046789
16150.0 0.00046705
16170.0 0.00046623
16190.0 0.00046545
16210.0 0.00046464
16230.0 0.0004638
16250.0 0.000463
16270.0 0.00046222
16290.0 0.00046138
16310.0 0.00046055
16330.0 0.00045975
16350.0 0.00045893
16370.0 0.00045805
16390.0 0.00045724
16410.0 0.00045643
16430.0 0.00045557
16450.0 0.00045472
16470.0 0.00045392
16490.0 0.00045306
16510.0 0.00045218
16530.0 0.00045134
16550.0 0.0004505
16570.0 0.00044961
16590.0 0.00044873
16610.0 0.00044789
16630.0 0.00044701
16650.0 0.00044612
16670.0 0.00044526
16690.0 0.00044439
16710.0 0.00044346
16730.0 0.00044256
16750.0 0.00044168
16770.0 0.00044077
16790.0 0.00043983
16810.0 0.00043894
16830.0 0.00043804
16850.0 0.00043709
16870.0 0.00043616
16890.0 0.00043526
16910.0 0.0004343
16930.0 0.00043332
16950.0 0.0004324
16970.0 0.00043145
16990.0 0.00043047
17010.0 0.00042951
17030.0 0.00042857
17050.0 0.00042758
17070.0 0.00042658
17090.0 0.00042562
17110.0 0.00042464
17130.0 0.0004236
17150.0 0.0004226
17170.0 0.00042162
17190.0 0.0004206
17210.0 0.00041957
17230.0 0.00041858
17250.0 0.00041755
17270.0 0.00041648
17290.0 0.00041545
17310.0 0.00041443
17330.0 0.00041336
17350.0 0.00041228
17370.0 0.00041126
17390.0 0.0004102
17410.0 0.00040911
17430.0 0.00040805
17450.0 0.000407
17470.0 0.00040587
17490.0 0.00040477
17510.0 0.0004037
17530.0 0.0004026
17550.0 0.00040147
17570.0 0.00040038
17590.0 0.00039929
17610.0 0.00039815
17630.0 0.00039702
17650.0 0.00039592
17670.0 0.00039478
17690.0 0.00039359
17710.0 0.00039248
17730.0 0.00039135
17750.0 0.00039018
17770.0 0.00038902
17790.0 0.0003879
17810.0 0.00038672
17830.0 0.00038552
17850.0 0.00038437
17870.0 0.00038321
17890.0 0.00038199
17910.0 0.0003808
17930.0 0.00037965
17950.0 0.00037845
17970.0 0.00037723
17990.0 0.00037606
18010.0 0.00037487
18030.0 0.00037362
18050.0 0.00037241
18070.0 0.00037122
18090.0 0.00036999
18110.0 0.00036874
18130.0 0.00036754
18150.0 0.00036633
18170.0 0.00036508
18190.0 0.00036385
18210.0 0.00036264
18230.0 0.00036137
18250.0 0.0003601
18270.0 0.00035888
18290.0 0.00035764
18310.0 0.00035637
18330.0 0.00035512
18350.0 0.0003539
18370.0 0.00035262
18390.0 0.00035134
18410.0 0.0003501
18430.0 0.00034884
18450.0 0.00034753
18470.0 0.00034627
18490.0 0.00034503
18510.0 0.00034374
18530.0 0.00034245
18550.0 0.00034121
18570.0 0.00033993
18590.0 0.00033861
18610.0 0.00033734
18630.0 0.00033607
18650.0 0.00033477
18670.0 0.00033346
18690.0 0.00033221
18710.0 0.00033092
18730.0 0.00032961
18750.0 0.00032833
18770.0 0.00032707
18790.0 0.00032573
18810.0 0.00032442
18830.0 0.00032315
18850.0 0.00032185
18870.0 0.00032053
18890.0 0.00031925
18910.0 0.00031798
18930.0 0.00031665
18950.0 0.00031535
18970.0 0.00031407
18990.0 0.00031277
19010.0 0.00031142
19030.0 0.00031014
19050.0 0.00030886
19070.0 0.00030754
19090.0 0.00030623
19110.0 0.00030497
19130.0 0.00030365
19150.0 0.00030232
19170.0 0.00030104
19190.0 0.00029975
19210.0 0.00029841
19230.0 0.0002971
19250.0 0.00029584
19270.0 0.00029453
19290.0 0.00029321
19310.0 0.00029194
19330.0 0.00029065
19350.0 0.00028931
19370.0 0.00028801
19390.0 0.00028673
19410.0 0.00028542
19430.0 0.0002841
19450.0 0.00028284
19470.0 0.00028155
19490.0 0.00028023
19510.0 0.00027894
19530.0 0.00027768
19550.0 0.00027636
19570.0 0.00027504
19590.0 0.00027378
19610.0 0.00027249
19630.0 0.00027118
19650.0 0.0002699
19670.0 0.00026865
19690.0 0.00026734
19710.0 0.00026604
19730.0 0.00026478
19750.0 0.0002635
19770.0 0.00026217
19790.0 0.00026091
19810.0 0.00025965
19830.0 0.00025835
19850.0 0.00025705
19870.0 0.00025577
19890.0 0.0002544
19910.0 0.00025291
19930.0 0.00025132
19950.0 0.00024952
19970.0 0.00024732
19990.0 0.0002447
20010.0 0.00021889
20030.0 0.00021565
20050.0 0.00021188
20070.0 0.0002078
20090.0 0.00020343
20110.0 0.0001985
20130.0 0.00019351
20150.0 0.00018858
20170.0 0.00018347
20190.0 0.00017829
20210.0 0.00017341
20230.0 0.00016865
20250.0 0.00016388
20270.0 0.00015946
20290.0 0.00015542
20310.0 0.00015158
20330.0 0.00014798
20350.0 0.00014499
20370.0 0.00014233
20390.0 0.00013999
20410.0 0.00013809
20430.0 0.00013662
20450.0 0.00013543
20470.0 0.00013463
20490.0 0.00013417
20510.0 0.00013401
20530.0 0.00013413
20550.0 0.0001345
20570.0 0.00013506
20590.0 0.00013585
20610.0 0.00013681
20630.0 0.00013787
20650.0 0.00013907
20670.0 0.00014045
20690.0 0.00014186
20710.0 0.00014332
20730.0 0.00014489
20750.0 0.00014654
20770.0 0.00014816
20790.0 0.00014986
20810.0 0.00015165
20830.0 0.00015343
20850.0 0.00015522
20870.0 0.00015713
20890.0 0.00015907
20910.0 0.00016094
20930.0 0.00016288
20950.0 0.00016488
20970.0 0.00016683
20990.0 0.00016875
21010.0 0.00017077
21030.0 0.00017274
21050.0 0.00017462
21070.0 0.00017649
21090.0 0.00017837
21110.0 0.00018007
21130.0 0.00018168
21150.0 0.00018323
21170.0 0.00018463
21190.0 0.00018583
21210.0 0.00018691
21230.0 0.0001878
21250.0 0.00018843
21270.0 0.00018883
21290.0 0.00018896
21310.0 0.00018879
21330.0 0.00018833
21350.0 0.00018754
21370.0 0.00018638
21390.0 0.00018492
21410.0 0.00018313
21430.0 0.00018087
21450.0 0.00017833
21470.0 0.00017557
21490.0 0.00017245
21510.0 0.00016903
21530.0 0.00016555
21550.0 0.00016191
21570.0 0.00015802
21590.0 0.0001542
21610.0 0.00015051
21630.0 0.00014682
21650.0 0.00014321
21670.0 0.00014007
21690.0 0.00013718
21710.0 0.00013458
21730.0 0.00013244
21750.0 0.00013078
21770.0 0.00012952
21790.0 0.00012878
21810.0 0.00012855
21830.0 0.0001288
21850.0 0.00012957
21870.0 0.00013078
21890.0 0.00013235
21910.0 0.00013438
21930.0 0.00013676
21950.0 0.00013934
21970.0 0.0001422
21990.0 0.00014541
22010.0 0.00014863
22030.0 0.00015189
22050.0 0.00015533
22070.0 0.00015878
22090.0 0.00016205
22110.0 0.00016535
22130.0 0.00016864
22150.0 0.00017172
22170.0 0.00017462
22190.0 0.0001775
22210.0 0.00018018
22230.0 0.00018253
22250.0 0.00018475
22270.0 0.00018679
22290.0 0.00018853
22310.0 0.00019002
22330.0 0.00019134
22350.0 0.00019235
22370.0 0.00019305
22390.0 0.00019349
22410.0 0.00019362
22430.0 0.00019342
22450.0 0.00019291
22470.0 0.00019204
22490.0 0.00019082
22510.0 0.00018931
22530.0 0.00018738
22550.0 0.00018504
22570.0 0.00018244
22590.0 0.00017951
22610.0 0.00017615
22630.0 0.00017251
22650.0 0.00016875
22670.0 0.00016459
22690.0 0.00016015
22710.0 0.00015567
22730.0 0.00015106
22750.0 0.00014606
22770.0 0.00014117
22790.0 0.0001364
22810.0 0.00013151
22830.0 0.00012662
22850.0 0.00012205
22870.0 0.00011757
22890.0 0.00011311
22910.0 0.000109
22930.0 0.00010524
22950.0 0.00010165
22970.0 9.8329e-05
22990.0 9.5575e-05
