#lamb flux
1010.0 7.441e-06
1030.0 7.922e-06
1050.0 8.4776e-06
1070.0 9.1038e-06
1090.0 9.8156e-06
1110.0 1.0547e-05
1130.0 1.1286e-05
1150.0 1.2061e-05
1170.0 1.2864e-05
1190.0 1.3628e-05
1210.0 1.4405e-05
1230.0 1.5211e-05
1250.0 1.6005e-05
1270.0 1.678e-05
1290.0 1.7601e-05
1310.0 1.8426e-05
1330.0 1.9223e-05
1350.0 2.0033e-05
1370.0 2.0873e-05
1390.0 2.1698e-05
1410.0 2.2505e-05
1430.0 2.3351e-05
1450.0 2.4203e-05
1470.0 2.5033e-05
1490.0 2.5877e-05
1510.0 2.677e-05
1530.0 2.7623e-05
1550.0 2.847e-05
1570.0 2.9347e-05
1590.0 3.0229e-05
1610.0 3.1075e-05
1630.0 3.1948e-05
1650.0 3.2842e-05
1670.0 3.3708e-05
1690.0 3.4562e-05
1710.0 3.5443e-05
1730.0 3.6324e-05
1750.0 3.715e-05
1770.0 3.7991e-05
1790.0 3.884e-05
1810.0 3.9652e-05
1830.0 4.0439e-05
1850.0 4.126e-05
1870.0 4.2046e-05
1890.0 4.2789e-05
1910.0 4.353e-05
1930.0 4.4273e-05
1950.0 4.4961e-05
1970.0 4.5619e-05
1990.0 4.6288e-05
2010.0 4.6924e-05
2030.0 4.7512e-05
2050.0 4.8104e-05
2070.0 4.8697e-05
2090.0 4.9226e-05
2110.0 4.9737e-05
2130.0 5.0255e-05
2150.0 5.0744e-05
2170.0 5.1188e-05
2190.0 5.165e-05
2210.0 5.2107e-05
2230.0 5.2529e-05
2250.0 5.2944e-05
2270.0 5.3389e-05
2290.0 5.3812e-05
2310.0 5.4209e-05
2330.0 5.4633e-05
2350.0 5.5072e-05
2370.0 5.5491e-05
2390.0 5.593e-05
2410.0 5.6417e-05
2430.0 5.6899e-05
2450.0 5.7389e-05
2470.0 5.7931e-05
2490.0 5.8547e-05
2510.0 5.9248e-05
2530.0 6.0237e-05
2550.0 6.1841e-05
2570.0 6.4427e-05
2590.0 6.8433e-05
2610.0 7.4957e-05
2630.0 8.4355e-05
2650.0 9.6221e-05
2670.0 0.00011075
2690.0 0.00012753
2710.0 0.00014441
2730.0 0.00016036
2750.0 0.00017562
2770.0 0.00018893
2790.0 0.0002001
2810.0 0.00021008
2830.0 0.00021963
2850.0 0.00022834
2870.0 0.000237
2890.0 0.00024619
2910.0 0.00025571
2930.0 0.00026528
2950.0 0.00027554
2970.0 0.0002864
2990.0 0.00029736
3010.0 0.0010522
3030.0 0.0010924
3050.0 0.0011323
3070.0 0.0011684
3090.0 0.001199
3110.0 0.0012156
3130.0 0.0012084
3150.0 0.0011666
3170.0 0.0010688
3190.0 0.00091296
3210.0 0.0007021
3230.0 0.00046546
3250.0 0.00071358
3270.0 0.00044625
3290.0 0.0010272
3310.0 0.00040494
3330.0 0.00040087
3350.0 0.0004801
3370.0 0.00057487
3390.0 0.00067849
3410.0 0.00078232
3430.0 0.00089175
3450.0 0.0010022
3470.0 0.0011041
3490.0 0.0011754
3510.0 0.0014115
3530.0 0.0018277
3550.0 0.0017805
3570.0 0.0014682
3590.0 0.0019874
3610.0 0.0012862
3630.0 0.0020945
3650.0 0.0024397
3670.0 0.0031022
3690.0 0.0028803
3710.0 0.0019287
3730.0 0.0024892
3750.0 0.0025488
3770.0 0.0027356
3790.0 0.0026545
3810.0 0.0027327
3830.0 0.0042949
3850.0 0.005272
3870.0 0.0065012
3890.0 0.0063181
3910.0 0.0056469
3930.0 0.0057196
3950.0 0.0061781
3970.0 0.0068121
3990.0 0.0043679
4010.0 0.0023644
4030.0 0.0042045
4050.0 0.0055614
4070.0 0.0059496
4090.0 0.0041615
4110.0 0.0026341
4130.0 0.0043323
4150.0 0.004423
4170.0 0.004117
4190.0 0.0037358
4210.0 0.0052876
4230.0 0.0038955
4250.0 0.0042206
4270.0 0.004193
4290.0 0.0039726
4310.0 0.0050925
4330.0 0.0055028
4350.0 0.0045849
4370.0 0.0038705
4390.0 0.0047172
4410.0 0.0048312
4430.0 0.0035522
4450.0 0.0032231
4470.0 0.0039833
4490.0 0.0030476
4510.0 0.004254
4530.0 0.0044211
4550.0 0.0052467
4570.0 0.0073967
4590.0 0.0073149
4610.0 0.0057998
4630.0 0.0092561
4650.0 0.012335
4670.0 0.011763
4690.0 0.0083183
4710.0 0.008821
4730.0 0.0099917
4750.0 0.0082312
4770.0 0.0062926
4790.0 0.0042469
4810.0 0.0057968
4830.0 0.0068272
4850.0 0.006001
4870.0 0.0025227
4890.0 0.0068097
4910.0 0.0089279
4930.0 0.0097033
4950.0 0.0099985
4970.0 0.0070233
4990.0 0.0081733
5010.0 0.0094932
5030.0 0.010176
5050.0 0.0094994
5070.0 0.0067174
5090.0 0.0054501
5110.0 0.0052687
5130.0 0.005006
5150.0 0.0052144
5170.0 0.0046529
5190.0 0.0055474
5210.0 0.0056301
5230.0 0.0062302
5250.0 0.0073905
5270.0 0.0061213
5290.0 0.0063595
5310.0 0.0093379
5330.0 0.010724
5350.0 0.0089907
5370.0 0.0080752
5390.0 0.0093594
5410.0 0.011157
5430.0 0.011873
5450.0 0.012476
5470.0 0.012546
5490.0 0.012906
5510.0 0.015431
5530.0 0.016011
5550.0 0.016886
5570.0 0.01771
5590.0 0.017386
5610.0 0.016259
5630.0 0.015854
5650.0 0.016377
5670.0 0.015983
5690.0 0.013667
5710.0 0.013503
5730.0 0.013507
5750.0 0.014028
5770.0 0.012067
5790.0 0.011497
5810.0 0.011763
5830.0 0.012679
5850.0 0.01179
5870.0 0.011831
5890.0 0.013779
5910.0 0.012839
5930.0 0.010589
5950.0 0.0095526
5970.0 0.010397
5990.0 0.0094277
6010.0 0.0086123
6030.0 0.0084456
6050.0 0.0077352
6070.0 0.0059936
6090.0 0.0057
6110.0 0.0073126
6130.0 0.0082061
6150.0 0.0084761
6170.0 0.0082432
6190.0 0.0078621
6210.0 0.0081977
6230.0 0.0099481
6250.0 0.0091921
6270.0 0.0082646
6290.0 0.0075126
6310.0 0.0068046
6330.0 0.0063123
6350.0 0.0056417
6370.0 0.0057182
6390.0 0.0066538
6410.0 0.0082617
6430.0 0.0097657
6450.0 0.0098032
6470.0 0.0099126
6490.0 0.012106
6510.0 0.013899
6530.0 0.013208
6550.0 0.012532
6570.0 0.012712
6590.0 0.012529
6610.0 0.013261
6630.0 0.012367
6650.0 0.010745
6670.0 0.0099116
6690.0 0.0098258
6710.0 0.011631
6730.0 0.010356
6750.0 0.0085178
6770.0 0.0076891
6790.0 0.008169
6810.0 0.0093812
6830.0 0.0093374
6850.0 0.0083745
6870.0 0.0086738
6890.0 0.0086204
6910.0 0.0081014
6930.0 0.0089946
6950.0 0.008367
6970.0 0.0077944
6990.0 0.00777
7010.0 0.0078269
7030.0 0.0076026
7050.0 0.0072797
7070.0 0.0078078
7090.0 0.0072722
7110.0 0.0061659
7130.0 0.0052961
7150.0 0.0052009
7170.0 0.0065667
7190.0 0.0069619
7210.0 0.0066012
7230.0 0.0069424
7250.0 0.0067429
7270.0 0.0065774
7290.0 0.0071253
7310.0 0.0078106
7330.0 0.00761
7350.0 0.0070603
7370.0 0.0065313
7390.0 0.0065508
7410.0 0.0075268
7430.0 0.0084748
7450.0 0.009023
7470.0 0.0091522
7490.0 0.010181
7510.0 0.010065
7530.0 0.0091228
7550.0 0.0086447
7570.0 0.0074781
7590.0 0.0071266
7610.0 0.0068904
7630.0 0.0063535
7650.0 0.006832
7670.0 0.0075762
7690.0 0.0082561
7710.0 0.0094296
7730.0 0.0098998
7750.0 0.010296
7770.0 0.010712
7790.0 0.011631
7810.0 0.011727
7830.0 0.010534
7850.0 0.010587
7870.0 0.010203
7890.0 0.010457
7910.0 0.0098576
7930.0 0.0097947
7950.0 0.0082322
7970.0 0.0082663
7990.0 0.0079957
8010.0 0.0086943
8030.0 0.0086646
8050.0 0.0092109
8070.0 0.0088432
8090.0 0.0088858
8110.0 0.0087538
8130.0 0.0086592
8150.0 0.0081351
8170.0 0.0079848
8190.0 0.0079675
8210.0 0.0080484
8230.0 0.0070429
8250.0 0.0064418
8270.0 0.0056954
8290.0 0.0048443
8310.0 0.004269
8330.0 0.0033828
8350.0 0.0027398
8370.0 0.0026462
8390.0 0.0025664
8410.0 0.0026868
8430.0 0.0034571
8450.0 0.0037663
8470.0 0.004055
8490.0 0.0047469
8510.0 0.0051674
8530.0 0.0058778
8550.0 0.0069552
8570.0 0.0076423
8590.0 0.0080401
8610.0 0.0089325
8630.0 0.010165
8650.0 0.010431
8670.0 0.010651
8690.0 0.011056
8710.0 0.010844
8730.0 0.010504
8750.0 0.0096819
8770.0 0.0096872
8790.0 0.0095521
8810.0 0.0087865
8830.0 0.0087992
8850.0 0.0080605
8870.0 0.0076874
8890.0 0.0068887
8910.0 0.0076805
8930.0 0.0069487
8950.0 0.0069682
8970.0 0.007117
8990.0 0.0069131
9010.0 0.0071007
9030.0 0.0067405
9050.0 0.0067079
9070.0 0.0067108
9090.0 0.0067124
9110.0 0.0067184
9130.0 0.0067181
9150.0 0.0067143
9170.0 0.0066922
9190.0 0.0066432
9210.0 0.0067483
9230.0 0.0067185
9250.0 0.0067014
9270.0 0.0066869
9290.0 0.006674
9310.0 0.006662
9330.0 0.0066503
9350.0 0.0066386
9370.0 0.0066266
9390.0 0.0066139
9410.0 0.0066008
9430.0 0.0065874
9450.0 0.0065732
9470.0 0.0065585
9490.0 0.0065436
9510.0 0.0065282
9530.0 0.0065123
9550.0 0.0064965
9570.0 0.0064804
9590.0 0.0064639
9610.0 0.0064472
9630.0 0.0064307
9650.0 0.0064139
9670.0 0.0063968
9690.0 0.0063799
9710.0 0.0063632
9730.0 0.0063461
9750.0 0.0063292
9770.0 0.0063129
9790.0 0.0062963
9810.0 0.0062797
9830.0 0.0062636
9850.0 0.0062478
9870.0 0.0062318
9890.0 0.0062161
9910.0 0.0062011
9930.0 0.006186
9950.0 0.0061614
9970.0 0.0061502
9990.0 0.0061389
10010.0 0.0061269
10030.0 0.0061148
10050.0 0.0061005
10070.0 0.0060744
10090.0 0.0060672
10110.0 0.0060598
10130.0 0.0060515
10150.0 0.0060428
10170.0 0.0060335
10190.0 0.0060238
10210.0 0.0060146
10230.0 0.006006
10250.0 0.0059972
10270.0 0.0059889
10290.0 0.0059814
10310.0 0.005974
10330.0 0.0059667
10350.0 0.0059604
10370.0 0.0059545
10390.0 0.0059487
10410.0 0.0059434
10430.0 0.005939
10450.0 0.0059346
10470.0 0.0059305
10490.0 0.0059271
10510.0 0.0059241
10530.0 0.0059211
10550.0 0.0059187
10570.0 0.005917
10590.0 0.0059154
10610.0 0.0059141
10630.0 0.0059134
10650.0 0.0059131
10670.0 0.0059128
10690.0 0.0059131
10710.0 0.0059138
10730.0 0.0059147
10750.0 0.0059157
10770.0 0.0059175
10790.0 0.0059194
10810.0 0.0059214
10830.0 0.0059236
10850.0 0.0059257
10870.0 0.0059266
10890.0 0.0059253
10910.0 0.0059203
10930.0 0.0059085
10950.0 0.0058848
10970.0 0.0058468
10990.0 0.0057932
11010.0 0.0058936
11030.0 0.0057908
11050.0 0.00567
11070.0 0.0055301
11090.0 0.0053679
11110.0 0.0052061
11130.0 0.0050443
11150.0 0.0048786
11170.0 0.0047175
11190.0 0.0045709
11210.0 0.0044295
11230.0 0.004295
11250.0 0.0041759
11270.0 0.0040695
11290.0 0.0039701
11310.0 0.0038815
11330.0 0.003807
11350.0 0.003738
11370.0 0.0036739
11390.0 0.0036163
11410.0 0.003562
11430.0 0.0035056
11450.0 0.0034497
11470.0 0.003394
11490.0 0.0033345
11510.0 0.0032699
11530.0 0.0032048
11550.0 0.0031373
11570.0 0.0030641
11590.0 0.0029892
11610.0 0.0029151
11630.0 0.0028371
11650.0 0.0027565
11670.0 0.00268
11690.0 0.0026044
11710.0 0.0025275
11730.0 0.0024535
11750.0 0.0023848
11770.0 0.0023158
11790.0 0.0022487
11810.0 0.0021867
11830.0 0.0021275
11850.0 0.0020679
11870.0 0.0020128
11890.0 0.0019619
11910.0 0.0019113
11930.0 0.001862
11950.0 0.0018162
11970.0 0.0017714
11990.0 0.0017257
12010.0 0.0016825
12030.0 0.0016413
12050.0 0.0016
12070.0 0.0015592
12090.0 0.0015227
12110.0 0.0014875
12130.0 0.0014538
12150.0 0.001424
12170.0 0.0013985
12190.0 0.0013756
12210.0 0.0013578
12230.0 0.0013462
12250.0 0.00134
12270.0 0.00134
12290.0 0.0013467
12310.0 0.0013595
12330.0 0.0013791
12350.0 0.001405
12370.0 0.0014353
12390.0 0.0014705
12410.0 0.0015113
12430.0 0.0015527
12450.0 0.0015949
12470.0 0.0016386
12490.0 0.0016815
12510.0 0.0017208
12530.0 0.0017588
12550.0 0.0017942
12570.0 0.0018249
12590.0 0.0018515
12610.0 0.0018749
12630.0 0.0018939
12650.0 0.0019083
12670.0 0.0019194
12690.0 0.0019271
12710.0 0.0019314
12730.0 0.001933
12750.0 0.0019317
12770.0 0.0019279
12790.0 0.0019223
12810.0 0.0019144
12830.0 0.0019039
12850.0 0.0018922
12870.0 0.0018786
12890.0 0.0018622
12910.0 0.0018438
12930.0 0.001824
12950.0 0.0018009
12970.0 0.0017746
12990.0 0.0017476
13010.0 0.0017183
13030.0 0.0016858
13050.0 0.0016523
13070.0 0.0016189
13090.0 0.0015832
13110.0 0.001547
13130.0 0.0015126
13150.0 0.0014791
13170.0 0.0014456
13190.0 0.0014158
13210.0 0.0013899
13230.0 0.0013665
13250.0 0.0013467
13270.0 0.0013316
13290.0 0.0013202
13310.0 0.0013122
13330.0 0.001308
13350.0 0.0013069
13370.0 0.0013081
13390.0 0.001311
13410.0 0.0013146
13430.0 0.0013183
13450.0 0.0013213
13470.0 0.001323
13490.0 0.0013229
13510.0 0.0013205
13530.0 0.0013157
13550.0 0.001309
13570.0 0.0013
13590.0 0.001289
13610.0 0.0012769
13630.0 0.0012644
13650.0 0.0012509
13670.0 0.0012375
13690.0 0.0012249
13710.0 0.0012128
13730.0 0.0012009
13750.0 0.0011907
13770.0 0.0011813
13790.0 0.0011724
13810.0 0.0011641
13830.0 0.0011565
13850.0 0.0011487
13870.0 0.0011406
13890.0 0.0011325
13910.0 0.001124
13930.0 0.0011146
13950.0 0.0011048
13970.0 0.001095
13990.0 0.0010847
14010.0 0.001074
14030.0 0.0010639
14050.0 0.0010541
14070.0 0.0010445
14090.0 0.0010359
14110.0 0.0010284
14130.0 0.0010218
14150.0 0.0010162
14170.0 0.0010119
14190.0 0.0010087
14210.0 0.0010065
14230.0 0.0010054
14250.0 0.0010052
14270.0 0.0010062
14290.0 0.0010084
14310.0 0.0010113
14330.0 0.0010153
14350.0 0.0010203
14370.0 0.0010261
14390.0 0.0010323
14410.0 0.0010394
14430.0 0.0010469
14450.0 0.0010544
14470.0 0.001062
14490.0 0.00107
14510.0 0.0010776
14530.0 0.0010847
14550.0 0.0010922
14570.0 0.0010999
14590.0 0.0011074
14610.0 0.0011156
14630.0 0.0011251
14650.0 0.0011352
14670.0 0.0011465
14690.0 0.0011598
14710.0 0.0011752
14730.0 0.0011913
14750.0 0.0012096
14770.0 0.0012304
14790.0 0.0012521
14810.0 0.0012746
14830.0 0.0012999
14850.0 0.0013254
14870.0 0.00135
14890.0 0.0013745
14910.0 0.0013986
14930.0 0.0014196
14950.0 0.0014375
14970.0 0.0014529
14990.0 0.001464
15010.0 0.0014706
15030.0 0.0014736
15050.0 0.0014734
15070.0 0.0014701
15090.0 0.0014651
15110.0 0.0014588
15130.0 0.0014517
15150.0 0.0014443
15170.0 0.0014367
15190.0 0.0014289
15210.0 0.0014211
15230.0 0.0014134
15250.0 0.0014056
15270.0 0.0013978
15290.0 0.0013902
15310.0 0.0013825
15330.0 0.0013748
15350.0 0.0013672
15370.0 0.0013596
15390.0 0.0013519
15410.0 0.0013443
15430.0 0.0013368
15450.0 0.0013292
15470.0 0.0013217
15490.0 0.0013143
15510.0 0.0013069
15530.0 0.0012994
15550.0 0.001292
15570.0 0.0012848
15590.0 0.0012774
15610.0 0.00127
15630.0 0.0012628
15650.0 0.0012557
15670.0 0.0012484
15690.0 0.0012413
15710.0 0.0012343
15730.0 0.0012272
15750.0 0.0012201
15770.0 0.0012132
15790.0 0.0012063
15810.0 0.0011992
15830.0 0.0011924
15850.0 0.0011856
15870.0 0.0011788
15890.0 0.001172
15910.0 0.0011654
15930.0 0.0011587
15950.0 0.001152
15970.0 0.0011455
15990.0 0.001139
16010.0 0.0011324
16030.0 0.0011259
16050.0 0.0011196
16070.0 0.0011132
16090.0 0.0011068
16110.0 0.0011005
16130.0 0.0010944
16150.0 0.0010881
16170.0 0.0010818
16190.0 0.0010758
16210.0 0.0010697
16230.0 0.0010636
16250.0 0.0010576
16270.0 0.0010517
16290.0 0.0010457
16310.0 0.0010398
16330.0 0.0010341
16350.0 0.0010283
16370.0 0.0010224
16390.0 0.0010167
16410.0 0.0010111
16430.0 0.0010054
16450.0 0.00099976
16470.0 0.00099429
16490.0 0.00098873
16510.0 0.00098318
16530.0 0.00097776
16550.0 0.00097239
16570.0 0.00096693
16590.0 0.00096155
16610.0 0.00095634
16630.0 0.00095107
16650.0 0.00094579
16670.0 0.00094065
16690.0 0.00093554
16710.0 0.00093031
16730.0 0.00092521
16750.0 0.00092022
16770.0 0.00091517
16790.0 0.00091011
16810.0 0.00090523
16830.0 0.00090035
16850.0 0.0008954
16870.0 0.00089054
16890.0 0.00088579
16910.0 0.00088095
16930.0 0.0008761
16950.0 0.00087143
16970.0 0.00086676
16990.0 0.00086203
17010.0 0.0008574
17030.0 0.00085287
17050.0 0.00084824
17070.0 0.00084364
17090.0 0.00083917
17110.0 0.00083469
17130.0 0.00083012
17150.0 0.00082569
17170.0 0.00082134
17190.0 0.00081692
17210.0 0.00081253
17230.0 0.00080827
17250.0 0.00080397
17270.0 0.0007996
17290.0 0.00079535
17310.0 0.00079117
17330.0 0.00078691
17350.0 0.00078266
17370.0 0.00077859
17390.0 0.00077447
17410.0 0.0007703
17430.0 0.00076624
17450.0 0.00076224
17470.0 0.0007581
17490.0 0.00075404
17510.0 0.0007501
17530.0 0.00074612
17550.0 0.0007421
17570.0 0.0007382
17590.0 0.00073436
17610.0 0.0007304
17630.0 0.00072651
17650.0 0.00072272
17670.0 0.00071889
17690.0 0.00071495
17710.0 0.00071122
17730.0 0.00070749
17750.0 0.00070369
17770.0 0.00069994
17790.0 0.00069632
17810.0 0.00069259
17830.0 0.00068885
17850.0 0.00068523
17870.0 0.00068162
17890.0 0.00067792
17910.0 0.00067429
17930.0 0.00067079
17950.0 0.0006672
17970.0 0.00066361
17990.0 0.00066013
18010.0 0.00065665
18030.0 0.00065304
18050.0 0.00064956
18070.0 0.00064615
18090.0 0.00064267
18110.0 0.00063917
18130.0 0.00063582
18150.0 0.00063245
18170.0 0.000629
18190.0 0.00062564
18210.0 0.00062235
18230.0 0.00061896
18250.0 0.00061555
18270.0 0.00061231
18290.0 0.00060903
18310.0 0.0006057
18330.0 0.00060245
18350.0 0.00059928
18370.0 0.00059599
18390.0 0.00059273
18410.0 0.00058958
18430.0 0.0005864
18450.0 0.00058312
18470.0 0.00057998
18490.0 0.0005769
18510.0 0.00057373
18530.0 0.00057058
18550.0 0.00056755
18570.0 0.00056445
18590.0 0.00056129
18610.0 0.00055824
18630.0 0.00055524
18650.0 0.00055215
18670.0 0.00054907
18690.0 0.00054614
18710.0 0.00054315
18730.0 0.00054011
18750.0 0.00053717
18770.0 0.00053427
18790.0 0.00053122
18810.0 0.00052826
18830.0 0.00052539
18850.0 0.00052248
18870.0 0.00051952
18890.0 0.00051668
18910.0 0.00051386
18930.0 0.00051094
18950.0 0.00050807
18970.0 0.0005053
18990.0 0.00050246
19010.0 0.00049953
19030.0 0.00049679
19050.0 0.00049404
19070.0 0.00049122
19090.0 0.00048844
19110.0 0.00048578
19130.0 0.00048299
19150.0 0.0004802
19170.0 0.00047751
19190.0 0.00047483
19210.0 0.00047206
19230.0 0.00046935
19250.0 0.00046675
19270.0 0.00046407
19290.0 0.00046137
19310.0 0.00045878
19330.0 0.00045618
19350.0 0.00045346
19370.0 0.00045085
19390.0 0.0004483
19410.0 0.00044567
19430.0 0.00044304
19450.0 0.00044053
19470.0 0.00043799
19490.0 0.00043539
19510.0 0.00043285
19530.0 0.00043038
19550.0 0.0004278
19570.0 0.00042522
19590.0 0.00042278
19610.0 0.0004203
19630.0 0.00041776
19650.0 0.0004153
19670.0 0.00041291
19690.0 0.00041039
19710.0 0.00040791
19730.0 0.00040552
19750.0 0.0004031
19770.0 0.00040058
19790.0 0.00039819
19810.0 0.00039584
19830.0 0.0003934
19850.0 0.00039095
19870.0 0.00038857
19890.0 0.00038601
19910.0 0.0003832
19930.0 0.00038023
19950.0 0.00037687
19970.0 0.00037277
19990.0 0.00036794
20010.0 0.00036258
20030.0 0.00035625
20050.0 0.00034907
20070.0 0.00034159
20090.0 0.00033386
20110.0 0.0003255
20130.0 0.00031748
20150.0 0.00030995
20170.0 0.00030253
20190.0 0.00029542
20210.0 0.00028906
20230.0 0.00028317
20250.0 0.00027758
20270.0 0.00027267
20290.0 0.00026846
20310.0 0.00026471
20330.0 0.00026148
20350.0 0.00025909
20370.0 0.00025726
20390.0 0.00025602
20410.0 0.00025547
20430.0 0.00025555
20450.0 0.00025628
20470.0 0.0002577
20490.0 0.00025971
20510.0 0.00026233
20530.0 0.00026566
20550.0 0.00026949
20570.0 0.00027365
20590.0 0.0002784
20610.0 0.00028353
20630.0 0.00028874
20650.0 0.00029417
20670.0 0.00029994
20690.0 0.00030543
20710.0 0.0003107
20730.0 0.00031592
20750.0 0.00032086
20770.0 0.00032524
20790.0 0.00032933
20810.0 0.00033313
20830.0 0.00033642
20850.0 0.0003393
20870.0 0.00034195
20890.0 0.00034429
20910.0 0.00034627
20930.0 0.0003481
20950.0 0.00034979
20970.0 0.00035128
20990.0 0.00035262
21010.0 0.00035389
21030.0 0.00035499
21050.0 0.00035588
21070.0 0.00035659
21090.0 0.00035707
21110.0 0.00035727
21130.0 0.00035721
21150.0 0.00035685
21170.0 0.00035622
21190.0 0.00035535
21210.0 0.00035421
21230.0 0.0003528
21250.0 0.00035127
21270.0 0.00034962
21290.0 0.00034779
21310.0 0.00034593
21330.0 0.00034413
21350.0 0.00034229
21370.0 0.00034049
21390.0 0.00033883
21410.0 0.00033729
21430.0 0.00033581
21450.0 0.00033455
21470.0 0.00033351
21490.0 0.00033261
21510.0 0.00033191
21530.0 0.00033145
21550.0 0.00033117
21570.0 0.00033111
21590.0 0.00033127
21610.0 0.00033164
21630.0 0.00033224
21650.0 0.00033311
21670.0 0.00033416
21690.0 0.00033545
21710.0 0.00033703
21730.0 0.00033883
21750.0 0.00034081
21770.0 0.00034317
21790.0 0.00034579
21810.0 0.00034857
21830.0 0.00035162
21850.0 0.00035503
21870.0 0.00035859
21890.0 0.00036225
21910.0 0.00036625
21930.0 0.00037043
21950.0 0.0003746
21970.0 0.00037894
21990.0 0.00038357
22010.0 0.00038801
22030.0 0.00039238
22050.0 0.00039682
22070.0 0.00040114
22090.0 0.0004051
22110.0 0.00040893
22130.0 0.00041257
22150.0 0.00041576
22170.0 0.00041853
22190.0 0.00042096
22210.0 0.00042285
22230.0 0.00042412
22250.0 0.00042485
22270.0 0.00042496
22290.0 0.00042444
22310.0 0.00042331
22330.0 0.00042142
22350.0 0.00041888
22370.0 0.00041579
22390.0 0.000412
22410.0 0.00040745
22430.0 0.00040255
22450.0 0.00039719
22470.0 0.00039116
22490.0 0.00038478
22510.0 0.00037829
22530.0 0.00037125
22550.0 0.00036385
22570.0 0.00035661
22590.0 0.0003493
22610.0 0.00034171
22630.0 0.00033426
22650.0 0.0003272
22670.0 0.00032001
22690.0 0.00031293
22710.0 0.00030631
22730.0 0.00029994
22750.0 0.00029349
22770.0 0.00028761
22790.0 0.00028221
22810.0 0.00027697
22830.0 0.00027205
22850.0 0.0002677
22870.0 0.00026366
22890.0 0.00025987
22910.0 0.0002566
22930.0 0.00025379
22950.0 0.00025132
22970.0 0.00024926
22990.0 0.00024776
23010.0 0.00024667
23030.0 0.000246
23050.0 0.0002458
23070.0 0.00024602
23090.0 0.00024669
23110.0 0.00024778
23130.0 0.0002492
23150.0 0.00025097
23170.0 0.00025311
23190.0 0.00025544
23210.0 0.00025789
23230.0 0.00026059
23250.0 0.00026338
23270.0 0.0002661
23290.0 0.00026885
23310.0 0.00027166
23330.0 0.00027421
23350.0 0.00027657
23370.0 0.00027882
23390.0 0.00028083
