#lamb flux
1010.0 8.3455e-05
1030.0 8.3455e-05
1050.0 8.3455e-05
1070.0 8.3455e-05
1090.0 8.3455e-05
1110.0 8.3455e-05
1130.0 8.3455e-05
1150.0 8.3455e-05
1170.0 8.3455e-05
1190.0 8.3455e-05
1210.0 8.3455e-05
1230.0 8.3455e-05
1250.0 8.3455e-05
1270.0 8.3455e-05
1290.0 8.3455e-05
1310.0 8.3455e-05
1330.0 8.3455e-05
1350.0 8.3455e-05
1370.0 8.3455e-05
1390.0 8.3455e-05
1410.0 8.3455e-05
1430.0 8.3455e-05
1450.0 9.2547e-05
1470.0 0.00010518
1490.0 0.0001194
1510.0 0.00013549
1530.0 0.00015297
1550.0 0.0001721
1570.0 0.00019325
1590.0 0.00021643
1610.0 0.00024132
1630.0 0.00026824
1650.0 0.00029779
1670.0 0.00032965
1690.0 0.00036406
1710.0 0.00040165
1730.0 0.00044227
1750.0 0.00048514
1770.0 0.00053126
1790.0 0.00058054
1810.0 0.00063213
1830.0 0.00068598
1850.0 0.00074302
1870.0 0.00080163
1890.0 0.00086118
1910.0 0.0009221
1930.0 0.00098405
1950.0 0.001045
1970.0 0.0011051
1990.0 0.0011647
2010.0 0.0012221
2030.0 0.0012762
2050.0 0.0013279
2070.0 0.0013768
2090.0 0.0014203
2110.0 0.0014594
2130.0 0.0014946
2150.0 0.0015245
2170.0 0.0015484
2190.0 0.0015683
2210.0 0.0015835
2230.0 0.0015929
2250.0 0.0015978
2270.0 0.0015994
2290.0 0.0015963
2310.0 0.0015887
2330.0 0.0015787
2350.0 0.001566
2370.0 0.0015501
2390.0 0.0015325
2410.0 0.0015146
2430.0 0.0014951
2450.0 0.0014749
2470.0 0.0014557
2490.0 0.0014379
2510.0 0.0014213
2530.0 0.0014101
2550.0 0.0014097
2570.0 0.0014249
2590.0 0.0014619
2610.0 0.0015374
2630.0 0.0016549
2650.0 0.0018077
2670.0 0.0020008
2690.0 0.0022323
2710.0 0.0024752
2730.0 0.0027193
2750.0 0.0029778
2770.0 0.0032342
2790.0 0.0034818
2810.0 0.0037374
2830.0 0.0040158
2850.0 0.0042906
2870.0 0.0045765
2890.0 0.0048876
2910.0 0.0052143
2930.0 0.0055447
2950.0 0.0059028
2970.0 0.0062859
2990.0 0.0066775
3010.0 0.0070852
3030.0 0.0075235
3050.0 0.007978
3070.0 0.0084235
3090.0 0.0088763
3110.0 0.0093115
3130.0 0.0096934
3150.0 0.010006
3170.0 0.010228
3190.0 0.01033
3210.0 0.010291
3230.0 0.010156
3250.0 0.010105
3270.0 0.010242
3290.0 0.010512
3310.0 0.010848
3330.0 0.011263
3350.0 0.01173
3370.0 0.012257
3390.0 0.012871
3410.0 0.013454
3430.0 0.014364
3450.0 0.01509
3470.0 0.015851
3490.0 0.016495
3510.0 0.017278
3530.0 0.019867
3550.0 0.023485
3570.0 0.025694
3590.0 0.02666
3610.0 0.026759
3630.0 0.025938
3650.0 0.028031
3670.0 0.03334
3690.0 0.037541
3710.0 0.039773
3730.0 0.041633
3750.0 0.043677
3770.0 0.043319
3790.0 0.041035
3810.0 0.038423
3830.0 0.035795
3850.0 0.035544
3870.0 0.038476
3890.0 0.041523
3910.0 0.043625
3930.0 0.044956
3950.0 0.048909
3970.0 0.052589
3990.0 0.050256
4010.0 0.044214
4030.0 0.038729
4050.0 0.037085
4070.0 0.038022
4090.0 0.038033
4110.0 0.037193
4130.0 0.036577
4150.0 0.036956
4170.0 0.040269
4190.0 0.044221
4210.0 0.043725
4230.0 0.041362
4250.0 0.040319
4270.0 0.040292
4290.0 0.042017
4310.0 0.043861
4330.0 0.041758
4350.0 0.036228
4370.0 0.031717
4390.0 0.028504
4410.0 0.025771
4430.0 0.025619
4450.0 0.027807
4470.0 0.029736
4490.0 0.032298
4510.0 0.036954
4530.0 0.046749
4550.0 0.059401
4570.0 0.066974
4590.0 0.071398
4610.0 0.078416
4630.0 0.083455
4650.0 0.078062
4670.0 0.064002
4690.0 0.052371
4710.0 0.047613
4730.0 0.046215
4750.0 0.042606
4770.0 0.039512
4790.0 0.041514
4810.0 0.045394
4830.0 0.045841
4850.0 0.042837
4870.0 0.041565
4890.0 0.044338
4910.0 0.047166
4930.0 0.047517
4950.0 0.045881
4970.0 0.043007
4990.0 0.038879
5010.0 0.035199
5030.0 0.033058
5050.0 0.032072
5070.0 0.031281
5090.0 0.030357
5110.0 0.030092
5130.0 0.030275
5150.0 0.031693
5170.0 0.035222
5190.0 0.039712
5210.0 0.044821
5230.0 0.04818
5250.0 0.049917
5270.0 0.052674
5290.0 0.055946
5310.0 0.057204
5330.0 0.055088
5350.0 0.05203
5370.0 0.051921
5390.0 0.055622
5410.0 0.060306
5430.0 0.063201
5450.0 0.063828
5470.0 0.06243
5490.0 0.060026
5510.0 0.058418
5530.0 0.058111
5550.0 0.058507
5570.0 0.058663
5590.0 0.057266
5610.0 0.054642
5630.0 0.05103
5650.0 0.047213
5670.0 0.044859
5690.0 0.043649
5710.0 0.042999
5730.0 0.043201
5750.0 0.042812
5770.0 0.041956
5790.0 0.042106
5810.0 0.042461
5830.0 0.042972
5850.0 0.043319
5870.0 0.042503
5890.0 0.040729
5910.0 0.038341
5930.0 0.034638
5950.0 0.031582
5970.0 0.030879
5990.0 0.031963
6010.0 0.032699
6030.0 0.031609
6050.0 0.030559
6070.0 0.031712
6090.0 0.034173
6110.0 0.035612
6130.0 0.03473
6150.0 0.032721
6170.0 0.031278
6190.0 0.02994
6210.0 0.02815
6230.0 0.026281
6250.0 0.025394
6270.0 0.025956
6290.0 0.026954
6310.0 0.028545
6330.0 0.030863
6350.0 0.033333
6370.0 0.034712
6390.0 0.035053
6410.0 0.035395
6430.0 0.035741
6450.0 0.036128
6470.0 0.03684
6490.0 0.037615
6510.0 0.038156
6530.0 0.038146
6550.0 0.037545
6570.0 0.036273
6590.0 0.034589
6610.0 0.033385
6630.0 0.032693
6650.0 0.031672
6670.0 0.030242
6690.0 0.029021
6710.0 0.028386
6730.0 0.028094
6750.0 0.027667
6770.0 0.027142
6790.0 0.026701
6810.0 0.026148
6830.0 0.025837
6850.0 0.026287
6870.0 0.026572
6890.0 0.026302
6910.0 0.025726
6930.0 0.025186
6950.0 0.02472
6970.0 0.023883
6990.0 0.022973
7010.0 0.022574
7030.0 0.022351
7050.0 0.021693
7070.0 0.020719
7090.0 0.020303
7110.0 0.020818
7130.0 0.022091
7150.0 0.023456
7170.0 0.024339
7190.0 0.024166
7210.0 0.023221
7230.0 0.022614
7250.0 0.022566
7270.0 0.02251
7290.0 0.022325
7310.0 0.02249
7330.0 0.023161
7350.0 0.024043
7370.0 0.024583
7390.0 0.024513
7410.0 0.023983
7430.0 0.023286
7450.0 0.022475
7470.0 0.021404
7490.0 0.020665
7510.0 0.020027
7530.0 0.019651
7550.0 0.019775
7570.0 0.020004
7590.0 0.020151
7610.0 0.020071
7630.0 0.019969
7650.0 0.02012
7670.0 0.02063
7690.0 0.021275
7710.0 0.022025
7730.0 0.022604
7750.0 0.023287
7770.0 0.023786
7790.0 0.02406
7810.0 0.024073
7830.0 0.024055
7850.0 0.023622
7870.0 0.022598
7890.0 0.021538
7910.0 0.020865
7930.0 0.020375
7950.0 0.019904
7970.0 0.019666
7990.0 0.019776
8010.0 0.019018
8030.0 0.018814
8050.0 0.018551
8070.0 0.018225
8090.0 0.017896
8110.0 0.01788
8130.0 0.017972
8150.0 0.017896
8170.0 0.017754
8190.0 0.01729
8210.0 0.016293
8230.0 0.015209
8250.0 0.014584
8270.0 0.014102
8290.0 0.013606
8310.0 0.013371
8330.0 0.013332
8350.0 0.012992
8370.0 0.012815
8390.0 0.01323
8410.0 0.013994
8430.0 0.01498
8450.0 0.016016
8470.0 0.016612
8490.0 0.017137
8510.0 0.017503
8530.0 0.017868
8550.0 0.018234
8570.0 0.018474
8590.0 0.01869
8610.0 0.019177
8630.0 0.019374
8650.0 0.018988
8670.0 0.018996
8690.0 0.019299
8710.0 0.019579
8730.0 0.019527
8750.0 0.019052
8770.0 0.018865
8790.0 0.018771
8810.0 0.018461
8830.0 0.017252
8850.0 0.01574
8870.0 0.014658
8890.0 0.01411
8910.0 0.013359
8930.0 0.012422
8950.0 0.011818
8970.0 0.011711
8990.0 0.011821
9010.0 0.011809
9030.0 0.011721
9050.0 0.011641
9070.0 0.011573
9090.0 0.011507
9110.0 0.011442
9130.0 0.011377
9150.0 0.011313
9170.0 0.011249
9190.0 0.011186
9210.0 0.011122
9230.0 0.011059
9250.0 0.010997
9270.0 0.010935
9290.0 0.010873
9310.0 0.010812
9330.0 0.010751
9350.0 0.010691
9370.0 0.01063
9390.0 0.010571
9410.0 0.010511
9430.0 0.010451
9450.0 0.010386
9470.0 0.010324
9490.0 0.010271
9510.0 0.010216
9530.0 0.010161
9550.0 0.010104
9570.0 0.010048
9590.0 0.009992
9610.0 0.0099363
9630.0 0.0098805
9650.0 0.009825
9670.0 0.0097705
9690.0 0.0097157
9710.0 0.009661
9730.0 0.0096073
9750.0 0.0095535
9770.0 0.0094993
9790.0 0.0094459
9810.0 0.0093931
9830.0 0.0093394
9850.0 0.0092821
9870.0 0.009231
9890.0 0.0091803
9910.0 0.0091288
9930.0 0.0090773
9950.0 0.0090264
9970.0 0.0089746
9990.0 0.0089219
10010.0 0.0088645
10030.0 0.0088108
10050.0 0.0087628
10070.0 0.0087143
10090.0 0.0086655
10110.0 0.008612
10130.0 0.0085425
10150.0 0.0084951
10170.0 0.0084513
10190.0 0.0084031
10210.0 0.0083556
10230.0 0.0083077
10250.0 0.0082565
10270.0 0.0082052
10290.0 0.0081558
10310.0 0.008104
10330.0 0.0080502
10350.0 0.0079992
10370.0 0.0079483
10390.0 0.0078949
10410.0 0.0078419
10430.0 0.0077915
10450.0 0.0077387
10470.0 0.0076845
10490.0 0.0076323
10510.0 0.0075802
10530.0 0.0075241
10550.0 0.0074696
10570.0 0.0074172
10590.0 0.0073625
10610.0 0.0073065
10630.0 0.0072529
10650.0 0.0071986
10670.0 0.0071412
10690.0 0.007085
10710.0 0.00703
10730.0 0.0069728
10750.0 0.0069132
10770.0 0.0068575
10790.0 0.0068007
10810.0 0.0067413
10830.0 0.0066828
10850.0 0.0066263
10870.0 0.0065654
10890.0 0.0065046
10910.0 0.0064462
10930.0 0.0063873
10950.0 0.0063263
10970.0 0.0062675
10990.0 0.0062118
11010.0 0.0060302
11030.0 0.0059721
11050.0 0.0059176
11070.0 0.0058639
11090.0 0.0058088
11110.0 0.0057582
11130.0 0.0057099
11150.0 0.005662
11170.0 0.0056163
11190.0 0.0055751
11210.0 0.0055356
11230.0 0.0054981
11250.0 0.0054649
11270.0 0.0054351
11290.0 0.0054071
11310.0 0.0053819
11330.0 0.0053605
11350.0 0.0053406
11370.0 0.005322
11390.0 0.0053051
11410.0 0.0052893
11430.0 0.0052729
11450.0 0.0052566
11470.0 0.0052401
11490.0 0.0052222
11510.0 0.0052022
11530.0 0.0051812
11550.0 0.0051584
11570.0 0.0051322
11590.0 0.0051036
11610.0 0.0050732
11630.0 0.0050387
11650.0 0.005
11670.0 0.0049597
11690.0 0.0049162
11710.0 0.0048678
11730.0 0.0048164
11750.0 0.0047638
11770.0 0.0047062
11790.0 0.0046447
11810.0 0.0045823
11830.0 0.0045177
11850.0 0.0044476
11870.0 0.0043777
11890.0 0.0043089
11910.0 0.0042374
11930.0 0.0041651
11950.0 0.004096
11970.0 0.0040273
11990.0 0.0039574
12010.0 0.0038913
12030.0 0.0038287
12050.0 0.0037668
12070.0 0.0037065
12090.0 0.0036524
12110.0 0.0036003
12130.0 0.00355
12150.0 0.0035039
12170.0 0.0034622
12190.0 0.0034218
12210.0 0.0033856
12230.0 0.0033543
12250.0 0.0033266
12270.0 0.0033024
12290.0 0.0032827
12310.0 0.0032673
12330.0 0.0032551
12350.0 0.0032465
12370.0 0.0032411
12390.0 0.0032383
12410.0 0.0032382
12430.0 0.0032397
12450.0 0.0032424
12470.0 0.0032463
12490.0 0.0032509
12510.0 0.0032551
12530.0 0.0032594
12550.0 0.0032634
12570.0 0.0032662
12590.0 0.0032675
12610.0 0.0032675
12630.0 0.0032653
12650.0 0.0032607
12670.0 0.0032535
12690.0 0.0032434
12710.0 0.0032304
12730.0 0.0032146
12750.0 0.0031949
12770.0 0.0031725
12790.0 0.0031479
12810.0 0.0031204
12830.0 0.00309
12850.0 0.003059
12870.0 0.003027
12890.0 0.0029931
12910.0 0.0029591
12930.0 0.002926
12950.0 0.0028921
12970.0 0.0028581
12990.0 0.0028263
13010.0 0.0027952
13030.0 0.0027643
13050.0 0.0027348
13070.0 0.0027072
13090.0 0.0026796
13110.0 0.0026529
13130.0 0.002628
13150.0 0.0026041
13170.0 0.0025802
13190.0 0.0025581
13210.0 0.0025376
13230.0 0.0025176
13250.0 0.0024985
13270.0 0.0024811
13290.0 0.0024643
13310.0 0.0024479
13330.0 0.0024325
13350.0 0.0024177
13370.0 0.002403
13390.0 0.0023881
13410.0 0.0023737
13430.0 0.0023588
13450.0 0.0023431
13470.0 0.002327
13490.0 0.0023106
13510.0 0.0022925
13530.0 0.0022736
13550.0 0.0022544
13570.0 0.0022342
13590.0 0.0022127
13610.0 0.0021911
13630.0 0.0021694
13650.0 0.0021465
13670.0 0.0021234
13690.0 0.0021008
13710.0 0.0020779
13730.0 0.0020539
13750.0 0.0020312
13770.0 0.0020088
13790.0 0.001986
13810.0 0.0019634
13830.0 0.001942
13850.0 0.0019203
13870.0 0.0018986
13890.0 0.001878
13910.0 0.001858
13930.0 0.0018379
13950.0 0.0018186
13970.0 0.0018008
13990.0 0.0017833
14010.0 0.0017662
14030.0 0.0017505
14050.0 0.0017355
14070.0 0.0017204
14090.0 0.0017064
14110.0 0.0016933
14130.0 0.0016804
14150.0 0.0016677
14170.0 0.001656
14190.0 0.0016446
14210.0 0.0016333
14230.0 0.0016224
14250.0 0.0016122
14270.0 0.001602
14290.0 0.0015918
14310.0 0.0015825
14330.0 0.0015734
14350.0 0.0015644
14370.0 0.0015557
14390.0 0.0015477
14410.0 0.0015396
14430.0 0.0015317
14450.0 0.0015243
14470.0 0.0015172
14490.0 0.0015099
14510.0 0.0015031
14530.0 0.0014966
14550.0 0.00149
14570.0 0.0014833
14590.0 0.0014768
14610.0 0.0014701
14630.0 0.0014629
14650.0 0.0014557
14670.0 0.0014486
14690.0 0.0014412
14710.0 0.0014338
14730.0 0.0014274
14750.0 0.0014215
14770.0 0.0014166
14790.0 0.0014134
14810.0 0.0014121
14830.0 0.001413
14850.0 0.0014167
14870.0 0.0014229
14890.0 0.0014319
14910.0 0.0014436
14930.0 0.0014569
14950.0 0.0014708
14970.0 0.0014854
14990.0 0.0014989
15010.0 0.0015104
15030.0 0.0015201
15050.0 0.0015278
15070.0 0.0015331
15090.0 0.0015371
15110.0 0.00154
15130.0 0.0015423
15150.0 0.0015443
15170.0 0.0015461
15190.0 0.0015479
15210.0 0.0015497
15230.0 0.0015515
15250.0 0.0015533
15270.0 0.0015552
15290.0 0.0015572
15310.0 0.0015593
15330.0 0.0015613
15350.0 0.0015635
15370.0 0.0015656
15390.0 0.0015678
15410.0 0.0015701
15430.0 0.0015724
15450.0 0.0015748
15470.0 0.0015772
15490.0 0.0015796
15510.0 0.0015821
15530.0 0.0015847
15550.0 0.0015873
15570.0 0.0015899
15590.0 0.0015926
15610.0 0.0015952
15630.0 0.001598
15650.0 0.0016008
15670.0 0.0016036
15690.0 0.0016065
15710.0 0.0016094
15730.0 0.0016123
15750.0 0.0016153
15770.0 0.0016183
15790.0 0.0016213
15810.0 0.0016244
15830.0 0.0016275
15850.0 0.0016307
15870.0 0.0016338
15890.0 0.001637
15910.0 0.0016402
15930.0 0.0016435
15950.0 0.0016467
15970.0 0.0016501
15990.0 0.0016534
16010.0 0.0016567
16030.0 0.0016601
16050.0 0.0016635
16070.0 0.0016669
16090.0 0.0016704
16110.0 0.0016738
16130.0 0.0016773
16150.0 0.0016808
16170.0 0.0016843
16190.0 0.0016878
16210.0 0.0016914
16230.0 0.0016949
16250.0 0.0016985
16270.0 0.0017021
16290.0 0.0017056
16310.0 0.0017092
16330.0 0.0017128
16350.0 0.0017164
16370.0 0.00172
16390.0 0.0017236
16410.0 0.0017272
16430.0 0.0017308
16450.0 0.0017344
16470.0 0.0017381
16490.0 0.0017417
16510.0 0.0017453
16530.0 0.0017489
16550.0 0.0017525
16570.0 0.0017561
16590.0 0.0017597
16610.0 0.0017633
16630.0 0.0017668
16650.0 0.0017704
16670.0 0.0017739
16690.0 0.0017775
16710.0 0.0017809
16730.0 0.0017844
16750.0 0.0017879
16770.0 0.0017914
16790.0 0.0017948
16810.0 0.0017983
16830.0 0.0018017
16850.0 0.001805
16870.0 0.0018084
16890.0 0.0018117
16910.0 0.001815
16930.0 0.0018182
16950.0 0.0018215
16970.0 0.0018247
16990.0 0.0018278
17010.0 0.001831
17030.0 0.0018341
17050.0 0.0018371
17070.0 0.0018401
17090.0 0.0018431
17110.0 0.0018461
17130.0 0.001849
17150.0 0.0018518
17170.0 0.0018547
17190.0 0.0018574
17210.0 0.0018601
17230.0 0.0018628
17250.0 0.0018655
17270.0 0.001868
17290.0 0.0018705
17310.0 0.001873
17330.0 0.0018754
17350.0 0.0018777
17370.0 0.0018801
17390.0 0.0018823
17410.0 0.0018845
17430.0 0.0018866
17450.0 0.0018887
17470.0 0.0018907
17490.0 0.0018926
17510.0 0.0018945
17530.0 0.0018963
17550.0 0.001898
17570.0 0.0018997
17590.0 0.0019013
17610.0 0.0019028
17630.0 0.0019042
17650.0 0.0019056
17670.0 0.0019069
17690.0 0.0019081
17710.0 0.0019093
17730.0 0.0019104
17750.0 0.0019114
17770.0 0.0019123
17790.0 0.0019132
17810.0 0.0019139
17830.0 0.0019146
17850.0 0.0019152
17870.0 0.0019157
17890.0 0.0019161
17910.0 0.0019164
17930.0 0.0019167
17950.0 0.0019169
17970.0 0.0019169
17990.0 0.0019169
18010.0 0.0019169
18030.0 0.0019166
18050.0 0.0019164
18070.0 0.001916
18090.0 0.0019155
18110.0 0.001915
18130.0 0.0019143
18150.0 0.0019136
18170.0 0.0019127
18190.0 0.0019118
18210.0 0.0019108
18230.0 0.0019097
18250.0 0.0019084
18270.0 0.0019071
18290.0 0.0019057
18310.0 0.0019042
18330.0 0.0019026
18350.0 0.0019009
18370.0 0.0018991
18390.0 0.0018972
18410.0 0.0018952
18430.0 0.0018931
18450.0 0.0018909
18470.0 0.0018886
18490.0 0.0018862
18510.0 0.0018837
18530.0 0.0018811
18550.0 0.0018785
18570.0 0.0018757
18590.0 0.0018728
18610.0 0.0018698
18630.0 0.0018667
18650.0 0.0018635
18670.0 0.0018602
18690.0 0.0018569
18710.0 0.0018534
18730.0 0.0018498
18750.0 0.0018461
18770.0 0.0018424
18790.0 0.0018385
18810.0 0.0018345
18830.0 0.0018305
18850.0 0.0018263
18870.0 0.0018221
18890.0 0.0018177
18910.0 0.0018133
18930.0 0.0018088
18950.0 0.0018041
18970.0 0.0017995
18990.0 0.0017947
19010.0 0.0017897
19030.0 0.0017847
19050.0 0.0017797
19070.0 0.0017745
19090.0 0.0017693
19110.0 0.001764
19130.0 0.0017585
19150.0 0.001753
19170.0 0.0017474
19190.0 0.0017417
19210.0 0.0017359
19230.0 0.0017301
19250.0 0.0017242
19270.0 0.0017182
19290.0 0.0017121
19310.0 0.001706
19330.0 0.0016997
19350.0 0.0016934
19370.0 0.001687
19390.0 0.0016806
19410.0 0.001674
19430.0 0.0016674
19450.0 0.0016608
19470.0 0.001654
19490.0 0.0016472
19510.0 0.0016403
19530.0 0.0016334
19550.0 0.0016264
19570.0 0.0016193
19590.0 0.0016122
19610.0 0.001605
19630.0 0.0015977
19650.0 0.0015904
19670.0 0.0015831
19690.0 0.0015756
19710.0 0.0015681
19730.0 0.0015606
19750.0 0.0015531
19770.0 0.0015454
19790.0 0.0015377
19810.0 0.00153
19830.0 0.0015222
19850.0 0.0015143
19870.0 0.0015063
19890.0 0.001498
19910.0 0.0014891
19930.0 0.0014797
19950.0 0.0014692
19970.0 0.0014572
19990.0 0.0014433
20010.0 0.0014279
20030.0 0.0014102
20050.0 0.0013903
20070.0 0.0013693
20090.0 0.0013473
20110.0 0.0013235
20130.0 0.0012998
20150.0 0.0012765
20170.0 0.0012528
20190.0 0.0012292
20210.0 0.0012066
20230.0 0.0011844
20250.0 0.0011621
20270.0 0.0011408
20290.0 0.0011205
20310.0 0.0011005
20330.0 0.0010809
20350.0 0.0010629
20370.0 0.0010457
20390.0 0.0010289
20410.0 0.0010133
20430.0 0.00099877
20450.0 0.00098471
20470.0 0.00097159
20490.0 0.00095959
20510.0 0.00094837
20530.0 0.0009378
20550.0 0.00092814
20570.0 0.0009193
20590.0 0.000911
20610.0 0.00090332
20630.0 0.00089624
20650.0 0.00088961
20670.0 0.00088338
20690.0 0.00087751
20710.0 0.00087188
20730.0 0.00086645
20750.0 0.00086112
20770.0 0.0008558
20790.0 0.00085046
20810.0 0.00084502
20830.0 0.0008394
20850.0 0.00083357
20870.0 0.00082746
20890.0 0.00082102
20910.0 0.00081428
20930.0 0.00080717
20950.0 0.00079964
20970.0 0.00079178
20990.0 0.0007836
21010.0 0.00077493
21030.0 0.00076594
21050.0 0.00075674
21070.0 0.0007472
21090.0 0.00073724
21110.0 0.00072727
21130.0 0.00071719
21150.0 0.0007068
21170.0 0.00069637
21190.0 0.00068607
21210.0 0.00067556
21230.0 0.00066496
21250.0 0.00065464
21270.0 0.00064442
21290.0 0.00063414
21310.0 0.00062406
21330.0 0.00061438
21350.0 0.0006047
21370.0 0.00059518
21390.0 0.00058603
21410.0 0.00057714
21430.0 0.00056826
21450.0 0.0005598
21470.0 0.00055172
21490.0 0.0005438
21510.0 0.00053612
21530.0 0.00052884
21550.0 0.0005218
21570.0 0.00051491
21590.0 0.00050834
21610.0 0.00050205
21630.0 0.00049591
21650.0 0.00048994
21670.0 0.00048426
21690.0 0.00047871
21710.0 0.00047326
21730.0 0.00046796
21750.0 0.00046279
21770.0 0.00045764
21790.0 0.00045256
21810.0 0.00044755
21830.0 0.00044257
21850.0 0.00043755
21870.0 0.00043257
21890.0 0.00042761
21910.0 0.00042258
21930.0 0.00041753
21950.0 0.00041249
21970.0 0.00040741
21990.0 0.00040221
22010.0 0.00039704
22030.0 0.00039187
22050.0 0.0003866
22070.0 0.00038129
22090.0 0.00037603
22110.0 0.0003707
22130.0 0.0003653
22150.0 0.00035993
22170.0 0.00035457
22190.0 0.00034909
22210.0 0.00034361
22230.0 0.00033823
22250.0 0.00033279
22270.0 0.0003273
22290.0 0.00032188
22310.0 0.00031651
22330.0 0.00031101
22350.0 0.00030557
22370.0 0.00030022
22390.0 0.00029483
22410.0 0.00028939
22430.0 0.00028409
22450.0 0.00027884
22470.0 0.00027353
22490.0 0.00026828
22510.0 0.00026317
22530.0 0.00025801
22550.0 0.00025285
22570.0 0.00024787
22590.0 0.00024296
22610.0 0.00023805
22630.0 0.00023327
22650.0 0.00022868
22670.0 0.00022412
22690.0 0.00021965
22710.0 0.00021538
22730.0 0.00021125
22750.0 0.00020715
22770.0 0.00020327
22790.0 0.00019959
22810.0 0.00019601
22830.0 0.00019257
22850.0 0.00018934
22870.0 0.00018625
22890.0 0.00018327
22910.0 0.00018046
22930.0 0.00017782
22950.0 0.0001753
22970.0 0.0001729
22990.0 0.00017066
23010.0 0.00016853
23030.0 0.0001665
23050.0 0.00016457
23070.0 0.00016272
23090.0 0.00016093
23110.0 0.00015919
23130.0 0.00015747
23150.0 0.00015576
23170.0 0.00015404
23190.0 0.0001523
23210.0 0.00015051
23230.0 0.00014867
23250.0 0.00014675
23270.0 0.00014478
23290.0 0.00014272
23310.0 0.00014055
23330.0 0.00013832
23350.0 0.00013601
23370.0 0.00013359
23390.0 0.0001311
23410.0 0.00012858
23430.0 0.00012599
23450.0 0.00012331
23470.0 0.00012064
23490.0 0.00011798
23510.0 0.00011528
23530.0 0.00011261
23550.0 0.00011006
23570.0 0.00010754
23590.0 0.00010509
23610.0 0.00010278
23630.0 0.0001006
23650.0 9.8534e-05
23670.0 9.6653e-05
23690.0 9.4967e-05
23710.0 9.3476e-05
23730.0 9.2217e-05
23750.0 9.1184e-05
23770.0 9.0382e-05
23790.0 8.985e-05
23810.0 8.9556e-05
23830.0 8.945e-05
23850.0 8.9629e-05
23870.0 9.0052e-05
23890.0 9.0577e-05
23910.0 9.1255e-05
23930.0 9.2131e-05
