#lamb flux
1010.0 1.0435e-07
1030.0 1.1557e-07
1050.0 1.2847e-07
1070.0 1.4299e-07
1090.0 1.5949e-07
1110.0 1.7641e-07
1130.0 1.9344e-07
1150.0 2.1128e-07
1170.0 2.2968e-07
1190.0 2.4713e-07
1210.0 2.6481e-07
1230.0 2.8309e-07
1250.0 3.0099e-07
1270.0 3.1838e-07
1290.0 3.3675e-07
1310.0 3.5511e-07
1330.0 3.7271e-07
1350.0 3.9051e-07
1370.0 4.0889e-07
1390.0 4.2681e-07
1410.0 4.4419e-07
1430.0 4.6236e-07
1450.0 4.8053e-07
1470.0 4.9809e-07
1490.0 5.1583e-07
1510.0 5.3457e-07
1530.0 5.5231e-07
1550.0 5.6982e-07
1570.0 5.8792e-07
1590.0 6.0603e-07
1610.0 6.2332e-07
1630.0 6.4114e-07
1650.0 6.5941e-07
1670.0 6.7706e-07
1690.0 6.9447e-07
1710.0 7.1253e-07
1730.0 7.3066e-07
1750.0 7.4767e-07
1770.0 7.6514e-07
1790.0 7.8293e-07
1810.0 8.0008e-07
1830.0 8.1686e-07
1850.0 8.3463e-07
1870.0 8.5184e-07
1890.0 8.6836e-07
1910.0 8.8511e-07
1930.0 9.0216e-07
1950.0 9.1825e-07
1970.0 9.3397e-07
1990.0 9.5016e-07
2010.0 9.6585e-07
2030.0 9.807e-07
2050.0 9.9582e-07
2070.0 1.0111e-06
2090.0 1.0251e-06
2110.0 1.0386e-06
2130.0 1.0524e-06
2150.0 1.0654e-06
2170.0 1.0773e-06
2190.0 1.0893e-06
2210.0 1.1009e-06
2230.0 1.1114e-06
2250.0 1.1213e-06
2270.0 1.1313e-06
2290.0 1.1402e-06
2310.0 1.1479e-06
2330.0 1.1555e-06
2350.0 1.1627e-06
2370.0 1.169e-06
2390.0 1.1755e-06
2410.0 1.1838e-06
2430.0 1.1932e-06
2450.0 1.2049e-06
2470.0 1.2214e-06
2490.0 1.2435e-06
2510.0 1.2693e-06
2530.0 1.3027e-06
2550.0 1.3488e-06
2570.0 1.4116e-06
2590.0 1.499e-06
2610.0 1.6371e-06
2630.0 1.8356e-06
2650.0 2.0896e-06
2670.0 2.4083e-06
2690.0 2.7851e-06
2710.0 3.1669e-06
2730.0 3.5225e-06
2750.0 3.8522e-06
2770.0 4.1147e-06
2790.0 4.2982e-06
2810.0 4.4215e-06
2830.0 4.4967e-06
2850.0 4.5226e-06
2870.0 4.5214e-06
2890.0 4.5053e-06
2910.0 4.4787e-06
2930.0 4.4451e-06
2950.0 4.411e-06
2970.0 4.3773e-06
2990.0 4.3429e-06
3010.0 0.00013042
3030.0 0.00012948
3050.0 0.00012855
3070.0 0.00012756
3090.0 0.00012652
3110.0 0.0001253
3130.0 0.00012376
3150.0 0.00012178
3170.0 0.00011915
3190.0 0.00011593
3210.0 0.00011232
3230.0 0.00010848
3250.0 0.00010467
3270.0 0.00010184
3290.0 9.9787e-05
3310.0 9.9369e-05
3330.0 0.00010012
3350.0 0.00010199
3370.0 0.00010495
3390.0 0.00010888
3410.0 0.00011328
3430.0 0.00011832
3450.0 0.0001242
3470.0 0.00013069
3490.0 0.00013767
3510.0 0.00014561
3530.0 0.00015429
3550.0 0.00016356
3570.0 0.0001738
3590.0 0.00018534
3610.0 0.0001982
3630.0 0.00021122
3650.0 0.00022506
3670.0 0.00023768
3690.0 0.00024718
3710.0 0.0002521
3730.0 0.00024969
3750.0 0.00023985
3770.0 0.0002402
3790.0 0.0002296
3810.0 0.00017835
3830.0 0.0001645
3850.0 0.00021947
3870.0 0.00019208
3890.0 0.00015724
3910.0 0.00018389
3930.0 0.00024206
3950.0 0.00027625
3970.0 0.0003207
3990.0 0.00025703
4010.0 0.00039788
4030.0 0.00036549
4050.0 0.00034396
4070.0 0.00039134
4090.0 0.00037577
4110.0 0.0003735
4130.0 0.00046045
4150.0 0.00058581
4170.0 0.00048024
4190.0 0.00042919
4210.0 0.00047364
4230.0 0.00058601
4250.0 0.00068252
4270.0 0.00073644
4290.0 0.00067581
4310.0 0.00062939
4330.0 0.00063872
4350.0 0.00081179
4370.0 0.00097574
4390.0 0.00079562
4410.0 0.00048534
4430.0 0.0003585
4450.0 0.00032342
4470.0 0.00024452
4490.0 0.00036993
4510.0 0.00066357
4530.0 0.0007957
4550.0 0.00079035
4570.0 0.00075057
4590.0 0.00083165
4610.0 0.001503
4630.0 0.0020524
4650.0 0.0019457
4670.0 0.0017336
4690.0 0.0018237
4710.0 0.0019255
4730.0 0.0015562
4750.0 0.001004
4770.0 0.00072623
4790.0 0.00079553
4810.0 0.00081242
4830.0 0.0007986
4850.0 0.00087938
4870.0 0.0011628
4890.0 0.0013521
4910.0 0.0010529
4930.0 0.00099694
4950.0 0.0011434
4970.0 0.0015428
4990.0 0.0020697
5010.0 0.002348
5030.0 0.0018634
5050.0 0.001123
5070.0 0.00079741
5090.0 0.00063424
5110.0 0.00060817
5130.0 0.00070626
5150.0 0.00068734
5170.0 0.00065492
5190.0 0.0005992
5210.0 0.00063632
5230.0 0.00076755
5250.0 0.00088495
5270.0 0.00084939
5290.0 0.00093691
5310.0 0.0012151
5330.0 0.0012728
5350.0 0.0012555
5370.0 0.001416
5390.0 0.0017289
5410.0 0.0014968
5430.0 0.0011486
5450.0 0.00114
5470.0 0.0013332
5490.0 0.0016967
5510.0 0.002103
5530.0 0.0024212
5550.0 0.0021995
5570.0 0.0019641
5590.0 0.0016325
5610.0 0.0016383
5630.0 0.0017946
5650.0 0.0016991
5670.0 0.0015839
5690.0 0.0013078
5710.0 0.0013247
5730.0 0.0012818
5750.0 0.00070836
5770.0 0.00053616
5790.0 0.00065595
5810.0 0.00072751
5830.0 0.0010596
5850.0 0.0013375
5870.0 0.0014098
5890.0 0.0013326
5910.0 0.0012852
5930.0 0.0012565
5950.0 0.0013061
5970.0 0.0015848
5990.0 0.001327
6010.0 0.0010298
6030.0 0.00083739
6050.0 0.00074114
6070.0 0.00086548
6090.0 0.0009869
6110.0 0.0010175
6130.0 0.00092997
6150.0 0.00075216
6170.0 0.00065386
6190.0 0.00081447
6210.0 0.001211
6230.0 0.0016871
6250.0 0.0017726
6270.0 0.001388
6290.0 0.0011776
6310.0 0.0009053
6330.0 0.00067117
6350.0 0.00064776
6370.0 0.00068324
6390.0 0.00082602
6410.0 0.0010405
6430.0 0.001247
6450.0 0.0015277
6470.0 0.0016606
6490.0 0.0020145
6510.0 0.0022614
6530.0 0.002244
6550.0 0.0020649
6570.0 0.0017498
6590.0 0.0016959
6610.0 0.0014223
6630.0 0.0014392
6650.0 0.0013715
6670.0 0.0012528
6690.0 0.0010414
6710.0 0.00099151
6730.0 0.00056667
6750.0 0.00064736
6770.0 0.00088667
6790.0 0.0011452
6810.0 0.00088572
6830.0 0.00090712
6850.0 0.00079347
6870.0 0.00075441
6890.0 0.00066601
6910.0 0.0007483
6930.0 0.00070019
6950.0 0.00081221
6970.0 0.0008264
6990.0 0.00091711
7010.0 0.00092129
7030.0 0.00098643
7050.0 0.00086612
7070.0 0.00075728
7090.0 0.00077645
7110.0 0.00078738
7130.0 0.00087935
7150.0 0.0009917
7170.0 0.0010975
7190.0 0.0011411
7210.0 0.0010219
7230.0 0.0010345
7250.0 0.0011348
7270.0 0.0012594
7290.0 0.0014975
7310.0 0.0015297
7330.0 0.0013892
7350.0 0.0012379
7370.0 0.00095773
7390.0 0.00099873
7410.0 0.0012044
7430.0 0.0013578
7450.0 0.0014613
7470.0 0.0014002
7490.0 0.0012672
7510.0 0.001863
7530.0 0.0016737
7550.0 0.001517
7570.0 0.0010458
7590.0 0.00051747
7610.0 0.00039211
7630.0 0.00053538
7650.0 0.00069089
7670.0 0.0010288
7690.0 0.0011609
7710.0 0.0010794
7730.0 0.0010664
7750.0 0.0013291
7770.0 0.0013512
7790.0 0.0012539
7810.0 0.0010691
7830.0 0.0011241
7850.0 0.0011814
7870.0 0.0011416
7890.0 0.00091878
7910.0 0.00064337
7930.0 0.00063339
7950.0 0.00056912
7970.0 0.00049548
7990.0 0.00046074
8010.0 0.0004281
8030.0 0.00041002
8050.0 0.00043014
8070.0 0.0004525
8090.0 0.0005101
8110.0 0.00047776
8130.0 0.00033939
8150.0 0.0003311
8170.0 0.00024269
8190.0 0.0002015
8210.0 0.00030583
8230.0 0.00034863
8250.0 0.00022376
8270.0 0.00019144
8290.0 0.00022176
8310.0 0.00017202
8330.0 0.00010746
8350.0 8.3705e-05
8370.0 4.7243e-05
8390.0 9.4249e-05
8410.0 0.0001146
8430.0 0.00014236
8450.0 0.00015918
8470.0 0.00022335
8490.0 0.00019481
8510.0 0.00016893
8530.0 0.00012637
8550.0 0.00025421
8570.0 0.00036524
8590.0 0.00030994
8610.0 0.00042315
8630.0 0.00047117
8650.0 0.00035179
8670.0 0.00042536
8690.0 0.0005473
8710.0 0.00048817
8730.0 0.00050345
8750.0 0.00042172
8770.0 0.00038799
8790.0 0.00041288
8810.0 0.00042554
8830.0 0.00028122
8850.0 0.00017575
8870.0 0.00013763
8890.0 0.00020563
8910.0 0.00028062
8930.0 0.00034465
8950.0 0.00039105
8970.0 0.00038425
8990.0 0.00031987
9010.0 0.00024258
9030.0 0.0002101
9050.0 0.00021638
9070.0 0.00022221
9090.0 0.0002268
9110.0 0.00023201
9130.0 0.00023587
9150.0 0.00023876
9170.0 0.00024182
9190.0 0.00024511
9210.0 0.00024854
9230.0 0.00025219
9250.0 0.00025591
9270.0 0.00025976
9290.0 0.00026372
9310.0 0.00026773
9330.0 0.00027181
9350.0 0.00027603
9370.0 0.0002803
9390.0 0.00028463
9410.0 0.00028907
9430.0 0.00029362
9450.0 0.00029819
9470.0 0.00030286
9490.0 0.00030763
9510.0 0.00031248
9530.0 0.00031736
9550.0 0.00032239
9570.0 0.0003275
9590.0 0.00033265
9610.0 0.00033789
9630.0 0.00034324
9650.0 0.00034865
9670.0 0.00035409
9690.0 0.00035966
9710.0 0.00036531
9730.0 0.00037099
9750.0 0.00037675
9770.0 0.00038265
9790.0 0.00038856
9810.0 0.00039451
9830.0 0.00040057
9850.0 0.0004067
9870.0 0.00041284
9890.0 0.00041906
9910.0 0.00042537
9930.0 0.0004317
9950.0 0.00043806
9970.0 0.00044451
9990.0 0.00045102
10010.0 0.00041705
10030.0 0.00042291
10050.0 0.00042882
10070.0 0.00043467
10090.0 0.00044061
10110.0 0.00044662
10130.0 0.00045263
10150.0 0.00045861
10170.0 0.00046462
10190.0 0.00047067
10210.0 0.00047668
10230.0 0.00048266
10250.0 0.00048868
10270.0 0.00049469
10290.0 0.00050064
10310.0 0.00050661
10330.0 0.00051258
10350.0 0.00051849
10370.0 0.00052435
10390.0 0.00053022
10410.0 0.00053604
10430.0 0.00054177
10450.0 0.00054749
10470.0 0.00055318
10490.0 0.00055877
10510.0 0.0005643
10530.0 0.00056982
10550.0 0.00057525
10570.0 0.00058056
10590.0 0.00058583
10610.0 0.00059103
10630.0 0.00059611
10650.0 0.00060111
10670.0 0.00060605
10690.0 0.00061088
10710.0 0.00061558
10730.0 0.00062021
10750.0 0.00062476
10770.0 0.00062914
10790.0 0.00063342
10810.0 0.0006376
10830.0 0.00064162
10850.0 0.00064543
10870.0 0.00064902
10890.0 0.00065219
10910.0 0.0006547
10930.0 0.00065625
10950.0 0.00065628
10970.0 0.00065438
10990.0 0.00065037
11010.0 0.00066
11030.0 0.00065006
11050.0 0.00063776
11070.0 0.00062288
11090.0 0.00060484
11110.0 0.00058611
11130.0 0.00056652
11150.0 0.00054541
11170.0 0.0005237
11190.0 0.00050274
11210.0 0.00048122
11230.0 0.00045933
11250.0 0.0004386
11270.0 0.00041887
11290.0 0.00039929
11310.0 0.0003809
11330.0 0.0003648
11350.0 0.00034965
11370.0 0.00033568
11390.0 0.00032353
11410.0 0.0003128
11430.0 0.0003027
11450.0 0.00029378
11470.0 0.00028583
11490.0 0.0002782
11510.0 0.00027062
11530.0 0.00026338
11550.0 0.00025606
11570.0 0.00024822
11590.0 0.00024009
11610.0 0.00023186
11630.0 0.00022301
11650.0 0.00021365
11670.0 0.00020451
11690.0 0.00019533
11710.0 0.00018597
11730.0 0.00017696
11750.0 0.00016864
11770.0 0.00016052
11790.0 0.00015292
11810.0 0.00014618
11830.0 0.00014011
11850.0 0.00013446
11870.0 0.00012964
11890.0 0.00012551
11910.0 0.00012178
11930.0 0.00011844
11950.0 0.00011552
11970.0 0.0001128
11990.0 0.00011013
12010.0 0.00010757
12030.0 0.00010505
12050.0 0.00010244
12070.0 9.9717e-05
12090.0 9.7071e-05
12110.0 9.4373e-05
12130.0 9.1636e-05
12150.0 8.9029e-05
12170.0 8.6625e-05
12190.0 8.4342e-05
12210.0 8.2394e-05
12230.0 8.0868e-05
12250.0 7.9756e-05
12270.0 7.9134e-05
12290.0 7.9041e-05
12310.0 7.9434e-05
12330.0 8.0397e-05
12350.0 8.1878e-05
12370.0 8.3738e-05
12390.0 8.6027e-05
12410.0 8.8845e-05
12430.0 9.1747e-05
12450.0 9.4777e-05
12470.0 9.8026e-05
12490.0 0.00010128
12510.0 0.00010427
12530.0 0.00010722
12550.0 0.00011002
12570.0 0.0001124
12590.0 0.00011439
12610.0 0.00011609
12630.0 0.00011733
12650.0 0.000118
12670.0 0.00011826
12690.0 0.00011806
12710.0 0.00011738
12730.0 0.00011629
12750.0 0.00011476
12770.0 0.00011287
12790.0 0.00011069
12810.0 0.00010821
12830.0 0.00010543
12850.0 0.00010256
12870.0 9.957e-05
12890.0 9.6381e-05
12910.0 9.3154e-05
12930.0 8.997e-05
12950.0 8.6664e-05
12970.0 8.3298e-05
12990.0 8.0081e-05
13010.0 7.6885e-05
13030.0 7.3638e-05
13050.0 7.0485e-05
13070.0 6.7493e-05
13090.0 6.4469e-05
13110.0 6.1514e-05
13130.0 5.8751e-05
13150.0 5.6106e-05
13170.0 5.3498e-05
13190.0 5.1141e-05
13210.0 4.9032e-05
13230.0 4.7078e-05
13250.0 4.5357e-05
13270.0 4.3945e-05
13290.0 4.2783e-05
13310.0 4.1888e-05
13330.0 4.132e-05
13350.0 4.1052e-05
13370.0 4.1086e-05
13390.0 4.144e-05
13410.0 4.2031e-05
13430.0 4.288e-05
13450.0 4.3991e-05
13470.0 4.5261e-05
13490.0 4.663e-05
13510.0 4.821e-05
13530.0 4.9831e-05
13550.0 5.1395e-05
13570.0 5.2955e-05
13590.0 5.4495e-05
13610.0 5.5873e-05
13630.0 5.7081e-05
13650.0 5.8196e-05
13670.0 5.9123e-05
13690.0 5.9834e-05
13710.0 6.0379e-05
13730.0 6.0761e-05
13750.0 6.0925e-05
13770.0 6.0924e-05
13790.0 6.0767e-05
13810.0 6.0456e-05
13830.0 6.0021e-05
13850.0 5.9456e-05
13870.0 5.8764e-05
13890.0 5.7988e-05
13910.0 5.7131e-05
13930.0 5.6162e-05
13950.0 5.5124e-05
13970.0 5.4079e-05
13990.0 5.2962e-05
14010.0 5.1796e-05
14030.0 5.0647e-05
14050.0 4.9505e-05
14070.0 4.8318e-05
14090.0 4.7192e-05
14110.0 4.6143e-05
14130.0 4.5134e-05
14150.0 4.4191e-05
14170.0 4.3387e-05
14190.0 4.2693e-05
14210.0 4.2104e-05
14230.0 4.1663e-05
14250.0 4.1372e-05
14270.0 4.1222e-05
14290.0 4.1232e-05
14310.0 4.139e-05
14330.0 4.1689e-05
14350.0 4.2141e-05
14370.0 4.2714e-05
14390.0 4.3375e-05
14410.0 4.4168e-05
14430.0 4.5055e-05
14450.0 4.5981e-05
14470.0 4.6964e-05
14490.0 4.804e-05
14510.0 4.9104e-05
14530.0 5.0155e-05
14550.0 5.1251e-05
14570.0 5.2358e-05
14590.0 5.3424e-05
14610.0 5.4515e-05
14630.0 5.5663e-05
14650.0 5.6799e-05
14670.0 5.7952e-05
14690.0 5.9196e-05
14710.0 6.0531e-05
14730.0 6.1873e-05
14750.0 6.3339e-05
14770.0 6.4958e-05
14790.0 6.6655e-05
14810.0 6.8429e-05
14830.0 7.044e-05
14850.0 7.2537e-05
14870.0 7.4645e-05
14890.0 7.684e-05
14910.0 7.9097e-05
14930.0 8.1214e-05
14950.0 8.3156e-05
14970.0 8.4964e-05
14990.0 8.647e-05
15010.0 8.7627e-05
15030.0 8.8497e-05
15050.0 8.9092e-05
15070.0 8.9424e-05
15090.0 8.9594e-05
15110.0 8.9651e-05
15130.0 8.9636e-05
15150.0 8.9593e-05
15170.0 8.9525e-05
15190.0 8.9446e-05
15210.0 8.9373e-05
15230.0 8.9302e-05
15250.0 8.9223e-05
15270.0 8.9148e-05
15290.0 8.9086e-05
15310.0 8.9018e-05
15330.0 8.8948e-05
15350.0 8.8887e-05
15370.0 8.8828e-05
15390.0 8.8758e-05
15410.0 8.8696e-05
15430.0 8.8641e-05
15450.0 8.8581e-05
15470.0 8.8517e-05
15490.0 8.8465e-05
15510.0 8.8412e-05
15530.0 8.8351e-05
15550.0 8.8296e-05
15570.0 8.8247e-05
15590.0 8.8188e-05
15610.0 8.8126e-05
15630.0 8.8076e-05
15650.0 8.8024e-05
15670.0 8.7964e-05
15690.0 8.7909e-05
15710.0 8.7861e-05
15730.0 8.7802e-05
15750.0 8.7742e-05
15770.0 8.7689e-05
15790.0 8.7634e-05
15810.0 8.7567e-05
15830.0 8.7508e-05
15850.0 8.7454e-05
15870.0 8.7391e-05
15890.0 8.7326e-05
15910.0 8.727e-05
15930.0 8.7207e-05
15950.0 8.7134e-05
15970.0 8.7068e-05
15990.0 8.7004e-05
16010.0 8.6931e-05
16030.0 8.6854e-05
16050.0 8.6788e-05
16070.0 8.6715e-05
16090.0 8.6634e-05
16110.0 8.6558e-05
16130.0 8.6485e-05
16150.0 8.6395e-05
16170.0 8.6307e-05
16190.0 8.6227e-05
16210.0 8.6139e-05
16230.0 8.6043e-05
16250.0 8.5953e-05
16270.0 8.5865e-05
16290.0 8.5763e-05
16310.0 8.5662e-05
16330.0 8.5566e-05
16350.0 8.5462e-05
16370.0 8.5345e-05
16390.0 8.524e-05
16410.0 8.5133e-05
16430.0 8.5015e-05
16450.0 8.4896e-05
16470.0 8.4785e-05
16490.0 8.466e-05
16510.0 8.453e-05
16530.0 8.4405e-05
16550.0 8.4278e-05
16570.0 8.4138e-05
16590.0 8.3999e-05
16610.0 8.3868e-05
16630.0 8.3725e-05
16650.0 8.3577e-05
16670.0 8.3434e-05
16690.0 8.3288e-05
16710.0 8.3125e-05
16730.0 8.2968e-05
16750.0 8.2814e-05
16770.0 8.265e-05
16790.0 8.2478e-05
16810.0 8.2316e-05
16830.0 8.2148e-05
16850.0 8.1969e-05
16870.0 8.1792e-05
16890.0 8.1618e-05
16910.0 8.143e-05
16930.0 8.1237e-05
16950.0 8.1053e-05
16970.0 8.0863e-05
16990.0 8.0663e-05
17010.0 8.0465e-05
17030.0 8.0272e-05
17050.0 8.0063e-05
17070.0 7.9853e-05
17090.0 7.9647e-05
17110.0 7.9436e-05
17130.0 7.9211e-05
17150.0 7.8993e-05
17170.0 7.8778e-05
17190.0 7.8551e-05
17210.0 7.8321e-05
17230.0 7.8098e-05
17250.0 7.7865e-05
17270.0 7.7622e-05
17290.0 7.7385e-05
17310.0 7.7148e-05
17330.0 7.69e-05
17350.0 7.6648e-05
17370.0 7.6407e-05
17390.0 7.6156e-05
17410.0 7.5897e-05
17430.0 7.5643e-05
17450.0 7.539e-05
17470.0 7.5119e-05
17490.0 7.4851e-05
17510.0 7.459e-05
17530.0 7.4321e-05
17550.0 7.4043e-05
17570.0 7.3773e-05
17590.0 7.3503e-05
17610.0 7.3219e-05
17630.0 7.2937e-05
17650.0 7.266e-05
17670.0 7.2375e-05
17690.0 7.2076e-05
17710.0 7.1793e-05
17730.0 7.1506e-05
17750.0 7.1208e-05
17770.0 7.0912e-05
17790.0 7.0624e-05
17810.0 7.0322e-05
17830.0 7.0015e-05
17850.0 6.9717e-05
17870.0 6.9416e-05
17890.0 6.9103e-05
17910.0 6.8793e-05
17930.0 6.8492e-05
17950.0 6.818e-05
17970.0 6.7864e-05
17990.0 6.7555e-05
18010.0 6.7244e-05
18030.0 6.6918e-05
18050.0 6.66e-05
18070.0 6.6286e-05
18090.0 6.5963e-05
18110.0 6.5636e-05
18130.0 6.5319e-05
18150.0 6.4999e-05
18170.0 6.4668e-05
18190.0 6.4343e-05
18210.0 6.4022e-05
18230.0 6.3689e-05
18250.0 6.3353e-05
18270.0 6.3029e-05
18290.0 6.27e-05
18310.0 6.2363e-05
18330.0 6.2033e-05
18350.0 6.1707e-05
18370.0 6.1368e-05
18390.0 6.1031e-05
18410.0 6.0701e-05
18430.0 6.0367e-05
18450.0 6.0021e-05
18470.0 5.9687e-05
18490.0 5.9356e-05
18510.0 5.9016e-05
18530.0 5.8676e-05
18550.0 5.8345e-05
18570.0 5.8007e-05
18590.0 5.766e-05
18610.0 5.7324e-05
18630.0 5.6989e-05
18650.0 5.6646e-05
18670.0 5.6302e-05
18690.0 5.5971e-05
18710.0 5.5632e-05
18730.0 5.5288e-05
18750.0 5.4952e-05
18770.0 5.4619e-05
18790.0 5.4271e-05
18810.0 5.393e-05
18830.0 5.3597e-05
18850.0 5.3258e-05
18870.0 5.2915e-05
18890.0 5.2581e-05
18910.0 5.2249e-05
18930.0 5.1906e-05
18950.0 5.1568e-05
18970.0 5.1237e-05
18990.0 5.09e-05
19010.0 5.0554e-05
19030.0 5.0224e-05
19050.0 4.9893e-05
19070.0 4.9555e-05
19090.0 4.922e-05
19110.0 4.8896e-05
19130.0 4.8559e-05
19150.0 4.8222e-05
19170.0 4.7894e-05
19190.0 4.7566e-05
19210.0 4.723e-05
19230.0 4.6899e-05
19250.0 4.6578e-05
19270.0 4.6248e-05
19290.0 4.5918e-05
19310.0 4.5597e-05
19330.0 4.5274e-05
19350.0 4.4941e-05
19370.0 4.4617e-05
19390.0 4.4299e-05
19410.0 4.3975e-05
19430.0 4.3649e-05
19450.0 4.3335e-05
19470.0 4.3018e-05
19490.0 4.2695e-05
19510.0 4.2378e-05
19530.0 4.2067e-05
19550.0 4.1747e-05
19570.0 4.1426e-05
19590.0 4.1119e-05
19610.0 4.0808e-05
19630.0 4.0491e-05
19650.0 4.0183e-05
19670.0 3.988e-05
19690.0 3.9567e-05
19710.0 3.9257e-05
19730.0 3.8955e-05
19750.0 3.8651e-05
19770.0 3.8339e-05
19790.0 3.8039e-05
19810.0 3.7742e-05
19830.0 3.7437e-05
19850.0 3.7134e-05
19870.0 3.6836e-05
19890.0 3.6526e-05
19910.0 3.6197e-05
19930.0 3.5859e-05
19950.0 3.5493e-05
19970.0 3.5071e-05
19990.0 3.4594e-05
20010.0 3.3604e-05
20030.0 3.3012e-05
20050.0 3.2346e-05
20070.0 3.1645e-05
20090.0 3.0909e-05
20110.0 3.0098e-05
20130.0 2.9291e-05
20150.0 2.8504e-05
20170.0 2.77e-05
20190.0 2.6896e-05
20210.0 2.6142e-05
20230.0 2.5412e-05
20250.0 2.4686e-05
20270.0 2.4012e-05
20290.0 2.3396e-05
20310.0 2.281e-05
20330.0 2.2259e-05
20350.0 2.1795e-05
20370.0 2.1377e-05
20390.0 2.1004e-05
20410.0 2.0694e-05
20430.0 2.0445e-05
20450.0 2.0239e-05
20470.0 2.0087e-05
20490.0 1.9989e-05
20510.0 1.9935e-05
20530.0 1.9926e-05
20550.0 1.9958e-05
20570.0 2.0022e-05
20590.0 2.0122e-05
20610.0 2.0253e-05
20630.0 2.0402e-05
20650.0 2.0575e-05
20670.0 2.078e-05
20690.0 2.099e-05
20710.0 2.1208e-05
20730.0 2.1445e-05
20750.0 2.1693e-05
20770.0 2.1932e-05
20790.0 2.2183e-05
20810.0 2.2445e-05
20830.0 2.2702e-05
20850.0 2.2955e-05
20870.0 2.3224e-05
20890.0 2.3494e-05
20910.0 2.3748e-05
20930.0 2.401e-05
20950.0 2.4279e-05
20970.0 2.4538e-05
20990.0 2.4792e-05
21010.0 2.5058e-05
21030.0 2.5318e-05
21050.0 2.5563e-05
21070.0 2.581e-05
21090.0 2.6059e-05
21110.0 2.6285e-05
21130.0 2.6499e-05
21150.0 2.6711e-05
21170.0 2.6905e-05
21190.0 2.7076e-05
21210.0 2.7237e-05
21230.0 2.738e-05
21250.0 2.7492e-05
21270.0 2.7577e-05
21290.0 2.7637e-05
21310.0 2.7662e-05
21330.0 2.765e-05
21350.0 2.7601e-05
21370.0 2.751e-05
21390.0 2.7376e-05
21410.0 2.72e-05
21430.0 2.6967e-05
21450.0 2.669e-05
21470.0 2.6376e-05
21490.0 2.601e-05
21510.0 2.5597e-05
21530.0 2.5164e-05
21550.0 2.4699e-05
21570.0 2.419e-05
21590.0 2.3676e-05
21610.0 2.3164e-05
21630.0 2.2637e-05
21650.0 2.2106e-05
21670.0 2.1627e-05
21690.0 2.1165e-05
21710.0 2.0727e-05
21730.0 2.0341e-05
21750.0 2.0011e-05
21770.0 1.9718e-05
21790.0 1.9487e-05
21810.0 1.9323e-05
21830.0 1.9217e-05
21850.0 1.9173e-05
21870.0 1.919e-05
21890.0 1.9261e-05
21910.0 1.939e-05
21930.0 1.9572e-05
21950.0 1.9791e-05
21970.0 2.0054e-05
21990.0 2.0372e-05
22010.0 2.0706e-05
22030.0 2.106e-05
22050.0 2.1448e-05
22070.0 2.1854e-05
22090.0 2.225e-05
22110.0 2.2664e-05
22130.0 2.3091e-05
22150.0 2.3502e-05
22170.0 2.3899e-05
22190.0 2.4305e-05
22210.0 2.4693e-05
22230.0 2.5041e-05
22250.0 2.5376e-05
22270.0 2.5691e-05
22290.0 2.5965e-05
22310.0 2.6204e-05
22330.0 2.642e-05
22350.0 2.6592e-05
22370.0 2.6717e-05
22390.0 2.6803e-05
22410.0 2.6844e-05
22430.0 2.6834e-05
22450.0 2.6779e-05
22470.0 2.6672e-05
22490.0 2.6515e-05
22510.0 2.6315e-05
22530.0 2.6057e-05
22550.0 2.5742e-05
22570.0 2.5391e-05
22590.0 2.4993e-05
22610.0 2.4535e-05
22630.0 2.4038e-05
22650.0 2.3522e-05
22670.0 2.295e-05
22690.0 2.2338e-05
22710.0 2.1717e-05
22730.0 2.1074e-05
