#lamb flux
1010.0 4.5143e-06
1030.0 4.7188e-06
1050.0 4.9561e-06
1070.0 5.2238e-06
1090.0 5.5283e-06
1110.0 5.842e-06
1130.0 6.1595e-06
1150.0 6.4937e-06
1170.0 6.8405e-06
1190.0 7.1721e-06
1210.0 7.5105e-06
1230.0 7.8626e-06
1250.0 8.2108e-06
1270.0 8.5526e-06
1290.0 8.9159e-06
1310.0 9.2825e-06
1330.0 9.6388e-06
1350.0 1.0003e-05
1370.0 1.0381e-05
1390.0 1.0756e-05
1410.0 1.1124e-05
1430.0 1.1512e-05
1450.0 1.1905e-05
1470.0 1.229e-05
1490.0 1.2683e-05
1510.0 1.31e-05
1530.0 1.3501e-05
1550.0 1.3901e-05
1570.0 1.4317e-05
1590.0 1.4735e-05
1610.0 1.5139e-05
1630.0 1.5555e-05
1650.0 1.5982e-05
1670.0 1.6396e-05
1690.0 1.6804e-05
1710.0 1.7224e-05
1730.0 1.7642e-05
1750.0 1.8035e-05
1770.0 1.8432e-05
1790.0 1.8831e-05
1810.0 1.921e-05
1830.0 1.9574e-05
1850.0 1.9951e-05
1870.0 2.0308e-05
1890.0 2.0642e-05
1910.0 2.0971e-05
1930.0 2.1297e-05
1950.0 2.1593e-05
1970.0 2.1874e-05
1990.0 2.2155e-05
2010.0 2.2418e-05
2030.0 2.2657e-05
2050.0 2.2896e-05
2070.0 2.3134e-05
2090.0 2.3344e-05
2110.0 2.3546e-05
2130.0 2.3753e-05
2150.0 2.3951e-05
2170.0 2.4134e-05
2190.0 2.433e-05
2210.0 2.4532e-05
2230.0 2.4727e-05
2250.0 2.493e-05
2270.0 2.5159e-05
2290.0 2.5392e-05
2310.0 2.5629e-05
2330.0 2.5896e-05
2350.0 2.6189e-05
2370.0 2.6494e-05
2390.0 2.683e-05
2410.0 2.7212e-05
2430.0 2.7618e-05
2450.0 2.8051e-05
2470.0 2.8529e-05
2490.0 2.9052e-05
2510.0 2.9615e-05
2530.0 3.0286e-05
2550.0 3.1182e-05
2570.0 3.245e-05
2590.0 3.4283e-05
2610.0 3.7136e-05
2630.0 4.123e-05
2650.0 4.6493e-05
2670.0 5.3079e-05
2690.0 6.0917e-05
2710.0 6.9186e-05
2730.0 7.7444e-05
2750.0 8.5835e-05
2770.0 9.3775e-05
2790.0 0.00010109
2810.0 0.00010817
2830.0 0.00011538
2850.0 0.00012238
2870.0 0.00012956
2890.0 0.00013722
2910.0 0.00014525
2930.0 0.00015345
2950.0 0.00016222
2970.0 0.00017152
2990.0 0.000181
3010.0 0.0003595
3030.0 0.00037881
3050.0 0.00039817
3070.0 0.00041608
3090.0 0.00043172
3110.0 0.00044144
3130.0 0.00044083
3150.0 0.00042495
3170.0 0.00038383
3190.0 0.00031616
3210.0 0.00022267
3230.0 0.00011682
3250.0 0.00022921
3270.0 9.4999e-05
3290.0 0.00035671
3310.0 6.5815e-05
3330.0 6.4962e-05
3350.0 0.00010189
3370.0 0.00014451
3390.0 0.00019003
3410.0 0.0002354
3430.0 0.00028294
3450.0 0.00033041
3470.0 0.00037382
3490.0 0.00040229
3510.0 0.00050615
3530.0 0.00069845
3550.0 0.00068745
3570.0 0.00055959
3590.0 0.00081278
3610.0 0.00048875
3630.0 0.00084527
3650.0 0.00098077
3670.0 0.0012807
3690.0 0.0012026
3710.0 0.00080429
3730.0 0.0010945
3750.0 0.0011353
3770.0 0.0011808
3790.0 0.0010732
3810.0 0.00097093
3830.0 0.0014449
3850.0 0.0016264
3870.0 0.002034
3890.0 0.0019085
3910.0 0.0016873
3930.0 0.0017849
3950.0 0.0019979
3970.0 0.002553
3990.0 0.0019232
4010.0 0.0011566
4030.0 0.0017091
4050.0 0.0019798
4070.0 0.0022637
4090.0 0.0018915
4110.0 0.0012215
4130.0 0.0017194
4150.0 0.0016018
4170.0 0.0016692
4190.0 0.0016382
4210.0 0.0021154
4230.0 0.0014362
4250.0 0.0017097
4270.0 0.001706
4290.0 0.0017075
4310.0 0.0021324
4330.0 0.002197
4350.0 0.0016647
4370.0 0.0014028
4390.0 0.0017706
4410.0 0.0018391
4430.0 0.0013948
4450.0 0.0013945
4470.0 0.0016561
4490.0 0.0011973
4510.0 0.0015101
4530.0 0.0016152
4550.0 0.0021466
4570.0 0.0031669
4590.0 0.0030041
4610.0 0.0019033
4630.0 0.0032188
4650.0 0.0047121
4670.0 0.00434
4690.0 0.0024939
4710.0 0.002756
4730.0 0.0036534
4750.0 0.0032488
4770.0 0.0024357
4790.0 0.0016183
4810.0 0.0024054
4830.0 0.0027983
4850.0 0.0024229
4870.0 0.00069304
4890.0 0.0026149
4910.0 0.0037244
4930.0 0.0039997
4950.0 0.0038967
4970.0 0.0022886
4990.0 0.0026783
5010.0 0.003243
5030.0 0.0036466
5050.0 0.0036371
5070.0 0.0025965
5090.0 0.0021047
5110.0 0.0019686
5130.0 0.0017532
5150.0 0.0019919
5170.0 0.001719
5190.0 0.0021606
5210.0 0.0021589
5230.0 0.0023702
5250.0 0.0029955
5270.0 0.0024497
5290.0 0.0023875
5310.0 0.0036187
5330.0 0.0042152
5350.0 0.003469
5370.0 0.0029759
5390.0 0.003456
5410.0 0.0044112
5430.0 0.0048674
5450.0 0.0051754
5470.0 0.0051179
5490.0 0.0049476
5510.0 0.0058253
5530.0 0.0060389
5550.0 0.0065027
5570.0 0.0069446
5590.0 0.0068799
5610.0 0.0064668
5630.0 0.0062182
5650.0 0.0063528
5670.0 0.006266
5690.0 0.0052914
5710.0 0.005127
5730.0 0.0052459
5750.0 0.0057592
5770.0 0.004948
5790.0 0.0045037
5810.0 0.0045438
5830.0 0.0047933
5850.0 0.0043579
5870.0 0.0044068
5890.0 0.0053215
5910.0 0.0050412
5930.0 0.0040588
5950.0 0.0034909
5970.0 0.0037913
5990.0 0.0035009
6010.0 0.0033148
6030.0 0.0034132
6050.0 0.00318
6070.0 0.0023399
6090.0 0.0020903
6110.0 0.0027778
6130.0 0.003236
6150.0 0.0033936
6170.0 0.0032611
6190.0 0.003012
6210.0 0.0029502
6230.0 0.0035056
6250.0 0.0032403
6270.0 0.0029675
6290.0 0.0027457
6310.0 0.0026027
6330.0 0.0024753
6350.0 0.0021519
6370.0 0.0021304
6390.0 0.0025337
6410.0 0.0031675
6430.0 0.0036404
6450.0 0.0033888
6470.0 0.003287
6490.0 0.0041656
6510.0 0.0048358
6530.0 0.0045594
6550.0 0.0043535
6570.0 0.0044231
6590.0 0.0042895
6610.0 0.0046844
6630.0 0.0043808
6650.0 0.0038207
6670.0 0.0034342
6690.0 0.0033671
6710.0 0.0042167
6730.0 0.0038444
6750.0 0.0032243
6770.0 0.0028532
6790.0 0.0030028
6810.0 0.0033845
6830.0 0.0033125
6850.0 0.0029837
6870.0 0.0031123
6890.0 0.0030749
6910.0 0.002897
6930.0 0.0033485
6950.0 0.0030743
6970.0 0.0028382
6990.0 0.0028157
7010.0 0.0027047
7030.0 0.0025628
7050.0 0.0024966
7070.0 0.0027648
7090.0 0.0026326
7110.0 0.0022564
7130.0 0.0018056
7150.0 0.0016471
7170.0 0.002234
7190.0 0.0024401
7210.0 0.0023289
7230.0 0.0024087
7250.0 0.0022181
7270.0 0.0020971
7290.0 0.002348
7310.0 0.0026629
7330.0 0.0026251
7350.0 0.0024517
7370.0 0.0023147
7390.0 0.0024043
7410.0 0.0028147
7430.0 0.0030873
7450.0 0.0032632
7470.0 0.0031823
7490.0 0.0033146
7510.0 0.0032047
7530.0 0.0031834
7550.0 0.0031687
7570.0 0.0027967
7590.0 0.002776
7610.0 0.0026888
7630.0 0.0024629
7650.0 0.0026845
7670.0 0.0029326
7690.0 0.003186
7710.0 0.0035855
7730.0 0.0038171
7750.0 0.0039896
7770.0 0.0040133
7790.0 0.0044112
7810.0 0.0045448
7830.0 0.0041487
7850.0 0.0041845
7870.0 0.0039921
7890.0 0.0041995
7910.0 0.0039861
7930.0 0.0040279
7950.0 0.0035152
7970.0 0.0036056
7990.0 0.0034515
8010.0 0.0035121
8030.0 0.0034986
8050.0 0.0036891
8070.0 0.0035485
8090.0 0.003564
8110.0 0.0034903
8130.0 0.0034932
8150.0 0.003334
8170.0 0.0032499
8190.0 0.0032179
8210.0 0.0032472
8230.0 0.0028668
8250.0 0.0026221
8270.0 0.0023097
8290.0 0.0019383
8310.0 0.0016846
8330.0 0.0013507
8350.0 0.0011275
8370.0 0.0011432
8390.0 0.0011446
8410.0 0.0012031
8430.0 0.0014954
8450.0 0.0016079
8470.0 0.0017086
8490.0 0.0019763
8510.0 0.0021535
8530.0 0.0024773
8550.0 0.0029321
8570.0 0.0032517
8590.0 0.0034672
8610.0 0.0037996
8630.0 0.0042215
8650.0 0.0043022
8670.0 0.0043632
8690.0 0.0045439
8710.0 0.0044851
8730.0 0.004417
8750.0 0.0041495
8770.0 0.0041579
8790.0 0.0041077
8810.0 0.0037887
8830.0 0.003801
8850.0 0.0035568
8870.0 0.003418
8890.0 0.0031055
8910.0 0.003366
8930.0 0.0030674
8950.0 0.0030318
8970.0 0.0030566
8990.0 0.0029577
9010.0 0.0030236
9030.0 0.0028918
9050.0 0.0028762
9070.0 0.0028739
9090.0 0.002871
9110.0 0.0028694
9130.0 0.0028655
9150.0 0.0028605
9170.0 0.0028481
9190.0 0.0028243
9210.0 0.002861
9230.0 0.0028459
9250.0 0.0028355
9270.0 0.0028259
9290.0 0.0028167
9310.0 0.0028078
9330.0 0.0027989
9350.0 0.0027898
9370.0 0.0027806
9390.0 0.0027711
9410.0 0.0027613
9430.0 0.0027512
9450.0 0.0027408
9470.0 0.0027302
9490.0 0.0027195
9510.0 0.0027086
9530.0 0.0026975
9550.0 0.0026862
9570.0 0.0026748
9590.0 0.0026632
9610.0 0.0026516
9630.0 0.0026398
9650.0 0.0026279
9670.0 0.002616
9690.0 0.002604
9710.0 0.002592
9730.0 0.00258
9750.0 0.0025679
9770.0 0.0025559
9790.0 0.0025439
9810.0 0.0025319
9830.0 0.00252
9850.0 0.0025082
9870.0 0.0024964
9890.0 0.0024846
9910.0 0.002473
9930.0 0.0024614
9950.0 0.0024439
9970.0 0.0024344
9990.0 0.0024247
10010.0 0.0024149
10030.0 0.0024048
10050.0 0.0023939
10070.0 0.0023801
10090.0 0.0023711
10110.0 0.0023618
10130.0 0.0023524
10150.0 0.0023432
10170.0 0.0023337
10190.0 0.002324
10210.0 0.0023148
10230.0 0.0023058
10250.0 0.0022968
10270.0 0.0022879
10290.0 0.0022796
10310.0 0.0022711
10330.0 0.0022627
10350.0 0.0022548
10370.0 0.0022472
10390.0 0.0022395
10410.0 0.002232
10430.0 0.0022251
10450.0 0.0022181
10470.0 0.0022113
10490.0 0.0022048
10510.0 0.0021986
10530.0 0.0021923
10550.0 0.0021863
10570.0 0.0021808
10590.0 0.0021753
10610.0 0.0021698
10630.0 0.0021649
10650.0 0.0021601
10670.0 0.0021552
10690.0 0.0021507
10710.0 0.0021465
10730.0 0.0021424
10750.0 0.0021382
10770.0 0.0021346
10790.0 0.0021312
10810.0 0.0021276
10830.0 0.0021244
10850.0 0.0021213
10870.0 0.0021177
10890.0 0.0021136
10910.0 0.0021087
10930.0 0.0021019
10950.0 0.0020915
10970.0 0.0020773
10990.0 0.0020587
11010.0 0.0020473
11030.0 0.0020169
11050.0 0.0019814
11070.0 0.0019404
11090.0 0.0018928
11110.0 0.0018453
11130.0 0.0017975
11150.0 0.0017482
11170.0 0.0016997
11190.0 0.001655
11210.0 0.001611
11230.0 0.0015681
11250.0 0.001529
11270.0 0.0014932
11290.0 0.0014585
11310.0 0.0014266
11330.0 0.0013991
11350.0 0.0013731
11370.0 0.0013488
11390.0 0.001327
11410.0 0.001307
11430.0 0.0012868
11450.0 0.0012677
11470.0 0.0012494
11490.0 0.0012307
11510.0 0.0012108
11530.0 0.0011912
11550.0 0.0011711
11570.0 0.0011491
11590.0 0.0011262
11610.0 0.0011033
11630.0 0.0010785
11650.0 0.0010521
11670.0 0.0010264
11690.0 0.0010003
11710.0 0.00097307
11730.0 0.00094625
11750.0 0.00092097
11770.0 0.00089517
11790.0 0.00086982
11810.0 0.0008464
11830.0 0.00082412
11850.0 0.00080174
11870.0 0.00078142
11890.0 0.00076306
11910.0 0.00074518
11930.0 0.00072819
11950.0 0.00071296
11970.0 0.00069841
11990.0 0.00068391
12010.0 0.00067057
12030.0 0.00065817
12050.0 0.00064582
12070.0 0.00063367
12090.0 0.00062297
12110.0 0.00061261
12130.0 0.00060251
12150.0 0.00059349
12170.0 0.00058568
12190.0 0.00057833
12210.0 0.00057241
12230.0 0.00056831
12250.0 0.00056579
12270.0 0.00056507
12290.0 0.00056657
12310.0 0.00057017
12330.0 0.00057603
12350.0 0.00058418
12370.0 0.00059419
12390.0 0.00060618
12410.0 0.00062044
12430.0 0.00063548
12450.0 0.00065133
12470.0 0.0006682
12490.0 0.00068527
12510.0 0.00070161
12530.0 0.00071788
12550.0 0.00073368
12570.0 0.0007481
12590.0 0.00076131
12610.0 0.00077362
12630.0 0.00078451
12650.0 0.00079373
12670.0 0.00080183
12690.0 0.00080868
12710.0 0.00081423
12730.0 0.00081866
12750.0 0.00082197
12770.0 0.00082422
12790.0 0.00082556
12810.0 0.0008259
12830.0 0.00082518
12850.0 0.00082376
12870.0 0.00082152
12890.0 0.00081814
12910.0 0.00081394
12930.0 0.00080914
12950.0 0.00080309
12970.0 0.00079588
12990.0 0.00078829
13010.0 0.00077984
13030.0 0.00077016
13050.0 0.00075991
13070.0 0.00074955
13090.0 0.00073812
13110.0 0.00072618
13130.0 0.00071458
13150.0 0.00070299
13170.0 0.00069096
13190.0 0.00067998
13210.0 0.00067018
13230.0 0.00066098
13250.0 0.00065295
13270.0 0.00064667
13290.0 0.0006417
13310.0 0.00063803
13330.0 0.00063601
13350.0 0.00063535
13370.0 0.00063572
13390.0 0.00063697
13410.0 0.00063874
13430.0 0.00064067
13450.0 0.00064241
13470.0 0.00064363
13490.0 0.0006441
13510.0 0.00064345
13530.0 0.00064158
13550.0 0.00063861
13570.0 0.0006344
13590.0 0.00062886
13610.0 0.00062256
13630.0 0.00061575
13650.0 0.00060805
13670.0 0.0006001
13690.0 0.00059237
13710.0 0.00058459
13730.0 0.00057667
13750.0 0.0005696
13770.0 0.00056297
13790.0 0.00055653
13810.0 0.00055053
13830.0 0.00054513
13850.0 0.00053981
13870.0 0.00053459
13890.0 0.00052969
13910.0 0.00052489
13930.0 0.00051992
13950.0 0.00051499
13970.0 0.0005103
13990.0 0.00050551
14010.0 0.00050071
14030.0 0.0004962
14050.0 0.0004919
14070.0 0.00048765
14090.0 0.00048383
14110.0 0.00048047
14130.0 0.00047745
14150.0 0.00047484
14170.0 0.00047278
14190.0 0.00047117
14210.0 0.00047
14230.0 0.00046932
14250.0 0.00046907
14270.0 0.0004693
14290.0 0.00047003
14310.0 0.00047109
14330.0 0.00047253
14350.0 0.00047441
14370.0 0.00047652
14390.0 0.00047872
14410.0 0.00048122
14430.0 0.0004838
14450.0 0.00048622
14470.0 0.00048856
14490.0 0.00049093
14510.0 0.00049296
14530.0 0.0004947
14550.0 0.00049636
14570.0 0.00049789
14590.0 0.00049922
14610.0 0.00050061
14630.0 0.00050226
14650.0 0.00050405
14670.0 0.00050613
14690.0 0.00050884
14710.0 0.00051224
14730.0 0.00051599
14750.0 0.00052058
14770.0 0.00052615
14790.0 0.00053232
14810.0 0.00053899
14830.0 0.00054696
14850.0 0.00055539
14870.0 0.00056384
14890.0 0.00057267
14910.0 0.00058171
14930.0 0.00058989
14950.0 0.00059703
14970.0 0.00060336
14990.0 0.00060801
15010.0 0.00061077
15030.0 0.00061198
15050.0 0.00061174
15070.0 0.00061012
15090.0 0.00060765
15110.0 0.00060458
15130.0 0.00060113
15150.0 0.00059753
15170.0 0.00059379
15190.0 0.00058998
15210.0 0.00058619
15230.0 0.0005824
15250.0 0.00057857
15270.0 0.00057475
15290.0 0.00057099
15310.0 0.00056719
15330.0 0.00056339
15350.0 0.00055963
15370.0 0.00055588
15390.0 0.00055209
15410.0 0.00054833
15430.0 0.00054461
15450.0 0.00054087
15470.0 0.00053713
15490.0 0.00053344
15510.0 0.00052977
15530.0 0.00052607
15550.0 0.0005224
15570.0 0.00051878
15590.0 0.00051513
15610.0 0.00051149
15630.0 0.0005079
15650.0 0.00050433
15670.0 0.00050075
15690.0 0.0004972
15710.0 0.0004937
15730.0 0.00049018
15750.0 0.00048667
15770.0 0.00048322
15790.0 0.00047978
15810.0 0.00047632
15830.0 0.00047291
15850.0 0.00046955
15870.0 0.00046618
15890.0 0.00046283
15910.0 0.00045953
15930.0 0.00045624
15950.0 0.00045294
15970.0 0.00044969
15990.0 0.00044648
16010.0 0.00044327
16030.0 0.00044006
16050.0 0.00043694
16070.0 0.00043381
16090.0 0.00043069
16110.0 0.00042761
16130.0 0.00042458
16150.0 0.00042152
16170.0 0.00041849
16190.0 0.00041553
16210.0 0.00041257
16230.0 0.00040962
16250.0 0.00040672
16270.0 0.00040386
16290.0 0.00040098
16310.0 0.00039814
16330.0 0.00039535
16350.0 0.00039257
16370.0 0.00038977
16390.0 0.00038706
16410.0 0.00038436
16430.0 0.00038167
16450.0 0.000379
16470.0 0.0003764
16490.0 0.00037378
16510.0 0.00037118
16530.0 0.00036863
16550.0 0.0003661
16570.0 0.00036357
16590.0 0.00036107
16610.0 0.00035864
16630.0 0.0003562
16650.0 0.00035377
16670.0 0.0003514
16690.0 0.00034904
16710.0 0.00034667
16730.0 0.00034435
16750.0 0.00034207
16770.0 0.00033979
16790.0 0.00033753
16810.0 0.00033532
16830.0 0.00033313
16850.0 0.00033093
16870.0 0.00032877
16890.0 0.00032666
16910.0 0.00032453
16930.0 0.00032241
16950.0 0.00032036
16970.0 0.00031832
16990.0 0.00031627
17010.0 0.00031427
17030.0 0.00031231
17050.0 0.00031033
17070.0 0.00030838
17090.0 0.00030647
17110.0 0.00030457
17130.0 0.00030266
17150.0 0.0003008
17170.0 0.00029898
17190.0 0.00029715
17210.0 0.00029533
17230.0 0.00029357
17250.0 0.00029181
17270.0 0.00029004
17290.0 0.00028831
17310.0 0.00028662
17330.0 0.00028491
17350.0 0.00028322
17370.0 0.00028159
17390.0 0.00027996
17410.0 0.00027833
17430.0 0.00027673
17450.0 0.00027516
17470.0 0.00027357
17490.0 0.00027201
17510.0 0.00027049
17530.0 0.00026897
17550.0 0.00026745
17570.0 0.00026598
17590.0 0.00026452
17610.0 0.00026305
17630.0 0.00026161
17650.0 0.0002602
17670.0 0.00025879
17690.0 0.00025736
17710.0 0.000256
17730.0 0.00025465
17750.0 0.00025329
17770.0 0.00025195
17790.0 0.00025065
17810.0 0.00024933
17830.0 0.00024802
17850.0 0.00024675
17870.0 0.00024549
17890.0 0.00024422
17910.0 0.00024297
17930.0 0.00024177
17950.0 0.00024055
17970.0 0.00023934
17990.0 0.00023816
18010.0 0.000237
18030.0 0.0002358
18050.0 0.00023465
18070.0 0.00023352
18090.0 0.00023239
18110.0 0.00023125
18130.0 0.00023017
18150.0 0.00022908
18170.0 0.00022798
18190.0 0.00022691
18210.0 0.00022586
18230.0 0.0002248
18250.0 0.00022374
18270.0 0.00022273
18290.0 0.00022171
18310.0 0.00022069
18330.0 0.00021969
18350.0 0.00021872
18370.0 0.00021773
18390.0 0.00021675
18410.0 0.0002158
18430.0 0.00021485
18450.0 0.00021389
18470.0 0.00021296
18490.0 0.00021205
18510.0 0.00021113
18530.0 0.00021021
18550.0 0.00020934
18570.0 0.00020845
18590.0 0.00020755
18610.0 0.00020668
18630.0 0.00020583
18650.0 0.00020496
18670.0 0.0002041
18690.0 0.00020328
18710.0 0.00020245
18730.0 0.00020161
18750.0 0.0002008
18770.0 0.00020001
18790.0 0.00019918
18810.0 0.00019838
18830.0 0.00019761
18850.0 0.00019682
18870.0 0.00019604
18890.0 0.00019528
18910.0 0.00019453
18930.0 0.00019377
18950.0 0.00019301
18970.0 0.00019229
18990.0 0.00019155
19010.0 0.0001908
19030.0 0.00019009
19050.0 0.00018938
19070.0 0.00018866
19090.0 0.00018796
19110.0 0.00018728
19130.0 0.00018658
19150.0 0.00018588
19170.0 0.0001852
19190.0 0.00018454
19210.0 0.00018385
19230.0 0.00018318
19250.0 0.00018254
19270.0 0.00018188
19290.0 0.00018122
19310.0 0.00018059
19330.0 0.00017996
19350.0 0.00017929
19370.0 0.00017866
19390.0 0.00017805
19410.0 0.00017742
19430.0 0.00017679
19450.0 0.0001762
19470.0 0.0001756
19490.0 0.00017498
19510.0 0.00017438
19530.0 0.0001738
19550.0 0.00017319
19570.0 0.00017259
19590.0 0.00017202
19610.0 0.00017144
19630.0 0.00017086
19650.0 0.00017029
19670.0 0.00016974
19690.0 0.00016916
19710.0 0.00016859
19730.0 0.00016804
19750.0 0.00016749
19770.0 0.00016691
19790.0 0.00016637
19810.0 0.00016584
19830.0 0.00016528
19850.0 0.00016472
19870.0 0.00016418
19890.0 0.00016359
19910.0 0.00016291
19930.0 0.00016218
19950.0 0.00016131
19970.0 0.00016019
19990.0 0.00015882
20010.0 0.00015723
20030.0 0.00015528
20050.0 0.000153
20070.0 0.00015055
20090.0 0.00014793
20110.0 0.00014501
20130.0 0.0001421
20150.0 0.00013926
20170.0 0.00013637
20190.0 0.00013348
20210.0 0.00013079
20230.0 0.00012821
20250.0 0.00012565
20270.0 0.00012332
20290.0 0.00012122
20310.0 0.00011926
20330.0 0.00011748
20350.0 0.00011606
20370.0 0.00011486
20390.0 0.0001139
20410.0 0.00011323
20430.0 0.00011285
20450.0 0.00011273
20470.0 0.00011291
20490.0 0.00011334
20510.0 0.00011403
20530.0 0.000115
20550.0 0.00011617
20570.0 0.00011748
20590.0 0.00011902
20610.0 0.0001207
20630.0 0.00012243
20650.0 0.00012423
20670.0 0.00012616
20690.0 0.000128
20710.0 0.00012977
20730.0 0.00013152
20750.0 0.00013317
20770.0 0.00013462
20790.0 0.00013595
20810.0 0.00013716
20830.0 0.00013816
20850.0 0.00013898
20870.0 0.00013965
20890.0 0.00014015
20910.0 0.00014048
20930.0 0.00014068
20950.0 0.00014074
20970.0 0.00014069
20990.0 0.00014053
21010.0 0.00014027
21030.0 0.00013991
21050.0 0.00013949
21070.0 0.00013899
21090.0 0.0001384
21110.0 0.00013777
21130.0 0.00013711
21150.0 0.00013638
21170.0 0.00013562
21190.0 0.00013488
21210.0 0.0001341
21230.0 0.00013331
21250.0 0.00013258
21270.0 0.0001319
21290.0 0.00013124
21310.0 0.00013066
21330.0 0.00013019
21350.0 0.00012978
21370.0 0.00012947
21390.0 0.00012928
21410.0 0.00012919
21430.0 0.00012921
21450.0 0.00012935
21470.0 0.00012959
21490.0 0.00012994
21510.0 0.0001304
21530.0 0.00013093
21550.0 0.00013155
21570.0 0.00013226
21590.0 0.00013304
21610.0 0.00013386
21630.0 0.00013477
21650.0 0.00013575
21670.0 0.00013672
21690.0 0.00013776
21710.0 0.00013886
21730.0 0.00013998
21750.0 0.00014111
21770.0 0.00014234
21790.0 0.00014361
21810.0 0.00014488
21830.0 0.00014619
21850.0 0.00014759
21870.0 0.00014899
21890.0 0.00015037
21910.0 0.00015185
21930.0 0.00015334
21950.0 0.0001548
21970.0 0.00015628
21990.0 0.00015782
22010.0 0.00015928
22030.0 0.00016068
22050.0 0.00016207
22070.0 0.0001634
22090.0 0.00016459
22110.0 0.0001657
22130.0 0.00016672
22150.0 0.00016757
22170.0 0.00016826
22190.0 0.00016879
22210.0 0.00016913
22230.0 0.00016926
22250.0 0.00016918
22270.0 0.00016888
22290.0 0.00016837
22310.0 0.00016765
22330.0 0.00016667
22350.0 0.00016547
22370.0 0.00016411
22390.0 0.00016253
22410.0 0.00016069
22430.0 0.00015878
22450.0 0.00015673
22470.0 0.00015448
22490.0 0.00015214
22510.0 0.0001498
22530.0 0.0001473
22550.0 0.00014471
22570.0 0.00014222
22590.0 0.00013973
22610.0 0.00013718
22630.0 0.0001347
22650.0 0.00013239
22670.0 0.00013006
22690.0 0.0001278
22710.0 0.0001257
22730.0 0.00012371
22750.0 0.00012171
22770.0 0.00011991
22790.0 0.00011827
22810.0 0.00011668
22830.0 0.00011519
22850.0 0.00011387
22870.0 0.00011264
22890.0 0.00011147
22910.0 0.00011044
22930.0 0.00010953
22950.0 0.00010869
22970.0 0.00010793
22990.0 0.00010733
23010.0 0.0001068
23030.0 0.00010636
23050.0 0.00010603
