#lamb flux
1010.0 1.2853e-06
1030.0 1.405e-06
1050.0 1.5434e-06
1070.0 1.6997e-06
1090.0 1.8778e-06
1110.0 2.0617e-06
1130.0 2.2482e-06
1150.0 2.4449e-06
1170.0 2.6496e-06
1190.0 2.8461e-06
1210.0 3.0474e-06
1230.0 3.2575e-06
1250.0 3.4663e-06
1270.0 3.6724e-06
1290.0 3.8922e-06
1310.0 4.1153e-06
1330.0 4.3334e-06
1350.0 4.5572e-06
1370.0 4.7911e-06
1390.0 5.0237e-06
1410.0 5.2539e-06
1430.0 5.4969e-06
1450.0 5.7435e-06
1470.0 5.9868e-06
1490.0 6.2356e-06
1510.0 6.4993e-06
1530.0 6.7544e-06
1550.0 7.0091e-06
1570.0 7.273e-06
1590.0 7.5387e-06
1610.0 7.7955e-06
1630.0 8.059e-06
1650.0 8.3278e-06
1670.0 8.5879e-06
1690.0 8.843e-06
1710.0 9.1034e-06
1730.0 9.3609e-06
1750.0 9.5997e-06
1770.0 9.8387e-06
1790.0 1.0075e-05
1810.0 1.0296e-05
1830.0 1.0504e-05
1850.0 1.0714e-05
1870.0 1.0908e-05
1890.0 1.1082e-05
1910.0 1.1248e-05
1930.0 1.1405e-05
1950.0 1.1538e-05
1970.0 1.1654e-05
1990.0 1.1763e-05
2010.0 1.1853e-05
2030.0 1.1921e-05
2050.0 1.1979e-05
2070.0 1.2027e-05
2090.0 1.2048e-05
2110.0 1.2054e-05
2130.0 1.2052e-05
2150.0 1.2033e-05
2170.0 1.1993e-05
2190.0 1.1949e-05
2210.0 1.1894e-05
2230.0 1.1822e-05
2250.0 1.1741e-05
2270.0 1.1659e-05
2290.0 1.1564e-05
2310.0 1.1457e-05
2330.0 1.1349e-05
2350.0 1.1239e-05
2370.0 1.1119e-05
2390.0 1.0997e-05
2410.0 1.0878e-05
2430.0 1.075e-05
2450.0 1.0613e-05
2470.0 1.0469e-05
2490.0 1.0313e-05
2510.0 1.0142e-05
2530.0 9.9717e-06
2550.0 9.8296e-06
2570.0 9.7552e-06
2590.0 9.7964e-06
2610.0 1.005e-05
2630.0 1.0564e-05
2650.0 1.1315e-05
2670.0 1.2323e-05
2690.0 1.3563e-05
2710.0 1.4855e-05
2730.0 1.6105e-05
2750.0 1.7346e-05
2770.0 1.8458e-05
2790.0 1.9402e-05
2810.0 2.0268e-05
2830.0 2.1127e-05
2850.0 2.19e-05
2870.0 2.2666e-05
2890.0 2.3483e-05
2910.0 2.4319e-05
2930.0 2.5129e-05
2950.0 2.5995e-05
2970.0 2.6901e-05
2990.0 2.7789e-05
3010.0 6.354e-05
3030.0 6.5656e-05
3050.0 6.7819e-05
3070.0 6.9886e-05
3090.0 7.205e-05
3110.0 7.4247e-05
3130.0 7.633e-05
3150.0 7.8307e-05
3170.0 8.027e-05
3190.0 8.1962e-05
3210.0 8.3255e-05
3230.0 8.4437e-05
3250.0 8.3059e-05
3270.0 8.3972e-05
3290.0 8.3184e-05
3310.0 9.0417e-05
3330.0 9.7057e-05
3350.0 0.0001043
3370.0 0.00011266
3390.0 0.00012207
3410.0 0.00013186
3430.0 0.00014237
3450.0 0.00015399
3470.0 0.00016631
3490.0 0.00017917
3510.0 0.00019278
3530.0 0.00020731
3550.0 0.000226
3570.0 0.00024758
3590.0 0.00026549
3610.0 0.00028558
3630.0 0.00029314
3650.0 0.00029912
3670.0 0.00030283
3690.0 0.00031133
3710.0 0.00032096
3730.0 0.00031566
3750.0 0.00030633
3770.0 0.00029352
3790.0 0.00027858
3810.0 0.00025967
3830.0 0.00022968
3850.0 0.00014349
3870.0 0.00019937
3890.0 0.00027181
3910.0 0.00033538
3930.0 0.00038676
3950.0 0.00041058
3970.0 0.00042807
3990.0 0.00051428
4010.0 0.00048621
4030.0 0.00042582
4050.0 0.00037773
4070.0 0.00034005
4090.0 0.00039839
4110.0 0.00042477
4130.0 0.00042833
4150.0 0.00042292
4170.0 0.00039781
4190.0 0.00037586
4210.0 0.00044374
4230.0 0.00050271
4250.0 0.00051199
4270.0 0.00049386
4290.0 0.00050314
4310.0 0.00053407
4330.0 0.00060617
4350.0 0.00065076
4370.0 0.0006416
4390.0 0.00054103
4410.0 0.00046318
4430.0 0.0003927
4450.0 0.00034134
4470.0 0.00035506
4490.0 0.00044289
4510.0 0.00048
4530.0 0.00052741
4550.0 0.00056755
4570.0 0.00070247
4590.0 0.0010212
4610.0 0.001334
4630.0 0.0013375
4650.0 0.0012527
4670.0 0.0013483
4690.0 0.0015206
4710.0 0.0012854
4730.0 0.00093268
4750.0 0.0007251
4770.0 0.00067781
4790.0 0.00069155
4810.0 0.0006428
4830.0 0.00069888
4850.0 0.00085275
4870.0 0.0010451
4890.0 0.00095309
4910.0 0.00081427
4930.0 0.00087744
4950.0 0.0011546
4970.0 0.0015225
4990.0 0.0015758
5010.0 0.0013776
5030.0 0.0010583
5050.0 0.00075643
5070.0 0.00062514
5090.0 0.00058321
5110.0 0.00058389
5130.0 0.00061002
5150.0 0.00059994
5170.0 0.00061433
5190.0 0.00058728
5210.0 0.00059868
5230.0 0.00064715
5250.0 0.00070066
5270.0 0.00087026
5290.0 0.0010176
5310.0 0.0010134
5330.0 0.0010469
5350.0 0.0011971
5370.0 0.0013073
5390.0 0.0012092
5410.0 0.0010327
5430.0 0.00097522
5450.0 0.0011297
5470.0 0.0014741
5490.0 0.0018414
5510.0 0.0020153
5530.0 0.0020414
5550.0 0.0019394
5570.0 0.0018293
5590.0 0.0017808
5610.0 0.0018126
5630.0 0.0018478
5650.0 0.0018509
5670.0 0.0018535
5690.0 0.0018133
5710.0 0.001595
5730.0 0.0013466
5750.0 0.0011492
5770.0 0.0011793
5790.0 0.0012969
5810.0 0.001404
5830.0 0.0014588
5850.0 0.0014507
5870.0 0.0013423
5890.0 0.0011776
5910.0 0.0011782
5930.0 0.0013075
5950.0 0.0013338
5970.0 0.0012161
5990.0 0.0010528
6010.0 0.00086093
6030.0 0.00072246
6050.0 0.00072785
6070.0 0.00083985
6090.0 0.0008853
6110.0 0.0007872
6130.0 0.00073109
6150.0 0.00079531
6170.0 0.00095976
6190.0 0.0011428
6210.0 0.001216
6230.0 0.0011637
6250.0 0.0010686
6270.0 0.0009211
6290.0 0.00076375
6310.0 0.00063858
6330.0 0.00058896
6350.0 0.00062248
6370.0 0.00065645
6390.0 0.00069534
6410.0 0.00079962
6430.0 0.0010074
6450.0 0.0012697
6470.0 0.0014165
6490.0 0.0013884
6510.0 0.0013667
6530.0 0.0014166
6550.0 0.0014324
6570.0 0.0014565
6590.0 0.0014621
6610.0 0.0014361
6630.0 0.0014522
6650.0 0.0014451
6670.0 0.0013723
6690.0 0.0012168
6710.0 0.0010339
6730.0 0.0010161
6750.0 0.0011021
6770.0 0.001187
6790.0 0.0012167
6810.0 0.001206
6830.0 0.0011864
6850.0 0.001162
6870.0 0.0010914
6890.0 0.0010397
6910.0 0.00098689
6930.0 0.00096153
6950.0 0.001037
6970.0 0.0011139
6990.0 0.0011677
7010.0 0.0011739
7030.0 0.0011041
7050.0 0.00095885
7070.0 0.00077815
7090.0 0.00066324
7110.0 0.00064815
7130.0 0.00069417
7150.0 0.00069074
7170.0 0.00062638
7190.0 0.00062052
7210.0 0.00068734
7230.0 0.0007972
7250.0 0.00090638
7270.0 0.0009467
7290.0 0.00087661
7310.0 0.0007744
7330.0 0.00071073
7350.0 0.0007018
7370.0 0.00072294
7390.0 0.0007513
7410.0 0.0008022
7430.0 0.00092193
7450.0 0.0010742
7470.0 0.0012163
7490.0 0.001273
7510.0 0.0012266
7530.0 0.0010238
7550.0 0.00083948
7570.0 0.00070084
7590.0 0.00061976
7610.0 0.00064458
7630.0 0.0007455
7650.0 0.00085076
7670.0 0.00095147
7690.0 0.0010257
7710.0 0.0010864
7730.0 0.0011446
7750.0 0.0011991
7770.0 0.0012246
7790.0 0.0012171
7810.0 0.0012327
7830.0 0.001275
7850.0 0.0012601
7870.0 0.0012155
7890.0 0.001134
7910.0 0.0010588
7930.0 0.0010147
7950.0 0.00099936
7970.0 0.00098422
7990.0 0.00098427
8010.0 0.001002
8030.0 0.0010046
8050.0 0.0010233
8070.0 0.0010084
8090.0 0.0010044
8110.0 0.0009607
8130.0 0.00095194
8150.0 0.00092633
8170.0 0.00089801
8190.0 0.00088258
8210.0 0.00088621
8230.0 0.00083923
8250.0 0.0007916
8270.0 0.00069218
8290.0 0.00055517
8310.0 0.00042115
8330.0 0.00031993
8350.0 0.00028545
8370.0 0.00032781
8390.0 0.00038714
8410.0 0.00042726
8430.0 0.00046297
8450.0 0.00048571
8470.0 0.00050865
8490.0 0.00056373
8510.0 0.00063203
8530.0 0.00073372
8550.0 0.00085387
8570.0 0.00096259
8590.0 0.0010493
8610.0 0.0011165
8630.0 0.0011553
8650.0 0.0011581
8670.0 0.0011574
8690.0 0.0011954
8710.0 0.0012274
8730.0 0.0012579
8750.0 0.0012373
8770.0 0.0012416
8790.0 0.0012238
8810.0 0.0011391
8830.0 0.0010989
8850.0 0.0010315
8870.0 0.000979
8890.0 0.00094055
8910.0 0.00095602
8930.0 0.00090133
8950.0 0.00086133
8970.0 0.00084461
8990.0 0.00082629
9010.0 0.00080418
9030.0 0.00078448
9050.0 0.00077948
9070.0 0.00077713
9090.0 0.00077489
9110.0 0.00077276
9130.0 0.00077047
9150.0 0.00076813
9170.0 0.00076499
9190.0 0.00076121
9210.0 0.0007642
9230.0 0.00076029
9250.0 0.00075712
9270.0 0.00075418
9290.0 0.00075141
9310.0 0.00074869
9330.0 0.00074603
9350.0 0.00074343
9370.0 0.00074082
9390.0 0.00073816
9410.0 0.00073551
9430.0 0.00073282
9450.0 0.0007297
9470.0 0.00072669
9490.0 0.00072438
9510.0 0.00072183
9530.0 0.00071921
9550.0 0.00071655
9570.0 0.00071384
9590.0 0.0007111
9610.0 0.00070835
9630.0 0.00070559
9650.0 0.00070282
9670.0 0.00070003
9690.0 0.00069724
9710.0 0.00069445
9730.0 0.00069166
9750.0 0.00068885
9770.0 0.00068606
9790.0 0.00068326
9810.0 0.00068045
9830.0 0.00067764
9850.0 0.00067485
9870.0 0.00067202
9890.0 0.0006692
9910.0 0.00066639
9930.0 0.0006635
9950.0 0.00065593
9970.0 0.00065451
9990.0 0.00065283
10010.0 0.00065098
10030.0 0.00064875
10050.0 0.00064618
10070.0 0.00064344
10090.0 0.00064088
10110.0 0.00063803
10130.0 0.00063535
10150.0 0.00063261
10170.0 0.0006297
10190.0 0.00062665
10210.0 0.0006238
10230.0 0.00062103
10250.0 0.00061806
10270.0 0.00061513
10290.0 0.00061236
10310.0 0.00060943
10330.0 0.00060633
10350.0 0.00060346
10370.0 0.00060058
10390.0 0.00059753
10410.0 0.00059449
10430.0 0.00059166
10450.0 0.00058863
10470.0 0.00058551
10490.0 0.00058253
10510.0 0.00057957
10530.0 0.0005763
10550.0 0.00057315
10570.0 0.00057016
10590.0 0.00056699
10610.0 0.00056372
10630.0 0.00056064
10650.0 0.00055751
10670.0 0.00055412
10690.0 0.00055084
10710.0 0.00054765
10730.0 0.00054429
10750.0 0.00054074
10770.0 0.00053749
10790.0 0.00053415
10810.0 0.00053061
10830.0 0.00052713
10850.0 0.00052379
10870.0 0.00052006
10890.0 0.00051626
10910.0 0.00051252
10930.0 0.00050853
10950.0 0.00050402
10970.0 0.00049925
10990.0 0.00049428
11010.0 0.00045834
11030.0 0.00045222
11050.0 0.00044638
11070.0 0.00044048
11090.0 0.00043424
11110.0 0.00042856
11130.0 0.00042313
11150.0 0.00041758
11170.0 0.00041215
11190.0 0.00040714
11210.0 0.00040203
11230.0 0.00039677
11250.0 0.00039178
11270.0 0.00038694
11290.0 0.00038186
11310.0 0.00037684
11330.0 0.00037226
11350.0 0.0003676
11370.0 0.00036289
11390.0 0.00035845
11410.0 0.00035415
11430.0 0.00034955
11450.0 0.00034507
11470.0 0.00034073
11490.0 0.00033618
11510.0 0.0003313
11530.0 0.00032655
11550.0 0.00032167
11570.0 0.00031633
11590.0 0.00031083
11610.0 0.00030534
11630.0 0.0002994
11650.0 0.00029307
11670.0 0.00028695
11690.0 0.00028072
11710.0 0.00027417
11730.0 0.0002677
11750.0 0.00026159
11770.0 0.0002553
11790.0 0.00024907
11810.0 0.00024328
11830.0 0.00023772
11850.0 0.00023209
11870.0 0.00022695
11890.0 0.00022226
11910.0 0.00021768
11930.0 0.0002133
11950.0 0.00020937
11970.0 0.00020562
11990.0 0.0002019
12010.0 0.00019851
12030.0 0.00019539
12050.0 0.00019233
12070.0 0.00018938
12090.0 0.00018682
12110.0 0.00018439
12130.0 0.00018207
12150.0 0.00018004
12170.0 0.00017829
12190.0 0.00017667
12210.0 0.00017536
12230.0 0.00017442
12250.0 0.00017378
12270.0 0.00017348
12290.0 0.0001736
12310.0 0.00017412
12330.0 0.00017506
12350.0 0.00017645
12370.0 0.00017823
12390.0 0.00018044
12410.0 0.00018316
12430.0 0.00018615
12450.0 0.0001894
12470.0 0.00019302
12490.0 0.00019684
12510.0 0.00020063
12530.0 0.00020457
12550.0 0.00020857
12570.0 0.00021235
12590.0 0.00021591
12610.0 0.00021934
12630.0 0.00022244
12650.0 0.00022504
12670.0 0.0002273
12690.0 0.00022914
12710.0 0.00023048
12730.0 0.00023137
12750.0 0.0002318
12770.0 0.00023176
12790.0 0.00023133
12810.0 0.0002305
12830.0 0.00022927
12850.0 0.00022781
12870.0 0.00022612
12890.0 0.00022415
12910.0 0.00022204
12930.0 0.00021989
12950.0 0.00021756
12970.0 0.0002151
12990.0 0.00021274
13010.0 0.00021035
13030.0 0.00020784
13050.0 0.00020534
13070.0 0.00020293
13090.0 0.00020038
13110.0 0.00019779
13130.0 0.00019528
13150.0 0.00019277
13170.0 0.00019014
13190.0 0.00018767
13210.0 0.00018537
13230.0 0.00018313
13250.0 0.00018107
13270.0 0.00017934
13290.0 0.00017785
13310.0 0.00017664
13330.0 0.00017583
13350.0 0.00017538
13370.0 0.00017528
13390.0 0.00017551
13410.0 0.00017599
13430.0 0.00017667
13450.0 0.00017746
13470.0 0.00017825
13490.0 0.00017892
13510.0 0.00017943
13530.0 0.00017963
13550.0 0.00017948
13570.0 0.00017892
13590.0 0.0001779
13610.0 0.00017649
13630.0 0.00017473
13650.0 0.00017255
13670.0 0.00017007
13690.0 0.00016747
13710.0 0.00016469
13730.0 0.00016171
13750.0 0.0001589
13770.0 0.00015619
13790.0 0.00015351
13810.0 0.00015101
13830.0 0.00014879
13850.0 0.00014671
13870.0 0.0001448
13890.0 0.00014316
13910.0 0.00014172
13930.0 0.00014041
13950.0 0.00013928
13970.0 0.00013835
13990.0 0.0001375
14010.0 0.00013675
14030.0 0.00013611
14050.0 0.00013554
14070.0 0.00013499
14090.0 0.00013449
14110.0 0.00013401
14130.0 0.00013352
14150.0 0.00013301
14170.0 0.0001325
14190.0 0.00013196
14210.0 0.00013137
14230.0 0.00013076
14250.0 0.00013015
14270.0 0.0001295
14290.0 0.00012886
14310.0 0.00012825
14330.0 0.00012768
14350.0 0.00012714
14370.0 0.00012666
14390.0 0.00012625
14410.0 0.0001259
14430.0 0.0001256
14450.0 0.00012535
14470.0 0.00012514
14490.0 0.00012496
14510.0 0.0001248
14530.0 0.00012464
14550.0 0.0001245
14570.0 0.00012438
14590.0 0.00012426
14610.0 0.00012418
14630.0 0.00012414
14650.0 0.00012416
14670.0 0.00012426
14690.0 0.00012446
14710.0 0.0001248
14730.0 0.00012523
14750.0 0.00012581
14770.0 0.00012659
14790.0 0.00012751
14810.0 0.00012858
14830.0 0.00012993
14850.0 0.00013146
14870.0 0.00013311
14890.0 0.00013495
14910.0 0.00013697
14930.0 0.00013896
14950.0 0.00014084
14970.0 0.00014265
14990.0 0.00014417
15010.0 0.00014529
15030.0 0.00014608
15050.0 0.00014654
15070.0 0.00014665
15090.0 0.00014655
15110.0 0.0001463
15130.0 0.00014594
15150.0 0.00014553
15170.0 0.0001451
15190.0 0.00014464
15210.0 0.00014419
15230.0 0.00014373
15250.0 0.00014326
15270.0 0.0001428
15290.0 0.00014233
15310.0 0.00014187
15330.0 0.0001414
15350.0 0.00014094
15370.0 0.00014047
15390.0 0.00014
15410.0 0.00013953
15430.0 0.00013906
15450.0 0.00013859
15470.0 0.00013812
15490.0 0.00013765
15510.0 0.00013719
15530.0 0.00013671
15550.0 0.00013624
15570.0 0.00013577
15590.0 0.0001353
15610.0 0.00013483
15630.0 0.00013436
15650.0 0.00013389
15670.0 0.00013342
15690.0 0.00013295
15710.0 0.00013248
15730.0 0.00013201
15750.0 0.00013154
15770.0 0.00013107
15790.0 0.0001306
15810.0 0.00013013
15830.0 0.00012966
15850.0 0.0001292
15870.0 0.00012873
15890.0 0.00012826
15910.0 0.0001278
15930.0 0.00012734
15950.0 0.00012687
15970.0 0.00012641
15990.0 0.00012595
16010.0 0.00012548
16030.0 0.00012502
16050.0 0.00012456
16070.0 0.0001241
16090.0 0.00012364
16110.0 0.00012319
16130.0 0.00012274
16150.0 0.00012228
16170.0 0.00012182
16190.0 0.00012137
16210.0 0.00012092
16230.0 0.00012047
16250.0 0.00012002
16270.0 0.00011957
16290.0 0.00011912
16310.0 0.00011868
16330.0 0.00011823
16350.0 0.00011779
16370.0 0.00011734
16390.0 0.0001169
16410.0 0.00011647
16430.0 0.00011603
16450.0 0.00011559
16470.0 0.00011516
16490.0 0.00011472
16510.0 0.00011429
16530.0 0.00011386
16550.0 0.00011343
16570.0 0.000113
16590.0 0.00011257
16610.0 0.00011215
16630.0 0.00011173
16650.0 0.0001113
16670.0 0.00011088
16690.0 0.00011047
16710.0 0.00011005
16730.0 0.00010963
16750.0 0.00010922
16770.0 0.0001088
16790.0 0.00010839
16810.0 0.00010798
16830.0 0.00010758
16850.0 0.00010717
16870.0 0.00010677
16890.0 0.00010637
16910.0 0.00010596
16930.0 0.00010556
16950.0 0.00010517
16970.0 0.00010477
16990.0 0.00010438
17010.0 0.00010399
17030.0 0.0001036
17050.0 0.00010321
17070.0 0.00010282
17090.0 0.00010244
17110.0 0.00010205
17130.0 0.00010167
17150.0 0.00010129
17170.0 0.00010091
17190.0 0.00010054
17210.0 0.00010016
17230.0 9.9789e-05
17250.0 9.9418e-05
17270.0 9.9047e-05
17290.0 9.868e-05
17310.0 9.8315e-05
17330.0 9.795e-05
17350.0 9.7586e-05
17370.0 9.7229e-05
17390.0 9.687e-05
17410.0 9.6512e-05
17430.0 9.6158e-05
17450.0 9.5807e-05
17470.0 9.5453e-05
17490.0 9.5102e-05
17510.0 9.4756e-05
17530.0 9.4411e-05
17550.0 9.4065e-05
17570.0 9.3723e-05
17590.0 9.3384e-05
17610.0 9.3044e-05
17630.0 9.2707e-05
17650.0 9.2373e-05
17670.0 9.2039e-05
17690.0 9.1704e-05
17710.0 9.1376e-05
17730.0 9.1049e-05
17750.0 9.0721e-05
17770.0 9.0397e-05
17790.0 9.0076e-05
17810.0 8.9754e-05
17830.0 8.9433e-05
17850.0 8.9116e-05
17870.0 8.8801e-05
17890.0 8.8485e-05
17910.0 8.8172e-05
17930.0 8.7864e-05
17950.0 8.7554e-05
17970.0 8.7246e-05
17990.0 8.6942e-05
18010.0 8.6639e-05
18030.0 8.6334e-05
18050.0 8.6034e-05
18070.0 8.5737e-05
18090.0 8.5439e-05
18110.0 8.5142e-05
18130.0 8.485e-05
18150.0 8.4559e-05
18170.0 8.4267e-05
18190.0 8.3978e-05
18210.0 8.3693e-05
18230.0 8.3406e-05
18250.0 8.3121e-05
18270.0 8.284e-05
18290.0 8.256e-05
18310.0 8.228e-05
18330.0 8.2003e-05
18350.0 8.1729e-05
18370.0 8.1454e-05
18390.0 8.118e-05
18410.0 8.0911e-05
18430.0 8.0642e-05
18450.0 8.0371e-05
18470.0 8.0106e-05
18490.0 7.9843e-05
18510.0 7.9579e-05
18530.0 7.9316e-05
18550.0 7.9058e-05
18570.0 7.88e-05
18590.0 7.8541e-05
18610.0 7.8286e-05
18630.0 7.8033e-05
18650.0 7.7779e-05
18670.0 7.7527e-05
18690.0 7.7279e-05
18710.0 7.7031e-05
18730.0 7.6783e-05
18750.0 7.6539e-05
18770.0 7.6297e-05
18790.0 7.6052e-05
18810.0 7.5811e-05
18830.0 7.5573e-05
18850.0 7.5335e-05
18870.0 7.5097e-05
18890.0 7.4863e-05
18910.0 7.463e-05
18930.0 7.4396e-05
18950.0 7.4165e-05
18970.0 7.3937e-05
18990.0 7.3708e-05
19010.0 7.3478e-05
19030.0 7.3254e-05
19050.0 7.3031e-05
19070.0 7.2807e-05
19090.0 7.2585e-05
19110.0 7.2367e-05
19130.0 7.2147e-05
19150.0 7.1928e-05
19170.0 7.1712e-05
19190.0 7.1498e-05
19210.0 7.1282e-05
19230.0 7.1069e-05
19250.0 7.086e-05
19270.0 7.0649e-05
19290.0 7.044e-05
19310.0 7.0233e-05
19330.0 7.0028e-05
19350.0 6.982e-05
19370.0 6.9616e-05
19390.0 6.9415e-05
19410.0 6.9212e-05
19430.0 6.9011e-05
19450.0 6.8813e-05
19470.0 6.8616e-05
19490.0 6.8418e-05
19510.0 6.8222e-05
19530.0 6.8029e-05
19550.0 6.7834e-05
19570.0 6.7641e-05
19590.0 6.7451e-05
19610.0 6.7261e-05
19630.0 6.7071e-05
19650.0 6.6884e-05
19670.0 6.6699e-05
19690.0 6.6512e-05
19710.0 6.6327e-05
19730.0 6.6144e-05
19750.0 6.5962e-05
19770.0 6.5779e-05
19790.0 6.5599e-05
19810.0 6.5421e-05
19830.0 6.524e-05
19850.0 6.5058e-05
19870.0 6.4873e-05
19890.0 6.4676e-05
19910.0 6.4453e-05
19930.0 6.4199e-05
19950.0 6.3891e-05
19970.0 6.3497e-05
19990.0 6.3001e-05
20010.0 6.2417e-05
20030.0 6.1705e-05
20050.0 6.0869e-05
20070.0 5.9965e-05
20090.0 5.9001e-05
20110.0 5.7933e-05
20130.0 5.6869e-05
20150.0 5.583e-05
20170.0 5.4773e-05
20190.0 5.3718e-05
20210.0 5.2728e-05
20230.0 5.1767e-05
20250.0 5.0805e-05
20270.0 4.9901e-05
20290.0 4.9059e-05
20310.0 4.8238e-05
20330.0 4.7439e-05
20350.0 4.6734e-05
20370.0 4.6065e-05
20390.0 4.5426e-05
20410.0 4.4846e-05
20430.0 4.4329e-05
20450.0 4.3835e-05
20470.0 4.3393e-05
20490.0 4.3013e-05
20510.0 4.2678e-05
20530.0 4.2382e-05
20550.0 4.2139e-05
20570.0 4.1946e-05
20590.0 4.179e-05
20610.0 4.1676e-05
20630.0 4.1601e-05
20650.0 4.156e-05
20670.0 4.1552e-05
20690.0 4.1571e-05
20710.0 4.161e-05
20730.0 4.1672e-05
20750.0 4.1749e-05
20770.0 4.183e-05
20790.0 4.1919e-05
20810.0 4.2013e-05
20830.0 4.21e-05
20850.0 4.2178e-05
20870.0 4.225e-05
20890.0 4.2307e-05
20910.0 4.234e-05
20930.0 4.2355e-05
20950.0 4.2347e-05
20970.0 4.2312e-05
20990.0 4.2252e-05
21010.0 4.2162e-05
21030.0 4.2044e-05
21050.0 4.19e-05
21070.0 4.1729e-05
21090.0 4.1526e-05
21110.0 4.1307e-05
21130.0 4.107e-05
21150.0 4.0807e-05
21170.0 4.0532e-05
21190.0 4.0253e-05
21210.0 3.9956e-05
21230.0 3.9649e-05
21250.0 3.935e-05
21270.0 3.9053e-05
21290.0 3.8751e-05
21310.0 3.8458e-05
21330.0 3.8186e-05
21350.0 3.7916e-05
21370.0 3.7659e-05
21390.0 3.7424e-05
21410.0 3.7208e-05
21430.0 3.7002e-05
21450.0 3.6824e-05
21470.0 3.6673e-05
21490.0 3.6542e-05
21510.0 3.6437e-05
21530.0 3.636e-05
21550.0 3.6309e-05
21570.0 3.6285e-05
21590.0 3.629e-05
21610.0 3.632e-05
21630.0 3.6379e-05
21650.0 3.6469e-05
21670.0 3.6576e-05
21690.0 3.6708e-05
21710.0 3.6867e-05
21730.0 3.7041e-05
21750.0 3.7224e-05
21770.0 3.7435e-05
21790.0 3.7655e-05
21810.0 3.7874e-05
21830.0 3.8099e-05
21850.0 3.8334e-05
21870.0 3.8559e-05
21890.0 3.8771e-05
21910.0 3.8984e-05
21930.0 3.9185e-05
21950.0 3.9365e-05
21970.0 3.9533e-05
21990.0 3.9691e-05
22010.0 3.9819e-05
22030.0 3.9926e-05
22050.0 4.0015e-05
22070.0 4.008e-05
22090.0 4.0119e-05
22110.0 4.0136e-05
22130.0 4.0129e-05
22150.0 4.0096e-05
22170.0 4.004e-05
22190.0 3.9957e-05
22210.0 3.9848e-05
22230.0 3.972e-05
22250.0 3.9565e-05
22270.0 3.9383e-05
22290.0 3.9182e-05
22310.0 3.8961e-05
22330.0 3.8706e-05
22350.0 3.8433e-05
22370.0 3.8145e-05
22390.0 3.783e-05
22410.0 3.7485e-05
22430.0 3.7135e-05
22450.0 3.677e-05
22470.0 3.6374e-05
22490.0 3.5967e-05
22510.0 3.556e-05
22530.0 3.5124e-05
22550.0 3.4671e-05
22570.0 3.4228e-05
22590.0 3.3781e-05
22610.0 3.3318e-05
22630.0 3.2861e-05
22650.0 3.2426e-05
22670.0 3.1981e-05
22690.0 3.1542e-05
22710.0 3.1129e-05
22730.0 3.073e-05
22750.0 3.0326e-05
22770.0 2.9955e-05
