#lamb flux
1010.0 8.9365e-08
1030.0 9.8972e-08
1050.0 1.1002e-07
1070.0 1.2246e-07
1090.0 1.3659e-07
1110.0 1.5108e-07
1130.0 1.6566e-07
1150.0 1.8094e-07
1170.0 1.967e-07
1190.0 2.1164e-07
1210.0 2.2679e-07
1230.0 2.4244e-07
1250.0 2.5777e-07
1270.0 2.7266e-07
1290.0 2.8839e-07
1310.0 3.0411e-07
1330.0 3.1919e-07
1350.0 3.3444e-07
1370.0 3.5018e-07
1390.0 3.6552e-07
1410.0 3.8041e-07
1430.0 3.9597e-07
1450.0 4.1153e-07
1470.0 4.2656e-07
1490.0 4.4176e-07
1510.0 4.5781e-07
1530.0 4.7301e-07
1550.0 4.8799e-07
1570.0 5.035e-07
1590.0 5.1901e-07
1610.0 5.3381e-07
1630.0 5.4907e-07
1650.0 5.6472e-07
1670.0 5.7984e-07
1690.0 5.9475e-07
1710.0 6.1021e-07
1730.0 6.2574e-07
1750.0 6.4031e-07
1770.0 6.5527e-07
1790.0 6.705e-07
1810.0 6.8519e-07
1830.0 6.9956e-07
1850.0 7.1478e-07
1870.0 7.2952e-07
1890.0 7.4366e-07
1910.0 7.5801e-07
1930.0 7.7261e-07
1950.0 7.8639e-07
1970.0 7.9986e-07
1990.0 8.1372e-07
2010.0 8.2716e-07
2030.0 8.3988e-07
2050.0 8.5282e-07
2070.0 8.659e-07
2090.0 8.7786e-07
2110.0 8.895e-07
2130.0 9.0126e-07
2150.0 9.124e-07
2170.0 9.2257e-07
2190.0 9.3288e-07
2210.0 9.4286e-07
2230.0 9.5183e-07
2250.0 9.6028e-07
2270.0 9.6886e-07
2290.0 9.7649e-07
2310.0 9.8305e-07
2330.0 9.8954e-07
2350.0 9.9574e-07
2370.0 1.0011e-06
2390.0 1.0067e-06
2410.0 1.0138e-06
2430.0 1.0219e-06
2450.0 1.0319e-06
2470.0 1.046e-06
2490.0 1.065e-06
2510.0 1.087e-06
2530.0 1.1156e-06
2550.0 1.1552e-06
2570.0 1.2089e-06
2590.0 1.2838e-06
2610.0 1.4021e-06
2630.0 1.5721e-06
2650.0 1.7896e-06
2670.0 2.0625e-06
2690.0 2.3852e-06
2710.0 2.7121e-06
2730.0 3.0167e-06
2750.0 3.299e-06
2770.0 3.5239e-06
2790.0 3.681e-06
2810.0 3.7866e-06
2830.0 3.851e-06
2850.0 3.8732e-06
2870.0 3.8721e-06
2890.0 3.8584e-06
2910.0 3.8356e-06
2930.0 3.8068e-06
2950.0 3.7776e-06
2970.0 3.7487e-06
2990.0 3.7193e-06
3010.0 0.00011169
3030.0 0.00011088
3050.0 0.00011009
3070.0 0.00010925
3090.0 0.00010836
3110.0 0.00010731
3130.0 0.00010599
3150.0 0.00010429
3170.0 0.00010204
3190.0 9.9284e-05
3210.0 9.6194e-05
3230.0 9.2904e-05
3250.0 8.9643e-05
3270.0 8.7216e-05
3290.0 8.5458e-05
3310.0 8.51e-05
3330.0 8.5747e-05
3350.0 8.7341e-05
3370.0 8.9881e-05
3390.0 9.3249e-05
3410.0 9.7016e-05
3430.0 0.00010133
3450.0 0.00010637
3470.0 0.00011193
3490.0 0.0001179
3510.0 0.0001247
3530.0 0.00013213
3550.0 0.00014007
3570.0 0.00014884
3590.0 0.00015873
3610.0 0.00016974
3630.0 0.00018089
3650.0 0.00019274
3670.0 0.00020355
3690.0 0.00021169
3710.0 0.0002159
3730.0 0.00021384
3750.0 0.00020541
3770.0 0.00020571
3790.0 0.00019663
3810.0 0.00015274
3830.0 0.00014088
3850.0 0.00018795
3870.0 0.0001645
3890.0 0.00013466
3910.0 0.00015748
3930.0 0.0002073
3950.0 0.00023659
3970.0 0.00027465
3990.0 0.00022012
4010.0 0.00034075
4030.0 0.00031301
4050.0 0.00029457
4070.0 0.00033515
4090.0 0.00032181
4110.0 0.00031987
4130.0 0.00039433
4150.0 0.00050169
4170.0 0.00041128
4190.0 0.00036756
4210.0 0.00040563
4230.0 0.00050186
4250.0 0.00058451
4270.0 0.00063069
4290.0 0.00057876
4310.0 0.00053901
4330.0 0.000547
4350.0 0.00069522
4370.0 0.00083563
4390.0 0.00068137
4410.0 0.00041565
4430.0 0.00030703
4450.0 0.00027698
4470.0 0.00020941
4490.0 0.00031681
4510.0 0.00056828
4530.0 0.00068144
4550.0 0.00067686
4570.0 0.00064279
4590.0 0.00071223
4610.0 0.0012871
4630.0 0.0017577
4650.0 0.0016663
4670.0 0.0014847
4690.0 0.0015618
4710.0 0.001649
4730.0 0.0013328
4750.0 0.00085984
4770.0 0.00062195
4790.0 0.0006813
4810.0 0.00069576
4830.0 0.00068392
4850.0 0.00075311
4870.0 0.00099582
4890.0 0.0011579
4910.0 0.0009017
4930.0 0.00085379
4950.0 0.00097924
4970.0 0.0013213
4990.0 0.0017725
5010.0 0.0020109
5030.0 0.0015959
5050.0 0.00096175
5070.0 0.00068291
5090.0 0.00054316
5110.0 0.00052084
5130.0 0.00060485
5150.0 0.00058864
5170.0 0.00056088
5190.0 0.00051316
5210.0 0.00054499
5230.0 0.00065747
5250.0 0.00075813
5270.0 0.00072777
5290.0 0.00080286
5310.0 0.0010414
5330.0 0.001091
5350.0 0.0010763
5370.0 0.001214
5390.0 0.0014825
5410.0 0.0012837
5430.0 0.00098518
5450.0 0.00097792
5470.0 0.0011439
5490.0 0.0014559
5510.0 0.0018048
5530.0 0.0020781
5550.0 0.0018881
5570.0 0.0016863
5590.0 0.0014018
5610.0 0.001407
5630.0 0.0015414
5650.0 0.0014595
5670.0 0.0013607
5690.0 0.0011237
5710.0 0.0011384
5730.0 0.0011016
5750.0 0.00060889
5770.0 0.00046094
5790.0 0.000564
5810.0 0.00062561
5830.0 0.00091135
5850.0 0.0011505
5870.0 0.0012128
5890.0 0.0011466
5910.0 0.001106
5930.0 0.0010814
5950.0 0.0011242
5970.0 0.0013643
5990.0 0.0011425
6010.0 0.00088667
6030.0 0.00072102
6050.0 0.00063815
6070.0 0.00074521
6090.0 0.00084975
6110.0 0.00087608
6130.0 0.00080073
6150.0 0.00064763
6170.0 0.000563
6190.0 0.00070129
6210.0 0.0010427
6230.0 0.0014527
6250.0 0.0015263
6270.0 0.0011951
6290.0 0.001014
6310.0 0.0007795
6330.0 0.00057791
6350.0 0.00055774
6370.0 0.00058829
6390.0 0.00071123
6410.0 0.00089594
6430.0 0.0010737
6450.0 0.0013154
6470.0 0.0014298
6490.0 0.0017346
6510.0 0.0019471
6530.0 0.0019322
6550.0 0.001778
6570.0 0.0015067
6590.0 0.0014602
6610.0 0.0012246
6630.0 0.0012392
6650.0 0.0011809
6670.0 0.0010787
6690.0 0.00089671
6710.0 0.00085372
6730.0 0.00048793
6750.0 0.0005574
6770.0 0.00076346
6790.0 0.00098609
6810.0 0.00076264
6830.0 0.00078106
6850.0 0.00068321
6870.0 0.00064957
6890.0 0.00057346
6910.0 0.00064431
6930.0 0.00060289
6950.0 0.00069934
6970.0 0.00071156
6990.0 0.00078967
7010.0 0.00079327
7030.0 0.00084935
7050.0 0.00074576
7070.0 0.00065204
7090.0 0.00066855
7110.0 0.00067796
7130.0 0.00075716
7150.0 0.00085389
7170.0 0.00094495
7190.0 0.00098254
7210.0 0.00087993
7230.0 0.00089073
7250.0 0.0009771
7270.0 0.0010844
7290.0 0.0012894
7310.0 0.0013171
7330.0 0.0011962
7350.0 0.0010658
7370.0 0.00082464
7390.0 0.00085995
7410.0 0.0010371
7430.0 0.0011691
7450.0 0.0012582
7470.0 0.0012056
7490.0 0.0010911
7510.0 0.001604
7530.0 0.001441
7550.0 0.001306
7570.0 0.00090021
7590.0 0.00044542
7610.0 0.00033749
7630.0 0.00046077
7650.0 0.00059456
7670.0 0.00088533
7690.0 0.00099891
7710.0 0.00092873
7730.0 0.00091745
7750.0 0.0011434
7770.0 0.0011623
7790.0 0.0010785
7810.0 0.00091948
7830.0 0.00096676
7850.0 0.0010159
7870.0 0.00098164
7890.0 0.00079
7910.0 0.00055315
7930.0 0.00054453
7950.0 0.00048924
7970.0 0.0004259
7990.0 0.00039602
8010.0 0.00036794
8030.0 0.00035237
8050.0 0.00036964
8070.0 0.00038882
8090.0 0.00043829
8110.0 0.00041046
8130.0 0.00029157
8150.0 0.00028442
8170.0 0.00020846
8190.0 0.00017307
8210.0 0.00026265
8230.0 0.00029939
8250.0 0.00019215
8270.0 0.00016438
8290.0 0.0001904
8310.0 0.00014769
8330.0 9.2249e-05
8350.0 7.1853e-05
8370.0 4.0551e-05
8390.0 8.0892e-05
8410.0 9.8348e-05
8430.0 0.00012217
8450.0 0.00013659
8470.0 0.00019164
8490.0 0.00016715
8510.0 0.00014493
8530.0 0.00010841
8550.0 0.00021806
8570.0 0.00031327
8590.0 0.00026582
8610.0 0.0003629
8630.0 0.00040405
8650.0 0.00030165
8670.0 0.00036472
8690.0 0.00046923
8710.0 0.0004185
8730.0 0.00043157
8750.0 0.00036149
8770.0 0.00033255
8790.0 0.00035386
8810.0 0.00036468
8830.0 0.00024098
8850.0 0.00015059
8870.0 0.00011792
8890.0 0.00017617
8910.0 0.0002404
8930.0 0.00029523
8950.0 0.00033495
8970.0 0.00032911
8990.0 0.00027394
9010.0 0.00020775
9030.0 0.00017993
9050.0 0.0001853
9070.0 0.0001903
9090.0 0.00019423
9110.0 0.0001987
9130.0 0.000202
9150.0 0.00020447
9170.0 0.0002071
9190.0 0.00020991
9210.0 0.00021285
9230.0 0.00021598
9250.0 0.00021916
9270.0 0.00022246
9290.0 0.00022586
9310.0 0.00022928
9330.0 0.00023278
9350.0 0.00023639
9370.0 0.00024005
9390.0 0.00024376
9410.0 0.00024756
9430.0 0.00025146
9450.0 0.00025537
9470.0 0.00025937
9490.0 0.00026346
9510.0 0.00026761
9530.0 0.00027179
9550.0 0.0002761
9570.0 0.00028048
9590.0 0.00028488
9610.0 0.00028937
9630.0 0.00029395
9650.0 0.00029859
9670.0 0.00030325
9690.0 0.00030802
9710.0 0.00031285
9730.0 0.00031772
9750.0 0.00032265
9770.0 0.0003277
9790.0 0.00033276
9810.0 0.00033786
9830.0 0.00034305
9850.0 0.0003483
9870.0 0.00035356
9890.0 0.00035888
9910.0 0.00036429
9930.0 0.00036971
9950.0 0.00037516
9970.0 0.00038068
9990.0 0.00038626
10010.0 0.00035717
10030.0 0.00036218
10050.0 0.00036724
10070.0 0.00037225
10090.0 0.00037734
10110.0 0.00038249
10130.0 0.00038763
10150.0 0.00039276
10170.0 0.00039791
10190.0 0.00040308
10210.0 0.00040823
10230.0 0.00041336
10250.0 0.00041851
10270.0 0.00042365
10290.0 0.00042875
10310.0 0.00043386
10330.0 0.00043898
10350.0 0.00044403
10370.0 0.00044906
10390.0 0.00045408
10410.0 0.00045907
10430.0 0.00046398
10450.0 0.00046888
10470.0 0.00047374
10490.0 0.00047854
10510.0 0.00048327
10530.0 0.000488
10550.0 0.00049264
10570.0 0.0004972
10590.0 0.00050171
10610.0 0.00050617
10630.0 0.00051051
10650.0 0.00051479
10670.0 0.00051903
10690.0 0.00052316
10710.0 0.00052719
10730.0 0.00053115
10750.0 0.00053505
10770.0 0.0005388
10790.0 0.00054246
10810.0 0.00054604
10830.0 0.00054949
10850.0 0.00055275
10870.0 0.00055583
10890.0 0.00055854
10910.0 0.00056069
10930.0 0.00056202
10950.0 0.00056204
10970.0 0.00056042
10990.0 0.00055698
11010.0 0.00056523
11030.0 0.00055672
11050.0 0.00054618
11070.0 0.00053344
11090.0 0.00051799
11110.0 0.00050195
11130.0 0.00048517
11150.0 0.00046709
11170.0 0.0004485
11190.0 0.00043055
11210.0 0.00041212
11230.0 0.00039337
11250.0 0.00037562
11270.0 0.00035872
11290.0 0.00034195
11310.0 0.00032621
11330.0 0.00031242
11350.0 0.00029945
11370.0 0.00028748
11390.0 0.00027707
11410.0 0.00026789
11430.0 0.00025923
11450.0 0.0002516
11470.0 0.00024478
11490.0 0.00023825
11510.0 0.00023176
11530.0 0.00022556
11550.0 0.00021929
11570.0 0.00021257
11590.0 0.00020562
11610.0 0.00019857
11630.0 0.00019098
11650.0 0.00018297
11670.0 0.00017514
11690.0 0.00016728
11710.0 0.00015927
11730.0 0.00015155
11750.0 0.00014443
11770.0 0.00013747
11790.0 0.00013096
11810.0 0.00012519
11830.0 0.00011999
11850.0 0.00011516
11870.0 0.00011102
11890.0 0.00010749
11910.0 0.00010429
11930.0 0.00010143
11950.0 9.8934e-05
11970.0 9.66e-05
11990.0 9.4314e-05
12010.0 9.2124e-05
12030.0 8.9969e-05
12050.0 8.7729e-05
12070.0 8.5398e-05
12090.0 8.3132e-05
12110.0 8.0821e-05
12130.0 7.8477e-05
12150.0 7.6245e-05
12170.0 7.4186e-05
12190.0 7.2231e-05
12210.0 7.0563e-05
12230.0 6.9256e-05
12250.0 6.8304e-05
12270.0 6.7771e-05
12290.0 6.7691e-05
12310.0 6.8028e-05
12330.0 6.8852e-05
12350.0 7.0121e-05
12370.0 7.1713e-05
12390.0 7.3674e-05
12410.0 7.6088e-05
12430.0 7.8573e-05
12450.0 8.1168e-05
12470.0 8.395e-05
12490.0 8.6733e-05
12510.0 8.9298e-05
12530.0 9.1824e-05
12550.0 9.422e-05
12570.0 9.6257e-05
12590.0 9.7968e-05
12610.0 9.9424e-05
12630.0 0.00010048
12650.0 0.00010106
12670.0 0.00010128
12690.0 0.0001011
12710.0 0.00010052
12730.0 9.9592e-05
12750.0 9.8284e-05
12770.0 9.6661e-05
12790.0 9.4798e-05
12810.0 9.2671e-05
12830.0 9.0292e-05
12850.0 8.7835e-05
12870.0 8.5272e-05
12890.0 8.2542e-05
12910.0 7.9778e-05
12930.0 7.7051e-05
12950.0 7.4219e-05
12970.0 7.1336e-05
12990.0 6.8581e-05
13010.0 6.5845e-05
13030.0 6.3064e-05
13050.0 6.0364e-05
13070.0 5.7801e-05
13090.0 5.5212e-05
13110.0 5.2681e-05
13130.0 5.0314e-05
13150.0 4.805e-05
13170.0 4.5816e-05
13190.0 4.3797e-05
13210.0 4.1991e-05
13230.0 4.0318e-05
13250.0 3.8844e-05
13270.0 3.7634e-05
13290.0 3.664e-05
13310.0 3.5873e-05
13330.0 3.5387e-05
13350.0 3.5157e-05
13370.0 3.5187e-05
13390.0 3.549e-05
13410.0 3.5996e-05
13430.0 3.6723e-05
13450.0 3.7674e-05
13470.0 3.8762e-05
13490.0 3.9934e-05
13510.0 4.1287e-05
13530.0 4.2676e-05
13550.0 4.4015e-05
13570.0 4.5351e-05
13590.0 4.667e-05
13610.0 4.785e-05
13630.0 4.8884e-05
13650.0 4.9839e-05
13670.0 5.0633e-05
13690.0 5.1242e-05
13710.0 5.1709e-05
13730.0 5.2036e-05
13750.0 5.2177e-05
13770.0 5.2175e-05
13790.0 5.2041e-05
13810.0 5.1775e-05
13830.0 5.1403e-05
13850.0 5.0918e-05
13870.0 5.0326e-05
13890.0 4.9661e-05
13910.0 4.8927e-05
13930.0 4.8097e-05
13950.0 4.7209e-05
13970.0 4.6314e-05
13990.0 4.5357e-05
14010.0 4.4358e-05
14030.0 4.3375e-05
14050.0 4.2397e-05
14070.0 4.138e-05
14090.0 4.0416e-05
14110.0 3.9517e-05
14130.0 3.8653e-05
14150.0 3.7845e-05
14170.0 3.7157e-05
14190.0 3.6563e-05
14210.0 3.6058e-05
14230.0 3.5681e-05
14250.0 3.5431e-05
14270.0 3.5303e-05
14290.0 3.5311e-05
14310.0 3.5446e-05
14330.0 3.5702e-05
14350.0 3.6089e-05
14370.0 3.658e-05
14390.0 3.7147e-05
14410.0 3.7826e-05
14430.0 3.8585e-05
14450.0 3.9378e-05
14470.0 4.022e-05
14490.0 4.1141e-05
14510.0 4.2053e-05
14530.0 4.2953e-05
14550.0 4.3892e-05
14570.0 4.484e-05
14590.0 4.5752e-05
14610.0 4.6687e-05
14630.0 4.767e-05
14650.0 4.8643e-05
14670.0 4.963e-05
14690.0 5.0696e-05
14710.0 5.1839e-05
14730.0 5.2988e-05
14750.0 5.4244e-05
14770.0 5.563e-05
14790.0 5.7084e-05
14810.0 5.8603e-05
14830.0 6.0325e-05
14850.0 6.2121e-05
14870.0 6.3926e-05
14890.0 6.5806e-05
14910.0 6.7739e-05
14930.0 6.9552e-05
14950.0 7.1215e-05
14970.0 7.2764e-05
14990.0 7.4054e-05
15010.0 7.5045e-05
15030.0 7.5789e-05
15050.0 7.6299e-05
15070.0 7.6584e-05
15090.0 7.6729e-05
15110.0 7.6777e-05
15130.0 7.6765e-05
15150.0 7.6728e-05
15170.0 7.667e-05
15190.0 7.6602e-05
15210.0 7.654e-05
15230.0 7.6479e-05
15250.0 7.6411e-05
15270.0 7.6347e-05
15290.0 7.6294e-05
15310.0 7.6235e-05
15330.0 7.6175e-05
15350.0 7.6123e-05
15370.0 7.6073e-05
15390.0 7.6013e-05
15410.0 7.596e-05
15430.0 7.5913e-05
15450.0 7.5861e-05
15470.0 7.5807e-05
15490.0 7.5762e-05
15510.0 7.5716e-05
15530.0 7.5665e-05
15550.0 7.5617e-05
15570.0 7.5575e-05
15590.0 7.5525e-05
15610.0 7.5472e-05
15630.0 7.5429e-05
15650.0 7.5384e-05
15670.0 7.5333e-05
15690.0 7.5286e-05
15710.0 7.5244e-05
15730.0 7.5194e-05
15750.0 7.5142e-05
15770.0 7.5097e-05
15790.0 7.505e-05
15810.0 7.4993e-05
15830.0 7.4943e-05
15850.0 7.4896e-05
15870.0 7.4842e-05
15890.0 7.4787e-05
15910.0 7.4738e-05
15930.0 7.4684e-05
15950.0 7.4622e-05
15970.0 7.4566e-05
15990.0 7.4511e-05
16010.0 7.4448e-05
16030.0 7.4382e-05
16050.0 7.4326e-05
16070.0 7.4263e-05
16090.0 7.4194e-05
16110.0 7.4129e-05
16130.0 7.4066e-05
16150.0 7.3989e-05
16170.0 7.3914e-05
16190.0 7.3845e-05
16210.0 7.377e-05
16230.0 7.3688e-05
16250.0 7.3611e-05
16270.0 7.3535e-05
16290.0 7.3448e-05
16310.0 7.3361e-05
16330.0 7.3279e-05
16350.0 7.319e-05
16370.0 7.309e-05
16390.0 7.3e-05
16410.0 7.2908e-05
16430.0 7.2807e-05
16450.0 7.2706e-05
16470.0 7.261e-05
16490.0 7.2504e-05
16510.0 7.2392e-05
16530.0 7.2285e-05
16550.0 7.2176e-05
16570.0 7.2057e-05
16590.0 7.1937e-05
16610.0 7.1825e-05
16630.0 7.1703e-05
16650.0 7.1575e-05
16670.0 7.1453e-05
16690.0 7.1328e-05
16710.0 7.1189e-05
16730.0 7.1054e-05
16750.0 7.0922e-05
16770.0 7.0782e-05
16790.0 7.0635e-05
16810.0 7.0496e-05
16830.0 7.0352e-05
16850.0 7.0199e-05
16870.0 7.0047e-05
16890.0 6.9898e-05
16910.0 6.9737e-05
16930.0 6.9572e-05
16950.0 6.9414e-05
16970.0 6.9252e-05
16990.0 6.908e-05
17010.0 6.8911e-05
17030.0 6.8745e-05
17050.0 6.8567e-05
17070.0 6.8386e-05
17090.0 6.821e-05
17110.0 6.803e-05
17130.0 6.7836e-05
17150.0 6.765e-05
17170.0 6.7466e-05
17190.0 6.7271e-05
17210.0 6.7074e-05
17230.0 6.6883e-05
17250.0 6.6684e-05
17270.0 6.6476e-05
17290.0 6.6273e-05
17310.0 6.607e-05
17330.0 6.5858e-05
17350.0 6.5642e-05
17370.0 6.5435e-05
17390.0 6.5221e-05
17410.0 6.4999e-05
17430.0 6.4781e-05
17450.0 6.4565e-05
17470.0 6.4332e-05
17490.0 6.4103e-05
17510.0 6.388e-05
17530.0 6.3649e-05
17550.0 6.3411e-05
17570.0 6.318e-05
17590.0 6.2949e-05
17610.0 6.2706e-05
17630.0 6.2464e-05
17650.0 6.2227e-05
17670.0 6.1982e-05
17690.0 6.1727e-05
17710.0 6.1484e-05
17730.0 6.1238e-05
17750.0 6.0983e-05
17770.0 6.073e-05
17790.0 6.0483e-05
17810.0 6.0224e-05
17830.0 5.9962e-05
17850.0 5.9706e-05
17870.0 5.9448e-05
17890.0 5.918e-05
17910.0 5.8914e-05
17930.0 5.8657e-05
17950.0 5.8389e-05
17970.0 5.8119e-05
17990.0 5.7855e-05
18010.0 5.7588e-05
18030.0 5.7309e-05
18050.0 5.7036e-05
18070.0 5.6768e-05
18090.0 5.6491e-05
18110.0 5.6211e-05
18130.0 5.594e-05
18150.0 5.5665e-05
18170.0 5.5382e-05
18190.0 5.5103e-05
18210.0 5.4829e-05
18230.0 5.4543e-05
18250.0 5.4256e-05
18270.0 5.3978e-05
18290.0 5.3697e-05
18310.0 5.3408e-05
18330.0 5.3125e-05
18350.0 5.2846e-05
18370.0 5.2556e-05
18390.0 5.2267e-05
18410.0 5.1984e-05
18430.0 5.1698e-05
18450.0 5.1403e-05
18470.0 5.1116e-05
18490.0 5.0833e-05
18510.0 5.0541e-05
18530.0 5.025e-05
18550.0 4.9967e-05
18570.0 4.9677e-05
18590.0 4.9381e-05
18610.0 4.9092e-05
18630.0 4.8806e-05
18650.0 4.8512e-05
18670.0 4.8217e-05
18690.0 4.7934e-05
18710.0 4.7644e-05
18730.0 4.7349e-05
18750.0 4.7061e-05
18770.0 4.6776e-05
18790.0 4.6478e-05
18810.0 4.6186e-05
18830.0 4.5901e-05
18850.0 4.5611e-05
18870.0 4.5316e-05
18890.0 4.5031e-05
18910.0 4.4746e-05
18930.0 4.4452e-05
18950.0 4.4163e-05
18970.0 4.3879e-05
18990.0 4.3591e-05
19010.0 4.3294e-05
19030.0 4.3012e-05
19050.0 4.2729e-05
19070.0 4.2439e-05
19090.0 4.2153e-05
19110.0 4.1874e-05
19130.0 4.1586e-05
19150.0 4.1298e-05
19170.0 4.1017e-05
19190.0 4.0736e-05
19210.0 4.0448e-05
19230.0 4.0164e-05
19250.0 3.9889e-05
19270.0 3.9607e-05
19290.0 3.9324e-05
19310.0 3.9049e-05
19330.0 3.8773e-05
19350.0 3.8487e-05
19370.0 3.8211e-05
19390.0 3.7938e-05
19410.0 3.766e-05
19430.0 3.7381e-05
19450.0 3.7112e-05
19470.0 3.6841e-05
19490.0 3.6564e-05
19510.0 3.6293e-05
19530.0 3.6027e-05
19550.0 3.5752e-05
19570.0 3.5478e-05
19590.0 3.5214e-05
19610.0 3.4948e-05
19630.0 3.4677e-05
19650.0 3.4413e-05
19670.0 3.4154e-05
19690.0 3.3885e-05
19710.0 3.362e-05
19730.0 3.3362e-05
19750.0 3.3101e-05
19770.0 3.2834e-05
19790.0 3.2576e-05
19810.0 3.2322e-05
19830.0 3.2062e-05
19850.0 3.1802e-05
19870.0 3.1547e-05
19890.0 3.1281e-05
19910.0 3.1e-05
19930.0 3.071e-05
19950.0 3.0396e-05
19970.0 3.0035e-05
19990.0 2.9626e-05
20010.0 2.8778e-05
20030.0 2.8272e-05
20050.0 2.7702e-05
20070.0 2.7101e-05
20090.0 2.647e-05
20110.0 2.5776e-05
20130.0 2.5085e-05
20150.0 2.4411e-05
20170.0 2.3722e-05
20190.0 2.3034e-05
20210.0 2.2388e-05
20230.0 2.1763e-05
20250.0 2.1141e-05
20270.0 2.0564e-05
20290.0 2.0037e-05
20310.0 1.9534e-05
20330.0 1.9063e-05
20350.0 1.8665e-05
20370.0 1.8307e-05
20390.0 1.7988e-05
20410.0 1.7723e-05
20430.0 1.7509e-05
20450.0 1.7333e-05
20470.0 1.7203e-05
20490.0 1.7119e-05
20510.0 1.7073e-05
20530.0 1.7065e-05
20550.0 1.7092e-05
20570.0 1.7147e-05
20590.0 1.7232e-05
20610.0 1.7344e-05
20630.0 1.7473e-05
20650.0 1.7621e-05
20670.0 1.7796e-05
20690.0 1.7976e-05
20710.0 1.8163e-05
20730.0 1.8366e-05
20750.0 1.8578e-05
20770.0 1.8783e-05
20790.0 1.8997e-05
20810.0 1.9222e-05
20830.0 1.9442e-05
20850.0 1.9659e-05
20870.0 1.9889e-05
20890.0 2.012e-05
20910.0 2.0338e-05
20930.0 2.0562e-05
20950.0 2.0793e-05
20970.0 2.1015e-05
20990.0 2.1232e-05
21010.0 2.146e-05
21030.0 2.1682e-05
21050.0 2.1893e-05
21070.0 2.2103e-05
21090.0 2.2317e-05
21110.0 2.2511e-05
21130.0 2.2694e-05
21150.0 2.2875e-05
21170.0 2.3042e-05
21190.0 2.3188e-05
21210.0 2.3326e-05
21230.0 2.3448e-05
21250.0 2.3544e-05
21270.0 2.3617e-05
21290.0 2.3668e-05
21310.0 2.369e-05
21330.0 2.368e-05
21350.0 2.3638e-05
21370.0 2.356e-05
21390.0 2.3445e-05
21410.0 2.3294e-05
21430.0 2.3094e-05
21450.0 2.2857e-05
21470.0 2.2588e-05
21490.0 2.2275e-05
21510.0 2.1922e-05
21530.0 2.1551e-05
21550.0 2.1152e-05
21570.0 2.0717e-05
21590.0 2.0276e-05
21610.0 1.9838e-05
21630.0 1.9387e-05
21650.0 1.8932e-05
21670.0 1.8521e-05
21690.0 1.8126e-05
21710.0 1.7751e-05
21730.0 1.742e-05
21750.0 1.7137e-05
21770.0 1.6887e-05
21790.0 1.6689e-05
21810.0 1.6549e-05
21830.0 1.6458e-05
21850.0 1.642e-05
21870.0 1.6435e-05
21890.0 1.6495e-05
21910.0 1.6606e-05
21930.0 1.6761e-05
21950.0 1.6949e-05
21970.0 1.7175e-05
21990.0 1.7447e-05
22010.0 1.7732e-05
22030.0 1.8036e-05
22050.0 1.8368e-05
22070.0 1.8716e-05
22090.0 1.9055e-05
22110.0 1.941e-05
22130.0 1.9775e-05
22150.0 2.0127e-05
22170.0 2.0468e-05
22190.0 2.0815e-05
22210.0 2.1147e-05
22230.0 2.1445e-05
22250.0 2.1732e-05
22270.0 2.2002e-05
22290.0 2.2236e-05
22310.0 2.2441e-05
22330.0 2.2626e-05
22350.0 2.2773e-05
22370.0 2.288e-05
22390.0 2.2954e-05
22410.0 2.2989e-05
22430.0 2.2981e-05
22450.0 2.2933e-05
22470.0 2.2842e-05
22490.0 2.2708e-05
22510.0 2.2536e-05
22530.0 2.2316e-05
22550.0 2.2046e-05
22570.0 2.1745e-05
22590.0 2.1404e-05
22610.0 2.1012e-05
22630.0 2.0586e-05
22650.0 2.0144e-05
22670.0 1.9655e-05
22690.0 1.913e-05
