#lamb flux
1010.0 4.9743e-07
1030.0 5.509e-07
1050.0 6.1241e-07
1070.0 6.8164e-07
1090.0 7.6028e-07
1110.0 8.4094e-07
1130.0 9.2212e-07
1150.0 1.0072e-06
1170.0 1.0949e-06
1190.0 1.1781e-06
1210.0 1.2624e-06
1230.0 1.3495e-06
1250.0 1.4348e-06
1270.0 1.5177e-06
1290.0 1.6053e-06
1310.0 1.6928e-06
1330.0 1.7767e-06
1350.0 1.8616e-06
1370.0 1.9492e-06
1390.0 2.0346e-06
1410.0 2.1174e-06
1430.0 2.2041e-06
1450.0 2.2907e-06
1470.0 2.3744e-06
1490.0 2.4589e-06
1510.0 2.5483e-06
1530.0 2.6329e-06
1550.0 2.7163e-06
1570.0 2.8026e-06
1590.0 2.8889e-06
1610.0 2.9713e-06
1630.0 3.0563e-06
1650.0 3.1434e-06
1670.0 3.2275e-06
1690.0 3.3105e-06
1710.0 3.3966e-06
1730.0 3.483e-06
1750.0 3.5641e-06
1770.0 3.6474e-06
1790.0 3.7322e-06
1810.0 3.8139e-06
1830.0 3.8939e-06
1850.0 3.9787e-06
1870.0 4.0607e-06
1890.0 4.1394e-06
1910.0 4.2193e-06
1930.0 4.3006e-06
1950.0 4.3772e-06
1970.0 4.4522e-06
1990.0 4.5294e-06
2010.0 4.6042e-06
2030.0 4.675e-06
2050.0 4.747e-06
2070.0 4.8198e-06
2090.0 4.8864e-06
2110.0 4.9512e-06
2130.0 5.0166e-06
2150.0 5.0787e-06
2170.0 5.1352e-06
2190.0 5.1926e-06
2210.0 5.2482e-06
2230.0 5.2981e-06
2250.0 5.3452e-06
2270.0 5.3929e-06
2290.0 5.4354e-06
2310.0 5.4719e-06
2330.0 5.508e-06
2350.0 5.5425e-06
2370.0 5.5725e-06
2390.0 5.6038e-06
2410.0 5.643e-06
2430.0 5.688e-06
2450.0 5.7438e-06
2470.0 5.8222e-06
2490.0 5.9279e-06
2510.0 6.0507e-06
2530.0 6.2098e-06
2550.0 6.4299e-06
2570.0 6.7289e-06
2590.0 7.1458e-06
2610.0 7.8042e-06
2630.0 8.7505e-06
2650.0 9.9612e-06
2670.0 1.148e-05
2690.0 1.3276e-05
2710.0 1.5096e-05
2730.0 1.6792e-05
2750.0 1.8363e-05
2770.0 1.9615e-05
2790.0 2.0489e-05
2810.0 2.1077e-05
2830.0 2.1436e-05
2850.0 2.1559e-05
2870.0 2.1553e-05
2890.0 2.1477e-05
2910.0 2.135e-05
2930.0 2.119e-05
2950.0 2.1027e-05
2970.0 2.0866e-05
2990.0 2.0702e-05
3010.0 0.0006217
3030.0 0.00061721
3050.0 0.00061281
3070.0 0.00060809
3090.0 0.00060313
3110.0 0.00059732
3130.0 0.00058994
3150.0 0.00058051
3170.0 0.00056799
3190.0 0.00055264
3210.0 0.00053544
3230.0 0.00051713
3250.0 0.00049897
3270.0 0.00048547
3290.0 0.00047568
3310.0 0.00047369
3330.0 0.00047729
3350.0 0.00048616
3370.0 0.0005003
3390.0 0.00051905
3410.0 0.00054001
3430.0 0.00056403
3450.0 0.00059205
3470.0 0.00062301
3490.0 0.00065625
3510.0 0.00069412
3530.0 0.00073548
3550.0 0.00077969
3570.0 0.00082848
3590.0 0.00088351
3610.0 0.0009448
3630.0 0.0010069
3650.0 0.0010729
3670.0 0.001133
3690.0 0.0011783
3710.0 0.0012017
3730.0 0.0011903
3750.0 0.0011434
3770.0 0.001145
3790.0 0.0010945
3810.0 0.0008502
3830.0 0.00078415
3850.0 0.0010462
3870.0 0.00091562
3890.0 0.00074955
3910.0 0.00087658
3930.0 0.0011539
3950.0 0.0013169
3970.0 0.0015288
3990.0 0.0012252
4010.0 0.0018967
4030.0 0.0017423
4050.0 0.0016396
4070.0 0.0018655
4090.0 0.0017913
4110.0 0.0017805
4130.0 0.0021949
4150.0 0.0027925
4170.0 0.0022893
4190.0 0.0020459
4210.0 0.0022578
4230.0 0.0027935
4250.0 0.0032535
4270.0 0.0035106
4290.0 0.0032215
4310.0 0.0030003
4330.0 0.0030447
4350.0 0.0038698
4370.0 0.0046513
4390.0 0.0037927
4410.0 0.0023136
4430.0 0.001709
4450.0 0.0015417
4470.0 0.0011656
4490.0 0.0017634
4510.0 0.0031632
4530.0 0.003793
4550.0 0.0037676
4570.0 0.0035779
4590.0 0.0039645
4610.0 0.0071645
4630.0 0.0097839
4650.0 0.009275
4670.0 0.0082641
4690.0 0.0086935
4710.0 0.0091787
4730.0 0.0074185
4750.0 0.0047861
4770.0 0.0034619
4790.0 0.0037923
4810.0 0.0038728
4830.0 0.0038069
4850.0 0.004192
4870.0 0.005543
4890.0 0.0064452
4910.0 0.0050191
4930.0 0.0047524
4950.0 0.0054507
4970.0 0.0073544
4990.0 0.0098662
5010.0 0.011193
5030.0 0.0088829
5050.0 0.0053533
5070.0 0.0038012
5090.0 0.0030234
5110.0 0.0028991
5130.0 0.0033667
5150.0 0.0032765
5170.0 0.003122
5190.0 0.0028564
5210.0 0.0030332
5230.0 0.0036585
5250.0 0.0042177
5270.0 0.004048
5290.0 0.0044647
5310.0 0.0057901
5330.0 0.0060644
5350.0 0.0059816
5370.0 0.0067456
5390.0 0.0082356
5410.0 0.0071294
5430.0 0.0054705
5450.0 0.0054291
5470.0 0.006349
5490.0 0.0080791
5510.0 0.010013
5530.0 0.011528
5550.0 0.010471
5570.0 0.00935
5590.0 0.0077709
5610.0 0.0077979
5630.0 0.008541
5650.0 0.0080859
5670.0 0.0075369
5690.0 0.0062228
5710.0 0.0063028
5730.0 0.006098
5750.0 0.0033698
5770.0 0.0025504
5790.0 0.00312
5810.0 0.0034601
5830.0 0.0050394
5850.0 0.0063603
5870.0 0.0067036
5890.0 0.0063361
5910.0 0.0061104
5930.0 0.0059735
5950.0 0.0062086
5970.0 0.0075329
5990.0 0.0063072
6010.0 0.0048942
6030.0 0.0039798
6050.0 0.0035224
6070.0 0.0041133
6090.0 0.0046904
6110.0 0.0048357
6130.0 0.0044198
6150.0 0.0035748
6170.0 0.0031076
6190.0 0.0038709
6210.0 0.0057556
6230.0 0.0080184
6250.0 0.0084248
6270.0 0.0065968
6290.0 0.0055969
6310.0 0.0043026
6330.0 0.0031899
6350.0 0.0030786
6370.0 0.0032472
6390.0 0.0039258
6410.0 0.0049454
6430.0 0.0059267
6450.0 0.0072606
6470.0 0.0078923
6490.0 0.0095744
6510.0 0.010748
6530.0 0.010665
6550.0 0.0098139
6570.0 0.0083164
6590.0 0.0080601
6610.0 0.0067595
6630.0 0.00684
6650.0 0.0065181
6670.0 0.005954
6690.0 0.0049496
6710.0 0.0047123
6730.0 0.0026932
6750.0 0.0030767
6770.0 0.0042141
6790.0 0.005443
6810.0 0.0042095
6830.0 0.0043112
6850.0 0.0037711
6870.0 0.0035855
6890.0 0.0031653
6910.0 0.0035564
6930.0 0.0033278
6950.0 0.0038602
6970.0 0.0039276
6990.0 0.0043587
7010.0 0.0043786
7030.0 0.0046882
7050.0 0.0041164
7070.0 0.0035991
7090.0 0.0036902
7110.0 0.0037421
7130.0 0.0041793
7150.0 0.0047132
7170.0 0.0052159
7190.0 0.0054233
7210.0 0.004857
7230.0 0.0049166
7250.0 0.0053933
7270.0 0.0059854
7290.0 0.007117
7310.0 0.0072701
7330.0 0.0066025
7350.0 0.0058831
7370.0 0.0045518
7390.0 0.0047466
7410.0 0.0057243
7430.0 0.0064532
7450.0 0.0069451
7470.0 0.0066545
7490.0 0.0060226
7510.0 0.0088542
7530.0 0.0079553
7550.0 0.0072105
7570.0 0.0049708
7590.0 0.0024598
7610.0 0.001864
7630.0 0.0025452
7650.0 0.0032846
7670.0 0.0048914
7690.0 0.0055196
7710.0 0.0051324
7730.0 0.0050706
7750.0 0.00632
7770.0 0.0064254
7790.0 0.0059627
7810.0 0.0050841
7830.0 0.0053461
7850.0 0.0056186
7870.0 0.0054296
7890.0 0.0043701
7910.0 0.0030603
7930.0 0.0030129
7950.0 0.0027073
7970.0 0.0023571
7990.0 0.0021919
8010.0 0.0020367
8030.0 0.0019508
8050.0 0.0020466
8070.0 0.002153
8090.0 0.0024272
8110.0 0.0022734
8130.0 0.0016151
8150.0 0.0015757
8170.0 0.001155
8190.0 0.00095897
8210.0 0.0014556
8230.0 0.0016593
8250.0 0.0010651
8270.0 0.00091128
8290.0 0.0010556
8310.0 0.00081889
8330.0 0.00051156
8350.0 0.0003985
8370.0 0.00022492
8390.0 0.00044873
8410.0 0.00054563
8430.0 0.00067786
8450.0 0.00075796
8470.0 0.0010636
8490.0 0.00092773
8510.0 0.00080449
8530.0 0.00060185
8550.0 0.0012107
8570.0 0.0017396
8590.0 0.0014763
8610.0 0.0020156
8630.0 0.0022444
8650.0 0.0016758
8670.0 0.0020264
8690.0 0.0026074
8710.0 0.0023257
8730.0 0.0023986
8750.0 0.0020093
8770.0 0.0018487
8790.0 0.0019673
8810.0 0.0020277
8830.0 0.0013401
8850.0 0.00083754
8870.0 0.0006559
8890.0 0.00098
8910.0 0.0013374
8930.0 0.0016427
8950.0 0.0018639
8970.0 0.0018316
8990.0 0.0015248
9010.0 0.0011564
9030.0 0.0010016
9050.0 0.0010315
9070.0 0.0010593
9090.0 0.0010811
9110.0 0.001106
9130.0 0.0011244
9150.0 0.0011381
9170.0 0.0011528
9190.0 0.0011684
9210.0 0.0011848
9230.0 0.0012022
9250.0 0.0012199
9270.0 0.0012383
9290.0 0.0012572
9310.0 0.0012763
9330.0 0.0012957
9350.0 0.0013158
9370.0 0.0013362
9390.0 0.0013568
9410.0 0.001378
9430.0 0.0013997
9450.0 0.0014215
9470.0 0.0014437
9490.0 0.0014665
9510.0 0.0014896
9530.0 0.0015129
9550.0 0.0015368
9570.0 0.0015612
9590.0 0.0015857
9610.0 0.0016107
9630.0 0.0016362
9650.0 0.001662
9670.0 0.001688
9690.0 0.0017145
9710.0 0.0017414
9730.0 0.0017685
9750.0 0.001796
9770.0 0.0018241
9790.0 0.0018522
9810.0 0.0018806
9830.0 0.0019095
9850.0 0.0019387
9870.0 0.001968
9890.0 0.0019976
9910.0 0.0020277
9930.0 0.0020579
9950.0 0.0020882
9970.0 0.002119
9990.0 0.00215
10010.0 0.0019881
10030.0 0.002016
10050.0 0.0020442
10070.0 0.002072
10090.0 0.0021004
10110.0 0.002129
10130.0 0.0021577
10150.0 0.0021862
10170.0 0.0022148
10190.0 0.0022437
10210.0 0.0022723
10230.0 0.0023008
10250.0 0.0023295
10270.0 0.0023582
10290.0 0.0023865
10310.0 0.002415
10330.0 0.0024435
10350.0 0.0024716
10370.0 0.0024996
10390.0 0.0025275
10410.0 0.0025553
10430.0 0.0025826
10450.0 0.0026099
10470.0 0.002637
10490.0 0.0026637
10510.0 0.00269
10530.0 0.0027163
10550.0 0.0027422
10570.0 0.0027675
10590.0 0.0027926
10610.0 0.0028174
10630.0 0.0028416
10650.0 0.0028655
10670.0 0.002889
10690.0 0.002912
10710.0 0.0029344
10730.0 0.0029565
10750.0 0.0029782
10770.0 0.0029991
10790.0 0.0030195
10810.0 0.0030394
10830.0 0.0030586
10850.0 0.0030767
10870.0 0.0030939
10890.0 0.003109
10910.0 0.0031209
10930.0 0.0031283
10950.0 0.0031285
10970.0 0.0031194
10990.0 0.0031003
11010.0 0.0031462
11030.0 0.0030988
11050.0 0.0030402
11070.0 0.0029693
11090.0 0.0028833
11110.0 0.002794
11130.0 0.0027006
11150.0 0.0026
11170.0 0.0024965
11190.0 0.0023965
11210.0 0.0022939
11230.0 0.0021896
11250.0 0.0020908
11270.0 0.0019967
11290.0 0.0019034
11310.0 0.0018157
11330.0 0.001739
11350.0 0.0016668
11370.0 0.0016002
11390.0 0.0015423
11410.0 0.0014911
11430.0 0.001443
11450.0 0.0014004
11470.0 0.0013625
11490.0 0.0013261
11510.0 0.00129
11530.0 0.0012555
11550.0 0.0012206
11570.0 0.0011832
11590.0 0.0011445
11610.0 0.0011053
11630.0 0.0010631
11650.0 0.0010185
11670.0 0.00097489
11690.0 0.00093115
11710.0 0.00088652
11730.0 0.00084357
11750.0 0.00080391
11770.0 0.0007652
11790.0 0.00072894
11810.0 0.00069683
11830.0 0.00066789
11850.0 0.00064099
11870.0 0.00061799
11890.0 0.00059832
11910.0 0.00058052
11930.0 0.00056461
11950.0 0.00055069
11970.0 0.0005377
11990.0 0.00052497
12010.0 0.00051278
12030.0 0.00050079
12050.0 0.00048832
12070.0 0.00047535
12090.0 0.00046273
12110.0 0.00044987
12130.0 0.00043682
12150.0 0.0004244
12170.0 0.00041294
12190.0 0.00040205
12210.0 0.00039277
12230.0 0.0003855
12250.0 0.00038019
12270.0 0.00037723
12290.0 0.00037678
12310.0 0.00037866
12330.0 0.00038325
12350.0 0.00039031
12370.0 0.00039917
12390.0 0.00041009
12410.0 0.00042352
12430.0 0.00043735
12450.0 0.0004518
12470.0 0.00046729
12490.0 0.00048278
12510.0 0.00049705
12530.0 0.00051112
12550.0 0.00052445
12570.0 0.00053579
12590.0 0.00054531
12610.0 0.00055342
12630.0 0.00055929
12650.0 0.0005625
12670.0 0.00056374
12690.0 0.00056277
12710.0 0.00055954
12730.0 0.00055435
12750.0 0.00054707
12770.0 0.00053804
12790.0 0.00052767
12810.0 0.00051583
12830.0 0.00050259
12850.0 0.00048891
12870.0 0.00047465
12890.0 0.00045945
12910.0 0.00044406
12930.0 0.00042888
12950.0 0.00041312
12970.0 0.00039708
12990.0 0.00038174
13010.0 0.00036651
13030.0 0.00035103
13050.0 0.000336
13070.0 0.00032174
13090.0 0.00030732
13110.0 0.00029323
13130.0 0.00028006
13150.0 0.00026746
13170.0 0.00025502
13190.0 0.00024378
13210.0 0.00023373
13230.0 0.00022442
13250.0 0.00021621
13270.0 0.00020948
13290.0 0.00020395
13310.0 0.00019968
13330.0 0.00019697
13350.0 0.00019569
13370.0 0.00019586
13390.0 0.00019755
13410.0 0.00020036
13430.0 0.00020441
13450.0 0.0002097
13470.0 0.00021576
13490.0 0.00022228
13510.0 0.00022982
13530.0 0.00023754
13550.0 0.000245
13570.0 0.00025244
13590.0 0.00025978
13610.0 0.00026634
13630.0 0.0002721
13650.0 0.00027742
13670.0 0.00028184
13690.0 0.00028523
13710.0 0.00028782
13730.0 0.00028964
13750.0 0.00029043
13770.0 0.00029042
13790.0 0.00028967
13810.0 0.00028819
13830.0 0.00028612
13850.0 0.00028342
13870.0 0.00028013
13890.0 0.00027643
13910.0 0.00027234
13930.0 0.00026772
13950.0 0.00026278
13970.0 0.00025779
13990.0 0.00025247
14010.0 0.00024691
14030.0 0.00024143
14050.0 0.00023599
14070.0 0.00023033
14090.0 0.00022496
14110.0 0.00021996
14130.0 0.00021515
14150.0 0.00021066
14170.0 0.00020683
14190.0 0.00020352
14210.0 0.00020071
14230.0 0.00019861
14250.0 0.00019722
14270.0 0.0001965
14290.0 0.00019655
14310.0 0.0001973
14330.0 0.00019873
14350.0 0.00020088
14370.0 0.00020361
14390.0 0.00020677
14410.0 0.00021055
14430.0 0.00021478
14450.0 0.00021919
14470.0 0.00022388
14490.0 0.000229
14510.0 0.00023408
14530.0 0.00023909
14550.0 0.00024431
14570.0 0.00024959
14590.0 0.00025467
14610.0 0.00025987
14630.0 0.00026534
14650.0 0.00027076
14670.0 0.00027625
14690.0 0.00028219
14710.0 0.00028855
14730.0 0.00029494
14750.0 0.00030193
14770.0 0.00030965
14790.0 0.00031774
14810.0 0.0003262
14830.0 0.00033579
14850.0 0.00034578
14870.0 0.00035583
14890.0 0.00036629
14910.0 0.00037705
14930.0 0.00038714
14950.0 0.0003964
14970.0 0.00040502
14990.0 0.0004122
15010.0 0.00041772
15030.0 0.00042186
15050.0 0.0004247
15070.0 0.00042628
15090.0 0.00042709
15110.0 0.00042736
15130.0 0.00042729
15150.0 0.00042709
15170.0 0.00042676
15190.0 0.00042639
15210.0 0.00042604
15230.0 0.0004257
15250.0 0.00042532
15270.0 0.00042497
15290.0 0.00042467
15310.0 0.00042434
15330.0 0.00042401
15350.0 0.00042372
15370.0 0.00042344
15390.0 0.00042311
15410.0 0.00042281
15430.0 0.00042255
15450.0 0.00042226
15470.0 0.00042196
15490.0 0.00042171
15510.0 0.00042146
15530.0 0.00042117
15550.0 0.0004209
15570.0 0.00042067
15590.0 0.00042039
15610.0 0.00042009
15630.0 0.00041985
15650.0 0.00041961
15670.0 0.00041932
15690.0 0.00041906
15710.0 0.00041883
15730.0 0.00041855
15750.0 0.00041826
15770.0 0.00041801
15790.0 0.00041775
15810.0 0.00041743
15830.0 0.00041715
15850.0 0.00041689
15870.0 0.00041659
15890.0 0.00041628
15910.0 0.00041601
15930.0 0.00041571
15950.0 0.00041536
15970.0 0.00041505
15990.0 0.00041475
16010.0 0.0004144
16030.0 0.00041403
16050.0 0.00041372
16070.0 0.00041337
16090.0 0.00041298
16110.0 0.00041262
16130.0 0.00041227
16150.0 0.00041184
16170.0 0.00041142
16190.0 0.00041104
16210.0 0.00041062
16230.0 0.00041016
16250.0 0.00040974
16270.0 0.00040931
16290.0 0.00040883
16310.0 0.00040835
16330.0 0.00040789
16350.0 0.00040739
16370.0 0.00040683
16390.0 0.00040634
16410.0 0.00040582
16430.0 0.00040526
16450.0 0.0004047
16470.0 0.00040417
16490.0 0.00040357
16510.0 0.00040295
16530.0 0.00040236
16550.0 0.00040175
16570.0 0.00040108
16590.0 0.00040042
16610.0 0.0003998
16630.0 0.00039912
16650.0 0.00039841
16670.0 0.00039773
16690.0 0.00039703
16710.0 0.00039625
16730.0 0.00039551
16750.0 0.00039477
16770.0 0.00039399
16790.0 0.00039317
16810.0 0.0003924
16830.0 0.0003916
16850.0 0.00039074
16870.0 0.0003899
16890.0 0.00038907
16910.0 0.00038818
16930.0 0.00038725
16950.0 0.00038638
16970.0 0.00038547
16990.0 0.00038452
17010.0 0.00038357
17030.0 0.00038265
17050.0 0.00038166
17070.0 0.00038065
17090.0 0.00037968
17110.0 0.00037867
17130.0 0.00037759
17150.0 0.00037656
17170.0 0.00037553
17190.0 0.00037445
17210.0 0.00037335
17230.0 0.00037229
17250.0 0.00037118
17270.0 0.00037002
17290.0 0.00036889
17310.0 0.00036776
17330.0 0.00036658
17350.0 0.00036538
17370.0 0.00036423
17390.0 0.00036303
17410.0 0.0003618
17430.0 0.00036059
17450.0 0.00035938
17470.0 0.00035809
17490.0 0.00035681
17510.0 0.00035557
17530.0 0.00035429
17550.0 0.00035296
17570.0 0.00035168
17590.0 0.00035039
17610.0 0.00034903
17630.0 0.00034769
17650.0 0.00034637
17670.0 0.00034501
17690.0 0.00034359
17710.0 0.00034223
17730.0 0.00034087
17750.0 0.00033945
17770.0 0.00033804
17790.0 0.00033666
17810.0 0.00033522
17830.0 0.00033376
17850.0 0.00033234
17870.0 0.0003309
17890.0 0.00032941
17910.0 0.00032793
17930.0 0.0003265
17950.0 0.00032501
17970.0 0.0003235
17990.0 0.00032203
18010.0 0.00032055
18030.0 0.00031899
18050.0 0.00031748
18070.0 0.00031598
18090.0 0.00031444
18110.0 0.00031288
18130.0 0.00031137
18150.0 0.00030985
18170.0 0.00030827
18190.0 0.00030672
18210.0 0.00030519
18230.0 0.0003036
18250.0 0.000302
18270.0 0.00030046
18290.0 0.00029889
18310.0 0.00029728
18330.0 0.00029571
18350.0 0.00029416
18370.0 0.00029254
18390.0 0.00029093
18410.0 0.00028936
18430.0 0.00028776
18450.0 0.00028612
18470.0 0.00028452
18490.0 0.00028295
18510.0 0.00028133
18530.0 0.0002797
18550.0 0.00027813
18570.0 0.00027652
18590.0 0.00027486
18610.0 0.00027326
18630.0 0.00027167
18650.0 0.00027003
18670.0 0.00026839
18690.0 0.00026681
18710.0 0.0002652
18730.0 0.00026356
18750.0 0.00026196
18770.0 0.00026037
18790.0 0.00025871
18810.0 0.00025708
18830.0 0.0002555
18850.0 0.00025388
18870.0 0.00025224
18890.0 0.00025065
18910.0 0.00024907
18930.0 0.00024743
18950.0 0.00024582
18970.0 0.00024424
18990.0 0.00024264
19010.0 0.00024099
19030.0 0.00023942
19050.0 0.00023784
19070.0 0.00023622
19090.0 0.00023463
19110.0 0.00023308
19130.0 0.00023148
19150.0 0.00022987
19170.0 0.00022831
19190.0 0.00022675
19210.0 0.00022514
19230.0 0.00022356
19250.0 0.00022203
19270.0 0.00022046
19290.0 0.00021889
19310.0 0.00021736
19330.0 0.00021582
19350.0 0.00021423
19370.0 0.00021269
19390.0 0.00021117
19410.0 0.00020963
19430.0 0.00020807
19450.0 0.00020658
19470.0 0.00020506
19490.0 0.00020352
19510.0 0.00020202
19530.0 0.00020053
19550.0 0.000199
19570.0 0.00019748
19590.0 0.00019601
19610.0 0.00019453
19630.0 0.00019302
19650.0 0.00019155
19670.0 0.00019011
19690.0 0.00018861
19710.0 0.00018714
19730.0 0.0001857
19750.0 0.00018425
19770.0 0.00018276
19790.0 0.00018133
19810.0 0.00017991
19830.0 0.00017846
19850.0 0.00017702
19870.0 0.0001756
19890.0 0.00017412
19910.0 0.00017255
19930.0 0.00017094
19950.0 0.00016919
19970.0 0.00016718
19990.0 0.00016491
20010.0 0.00016019
20030.0 0.00015737
20050.0 0.00015419
20070.0 0.00015085
20090.0 0.00014734
20110.0 0.00014348
20130.0 0.00013963
20150.0 0.00013588
20170.0 0.00013204
20190.0 0.00012821
20210.0 0.00012462
20230.0 0.00012114
20250.0 0.00011768
20270.0 0.00011447
20290.0 0.00011153
20310.0 0.00010873
20330.0 0.00010611
20350.0 0.00010389
20370.0 0.0001019
20390.0 0.00010013
20410.0 9.8649e-05
20430.0 9.7461e-05
20450.0 9.6477e-05
20470.0 9.5756e-05
20490.0 9.5286e-05
20510.0 9.503e-05
20530.0 9.4988e-05
20550.0 9.5139e-05
20570.0 9.5442e-05
20590.0 9.592e-05
20610.0 9.6543e-05
20630.0 9.7257e-05
20650.0 9.8082e-05
20670.0 9.9057e-05
20690.0 0.00010006
20710.0 0.0001011
20730.0 0.00010223
20750.0 0.00010341
20770.0 0.00010455
20790.0 0.00010574
20810.0 0.000107
20830.0 0.00010822
20850.0 0.00010943
20870.0 0.00011071
20890.0 0.00011199
20910.0 0.00011321
20930.0 0.00011446
20950.0 0.00011574
20970.0 0.00011697
20990.0 0.00011818
21010.0 0.00011945
21030.0 0.00012069
21050.0 0.00012186
21070.0 0.00012303
21090.0 0.00012422
21110.0 0.0001253
21130.0 0.00012632
21150.0 0.00012733
21170.0 0.00012826
21190.0 0.00012907
21210.0 0.00012984
21230.0 0.00013052
21250.0 0.00013105
21270.0 0.00013146
21290.0 0.00013174
21310.0 0.00013186
21330.0 0.00013181
21350.0 0.00013157
21370.0 0.00013114
21390.0 0.0001305
21410.0 0.00012966
21430.0 0.00012855
21450.0 0.00012723
21470.0 0.00012573
21490.0 0.00012399
21510.0 0.00012202
21530.0 0.00011996
21550.0 0.00011774
21570.0 0.00011531
21590.0 0.00011286
21610.0 0.00011042
21630.0 0.00010791
21650.0 0.00010538
21670.0 0.00010309
21690.0 0.00010089
21710.0 9.8806e-05
21730.0 9.6963e-05
21750.0 9.5391e-05
21770.0 9.3995e-05
21790.0 9.2896e-05
21810.0 9.2114e-05
21830.0 9.1609e-05
21850.0 9.1397e-05
21870.0 9.1479e-05
21890.0 9.1816e-05
21910.0 9.2431e-05
21930.0 9.3297e-05
21950.0 9.4342e-05
21970.0 9.5599e-05
21990.0 9.7112e-05
22010.0 9.8702e-05
22030.0 0.00010039
22050.0 0.00010224
22070.0 0.00010418
22090.0 0.00010607
22110.0 0.00010804
22130.0 0.00011008
22150.0 0.00011203
22170.0 0.00011393
22190.0 0.00011586
22210.0 0.00011771
22230.0 0.00011937
22250.0 0.00012096
22270.0 0.00012247
22290.0 0.00012377
22310.0 0.00012491
22330.0 0.00012594
22350.0 0.00012676
22370.0 0.00012736
22390.0 0.00012777
22410.0 0.00012796
22430.0 0.00012792
22450.0 0.00012765
22470.0 0.00012714
22490.0 0.0001264
22510.0 0.00012544
22530.0 0.00012421
22550.0 0.00012271
22570.0 0.00012104
22590.0 0.00011914
22610.0 0.00011696
22630.0 0.00011459
22650.0 0.00011213
22670.0 0.0001094
22690.0 0.00010648
22710.0 0.00010352
22730.0 0.00010046
22750.0 9.7125e-05
22770.0 9.3847e-05
22790.0 9.0629e-05
22810.0 8.7312e-05
22830.0 8.3988e-05
22850.0 8.0861e-05
22870.0 7.7786e-05
22890.0 7.4719e-05
22910.0 7.1886e-05
22930.0 6.9284e-05
22950.0 6.6805e-05
22970.0 6.4511e-05
22990.0 6.261e-05
23010.0 6.0927e-05
23030.0 5.9487e-05
