#lamb flux
1010.0 6.9672e-05
1030.0 7.8925e-05
1050.0 8.7061e-05
1070.0 9.3213e-05
1090.0 9.672e-05
1110.0 9.5571e-05
1130.0 8.9567e-05
1150.0 7.9276e-05
1170.0 6.4781e-05
1190.0 4.644e-05
1210.0 2.5701e-05
1230.0 3.5048e-06
1250.0 1e-99
1270.0 1e-99
1290.0 1e-99
1310.0 1e-99
1330.0 1e-99
1350.0 1e-99
1370.0 1e-99
1390.0 1e-99
1410.0 1e-99
1430.0 1e-99
1450.0 1e-99
1470.0 1e-99
1490.0 1e-99
1510.0 1e-99
1530.0 1e-99
1550.0 1e-99
1570.0 1e-99
1590.0 1e-99
1610.0 1e-99
1630.0 1e-99
1650.0 1e-99
1670.0 8.2732e-06
1690.0 1.899e-05
1710.0 2.9996e-05
1730.0 4.1542e-05
1750.0 5.416e-05
1770.0 6.7736e-05
1790.0 8.2499e-05
1810.0 9.8566e-05
1830.0 0.00011652
1850.0 0.00014179
1870.0 0.00016853
1890.0 0.00019784
1910.0 0.00023022
1930.0 0.00026602
1950.0 0.00030514
1970.0 0.00034792
1990.0 0.00039496
2010.0 0.00044608
2030.0 0.00050119
2050.0 0.00056096
2070.0 0.00062549
2090.0 0.00069378
2110.0 0.00076626
2130.0 0.00084325
2150.0 0.00092384
2170.0 0.0010072
2190.0 0.0010942
2210.0 0.001184
2230.0 0.001275
2250.0 0.0013674
2270.0 0.0014614
2290.0 0.001555
2310.0 0.0016469
2330.0 0.0017381
2350.0 0.0018274
2370.0 0.0019126
2390.0 0.0019943
2410.0 0.0020723
2430.0 0.0021436
2450.0 0.0022073
2470.0 0.0022637
2490.0 0.0023116
2510.0 0.0023503
2530.0 0.0023837
2550.0 0.002418
2570.0 0.0024615
2590.0 0.0025253
2610.0 0.0026337
2630.0 0.0028033
2650.0 0.0030379
2670.0 0.0033565
2690.0 0.0037724
2710.0 0.0042518
2730.0 0.004773
2750.0 0.005354
2770.0 0.0059403
2790.0 0.0064862
2810.0 0.0069991
2830.0 0.0074798
2850.0 0.0078689
2870.0 0.0082005
2890.0 0.0085013
2910.0 0.0087702
2930.0 0.0090092
2950.0 0.0092515
2970.0 0.0094993
2990.0 0.0097418
3010.0 0.0099881
3030.0 0.010251
3050.0 0.010519
3070.0 0.010774
3090.0 0.011032
3110.0 0.011279
3130.0 0.011493
3150.0 0.01167
3170.0 0.01181
3190.0 0.011907
3210.0 0.011985
3230.0 0.012072
3250.0 0.012212
3270.0 0.012438
3290.0 0.01277
3310.0 0.013233
3330.0 0.01381
3350.0 0.014469
3370.0 0.015217
3390.0 0.016008
3410.0 0.016759
3430.0 0.017454
3450.0 0.018039
3470.0 0.019532
3490.0 0.019886
3510.0 0.017465
3530.0 0.01689
3550.0 0.021594
3570.0 0.02565
3590.0 0.026007
3610.0 0.028224
3630.0 0.028959
3650.0 0.026178
3670.0 0.0248
3690.0 0.026853
3710.0 0.02972
3730.0 0.032151
3750.0 0.029657
3770.0 0.0294
3790.0 0.030777
3810.0 0.029518
3830.0 0.025705
3850.0 0.022951
3870.0 0.023427
3890.0 0.026449
3910.0 0.028527
3930.0 0.029351
3950.0 0.030069
3970.0 0.030669
3990.0 0.031505
4010.0 0.031181
4030.0 0.028706
4050.0 0.026462
4070.0 0.026624
4090.0 0.028432
4110.0 0.029822
4130.0 0.029252
4150.0 0.028586
4170.0 0.028483
4190.0 0.029285
4210.0 0.028629
4230.0 0.02623
4250.0 0.02342
4270.0 0.021346
4290.0 0.019679
4310.0 0.018209
4330.0 0.018677
4350.0 0.02003
4370.0 0.020552
4390.0 0.021309
4410.0 0.021556
4430.0 0.021436
4450.0 0.021275
4470.0 0.021003
4490.0 0.022342
4510.0 0.022999
4530.0 0.023461
4550.0 0.023904
4570.0 0.02453
4590.0 0.025014
4610.0 0.025328
4630.0 0.025857
4650.0 0.026735
4670.0 0.025505
4690.0 0.023704
4710.0 0.02183
4730.0 0.021151
4750.0 0.020606
4770.0 0.020018
4790.0 0.019349
4810.0 0.018572
4830.0 0.019468
4850.0 0.021258
4870.0 0.016473
4890.0 0.01634
4910.0 0.017022
4930.0 0.017613
4950.0 0.016063
4970.0 0.014755
4990.0 0.014367
5010.0 0.013359
5030.0 0.012503
5050.0 0.012829
5070.0 0.013753
5090.0 0.014237
5110.0 0.015659
5130.0 0.016103
5150.0 0.016704
5170.0 0.017221
5190.0 0.016708
5210.0 0.017263
5230.0 0.017601
5250.0 0.017741
5270.0 0.018056
5290.0 0.017677
5310.0 0.01721
5330.0 0.016309
5350.0 0.015416
5370.0 0.014587
5390.0 0.014981
5410.0 0.014989
5430.0 0.015168
5450.0 0.015183
5470.0 0.014953
5490.0 0.014777
5510.0 0.014407
5530.0 0.014037
5550.0 0.013886
5570.0 0.014054
5590.0 0.014255
5610.0 0.014377
5630.0 0.014088
5650.0 0.013926
5670.0 0.013423
5690.0 0.013105
5710.0 0.012631
5730.0 0.012563
5750.0 0.012388
5770.0 0.011972
5790.0 0.012197
5810.0 0.012113
5830.0 0.012426
5850.0 0.012581
5870.0 0.012714
5890.0 0.012525
5910.0 0.012517
5930.0 0.012258
5950.0 0.012393
5970.0 0.012111
5990.0 0.011865
6010.0 0.011932
6030.0 0.01218
6050.0 0.012012
6070.0 0.011755
6090.0 0.011614
6110.0 0.011792
6130.0 0.011746
6150.0 0.011427
6170.0 0.010732
6190.0 0.009956
6210.0 0.0094443
6230.0 0.0093445
6250.0 0.0094242
6270.0 0.0096582
6290.0 0.01003
6310.0 0.010641
6330.0 0.010945
6350.0 0.010985
6370.0 0.011065
6390.0 0.010953
6410.0 0.010693
6430.0 0.010347
6450.0 0.010164
6470.0 0.010121
6490.0 0.010074
6510.0 0.0099837
6530.0 0.0099743
6550.0 0.0098481
6570.0 0.0094922
6590.0 0.0094339
6610.0 0.0093372
6630.0 0.0090526
6650.0 0.0087786
6670.0 0.008527
6690.0 0.0084317
6710.0 0.0081712
6730.0 0.0080529
6750.0 0.0079147
6770.0 0.0077387
6790.0 0.0078009
6810.0 0.0077085
6830.0 0.0075083
6850.0 0.0074151
6870.0 0.0073174
6890.0 0.0071992
6910.0 0.0071386
6930.0 0.0070609
6950.0 0.0069645
6970.0 0.0068215
6990.0 0.0068216
7010.0 0.0067675
7030.0 0.0068063
7050.0 0.0066469
7070.0 0.0065593
7090.0 0.0065407
7110.0 0.0063036
7130.0 0.0062713
7150.0 0.0063459
7170.0 0.0064473
7190.0 0.0063839
7210.0 0.0064419
7230.0 0.0065917
7250.0 0.0064843
7270.0 0.0065364
7290.0 0.0064492
7310.0 0.0062679
7330.0 0.0059464
7350.0 0.0059648
7370.0 0.0059728
7390.0 0.0058472
7410.0 0.0057293
7430.0 0.0056655
7450.0 0.0056037
7470.0 0.005623
7490.0 0.0056807
7510.0 0.005514
7530.0 0.0054083
7550.0 0.0054722
7570.0 0.0050714
7590.0 0.0048706
7610.0 0.0048258
7630.0 0.0048933
7650.0 0.0047956
7670.0 0.0049262
7690.0 0.0047617
7710.0 0.0049912
7730.0 0.0050316
7750.0 0.0054464
7770.0 0.0056184
7790.0 0.0058247
7810.0 0.0060848
7830.0 0.0062321
7850.0 0.0064182
7870.0 0.0063572
7890.0 0.0063094
7910.0 0.0061788
7930.0 0.0059729
7950.0 0.0058112
7970.0 0.0057789
7990.0 0.0057326
8010.0 0.005211
8030.0 0.0051796
8050.0 0.0050783
8070.0 0.005029
8090.0 0.0048997
8110.0 0.0049376
8130.0 0.0049897
8150.0 0.0050681
8170.0 0.0050138
8190.0 0.0050797
8210.0 0.005008
8230.0 0.0047448
8250.0 0.0046511
8270.0 0.0045702
8290.0 0.0044965
8310.0 0.0043457
8330.0 0.0044038
8350.0 0.0043772
8370.0 0.0043763
8390.0 0.0044565
8410.0 0.0044424
8430.0 0.0045154
8450.0 0.0045797
8470.0 0.0046075
8490.0 0.0046608
8510.0 0.0045844
8530.0 0.004431
8550.0 0.0044685
8570.0 0.004476
8590.0 0.0043452
8610.0 0.0044403
8630.0 0.0043836
8650.0 0.0042943
8670.0 0.004267
8690.0 0.0042627
8710.0 0.0040975
8730.0 0.0041536
8750.0 0.0040137
8770.0 0.00399
8790.0 0.0038817
8810.0 0.0038371
8830.0 0.0038254
8850.0 0.0036407
8870.0 0.003453
8890.0 0.0034065
8910.0 0.0032065
8930.0 0.0029596
8950.0 0.0029578
8970.0 0.002863
8990.0 0.0028442
9010.0 0.0028217
9030.0 0.0028027
9050.0 0.0027827
9070.0 0.0027626
9090.0 0.0027423
9110.0 0.0027218
9130.0 0.0027014
9150.0 0.002681
9170.0 0.0026606
9190.0 0.0026402
9210.0 0.0026196
9230.0 0.0025991
9250.0 0.0025785
9270.0 0.0025579
9290.0 0.0025374
9310.0 0.0025168
9330.0 0.0024963
9350.0 0.0024759
9370.0 0.0024554
9390.0 0.002435
9410.0 0.0024147
9430.0 0.0023944
9450.0 0.0023742
9470.0 0.0023554
9490.0 0.0023361
9510.0 0.0023153
9530.0 0.0022949
9550.0 0.0022748
9570.0 0.002255
9590.0 0.0022354
9610.0 0.0022159
9630.0 0.0021966
9650.0 0.0021775
9670.0 0.0021584
9690.0 0.0021395
9710.0 0.0021208
9730.0 0.0021022
9750.0 0.0020837
9770.0 0.0020655
9790.0 0.0020474
9810.0 0.0020294
9830.0 0.0020112
9850.0 0.0019905
9870.0 0.0019727
9890.0 0.0019569
9910.0 0.0019409
9930.0 0.0019215
9950.0 0.0019048
9970.0 0.0018896
9990.0 0.0018739
10010.0 0.001858
10030.0 0.0018422
10050.0 0.0018266
10070.0 0.0018112
10090.0 0.001796
10110.0 0.0017805
10130.0 0.0017652
10150.0 0.0017504
10170.0 0.0017357
10190.0 0.0017209
10210.0 0.0017067
10230.0 0.0016926
10250.0 0.0016785
10270.0 0.0016646
10290.0 0.0016512
10310.0 0.0016376
10330.0 0.0016241
10350.0 0.0016111
10370.0 0.0015982
10390.0 0.0015853
10410.0 0.0015725
10430.0 0.0015602
10450.0 0.0015481
10470.0 0.0015359
10490.0 0.0015241
10510.0 0.0015125
10530.0 0.0015007
10550.0 0.0014892
10570.0 0.0014782
10590.0 0.0014671
10610.0 0.001456
10630.0 0.0014454
10650.0 0.0014349
10670.0 0.0014242
10690.0 0.0014139
10710.0 0.0014039
10730.0 0.0013938
10750.0 0.0013837
10770.0 0.0013741
10790.0 0.0013647
10810.0 0.0013551
10830.0 0.0013458
10850.0 0.0013369
10870.0 0.0013277
10890.0 0.0013187
10910.0 0.0013102
10930.0 0.0013018
10950.0 0.0012936
10970.0 0.0012858
10990.0 0.0012786
11010.0 0.0013285
11030.0 0.0013232
11050.0 0.0013181
11070.0 0.0013129
11090.0 0.0013071
11110.0 0.0013012
11130.0 0.0012951
11150.0 0.0012883
11170.0 0.0012811
11190.0 0.0012739
11210.0 0.0012663
11230.0 0.0012583
11250.0 0.0012505
11270.0 0.001243
11290.0 0.0012352
11310.0 0.0012276
11330.0 0.0012209
11350.0 0.0012143
11370.0 0.0012079
11390.0 0.0012021
11410.0 0.0011967
11430.0 0.0011914
11450.0 0.0011864
11470.0 0.0011817
11490.0 0.0011771
11510.0 0.0011722
11530.0 0.0011675
11550.0 0.0011628
11570.0 0.0011576
11590.0 0.0011523
11610.0 0.001147
11630.0 0.0011413
11650.0 0.0011352
11670.0 0.0011294
11690.0 0.0011236
11710.0 0.0011175
11730.0 0.0011115
11750.0 0.0011059
11770.0 0.0011001
11790.0 0.0010944
11810.0 0.0010891
11830.0 0.0010839
11850.0 0.0010785
11870.0 0.0010735
11890.0 0.0010689
11910.0 0.0010643
11930.0 0.0010599
11950.0 0.0010561
11970.0 0.0010526
11990.0 0.0010492
12010.0 0.0010466
12030.0 0.0010445
12050.0 0.001043
12070.0 0.0010421
12090.0 0.0010421
12110.0 0.0010427
12130.0 0.001044
12150.0 0.0010459
12170.0 0.0010485
12190.0 0.0010516
12210.0 0.0010553
12230.0 0.0010593
12250.0 0.0010636
12270.0 0.0010682
12290.0 0.0010729
12310.0 0.0010777
12330.0 0.0010825
12350.0 0.0010871
12370.0 0.0010916
12390.0 0.0010958
12410.0 0.0010997
12430.0 0.0011032
12450.0 0.0011061
12470.0 0.0011085
12490.0 0.0011101
12510.0 0.0011112
12530.0 0.0011113
12550.0 0.0011105
12570.0 0.001109
12590.0 0.0011066
12610.0 0.0011031
12630.0 0.0010986
12650.0 0.0010938
12670.0 0.001088
12690.0 0.0010813
12710.0 0.0010744
12730.0 0.0010671
12750.0 0.0010589
12770.0 0.0010505
12790.0 0.0010424
12810.0 0.0010338
12830.0 0.0010251
12850.0 0.0010169
12870.0 0.001009
12890.0 0.001001
12910.0 0.00099339
12930.0 0.00098649
12950.0 0.00097962
12970.0 0.00097299
12990.0 0.00096716
13010.0 0.00096168
13030.0 0.00095629
13050.0 0.00095132
13070.0 0.00094684
13090.0 0.00094233
13110.0 0.00093796
13130.0 0.00093395
13150.0 0.00093006
13170.0 0.00092602
13190.0 0.00092228
13210.0 0.00091879
13230.0 0.00091521
13250.0 0.00091164
13270.0 0.0009083
13290.0 0.0009049
13310.0 0.00090128
13330.0 0.00089772
13350.0 0.00089415
13370.0 0.00089027
13390.0 0.00088612
13410.0 0.00088206
13430.0 0.00087769
13450.0 0.00087293
13470.0 0.00086807
13490.0 0.00086314
13510.0 0.00085762
13530.0 0.00085196
13550.0 0.00084634
13570.0 0.00084046
13590.0 0.00083422
13610.0 0.00082803
13630.0 0.00082189
13650.0 0.00081533
13670.0 0.00080871
13690.0 0.00080222
13710.0 0.00079554
13730.0 0.00078845
13750.0 0.0007817
13770.0 0.00077495
13790.0 0.00076794
13810.0 0.00076093
13830.0 0.00075421
13850.0 0.00074725
13870.0 0.00074018
13890.0 0.00073335
13910.0 0.00072661
13930.0 0.00071965
13950.0 0.00071278
13970.0 0.00070629
13990.0 0.00069967
14010.0 0.000693
14030.0 0.00068661
14050.0 0.00068032
14070.0 0.00067377
14090.0 0.00066745
14110.0 0.00066134
14130.0 0.00065516
14150.0 0.00064891
14170.0 0.00064297
14190.0 0.00063709
14210.0 0.00063109
14230.0 0.00062525
14250.0 0.00061962
14270.0 0.00061387
14290.0 0.00060814
14310.0 0.00060273
14330.0 0.00059741
14350.0 0.00059206
14370.0 0.00058692
14390.0 0.00058204
14410.0 0.00057712
14430.0 0.00057232
14450.0 0.00056776
14470.0 0.0005633
14490.0 0.0005588
14510.0 0.00055452
14530.0 0.0005504
14550.0 0.00054626
14570.0 0.00054217
14590.0 0.00053824
14610.0 0.00053431
14630.0 0.00053031
14650.0 0.00052644
14670.0 0.00052264
14690.0 0.00051879
14710.0 0.00051495
14730.0 0.00051129
14750.0 0.00050762
14770.0 0.00050394
14790.0 0.00050038
14810.0 0.00049692
14830.0 0.0004934
14850.0 0.00048998
14870.0 0.00048668
14890.0 0.00048341
14910.0 0.00048014
14930.0 0.000477
14950.0 0.00047395
14970.0 0.00047091
14990.0 0.00046797
15010.0 0.00046516
15030.0 0.0004624
15050.0 0.00045967
15070.0 0.00045707
15090.0 0.00045451
15110.0 0.00045195
15130.0 0.00044942
15150.0 0.00044694
15170.0 0.00044442
15190.0 0.0004419
15210.0 0.00043941
15230.0 0.00043692
15250.0 0.0004344
15270.0 0.00043189
15290.0 0.00042944
15310.0 0.00042695
15330.0 0.00042446
15350.0 0.000422
15370.0 0.00041955
15390.0 0.00041705
15410.0 0.00041459
15430.0 0.00041215
15450.0 0.0004097
15470.0 0.00040724
15490.0 0.00040483
15510.0 0.00040242
15530.0 0.00039998
15550.0 0.00039758
15570.0 0.0003952
15590.0 0.00039279
15610.0 0.00039038
15630.0 0.00038803
15650.0 0.00038567
15670.0 0.0003833
15690.0 0.00038095
15710.0 0.00037864
15730.0 0.00037631
15750.0 0.00037398
15770.0 0.00037169
15790.0 0.0003694
15810.0 0.00036709
15830.0 0.00036482
15850.0 0.00036258
15870.0 0.00036032
15890.0 0.00035807
15910.0 0.00035587
15930.0 0.00035366
15950.0 0.00035143
15970.0 0.00034924
15990.0 0.00034708
16010.0 0.0003449
16030.0 0.00034272
16050.0 0.00034061
16070.0 0.00033849
16090.0 0.00033635
16110.0 0.00033426
16130.0 0.00033219
16150.0 0.00033009
16170.0 0.00032801
16190.0 0.00032598
16210.0 0.00032394
16230.0 0.00032189
16250.0 0.00031989
16270.0 0.00031791
16290.0 0.00031591
16310.0 0.00031393
16330.0 0.00031199
16350.0 0.00031005
16370.0 0.00030808
16390.0 0.00030618
16410.0 0.00030429
16430.0 0.00030238
16450.0 0.0003005
16470.0 0.00029866
16490.0 0.00029681
16510.0 0.00029495
16530.0 0.00029314
16550.0 0.00029134
16570.0 0.00028952
16590.0 0.00028773
16610.0 0.00028598
16630.0 0.00028422
16650.0 0.00028247
16670.0 0.00028076
16690.0 0.00027905
16710.0 0.00027732
16730.0 0.00027563
16750.0 0.00027397
16770.0 0.00027231
16790.0 0.00027064
16810.0 0.00026902
16830.0 0.00026741
16850.0 0.00026579
16870.0 0.00026419
16890.0 0.00026263
16910.0 0.00026104
16930.0 0.00025947
16950.0 0.00025794
16970.0 0.00025641
16990.0 0.00025488
17010.0 0.00025338
17030.0 0.00025191
17050.0 0.00025042
17070.0 0.00024894
17090.0 0.0002475
17110.0 0.00024606
17130.0 0.00024461
17150.0 0.00024319
17170.0 0.00024181
17190.0 0.00024041
17210.0 0.00023902
17230.0 0.00023767
17250.0 0.00023632
17270.0 0.00023495
17290.0 0.00023362
17310.0 0.00023232
17330.0 0.000231
17350.0 0.00022969
17370.0 0.00022842
17390.0 0.00022715
17410.0 0.00022588
17430.0 0.00022464
17450.0 0.00022342
17470.0 0.00022217
17490.0 0.00022094
17510.0 0.00021975
17530.0 0.00021856
17550.0 0.00021736
17570.0 0.0002162
17590.0 0.00021506
17610.0 0.00021389
17630.0 0.00021275
17650.0 0.00021164
17670.0 0.00021052
17690.0 0.00020939
17710.0 0.0002083
17730.0 0.00020723
17750.0 0.00020614
17770.0 0.00020508
17790.0 0.00020404
17810.0 0.00020299
17830.0 0.00020194
17850.0 0.00020093
17870.0 0.00019992
17890.0 0.0001989
17910.0 0.00019789
17930.0 0.00019693
17950.0 0.00019595
17970.0 0.00019497
17990.0 0.00019403
18010.0 0.00019309
18030.0 0.00019213
18050.0 0.0001912
18070.0 0.00019029
18090.0 0.00018937
18110.0 0.00018846
18130.0 0.00018758
18150.0 0.0001867
18170.0 0.00018581
18190.0 0.00018495
18210.0 0.0001841
18230.0 0.00018324
18250.0 0.00018238
18270.0 0.00018156
18290.0 0.00018074
18310.0 0.00017991
18330.0 0.00017911
18350.0 0.00017832
18370.0 0.00017752
18390.0 0.00017672
18410.0 0.00017596
18430.0 0.00017519
18450.0 0.0001744
18470.0 0.00017365
18490.0 0.00017292
18510.0 0.00017217
18530.0 0.00017143
18550.0 0.00017072
18570.0 0.00017
18590.0 0.00016927
18610.0 0.00016857
18630.0 0.00016788
18650.0 0.00016717
18670.0 0.00016648
18690.0 0.00016582
18710.0 0.00016514
18730.0 0.00016447
18750.0 0.00016381
18770.0 0.00016317
18790.0 0.0001625
18810.0 0.00016185
18830.0 0.00016123
18850.0 0.0001606
18870.0 0.00015996
18890.0 0.00015935
18910.0 0.00015875
18930.0 0.00015813
18950.0 0.00015752
18970.0 0.00015694
18990.0 0.00015634
19010.0 0.00015573
19030.0 0.00015516
19050.0 0.00015459
19070.0 0.00015401
19090.0 0.00015344
19110.0 0.0001529
19130.0 0.00015233
19150.0 0.00015176
19170.0 0.00015122
19190.0 0.00015068
19210.0 0.00015012
19230.0 0.00014958
19250.0 0.00014907
19270.0 0.00014853
19290.0 0.000148
19310.0 0.00014749
19330.0 0.00014698
19350.0 0.00014644
19370.0 0.00014593
19390.0 0.00014543
19410.0 0.00014492
19430.0 0.00014441
19450.0 0.00014392
19470.0 0.00014343
19490.0 0.00014293
19510.0 0.00014244
19530.0 0.00014196
19550.0 0.00014147
19570.0 0.00014097
19590.0 0.0001405
19610.0 0.00014003
19630.0 0.00013954
19650.0 0.00013907
19670.0 0.00013861
19690.0 0.00013813
19710.0 0.00013765
19730.0 0.0001372
19750.0 0.00013673
19770.0 0.00013625
19790.0 0.00013579
19810.0 0.00013535
19830.0 0.00013488
19850.0 0.00013441
19870.0 0.00013398
19890.0 0.00013352
19910.0 0.00013304
19930.0 0.0001326
19950.0 0.00013216
19970.0 0.0001317
19990.0 0.00013125
20010.0 0.00013083
20030.0 0.00013039
20050.0 0.00012994
20070.0 0.0001295
20090.0 0.00012907
20110.0 0.00012858
20130.0 0.00012811
20150.0 0.00012765
20170.0 0.00012717
20190.0 0.00012667
20210.0 0.0001262
20230.0 0.00012572
20250.0 0.00012523
20270.0 0.00012475
20290.0 0.00012431
20310.0 0.00012386
20330.0 0.00012341
20350.0 0.00012302
20370.0 0.00012264
20390.0 0.00012228
20410.0 0.00012195
20430.0 0.00012166
20450.0 0.00012139
20470.0 0.00012114
20490.0 0.00012095
20510.0 0.00012078
20530.0 0.00012064
20550.0 0.00012055
20570.0 0.00012051
20590.0 0.0001205
20610.0 0.00012053
20630.0 0.0001206
20650.0 0.00012072
20670.0 0.00012087
20690.0 0.00012107
20710.0 0.0001213
20730.0 0.00012157
20750.0 0.00012186
20770.0 0.00012217
20790.0 0.00012249
20810.0 0.00012283
20830.0 0.00012315
20850.0 0.00012346
20870.0 0.00012376
20890.0 0.00012402
20910.0 0.00012424
20930.0 0.00012442
20950.0 0.00012454
20970.0 0.00012461
20990.0 0.00012462
21010.0 0.00012456
21030.0 0.00012443
21050.0 0.00012425
21070.0 0.00012401
21090.0 0.00012369
21110.0 0.00012334
21130.0 0.00012295
21150.0 0.0001225
21170.0 0.00012202
21190.0 0.00012154
21210.0 0.00012101
21230.0 0.00012045
21250.0 0.00011992
21270.0 0.00011938
21290.0 0.00011882
21310.0 0.00011827
21330.0 0.00011775
21350.0 0.00011721
21370.0 0.00011666
21390.0 0.00011614
21410.0 0.00011561
21430.0 0.00011505
21450.0 0.00011449
21470.0 0.00011395
21490.0 0.00011337
21510.0 0.00011277
21530.0 0.00011217
21550.0 0.00011156
21570.0 0.0001109
21590.0 0.00011024
21610.0 0.00010959
21630.0 0.00010889
21650.0 0.00010817
21670.0 0.00010748
21690.0 0.00010678
21710.0 0.00010606
21730.0 0.00010535
21750.0 0.00010467
21770.0 0.00010395
21790.0 0.00010324
21810.0 0.00010257
21830.0 0.0001019
21850.0 0.00010121
21870.0 0.00010055
21890.0 9.9918e-05
21910.0 9.9266e-05
21930.0 9.8619e-05
21950.0 9.7998e-05
21970.0 9.7368e-05
21990.0 9.6705e-05
22010.0 9.6068e-05
22030.0 9.5433e-05
22050.0 9.4768e-05
22070.0 9.4089e-05
22090.0 9.3428e-05
22110.0 9.2736e-05
22130.0 9.201e-05
22150.0 9.1289e-05
22170.0 9.0562e-05
22190.0 8.9787e-05
22210.0 8.9e-05
22230.0 8.8237e-05
22250.0 8.7444e-05
22270.0 8.6625e-05
22290.0 8.5824e-05
22310.0 8.5027e-05
22330.0 8.4187e-05
22350.0 8.336e-05
22370.0 8.2558e-05
22390.0 8.1742e-05
22410.0 8.0909e-05
22430.0 8.0121e-05
22450.0 7.9346e-05
22470.0 7.8558e-05
22490.0 7.7793e-05
22510.0 7.7066e-05
22530.0 7.6329e-05
22550.0 7.56e-05
22570.0 7.4918e-05
22590.0 7.4255e-05
22610.0 7.3592e-05
22630.0 7.2957e-05
22650.0 7.2362e-05
22670.0 7.1766e-05
22690.0 7.1182e-05
22710.0 7.063e-05
22730.0 7.0093e-05
22750.0 6.9548e-05
22770.0 6.9033e-05
22790.0 6.8542e-05
22810.0 6.8053e-05
22830.0 6.7574e-05
22850.0 6.7123e-05
22870.0 6.6683e-05
22890.0 6.6248e-05
22910.0 6.5837e-05
22930.0 6.545e-05
22950.0 6.5074e-05
22970.0 6.4715e-05
22990.0 6.4391e-05
23010.0 6.4086e-05
23030.0 6.3803e-05
23050.0 6.3549e-05
23070.0 6.3323e-05
23090.0 6.3122e-05
23110.0 6.2953e-05
23130.0 6.2814e-05
23150.0 6.2704e-05
23170.0 6.2628e-05
23190.0 6.2578e-05
23210.0 6.2551e-05
23230.0 6.2555e-05
23250.0 6.2581e-05
23270.0 6.2617e-05
23290.0 6.267e-05
23310.0 6.2745e-05
23330.0 6.2807e-05
23350.0 6.2863e-05
23370.0 6.2918e-05
23390.0 6.2957e-05
23410.0 6.2963e-05
23430.0 6.2955e-05
23450.0 6.2805e-05
23470.0 6.2592e-05
