#lamb flux
1010.0 5.9428e-06
1030.0 6.5284e-06
1050.0 7.2019e-06
1070.0 7.9602e-06
1090.0 8.8214e-06
1110.0 9.7047e-06
1130.0 1.0594e-05
1150.0 1.1525e-05
1170.0 1.2486e-05
1190.0 1.3397e-05
1210.0 1.432e-05
1230.0 1.5274e-05
1250.0 1.6208e-05
1270.0 1.7116e-05
1290.0 1.8075e-05
1310.0 1.9033e-05
1330.0 1.9952e-05
1350.0 2.0881e-05
1370.0 2.1841e-05
1390.0 2.2776e-05
1410.0 2.3684e-05
1430.0 2.4632e-05
1450.0 2.5581e-05
1470.0 2.6497e-05
1490.0 2.7423e-05
1510.0 2.8402e-05
1530.0 2.9328e-05
1550.0 3.0242e-05
1570.0 3.1188e-05
1590.0 3.2134e-05
1610.0 3.3037e-05
1630.0 3.3968e-05
1650.0 3.4923e-05
1670.0 3.5846e-05
1690.0 3.6757e-05
1710.0 3.7702e-05
1730.0 3.8652e-05
1750.0 3.9543e-05
1770.0 4.0459e-05
1790.0 4.1393e-05
1810.0 4.2294e-05
1830.0 4.3178e-05
1850.0 4.4114e-05
1870.0 4.5022e-05
1890.0 4.5895e-05
1910.0 4.6783e-05
1930.0 4.7688e-05
1950.0 4.8545e-05
1970.0 4.9385e-05
1990.0 5.0252e-05
2010.0 5.1096e-05
2030.0 5.1899e-05
2050.0 5.2719e-05
2070.0 5.3552e-05
2090.0 5.4319e-05
2110.0 5.5071e-05
2130.0 5.5835e-05
2150.0 5.6566e-05
2170.0 5.7242e-05
2190.0 5.7931e-05
2210.0 5.8606e-05
2230.0 5.9225e-05
2250.0 5.9817e-05
2270.0 6.0423e-05
2290.0 6.0976e-05
2310.0 6.1467e-05
2330.0 6.1957e-05
2350.0 6.2426e-05
2370.0 6.2834e-05
2390.0 6.3228e-05
2410.0 6.3649e-05
2430.0 6.4044e-05
2450.0 6.4439e-05
2470.0 6.4921e-05
2490.0 6.5548e-05
2510.0 6.6337e-05
2530.0 6.7588e-05
2550.0 6.9762e-05
2570.0 7.3275e-05
2590.0 7.861e-05
2610.0 8.7133e-05
2630.0 9.8995e-05
2650.0 0.00011338
2670.0 0.0001303
2690.0 0.00014894
2710.0 0.00016658
2730.0 0.00018199
2750.0 0.00019546
2770.0 0.00020571
2790.0 0.00021277
2810.0 0.00021781
2830.0 0.00022164
2850.0 0.00022418
2870.0 0.00022623
2890.0 0.00022826
2910.0 0.00023019
2930.0 0.00023184
2950.0 0.00023363
2970.0 0.0002355
2990.0 0.00023713
3010.0 0.0023607
3030.0 0.0023771
3050.0 0.0023922
3070.0 0.0024027
3090.0 0.002411
3110.0 0.0024137
3130.0 0.0024062
3150.0 0.0023874
3170.0 0.002355
3190.0 0.0023096
3210.0 0.0022573
3230.0 0.0022035
3250.0 0.0021515
3270.0 0.0021244
3290.0 0.0021097
3310.0 0.0021376
3330.0 0.0021842
3350.0 0.0022501
3370.0 0.0023373
3390.0 0.0024418
3410.0 0.0025509
3430.0 0.0026682
3450.0 0.0027964
3470.0 0.002928
3490.0 0.0030601
3510.0 0.0032001
3530.0 0.0033435
3550.0 0.003494
3570.0 0.003657
3590.0 0.0038276
3610.0 0.0040192
3630.0 0.00419
3650.0 0.0043612
3670.0 0.0044986
3690.0 0.004598
3710.0 0.0046563
3730.0 0.0046527
3750.0 0.0046522
3770.0 0.0046777
3790.0 0.0048149
3810.0 0.0051024
3830.0 0.0054874
3850.0 0.0060386
3870.0 0.0067753
3890.0 0.0076059
3910.0 0.0084518
3930.0 0.0091415
3950.0 0.0095711
3970.0 0.0085319
3990.0 0.00663
4010.0 0.0063953
4030.0 0.0077615
4050.0 0.0090171
4070.0 0.0079605
4090.0 0.005517
4110.0 0.0057415
4130.0 0.0072509
4150.0 0.0079872
4170.0 0.0070927
4190.0 0.0063525
4210.0 0.0076519
4230.0 0.0083048
4250.0 0.0081214
4270.0 0.0082662
4290.0 0.0077532
4310.0 0.0083538
4330.0 0.0095541
4350.0 0.011212
4370.0 0.011622
4390.0 0.011106
4410.0 0.0095571
4430.0 0.0078079
4450.0 0.0060965
4470.0 0.0062231
4490.0 0.0069488
4510.0 0.009025
4530.0 0.0095606
4550.0 0.0096683
4570.0 0.011152
4590.0 0.014326
4610.0 0.019713
4630.0 0.023717
4650.0 0.023644
4670.0 0.024252
4690.0 0.026585
4710.0 0.026203
4730.0 0.020966
4750.0 0.015101
4770.0 0.012598
4790.0 0.011599
4810.0 0.010732
4830.0 0.011328
4850.0 0.013166
4870.0 0.016337
4890.0 0.017283
4910.0 0.014905
4930.0 0.014938
4950.0 0.018455
4970.0 0.02396
4990.0 0.028004
5010.0 0.027999
5030.0 0.023064
5050.0 0.01615
5070.0 0.011884
5090.0 0.010356
5110.0 0.010557
5130.0 0.011555
5150.0 0.011148
5170.0 0.011158
5190.0 0.011007
5210.0 0.011041
5230.0 0.011795
5250.0 0.012244
5270.0 0.013733
5290.0 0.016465
5310.0 0.018099
5330.0 0.01889
5350.0 0.019795
5370.0 0.021468
5390.0 0.022082
5410.0 0.020063
5430.0 0.017965
5450.0 0.01808
5470.0 0.021751
5490.0 0.028216
5510.0 0.034058
5530.0 0.036156
5550.0 0.034934
5570.0 0.032588
5590.0 0.030147
5610.0 0.028894
5630.0 0.029296
5650.0 0.030064
5670.0 0.029234
5690.0 0.027813
5710.0 0.026939
5730.0 0.023625
5750.0 0.018266
5770.0 0.016604
5790.0 0.018763
5810.0 0.021305
5830.0 0.023884
5850.0 0.024959
5870.0 0.024442
5890.0 0.022684
5910.0 0.021392
5930.0 0.021761
5950.0 0.023159
5970.0 0.02358
5990.0 0.021069
6010.0 0.017103
6030.0 0.01374
6050.0 0.012485
6070.0 0.01343
6090.0 0.015147
6110.0 0.0153
6130.0 0.01413
6150.0 0.013917
6170.0 0.015537
6190.0 0.018504
6210.0 0.022298
6230.0 0.024898
6250.0 0.023951
6270.0 0.021044
6290.0 0.017392
6310.0 0.013722
6330.0 0.011491
6350.0 0.011256
6370.0 0.012404
6390.0 0.013789
6410.0 0.016019
6430.0 0.019401
6450.0 0.023869
6470.0 0.028711
6490.0 0.033059
6510.0 0.034823
6530.0 0.033323
6550.0 0.032
6570.0 0.032072
6590.0 0.031561
6610.0 0.029585
6630.0 0.027754
6650.0 0.026155
6670.0 0.026122
6690.0 0.025475
6710.0 0.022974
6730.0 0.020006
6750.0 0.018062
6770.0 0.018835
6790.0 0.020122
6810.0 0.021541
6830.0 0.021953
6850.0 0.02087
6870.0 0.020055
6890.0 0.019594
6910.0 0.018551
6930.0 0.017743
6950.0 0.01797
6970.0 0.018531
6990.0 0.01988
7010.0 0.021326
7030.0 0.020746
7050.0 0.01883
7070.0 0.016589
7090.0 0.014028
7110.0 0.012703
7130.0 0.013475
7150.0 0.014525
7170.0 0.014603
7190.0 0.014184
7210.0 0.014127
7230.0 0.01596
7250.0 0.018468
7270.0 0.020211
7290.0 0.02054
7310.0 0.019248
7330.0 0.017477
7350.0 0.016108
7370.0 0.015526
7390.0 0.015602
7410.0 0.01658
7430.0 0.018825
7450.0 0.021071
7470.0 0.023717
7490.0 0.02645
7510.0 0.024536
7530.0 0.02148
7550.0 0.018279
7570.0 0.015307
7590.0 0.012509
7610.0 0.012028
7630.0 0.012864
7650.0 0.014404
7670.0 0.016467
7690.0 0.018154
7710.0 0.020354
7730.0 0.021531
7750.0 0.022328
7770.0 0.023098
7790.0 0.023091
7810.0 0.022998
7830.0 0.022161
7850.0 0.021484
7870.0 0.020596
7890.0 0.018826
7910.0 0.01703
7930.0 0.015252
7950.0 0.013402
7970.0 0.012819
7990.0 0.013344
8010.0 0.014956
8030.0 0.015083
8050.0 0.015521
8070.0 0.015323
8090.0 0.015308
8110.0 0.014873
8130.0 0.013956
8150.0 0.013028
8170.0 0.012912
8190.0 0.013105
8210.0 0.013247
8230.0 0.012659
8250.0 0.011998
8270.0 0.010567
8290.0 0.0085769
8310.0 0.006591
8330.0 0.0046076
8350.0 0.0034016
8370.0 0.0032466
8390.0 0.0037281
8410.0 0.0045243
8430.0 0.0056201
8450.0 0.0062034
8470.0 0.0066098
8490.0 0.0071335
8510.0 0.0076009
8530.0 0.008415
8550.0 0.0099181
8570.0 0.011454
8590.0 0.012763
8610.0 0.014772
8630.0 0.017113
8650.0 0.018183
8670.0 0.018374
8690.0 0.018098
8710.0 0.017373
8730.0 0.016658
8750.0 0.015751
8770.0 0.01542
8790.0 0.014864
8810.0 0.013766
8830.0 0.012835
8850.0 0.0111
8870.0 0.010049
8890.0 0.0093063
8910.0 0.010077
8930.0 0.0096652
8950.0 0.0098632
8970.0 0.01002
8990.0 0.010017
9010.0 0.01014
9030.0 0.0098542
9050.0 0.0098347
9070.0 0.0098438
9090.0 0.0098533
9110.0 0.0098647
9130.0 0.0098752
9150.0 0.0098863
9170.0 0.0098869
9190.0 0.0098732
9210.0 0.0099585
9230.0 0.0099558
9250.0 0.0099632
9270.0 0.0099736
9290.0 0.0099864
9310.0 0.010001
9330.0 0.010017
9350.0 0.010035
9370.0 0.010053
9390.0 0.010072
9410.0 0.010091
9430.0 0.010112
9450.0 0.010133
9470.0 0.010155
9490.0 0.010177
9510.0 0.0102
9530.0 0.010224
9550.0 0.010249
9570.0 0.010274
9590.0 0.0103
9610.0 0.010326
9630.0 0.010354
9650.0 0.010382
9670.0 0.01041
9690.0 0.010439
9710.0 0.010469
9730.0 0.010499
9750.0 0.01053
9770.0 0.010562
9790.0 0.010594
9810.0 0.010626
9830.0 0.010659
9850.0 0.010693
9870.0 0.010727
9890.0 0.010761
9910.0 0.010796
9930.0 0.010831
9950.0 0.010861
9970.0 0.010899
9990.0 0.010937
10010.0 0.01097
10030.0 0.011007
10050.0 0.011041
10070.0 0.011056
10090.0 0.011101
10110.0 0.011144
10130.0 0.011186
10150.0 0.011227
10170.0 0.011265
10190.0 0.011302
10210.0 0.01134
10230.0 0.011377
10250.0 0.011413
10270.0 0.011449
10290.0 0.011486
10310.0 0.011521
10330.0 0.011555
10350.0 0.01159
10370.0 0.011624
10390.0 0.011657
10410.0 0.01169
10430.0 0.011723
10450.0 0.011754
10470.0 0.011785
10490.0 0.011815
10510.0 0.011845
10530.0 0.011873
10550.0 0.0119
10570.0 0.011928
10590.0 0.011954
10610.0 0.011978
10630.0 0.012003
10650.0 0.012026
10670.0 0.012047
10690.0 0.012068
10710.0 0.012089
10730.0 0.012107
10750.0 0.012123
10770.0 0.01214
10790.0 0.012156
10810.0 0.012169
10830.0 0.012181
10850.0 0.012191
10870.0 0.012196
10890.0 0.012194
10910.0 0.012183
10930.0 0.012154
10950.0 0.012098
10970.0 0.012008
10990.0 0.011882
11010.0 0.011774
11030.0 0.011528
11050.0 0.011246
11070.0 0.010924
11090.0 0.010553
11110.0 0.010183
11130.0 0.0098135
11150.0 0.0094343
11170.0 0.0090658
11190.0 0.0087317
11210.0 0.0084114
11230.0 0.0081099
11250.0 0.0078479
11270.0 0.0076191
11290.0 0.0074114
11310.0 0.007233
11330.0 0.0070886
11350.0 0.0069598
11370.0 0.0068436
11390.0 0.0067404
11410.0 0.0066426
11430.0 0.0065381
11450.0 0.0064297
11470.0 0.0063158
11490.0 0.0061885
11510.0 0.0060445
11530.0 0.0058947
11550.0 0.0057359
11570.0 0.0055625
11590.0 0.0053849
11610.0 0.0052102
11630.0 0.0050295
11650.0 0.0048479
11670.0 0.0046803
11690.0 0.0045206
11710.0 0.0043655
11730.0 0.0042228
11750.0 0.0040958
11770.0 0.0039745
11790.0 0.0038619
11810.0 0.0037612
11830.0 0.0036677
11850.0 0.0035756
11870.0 0.0034901
11890.0 0.0034092
11910.0 0.003327
11930.0 0.0032434
11950.0 0.0031616
11970.0 0.0030773
11990.0 0.0029876
12010.0 0.0028982
12030.0 0.0028094
12050.0 0.0027179
12070.0 0.0026258
12090.0 0.0025415
12110.0 0.0024603
12130.0 0.0023835
12150.0 0.0023166
12170.0 0.0022606
12190.0 0.0022136
12210.0 0.0021805
12230.0 0.0021618
12250.0 0.0021571
12270.0 0.0021678
12290.0 0.0021926
12310.0 0.002229
12330.0 0.0022798
12350.0 0.0023414
12370.0 0.0024088
12390.0 0.0024834
12410.0 0.0025667
12430.0 0.002646
12450.0 0.0027229
12470.0 0.0027991
12490.0 0.0028693
12510.0 0.0029286
12530.0 0.0029815
12550.0 0.0030257
12570.0 0.0030574
12590.0 0.0030783
12610.0 0.0030895
12630.0 0.0030896
12650.0 0.0030792
12670.0 0.00306
12690.0 0.0030321
12710.0 0.0029973
12730.0 0.0029568
12750.0 0.0029091
12770.0 0.0028575
12790.0 0.0028037
12810.0 0.002746
12830.0 0.0026847
12850.0 0.0026236
12870.0 0.0025611
12890.0 0.0024949
12910.0 0.0024276
12930.0 0.0023603
12950.0 0.0022888
12970.0 0.0022139
12990.0 0.0021402
13010.0 0.002065
13030.0 0.0019865
13050.0 0.0019089
13070.0 0.0018345
13090.0 0.0017591
13110.0 0.001686
13130.0 0.0016192
13150.0 0.0015572
13170.0 0.0014989
13190.0 0.0014496
13210.0 0.0014089
13230.0 0.001375
13250.0 0.0013493
13270.0 0.0013321
13290.0 0.0013221
13310.0 0.0013192
13330.0 0.0013226
13350.0 0.0013308
13370.0 0.0013438
13390.0 0.0013603
13410.0 0.0013775
13430.0 0.001396
13450.0 0.0014153
13470.0 0.0014332
13490.0 0.0014493
13510.0 0.001465
13530.0 0.0014783
13550.0 0.0014889
13570.0 0.0014978
13590.0 0.0015053
13610.0 0.0015109
13630.0 0.0015149
13650.0 0.0015183
13670.0 0.0015208
13690.0 0.0015225
13710.0 0.0015236
13730.0 0.0015245
13750.0 0.0015244
13770.0 0.0015236
13790.0 0.001522
13810.0 0.0015193
13830.0 0.0015153
13850.0 0.0015099
13870.0 0.0015026
13890.0 0.0014938
13910.0 0.0014833
13930.0 0.0014707
13950.0 0.0014565
13970.0 0.0014417
13990.0 0.0014257
14010.0 0.001409
14030.0 0.0013926
14050.0 0.0013767
14070.0 0.0013608
14090.0 0.0013464
14110.0 0.0013336
14130.0 0.0013221
14150.0 0.001312
14170.0 0.0013039
14190.0 0.0012974
14210.0 0.0012924
14230.0 0.0012892
14250.0 0.0012876
14270.0 0.0012879
14290.0 0.00129
14310.0 0.0012938
14330.0 0.0012994
14350.0 0.001307
14370.0 0.0013162
14390.0 0.0013264
14410.0 0.0013386
14430.0 0.001352
14450.0 0.0013659
14470.0 0.0013807
14490.0 0.0013972
14510.0 0.0014139
14530.0 0.0014311
14550.0 0.0014502
14570.0 0.0014711
14590.0 0.0014932
14610.0 0.0015182
14630.0 0.0015473
14650.0 0.0015791
14670.0 0.0016139
14690.0 0.0016539
14710.0 0.0016987
14730.0 0.0017443
14750.0 0.0017941
14770.0 0.0018479
14790.0 0.001902
14810.0 0.0019555
14830.0 0.0020122
14850.0 0.0020664
14870.0 0.0021159
14890.0 0.0021625
14910.0 0.0022055
14930.0 0.0022412
14950.0 0.0022703
14970.0 0.0022941
14990.0 0.0023109
15010.0 0.0023215
15030.0 0.0023272
15050.0 0.0023286
15070.0 0.0023269
15090.0 0.0023233
15110.0 0.0023183
15130.0 0.0023125
15150.0 0.0023067
15170.0 0.0023005
15190.0 0.0022941
15210.0 0.002288
15230.0 0.0022819
15250.0 0.0022757
15270.0 0.0022695
15290.0 0.0022637
15310.0 0.0022577
15330.0 0.0022517
15350.0 0.0022459
15370.0 0.0022402
15390.0 0.0022342
15410.0 0.0022284
15430.0 0.0022228
15450.0 0.002217
15470.0 0.0022112
15490.0 0.0022057
15510.0 0.0022002
15530.0 0.0021945
15550.0 0.0021889
15570.0 0.0021835
15590.0 0.0021779
15610.0 0.0021722
15630.0 0.0021668
15650.0 0.0021614
15670.0 0.0021558
15690.0 0.0021504
15710.0 0.0021451
15730.0 0.0021396
15750.0 0.0021341
15770.0 0.0021288
15790.0 0.0021235
15810.0 0.0021178
15830.0 0.0021124
15850.0 0.0021072
15870.0 0.0021017
15890.0 0.0020962
15910.0 0.002091
15930.0 0.0020856
15950.0 0.00208
15970.0 0.0020746
15990.0 0.0020693
16010.0 0.0020638
16030.0 0.0020582
16050.0 0.0020529
16070.0 0.0020475
16090.0 0.0020419
16110.0 0.0020365
16130.0 0.0020312
16150.0 0.0020254
16170.0 0.0020198
16190.0 0.0020144
16210.0 0.0020088
16230.0 0.002003
16250.0 0.0019975
16270.0 0.0019921
16290.0 0.0019863
16310.0 0.0019806
16330.0 0.001975
16350.0 0.0019693
16370.0 0.0019633
16390.0 0.0019576
16410.0 0.001952
16430.0 0.0019461
16450.0 0.0019402
16470.0 0.0019346
16490.0 0.0019286
16510.0 0.0019225
16530.0 0.0019167
16550.0 0.0019108
16570.0 0.0019046
16590.0 0.0018985
16610.0 0.0018926
16630.0 0.0018865
16650.0 0.0018803
16670.0 0.0018743
16690.0 0.0018682
16710.0 0.0018617
16730.0 0.0018555
16750.0 0.0018494
16770.0 0.001843
16790.0 0.0018365
16810.0 0.0018303
16830.0 0.001824
16850.0 0.0018174
16870.0 0.001811
16890.0 0.0018047
16910.0 0.001798
16930.0 0.0017913
16950.0 0.0017848
16970.0 0.0017783
16990.0 0.0017715
17010.0 0.0017648
17030.0 0.0017583
17050.0 0.0017515
17070.0 0.0017446
17090.0 0.0017379
17110.0 0.0017311
17130.0 0.001724
17150.0 0.0017171
17170.0 0.0017104
17190.0 0.0017033
17210.0 0.0016962
17230.0 0.0016894
17250.0 0.0016824
17270.0 0.0016751
17290.0 0.001668
17310.0 0.001661
17330.0 0.0016537
17350.0 0.0016463
17370.0 0.0016393
17390.0 0.0016321
17410.0 0.0016247
17430.0 0.0016175
17450.0 0.0016103
17470.0 0.0016027
17490.0 0.0015952
17510.0 0.001588
17530.0 0.0015805
17550.0 0.0015729
17570.0 0.0015655
17590.0 0.0015582
17610.0 0.0015505
17630.0 0.0015429
17650.0 0.0015355
17670.0 0.0015278
17690.0 0.0015199
17710.0 0.0015124
17730.0 0.0015049
17750.0 0.001497
17770.0 0.0014893
17790.0 0.0014818
17810.0 0.001474
17830.0 0.001466
17850.0 0.0014584
17870.0 0.0014506
17890.0 0.0014426
17910.0 0.0014347
17930.0 0.0014271
17950.0 0.0014192
17970.0 0.0014112
17990.0 0.0014034
18010.0 0.0013956
18030.0 0.0013874
18050.0 0.0013795
18070.0 0.0013717
18090.0 0.0013636
18110.0 0.0013555
18130.0 0.0013477
18150.0 0.0013398
18170.0 0.0013316
18190.0 0.0013236
18210.0 0.0013158
18230.0 0.0013076
18250.0 0.0012993
18270.0 0.0012915
18290.0 0.0012835
18310.0 0.0012752
18330.0 0.0012672
18350.0 0.0012593
18370.0 0.0012511
18390.0 0.0012429
18410.0 0.001235
18430.0 0.0012269
18450.0 0.0012185
18470.0 0.0012105
18490.0 0.0012026
18510.0 0.0011944
18530.0 0.0011862
18550.0 0.0011783
18570.0 0.0011702
18590.0 0.0011618
18610.0 0.0011538
18630.0 0.0011458
18650.0 0.0011376
18670.0 0.0011293
18690.0 0.0011214
18710.0 0.0011133
18730.0 0.0011051
18750.0 0.0010971
18770.0 0.0010892
18790.0 0.0010808
18810.0 0.0010727
18830.0 0.0010647
18850.0 0.0010567
18870.0 0.0010484
18890.0 0.0010405
18910.0 0.0010326
18930.0 0.0010244
18950.0 0.0010163
18970.0 0.0010084
18990.0 0.0010003
19010.0 0.00099201
19030.0 0.00098417
19050.0 0.00097627
19070.0 0.00096814
19090.0 0.00096014
19110.0 0.00095241
19130.0 0.00094431
19150.0 0.0009362
19170.0 0.00092836
19190.0 0.0009205
19210.0 0.00091237
19230.0 0.0009044
19250.0 0.00089672
19270.0 0.00088877
19290.0 0.00088079
19310.0 0.00087306
19330.0 0.0008653
19350.0 0.00085717
19370.0 0.00084935
19390.0 0.00084167
19410.0 0.00083379
19430.0 0.00082585
19450.0 0.00081825
19470.0 0.00081055
19490.0 0.00080265
19510.0 0.00079493
19530.0 0.00078737
19550.0 0.0007795
19570.0 0.00077162
19590.0 0.00076411
19610.0 0.00075648
19630.0 0.00074868
19650.0 0.0007411
19670.0 0.00073367
19690.0 0.0007259
19710.0 0.00071822
19730.0 0.00071078
19750.0 0.00070323
19770.0 0.00069543
19790.0 0.00068796
19810.0 0.00068059
19830.0 0.00067297
19850.0 0.00066536
19870.0 0.00065794
19890.0 0.00065013
19910.0 0.00064181
19930.0 0.00063328
19950.0 0.00062407
19970.0 0.00061349
19990.0 0.00060166
20010.0 0.0005891
20030.0 0.00057491
20050.0 0.00055946
20070.0 0.00054387
20090.0 0.00052828
20110.0 0.00051205
20130.0 0.00049702
20150.0 0.00048338
20170.0 0.00047052
20190.0 0.00045876
20210.0 0.00044873
20230.0 0.00043993
20250.0 0.00043207
20270.0 0.00042564
20290.0 0.00042048
20310.0 0.00041628
20330.0 0.00041309
20350.0 0.00041105
20370.0 0.00040986
20390.0 0.00040956
20410.0 0.00041011
20430.0 0.0004114
20450.0 0.00041361
20470.0 0.00041665
20490.0 0.00042033
20510.0 0.0004248
20530.0 0.00043022
20550.0 0.00043622
20570.0 0.00044262
20590.0 0.00044986
20610.0 0.00045764
20630.0 0.00046549
20650.0 0.00047369
20670.0 0.00048248
20690.0 0.00049088
20710.0 0.00049904
20730.0 0.00050727
20750.0 0.00051528
20770.0 0.00052261
20790.0 0.0005298
20810.0 0.00053693
20830.0 0.00054362
20850.0 0.00055007
20870.0 0.00055681
20890.0 0.00056363
20910.0 0.00057023
20930.0 0.00057722
20950.0 0.00058466
20970.0 0.0005921
20990.0 0.00059961
21010.0 0.00060765
21030.0 0.00061556
21050.0 0.00062305
21070.0 0.00063038
21090.0 0.00063745
21110.0 0.0006435
21130.0 0.00064875
21150.0 0.00065329
21170.0 0.00065678
21190.0 0.00065913
21210.0 0.00066052
21230.0 0.00066079
21250.0 0.00065994
21270.0 0.00065809
21290.0 0.00065517
21310.0 0.00065128
21330.0 0.0006467
21350.0 0.00064119
21370.0 0.00063484
21390.0 0.00062805
21410.0 0.00062077
21430.0 0.00061259
21450.0 0.00060431
21470.0 0.00059604
21490.0 0.00058741
21510.0 0.00057865
21530.0 0.00057034
21550.0 0.0005622
21570.0 0.00055408
21590.0 0.00054661
21610.0 0.00053985
21630.0 0.00053354
21650.0 0.00052787
21670.0 0.00052338
21690.0 0.00051968
21710.0 0.00051686
21730.0 0.00051509
21750.0 0.00051432
21770.0 0.00051458
21790.0 0.00051591
21810.0 0.00051818
21830.0 0.00052142
21850.0 0.00052577
21870.0 0.00053088
21890.0 0.0005366
21910.0 0.00054331
21930.0 0.00055072
21950.0 0.00055843
21970.0 0.00056675
21990.0 0.00057593
22010.0 0.000585
22030.0 0.00059416
22050.0 0.00060376
22070.0 0.00061341
22090.0 0.00062253
22110.0 0.00063172
22130.0 0.00064086
22150.0 0.00064931
22170.0 0.00065716
22190.0 0.00066475
22210.0 0.00067154
22230.0 0.00067716
22250.0 0.00068203
22270.0 0.00068594
22290.0 0.00068861
22310.0 0.00069012
22330.0 0.00069044
22350.0 0.00068939
22370.0 0.00068707
22390.0 0.00068338
22410.0 0.00067814
22430.0 0.00067182
22450.0 0.00066432
22470.0 0.00065531
22490.0 0.00064522
22510.0 0.00063447
22530.0 0.00062229
22550.0 0.00060898
22570.0 0.00059549
22590.0 0.00058141
22610.0 0.00056634
22630.0 0.00055108
22650.0 0.00053623
22670.0 0.00052069
22690.0 0.000505
22710.0 0.00048996
22730.0 0.00047519
22750.0 0.00045994
22770.0 0.00044575
22790.0 0.00043251
22810.0 0.00041954
22830.0 0.00040722
22850.0 0.00039627
22870.0 0.00038612
22890.0 0.00037664
22910.0 0.00036857
22930.0 0.00036181
22950.0 0.0003561
22970.0 0.00035166
22990.0 0.00034885
23010.0 0.00034731
23030.0 0.00034716
23050.0 0.00034842
23070.0 0.00035092
23090.0 0.00035494
23110.0 0.00036023
23130.0 0.00036648
23150.0 0.00037382
23170.0 0.00038235
23190.0 0.00039137
23210.0 0.00040069
23230.0 0.00041079
23250.0 0.00042106
23270.0 0.00043098
23290.0 0.00044089
23310.0 0.00045084
23330.0 0.00045973
23350.0 0.00046782
23370.0 0.00047532
23390.0 0.00048177
23410.0 0.00048691
23430.0 0.00049108
23450.0 0.00049409
23470.0 0.00049579
23490.0 0.0004963
23510.0 0.00049558
23530.0 0.00049363
23550.0 0.0004907
23570.0 0.00048669
23590.0 0.0004816
23610.0 0.00047584
23630.0 0.00046941
23650.0 0.00046196
23670.0 0.00045415
23690.0 0.00044619
23710.0 0.00043782
23730.0 0.00042916
23750.0 0.00042107
23770.0 0.0004133
23790.0 0.0004058
