#lamb flux
1010.0 4.6771e-08
1030.0 5.173e-08
1050.0 5.7432e-08
1070.0 6.3852e-08
1090.0 7.1144e-08
1110.0 7.8622e-08
1130.0 8.615e-08
1150.0 9.4035e-08
1170.0 1.0217e-07
1190.0 1.0988e-07
1210.0 1.177e-07
1230.0 1.2577e-07
1250.0 1.3369e-07
1270.0 1.4137e-07
1290.0 1.4949e-07
1310.0 1.5761e-07
1330.0 1.6539e-07
1350.0 1.7326e-07
1370.0 1.8139e-07
1390.0 1.8931e-07
1410.0 1.97e-07
1430.0 2.0503e-07
1450.0 2.1307e-07
1470.0 2.2084e-07
1490.0 2.2869e-07
1510.0 2.3698e-07
1530.0 2.4484e-07
1550.0 2.5259e-07
1570.0 2.6062e-07
1590.0 2.6865e-07
1610.0 2.7633e-07
1630.0 2.8425e-07
1650.0 2.9238e-07
1670.0 3.0025e-07
1690.0 3.0802e-07
1710.0 3.161e-07
1730.0 3.2423e-07
1750.0 3.3188e-07
1770.0 3.3977e-07
1790.0 3.4782e-07
1810.0 3.5563e-07
1830.0 3.6331e-07
1850.0 3.7147e-07
1870.0 3.7944e-07
1890.0 3.8715e-07
1910.0 3.9503e-07
1930.0 4.0311e-07
1950.0 4.1085e-07
1970.0 4.1851e-07
1990.0 4.2648e-07
2010.0 4.3433e-07
2030.0 4.4192e-07
2050.0 4.4977e-07
2070.0 4.5782e-07
2090.0 4.6544e-07
2110.0 4.7305e-07
2130.0 4.809e-07
2150.0 4.8862e-07
2170.0 4.9603e-07
2190.0 5.0372e-07
2210.0 5.1148e-07
2230.0 5.1893e-07
2250.0 5.2637e-07
2270.0 5.3414e-07
2290.0 5.4169e-07
2310.0 5.4894e-07
2330.0 5.5649e-07
2350.0 5.6424e-07
2370.0 5.7195e-07
2390.0 5.8032e-07
2410.0 5.9022e-07
2430.0 6.0161e-07
2450.0 6.1522e-07
2470.0 6.3267e-07
2490.0 6.5465e-07
2510.0 6.7964e-07
2530.0 7.0972e-07
2550.0 7.4738e-07
2570.0 7.9423e-07
2590.0 8.5516e-07
2610.0 9.4639e-07
2630.0 1.0766e-06
2650.0 1.247e-06
2670.0 1.4672e-06
2690.0 1.7378e-06
2710.0 2.0266e-06
2730.0 2.312e-06
2750.0 2.5931e-06
2770.0 2.8377e-06
2790.0 3.0318e-06
2810.0 3.1859e-06
2830.0 3.3063e-06
2850.0 3.3885e-06
2870.0 3.4488e-06
2890.0 3.4966e-06
2910.0 3.5347e-06
2930.0 3.5659e-06
2950.0 3.5956e-06
2970.0 3.6247e-06
2990.0 3.6519e-06
3010.0 0.00010322
3030.0 0.000104
3050.0 0.00010474
3070.0 0.00010538
3090.0 0.00010593
3110.0 0.00010627
3130.0 0.00010626
3150.0 0.00010578
3170.0 0.00010465
3190.0 0.00010287
3210.0 0.00010062
3230.0 9.8033e-05
3250.0 9.5483e-05
3270.0 9.3621e-05
3290.0 9.2586e-05
3310.0 9.2754e-05
3330.0 9.4096e-05
3350.0 9.6434e-05
3370.0 9.9772e-05
3390.0 0.00010398
3410.0 0.00010856
3430.0 0.0001137
3450.0 0.00011961
3470.0 0.00012607
3490.0 0.00013292
3510.0 0.00014066
3530.0 0.00014895
3550.0 0.00015734
3570.0 0.00016609
3590.0 0.00017561
3610.0 0.00018542
3630.0 0.0001952
3650.0 0.00020534
3670.0 0.00021461
3690.0 0.00022153
3710.0 0.0002255
3730.0 0.00022563
3750.0 0.00022249
3770.0 0.00022126
3790.0 0.00021994
3810.0 0.00021454
3830.0 0.00022118
3850.0 0.0002473
3870.0 0.00026164
3890.0 0.00026045
3910.0 0.00026156
3930.0 0.00026844
3950.0 0.00027268
3970.0 0.00024844
3990.0 0.00021377
4010.0 0.0006407
4030.0 0.0007763
4050.0 0.00088998
4070.0 0.00077221
4090.0 0.00069938
4110.0 0.00061714
4130.0 0.00056801
4150.0 0.00060419
4170.0 0.00059516
4190.0 0.0006344
4210.0 0.00062859
4230.0 0.00066488
4250.0 0.00078657
4270.0 0.00079582
4290.0 0.00073334
4310.0 0.00076199
4330.0 0.00081053
4350.0 0.0009088
4370.0 0.0010342
4390.0 0.00097052
4410.0 0.00071705
4430.0 0.00060702
4450.0 0.00055779
4470.0 0.00042812
4490.0 0.000462
4510.0 0.00069785
4530.0 0.00080483
4550.0 0.00081181
4570.0 0.0009135
4590.0 0.0010406
4610.0 0.0014035
4630.0 0.0018228
4650.0 0.0019768
4670.0 0.0018307
4690.0 0.0017468
4710.0 0.0018465
4730.0 0.0017426
4750.0 0.0013028
4770.0 0.00095567
4790.0 0.0008924
4810.0 0.0008506
4830.0 0.00077872
4850.0 0.00085451
4870.0 0.0011289
4890.0 0.0013313
4910.0 0.001168
4930.0 0.0010335
4950.0 0.0011355
4970.0 0.0014562
4990.0 0.0019735
5010.0 0.0022703
5030.0 0.0020018
5050.0 0.0013544
5070.0 0.00089259
5090.0 0.00071974
5110.0 0.00074019
5130.0 0.00085429
5150.0 0.00092556
5170.0 0.00091167
5190.0 0.0008519
5210.0 0.00089042
5230.0 0.00093604
5250.0 0.0010088
5270.0 0.0010884
5290.0 0.0012062
5310.0 0.001404
5330.0 0.0015537
5350.0 0.0015438
5370.0 0.0016216
5390.0 0.0018608
5410.0 0.0018591
5430.0 0.0016441
5450.0 0.0015106
5470.0 0.001604
5490.0 0.0019596
5510.0 0.0024502
5530.0 0.0028102
5550.0 0.0027161
5570.0 0.0024691
5590.0 0.002147
5610.0 0.00198
5630.0 0.00192
5650.0 0.0018286
5670.0 0.0017327
5690.0 0.0015491
5710.0 0.0015104
5730.0 0.0013913
5750.0 0.00098092
5770.0 0.00076528
5790.0 0.00086723
5810.0 0.00097926
5830.0 0.0012017
5850.0 0.0014305
5870.0 0.0015871
5890.0 0.001614
5910.0 0.0015835
5930.0 0.0015073
5950.0 0.0015359
5970.0 0.0017508
5990.0 0.0016462
6010.0 0.00138
6030.0 0.0011659
6050.0 0.0010153
6070.0 0.0010098
6090.0 0.0010949
6110.0 0.0012243
6130.0 0.0012431
6150.0 0.0010696
6170.0 0.00094088
6190.0 0.0010588
6210.0 0.0013997
6230.0 0.0018369
6250.0 0.0019896
6270.0 0.0017386
6290.0 0.0014628
6310.0 0.001142
6330.0 0.00087497
6350.0 0.00078045
6370.0 0.00082072
6390.0 0.00094881
6410.0 0.0011699
6430.0 0.0013661
6450.0 0.0015632
6470.0 0.0017899
6490.0 0.0021621
6510.0 0.0024175
6530.0 0.0023717
6550.0 0.0021447
6570.0 0.0018206
6590.0 0.0016417
6610.0 0.0014156
6630.0 0.0012825
6650.0 0.0012123
6670.0 0.0011777
6690.0 0.0010641
6710.0 0.00096732
6730.0 0.00069675
6750.0 0.00069075
6770.0 0.0007508
6790.0 0.00086298
6810.0 0.00078965
6830.0 0.00081312
6850.0 0.00076053
6870.0 0.00069474
6890.0 0.00066706
6910.0 0.00071084
6930.0 0.0006658
6950.0 0.00068499
6970.0 0.00072049
6990.0 0.00081781
7010.0 0.00082478
7030.0 0.00083788
7050.0 0.00079905
7070.0 0.00076136
7090.0 0.00076359
7110.0 0.00078567
7130.0 0.0008455
7150.0 0.00089799
7170.0 0.00099087
7190.0 0.0010892
7210.0 0.0010703
7230.0 0.0011003
7250.0 0.0011825
7270.0 0.0012886
7290.0 0.0015294
7310.0 0.0016596
7330.0 0.0016041
7350.0 0.0014508
7370.0 0.0012624
7390.0 0.0012246
7410.0 0.0013014
7430.0 0.0014464
7450.0 0.0015754
7470.0 0.0015609
7490.0 0.0014232
7510.0 0.0016122
7530.0 0.0015945
7550.0 0.0014332
7570.0 0.0011196
7590.0 0.00076967
7610.0 0.00066061
7630.0 0.00075058
7650.0 0.00088746
7670.0 0.0011045
7690.0 0.0012154
7710.0 0.0012666
7730.0 0.0013311
7750.0 0.0014943
7770.0 0.0015178
7790.0 0.0013941
7810.0 0.0012721
7830.0 0.0013118
7850.0 0.0012752
7870.0 0.0011691
7890.0 0.00098229
7910.0 0.00079847
7930.0 0.00076242
7950.0 0.00069459
7970.0 0.00064297
7990.0 0.0006393
8010.0 4.7348e-05
8030.0 4.6733e-05
8050.0 4.6103e-05
8070.0 4.6706e-05
8090.0 5.0185e-05
8110.0 4.933e-05
8130.0 4.0691e-05
8150.0 3.9628e-05
8170.0 3.4134e-05
8190.0 3.2349e-05
8210.0 4.2009e-05
8230.0 4.6771e-05
8250.0 4.2154e-05
8270.0 3.669e-05
8290.0 3.5766e-05
8310.0 2.7527e-05
8330.0 1.8553e-05
8350.0 1.3167e-05
8370.0 8.2957e-06
8390.0 1.5164e-05
8410.0 1.7671e-05
8430.0 2.1782e-05
8450.0 2.5578e-05
8470.0 3.1792e-05
8490.0 3.1568e-05
8510.0 3.1051e-05
8530.0 3.2407e-05
8550.0 4.3723e-05
8570.0 5.1762e-05
8590.0 5.585e-05
8610.0 7.0551e-05
8630.0 8.4989e-05
8650.0 8.8908e-05
8670.0 9.4482e-05
8690.0 9.5011e-05
8710.0 8.6046e-05
8730.0 8.0036e-05
8750.0 7.0647e-05
8770.0 6.7034e-05
8790.0 6.5857e-05
8810.0 6.3105e-05
8830.0 5.0463e-05
8850.0 3.6942e-05
8870.0 2.8286e-05
8890.0 2.7654e-05
8910.0 3.1692e-05
8930.0 3.6048e-05
8950.0 3.6738e-05
8970.0 3.6912e-05
8990.0 3.2921e-05
9010.0 0.000345
9030.0 0.00031261
9050.0 0.00031412
9070.0 0.0003166
9090.0 0.00031877
9110.0 0.00032146
9130.0 0.00032353
9150.0 0.00032514
9170.0 0.00032686
9190.0 0.00032869
9210.0 0.00033062
9230.0 0.00033266
9250.0 0.00033473
9270.0 0.00033687
9290.0 0.00033909
9310.0 0.00034131
9330.0 0.00034359
9350.0 0.00034594
9370.0 0.00034832
9390.0 0.00035073
9410.0 0.0003532
9430.0 0.00035575
9450.0 0.0003583
9470.0 0.00036089
9490.0 0.00036356
9510.0 0.00036626
9530.0 0.00036897
9550.0 0.00037178
9570.0 0.00037463
9590.0 0.0003775
9610.0 0.00038041
9630.0 0.00038341
9650.0 0.00038642
9670.0 0.00038944
9690.0 0.00039255
9710.0 0.0003957
9730.0 0.00039886
9750.0 0.00040207
9770.0 0.00040537
9790.0 0.00040866
9810.0 0.00041197
9830.0 0.00041536
9850.0 0.00041878
9870.0 0.0004222
9890.0 0.00042566
9910.0 0.0004292
9930.0 0.00043273
9950.0 0.00043628
9970.0 0.0004399
9990.0 0.00044356
10010.0 0.00038489
10030.0 0.00038805
10050.0 0.00039127
10070.0 0.00039461
10090.0 0.00039775
10110.0 0.00040097
10130.0 0.00040421
10150.0 0.00040743
10170.0 0.00041069
10190.0 0.00041401
10210.0 0.00041729
10230.0 0.00042056
10250.0 0.00042388
10270.0 0.0004272
10290.0 0.00043048
10310.0 0.0004338
10330.0 0.00043715
10350.0 0.00044045
10370.0 0.00044374
10390.0 0.00044706
10410.0 0.00045037
10430.0 0.00045361
10450.0 0.00045688
10470.0 0.00046017
10490.0 0.0004634
10510.0 0.0004666
10530.0 0.00046986
10550.0 0.00047307
10570.0 0.00047621
10590.0 0.00047936
10610.0 0.00048251
10630.0 0.00048559
10650.0 0.00048864
10670.0 0.00049172
10690.0 0.00049474
10710.0 0.00049769
10730.0 0.00050066
10750.0 0.00050362
10770.0 0.00050647
10790.0 0.00050929
10810.0 0.00051211
10830.0 0.00051484
10850.0 0.00051744
10870.0 0.00051995
10890.0 0.00052216
10910.0 0.00052386
10930.0 0.00052483
10950.0 0.0005246
10970.0 0.00052282
10990.0 0.00051934
11010.0 0.0005135
11030.0 0.00050533
11050.0 0.00049538
11070.0 0.00048347
11090.0 0.00046917
11110.0 0.00045437
11130.0 0.00043894
11150.0 0.00042232
11170.0 0.00040519
11190.0 0.00038858
11210.0 0.00037142
11230.0 0.00035382
11250.0 0.00033701
11270.0 0.00032086
11290.0 0.00030469
11310.0 0.00028937
11330.0 0.00027587
11350.0 0.00026312
11370.0 0.00025134
11390.0 0.00024115
11410.0 0.00023223
11430.0 0.00022395
11450.0 0.00021681
11470.0 0.00021064
11490.0 0.00020489
11510.0 0.00019936
11530.0 0.00019423
11550.0 0.00018912
11570.0 0.00018368
11590.0 0.00017804
11610.0 0.00017231
11630.0 0.00016606
11650.0 0.00015938
11670.0 0.00015279
11690.0 0.00014611
11710.0 0.00013922
11730.0 0.00013254
11750.0 0.00012636
11770.0 0.0001203
11790.0 0.00011461
11810.0 0.00010961
11830.0 0.00010514
11850.0 0.00010102
11870.0 9.7576e-05
11890.0 9.4712e-05
11910.0 9.2194e-05
11930.0 9.0031e-05
11950.0 8.8229e-05
11970.0 8.6619e-05
11990.0 8.5098e-05
12010.0 8.369e-05
12030.0 8.2334e-05
12050.0 8.0931e-05
12070.0 7.9473e-05
12090.0 7.8067e-05
12110.0 7.6639e-05
12130.0 7.5209e-05
12150.0 7.389e-05
12170.0 7.2739e-05
12190.0 7.1743e-05
12210.0 7.1049e-05
12230.0 7.0713e-05
12250.0 7.0767e-05
12270.0 7.1301e-05
12290.0 7.2309e-05
12310.0 7.3756e-05
12330.0 7.5781e-05
12350.0 7.8307e-05
12370.0 8.1184e-05
12390.0 8.4501e-05
12410.0 8.8387e-05
12430.0 9.2337e-05
12450.0 9.6427e-05
12470.0 0.00010078
12490.0 0.00010514
12510.0 0.00010924
12530.0 0.00011332
12550.0 0.00011725
12570.0 0.00012072
12590.0 0.00012377
12610.0 0.00012649
12630.0 0.00012865
12650.0 0.00013015
12670.0 0.00013113
12690.0 0.00013152
12710.0 0.00013131
12730.0 0.00013055
12750.0 0.00012919
12770.0 0.00012732
12790.0 0.00012506
12810.0 0.00012237
12830.0 0.00011924
12850.0 0.00011598
12870.0 0.00011253
12890.0 0.00010879
12910.0 0.00010499
12930.0 0.00010125
12950.0 9.7345e-05
12970.0 9.3369e-05
12990.0 8.9608e-05
13010.0 8.5894e-05
13030.0 8.2139e-05
13050.0 7.8531e-05
13070.0 7.5152e-05
13090.0 7.1761e-05
13110.0 6.848e-05
13130.0 6.5456e-05
13150.0 6.2591e-05
13170.0 5.9787e-05
13190.0 5.7291e-05
13210.0 5.5094e-05
13230.0 5.3086e-05
13250.0 5.1357e-05
13270.0 4.9993e-05
13290.0 4.8933e-05
13310.0 4.8202e-05
13330.0 4.7869e-05
13350.0 4.7908e-05
13370.0 4.8338e-05
13390.0 4.9182e-05
13410.0 5.0322e-05
13430.0 5.1805e-05
13450.0 5.3637e-05
13470.0 5.5671e-05
13490.0 5.7824e-05
13510.0 6.0253e-05
13530.0 6.2715e-05
13550.0 6.5073e-05
13570.0 6.7397e-05
13590.0 6.9661e-05
13610.0 7.1676e-05
13630.0 7.3435e-05
13650.0 7.5041e-05
13670.0 7.6374e-05
13690.0 7.7405e-05
13710.0 7.8202e-05
13730.0 7.8772e-05
13750.0 7.9057e-05
13770.0 7.9121e-05
13790.0 7.8978e-05
13810.0 7.8629e-05
13830.0 7.8114e-05
13850.0 7.7416e-05
13870.0 7.6536e-05
13890.0 7.5529e-05
13910.0 7.4395e-05
13930.0 7.3081e-05
13950.0 7.1648e-05
13970.0 7.0182e-05
13990.0 6.8585e-05
14010.0 6.6888e-05
14030.0 6.5194e-05
14050.0 6.3487e-05
14070.0 6.1686e-05
14090.0 5.996e-05
14110.0 5.8337e-05
14130.0 5.6765e-05
14150.0 5.5284e-05
14170.0 5.4021e-05
14190.0 5.2929e-05
14210.0 5.2002e-05
14230.0 5.1316e-05
14250.0 5.0872e-05
14270.0 5.0657e-05
14290.0 5.0703e-05
14310.0 5.0986e-05
14330.0 5.1493e-05
14350.0 5.224e-05
14370.0 5.317e-05
14390.0 5.4227e-05
14410.0 5.5472e-05
14430.0 5.6838e-05
14450.0 5.8234e-05
14470.0 5.9682e-05
14490.0 6.1222e-05
14510.0 6.2695e-05
14530.0 6.4093e-05
14550.0 6.5491e-05
14570.0 6.6834e-05
14590.0 6.8055e-05
14610.0 6.9237e-05
14630.0 7.0406e-05
14650.0 7.1496e-05
14670.0 7.2547e-05
14690.0 7.3644e-05
14710.0 7.4797e-05
14730.0 7.595e-05
14750.0 7.7227e-05
14770.0 7.8676e-05
14790.0 8.0247e-05
14810.0 8.1949e-05
14830.0 8.3966e-05
14850.0 8.6157e-05
14870.0 8.8444e-05
14890.0 9.0911e-05
14910.0 9.3531e-05
14930.0 9.6051e-05
14950.0 9.8405e-05
14970.0 0.00010063
14990.0 0.0001025
15010.0 0.00010393
15030.0 0.00010499
15050.0 0.00010569
15070.0 0.00010603
15090.0 0.00010615
15110.0 0.00010612
15130.0 0.00010598
15150.0 0.00010581
15170.0 0.00010559
15190.0 0.00010537
15210.0 0.00010514
15230.0 0.00010492
15250.0 0.00010469
15270.0 0.00010446
15290.0 0.00010424
15310.0 0.00010402
15330.0 0.00010379
15350.0 0.00010358
15370.0 0.00010336
15390.0 0.00010314
15410.0 0.00010292
15430.0 0.00010271
15450.0 0.00010249
15470.0 0.00010227
15490.0 0.00010206
15510.0 0.00010186
15530.0 0.00010164
15550.0 0.00010143
15570.0 0.00010123
15590.0 0.00010101
15610.0 0.0001008
15630.0 0.0001006
15650.0 0.00010039
15670.0 0.00010018
15690.0 9.9978e-05
15710.0 9.9781e-05
15730.0 9.9574e-05
15750.0 9.9367e-05
15770.0 9.9169e-05
15790.0 9.8969e-05
15810.0 9.8758e-05
15830.0 9.8558e-05
15850.0 9.8363e-05
15870.0 9.816e-05
15890.0 9.7957e-05
15910.0 9.7764e-05
15930.0 9.7566e-05
15950.0 9.736e-05
15970.0 9.7162e-05
15990.0 9.6968e-05
16010.0 9.6766e-05
16030.0 9.6563e-05
16050.0 9.6372e-05
16070.0 9.6176e-05
16090.0 9.5974e-05
16110.0 9.5779e-05
16130.0 9.5588e-05
16150.0 9.5383e-05
16170.0 9.5182e-05
16190.0 9.499e-05
16210.0 9.4793e-05
16230.0 9.4591e-05
16250.0 9.4396e-05
16270.0 9.4205e-05
16290.0 9.4003e-05
16310.0 9.3804e-05
16330.0 9.3611e-05
16350.0 9.3414e-05
16370.0 9.3206e-05
16390.0 9.3012e-05
16410.0 9.2818e-05
16430.0 9.2616e-05
16450.0 9.2416e-05
16470.0 9.2225e-05
16490.0 9.2024e-05
16510.0 9.1819e-05
16530.0 9.1622e-05
16550.0 9.1426e-05
16570.0 9.1219e-05
16590.0 9.1016e-05
16610.0 9.0822e-05
16630.0 9.062e-05
16650.0 9.0415e-05
16670.0 9.0217e-05
16690.0 9.0019e-05
16710.0 8.9808e-05
16730.0 8.9604e-05
16750.0 8.9406e-05
16770.0 8.92e-05
16790.0 8.899e-05
16810.0 8.8791e-05
16830.0 8.8589e-05
16850.0 8.8378e-05
16870.0 8.8172e-05
16890.0 8.7972e-05
16910.0 8.7761e-05
16930.0 8.7546e-05
16950.0 8.7343e-05
16970.0 8.7137e-05
16990.0 8.6923e-05
17010.0 8.6714e-05
17030.0 8.6511e-05
17050.0 8.6296e-05
17070.0 8.6081e-05
17090.0 8.5874e-05
17110.0 8.5663e-05
17130.0 8.5442e-05
17150.0 8.523e-05
17170.0 8.5022e-05
17190.0 8.4805e-05
17210.0 8.4587e-05
17230.0 8.4378e-05
17250.0 8.4162e-05
17270.0 8.3939e-05
17290.0 8.3723e-05
17310.0 8.3509e-05
17330.0 8.3287e-05
17350.0 8.3063e-05
17370.0 8.2851e-05
17390.0 8.2632e-05
17410.0 8.2407e-05
17430.0 8.2188e-05
17450.0 8.1973e-05
17470.0 8.1742e-05
17490.0 8.1517e-05
17510.0 8.1299e-05
17530.0 8.1075e-05
17550.0 8.0845e-05
17570.0 8.0624e-05
17590.0 8.0404e-05
17610.0 8.0173e-05
17630.0 7.9945e-05
17650.0 7.9723e-05
17670.0 7.9496e-05
17690.0 7.9257e-05
17710.0 7.9034e-05
17730.0 7.8808e-05
17750.0 7.8575e-05
17770.0 7.8344e-05
17790.0 7.8122e-05
17810.0 7.7887e-05
17830.0 7.7651e-05
17850.0 7.7422e-05
17870.0 7.7193e-05
17890.0 7.6953e-05
17910.0 7.6718e-05
17930.0 7.6491e-05
17950.0 7.6256e-05
17970.0 7.6018e-05
17990.0 7.5788e-05
18010.0 7.5556e-05
18030.0 7.5311e-05
18050.0 7.5075e-05
18070.0 7.4843e-05
18090.0 7.4604e-05
18110.0 7.4361e-05
18130.0 7.4129e-05
18150.0 7.3894e-05
18170.0 7.365e-05
18190.0 7.3412e-05
18210.0 7.3179e-05
18230.0 7.2934e-05
18250.0 7.2688e-05
18270.0 7.2453e-05
18290.0 7.2214e-05
18310.0 7.1968e-05
18330.0 7.1729e-05
18350.0 7.1494e-05
18370.0 7.1248e-05
18390.0 7.1002e-05
18410.0 7.0765e-05
18430.0 7.0523e-05
18450.0 7.0272e-05
18470.0 7.003e-05
18490.0 6.9793e-05
18510.0 6.9546e-05
18530.0 6.93e-05
18550.0 6.9063e-05
18570.0 6.8819e-05
18590.0 6.8567e-05
18610.0 6.8324e-05
18630.0 6.8084e-05
18650.0 6.7834e-05
18670.0 6.7585e-05
18690.0 6.7347e-05
18710.0 6.7102e-05
18730.0 6.6852e-05
18750.0 6.6609e-05
18770.0 6.6369e-05
18790.0 6.6114e-05
18810.0 6.5865e-05
18830.0 6.5625e-05
18850.0 6.5378e-05
18870.0 6.5126e-05
18890.0 6.4884e-05
18910.0 6.4642e-05
18930.0 6.439e-05
18950.0 6.4142e-05
18970.0 6.3901e-05
18990.0 6.3653e-05
19010.0 6.3396e-05
19030.0 6.3154e-05
19050.0 6.2911e-05
19070.0 6.266e-05
19090.0 6.2412e-05
19110.0 6.2173e-05
19130.0 6.1922e-05
19150.0 6.167e-05
19170.0 6.1426e-05
19190.0 6.1181e-05
19210.0 6.0928e-05
19230.0 6.0679e-05
19250.0 6.0439e-05
19270.0 6.019e-05
19290.0 5.994e-05
19310.0 5.9698e-05
19330.0 5.9454e-05
19350.0 5.9198e-05
19370.0 5.8951e-05
19390.0 5.8709e-05
19410.0 5.846e-05
19430.0 5.8208e-05
19450.0 5.7968e-05
19470.0 5.7723e-05
19490.0 5.7472e-05
19510.0 5.7226e-05
19530.0 5.6986e-05
19550.0 5.6734e-05
19570.0 5.6482e-05
19590.0 5.6242e-05
19610.0 5.5997e-05
19630.0 5.5746e-05
19650.0 5.5503e-05
19670.0 5.5263e-05
19690.0 5.5013e-05
19710.0 5.4764e-05
19730.0 5.4524e-05
19750.0 5.4279e-05
19770.0 5.4025e-05
19790.0 5.3783e-05
19810.0 5.3543e-05
19830.0 5.3294e-05
19850.0 5.3044e-05
19870.0 5.2798e-05
19890.0 5.2534e-05
19910.0 5.2245e-05
19930.0 5.1935e-05
19950.0 5.158e-05
19970.0 5.1143e-05
19990.0 5.0618e-05
20010.0 4.5034e-05
20030.0 4.4383e-05
20050.0 4.362e-05
20070.0 4.2793e-05
20090.0 4.1904e-05
20110.0 4.0898e-05
20130.0 3.988e-05
20150.0 3.8871e-05
20170.0 3.7825e-05
20190.0 3.6764e-05
20210.0 3.5762e-05
20230.0 3.4784e-05
20250.0 3.3805e-05
20270.0 3.2896e-05
20290.0 3.2065e-05
20310.0 3.1277e-05
20330.0 3.054e-05
20350.0 2.9928e-05
20370.0 2.9384e-05
20390.0 2.8908e-05
20410.0 2.8524e-05
20430.0 2.8227e-05
20450.0 2.7992e-05
20470.0 2.7835e-05
20490.0 2.775e-05
20510.0 2.7726e-05
20530.0 2.776e-05
20550.0 2.7846e-05
20570.0 2.797e-05
20590.0 2.8139e-05
20610.0 2.8344e-05
20630.0 2.8569e-05
20650.0 2.8821e-05
20670.0 2.9109e-05
20690.0 2.9402e-05
20710.0 2.9706e-05
20730.0 3.0033e-05
20750.0 3.0375e-05
20770.0 3.0711e-05
20790.0 3.1064e-05
20810.0 3.1437e-05
20830.0 3.1809e-05
20850.0 3.2182e-05
20870.0 3.2581e-05
20890.0 3.2989e-05
20910.0 3.3382e-05
20930.0 3.379e-05
20950.0 3.4212e-05
20970.0 3.4624e-05
20990.0 3.5031e-05
21010.0 3.5458e-05
21030.0 3.5876e-05
21050.0 3.6275e-05
21070.0 3.6673e-05
21090.0 3.7072e-05
21110.0 3.7436e-05
21130.0 3.7778e-05
21150.0 3.811e-05
21170.0 3.841e-05
21190.0 3.8668e-05
21210.0 3.89e-05
21230.0 3.9094e-05
21250.0 3.9231e-05
21270.0 3.9319e-05
21290.0 3.9351e-05
21310.0 3.932e-05
21330.0 3.9227e-05
21350.0 3.9064e-05
21370.0 3.8825e-05
21390.0 3.8521e-05
21410.0 3.8149e-05
21430.0 3.7677e-05
21450.0 3.7148e-05
21470.0 3.6572e-05
21490.0 3.592e-05
21510.0 3.5205e-05
21530.0 3.4478e-05
21550.0 3.3717e-05
21570.0 3.2905e-05
21590.0 3.2107e-05
21610.0 3.1336e-05
21630.0 3.0564e-05
21650.0 2.9809e-05
21670.0 2.9155e-05
21690.0 2.8552e-05
21710.0 2.8009e-05
21730.0 2.7564e-05
21750.0 2.7221e-05
21770.0 2.6959e-05
21790.0 2.6809e-05
21810.0 2.6767e-05
21830.0 2.6827e-05
21850.0 2.6994e-05
21870.0 2.7256e-05
21890.0 2.7594e-05
21910.0 2.8027e-05
21930.0 2.8535e-05
21950.0 2.9086e-05
21970.0 2.9696e-05
21990.0 3.038e-05
22010.0 3.1064e-05
22030.0 3.1759e-05
22050.0 3.2489e-05
22070.0 3.3222e-05
22090.0 3.3917e-05
22110.0 3.4618e-05
22130.0 3.5317e-05
22150.0 3.597e-05
22170.0 3.6586e-05
22190.0 3.7196e-05
22210.0 3.7764e-05
22230.0 3.8263e-05
22250.0 3.8734e-05
22270.0 3.9167e-05
22290.0 3.9537e-05
22310.0 3.9855e-05
22330.0 4.0135e-05
22350.0 4.0351e-05
22370.0 4.0504e-05
22390.0 4.0599e-05
22410.0 4.063e-05
22430.0 4.0591e-05
22450.0 4.0486e-05
22470.0 4.0306e-05
22490.0 4.0052e-05
22510.0 3.9735e-05
22530.0 3.9331e-05
22550.0 3.8838e-05
22570.0 3.8292e-05
22590.0 3.7676e-05
22610.0 3.6968e-05
22630.0 3.6201e-05
22650.0 3.5408e-05
22670.0 3.4532e-05
22690.0 3.3596e-05
22710.0 3.2652e-05
22730.0 3.1679e-05
