#lamb flux
1010.0 4.1979e-05
1030.0 4.6684e-05
1050.0 5.1233e-05
1070.0 5.6366e-05
1090.0 6.2462e-05
1110.0 6.8689e-05
1130.0 7.4954e-05
1150.0 8.1534e-05
1170.0 8.8374e-05
1190.0 9.4971e-05
1210.0 0.00010179
1230.0 0.00010902
1250.0 0.00011628
1270.0 0.00012361
1290.0 0.0001316
1310.0 0.00013989
1330.0 0.0001482
1350.0 0.00015687
1370.0 0.00016603
1390.0 0.00017523
1410.0 0.00018438
1430.0 0.00019397
1450.0 0.00020363
1470.0 0.00021304
1490.0 0.00022248
1510.0 0.00023224
1530.0 0.00024143
1550.0 0.0002503
1570.0 0.0002592
1590.0 0.00026781
1610.0 0.00027572
1630.0 0.00028341
1650.0 0.00029091
1670.0 0.00029772
1690.0 0.000304
1710.0 0.00031014
1730.0 0.00031588
1750.0 0.00032074
1770.0 0.00032541
1790.0 0.00032988
1810.0 0.00033379
1830.0 0.00033733
1850.0 0.00034111
1870.0 0.00034457
1890.0 0.00034776
1910.0 0.00035111
1930.0 0.00035473
1950.0 0.0003582
1970.0 0.0003618
1990.0 0.0003659
2010.0 0.00037016
2030.0 0.00037446
2050.0 0.00037921
2070.0 0.00038435
2090.0 0.00038928
2110.0 0.0003943
2130.0 0.00039955
2150.0 0.00040462
2170.0 0.00040928
2190.0 0.00041396
2210.0 0.00041836
2230.0 0.00042213
2250.0 0.00042543
2270.0 0.00042848
2290.0 0.00043078
2310.0 0.00043224
2330.0 0.00043326
2350.0 0.00043369
2370.0 0.00043323
2390.0 0.00043216
2410.0 0.00043066
2430.0 0.00042826
2450.0 0.00042498
2470.0 0.00042105
2490.0 0.00041641
2510.0 0.00041108
2530.0 0.00040607
2550.0 0.00040287
2570.0 0.00040328
2590.0 0.00040932
2610.0 0.00042555
2630.0 0.00045339
2650.0 0.00049085
2670.0 0.00053822
2690.0 0.00059295
2710.0 0.00064517
2730.0 0.00068902
2750.0 0.00072261
2770.0 0.00073786
2790.0 0.00073247
2810.0 0.0007074
2830.0 0.00066171
2850.0 0.00060135
2870.0 0.00052977
2890.0 0.00044748
2910.0 0.00035901
2930.0 0.00026957
2950.0 0.00017483
2970.0 7.6246e-05
2990.0 2.9345e-05
3010.0 5.4824e-05
3030.0 5.4824e-05
3050.0 5.4824e-05
3070.0 5.4824e-05
3090.0 5.4824e-05
3110.0 5.4824e-05
3130.0 5.4824e-05
3150.0 5.4824e-05
3170.0 5.4824e-05
3190.0 5.4824e-05
3210.0 0.00035674
3230.0 0.0031046
3250.0 0.0049744
3270.0 0.0044843
3290.0 0.0037456
3310.0 0.002827
3330.0 0.0026826
3350.0 0.0029258
3370.0 0.0033036
3390.0 0.0037098
3410.0 0.0041447
3430.0 0.0047264
3450.0 0.0052803
3470.0 0.0058504
3490.0 0.0059726
3510.0 0.0051314
3530.0 0.0047116
3550.0 0.0055489
3570.0 0.0064324
3590.0 0.0070812
3610.0 0.0071001
3630.0 0.0082562
3650.0 0.0087057
3670.0 0.0090847
3690.0 0.0096161
3710.0 0.0096788
3730.0 0.010008
3750.0 0.0099553
3770.0 0.0099114
3790.0 0.009543
3810.0 0.0089656
3830.0 0.0084868
3850.0 0.0053185
3870.0 0.0056173
3890.0 0.0064325
3910.0 0.008462
3930.0 0.010956
3950.0 0.01187
3970.0 0.012735
3990.0 0.01477
4010.0 0.013915
4030.0 0.01231
4050.0 0.0088148
4070.0 0.0077507
4090.0 0.010381
4110.0 0.010946
4130.0 0.011915
4150.0 0.011632
4170.0 0.011006
4190.0 0.010079
4210.0 0.012399
4230.0 0.013273
4250.0 0.014392
4270.0 0.013947
4290.0 0.01351
4310.0 0.014163
4330.0 0.016431
4350.0 0.017782
4370.0 0.017965
4390.0 0.016619
4410.0 0.015131
4430.0 0.011832
4450.0 0.009501
4470.0 0.0099015
4490.0 0.011402
4510.0 0.012011
4530.0 0.012023
4550.0 0.012078
4570.0 0.016954
4590.0 0.025277
4610.0 0.029853
4630.0 0.030672
4650.0 0.033681
4670.0 0.039424
4690.0 0.042182
4710.0 0.035663
4730.0 0.027287
4750.0 0.021172
4770.0 0.017918
4790.0 0.016138
4810.0 0.015271
4830.0 0.01691
4850.0 0.020303
4870.0 0.022496
4890.0 0.023336
4910.0 0.022472
4930.0 0.024641
4950.0 0.029673
4970.0 0.033826
4990.0 0.034688
5010.0 0.031744
5030.0 0.026263
5050.0 0.020474
5070.0 0.01661
5090.0 0.015166
5110.0 0.015042
5130.0 0.015298
5150.0 0.015131
5170.0 0.014116
5190.0 0.013261
5210.0 0.01318
5230.0 0.014929
5250.0 0.01798
5270.0 0.021375
5290.0 0.023882
5310.0 0.025514
5330.0 0.028176
5350.0 0.030906
5370.0 0.031261
5390.0 0.028111
5410.0 0.024931
5430.0 0.024496
5450.0 0.028311
5470.0 0.034186
5490.0 0.038871
5510.0 0.040636
5530.0 0.039718
5550.0 0.037697
5570.0 0.035973
5590.0 0.034215
5610.0 0.033111
5630.0 0.032698
5650.0 0.03246
5670.0 0.031101
5690.0 0.027613
5710.0 0.023285
5730.0 0.020728
5750.0 0.019774
5770.0 0.020025
5790.0 0.020344
5810.0 0.02059
5830.0 0.020454
5850.0 0.019278
5870.0 0.018009
5890.0 0.017412
5910.0 0.017669
5930.0 0.017777
5950.0 0.016325
5970.0 0.013983
5990.0 0.01118
6010.0 0.0089929
6030.0 0.0084111
6050.0 0.009152
6070.0 0.0096742
6090.0 0.009105
6110.0 0.0080818
6130.0 0.0083288
6150.0 0.0096539
6170.0 0.010967
6190.0 0.011879
6210.0 0.012086
6230.0 0.011926
6250.0 0.010863
6270.0 0.009043
6290.0 0.0074656
6310.0 0.0066873
6330.0 0.0065888
6350.0 0.0067022
6370.0 0.0068796
6390.0 0.0078638
6410.0 0.0097973
6430.0 0.011847
6450.0 0.013033
6470.0 0.013392
6490.0 0.013406
6510.0 0.01363
6530.0 0.013933
6550.0 0.013943
6570.0 0.014444
6590.0 0.014851
6610.0 0.015039
6630.0 0.014629
6650.0 0.013567
6670.0 0.012391
6690.0 0.011417
6710.0 0.010872
6730.0 0.010616
6750.0 0.010661
6770.0 0.010951
6790.0 0.011349
6810.0 0.011601
6830.0 0.011398
6850.0 0.010807
6870.0 0.010128
6890.0 0.0098952
6910.0 0.0097115
6930.0 0.010046
6950.0 0.010544
6970.0 0.01081
6990.0 0.010962
7010.0 0.010619
7030.0 0.0097545
7050.0 0.0086549
7070.0 0.007829
7090.0 0.0074728
7110.0 0.0074453
7130.0 0.0071498
7150.0 0.0063416
7170.0 0.0060621
7190.0 0.006713
7210.0 0.0078201
7230.0 0.008943
7250.0 0.0093842
7270.0 0.0092159
7290.0 0.0085353
7310.0 0.007933
7330.0 0.0076913
7350.0 0.0077431
7370.0 0.0078767
7390.0 0.00827
7410.0 0.0091849
7430.0 0.010532
7450.0 0.011765
7470.0 0.012291
7490.0 0.011878
7510.0 0.011096
7530.0 0.010065
7550.0 0.0093986
7570.0 0.0086294
7590.0 0.0082931
7610.0 0.008557
7630.0 0.0092648
7650.0 0.010297
7670.0 0.011423
7690.0 0.012332
7710.0 0.01321
7730.0 0.014082
7750.0 0.014839
7770.0 0.014922
7790.0 0.015194
7810.0 0.015521
7830.0 0.015444
7850.0 0.015059
7870.0 0.014795
7890.0 0.015088
7910.0 0.014978
7930.0 0.01484
7950.0 0.01423
7970.0 0.013887
7990.0 0.013463
8010.0 0.013532
8030.0 0.013731
8050.0 0.013893
8070.0 0.013822
8090.0 0.013816
8110.0 0.013482
8130.0 0.01357
8150.0 0.013513
8170.0 0.013277
8190.0 0.013054
8210.0 0.013006
8230.0 0.012783
8250.0 0.012671
8270.0 0.011676
8290.0 0.0097105
8310.0 0.0074714
8330.0 0.0059323
8350.0 0.0056284
8370.0 0.0066846
8390.0 0.0080741
8410.0 0.008724
8430.0 0.0089777
8450.0 0.0095246
8470.0 0.010311
8490.0 0.011607
8510.0 0.013269
8530.0 0.015189
8550.0 0.016914
8570.0 0.018315
8590.0 0.019407
8610.0 0.020039
8630.0 0.020092
8650.0 0.019934
8670.0 0.020033
8690.0 0.021192
8710.0 0.022741
8730.0 0.023743
8750.0 0.023761
8770.0 0.024205
8790.0 0.024256
8810.0 0.022955
8830.0 0.021604
8850.0 0.019799
8870.0 0.018361
8890.0 0.017968
8910.0 0.017999
8930.0 0.017037
8950.0 0.015891
8970.0 0.015442
8990.0 0.015409
9010.0 0.014894
9030.0 0.014566
9050.0 0.014436
9070.0 0.014376
9090.0 0.014324
9110.0 0.014274
9130.0 0.014224
9150.0 0.014175
9170.0 0.014121
9190.0 0.014083
9210.0 0.01409
9230.0 0.014019
9250.0 0.013959
9270.0 0.013906
9290.0 0.013857
9310.0 0.01381
9330.0 0.013765
9350.0 0.013723
9370.0 0.013681
9390.0 0.013638
9410.0 0.013598
9430.0 0.013555
9450.0 0.013494
9470.0 0.01344
9490.0 0.01342
9510.0 0.01339
9530.0 0.013358
9550.0 0.013324
9570.0 0.013289
9590.0 0.013253
9610.0 0.013218
9630.0 0.013182
9650.0 0.013146
9670.0 0.013111
9690.0 0.013076
9710.0 0.013041
9730.0 0.013006
9750.0 0.012972
9770.0 0.012937
9790.0 0.012903
9810.0 0.012869
9830.0 0.012834
9850.0 0.0128
9870.0 0.012766
9890.0 0.012731
9910.0 0.012697
9930.0 0.012661
9950.0 0.012537
9970.0 0.012528
9990.0 0.012514
10010.0 0.012497
10030.0 0.012472
10050.0 0.01244
10070.0 0.012408
10090.0 0.012375
10110.0 0.012335
10130.0 0.012295
10150.0 0.012259
10170.0 0.01222
10190.0 0.012176
10210.0 0.012136
10230.0 0.012097
10250.0 0.012053
10270.0 0.012009
10290.0 0.011968
10310.0 0.011923
10330.0 0.011873
10350.0 0.011827
10370.0 0.011781
10390.0 0.01173
10410.0 0.011679
10430.0 0.011631
10450.0 0.011578
10470.0 0.011522
10490.0 0.011469
10510.0 0.011415
10530.0 0.011354
10550.0 0.011294
10570.0 0.011237
10590.0 0.011175
10610.0 0.01111
10630.0 0.011048
10650.0 0.010985
10670.0 0.010914
10690.0 0.010845
10710.0 0.010778
10730.0 0.010705
10750.0 0.010627
10770.0 0.010555
10790.0 0.01048
10810.0 0.0104
10830.0 0.01032
10850.0 0.010243
10870.0 0.010157
10890.0 0.010069
10910.0 0.0099835
10930.0 0.0098942
10950.0 0.0097974
10970.0 0.0097001
10990.0 0.0096043
11010.0 0.010296
11030.0 0.010183
11050.0 0.010073
11070.0 0.0099603
11090.0 0.0098399
11110.0 0.0097283
11130.0 0.0096203
11150.0 0.0095092
11170.0 0.0093994
11190.0 0.009297
11210.0 0.0091924
11230.0 0.0090853
11250.0 0.008983
11270.0 0.0088832
11290.0 0.0087792
11310.0 0.0086755
11330.0 0.0085789
11350.0 0.0084792
11370.0 0.0083763
11390.0 0.0082758
11410.0 0.0081748
11430.0 0.0080642
11450.0 0.0079516
11470.0 0.0078377
11490.0 0.0077156
11510.0 0.0075828
11530.0 0.0074496
11550.0 0.0073115
11570.0 0.0071618
11590.0 0.0070083
11610.0 0.0068558
11630.0 0.0066945
11650.0 0.0065273
11670.0 0.0063669
11690.0 0.0062073
11710.0 0.006044
11730.0 0.0058853
11750.0 0.0057359
11770.0 0.005585
11790.0 0.0054367
11810.0 0.0052976
11830.0 0.0051632
11850.0 0.005027
11870.0 0.0048992
11890.0 0.0047794
11910.0 0.0046602
11930.0 0.0045438
11950.0 0.0044354
11970.0 0.0043299
11990.0 0.0042244
12010.0 0.0041256
12030.0 0.004033
12050.0 0.0039424
12070.0 0.0038554
12090.0 0.0037782
12110.0 0.0037057
12130.0 0.003638
12150.0 0.0035783
12170.0 0.0035268
12190.0 0.0034807
12210.0 0.0034433
12230.0 0.0034147
12250.0 0.0033938
12270.0 0.0033813
12290.0 0.0033768
12310.0 0.0033792
12330.0 0.0033897
12350.0 0.0034072
12370.0 0.0034297
12390.0 0.0034581
12410.0 0.0034942
12430.0 0.0035319
12450.0 0.0035723
12470.0 0.0036173
12490.0 0.0036641
12510.0 0.0037089
12530.0 0.0037554
12550.0 0.0038023
12570.0 0.0038447
12590.0 0.003883
12610.0 0.0039189
12630.0 0.0039485
12650.0 0.0039686
12670.0 0.0039824
12690.0 0.003988
12710.0 0.0039839
12730.0 0.0039709
12750.0 0.0039489
12770.0 0.0039178
12790.0 0.0038792
12810.0 0.0038331
12830.0 0.0037797
12850.0 0.0037228
12870.0 0.0036626
12890.0 0.0035983
12910.0 0.0035331
12930.0 0.0034692
12950.0 0.003404
12970.0 0.0033391
12990.0 0.0032783
13010.0 0.0032193
13030.0 0.0031612
13050.0 0.0031059
13070.0 0.0030541
13090.0 0.0030027
13110.0 0.0029526
13130.0 0.0029051
13150.0 0.0028587
13170.0 0.0028117
13190.0 0.0027668
13210.0 0.0027237
13230.0 0.0026806
13250.0 0.0026383
13270.0 0.0025986
13290.0 0.0025601
13310.0 0.0025225
13330.0 0.0024881
13350.0 0.0024568
13370.0 0.0024278
13390.0 0.0024018
13410.0 0.00238
13430.0 0.002361
13450.0 0.0023447
13470.0 0.0023309
13490.0 0.0023191
13510.0 0.0023083
13530.0 0.0022979
13550.0 0.0022873
13570.0 0.0022756
13590.0 0.0022622
13610.0 0.0022469
13630.0 0.0022297
13650.0 0.0022098
13670.0 0.0021876
13690.0 0.0021641
13710.0 0.0021388
13730.0 0.0021115
13750.0 0.002085
13770.0 0.0020587
13790.0 0.0020324
13810.0 0.0020074
13830.0 0.0019845
13850.0 0.0019628
13870.0 0.0019426
13890.0 0.0019249
13910.0 0.001909
13930.0 0.0018943
13950.0 0.0018811
13970.0 0.0018695
13990.0 0.0018584
14010.0 0.0018477
14030.0 0.0018374
14050.0 0.001827
14070.0 0.0018157
14090.0 0.001804
14110.0 0.0017917
14130.0 0.0017782
14150.0 0.0017633
14170.0 0.0017481
14190.0 0.001732
14210.0 0.0017148
14230.0 0.0016973
14250.0 0.0016801
14270.0 0.0016625
14290.0 0.0016451
14310.0 0.0016294
14330.0 0.0016148
14350.0 0.0016013
14370.0 0.0015897
14390.0 0.0015802
14410.0 0.0015722
14430.0 0.001566
14450.0 0.0015617
14470.0 0.0015588
14490.0 0.0015573
14510.0 0.001557
14530.0 0.0015577
14550.0 0.0015593
14570.0 0.0015619
14590.0 0.0015652
14610.0 0.0015696
14630.0 0.0015754
14650.0 0.0015824
14670.0 0.0015909
14690.0 0.0016016
14710.0 0.0016145
14730.0 0.0016289
14750.0 0.0016459
14770.0 0.0016659
14790.0 0.0016879
14810.0 0.0017121
14830.0 0.0017406
14850.0 0.0017718
14870.0 0.0018047
14890.0 0.0018407
14910.0 0.0018796
14930.0 0.0019183
14950.0 0.0019559
14970.0 0.0019928
14990.0 0.0020258
15010.0 0.0020532
15030.0 0.002076
15050.0 0.0020941
15070.0 0.002107
15090.0 0.0021168
15110.0 0.0021245
15130.0 0.0021307
15150.0 0.0021363
15170.0 0.0021415
15190.0 0.0021467
15210.0 0.0021519
15230.0 0.0021572
15250.0 0.0021625
15270.0 0.002168
15290.0 0.0021735
15310.0 0.0021792
15330.0 0.002185
15350.0 0.0021909
15370.0 0.0021968
15390.0 0.0022029
15410.0 0.002209
15430.0 0.0022153
15450.0 0.0022216
15470.0 0.002228
15490.0 0.0022345
15510.0 0.0022411
15530.0 0.0022478
15550.0 0.0022546
15570.0 0.0022614
15590.0 0.0022683
15610.0 0.0022752
15630.0 0.0022823
15650.0 0.0022894
15670.0 0.0022966
15690.0 0.0023038
15710.0 0.0023111
15730.0 0.0023184
15750.0 0.0023258
15770.0 0.0023333
15790.0 0.0023408
15810.0 0.0023483
15830.0 0.0023559
15850.0 0.0023636
15870.0 0.0023713
15890.0 0.002379
15910.0 0.0023867
15930.0 0.0023945
15950.0 0.0024023
15970.0 0.0024102
15990.0 0.002418
16010.0 0.0024259
16030.0 0.0024338
16050.0 0.0024417
16070.0 0.0024496
16090.0 0.0024575
16110.0 0.0024655
16130.0 0.0024734
16150.0 0.0024813
16170.0 0.0024892
16190.0 0.0024972
16210.0 0.0025051
16230.0 0.0025129
16250.0 0.0025208
16270.0 0.0025287
16290.0 0.0025365
16310.0 0.0025443
16330.0 0.0025521
16350.0 0.0025598
16370.0 0.0025675
16390.0 0.0025751
16410.0 0.0025828
16430.0 0.0025903
16450.0 0.0025978
16470.0 0.0026053
16490.0 0.0026127
16510.0 0.00262
16530.0 0.0026273
16550.0 0.0026345
16570.0 0.0026416
16590.0 0.0026486
16610.0 0.0026556
16630.0 0.0026625
16650.0 0.0026693
16670.0 0.0026761
16690.0 0.0026827
16710.0 0.0026892
16730.0 0.0026956
16750.0 0.002702
16770.0 0.0027082
16790.0 0.0027143
16810.0 0.0027203
16830.0 0.0027262
16850.0 0.0027319
16870.0 0.0027376
16890.0 0.0027431
16910.0 0.0027485
16930.0 0.0027538
16950.0 0.0027589
16970.0 0.0027639
16990.0 0.0027687
17010.0 0.0027735
17030.0 0.002778
17050.0 0.0027824
17070.0 0.0027867
17090.0 0.0027908
17110.0 0.0027948
17130.0 0.0027986
17150.0 0.0028022
17170.0 0.0028057
17190.0 0.002809
17210.0 0.0028121
17230.0 0.0028151
17250.0 0.0028179
17270.0 0.0028205
17290.0 0.002823
17310.0 0.0028253
17330.0 0.0028273
17350.0 0.0028292
17370.0 0.002831
17390.0 0.0028325
17410.0 0.0028339
17430.0 0.0028351
17450.0 0.0028361
17470.0 0.0028368
17490.0 0.0028374
17510.0 0.0028379
17530.0 0.0028381
17550.0 0.0028381
17570.0 0.0028379
17590.0 0.0028376
17610.0 0.002837
17630.0 0.0028362
17650.0 0.0028353
17670.0 0.0028342
17690.0 0.0028328
17710.0 0.0028313
17730.0 0.0028295
17750.0 0.0028276
17770.0 0.0028255
17790.0 0.0028232
17810.0 0.0028206
17830.0 0.0028179
17850.0 0.002815
17870.0 0.0028119
17890.0 0.0028086
17910.0 0.0028051
17930.0 0.0028014
17950.0 0.0027975
17970.0 0.0027934
17990.0 0.0027892
18010.0 0.0027848
18030.0 0.0027801
18050.0 0.0027753
18070.0 0.0027703
18090.0 0.0027651
18110.0 0.0027598
18130.0 0.0027543
18150.0 0.0027485
18170.0 0.0027426
18190.0 0.0027366
18210.0 0.0027304
18230.0 0.002724
18250.0 0.0027174
18270.0 0.0027107
18290.0 0.0027038
18310.0 0.0026967
18330.0 0.0026895
18350.0 0.0026822
18370.0 0.0026746
18390.0 0.0026669
18410.0 0.0026591
18430.0 0.0026512
18450.0 0.002643
18470.0 0.0026348
18490.0 0.0026264
18510.0 0.0026179
18530.0 0.0026093
18550.0 0.0026005
18570.0 0.0025916
18590.0 0.0025825
18610.0 0.0025734
18630.0 0.0025641
18650.0 0.0025548
18670.0 0.0025452
18690.0 0.0025357
18710.0 0.002526
18730.0 0.0025161
18750.0 0.0025062
18770.0 0.0024963
18790.0 0.0024861
18810.0 0.0024759
18830.0 0.0024657
18850.0 0.0024553
18870.0 0.0024448
18890.0 0.0024343
18910.0 0.0024238
18930.0 0.0024131
18950.0 0.0024023
18970.0 0.0023915
18990.0 0.0023807
19010.0 0.0023697
19030.0 0.0023587
19050.0 0.0023477
19070.0 0.0023366
19090.0 0.0023254
19110.0 0.0023143
19130.0 0.002303
19150.0 0.0022918
19170.0 0.0022805
19190.0 0.0022691
19210.0 0.0022577
19230.0 0.0022463
19250.0 0.0022349
19270.0 0.0022234
19290.0 0.002212
19310.0 0.0022005
19330.0 0.002189
19350.0 0.0021774
19370.0 0.0021659
19390.0 0.0021544
19410.0 0.0021428
19430.0 0.0021313
19450.0 0.0021197
19470.0 0.0021082
19490.0 0.0020966
19510.0 0.0020851
19530.0 0.0020736
19550.0 0.002062
19570.0 0.0020505
19590.0 0.002039
19610.0 0.0020275
19630.0 0.0020161
19650.0 0.0020046
19670.0 0.0019932
19690.0 0.0019818
19710.0 0.0019704
19730.0 0.0019591
19750.0 0.0019478
19770.0 0.0019365
19790.0 0.0019253
19810.0 0.001914
19830.0 0.0019028
19850.0 0.0018915
19870.0 0.0018801
19890.0 0.0018684
19910.0 0.0018559
19930.0 0.0018424
19950.0 0.0018273
19970.0 0.0018096
19990.0 0.001789
20010.0 0.0017657
20030.0 0.0017388
20050.0 0.0017084
20070.0 0.0016762
20090.0 0.0016425
20110.0 0.0016062
20130.0 0.0015703
20150.0 0.0015354
20170.0 0.0015003
20190.0 0.0014656
20210.0 0.0014331
20230.0 0.0014016
20250.0 0.0013704
20270.0 0.001341
20290.0 0.0013136
20310.0 0.0012868
20330.0 0.0012609
20350.0 0.0012376
20370.0 0.0012153
20390.0 0.0011938
20410.0 0.0011739
20430.0 0.0011555
20450.0 0.0011377
20470.0 0.0011211
20490.0 0.001106
20510.0 0.0010918
20530.0 0.0010784
20550.0 0.0010661
20570.0 0.001055
20590.0 0.0010446
20610.0 0.0010349
20630.0 0.0010262
20650.0 0.0010181
20670.0 0.0010106
20690.0 0.0010038
20710.0 0.0009974
20730.0 0.00099145
20750.0 0.00098585
20770.0 0.00098051
20790.0 0.00097537
20810.0 0.00097036
20830.0 0.00096538
20850.0 0.00096039
20870.0 0.00095534
20890.0 0.00095015
20910.0 0.00094477
20930.0 0.00093918
20950.0 0.00093331
20970.0 0.00092718
20990.0 0.00092079
21010.0 0.000914
21030.0 0.0009069
21050.0 0.00089957
21070.0 0.00089189
21090.0 0.00088379
21110.0 0.00087558
21130.0 0.00086717
21150.0 0.0008584
21170.0 0.00084948
21190.0 0.00084057
21210.0 0.00083136
21230.0 0.00082193
21250.0 0.00081266
21270.0 0.00080338
21290.0 0.00079393
21310.0 0.00078456
21330.0 0.00077551
21350.0 0.00076639
21370.0 0.00075734
21390.0 0.00074866
21410.0 0.00074023
21430.0 0.0007318
21450.0 0.00072385
21470.0 0.00071637
21490.0 0.00070915
21510.0 0.00070231
21530.0 0.00069604
21550.0 0.00069019
21570.0 0.00068473
21590.0 0.00067981
21610.0 0.00067541
21630.0 0.00067145
21650.0 0.00066798
21670.0 0.00066497
21690.0 0.00066238
21710.0 0.0006602
21730.0 0.00065838
21750.0 0.00065681
21770.0 0.00065563
21790.0 0.00065467
21810.0 0.00065383
21830.0 0.00065313
21850.0 0.0006526
21870.0 0.00065204
21890.0 0.0006514
21910.0 0.0006508
21930.0 0.00065011
21950.0 0.00064922
21970.0 0.00064823
21990.0 0.00064714
22010.0 0.00064578
22030.0 0.00064422
22050.0 0.0006425
22070.0 0.00064059
22090.0 0.00063846
22110.0 0.00063619
22130.0 0.00063375
22150.0 0.00063117
22170.0 0.00062846
22190.0 0.00062562
22210.0 0.00062266
22230.0 0.00061962
22250.0 0.00061646
22270.0 0.00061318
22290.0 0.00060981
22310.0 0.00060632
22330.0 0.00060261
22350.0 0.00059875
22370.0 0.00059472
22390.0 0.00059043
22410.0 0.00058578
22430.0 0.00058095
22450.0 0.00057582
22470.0 0.00057024
22490.0 0.00056433
22510.0 0.00055821
22530.0 0.00055155
22550.0 0.00054444
22570.0 0.00053722
22590.0 0.00052973
22610.0 0.0005218
22630.0 0.00051374
22650.0 0.00050582
22670.0 0.0004976
22690.0 0.0004893
22710.0 0.00048129
22730.0 0.00047341
22750.0 0.00046536
22770.0 0.00045781
22790.0 0.0004507
22810.0 0.00044375
22830.0 0.0004371
22850.0 0.00043104
22870.0 0.00042529
22890.0 0.00041977
22910.0 0.00041474
22930.0 0.00041014
22950.0 0.00040577
22970.0 0.00040165
22990.0 0.00039799
23010.0 0.00039451
23030.0 0.00039117
23050.0 0.00038803
23070.0 0.00038506
23090.0 0.00038205
23110.0 0.00037911
23130.0 0.00037624
23150.0 0.00037334
23170.0 0.00037035
23190.0 0.00036739
23210.0 0.00036444
23230.0 0.00036139
23250.0 0.00035833
23270.0 0.00035535
23290.0 0.00035237
23310.0 0.00034936
23330.0 0.00034653
23350.0 0.00034382
23370.0 0.00034115
23390.0 0.00033862
23410.0 0.00033627
23430.0 0.00033399
23450.0 0.00033178
23470.0 0.00032971
23490.0 0.00032773
23510.0 0.00032576
23530.0 0.00032385
23550.0 0.00032203
23570.0 0.00032022
23590.0 0.00031841
23610.0 0.00031668
23630.0 0.00031499
23650.0 0.00031331
23670.0 0.00031174
23690.0 0.00031029
23710.0 0.00030897
23730.0 0.00030781
23750.0 0.00030689
23770.0 0.00030622
23790.0 0.00030586
23810.0 0.00030585
23830.0 0.00030618
23850.0 0.00030698
