#lamb flux
1010.0 7.235e-11
1030.0 9.1104e-11
1050.0 1.1274e-10
1070.0 1.372e-10
1090.0 1.651e-10
1110.0 1.9389e-10
1130.0 2.2306e-10
1150.0 2.538e-10
1170.0 2.857e-10
1190.0 3.1619e-10
1210.0 3.4725e-10
1230.0 3.7945e-10
1250.0 4.111e-10
1270.0 4.419e-10
1290.0 4.7432e-10
1310.0 5.066e-10
1330.0 5.3738e-10
1350.0 5.6821e-10
1370.0 5.9969e-10
1390.0 6.2998e-10
1410.0 6.5894e-10
1430.0 6.8881e-10
1450.0 7.1825e-10
1470.0 7.4624e-10
1490.0 7.7421e-10
1510.0 8.0355e-10
1530.0 8.3098e-10
1550.0 8.5783e-10
1570.0 8.8559e-10
1590.0 9.1332e-10
1610.0 9.3969e-10
1630.0 9.67e-10
1650.0 9.9518e-10
1670.0 1.0225e-09
1690.0 1.0495e-09
1710.0 1.0778e-09
1730.0 1.1065e-09
1750.0 1.1335e-09
1770.0 1.1615e-09
1790.0 1.1903e-09
1810.0 1.2184e-09
1830.0 1.2461e-09
1850.0 1.2762e-09
1870.0 1.3061e-09
1890.0 1.3351e-09
1910.0 1.3647e-09
1930.0 1.3951e-09
1950.0 1.4241e-09
1970.0 1.4529e-09
1990.0 1.4828e-09
2010.0 1.5124e-09
2030.0 1.5411e-09
2050.0 1.5708e-09
2070.0 1.6013e-09
2090.0 1.6302e-09
2110.0 1.6591e-09
2130.0 1.689e-09
2150.0 1.7186e-09
2170.0 1.747e-09
2190.0 1.7767e-09
2210.0 1.8071e-09
2230.0 1.8369e-09
2250.0 1.8669e-09
2270.0 1.8985e-09
2290.0 1.9293e-09
2310.0 1.9593e-09
2330.0 1.9903e-09
2350.0 2.0218e-09
2370.0 2.0523e-09
2390.0 2.0832e-09
2410.0 2.1157e-09
2430.0 2.1478e-09
2450.0 2.1803e-09
2470.0 2.2164e-09
2490.0 2.2582e-09
2510.0 2.3062e-09
2530.0 2.3683e-09
2550.0 2.4541e-09
2570.0 2.5692e-09
2590.0 2.7213e-09
2610.0 2.9388e-09
2630.0 3.2274e-09
2650.0 3.5803e-09
2670.0 4.0163e-09
2690.0 4.5445e-09
2710.0 5.1237e-09
2730.0 5.7333e-09
2750.0 6.393e-09
2770.0 7.048e-09
2790.0 7.6569e-09
2810.0 8.2288e-09
2830.0 8.764e-09
2850.0 9.2131e-09
2870.0 9.61e-09
2890.0 9.9792e-09
2910.0 1.0324e-08
2930.0 1.065e-08
2950.0 1.0985e-08
2970.0 1.1333e-08
2990.0 1.1689e-08
3010.0 1.2059e-08
3030.0 1.2454e-08
3050.0 1.2868e-08
3070.0 1.3289e-08
3090.0 1.3735e-08
3110.0 1.421e-08
3130.0 1.4719e-08
3150.0 1.5296e-08
3170.0 1.6034e-08
3190.0 1.6996e-08
3210.0 1.8255e-08
3230.0 1.9934e-08
3250.0 2.2075e-08
3270.0 2.4121e-08
3290.0 2.7352e-08
3310.0 3.3938e-08
3330.0 3.6131e-08
3350.0 3.7212e-08
3370.0 3.8252e-08
3390.0 3.9309e-08
3410.0 4.0377e-08
3430.0 4.1452e-08
3450.0 4.2526e-08
3470.0 4.3582e-08
3490.0 4.4598e-08
3510.0 4.551e-08
3530.0 4.5095e-08
3550.0 4.3852e-08
3570.0 4.4509e-08
3590.0 4.7353e-08
3610.0 5.1621e-08
3630.0 5.3361e-08
3650.0 5.1267e-08
3670.0 4.7069e-08
3690.0 4.4609e-08
3710.0 4.515e-08
3730.0 4.6636e-08
3750.0 4.7437e-08
3770.0 4.9035e-08
3790.0 5.0818e-08
3810.0 5.0115e-08
3830.0 4.6702e-08
3850.0 4.3637e-08
3870.0 4.218e-08
3890.0 4.1713e-08
3910.0 4.0789e-08
3930.0 4.0318e-08
3950.0 4.146e-08
3970.0 4.2795e-08
3990.0 4.3176e-08
4010.0 4.16e-08
4030.0 3.9336e-08
4050.0 3.7878e-08
4070.0 3.6644e-08
4090.0 3.565e-08
4110.0 3.4354e-08
4130.0 3.2303e-08
4150.0 3.0235e-08
4170.0 2.9009e-08
4190.0 2.7056e-08
4210.0 2.4492e-08
4230.0 2.1898e-08
4250.0 1.9432e-08
4270.0 1.7587e-08
4290.0 1.6231e-08
4310.0 1.5512e-08
4330.0 1.5485e-08
4350.0 1.5574e-08
4370.0 1.5722e-08
4390.0 1.6311e-08
4410.0 1.6716e-08
4430.0 1.6145e-08
4450.0 1.4656e-08
4470.0 1.3351e-08
4490.0 1.2645e-08
4510.0 1.2189e-08
4530.0 1.196e-08
4550.0 1.1763e-08
4570.0 1.1713e-08
4590.0 1.1874e-08
4610.0 1.2232e-08
4630.0 1.2445e-08
4650.0 1.2547e-08
4670.0 1.2242e-08
4690.0 1.151e-08
4710.0 1.0783e-08
4730.0 1.031e-08
4750.0 1.0019e-08
4770.0 1.0057e-08
4790.0 1.0018e-08
4810.0 9.8032e-09
4830.0 9.8262e-09
4850.0 1.0131e-08
4870.0 1.0233e-08
4890.0 1.005e-08
4910.0 9.8135e-09
4930.0 9.254e-09
4950.0 8.4511e-09
4970.0 7.8983e-09
4990.0 7.4448e-09
5010.0 7.3484e-09
5030.0 7.5958e-09
5050.0 7.79e-09
5070.0 8.0813e-09
5090.0 8.5698e-09
5110.0 8.6999e-09
5130.0 8.776e-09
5150.0 8.9371e-09
5170.0 9.0138e-09
5190.0 9.25e-09
5210.0 9.2976e-09
5230.0 9.2023e-09
5250.0 9.2754e-09
5270.0 9.4038e-09
5290.0 9.4288e-09
5310.0 9.3587e-09
5330.0 9.1806e-09
5350.0 9.0572e-09
5370.0 8.9604e-09
5390.0 8.8407e-09
5410.0 8.7429e-09
5430.0 8.7387e-09
5450.0 8.8682e-09
5470.0 9.0331e-09
5490.0 9.294e-09
5510.0 9.5749e-09
5530.0 9.6933e-09
5550.0 9.836e-09
5570.0 9.8604e-09
5590.0 9.6607e-09
5610.0 9.591e-09
5630.0 9.6615e-09
5650.0 9.5452e-09
5670.0 9.3341e-09
5690.0 9.0564e-09
5710.0 9.0294e-09
5730.0 9.1263e-09
5750.0 8.7382e-09
5770.0 8.2893e-09
5790.0 7.6257e-09
5810.0 6.6753e-09
5830.0 7.1924e-09
5850.0 7.9551e-09
5870.0 8.1244e-09
5890.0 8.1676e-09
5910.0 8.2378e-09
5930.0 8.2192e-09
5950.0 8.0849e-09
5970.0 7.9887e-09
5990.0 7.8755e-09
6010.0 7.6351e-09
6030.0 7.3747e-09
6050.0 7.2592e-09
6070.0 7.2235e-09
6090.0 7.1159e-09
6110.0 6.8803e-09
6130.0 6.6449e-09
6150.0 6.3791e-09
6170.0 6.1137e-09
6190.0 5.8352e-09
6210.0 5.6301e-09
6230.0 5.5501e-09
6250.0 5.4324e-09
6270.0 5.3189e-09
6290.0 5.2797e-09
6310.0 5.2481e-09
6330.0 5.1335e-09
6350.0 4.9664e-09
6370.0 4.8726e-09
6390.0 4.7739e-09
6410.0 4.6422e-09
6430.0 4.5152e-09
6450.0 4.4168e-09
6470.0 4.3234e-09
6490.0 4.2582e-09
6510.0 4.1822e-09
6530.0 4.0768e-09
6550.0 3.9866e-09
6570.0 3.9238e-09
6590.0 3.9189e-09
6610.0 3.8945e-09
6630.0 3.7649e-09
6650.0 3.6573e-09
6670.0 3.6186e-09
6690.0 3.5613e-09
6710.0 3.4753e-09
6730.0 3.4441e-09
6750.0 3.4708e-09
6770.0 3.6749e-09
6790.0 4.1003e-09
6810.0 3.8951e-09
6830.0 3.4262e-09
6850.0 3.2896e-09
6870.0 3.2393e-09
6890.0 3.2394e-09
6910.0 3.2462e-09
6930.0 3.253e-09
6950.0 3.2441e-09
6970.0 3.1617e-09
6990.0 3.1331e-09
7010.0 3.1795e-09
7030.0 3.1954e-09
7050.0 3.1492e-09
7070.0 3.1147e-09
7090.0 3.1324e-09
7110.0 3.2056e-09
7130.0 3.216e-09
7150.0 3.2285e-09
7170.0 3.2456e-09
7190.0 3.2903e-09
7210.0 3.327e-09
7230.0 3.365e-09
7250.0 3.4095e-09
7270.0 3.4419e-09
7290.0 3.4971e-09
7310.0 3.5596e-09
7330.0 3.5317e-09
7350.0 3.4572e-09
7370.0 3.4119e-09
7390.0 3.4058e-09
7410.0 3.4167e-09
7430.0 3.4597e-09
7450.0 3.481e-09
7470.0 3.5323e-09
7490.0 3.5126e-09
7510.0 3.4728e-09
7530.0 3.5147e-09
7550.0 3.6192e-09
7570.0 3.6105e-09
7590.0 3.4248e-09
7610.0 3.3991e-09
7630.0 3.5897e-09
7650.0 3.6632e-09
7670.0 3.6841e-09
7690.0 3.8489e-09
7710.0 3.9729e-09
7730.0 4.0119e-09
7750.0 4.2202e-09
7770.0 4.114e-09
7790.0 4.018e-09
7810.0 4.2542e-09
7830.0 4.4191e-09
7850.0 4.5265e-09
7870.0 4.6182e-09
7890.0 4.652e-09
7910.0 4.618e-09
7930.0 4.6489e-09
7950.0 4.8595e-09
7970.0 4.8578e-09
7990.0 4.5251e-09
8010.0 4.3091e-09
8030.0 4.3982e-09
8050.0 4.494e-09
8070.0 4.0623e-09
8090.0 2.6445e-09
8110.0 2.7651e-09
8130.0 3.9616e-09
8150.0 4.2664e-09
8170.0 4.4355e-09
8190.0 4.5296e-09
8210.0 4.475e-09
8230.0 4.8556e-09
8250.0 4.9633e-09
8270.0 4.6894e-09
8290.0 4.5021e-09
8310.0 4.4385e-09
8330.0 4.6864e-09
8350.0 4.9082e-09
8370.0 4.8134e-09
8390.0 4.5896e-09
8410.0 4.5856e-09
8430.0 4.2955e-09
8450.0 4.3928e-09
8470.0 4.7999e-09
8490.0 4.8145e-09
8510.0 4.4646e-09
8530.0 4.1804e-09
8550.0 4.0058e-09
8570.0 3.7773e-09
8590.0 3.8852e-09
8610.0 4.1255e-09
8630.0 4.2343e-09
8650.0 4.3079e-09
8670.0 4.1875e-09
8690.0 4.0901e-09
8710.0 3.8014e-09
8730.0 3.666e-09
8750.0 3.8187e-09
8770.0 3.8797e-09
8790.0 3.864e-09
8810.0 3.8491e-09
8830.0 3.9331e-09
8850.0 4.1287e-09
8870.0 3.855e-09
8890.0 3.6376e-09
8910.0 3.5836e-09
8930.0 3.3644e-09
8950.0 3.244e-09
8970.0 3.244e-09
8990.0 3.1048e-09
9010.0 2.9151e-09
9030.0 2.8487e-09
9050.0 2.8249e-09
9070.0 2.8037e-09
9090.0 2.7823e-09
9110.0 2.7608e-09
9130.0 2.7392e-09
9150.0 2.7175e-09
9170.0 2.6957e-09
9190.0 2.6739e-09
9210.0 2.6521e-09
9230.0 2.6302e-09
9250.0 2.6084e-09
9270.0 2.5865e-09
9290.0 2.5647e-09
9310.0 2.543e-09
9330.0 2.5212e-09
9350.0 2.4996e-09
9370.0 2.478e-09
9390.0 2.4565e-09
9410.0 2.4351e-09
9430.0 2.4139e-09
9450.0 2.3928e-09
9470.0 2.3718e-09
9490.0 2.351e-09
9510.0 2.3303e-09
9530.0 2.3098e-09
9550.0 2.2895e-09
9570.0 2.2693e-09
9590.0 2.2493e-09
9610.0 2.2295e-09
9630.0 2.2098e-09
9650.0 2.1904e-09
9670.0 2.1711e-09
9690.0 2.152e-09
9710.0 2.1332e-09
9730.0 2.1145e-09
9750.0 2.096e-09
9770.0 2.0778e-09
9790.0 2.0598e-09
9810.0 2.0419e-09
9830.0 2.0243e-09
9850.0 2.0069e-09
9870.0 1.9897e-09
9890.0 1.9727e-09
9910.0 1.9559e-09
9930.0 1.9394e-09
9950.0 1.923e-09
9970.0 1.9069e-09
9990.0 1.8909e-09
10010.0 1.8752e-09
10030.0 1.8596e-09
10050.0 1.8443e-09
10070.0 1.8291e-09
10090.0 1.8142e-09
10110.0 1.7995e-09
10130.0 1.7849e-09
10150.0 1.7705e-09
10170.0 1.7564e-09
10190.0 1.7424e-09
10210.0 1.7286e-09
10230.0 1.715e-09
10250.0 1.7015e-09
10270.0 1.6883e-09
10290.0 1.6752e-09
10310.0 1.6623e-09
10330.0 1.6495e-09
10350.0 1.6369e-09
10370.0 1.6245e-09
10390.0 1.6121e-09
10410.0 1.5974e-09
10430.0 1.5822e-09
10450.0 1.5732e-09
10470.0 1.5628e-09
10490.0 1.5522e-09
10510.0 1.5415e-09
10530.0 1.5303e-09
10550.0 1.5193e-09
10570.0 1.5086e-09
10590.0 1.4978e-09
10610.0 1.487e-09
10630.0 1.4766e-09
10650.0 1.4663e-09
10670.0 1.4558e-09
10690.0 1.4456e-09
10710.0 1.4357e-09
10730.0 1.4257e-09
10750.0 1.4156e-09
10770.0 1.406e-09
10790.0 1.3965e-09
10810.0 1.3868e-09
10830.0 1.3774e-09
10850.0 1.3683e-09
10870.0 1.3589e-09
10890.0 1.3496e-09
10910.0 1.3406e-09
10930.0 1.3316e-09
10950.0 1.3223e-09
10970.0 1.3132e-09
10990.0 1.3042e-09
11010.0 1.3155e-09
11030.0 1.3059e-09
11050.0 1.2964e-09
11070.0 1.2867e-09
11090.0 1.2765e-09
11110.0 1.2665e-09
11130.0 1.2565e-09
11150.0 1.2462e-09
11170.0 1.2357e-09
11190.0 1.2256e-09
11210.0 1.2152e-09
11230.0 1.2046e-09
11250.0 1.1943e-09
11270.0 1.1843e-09
11290.0 1.1741e-09
11310.0 1.1642e-09
11330.0 1.1552e-09
11350.0 1.1462e-09
11370.0 1.1376e-09
11390.0 1.1295e-09
11410.0 1.122e-09
11430.0 1.1144e-09
11450.0 1.1073e-09
11470.0 1.1007e-09
11490.0 1.0941e-09
11510.0 1.0875e-09
11530.0 1.0812e-09
11550.0 1.075e-09
11570.0 1.0685e-09
11590.0 1.0621e-09
11610.0 1.0557e-09
11630.0 1.0489e-09
11650.0 1.0419e-09
11670.0 1.035e-09
11690.0 1.028e-09
11710.0 1.0206e-09
11730.0 1.0132e-09
11750.0 1.006e-09
11770.0 9.9846e-10
11790.0 9.9083e-10
11810.0 9.8345e-10
11830.0 9.7614e-10
11850.0 9.6857e-10
11870.0 9.6134e-10
11890.0 9.5451e-10
11910.0 9.477e-10
11930.0 9.4107e-10
11950.0 9.3495e-10
11970.0 9.2909e-10
11990.0 9.2333e-10
12010.0 9.1807e-10
12030.0 9.1325e-10
12050.0 9.0865e-10
12070.0 9.0434e-10
12090.0 9.0059e-10
12110.0 8.9709e-10
12130.0 8.938e-10
12150.0 8.9084e-10
12170.0 8.8816e-10
12190.0 8.8551e-10
12210.0 8.8299e-10
12230.0 8.8059e-10
12250.0 8.7815e-10
12270.0 8.7554e-10
12290.0 8.7282e-10
12310.0 8.6996e-10
12330.0 8.6671e-10
12350.0 8.6312e-10
12370.0 8.5929e-10
12390.0 8.5503e-10
12410.0 8.5012e-10
12430.0 8.4504e-10
12450.0 8.3964e-10
12470.0 8.3369e-10
12490.0 8.2738e-10
12510.0 8.2103e-10
12530.0 8.1423e-10
12550.0 8.0701e-10
12570.0 7.9983e-10
12590.0 7.9258e-10
12610.0 7.8492e-10
12630.0 7.772e-10
12650.0 7.6988e-10
12670.0 7.6239e-10
12690.0 7.5484e-10
12710.0 7.4765e-10
12730.0 7.4071e-10
12750.0 7.3359e-10
12770.0 7.2689e-10
12790.0 7.2065e-10
12810.0 7.1456e-10
12830.0 7.0865e-10
12850.0 7.0335e-10
12870.0 6.9843e-10
12890.0 6.9369e-10
12910.0 6.8942e-10
12930.0 6.8567e-10
12950.0 6.8218e-10
12970.0 6.7908e-10
12990.0 6.7654e-10
13010.0 6.7441e-10
13030.0 6.7263e-10
13050.0 6.7128e-10
13070.0 6.7031e-10
13090.0 6.6961e-10
13110.0 6.6916e-10
13130.0 6.689e-10
13150.0 6.6873e-10
13170.0 6.6858e-10
13190.0 6.6835e-10
13210.0 6.6799e-10
13230.0 6.6739e-10
13250.0 6.6648e-10
13270.0 6.6528e-10
13290.0 6.637e-10
13310.0 6.6165e-10
13330.0 6.5923e-10
13350.0 6.5647e-10
13370.0 6.5322e-10
13390.0 6.495e-10
13410.0 6.4564e-10
13430.0 6.4138e-10
13450.0 6.3667e-10
13470.0 6.3178e-10
13490.0 6.2677e-10
13510.0 6.2119e-10
13530.0 6.1546e-10
13550.0 6.0976e-10
13570.0 6.0383e-10
13590.0 5.9758e-10
13610.0 5.914e-10
13630.0 5.8531e-10
13650.0 5.7888e-10
13670.0 5.7245e-10
13690.0 5.6621e-10
13710.0 5.5988e-10
13730.0 5.5325e-10
13750.0 5.4706e-10
13770.0 5.4099e-10
13790.0 5.3482e-10
13810.0 5.288e-10
13830.0 5.2318e-10
13850.0 5.1753e-10
13870.0 5.1194e-10
13890.0 5.0672e-10
13910.0 5.0173e-10
13930.0 4.9672e-10
13950.0 4.9193e-10
13970.0 4.8757e-10
13990.0 4.8324e-10
14010.0 4.7903e-10
14030.0 4.7512e-10
14050.0 4.7142e-10
14070.0 4.6768e-10
14090.0 4.6422e-10
14110.0 4.6103e-10
14130.0 4.5791e-10
14150.0 4.5488e-10
14170.0 4.5213e-10
14190.0 4.4952e-10
14210.0 4.4693e-10
14230.0 4.445e-10
14250.0 4.4222e-10
14270.0 4.3994e-10
14290.0 4.3768e-10
14310.0 4.356e-10
14330.0 4.3354e-10
14350.0 4.3147e-10
14370.0 4.2948e-10
14390.0 4.2758e-10
14410.0 4.2564e-10
14430.0 4.2371e-10
14450.0 4.2188e-10
14470.0 4.2006e-10
14490.0 4.1817e-10
14510.0 4.1636e-10
14530.0 4.1461e-10
14550.0 4.128e-10
14570.0 4.1098e-10
14590.0 4.0922e-10
14610.0 4.0742e-10
14630.0 4.0553e-10
14650.0 4.0368e-10
14670.0 4.0185e-10
14690.0 3.9993e-10
14710.0 3.9796e-10
14730.0 3.9608e-10
14750.0 3.9413e-10
14770.0 3.9209e-10
14790.0 3.9007e-10
14810.0 3.8807e-10
14830.0 3.8589e-10
14850.0 3.8372e-10
14870.0 3.8159e-10
14890.0 3.7941e-10
14910.0 3.7718e-10
14930.0 3.7506e-10
14950.0 3.7306e-10
14970.0 3.7109e-10
14990.0 3.693e-10
15010.0 3.6774e-10
15030.0 3.6632e-10
15050.0 3.6501e-10
15070.0 3.6391e-10
15090.0 3.629e-10
15110.0 3.6194e-10
15130.0 3.6102e-10
15150.0 3.6016e-10
15170.0 3.5927e-10
15190.0 3.5838e-10
15210.0 3.5752e-10
15230.0 3.5666e-10
15250.0 3.5577e-10
15270.0 3.5488e-10
15290.0 3.5404e-10
15310.0 3.5317e-10
15330.0 3.5228e-10
15350.0 3.5143e-10
15370.0 3.5058e-10
15390.0 3.4968e-10
15410.0 3.488e-10
15430.0 3.4795e-10
15450.0 3.4707e-10
15470.0 3.4618e-10
15490.0 3.4533e-10
15510.0 3.4447e-10
15530.0 3.4358e-10
15550.0 3.4271e-10
15570.0 3.4187e-10
15590.0 3.4098e-10
15610.0 3.4008e-10
15630.0 3.3923e-10
15650.0 3.3837e-10
15670.0 3.3748e-10
15690.0 3.366e-10
15710.0 3.3576e-10
15730.0 3.3488e-10
15750.0 3.3399e-10
15770.0 3.3313e-10
15790.0 3.3227e-10
15810.0 3.3136e-10
15830.0 3.3049e-10
15850.0 3.2964e-10
15870.0 3.2876e-10
15890.0 3.2788e-10
15910.0 3.2703e-10
15930.0 3.2616e-10
15950.0 3.2526e-10
15970.0 3.2439e-10
15990.0 3.2353e-10
16010.0 3.2264e-10
16030.0 3.2175e-10
16050.0 3.209e-10
16070.0 3.2003e-10
16090.0 3.1914e-10
16110.0 3.1828e-10
16130.0 3.1743e-10
16150.0 3.1652e-10
16170.0 3.1563e-10
16190.0 3.1478e-10
16210.0 3.1391e-10
16230.0 3.1301e-10
16250.0 3.1214e-10
16270.0 3.1129e-10
16290.0 3.104e-10
16310.0 3.0952e-10
16330.0 3.0866e-10
16350.0 3.0779e-10
16370.0 3.0687e-10
16390.0 3.0601e-10
16410.0 3.0515e-10
16430.0 3.0426e-10
16450.0 3.0338e-10
16470.0 3.0253e-10
16490.0 3.0165e-10
16510.0 3.0075e-10
16530.0 2.9989e-10
16550.0 2.9902e-10
16570.0 2.9812e-10
16590.0 2.9723e-10
16610.0 2.9638e-10
16630.0 2.955e-10
16650.0 2.9461e-10
16670.0 2.9375e-10
16690.0 2.9289e-10
16710.0 2.9198e-10
16730.0 2.911e-10
16750.0 2.9024e-10
16770.0 2.8936e-10
16790.0 2.8846e-10
16810.0 2.876e-10
16830.0 2.8674e-10
16850.0 2.8584e-10
16870.0 2.8497e-10
16890.0 2.8411e-10
16910.0 2.8322e-10
16930.0 2.8231e-10
16950.0 2.8146e-10
16970.0 2.8059e-10
16990.0 2.7969e-10
17010.0 2.7881e-10
17030.0 2.7796e-10
17050.0 2.7707e-10
17070.0 2.7618e-10
17090.0 2.7532e-10
17110.0 2.7445e-10
17130.0 2.7353e-10
17150.0 2.7266e-10
17170.0 2.718e-10
17190.0 2.7092e-10
17210.0 2.7003e-10
17230.0 2.6917e-10
17250.0 2.683e-10
17270.0 2.6739e-10
17290.0 2.6652e-10
17310.0 2.6566e-10
17330.0 2.6476e-10
17350.0 2.6387e-10
17370.0 2.6302e-10
17390.0 2.6214e-10
17410.0 2.6125e-10
17430.0 2.6038e-10
17450.0 2.5952e-10
17470.0 2.5861e-10
17490.0 2.5772e-10
17510.0 2.5686e-10
17530.0 2.5598e-10
17550.0 2.5509e-10
17570.0 2.5422e-10
17590.0 2.5336e-10
17610.0 2.5247e-10
17630.0 2.5158e-10
17650.0 2.5072e-10
17670.0 2.4984e-10
17690.0 2.4893e-10
17710.0 2.4807e-10
17730.0 2.472e-10
17750.0 2.4631e-10
17770.0 2.4543e-10
17790.0 2.4458e-10
17810.0 2.4369e-10
17830.0 2.4279e-10
17850.0 2.4193e-10
17870.0 2.4106e-10
17890.0 2.4016e-10
17910.0 2.3927e-10
17930.0 2.3842e-10
17950.0 2.3754e-10
17970.0 2.3664e-10
17990.0 2.3578e-10
18010.0 2.3492e-10
18030.0 2.3401e-10
18050.0 2.3313e-10
18070.0 2.3227e-10
18090.0 2.3138e-10
18110.0 2.3049e-10
18130.0 2.2963e-10
18150.0 2.2876e-10
18170.0 2.2787e-10
18190.0 2.2699e-10
18210.0 2.2614e-10
18230.0 2.2524e-10
18250.0 2.2434e-10
18270.0 2.2348e-10
18290.0 2.2261e-10
18310.0 2.2171e-10
18330.0 2.2084e-10
18350.0 2.1999e-10
18370.0 2.191e-10
18390.0 2.1821e-10
18410.0 2.1735e-10
18430.0 2.1647e-10
18450.0 2.1556e-10
18470.0 2.1469e-10
18490.0 2.1384e-10
18510.0 2.1295e-10
18530.0 2.1206e-10
18550.0 2.1121e-10
18570.0 2.1033e-10
18590.0 2.0943e-10
18610.0 2.0856e-10
18630.0 2.077e-10
18650.0 2.068e-10
18670.0 2.0591e-10
18690.0 2.0506e-10
18710.0 2.0419e-10
18730.0 2.0329e-10
18750.0 2.0243e-10
18770.0 2.0157e-10
18790.0 2.0066e-10
18810.0 1.9978e-10
18830.0 1.9892e-10
18850.0 1.9804e-10
18870.0 1.9715e-10
18890.0 1.9629e-10
18910.0 1.9543e-10
18930.0 1.9453e-10
18950.0 1.9365e-10
18970.0 1.928e-10
18990.0 1.9192e-10
19010.0 1.91e-10
19030.0 1.9015e-10
19050.0 1.8928e-10
19070.0 1.8839e-10
19090.0 1.8752e-10
19110.0 1.8667e-10
19130.0 1.8578e-10
19150.0 1.8488e-10
19170.0 1.8402e-10
19190.0 1.8315e-10
19210.0 1.8225e-10
19230.0 1.8137e-10
19250.0 1.8052e-10
19270.0 1.7964e-10
19290.0 1.7875e-10
19310.0 1.779e-10
19330.0 1.7703e-10
19350.0 1.7612e-10
19370.0 1.7525e-10
19390.0 1.7439e-10
19410.0 1.7351e-10
19430.0 1.7261e-10
19450.0 1.7176e-10
19470.0 1.709e-10
19490.0 1.7e-10
19510.0 1.6913e-10
19530.0 1.6828e-10
19550.0 1.6738e-10
19570.0 1.6648e-10
19590.0 1.6563e-10
19610.0 1.6476e-10
19630.0 1.6387e-10
19650.0 1.63e-10
19670.0 1.6215e-10
19690.0 1.6126e-10
19710.0 1.6037e-10
19730.0 1.5951e-10
19750.0 1.5864e-10
19770.0 1.5773e-10
19790.0 1.5687e-10
19810.0 1.5601e-10
19830.0 1.5513e-10
19850.0 1.5425e-10
19870.0 1.5341e-10
19890.0 1.5255e-10
19910.0 1.5168e-10
19930.0 1.5087e-10
19950.0 1.5012e-10
19970.0 1.4939e-10
19990.0 1.4874e-10
20010.0 1.4821e-10
20030.0 1.4775e-10
20050.0 1.4736e-10
20070.0 1.4706e-10
20090.0 1.4681e-10
20110.0 1.466e-10
20130.0 1.4641e-10
20150.0 1.4625e-10
20170.0 1.4609e-10
20190.0 1.4592e-10
20210.0 1.4576e-10
20230.0 1.4559e-10
20250.0 1.4541e-10
20270.0 1.4522e-10
20290.0 1.4502e-10
20310.0 1.4481e-10
20330.0 1.4458e-10
20350.0 1.4435e-10
20370.0 1.441e-10
20390.0 1.4384e-10
20410.0 1.4357e-10
20430.0 1.4331e-10
20450.0 1.4302e-10
20470.0 1.4272e-10
20490.0 1.4243e-10
20510.0 1.4214e-10
20530.0 1.4184e-10
20550.0 1.4155e-10
20570.0 1.4127e-10
20590.0 1.4099e-10
20610.0 1.4072e-10
20630.0 1.4046e-10
20650.0 1.402e-10
20670.0 1.3994e-10
20690.0 1.3968e-10
20710.0 1.3943e-10
20730.0 1.3917e-10
20750.0 1.389e-10
20770.0 1.3863e-10
20790.0 1.3833e-10
20810.0 1.3801e-10
20830.0 1.3768e-10
20850.0 1.3733e-10
20870.0 1.3694e-10
20890.0 1.3652e-10
20910.0 1.361e-10
20930.0 1.3564e-10
20950.0 1.3516e-10
20970.0 1.3466e-10
20990.0 1.3417e-10
21010.0 1.3363e-10
21030.0 1.331e-10
21050.0 1.3258e-10
21070.0 1.3204e-10
21090.0 1.3149e-10
21110.0 1.3097e-10
21130.0 1.3046e-10
21150.0 1.2994e-10
21170.0 1.2943e-10
21190.0 1.2894e-10
21210.0 1.2843e-10
21230.0 1.2792e-10
21250.0 1.2742e-10
21270.0 1.2693e-10
21290.0 1.2641e-10
21310.0 1.2589e-10
21330.0 1.2538e-10
21350.0 1.2484e-10
21370.0 1.2428e-10
21390.0 1.2373e-10
21410.0 1.2316e-10
21430.0 1.2255e-10
21450.0 1.2194e-10
21470.0 1.2134e-10
21490.0 1.2071e-10
21510.0 1.2006e-10
21530.0 1.1942e-10
21550.0 1.1877e-10
21570.0 1.1808e-10
21590.0 1.1741e-10
21610.0 1.1675e-10
21630.0 1.1606e-10
21650.0 1.1535e-10
21670.0 1.1469e-10
21690.0 1.1402e-10
21710.0 1.1333e-10
21730.0 1.1265e-10
21750.0 1.12e-10
21770.0 1.1132e-10
21790.0 1.1063e-10
21810.0 1.0998e-10
21830.0 1.0932e-10
21850.0 1.0863e-10
21870.0 1.0797e-10
21890.0 1.0732e-10
21910.0 1.0665e-10
21930.0 1.0599e-10
21950.0 1.0535e-10
21970.0 1.0471e-10
21990.0 1.0404e-10
22010.0 1.0342e-10
22030.0 1.0281e-10
22050.0 1.0221e-10
22070.0 1.0162e-10
22090.0 1.0107e-10
22110.0 1.0053e-10
22130.0 1e-10
22150.0 9.951e-11
22170.0 9.9049e-11
22190.0 9.8591e-11
22210.0 9.816e-11
22230.0 9.7771e-11
22250.0 9.7391e-11
22270.0 9.7022e-11
22290.0 9.668e-11
22310.0 9.6355e-11
22330.0 9.6023e-11
22350.0 9.5706e-11
22370.0 9.5403e-11
22390.0 9.5097e-11
22410.0 9.4782e-11
22430.0 9.4482e-11
22450.0 9.4181e-11
22470.0 9.3867e-11
22490.0 9.3553e-11
22510.0 9.3247e-11
22530.0 9.2925e-11
22550.0 9.2594e-11
22570.0 9.2276e-11
22590.0 9.1957e-11
22610.0 9.1629e-11
22630.0 9.1307e-11
