#lamb flux
1010.0 4.4187e-05
1030.0 4.4132e-05
1050.0 4.4547e-05
1070.0 4.5562e-05
1090.0 4.7328e-05
1110.0 4.9965e-05
1130.0 5.3417e-05
1150.0 5.7627e-05
1170.0 6.2489e-05
1190.0 6.7684e-05
1210.0 7.3069e-05
1230.0 7.8482e-05
1250.0 8.3554e-05
1270.0 8.8051e-05
1290.0 9.2024e-05
1310.0 9.5192e-05
1330.0 9.7351e-05
1350.0 9.8355e-05
1370.0 9.7342e-05
1390.0 9.5811e-05
1410.0 9.3866e-05
1430.0 9.1762e-05
1450.0 8.9472e-05
1470.0 8.7021e-05
1490.0 8.4566e-05
1510.0 8.2147e-05
1530.0 7.9644e-05
1550.0 7.7263e-05
1570.0 7.5078e-05
1590.0 7.2816e-05
1610.0 7.0004e-05
1630.0 6.7313e-05
1650.0 6.4745e-05
1670.0 6.2248e-05
1690.0 5.9821e-05
1710.0 5.7616e-05
1730.0 5.541e-05
1750.0 5.2987e-05
1770.0 5.0485e-05
1790.0 4.7858e-05
1810.0 4.507e-05
1830.0 4.1028e-05
1850.0 8.4793e-05
1870.0 0.0001383
1890.0 0.00019597
1910.0 0.00025854
1930.0 0.00032664
1950.0 0.00040026
1970.0 0.00047987
1990.0 0.00056631
2010.0 0.0006593
2030.0 0.00075854
2050.0 0.00086486
2070.0 0.00097823
2090.0 0.0010968
2110.0 0.0012209
2130.0 0.0013507
2150.0 0.0014844
2170.0 0.0016201
2190.0 0.001759
2210.0 0.0018991
2230.0 0.0020376
2250.0 0.0021742
2270.0 0.0023093
2290.0 0.0024389
2310.0 0.0025611
2330.0 0.0026773
2350.0 0.0027854
2370.0 0.0028823
2390.0 0.002969
2410.0 0.0030459
2430.0 0.003109
2450.0 0.0031583
2470.0 0.0031954
2490.0 0.0032204
2510.0 0.0032328
2530.0 0.0032398
2550.0 0.0032506
2570.0 0.0032754
2590.0 0.0033274
2610.0 0.003438
2630.0 0.0036226
2650.0 0.0038794
2670.0 0.0042264
2690.0 0.0046709
2710.0 0.0051639
2730.0 0.0056778
2750.0 0.0062312
2770.0 0.0067673
2790.0 0.0072473
2810.0 0.00769
2830.0 0.0081073
2850.0 0.0084466
2870.0 0.0087471
2890.0 0.0090389
2910.0 0.0093192
2930.0 0.0095856
2950.0 0.0098743
2970.0 0.010186
2990.0 0.010505
3010.0 0.010842
3030.0 0.011212
3050.0 0.0116
3070.0 0.011982
3090.0 0.012375
3110.0 0.012759
3130.0 0.013101
3150.0 0.013392
3170.0 0.01362
3190.0 0.01378
3210.0 0.013901
3230.0 0.014024
3250.0 0.014217
3270.0 0.014542
3290.0 0.015032
3310.0 0.015726
3330.0 0.016609
3350.0 0.017633
3370.0 0.018807
3390.0 0.020028
3410.0 0.021198
3430.0 0.022262
3450.0 0.023166
3470.0 0.025334
3490.0 0.026258
3510.0 0.023767
3530.0 0.022684
3550.0 0.029554
3570.0 0.035558
3590.0 0.03517
3610.0 0.037832
3630.0 0.037901
3650.0 0.034817
3670.0 0.035073
3690.0 0.039933
3710.0 0.044036
3730.0 0.046081
3750.0 0.041666
3770.0 0.041124
3790.0 0.042793
3810.0 0.041327
3830.0 0.03613
3850.0 0.032785
3870.0 0.034674
3890.0 0.038668
3910.0 0.041129
3930.0 0.042248
3950.0 0.043876
3970.0 0.044815
3990.0 0.045151
4010.0 0.043636
4030.0 0.039621
4050.0 0.037259
4070.0 0.037979
4090.0 0.040251
4110.0 0.041623
4130.0 0.041081
4150.0 0.040696
4170.0 0.041251
4190.0 0.042089
4210.0 0.040574
4230.0 0.036947
4250.0 0.033152
4270.0 0.030643
4290.0 0.028772
4310.0 0.027053
4330.0 0.027781
4350.0 0.028691
4370.0 0.028883
4390.0 0.029535
4410.0 0.029236
4430.0 0.028906
4450.0 0.029357
4470.0 0.029634
4490.0 0.031923
4510.0 0.033215
4530.0 0.034441
4550.0 0.035671
4570.0 0.037138
4590.0 0.037948
4610.0 0.038472
4630.0 0.038844
4650.0 0.039498
4670.0 0.036946
4690.0 0.034162
4710.0 0.031832
4730.0 0.030816
4750.0 0.029302
4770.0 0.028202
4790.0 0.027646
4810.0 0.026914
4830.0 0.028065
4850.0 0.030766
4870.0 0.022747
4890.0 0.022888
4910.0 0.024716
4930.0 0.025473
4950.0 0.023323
4970.0 0.021656
4990.0 0.020871
5010.0 0.019533
5030.0 0.018518
5050.0 0.019181
5070.0 0.020285
5090.0 0.020903
5110.0 0.022572
5130.0 0.023183
5150.0 0.024082
5170.0 0.024981
5190.0 0.024606
5210.0 0.025761
5230.0 0.026317
5250.0 0.026619
5270.0 0.026986
5290.0 0.026358
5310.0 0.025603
5330.0 0.024346
5350.0 0.023132
5370.0 0.022189
5390.0 0.02275
5410.0 0.022573
5430.0 0.022781
5450.0 0.022672
5470.0 0.022318
5490.0 0.022123
5510.0 0.021567
5530.0 0.021077
5550.0 0.020772
5570.0 0.020948
5590.0 0.021145
5610.0 0.021339
5630.0 0.020868
5650.0 0.020449
5670.0 0.019554
5690.0 0.019114
5710.0 0.018526
5730.0 0.018445
5750.0 0.018072
5770.0 0.017434
5790.0 0.017995
5810.0 0.017983
5830.0 0.018475
5850.0 0.01866
5870.0 0.018813
5890.0 0.018464
5910.0 0.018407
5930.0 0.01785
5950.0 0.018007
5970.0 0.017602
5990.0 0.017307
6010.0 0.017278
6030.0 0.017616
6050.0 0.017452
6070.0 0.01706
6090.0 0.016908
6110.0 0.01716
6130.0 0.016895
6150.0 0.016291
6170.0 0.015411
6190.0 0.0145
6210.0 0.013813
6230.0 0.013695
6250.0 0.013822
6270.0 0.014123
6290.0 0.014699
6310.0 0.01567
6330.0 0.016136
6350.0 0.016166
6370.0 0.016272
6390.0 0.016184
6410.0 0.015846
6430.0 0.015429
6450.0 0.015233
6470.0 0.015203
6490.0 0.015095
6510.0 0.014937
6530.0 0.014921
6550.0 0.014778
6570.0 0.014179
6590.0 0.01401
6610.0 0.013871
6630.0 0.01339
6650.0 0.012933
6670.0 0.012572
6690.0 0.012486
6710.0 0.012112
6730.0 0.011912
6750.0 0.011723
6770.0 0.011453
6790.0 0.011517
6810.0 0.011355
6830.0 0.011009
6850.0 0.010887
6870.0 0.010825
6890.0 0.010641
6910.0 0.010566
6930.0 0.010497
6950.0 0.010315
6970.0 0.01009
6990.0 0.010079
7010.0 0.010012
7030.0 0.010074
7050.0 0.0097875
7070.0 0.0096517
7090.0 0.009688
7110.0 0.0094065
7130.0 0.0093851
7150.0 0.0094816
7170.0 0.0096325
7190.0 0.0094749
7210.0 0.0095037
7230.0 0.0096727
7250.0 0.0094441
7270.0 0.0095648
7290.0 0.0094111
7310.0 0.0091618
7330.0 0.0087302
7350.0 0.0088043
7370.0 0.0088444
7390.0 0.0086536
7410.0 0.0084297
7430.0 0.0082984
7450.0 0.0081963
7470.0 0.0082965
7490.0 0.0084708
7510.0 0.0083192
7530.0 0.0080078
7550.0 0.0080522
7570.0 0.0074055
7590.0 0.007268
7610.0 0.0071198
7630.0 0.0072316
7650.0 0.0070773
7670.0 0.0073434
7690.0 0.0070507
7710.0 0.00749
7730.0 0.007516
7750.0 0.008212
7770.0 0.0084328
7790.0 0.0087152
7810.0 0.0090805
7830.0 0.0091913
7850.0 0.0094781
7870.0 0.0092803
7890.0 0.0091851
7910.0 0.0090211
7930.0 0.0087091
7950.0 0.0084617
7970.0 0.0084331
7990.0 0.0083424
8010.0 0.0076904
8030.0 0.0076417
8050.0 0.0074964
8070.0 0.0074172
8090.0 0.0072513
8110.0 0.007307
8130.0 0.0073683
8150.0 0.0074629
8170.0 0.0073765
8190.0 0.0074414
8210.0 0.0073206
8230.0 0.0069163
8250.0 0.0067485
8270.0 0.0066291
8290.0 0.0065309
8310.0 0.006356
8330.0 0.0064565
8350.0 0.006403
8370.0 0.0063814
8390.0 0.0064987
8410.0 0.006508
8430.0 0.0066482
8450.0 0.0067674
8470.0 0.0067965
8490.0 0.0068656
8510.0 0.0067654
8530.0 0.0065653
8550.0 0.0066207
8570.0 0.0066357
8590.0 0.0064637
8610.0 0.0066119
8630.0 0.0065458
8650.0 0.0064076
8670.0 0.0063706
8690.0 0.0063716
8710.0 0.0061475
8730.0 0.0062083
8750.0 0.0059999
8770.0 0.0059527
8790.0 0.0058058
8810.0 0.0057449
8830.0 0.0056954
8850.0 0.0053914
8870.0 0.0051035
8890.0 0.0050227
8910.0 0.0047199
8930.0 0.0043586
8950.0 0.004347
8970.0 0.0042272
8990.0 0.0042047
9010.0 0.0041749
9030.0 0.0041472
9050.0 0.0041177
9070.0 0.004088
9090.0 0.0040581
9110.0 0.004028
9130.0 0.0039978
9150.0 0.0039679
9170.0 0.0039378
9190.0 0.0039077
9210.0 0.0038775
9230.0 0.0038472
9250.0 0.003817
9270.0 0.0037868
9290.0 0.0037566
9310.0 0.0037265
9330.0 0.0036964
9350.0 0.0036663
9370.0 0.0036363
9390.0 0.0036064
9410.0 0.0035766
9430.0 0.0035469
9450.0 0.0035172
9470.0 0.0034895
9490.0 0.003461
9510.0 0.0034307
9530.0 0.0034009
9550.0 0.0033716
9570.0 0.0033426
9590.0 0.0033138
9610.0 0.0032853
9630.0 0.0032571
9650.0 0.003229
9670.0 0.003201
9690.0 0.0031733
9710.0 0.0031459
9730.0 0.0031186
9750.0 0.0030915
9770.0 0.0030648
9790.0 0.0030381
9810.0 0.0030117
9830.0 0.002985
9850.0 0.0029543
9870.0 0.0029284
9890.0 0.0029052
9910.0 0.0028816
9930.0 0.0028536
9950.0 0.0028291
9970.0 0.0028065
9990.0 0.0027832
10010.0 0.0027595
10030.0 0.002736
10050.0 0.0027131
10070.0 0.0026904
10090.0 0.0026681
10110.0 0.0026453
10130.0 0.0026225
10150.0 0.0026007
10170.0 0.002579
10190.0 0.0025571
10210.0 0.0025359
10230.0 0.0025151
10250.0 0.0024942
10270.0 0.0024735
10290.0 0.0024535
10310.0 0.0024334
10330.0 0.0024131
10350.0 0.0023937
10370.0 0.0023745
10390.0 0.0023552
10410.0 0.0023362
10430.0 0.0023178
10450.0 0.0022995
10470.0 0.0022812
10490.0 0.0022635
10510.0 0.0022461
10530.0 0.0022282
10550.0 0.0022109
10570.0 0.0021942
10590.0 0.0021774
10610.0 0.0021606
10630.0 0.0021446
10650.0 0.0021286
10670.0 0.0021124
10690.0 0.0020967
10710.0 0.0020814
10730.0 0.002066
10750.0 0.0020505
10770.0 0.0020359
10790.0 0.0020214
10810.0 0.0020066
10830.0 0.0019923
10850.0 0.0019786
10870.0 0.0019644
10890.0 0.0019505
10910.0 0.0019373
10930.0 0.0019244
10950.0 0.0019116
10970.0 0.0018995
10990.0 0.0018884
11010.0 0.001893
11030.0 0.0018844
11050.0 0.0018764
11070.0 0.0018684
11090.0 0.0018599
11110.0 0.0018514
11130.0 0.0018427
11150.0 0.0018332
11170.0 0.0018231
11190.0 0.0018131
11210.0 0.0018025
11230.0 0.0017914
11250.0 0.0017805
11270.0 0.0017698
11290.0 0.0017588
11310.0 0.0017482
11330.0 0.0017385
11350.0 0.0017291
11370.0 0.00172
11390.0 0.0017117
11410.0 0.0017042
11430.0 0.0016966
11450.0 0.0016896
11470.0 0.0016832
11490.0 0.0016769
11510.0 0.0016703
11530.0 0.0016641
11550.0 0.0016579
11570.0 0.0016512
11590.0 0.0016444
11610.0 0.0016376
11630.0 0.0016303
11650.0 0.0016225
11670.0 0.0016151
11690.0 0.0016077
11710.0 0.0015999
11730.0 0.0015922
11750.0 0.0015852
11770.0 0.0015778
11790.0 0.0015705
11810.0 0.0015637
11830.0 0.0015572
11850.0 0.0015503
11870.0 0.0015439
11890.0 0.0015381
11910.0 0.0015323
11930.0 0.0015267
11950.0 0.001522
11970.0 0.0015176
11990.0 0.0015136
12010.0 0.0015105
12030.0 0.0015083
12050.0 0.0015069
12070.0 0.0015064
12090.0 0.0015072
12110.0 0.0015089
12130.0 0.0015117
12150.0 0.0015155
12170.0 0.0015202
12190.0 0.0015259
12210.0 0.0015324
12230.0 0.0015394
12250.0 0.001547
12270.0 0.0015551
12290.0 0.0015635
12310.0 0.0015718
12330.0 0.0015803
12350.0 0.0015887
12370.0 0.0015968
12390.0 0.0016045
12410.0 0.0016118
12430.0 0.0016184
12450.0 0.0016242
12470.0 0.0016291
12490.0 0.0016329
12510.0 0.0016358
12530.0 0.0016374
12550.0 0.0016375
12570.0 0.0016364
12590.0 0.0016341
12610.0 0.00163
12630.0 0.0016246
12650.0 0.0016185
12670.0 0.001611
12690.0 0.0016021
12710.0 0.0015927
12730.0 0.0015828
12750.0 0.0015714
12770.0 0.0015598
12790.0 0.0015485
12810.0 0.0015365
12830.0 0.0015241
12850.0 0.0015126
12870.0 0.0015014
12890.0 0.00149
12910.0 0.0014792
12930.0 0.0014694
12950.0 0.0014596
12970.0 0.0014501
12990.0 0.0014418
13010.0 0.0014339
13030.0 0.0014262
13050.0 0.0014191
13070.0 0.0014127
13090.0 0.0014063
13110.0 0.0014002
13130.0 0.0013946
13150.0 0.0013893
13170.0 0.0013838
13190.0 0.0013788
13210.0 0.0013742
13230.0 0.0013696
13250.0 0.001365
13270.0 0.0013608
13290.0 0.0013566
13310.0 0.001352
13330.0 0.0013475
13350.0 0.0013431
13370.0 0.0013381
13390.0 0.0013328
13410.0 0.0013276
13430.0 0.0013219
13450.0 0.0013156
13470.0 0.0013092
13490.0 0.0013026
13510.0 0.0012951
13530.0 0.0012874
13550.0 0.0012798
13570.0 0.0012717
13590.0 0.001263
13610.0 0.0012544
13630.0 0.0012458
13650.0 0.0012366
13670.0 0.0012273
13690.0 0.0012182
13710.0 0.0012087
13730.0 0.0011987
13750.0 0.0011891
13770.0 0.0011795
13790.0 0.0011696
13810.0 0.0011596
13830.0 0.00115
13850.0 0.0011401
13870.0 0.0011299
13890.0 0.0011201
13910.0 0.0011103
13930.0 0.0011001
13950.0 0.00109
13970.0 0.0010804
13990.0 0.0010705
14010.0 0.0010605
14030.0 0.0010508
14050.0 0.0010413
14070.0 0.0010313
14090.0 0.0010216
14110.0 0.0010123
14130.0 0.0010029
14150.0 0.00099336
14170.0 0.00098442
14190.0 0.00097563
14210.0 0.00096668
14230.0 0.00095803
14250.0 0.00094974
14270.0 0.00094128
14290.0 0.00093282
14310.0 0.00092484
14330.0 0.00091691
14350.0 0.00090887
14370.0 0.00090105
14390.0 0.00089354
14410.0 0.00088587
14430.0 0.00087828
14450.0 0.00087103
14470.0 0.00086387
14490.0 0.00085659
14510.0 0.00084968
14530.0 0.00084306
14550.0 0.00083641
14570.0 0.00082988
14590.0 0.00082368
14610.0 0.00081751
14630.0 0.00081128
14650.0 0.00080528
14670.0 0.00079943
14690.0 0.00079352
14710.0 0.00078764
14730.0 0.00078205
14750.0 0.00077646
14770.0 0.00077087
14790.0 0.00076548
14810.0 0.00076026
14830.0 0.00075497
14850.0 0.00074987
14870.0 0.000745
14890.0 0.0007402
14910.0 0.00073546
14930.0 0.00073093
14950.0 0.00072656
14970.0 0.00072221
14990.0 0.000718
15010.0 0.00071394
15030.0 0.00070994
15050.0 0.00070594
15070.0 0.00070209
15090.0 0.00069827
15110.0 0.00069443
15130.0 0.00069059
15150.0 0.00068682
15170.0 0.00068298
15190.0 0.00067912
15210.0 0.00067529
15230.0 0.00067146
15250.0 0.00066757
15270.0 0.00066368
15290.0 0.00065985
15310.0 0.00065597
15330.0 0.00065207
15350.0 0.00064821
15370.0 0.00064435
15390.0 0.00064041
15410.0 0.00063651
15430.0 0.00063264
15450.0 0.00062873
15470.0 0.0006248
15490.0 0.00062093
15510.0 0.00061706
15530.0 0.00061314
15550.0 0.00060925
15570.0 0.0006054
15590.0 0.00060149
15610.0 0.00059757
15630.0 0.00059372
15650.0 0.00058986
15670.0 0.00058597
15690.0 0.00058211
15710.0 0.0005783
15730.0 0.00057443
15750.0 0.00057057
15770.0 0.00056676
15790.0 0.00056295
15810.0 0.00055909
15830.0 0.00055529
15850.0 0.00055152
15870.0 0.00054773
15890.0 0.00054394
15910.0 0.00054021
15930.0 0.00053646
15950.0 0.00053268
15970.0 0.00052896
15990.0 0.00052527
16010.0 0.00052154
16030.0 0.00051782
16050.0 0.00051418
16070.0 0.00051053
16090.0 0.00050686
16110.0 0.00050323
16130.0 0.00049964
16150.0 0.000496
16170.0 0.00049239
16190.0 0.00048885
16210.0 0.00048529
16230.0 0.00048172
16250.0 0.00047821
16270.0 0.00047473
16290.0 0.00047121
16310.0 0.00046773
16330.0 0.0004643
16350.0 0.00046086
16370.0 0.00045739
16390.0 0.000454
16410.0 0.00045064
16430.0 0.00044725
16450.0 0.0004439
16470.0 0.0004406
16490.0 0.00043728
16510.0 0.00043397
16530.0 0.00043071
16550.0 0.00042747
16570.0 0.00042421
16590.0 0.00042098
16610.0 0.00041782
16630.0 0.00041464
16650.0 0.00041147
16670.0 0.00040836
16690.0 0.00040526
16710.0 0.00040213
16730.0 0.00039906
16750.0 0.00039603
16770.0 0.00039299
16790.0 0.00038996
16810.0 0.00038699
16830.0 0.00038404
16850.0 0.00038107
16870.0 0.00037815
16890.0 0.00037527
16910.0 0.00037237
16930.0 0.00036949
16950.0 0.00036667
16970.0 0.00036386
16990.0 0.00036105
17010.0 0.00035828
17030.0 0.00035555
17050.0 0.00035281
17070.0 0.00035009
17090.0 0.00034742
17110.0 0.00034476
17130.0 0.00034209
17150.0 0.00033947
17170.0 0.0003369
17190.0 0.00033431
17210.0 0.00033175
17230.0 0.00032925
17250.0 0.00032674
17270.0 0.00032423
17290.0 0.00032177
17310.0 0.00031934
17330.0 0.00031691
17350.0 0.00031449
17370.0 0.00031215
17390.0 0.0003098
17410.0 0.00030745
17430.0 0.00030515
17450.0 0.00030289
17470.0 0.0003006
17490.0 0.00029835
17510.0 0.00029615
17530.0 0.00029395
17550.0 0.00029176
17570.0 0.00028962
17590.0 0.00028751
17610.0 0.00028539
17630.0 0.0002833
17650.0 0.00028125
17670.0 0.00027921
17690.0 0.00027715
17710.0 0.00027518
17730.0 0.00027321
17750.0 0.00027125
17770.0 0.00026931
17790.0 0.00026743
17810.0 0.00026553
17830.0 0.00026365
17850.0 0.00026182
17870.0 0.00026001
17890.0 0.00025818
17910.0 0.0002564
17930.0 0.00025467
17950.0 0.00025293
17970.0 0.0002512
17990.0 0.00024952
18010.0 0.00024786
18030.0 0.00024619
18050.0 0.00024456
18070.0 0.00024296
18090.0 0.00024137
18110.0 0.00023979
18130.0 0.00023826
18150.0 0.00023675
18170.0 0.00023523
18190.0 0.00023375
18210.0 0.00023231
18230.0 0.00023085
18250.0 0.00022941
18270.0 0.00022803
18290.0 0.00022665
18310.0 0.00022528
18330.0 0.00022394
18350.0 0.00022264
18370.0 0.00022133
18390.0 0.00022004
18410.0 0.0002188
18430.0 0.00021756
18450.0 0.00021631
18470.0 0.00021512
18490.0 0.00021395
18510.0 0.00021278
18530.0 0.00021163
18550.0 0.00021053
18570.0 0.00020942
18590.0 0.00020831
18610.0 0.00020725
18630.0 0.00020621
18650.0 0.00020517
18670.0 0.00020414
18690.0 0.00020317
18710.0 0.00020219
18730.0 0.00020122
18750.0 0.00020029
18770.0 0.00019938
18790.0 0.00019845
18810.0 0.00019756
18830.0 0.0001967
18850.0 0.00019585
18870.0 0.000195
18890.0 0.00019419
18910.0 0.0001934
18930.0 0.0001926
18950.0 0.00019182
18970.0 0.00019109
18990.0 0.00019034
19010.0 0.00018959
19030.0 0.0001889
19050.0 0.00018822
19070.0 0.00018754
19090.0 0.00018687
19110.0 0.00018625
19130.0 0.00018561
19150.0 0.00018498
19170.0 0.00018439
19190.0 0.00018381
19210.0 0.00018322
19230.0 0.00018266
19250.0 0.00018214
19270.0 0.0001816
19290.0 0.00018107
19310.0 0.00018058
19330.0 0.0001801
19350.0 0.0001796
19370.0 0.00017913
19390.0 0.0001787
19410.0 0.00017825
19430.0 0.0001778
19450.0 0.00017741
19470.0 0.00017701
19490.0 0.0001766
19510.0 0.00017622
19530.0 0.00017587
19550.0 0.00017549
19570.0 0.00017513
19590.0 0.00017481
19610.0 0.00017448
19630.0 0.00017415
19650.0 0.00017385
19670.0 0.00017357
19690.0 0.00017326
19710.0 0.00017297
19730.0 0.00017271
19750.0 0.00017245
19770.0 0.00017217
19790.0 0.00017193
19810.0 0.00017171
19830.0 0.00017147
19850.0 0.00017124
19870.0 0.00017105
19890.0 0.00017084
19910.0 0.00017061
19930.0 0.00017042
19950.0 0.00017024
19970.0 0.00017003
19990.0 0.00016981
20010.0 0.00016963
20030.0 0.00016941
20050.0 0.00016915
20070.0 0.00016891
20090.0 0.00016865
20110.0 0.00016832
20130.0 0.00016799
20150.0 0.00016769
20170.0 0.00016734
20190.0 0.00016697
20210.0 0.00016664
20230.0 0.00016632
20250.0 0.00016596
20270.0 0.00016564
20290.0 0.00016536
20310.0 0.00016507
20330.0 0.00016478
20350.0 0.00016459
20370.0 0.00016441
20390.0 0.00016424
20410.0 0.00016413
20430.0 0.00016408
20450.0 0.00016403
20470.0 0.00016403
20490.0 0.0001641
20510.0 0.00016422
20530.0 0.00016436
20550.0 0.00016458
20570.0 0.00016486
20590.0 0.00016519
20610.0 0.00016559
20630.0 0.00016605
20650.0 0.00016657
20670.0 0.00016715
20690.0 0.0001678
20710.0 0.0001685
20730.0 0.00016925
20750.0 0.00017004
20770.0 0.00017086
20790.0 0.0001717
20810.0 0.00017255
20830.0 0.0001734
20850.0 0.00017422
20870.0 0.00017502
20890.0 0.00017578
20910.0 0.00017648
20930.0 0.00017711
20950.0 0.00017766
20970.0 0.00017813
20990.0 0.00017853
21010.0 0.00017882
21030.0 0.00017901
21050.0 0.00017914
21070.0 0.00017918
21090.0 0.0001791
21110.0 0.00017899
21130.0 0.00017883
21150.0 0.00017858
21170.0 0.0001783
21190.0 0.00017802
21210.0 0.00017767
21230.0 0.00017728
21250.0 0.00017693
21270.0 0.00017658
21290.0 0.00017619
21310.0 0.00017581
21330.0 0.00017549
21350.0 0.00017513
21370.0 0.00017477
21390.0 0.00017444
21410.0 0.00017411
21430.0 0.00017372
21450.0 0.00017335
21470.0 0.000173
21490.0 0.00017261
21510.0 0.00017217
21530.0 0.00017176
21550.0 0.00017132
21570.0 0.00017081
21590.0 0.00017031
21610.0 0.0001698
21630.0 0.00016925
21650.0 0.00016863
21670.0 0.00016809
21690.0 0.00016751
21710.0 0.00016689
21730.0 0.00016629
21750.0 0.00016572
21770.0 0.00016508
21790.0 0.00016445
21810.0 0.00016387
21830.0 0.00016327
21850.0 0.00016264
21870.0 0.00016205
21890.0 0.00016149
21910.0 0.00016089
21930.0 0.00016028
21950.0 0.00015971
21970.0 0.00015911
21990.0 0.00015845
22010.0 0.00015783
22030.0 0.00015721
22050.0 0.00015653
22070.0 0.00015583
22090.0 0.00015516
22110.0 0.00015443
22130.0 0.00015364
22150.0 0.00015286
22170.0 0.00015208
22190.0 0.00015121
22210.0 0.00015033
22230.0 0.0001495
22250.0 0.00014862
22270.0 0.0001477
22290.0 0.00014681
22310.0 0.00014593
22330.0 0.00014499
22350.0 0.00014408
22370.0 0.0001432
22390.0 0.00014231
22410.0 0.0001414
22430.0 0.00014056
22450.0 0.00013974
22470.0 0.0001389
22490.0 0.0001381
22510.0 0.00013737
22530.0 0.00013661
22550.0 0.00013587
22570.0 0.00013521
22590.0 0.00013457
22610.0 0.00013394
22630.0 0.00013335
22650.0 0.00013283
22670.0 0.0001323
22690.0 0.0001318
22710.0 0.00013135
22730.0 0.00013092
22750.0 0.00013049
22770.0 0.0001301
22790.0 0.00012975
22810.0 0.00012941
22830.0 0.00012908
22850.0 0.0001288
22870.0 0.00012854
22890.0 0.00012828
22910.0 0.00012807
22930.0 0.0001279
22950.0 0.00012774
22970.0 0.00012762
22990.0 0.00012755
23010.0 0.00012752
23030.0 0.00012752
23050.0 0.00012758
23070.0 0.00012769
23090.0 0.00012786
23110.0 0.00012808
23130.0 0.00012836
23150.0 0.0001287
23170.0 0.00012912
23190.0 0.00012958
23210.0 0.00013009
23230.0 0.00013068
23250.0 0.00013131
23270.0 0.00013196
23290.0 0.00013266
23310.0 0.00013341
23330.0 0.00013414
23350.0 0.00013487
23370.0 0.00013561
23390.0 0.00013634
23410.0 0.00013701
23430.0 0.00013767
23450.0 0.00013804
23470.0 0.0001383
