#lamb flux
1010.0 7.3445e-05
1030.0 9.318e-05
1050.0 0.00011645
1070.0 0.00014337
1090.0 0.00017483
1110.0 0.00020837
1130.0 0.00024348
1150.0 0.00028079
1170.0 0.00032043
1190.0 0.00035972
1210.0 0.00040489
1230.0 0.00045268
1250.0 0.00050065
1270.0 0.00054773
1290.0 0.00059627
1310.0 0.00064339
1330.0 0.00068662
1350.0 0.00072718
1370.0 0.00076523
1390.0 0.00079797
1410.0 0.00082496
1430.0 0.00084887
1450.0 0.00086809
1470.0 0.00088168
1490.0 0.00089176
1510.0 0.00090971
1530.0 0.00092749
1550.0 0.00094309
1570.0 0.00095589
1590.0 0.00096818
1610.0 0.00097892
1630.0 0.0009908
1650.0 0.0010039
1670.0 0.0010167
1690.0 0.0010298
1710.0 0.001045
1730.0 0.0010613
1750.0 0.0010769
1770.0 0.0010944
1790.0 0.0011133
1810.0 0.0011323
1830.0 0.0011518
1850.0 0.0011738
1870.0 0.0011959
1890.0 0.0012179
1910.0 0.0012412
1930.0 0.001266
1950.0 0.0012902
1970.0 0.0013148
1990.0 0.0013411
2010.0 0.0013676
2030.0 0.0013938
2050.0 0.0014214
2070.0 0.0014504
2090.0 0.0014785
2110.0 0.0015071
2130.0 0.0015371
2150.0 0.0015673
2170.0 0.0015969
2190.0 0.0016281
2210.0 0.00166
2230.0 0.0016914
2250.0 0.0017234
2270.0 0.001757
2290.0 0.0017903
2310.0 0.001823
2330.0 0.001857
2350.0 0.0018916
2370.0 0.0019254
2390.0 0.0019597
2410.0 0.0019954
2430.0 0.0020307
2450.0 0.0020664
2470.0 0.002105
2490.0 0.0021487
2510.0 0.0021977
2530.0 0.0022592
2550.0 0.0023421
2570.0 0.0024518
2590.0 0.0025956
2610.0 0.0028001
2630.0 0.0030709
2650.0 0.0034017
2670.0 0.0038099
2690.0 0.0043039
2710.0 0.0048435
2730.0 0.0054076
2750.0 0.0060138
2770.0 0.0066074
2790.0 0.007147
2810.0 0.0076397
2830.0 0.0080847
2850.0 0.0084344
2870.0 0.0087212
2890.0 0.0089679
2910.0 0.0091768
2930.0 0.0093536
2950.0 0.0095228
2970.0 0.009687
2990.0 0.0098401
3010.0 0.0099881
3030.0 0.010139
3050.0 0.010287
3070.0 0.010422
3090.0 0.010557
3110.0 0.010695
3130.0 0.010838
3150.0 0.010993
3170.0 0.011239
3190.0 0.011606
3210.0 0.012136
3230.0 0.0129
3250.0 0.013932
3270.0 0.014897
3290.0 0.01645
3310.0 0.019678
3330.0 0.020374
3350.0 0.020437
3370.0 0.020464
3390.0 0.020485
3410.0 0.020494
3430.0 0.020494
3450.0 0.020494
3470.0 0.020497
3490.0 0.02047
3510.0 0.020348
3530.0 0.019638
3550.0 0.018707
3570.0 0.018891
3590.0 0.01997
3610.0 0.021508
3630.0 0.022209
3650.0 0.021157
3670.0 0.019098
3690.0 0.017735
3710.0 0.017666
3730.0 0.018137
3750.0 0.018392
3770.0 0.018976
3790.0 0.019663
3810.0 0.019559
3830.0 0.0183
3850.0 0.017121
3870.0 0.016645
3890.0 0.016747
3910.0 0.016674
3930.0 0.016742
3950.0 0.017546
3970.0 0.018497
3990.0 0.019026
4010.0 0.018824
4030.0 0.018245
4050.0 0.01802
4070.0 0.017908
4090.0 0.017958
4110.0 0.01788
4130.0 0.017374
4150.0 0.016798
4170.0 0.016664
4190.0 0.016124
4210.0 0.0151
4230.0 0.013985
4250.0 0.012841
4270.0 0.012005
4290.0 0.011506
4310.0 0.011397
4330.0 0.011791
4350.0 0.012356
4370.0 0.012912
4390.0 0.013903
4410.0 0.014752
4430.0 0.014757
4450.0 0.013796
4470.0 0.012908
4490.0 0.012577
4510.0 0.01244
4530.0 0.01251
4550.0 0.012589
4570.0 0.012818
4590.0 0.013269
4610.0 0.013894
4630.0 0.014362
4650.0 0.01468
4670.0 0.014524
4690.0 0.013801
4710.0 0.013056
4730.0 0.012566
4750.0 0.012278
4770.0 0.012317
4790.0 0.012311
4810.0 0.012059
4830.0 0.01201
4850.0 0.012386
4870.0 0.012384
4890.0 0.012146
4910.0 0.011833
4930.0 0.011088
4950.0 0.0099698
4970.0 0.0092243
4990.0 0.0086055
5010.0 0.0083436
5030.0 0.0084929
5050.0 0.0086352
5070.0 0.0088253
5090.0 0.0092099
5110.0 0.0092121
5130.0 0.0091382
5150.0 0.0091645
5170.0 0.0090499
5190.0 0.0091132
5210.0 0.0090328
5230.0 0.0087693
5250.0 0.0087234
5270.0 0.0087614
5290.0 0.0086394
5310.0 0.008408
5330.0 0.0081285
5350.0 0.0078672
5370.0 0.0076781
5390.0 0.007486
5410.0 0.0073086
5430.0 0.0072445
5450.0 0.0072341
5470.0 0.0072903
5490.0 0.0075111
5510.0 0.0076778
5530.0 0.0077147
5550.0 0.0077727
5570.0 0.0077713
5590.0 0.0076107
5610.0 0.0075316
5630.0 0.007559
5650.0 0.007462
5670.0 0.0073043
5690.0 0.0071031
5710.0 0.0070825
5730.0 0.0071872
5750.0 0.0069165
5770.0 0.0065957
5790.0 0.0061333
5810.0 0.0054374
5830.0 0.0058783
5850.0 0.0065092
5870.0 0.0066905
5890.0 0.0067926
5910.0 0.0069446
5930.0 0.0070041
5950.0 0.0069805
5970.0 0.0069906
5990.0 0.0069928
6010.0 0.0068693
6030.0 0.0067344
6050.0 0.0067179
6070.0 0.0067671
6090.0 0.006777
6110.0 0.0066551
6130.0 0.0065153
6150.0 0.0063516
6170.0 0.0061837
6190.0 0.0059627
6210.0 0.0058461
6230.0 0.0058553
6250.0 0.0058123
6270.0 0.0057743
6290.0 0.0058213
6310.0 0.0058758
6330.0 0.0058279
6350.0 0.0057109
6370.0 0.0056767
6390.0 0.0056099
6410.0 0.0055238
6430.0 0.0054251
6450.0 0.0053637
6470.0 0.0053049
6490.0 0.0052767
6510.0 0.0052133
6530.0 0.0051266
6550.0 0.0050483
6570.0 0.0049931
6590.0 0.0050221
6610.0 0.0050155
6630.0 0.0048737
6650.0 0.004747
6670.0 0.0047046
6690.0 0.004634
6710.0 0.0045244
6730.0 0.0044845
6750.0 0.0045191
6770.0 0.0047688
6790.0 0.0052605
6810.0 0.0050046
6830.0 0.004418
6850.0 0.0042219
6870.0 0.0041387
6890.0 0.0041165
6910.0 0.0041034
6930.0 0.0040817
6950.0 0.0040509
6970.0 0.0039197
6990.0 0.0038545
7010.0 0.0038744
7030.0 0.0038649
7050.0 0.0037749
7070.0 0.0036818
7090.0 0.0036485
7110.0 0.003688
7130.0 0.003667
7150.0 0.0036417
7170.0 0.0036188
7190.0 0.0036143
7210.0 0.0036265
7230.0 0.0036326
7250.0 0.0036348
7270.0 0.0036202
7290.0 0.003637
7310.0 0.0036419
7330.0 0.0035642
7350.0 0.0034396
7370.0 0.0033575
7390.0 0.0033191
7410.0 0.0032662
7430.0 0.0032668
7450.0 0.0032382
7470.0 0.0032511
7490.0 0.003188
7510.0 0.0030968
7530.0 0.0031004
7550.0 0.003114
7570.0 0.0030628
7590.0 0.0028839
7610.0 0.0028442
7630.0 0.00295
7650.0 0.0029817
7670.0 0.0029365
7690.0 0.0030092
7710.0 0.0030735
7730.0 0.0030875
7750.0 0.0031836
7770.0 0.0030943
7790.0 0.0029985
7810.0 0.0031216
7830.0 0.0032205
7850.0 0.00324
7870.0 0.0032913
7890.0 0.0032699
7910.0 0.0032151
7930.0 0.0031919
7950.0 0.0032882
7970.0 0.0032711
7990.0 0.0030371
8010.0 0.0029873
8030.0 0.0029518
8050.0 0.0028955
8070.0 0.0028293
8090.0 0.0025831
8110.0 0.0025882
8130.0 0.0027903
8150.0 0.0029034
8170.0 0.0029365
8190.0 0.0030262
8210.0 0.0029623
8230.0 0.0029189
8250.0 0.0029141
8270.0 0.0028608
8290.0 0.0028025
8310.0 0.0026679
8330.0 0.0026649
8350.0 0.0027095
8370.0 0.0027273
8390.0 0.0027104
8410.0 0.002673
8430.0 0.0026256
8450.0 0.0026176
8470.0 0.0027265
8490.0 0.0027547
8510.0 0.0026397
8530.0 0.0025501
8550.0 0.0025367
8570.0 0.0024598
8590.0 0.0024225
8610.0 0.0024664
8630.0 0.0024745
8650.0 0.0024567
8670.0 0.002441
8690.0 0.0024102
8710.0 0.0023059
8730.0 0.0022992
8750.0 0.0022481
8770.0 0.0022553
8790.0 0.0022382
8810.0 0.0021747
8830.0 0.0021801
8850.0 0.0021985
8870.0 0.0020939
8890.0 0.0020088
8910.0 0.0019442
8930.0 0.0018596
8950.0 0.0018053
8970.0 0.0017294
8990.0 0.001701
9010.0 0.0016384
9030.0 0.0016194
9050.0 0.0016096
9070.0 0.0016001
9090.0 0.0015906
9110.0 0.0015809
9130.0 0.0015711
9150.0 0.0015616
9170.0 0.0015519
9190.0 0.0015421
9210.0 0.0015323
9230.0 0.0015224
9250.0 0.0015125
9270.0 0.0015025
9290.0 0.0014925
9310.0 0.0014827
9330.0 0.0014731
9350.0 0.0014636
9370.0 0.001454
9390.0 0.0014444
9410.0 0.0014348
9430.0 0.0014252
9450.0 0.0014156
9470.0 0.001407
9490.0 0.0013978
9510.0 0.0013878
9530.0 0.0013778
9550.0 0.0013681
9570.0 0.0013585
9590.0 0.001349
9610.0 0.0013398
9630.0 0.0013307
9650.0 0.0013216
9670.0 0.0013125
9690.0 0.0013035
9710.0 0.0012945
9730.0 0.0012856
9750.0 0.0012767
9770.0 0.0012679
9790.0 0.0012591
9810.0 0.0012504
9830.0 0.0012418
9850.0 0.0012324
9870.0 0.0012229
9890.0 0.0012152
9910.0 0.0012074
9930.0 0.001198
9950.0 0.0011897
9970.0 0.0011822
9990.0 0.0011745
10010.0 0.0011668
10030.0 0.001159
10050.0 0.0011512
10070.0 0.0011435
10090.0 0.0011359
10110.0 0.0011282
10130.0 0.0011206
10150.0 0.0011132
10170.0 0.0011059
10190.0 0.0010985
10210.0 0.0010914
10230.0 0.0010843
10250.0 0.0010773
10270.0 0.0010703
10290.0 0.0010635
10310.0 0.0010568
10330.0 0.00105
10350.0 0.0010435
10370.0 0.001037
10390.0 0.0010305
10410.0 0.0010236
10430.0 0.0010167
10450.0 0.0010112
10470.0 0.0010054
10490.0 0.00099962
10510.0 0.00099391
10530.0 0.00098804
10550.0 0.00098232
10570.0 0.00097678
10590.0 0.00097122
10610.0 0.00096568
10630.0 0.00096036
10650.0 0.00095511
10670.0 0.00094978
10690.0 0.00094462
10710.0 0.00093962
10730.0 0.0009346
10750.0 0.00092956
10770.0 0.00092481
10790.0 0.00092009
10810.0 0.00091534
10830.0 0.00091072
10850.0 0.00090629
10870.0 0.00090173
10890.0 0.00089725
10910.0 0.00089295
10930.0 0.00088866
10950.0 0.00088428
10970.0 0.00087999
10990.0 0.0008758
11010.0 0.0009173
11030.0 0.00091253
11050.0 0.00090777
11070.0 0.00090283
11090.0 0.00089746
11110.0 0.00089225
11130.0 0.00088702
11150.0 0.00088151
11170.0 0.00087591
11190.0 0.00087052
11210.0 0.00086495
11230.0 0.0008592
11250.0 0.00085368
11270.0 0.00084834
11290.0 0.00084289
11310.0 0.00083761
11330.0 0.00083289
11350.0 0.00082828
11370.0 0.00082385
11390.0 0.00081986
11410.0 0.00081621
11430.0 0.00081257
11450.0 0.00080925
11470.0 0.00080625
11490.0 0.00080329
11510.0 0.00080031
11530.0 0.00079755
11550.0 0.00079483
11570.0 0.00079192
11590.0 0.00078898
11610.0 0.00078609
11630.0 0.00078295
11650.0 0.00077956
11670.0 0.00077626
11690.0 0.00077285
11710.0 0.00076915
11730.0 0.0007654
11750.0 0.00076177
11770.0 0.00075788
11790.0 0.00075388
11810.0 0.00075004
11830.0 0.00074622
11850.0 0.00074217
11870.0 0.00073836
11890.0 0.00073481
11910.0 0.00073125
11930.0 0.00072781
11950.0 0.00072474
11970.0 0.00072183
11990.0 0.00071899
12010.0 0.0007165
12030.0 0.00071435
12050.0 0.00071235
12070.0 0.00071055
12090.0 0.00070917
12110.0 0.00070798
12130.0 0.00070695
12150.0 0.00070615
12170.0 0.00070556
12190.0 0.00070499
12210.0 0.0007045
12230.0 0.0007041
12250.0 0.00070364
12270.0 0.00070303
12290.0 0.00070231
12310.0 0.00070146
12330.0 0.00070027
12350.0 0.00069878
12370.0 0.00069707
12390.0 0.00069498
12410.0 0.00069233
12430.0 0.0006895
12450.0 0.00068637
12470.0 0.00068275
12490.0 0.0006788
12510.0 0.00067476
12530.0 0.00067031
12550.0 0.00066548
12570.0 0.00066061
12590.0 0.00065564
12610.0 0.00065029
12630.0 0.00064484
12650.0 0.00063966
12670.0 0.00063429
12690.0 0.00062883
12710.0 0.00062361
12730.0 0.00061856
12750.0 0.00061331
12770.0 0.00060836
12790.0 0.00060375
12810.0 0.00059924
12830.0 0.00059483
12850.0 0.00059089
12870.0 0.00058724
12890.0 0.00058371
12910.0 0.00058053
12930.0 0.00057777
12950.0 0.0005752
12970.0 0.00057292
12990.0 0.0005711
13010.0 0.00056961
13030.0 0.00056839
13050.0 0.00056751
13070.0 0.00056694
13090.0 0.00056658
13110.0 0.00056642
13130.0 0.00056641
13150.0 0.00056647
13170.0 0.00056652
13190.0 0.0005665
13210.0 0.00056635
13230.0 0.00056598
13250.0 0.00056535
13270.0 0.00056445
13290.0 0.00056322
13310.0 0.00056157
13330.0 0.0005596
13350.0 0.00055731
13370.0 0.0005546
13390.0 0.00055147
13410.0 0.00054819
13430.0 0.00054456
13450.0 0.00054053
13470.0 0.00053631
13490.0 0.00053198
13510.0 0.00052715
13530.0 0.00052216
13550.0 0.00051718
13570.0 0.00051198
13590.0 0.0005065
13610.0 0.00050107
13630.0 0.00049569
13650.0 0.00049001
13670.0 0.00048432
13690.0 0.00047877
13710.0 0.00047313
13730.0 0.00046724
13750.0 0.0004617
13770.0 0.00045624
13790.0 0.00045069
13810.0 0.00044525
13830.0 0.00044014
13850.0 0.00043498
13870.0 0.00042987
13890.0 0.00042506
13910.0 0.00042043
13930.0 0.00041577
13950.0 0.0004113
13970.0 0.00040717
13990.0 0.00040307
14010.0 0.00039906
14030.0 0.00039531
14050.0 0.00039173
14070.0 0.00038811
14090.0 0.00038473
14110.0 0.00038157
14130.0 0.00037847
14150.0 0.00037545
14170.0 0.00037266
14190.0 0.00036998
14210.0 0.00036732
14230.0 0.00036479
14250.0 0.0003624
14270.0 0.00035999
14290.0 0.0003576
14310.0 0.00035536
14330.0 0.00035315
14350.0 0.00035092
14370.0 0.00034876
14390.0 0.00034668
14410.0 0.00034456
14430.0 0.00034246
14450.0 0.00034044
14470.0 0.00033843
14490.0 0.00033637
14510.0 0.00033438
14530.0 0.00033244
14550.0 0.00033046
14570.0 0.00032847
14590.0 0.00032653
14610.0 0.00032456
14630.0 0.00032253
14650.0 0.00032054
14670.0 0.00031855
14690.0 0.00031651
14710.0 0.00031443
14730.0 0.00031242
14750.0 0.00031036
14770.0 0.00030824
14790.0 0.00030614
14810.0 0.00030405
14830.0 0.00030184
14850.0 0.00029963
14870.0 0.00029746
14890.0 0.00029526
14910.0 0.00029302
14930.0 0.00029088
14950.0 0.00028883
14970.0 0.00028682
14990.0 0.00028494
15010.0 0.00028325
15030.0 0.00028168
15050.0 0.0002802
15070.0 0.00027888
15090.0 0.00027765
15110.0 0.00027644
15130.0 0.00027527
15150.0 0.00027416
15170.0 0.00027303
15190.0 0.0002719
15210.0 0.0002708
15230.0 0.0002697
15250.0 0.00026859
15270.0 0.00026748
15290.0 0.00026641
15310.0 0.00026532
15330.0 0.00026423
15350.0 0.00026316
15370.0 0.0002621
15390.0 0.00026101
15410.0 0.00025995
15430.0 0.00025891
15450.0 0.00025785
15470.0 0.00025679
15490.0 0.00025576
15510.0 0.00025473
15530.0 0.00025369
15550.0 0.00025266
15570.0 0.00025166
15590.0 0.00025063
15610.0 0.0002496
15630.0 0.00024861
15650.0 0.00024761
15670.0 0.0002466
15690.0 0.00024562
15710.0 0.00024465
15730.0 0.00024366
15750.0 0.00024268
15770.0 0.00024172
15790.0 0.00024077
15810.0 0.00023978
15830.0 0.00023883
15850.0 0.0002379
15870.0 0.00023696
15890.0 0.00023601
15910.0 0.0002351
15930.0 0.00023418
15950.0 0.00023324
15970.0 0.00023233
15990.0 0.00023143
16010.0 0.00023052
16030.0 0.0002296
16050.0 0.00022873
16070.0 0.00022784
16090.0 0.00022695
16110.0 0.00022608
16130.0 0.00022523
16150.0 0.00022434
16170.0 0.00022347
16190.0 0.00022262
16210.0 0.00022178
16230.0 0.00022091
16250.0 0.00022008
16270.0 0.00021926
16290.0 0.00021842
16310.0 0.00021759
16330.0 0.00021678
16350.0 0.00021597
16370.0 0.00021513
16390.0 0.00021434
16410.0 0.00021355
16430.0 0.00021274
16450.0 0.00021195
16470.0 0.00021119
16490.0 0.0002104
16510.0 0.00020961
16530.0 0.00020885
16550.0 0.00020809
16570.0 0.00020731
16590.0 0.00020655
16610.0 0.00020582
16630.0 0.00020507
16650.0 0.00020431
16670.0 0.00020359
16690.0 0.00020286
16710.0 0.00020211
16730.0 0.00020139
16750.0 0.00020068
16770.0 0.00019996
16790.0 0.00019923
16810.0 0.00019854
16830.0 0.00019784
16850.0 0.00019713
16870.0 0.00019644
16890.0 0.00019576
16910.0 0.00019507
16930.0 0.00019437
16950.0 0.0001937
16970.0 0.00019303
16990.0 0.00019235
17010.0 0.00019168
17030.0 0.00019104
17050.0 0.00019037
17070.0 0.00018971
17090.0 0.00018907
17110.0 0.00018842
17130.0 0.00018776
17150.0 0.00018712
17170.0 0.0001865
17190.0 0.00018586
17210.0 0.00018522
17230.0 0.00018461
17250.0 0.00018399
17270.0 0.00018335
17290.0 0.00018273
17310.0 0.00018213
17330.0 0.00018151
17350.0 0.00018089
17370.0 0.00018031
17390.0 0.00017971
17410.0 0.0001791
17430.0 0.00017851
17450.0 0.00017793
17470.0 0.00017732
17490.0 0.00017673
17510.0 0.00017616
17530.0 0.00017557
17550.0 0.00017498
17570.0 0.00017441
17590.0 0.00017386
17610.0 0.00017327
17630.0 0.0001727
17650.0 0.00017215
17670.0 0.00017158
17690.0 0.000171
17710.0 0.00017045
17730.0 0.0001699
17750.0 0.00016934
17770.0 0.00016878
17790.0 0.00016825
17810.0 0.0001677
17830.0 0.00016714
17850.0 0.0001666
17870.0 0.00016607
17890.0 0.00016551
17910.0 0.00016497
17930.0 0.00016445
17950.0 0.00016391
17970.0 0.00016337
17990.0 0.00016285
18010.0 0.00016233
18030.0 0.00016178
18050.0 0.00016125
18070.0 0.00016074
18090.0 0.00016021
18110.0 0.00015968
18130.0 0.00015917
18150.0 0.00015866
18170.0 0.00015813
18190.0 0.00015762
18210.0 0.00015712
18230.0 0.00015659
18250.0 0.00015606
18270.0 0.00015556
18290.0 0.00015506
18310.0 0.00015453
18330.0 0.00015403
18350.0 0.00015354
18370.0 0.00015302
18390.0 0.0001525
18410.0 0.00015201
18430.0 0.00015151
18450.0 0.00015098
18470.0 0.00015048
18490.0 0.00015
18510.0 0.00014949
18530.0 0.00014898
18550.0 0.0001485
18570.0 0.000148
18590.0 0.00014748
18610.0 0.00014698
18630.0 0.0001465
18650.0 0.00014599
18670.0 0.00014548
18690.0 0.000145
18710.0 0.0001445
18730.0 0.00014399
18750.0 0.0001435
18770.0 0.00014302
18790.0 0.0001425
18810.0 0.000142
18830.0 0.00014152
18850.0 0.00014102
18870.0 0.00014051
18890.0 0.00014002
18910.0 0.00013954
18930.0 0.00013903
18950.0 0.00013853
18970.0 0.00013805
18990.0 0.00013755
19010.0 0.00013702
19030.0 0.00013654
19050.0 0.00013605
19070.0 0.00013554
19090.0 0.00013504
19110.0 0.00013456
19130.0 0.00013405
19150.0 0.00013354
19170.0 0.00013305
19190.0 0.00013256
19210.0 0.00013204
19230.0 0.00013153
19250.0 0.00013105
19270.0 0.00013054
19290.0 0.00013003
19310.0 0.00012954
19330.0 0.00012904
19350.0 0.00012851
19370.0 0.00012801
19390.0 0.00012752
19410.0 0.000127
19430.0 0.00012648
19450.0 0.00012599
19470.0 0.00012549
19490.0 0.00012496
19510.0 0.00012445
19530.0 0.00012396
19550.0 0.00012343
19570.0 0.0001229
19590.0 0.0001224
19610.0 0.00012189
19630.0 0.00012136
19650.0 0.00012084
19670.0 0.00012034
19690.0 0.00011981
19710.0 0.00011928
19730.0 0.00011877
19750.0 0.00011825
19770.0 0.0001177
19790.0 0.00011718
19810.0 0.00011667
19830.0 0.00011613
19850.0 0.0001156
19870.0 0.0001151
19890.0 0.00011457
19910.0 0.00011405
19930.0 0.00011357
19950.0 0.00011312
19970.0 0.00011269
19990.0 0.00011233
20010.0 0.00011205
20030.0 0.00011181
20050.0 0.00011164
20070.0 0.00011153
20090.0 0.00011147
20110.0 0.00011143
20130.0 0.00011141
20150.0 0.00011141
20170.0 0.00011141
20190.0 0.00011141
20210.0 0.00011141
20230.0 0.00011141
20250.0 0.00011139
20270.0 0.00011137
20290.0 0.00011135
20310.0 0.00011131
20330.0 0.00011126
20350.0 0.00011121
20370.0 0.00011115
20390.0 0.00011107
20410.0 0.00011099
20430.0 0.00011091
20450.0 0.00011081
20470.0 0.0001107
20490.0 0.0001106
20510.0 0.00011049
20530.0 0.00011038
20550.0 0.00011028
20570.0 0.00011018
20590.0 0.00011008
20610.0 0.00010999
20630.0 0.00010991
20650.0 0.00010982
20670.0 0.00010973
20690.0 0.00010965
20710.0 0.00010957
20730.0 0.00010949
20750.0 0.00010939
20770.0 0.00010929
20790.0 0.00010917
20810.0 0.00010904
20830.0 0.00010889
20850.0 0.00010872
20870.0 0.00010852
20890.0 0.0001083
20910.0 0.00010808
20930.0 0.00010783
20950.0 0.00010755
20970.0 0.00010727
20990.0 0.00010698
21010.0 0.00010666
21030.0 0.00010633
21050.0 0.00010602
21070.0 0.00010569
21090.0 0.00010536
21110.0 0.00010504
21130.0 0.00010473
21150.0 0.00010441
21170.0 0.00010409
21190.0 0.00010379
21210.0 0.00010348
21230.0 0.00010316
21250.0 0.00010285
21270.0 0.00010254
21290.0 0.00010221
21310.0 0.00010187
21330.0 0.00010155
21350.0 0.0001012
21370.0 0.00010083
21390.0 0.00010046
21410.0 0.00010008
21430.0 9.9663e-05
21450.0 9.9246e-05
21470.0 9.8831e-05
21490.0 9.8388e-05
21510.0 9.7926e-05
21530.0 9.7476e-05
21550.0 9.7013e-05
21570.0 9.652e-05
21590.0 9.6033e-05
21610.0 9.5554e-05
21630.0 9.5054e-05
21650.0 9.4534e-05
21670.0 9.405e-05
21690.0 9.3556e-05
21710.0 9.3044e-05
21730.0 9.2544e-05
21750.0 9.2062e-05
21770.0 9.1546e-05
21790.0 9.1034e-05
21810.0 9.0541e-05
21830.0 9.0041e-05
21850.0 8.9519e-05
21870.0 8.9013e-05
21890.0 8.8522e-05
21910.0 8.8008e-05
21930.0 8.7495e-05
21950.0 8.7003e-05
21970.0 8.6505e-05
21990.0 8.5986e-05
22010.0 8.5501e-05
22030.0 8.5032e-05
22050.0 8.4557e-05
22070.0 8.4095e-05
22090.0 8.367e-05
22110.0 8.3249e-05
22130.0 8.2835e-05
22150.0 8.2454e-05
22170.0 8.2095e-05
22190.0 8.1738e-05
22210.0 8.1402e-05
22230.0 8.1101e-05
22250.0 8.0806e-05
22270.0 8.0519e-05
22290.0 8.0255e-05
22310.0 8.0003e-05
22330.0 7.9745e-05
22350.0 7.9499e-05
22370.0 7.9264e-05
22390.0 7.9024e-05
22410.0 7.8777e-05
22430.0 7.8542e-05
22450.0 7.8305e-05
22470.0 7.8055e-05
22490.0 7.7805e-05
22510.0 7.756e-05
22530.0 7.73e-05
22550.0 7.7032e-05
22570.0 7.6773e-05
22590.0 7.6513e-05
22610.0 7.6242e-05
22630.0 7.5977e-05
22650.0 7.5724e-05
22670.0 7.5466e-05
22690.0 7.521e-05
22710.0 7.4969e-05
22730.0 7.4736e-05
22750.0 7.45e-05
22770.0 7.4283e-05
22790.0 7.4082e-05
22810.0 7.3887e-05
22830.0 7.3703e-05
22850.0 7.3537e-05
22870.0 7.338e-05
22890.0 7.3228e-05
22910.0 7.3091e-05
22930.0 7.2965e-05
22950.0 7.2844e-05
22970.0 7.2728e-05
22990.0 7.2623e-05
23010.0 7.2522e-05
23030.0 7.2424e-05
23050.0 7.2332e-05
23070.0 7.2246e-05
23090.0 7.2162e-05
23110.0 7.2084e-05
23130.0 7.2014e-05
23150.0 7.1952e-05
23170.0 7.19e-05
23190.0 7.1861e-05
23210.0 7.1833e-05
