#lamb flux
1010.0 0.0001393
1030.0 0.0001393
1050.0 0.0001393
1070.0 0.0001393
1090.0 0.0001393
1110.0 0.0001393
1130.0 0.0001393
1150.0 0.0001393
1170.0 0.0001393
1190.0 0.0001393
1210.0 0.0001393
1230.0 0.0001393
1250.0 0.0001393
1270.0 0.0001393
1290.0 0.0001393
1310.0 0.0001393
1330.0 0.0001393
1350.0 0.0001393
1370.0 0.0001393
1390.0 0.0001393
1410.0 0.0001393
1430.0 0.0001393
1450.0 0.00015447
1470.0 0.00017556
1490.0 0.0001993
1510.0 0.00022615
1530.0 0.00025533
1550.0 0.00028725
1570.0 0.00032257
1590.0 0.00036125
1610.0 0.0004028
1630.0 0.00044772
1650.0 0.00049706
1670.0 0.00055023
1690.0 0.00060767
1710.0 0.00067042
1730.0 0.00073821
1750.0 0.00080978
1770.0 0.00088675
1790.0 0.000969
1810.0 0.0010551
1830.0 0.001145
1850.0 0.0012402
1870.0 0.001338
1890.0 0.0014374
1910.0 0.0015391
1930.0 0.0016425
1950.0 0.0017443
1970.0 0.0018446
1990.0 0.0019441
2010.0 0.0020399
2030.0 0.0021301
2050.0 0.0022165
2070.0 0.0022981
2090.0 0.0023707
2110.0 0.0024359
2130.0 0.0024947
2150.0 0.0025446
2170.0 0.0025845
2190.0 0.0026177
2210.0 0.0026431
2230.0 0.0026588
2250.0 0.0026669
2270.0 0.0026696
2290.0 0.0026645
2310.0 0.0026518
2330.0 0.002635
2350.0 0.0026139
2370.0 0.0025873
2390.0 0.002558
2410.0 0.0025281
2430.0 0.0024956
2450.0 0.0024619
2470.0 0.0024297
2490.0 0.0024001
2510.0 0.0023724
2530.0 0.0023537
2550.0 0.002353
2570.0 0.0023784
2590.0 0.0024401
2610.0 0.0025661
2630.0 0.0027623
2650.0 0.0030173
2670.0 0.0033397
2690.0 0.003726
2710.0 0.0041314
2730.0 0.0045389
2750.0 0.0049704
2770.0 0.0053984
2790.0 0.0058116
2810.0 0.0062382
2830.0 0.006703
2850.0 0.0071616
2870.0 0.0076388
2890.0 0.0081581
2910.0 0.0087035
2930.0 0.0092549
2950.0 0.0098526
2970.0 0.010492
2990.0 0.011146
3010.0 0.011826
3030.0 0.012558
3050.0 0.013316
3070.0 0.01406
3090.0 0.014816
3110.0 0.015542
3130.0 0.01618
3150.0 0.016701
3170.0 0.017073
3190.0 0.017242
3210.0 0.017177
3230.0 0.016951
3250.0 0.016866
3270.0 0.017096
3290.0 0.017547
3310.0 0.018107
3330.0 0.0188
3350.0 0.019579
3370.0 0.020458
3390.0 0.021484
3410.0 0.022458
3430.0 0.023976
3450.0 0.025187
3470.0 0.026457
3490.0 0.027533
3510.0 0.028839
3530.0 0.03316
3550.0 0.0392
3570.0 0.042887
3590.0 0.044499
3610.0 0.044664
3630.0 0.043295
3650.0 0.046788
3670.0 0.055649
3690.0 0.062662
3710.0 0.066387
3730.0 0.069491
3750.0 0.072903
3770.0 0.072305
3790.0 0.068494
3810.0 0.064134
3830.0 0.059746
3850.0 0.059329
3870.0 0.064223
3890.0 0.069308
3910.0 0.072817
3930.0 0.075038
3950.0 0.081636
3970.0 0.087779
3990.0 0.083885
4010.0 0.073799
4030.0 0.064644
4050.0 0.061901
4070.0 0.063464
4090.0 0.063482
4110.0 0.062081
4130.0 0.061052
4150.0 0.061686
4170.0 0.067215
4190.0 0.073812
4210.0 0.072984
4230.0 0.069039
4250.0 0.067298
4270.0 0.067254
4290.0 0.070133
4310.0 0.07321
4330.0 0.0697
4350.0 0.060469
4370.0 0.05294
4390.0 0.047577
4410.0 0.043016
4430.0 0.042762
4450.0 0.046415
4470.0 0.049634
4490.0 0.053911
4510.0 0.061682
4530.0 0.07803
4550.0 0.099149
4570.0 0.11179
4590.0 0.11917
4610.0 0.13089
4630.0 0.1393
4650.0 0.1303
4670.0 0.10683
4690.0 0.087416
4710.0 0.079474
4730.0 0.07714
4750.0 0.071116
4770.0 0.065952
4790.0 0.069294
4810.0 0.075769
4830.0 0.076515
4850.0 0.071501
4870.0 0.069378
4890.0 0.074007
4910.0 0.078727
4930.0 0.079313
4950.0 0.076583
4970.0 0.071785
4990.0 0.064894
5010.0 0.058753
5030.0 0.055179
5050.0 0.053533
5070.0 0.052212
5090.0 0.050671
5110.0 0.050228
5130.0 0.050534
5150.0 0.0529
5170.0 0.05879
5190.0 0.066285
5210.0 0.074743
5230.0 0.080192
5250.0 0.082925
5270.0 0.087337
5290.0 0.092583
5310.0 0.09448
5330.0 0.090805
5350.0 0.085594
5370.0 0.085243
5390.0 0.091135
5410.0 0.098608
5430.0 0.10313
5450.0 0.10394
5470.0 0.10145
5490.0 0.097333
5510.0 0.094524
5530.0 0.093825
5550.0 0.094259
5570.0 0.094303
5590.0 0.091854
5610.0 0.087449
5630.0 0.081485
5650.0 0.075218
5670.0 0.071303
5690.0 0.06922
5710.0 0.06803
5730.0 0.068187
5750.0 0.067413
5770.0 0.065906
5790.0 0.065981
5810.0 0.066373
5830.0 0.067005
5850.0 0.067378
5870.0 0.065942
5890.0 0.063029
5910.0 0.05918
5930.0 0.053325
5950.0 0.048493
5970.0 0.047287
5990.0 0.048816
6010.0 0.049872
6030.0 0.04821
6050.0 0.046608
6070.0 0.048367
6090.0 0.05212
6110.0 0.054315
6130.0 0.052969
6150.0 0.049906
6170.0 0.047705
6190.0 0.045665
6210.0 0.042934
6230.0 0.040084
6250.0 0.038731
6270.0 0.039588
6290.0 0.04111
6310.0 0.043537
6330.0 0.047072
6350.0 0.050839
6370.0 0.052943
6390.0 0.053463
6410.0 0.053984
6430.0 0.054512
6450.0 0.055102
6470.0 0.056188
6490.0 0.057371
6510.0 0.058195
6530.0 0.05818
6550.0 0.057264
6570.0 0.055324
6590.0 0.052755
6610.0 0.050919
6630.0 0.049864
6650.0 0.048306
6670.0 0.046125
6690.0 0.044263
6710.0 0.043295
6730.0 0.042849
6750.0 0.042197
6770.0 0.041397
6790.0 0.040724
6810.0 0.03988
6830.0 0.039406
6850.0 0.040092
6870.0 0.040527
6890.0 0.040116
6910.0 0.039237
6930.0 0.038414
6950.0 0.037703
6970.0 0.036426
6990.0 0.035038
7010.0 0.03443
7030.0 0.03409
7050.0 0.033086
7070.0 0.0316
7090.0 0.030966
7110.0 0.031752
7130.0 0.033693
7150.0 0.035775
7170.0 0.037121
7190.0 0.036858
7210.0 0.035417
7230.0 0.034491
7250.0 0.034418
7270.0 0.034332
7290.0 0.03405
7310.0 0.034302
7330.0 0.035326
7350.0 0.03667
7370.0 0.037494
7390.0 0.037388
7410.0 0.036579
7430.0 0.035516
7450.0 0.034279
7470.0 0.032645
7490.0 0.031517
7510.0 0.030567
7530.0 0.030036
7550.0 0.03027
7570.0 0.030663
7590.0 0.030933
7610.0 0.030854
7630.0 0.030739
7650.0 0.031015
7670.0 0.031846
7690.0 0.032886
7710.0 0.034092
7730.0 0.035037
7750.0 0.036144
7770.0 0.036969
7790.0 0.037444
7810.0 0.037515
7830.0 0.037536
7850.0 0.03691
7870.0 0.035357
7890.0 0.033742
7910.0 0.03273
7930.0 0.032003
7950.0 0.031303
7970.0 0.030969
7990.0 0.031182
8010.0 0.030025
8030.0 0.02974
8050.0 0.029361
8070.0 0.028882
8090.0 0.028395
8110.0 0.028406
8130.0 0.028586
8150.0 0.028501
8170.0 0.028309
8190.0 0.027602
8210.0 0.026042
8230.0 0.024338
8250.0 0.023366
8270.0 0.02262
8290.0 0.021851
8310.0 0.021498
8330.0 0.021461
8350.0 0.020939
8370.0 0.020677
8390.0 0.021372
8410.0 0.022631
8430.0 0.024255
8450.0 0.025961
8470.0 0.026957
8490.0 0.027841
8510.0 0.028468
8530.0 0.029094
8550.0 0.029722
8570.0 0.030147
8590.0 0.030534
8610.0 0.031364
8630.0 0.03172
8650.0 0.031122
8670.0 0.031169
8690.0 0.031699
8710.0 0.032195
8730.0 0.032143
8750.0 0.031394
8770.0 0.031119
8790.0 0.030997
8810.0 0.030517
8830.0 0.028548
8850.0 0.026073
8870.0 0.024305
8890.0 0.023422
8910.0 0.022197
8930.0 0.020661
8950.0 0.019676
8970.0 0.019518
8990.0 0.019722
9010.0 0.019711
9030.0 0.019565
9050.0 0.01943
9070.0 0.019317
9090.0 0.019207
9110.0 0.019099
9130.0 0.018991
9150.0 0.018884
9170.0 0.018777
9190.0 0.018671
9210.0 0.018565
9230.0 0.01846
9250.0 0.018356
9270.0 0.018252
9290.0 0.018149
9310.0 0.018047
9330.0 0.017945
9350.0 0.017844
9370.0 0.017744
9390.0 0.017644
9410.0 0.017544
9430.0 0.017444
9450.0 0.017337
9470.0 0.017233
9490.0 0.017144
9510.0 0.017052
9530.0 0.016959
9550.0 0.016865
9570.0 0.016771
9590.0 0.016678
9610.0 0.016585
9630.0 0.016492
9650.0 0.016399
9670.0 0.016309
9690.0 0.016217
9710.0 0.016126
9730.0 0.016036
9750.0 0.015946
9770.0 0.015856
9790.0 0.015767
9810.0 0.015679
9830.0 0.015589
9850.0 0.015493
9870.0 0.015408
9890.0 0.015323
9910.0 0.015237
9930.0 0.015151
9950.0 0.015066
9970.0 0.01498
9990.0 0.014892
10010.0 0.014796
10030.0 0.014707
10050.0 0.014626
10070.0 0.014545
10090.0 0.014464
10110.0 0.014375
10130.0 0.014259
10150.0 0.01418
10170.0 0.014106
10190.0 0.014026
10210.0 0.013947
10230.0 0.013867
10250.0 0.013781
10270.0 0.013696
10290.0 0.013613
10310.0 0.013527
10330.0 0.013437
10350.0 0.013352
10370.0 0.013267
10390.0 0.013178
10410.0 0.013089
10430.0 0.013005
10450.0 0.012917
10470.0 0.012827
10490.0 0.012739
10510.0 0.012652
10530.0 0.012559
10550.0 0.012468
10570.0 0.01238
10590.0 0.012289
10610.0 0.012196
10630.0 0.012106
10650.0 0.012016
10670.0 0.01192
10690.0 0.011826
10710.0 0.011734
10730.0 0.011639
10750.0 0.011539
10770.0 0.011446
10790.0 0.011351
10810.0 0.011252
10830.0 0.011155
10850.0 0.01106
10870.0 0.010959
10890.0 0.010857
10910.0 0.01076
10930.0 0.010661
10950.0 0.01056
10970.0 0.010461
10990.0 0.010368
11010.0 0.010065
11030.0 0.0099683
11050.0 0.0098773
11070.0 0.0097878
11090.0 0.0096958
11110.0 0.0096113
11130.0 0.0095307
11150.0 0.0094507
11170.0 0.0093744
11190.0 0.0093057
11210.0 0.0092398
11230.0 0.0091772
11250.0 0.0091217
11270.0 0.009072
11290.0 0.0090252
11310.0 0.0089832
11330.0 0.0089475
11350.0 0.0089142
11370.0 0.0088832
11390.0 0.0088551
11410.0 0.0088286
11430.0 0.0088012
11450.0 0.008774
11470.0 0.0087465
11490.0 0.0087166
11510.0 0.0086833
11530.0 0.0086482
11550.0 0.0086101
11570.0 0.0085664
11590.0 0.0085187
11610.0 0.0084679
11630.0 0.0084103
11650.0 0.0083458
11670.0 0.0082785
11690.0 0.0082058
11710.0 0.008125
11730.0 0.0080393
11750.0 0.0079515
11770.0 0.0078553
11790.0 0.0077526
11810.0 0.0076486
11830.0 0.0075407
11850.0 0.0074237
11870.0 0.007307
11890.0 0.0071921
11910.0 0.0070728
11930.0 0.0069521
11950.0 0.0068368
11970.0 0.0067222
11990.0 0.0066055
12010.0 0.0064952
12030.0 0.0063907
12050.0 0.0062874
12070.0 0.0061867
12090.0 0.0060964
12110.0 0.0060095
12130.0 0.0059255
12150.0 0.0058486
12170.0 0.005779
12190.0 0.0057115
12210.0 0.0056511
12230.0 0.0055989
12250.0 0.0055526
12270.0 0.0055122
12290.0 0.0054794
12310.0 0.0054536
12330.0 0.0054332
12350.0 0.0054189
12370.0 0.0054099
12390.0 0.0054053
12410.0 0.005405
12430.0 0.0054075
12450.0 0.005412
12470.0 0.0054186
12490.0 0.0054262
12510.0 0.0054333
12530.0 0.0054405
12550.0 0.0054471
12570.0 0.0054517
12590.0 0.005454
12610.0 0.0054539
12630.0 0.0054503
12650.0 0.0054425
12670.0 0.0054306
12690.0 0.0054137
12710.0 0.005392
12730.0 0.0053656
12750.0 0.0053328
12770.0 0.0052954
12790.0 0.0052543
12810.0 0.0052084
12830.0 0.0051577
12850.0 0.005106
12870.0 0.0050525
12890.0 0.0049959
12910.0 0.0049392
12930.0 0.004884
12950.0 0.0048274
12970.0 0.0047707
12990.0 0.0047175
13010.0 0.0046657
13030.0 0.004614
13050.0 0.0045648
13070.0 0.0045187
13090.0 0.0044727
13110.0 0.0044281
13130.0 0.0043865
13150.0 0.0043466
13170.0 0.0043067
13190.0 0.0042699
13210.0 0.0042356
13230.0 0.0042022
13250.0 0.0041704
13270.0 0.0041413
13290.0 0.0041133
13310.0 0.0040859
13330.0 0.0040601
13350.0 0.0040356
13370.0 0.0040109
13390.0 0.003986
13410.0 0.003962
13430.0 0.0039372
13450.0 0.003911
13470.0 0.0038841
13490.0 0.0038567
13510.0 0.0038265
13530.0 0.003795
13550.0 0.003763
13570.0 0.0037293
13590.0 0.0036934
13610.0 0.0036573
13630.0 0.0036211
13650.0 0.0035829
13670.0 0.0035443
13690.0 0.0035066
13710.0 0.0034682
13730.0 0.0034282
13750.0 0.0033904
13770.0 0.003353
13790.0 0.0033149
13810.0 0.0032773
13830.0 0.0032416
13850.0 0.0032053
13870.0 0.003169
13890.0 0.0031346
13910.0 0.0031013
13930.0 0.0030677
13950.0 0.0030354
13970.0 0.0030058
13990.0 0.0029766
14010.0 0.0029481
14030.0 0.0029218
14050.0 0.0028968
14070.0 0.0028716
14090.0 0.0028482
14110.0 0.0028263
14130.0 0.0028048
14150.0 0.0027836
14170.0 0.0027641
14190.0 0.0027451
14210.0 0.0027262
14230.0 0.0027081
14250.0 0.0026911
14270.0 0.0026739
14290.0 0.002657
14310.0 0.0026414
14330.0 0.0026263
14350.0 0.0026111
14370.0 0.0025968
14390.0 0.0025833
14410.0 0.0025698
14430.0 0.0025566
14450.0 0.0025444
14470.0 0.0025324
14490.0 0.0025203
14510.0 0.0025089
14530.0 0.0024981
14550.0 0.002487
14570.0 0.0024758
14590.0 0.002465
14610.0 0.0024538
14630.0 0.0024417
14650.0 0.0024298
14670.0 0.0024179
14690.0 0.0024055
14710.0 0.0023932
14730.0 0.0023825
14750.0 0.0023727
14770.0 0.0023646
14790.0 0.0023592
14810.0 0.002357
14830.0 0.0023585
14850.0 0.0023646
14870.0 0.0023751
14890.0 0.0023901
14910.0 0.0024097
14930.0 0.0024318
14950.0 0.0024551
14970.0 0.0024794
14990.0 0.0025019
15010.0 0.0025212
15030.0 0.0025373
15050.0 0.00255
15070.0 0.002559
15090.0 0.0025656
15110.0 0.0025705
15130.0 0.0025744
15150.0 0.0025777
15170.0 0.0025807
15190.0 0.0025836
15210.0 0.0025866
15230.0 0.0025897
15250.0 0.0025928
15270.0 0.0025959
15290.0 0.0025993
15310.0 0.0026026
15330.0 0.0026061
15350.0 0.0026096
15370.0 0.0026133
15390.0 0.0026169
15410.0 0.0026207
15430.0 0.0026246
15450.0 0.0026285
15470.0 0.0026325
15490.0 0.0026366
15510.0 0.0026408
15530.0 0.002645
15550.0 0.0026494
15570.0 0.0026538
15590.0 0.0026582
15610.0 0.0026627
15630.0 0.0026673
15650.0 0.002672
15670.0 0.0026767
15690.0 0.0026814
15710.0 0.0026863
15730.0 0.0026912
15750.0 0.0026961
15770.0 0.0027012
15790.0 0.0027063
15810.0 0.0027113
15830.0 0.0027165
15850.0 0.0027218
15870.0 0.0027271
15890.0 0.0027324
15910.0 0.0027378
15930.0 0.0027432
15950.0 0.0027487
15970.0 0.0027542
15990.0 0.0027598
16010.0 0.0027653
16030.0 0.0027709
16050.0 0.0027767
16070.0 0.0027824
16090.0 0.0027881
16110.0 0.0027939
16130.0 0.0027997
16150.0 0.0028055
16170.0 0.0028113
16190.0 0.0028172
16210.0 0.0028231
16230.0 0.002829
16250.0 0.002835
16270.0 0.002841
16290.0 0.0028469
16310.0 0.0028529
16330.0 0.0028589
16350.0 0.002865
16370.0 0.0028709
16390.0 0.002877
16410.0 0.002883
16430.0 0.002889
16450.0 0.0028951
16470.0 0.0029011
16490.0 0.0029072
16510.0 0.0029131
16530.0 0.0029192
16550.0 0.0029252
16570.0 0.0029312
16590.0 0.0029371
16610.0 0.0029432
16630.0 0.0029491
16650.0 0.002955
16670.0 0.0029609
16690.0 0.0029669
16710.0 0.0029727
16730.0 0.0029785
16750.0 0.0029843
16770.0 0.0029901
16790.0 0.0029958
16810.0 0.0030015
16830.0 0.0030072
16850.0 0.0030128
16870.0 0.0030184
16890.0 0.003024
16910.0 0.0030295
16930.0 0.0030349
16950.0 0.0030403
16970.0 0.0030457
16990.0 0.0030509
17010.0 0.0030561
17030.0 0.0030614
17050.0 0.0030665
17070.0 0.0030715
17090.0 0.0030765
17110.0 0.0030814
17130.0 0.0030862
17150.0 0.003091
17170.0 0.0030957
17190.0 0.0031003
17210.0 0.0031048
17230.0 0.0031093
17250.0 0.0031137
17270.0 0.003118
17290.0 0.0031222
17310.0 0.0031263
17330.0 0.0031303
17350.0 0.0031342
17370.0 0.0031381
17390.0 0.0031419
17410.0 0.0031455
17430.0 0.003149
17450.0 0.0031525
17470.0 0.0031558
17490.0 0.003159
17510.0 0.0031622
17530.0 0.0031652
17550.0 0.003168
17570.0 0.0031708
17590.0 0.0031735
17610.0 0.003176
17630.0 0.0031784
17650.0 0.0031808
17670.0 0.003183
17690.0 0.0031849
17710.0 0.0031869
17730.0 0.0031887
17750.0 0.0031904
17770.0 0.0031919
17790.0 0.0031934
17810.0 0.0031946
17830.0 0.0031957
17850.0 0.0031967
17870.0 0.0031976
17890.0 0.0031982
17910.0 0.0031988
17930.0 0.0031993
17950.0 0.0031995
17970.0 0.0031996
17990.0 0.0031997
18010.0 0.0031995
18030.0 0.0031991
18050.0 0.0031987
18070.0 0.0031981
18090.0 0.0031973
18110.0 0.0031963
18130.0 0.0031953
18150.0 0.0031941
18170.0 0.0031927
18190.0 0.0031911
18210.0 0.0031895
18230.0 0.0031875
18250.0 0.0031854
18270.0 0.0031833
18290.0 0.003181
18310.0 0.0031784
18330.0 0.0031757
18350.0 0.003173
18370.0 0.0031699
18390.0 0.0031667
18410.0 0.0031634
18430.0 0.0031599
18450.0 0.0031562
18470.0 0.0031524
18490.0 0.0031484
18510.0 0.0031442
18530.0 0.0031399
18550.0 0.0031355
18570.0 0.0031308
18590.0 0.0031259
18610.0 0.003121
18630.0 0.0031158
18650.0 0.0031105
18670.0 0.003105
18690.0 0.0030994
18710.0 0.0030936
18730.0 0.0030876
18750.0 0.0030815
18770.0 0.0030753
18790.0 0.0030687
18810.0 0.0030621
18830.0 0.0030554
18850.0 0.0030484
18870.0 0.0030413
18890.0 0.0030341
18910.0 0.0030267
18930.0 0.0030191
18950.0 0.0030114
18970.0 0.0030036
18990.0 0.0029955
19010.0 0.0029873
19030.0 0.002979
19050.0 0.0029706
19070.0 0.0029619
19090.0 0.0029531
19110.0 0.0029443
19130.0 0.0029352
19150.0 0.002926
19170.0 0.0029167
19190.0 0.0029072
19210.0 0.0028975
19230.0 0.0028878
19250.0 0.002878
19270.0 0.0028679
19290.0 0.0028577
19310.0 0.0028475
19330.0 0.0028371
19350.0 0.0028265
19370.0 0.0028159
19390.0 0.0028051
19410.0 0.0027942
19430.0 0.0027831
19450.0 0.0027721
19470.0 0.0027608
19490.0 0.0027494
19510.0 0.0027379
19530.0 0.0027264
19550.0 0.0027147
19570.0 0.0027028
19590.0 0.002691
19610.0 0.002679
19630.0 0.0026668
19650.0 0.0026546
19670.0 0.0026424
19690.0 0.00263
19710.0 0.0026175
19730.0 0.0026049
19750.0 0.0025923
19770.0 0.0025795
19790.0 0.0025667
19810.0 0.0025538
19830.0 0.0025408
19850.0 0.0025276
19870.0 0.0025142
19890.0 0.0025003
19910.0 0.0024856
19930.0 0.0024698
19950.0 0.0024524
19970.0 0.0024323
19990.0 0.0024091
20010.0 0.0023834
20030.0 0.0023538
20050.0 0.0023207
20070.0 0.0022856
20090.0 0.0022488
20110.0 0.0022091
20130.0 0.0021695
20150.0 0.0021306
20170.0 0.0020912
20190.0 0.0020516
20210.0 0.0020139
20230.0 0.0019769
20250.0 0.0019397
20270.0 0.0019041
20290.0 0.0018703
20310.0 0.0018369
20330.0 0.0018042
20350.0 0.0017742
20370.0 0.0017454
20390.0 0.0017174
20410.0 0.0016913
20430.0 0.0016671
20450.0 0.0016436
20470.0 0.0016217
20490.0 0.0016017
20510.0 0.001583
20530.0 0.0015653
20550.0 0.0015492
20570.0 0.0015344
20590.0 0.0015206
20610.0 0.0015078
20630.0 0.001496
20650.0 0.0014849
20670.0 0.0014745
20690.0 0.0014647
20710.0 0.0014553
20730.0 0.0014462
20750.0 0.0014373
20770.0 0.0014285
20790.0 0.0014195
20810.0 0.0014105
20830.0 0.0014011
20850.0 0.0013914
20870.0 0.0013812
20890.0 0.0013704
20910.0 0.0013592
20930.0 0.0013473
20950.0 0.0013347
20970.0 0.0013216
20990.0 0.001308
21010.0 0.0012935
21030.0 0.0012785
21050.0 0.0012631
21070.0 0.0012472
21090.0 0.0012306
21110.0 0.0012139
21130.0 0.0011971
21150.0 0.0011798
21170.0 0.0011623
21190.0 0.0011451
21210.0 0.0011276
21230.0 0.0011099
21250.0 0.0010927
21270.0 0.0010756
21290.0 0.0010585
21310.0 0.0010417
21330.0 0.0010255
21350.0 0.0010093
21370.0 0.00099344
21390.0 0.00097817
21410.0 0.00096333
21430.0 0.00094852
21450.0 0.00093439
21470.0 0.0009209
21490.0 0.00090769
21510.0 0.00089486
21530.0 0.00088271
21550.0 0.00087095
21570.0 0.00085946
21590.0 0.00084849
21610.0 0.00083799
21630.0 0.00082775
21650.0 0.00081778
21670.0 0.0008083
21690.0 0.00079904
21710.0 0.00078994
21730.0 0.0007811
21750.0 0.00077247
21770.0 0.00076387
21790.0 0.00075539
21810.0 0.00074703
21830.0 0.00073871
21850.0 0.00073034
21870.0 0.00072202
21890.0 0.00071374
21910.0 0.00070536
21930.0 0.00069692
21950.0 0.00068852
21970.0 0.00068002
21990.0 0.00067135
22010.0 0.00066273
22030.0 0.00065408
22050.0 0.00064529
22070.0 0.00063643
22090.0 0.00062765
22110.0 0.00061876
22130.0 0.00060973
22150.0 0.00060077
22170.0 0.00059182
22190.0 0.00058268
22210.0 0.00057353
22230.0 0.00056456
22250.0 0.00055548
22270.0 0.00054631
22290.0 0.00053727
22310.0 0.00052829
22330.0 0.00051912
22350.0 0.00051004
22370.0 0.00050111
22390.0 0.00049212
22410.0 0.00048303
22430.0 0.00047419
22450.0 0.00046542
22470.0 0.00045656
22490.0 0.00044781
22510.0 0.00043928
22530.0 0.00043065
22550.0 0.00042205
22570.0 0.00041373
22590.0 0.00040554
22610.0 0.00039735
22630.0 0.00038936
22650.0 0.0003817
22670.0 0.00037408
22690.0 0.00036662
22710.0 0.0003595
22730.0 0.0003526
22750.0 0.00034576
22770.0 0.00033929
22790.0 0.00033315
22810.0 0.00032717
22830.0 0.00032143
22850.0 0.00031604
22870.0 0.00031088
22890.0 0.0003059
22910.0 0.00030122
22930.0 0.00029681
22950.0 0.00029259
22970.0 0.0002886
22990.0 0.00028486
23010.0 0.0002813
23030.0 0.00027792
23050.0 0.0002747
23070.0 0.00027161
23090.0 0.00026862
23110.0 0.00026571
23130.0 0.00026285
23150.0 0.00025999
23170.0 0.00025712
23190.0 0.0002542
23210.0 0.00025122
23230.0 0.00024815
23250.0 0.00024496
23270.0 0.00024166
23290.0 0.00023822
23310.0 0.0002346
23330.0 0.00023087
23350.0 0.00022702
23370.0 0.00022298
23390.0 0.00021882
23410.0 0.00021462
23430.0 0.00021029
23450.0 0.00020582
23470.0 0.00020137
23490.0 0.00019692
23510.0 0.00019241
23530.0 0.00018797
23550.0 0.0001837
23570.0 0.0001795
23590.0 0.00017541
23610.0 0.00017156
23630.0 0.00016792
23650.0 0.00016447
23670.0 0.00016133
23690.0 0.00015851
23710.0 0.00015602
23730.0 0.00015392
23750.0 0.0001522
23770.0 0.00015086
23790.0 0.00014997
23810.0 0.00014948
23830.0 0.00014931
23850.0 0.0001496
23870.0 0.00015031
23890.0 0.00015119
23910.0 0.00015232
23930.0 0.00015378
23950.0 0.00015532
23970.0 0.00015678
23990.0 0.00015842
24010.0 0.00016003
24030.0 0.00016139
24050.0 0.0001626
24070.0 0.00016378
24090.0 0.00016455
24110.0 0.00016496
24130.0 0.00016518
