#lamb flux
1010.0 9.7334e-08
1030.0 1.0764e-07
1050.0 1.195e-07
1070.0 1.3284e-07
1090.0 1.48e-07
1110.0 1.6355e-07
1130.0 1.792e-07
1150.0 1.9559e-07
1170.0 2.125e-07
1190.0 2.2854e-07
1210.0 2.4479e-07
1230.0 2.6158e-07
1250.0 2.7803e-07
1270.0 2.9401e-07
1290.0 3.1089e-07
1310.0 3.2776e-07
1330.0 3.4394e-07
1350.0 3.603e-07
1370.0 3.772e-07
1390.0 3.9367e-07
1410.0 4.0965e-07
1430.0 4.2635e-07
1450.0 4.4306e-07
1470.0 4.5921e-07
1490.0 4.7553e-07
1510.0 4.9277e-07
1530.0 5.0911e-07
1550.0 5.2524e-07
1570.0 5.4192e-07
1590.0 5.5862e-07
1610.0 5.7458e-07
1630.0 5.9105e-07
1650.0 6.0795e-07
1670.0 6.2431e-07
1690.0 6.4047e-07
1710.0 6.5726e-07
1730.0 6.7416e-07
1750.0 6.9007e-07
1770.0 7.0646e-07
1790.0 7.232e-07
1810.0 7.3943e-07
1830.0 7.554e-07
1850.0 7.7236e-07
1870.0 7.8892e-07
1890.0 8.0495e-07
1910.0 8.2133e-07
1930.0 8.3814e-07
1950.0 8.5422e-07
1970.0 8.7015e-07
1990.0 8.8671e-07
2010.0 9.0303e-07
2030.0 9.1881e-07
2050.0 9.351e-07
2070.0 9.5184e-07
2090.0 9.6767e-07
2110.0 9.8348e-07
2130.0 9.998e-07
2150.0 1.0158e-06
2170.0 1.0312e-06
2190.0 1.0472e-06
2210.0 1.0633e-06
2230.0 1.0788e-06
2250.0 1.0942e-06
2270.0 1.1104e-06
2290.0 1.1261e-06
2310.0 1.1411e-06
2330.0 1.1568e-06
2350.0 1.1729e-06
2370.0 1.1889e-06
2390.0 1.2063e-06
2410.0 1.2268e-06
2430.0 1.2505e-06
2450.0 1.2788e-06
2470.0 1.315e-06
2490.0 1.3607e-06
2510.0 1.4127e-06
2530.0 1.4752e-06
2550.0 1.5535e-06
2570.0 1.6509e-06
2590.0 1.7776e-06
2610.0 1.9673e-06
2630.0 2.2381e-06
2650.0 2.5921e-06
2670.0 3.0498e-06
2690.0 3.6123e-06
2710.0 4.2126e-06
2730.0 4.8058e-06
2750.0 5.3899e-06
2770.0 5.898e-06
2790.0 6.3014e-06
2810.0 6.6214e-06
2830.0 6.8714e-06
2850.0 7.0419e-06
2870.0 7.167e-06
2890.0 7.266e-06
2910.0 7.345e-06
2930.0 7.4094e-06
2950.0 7.471e-06
2970.0 7.5311e-06
2990.0 7.5875e-06
3010.0 0.00021461
3030.0 0.00021621
3050.0 0.00021775
3070.0 0.00021907
3090.0 0.00022021
3110.0 0.00022091
3130.0 0.00022087
3150.0 0.00021989
3170.0 0.00021753
3190.0 0.00021382
3210.0 0.00020913
3230.0 0.00020375
3250.0 0.00019845
3270.0 0.00019457
3290.0 0.00019242
3310.0 0.00019276
3330.0 0.00019554
3350.0 0.0002004
3370.0 0.00020733
3390.0 0.00021606
3410.0 0.00022557
3430.0 0.00023625
3450.0 0.00024854
3470.0 0.00026196
3490.0 0.00027619
3510.0 0.00029227
3530.0 0.00030949
3550.0 0.00032692
3570.0 0.00034512
3590.0 0.0003649
3610.0 0.0003853
3630.0 0.00040563
3650.0 0.00042672
3670.0 0.00044598
3690.0 0.00046037
3710.0 0.00046862
3730.0 0.00046887
3750.0 0.00046231
3770.0 0.00045981
3790.0 0.00045707
3810.0 0.00044552
3830.0 0.00045926
3850.0 0.00051404
3870.0 0.00054379
3890.0 0.0005408
3910.0 0.0005429
3930.0 0.00055744
3950.0 0.00056659
3970.0 0.00051657
3990.0 0.00044396
4010.0 0.0013291
4030.0 0.0016098
4050.0 0.0018455
4070.0 0.0016023
4090.0 0.0014513
4110.0 0.0012803
4130.0 0.0011795
4150.0 0.0012559
4170.0 0.0012359
4190.0 0.0013166
4210.0 0.0013051
4230.0 0.0013813
4250.0 0.0016343
4270.0 0.0016541
4290.0 0.0015238
4310.0 0.0015826
4330.0 0.0016828
4350.0 0.0018878
4370.0 0.002149
4390.0 0.0020152
4410.0 0.0014873
4430.0 0.0012584
4450.0 0.0011565
4470.0 0.00088694
4490.0 0.00095835
4510.0 0.0014502
4530.0 0.001673
4550.0 0.0016867
4570.0 0.0018961
4590.0 0.0021592
4610.0 0.0029173
4630.0 0.0037908
4650.0 0.0041083
4670.0 0.0038036
4690.0 0.0036301
4710.0 0.003837
4730.0 0.003619
4750.0 0.0027043
4770.0 0.001983
4790.0 0.0018529
4810.0 0.001767
4830.0 0.0016182
4850.0 0.0017756
4870.0 0.0023457
4890.0 0.002766
4910.0 0.0024256
4930.0 0.0021473
4950.0 0.0023597
4970.0 0.0030265
4990.0 0.0041017
5010.0 0.0047187
5030.0 0.004159
5050.0 0.0028128
5070.0 0.0018543
5090.0 0.0014947
5110.0 0.0015365
5130.0 0.0017738
5150.0 0.0019209
5170.0 0.0018918
5190.0 0.0017673
5210.0 0.0018478
5230.0 0.0019438
5250.0 0.0020956
5270.0 0.0022594
5290.0 0.0025034
5310.0 0.0029157
5330.0 0.0032263
5350.0 0.0032056
5370.0 0.003368
5390.0 0.0038665
5410.0 0.0038602
5430.0 0.0034119
5450.0 0.0031359
5470.0 0.0033309
5490.0 0.0040697
5510.0 0.0050876
5530.0 0.0058355
5550.0 0.0056384
5570.0 0.0051254
5590.0 0.0044554
5610.0 0.0041105
5630.0 0.0039887
5650.0 0.0037979
5670.0 0.0035982
5690.0 0.0032152
5710.0 0.0031356
5730.0 0.002889
5750.0 0.0020347
5770.0 0.0015868
5790.0 0.0017987
5810.0 0.0020303
5830.0 0.002494
5850.0 0.0029701
5870.0 0.003295
5890.0 0.0033499
5910.0 0.0032864
5930.0 0.0031282
5950.0 0.0031877
5970.0 0.0036351
5990.0 0.0034157
6010.0 0.0028624
6030.0 0.002418
6050.0 0.002106
6070.0 0.0020961
6090.0 0.0022732
6110.0 0.0025407
6130.0 0.0025787
6150.0 0.0022179
6170.0 0.0019499
6190.0 0.0021948
6210.0 0.0029037
6230.0 0.0038128
6250.0 0.00413
6270.0 0.0036068
6290.0 0.0030349
6310.0 0.002369
6330.0 0.0018147
6350.0 0.0016193
6370.0 0.0017029
6390.0 0.0019689
6410.0 0.0024284
6430.0 0.0028361
6450.0 0.0032464
6470.0 0.0037155
6490.0 0.0044878
6510.0 0.0050179
6530.0 0.0049241
6550.0 0.0044531
6570.0 0.0037788
6590.0 0.0034082
6610.0 0.0029382
6630.0 0.0026638
6650.0 0.0025186
6670.0 0.0024451
6690.0 0.0022075
6710.0 0.0020073
6730.0 0.0014427
6750.0 0.001432
6770.0 0.0015595
6790.0 0.0017941
6810.0 0.0016391
6830.0 0.0016877
6850.0 0.0015776
6870.0 0.0014412
6890.0 0.001383
6910.0 0.0014747
6930.0 0.0013813
6950.0 0.0014223
6970.0 0.001496
6990.0 0.0016978
7010.0 0.0017118
7030.0 0.0017403
7050.0 0.0016588
7070.0 0.0015794
7090.0 0.0015846
7110.0 0.0016308
7130.0 0.0017557
7150.0 0.0018654
7170.0 0.0020586
7190.0 0.0022627
7210.0 0.0022222
7230.0 0.0022843
7250.0 0.0024547
7270.0 0.0026747
7290.0 0.0031754
7310.0 0.0034454
7330.0 0.0033299
7350.0 0.0030115
7370.0 0.0026183
7390.0 0.0025407
7410.0 0.0027018
7430.0 0.0030032
7450.0 0.0032708
7470.0 0.0032393
7490.0 0.0029512
7510.0 0.0033491
7530.0 0.0033112
7550.0 0.0029772
7570.0 0.002324
7590.0 0.0015947
7610.0 0.0013679
7630.0 0.0015558
7650.0 0.0018405
7670.0 0.0022934
7690.0 0.0025239
7710.0 0.0026283
7730.0 0.0027614
7750.0 0.0031025
7770.0 0.0031515
7790.0 0.0028948
7810.0 0.0026396
7830.0 0.0027228
7850.0 0.0026486
7870.0 0.0024293
7890.0 0.0020402
7910.0 0.0016568
7930.0 0.0015827
7950.0 0.0014419
7970.0 0.0013341
7990.0 0.0013259
8010.0 0.00011119
8030.0 0.00010812
8050.0 0.00010822
8070.0 0.00011244
8090.0 0.00012485
8110.0 0.00012184
8130.0 9.3748e-05
8150.0 9.2872e-05
8170.0 7.449e-05
8190.0 6.695e-05
8210.0 9.6262e-05
8230.0 0.00010887
8250.0 8.8387e-05
8270.0 7.5903e-05
8290.0 8.0518e-05
8310.0 6.3648e-05
8330.0 4.2407e-05
8350.0 3.0559e-05
8370.0 1.6736e-05
8390.0 3.4895e-05
8410.0 4.0434e-05
8430.0 4.9817e-05
8450.0 5.8249e-05
8470.0 7.6432e-05
8490.0 7.3491e-05
8510.0 6.9732e-05
8530.0 6.7873e-05
8550.0 0.00010224
8570.0 0.0001267
8590.0 0.00012697
8610.0 0.00016487
8630.0 0.0001959
8650.0 0.00019075
8670.0 0.00020931
8690.0 0.00022276
8710.0 0.00019966
8730.0 0.00018984
8750.0 0.00016418
8770.0 0.00015414
8790.0 0.00015413
8810.0 0.00015092
8830.0 0.00011386
8850.0 7.8236e-05
8870.0 5.9207e-05
8890.0 6.4971e-05
8910.0 7.9606e-05
8930.0 9.4246e-05
8950.0 9.761e-05
8970.0 9.6818e-05
8990.0 8.2039e-05
9010.0 0.00070528
9030.0 0.00063451
9050.0 0.00063814
9070.0 0.00064377
9090.0 0.00064868
9110.0 0.00065475
9130.0 0.00065939
9150.0 0.00066296
9170.0 0.00066677
9190.0 0.00067083
9210.0 0.00067511
9230.0 0.00067962
9250.0 0.0006842
9270.0 0.00068894
9290.0 0.00069383
9310.0 0.00069875
9330.0 0.00070375
9350.0 0.00070894
9370.0 0.00071419
9390.0 0.00071948
9410.0 0.00072492
9430.0 0.00073052
9450.0 0.0007361
9470.0 0.00074178
9490.0 0.00074764
9510.0 0.00075355
9530.0 0.00075949
9550.0 0.00076564
9570.0 0.0007719
9590.0 0.00077816
9610.0 0.00078453
9630.0 0.00079108
9650.0 0.00079767
9670.0 0.00080427
9690.0 0.00081106
9710.0 0.00081794
9730.0 0.00082484
9750.0 0.00083183
9770.0 0.00083905
9790.0 0.00084623
9810.0 0.00085346
9830.0 0.00086085
9850.0 0.00086832
9870.0 0.00087577
9890.0 0.00088333
9910.0 0.00089104
9930.0 0.00089875
9950.0 0.00090649
9970.0 0.00091439
9990.0 0.00092237
10010.0 0.00080075
10030.0 0.00080764
10050.0 0.00081468
10070.0 0.00082192
10090.0 0.00082878
10110.0 0.00083582
10130.0 0.00084289
10150.0 0.00084992
10170.0 0.00085704
10190.0 0.00086428
10210.0 0.00087144
10230.0 0.00087857
10250.0 0.00088583
10270.0 0.00089307
10290.0 0.00090022
10310.0 0.00090747
10330.0 0.00091479
10350.0 0.00092198
10370.0 0.00092915
10390.0 0.00093641
10410.0 0.00094363
10430.0 0.0009507
10450.0 0.00095785
10470.0 0.00096502
10490.0 0.00097206
10510.0 0.00097906
10530.0 0.00098618
10550.0 0.00099317
10570.0 0.001
10590.0 0.0010069
10610.0 0.0010138
10630.0 0.0010205
10650.0 0.0010271
10670.0 0.0010339
10690.0 0.0010405
10710.0 0.0010469
10730.0 0.0010534
10750.0 0.0010598
10770.0 0.0010661
10790.0 0.0010722
10810.0 0.0010784
10830.0 0.0010843
10850.0 0.00109
10870.0 0.0010955
10890.0 0.0011003
10910.0 0.0011041
10930.0 0.0011063
10950.0 0.0011059
10970.0 0.0011023
10990.0 0.001095
11010.0 0.0010679
11030.0 0.0010509
11050.0 0.0010302
11070.0 0.0010055
11090.0 0.00097573
11110.0 0.00094495
11130.0 0.00091285
11150.0 0.00087829
11170.0 0.00084266
11190.0 0.0008081
11210.0 0.00077242
11230.0 0.00073583
11250.0 0.00070086
11270.0 0.00066729
11290.0 0.00063365
11310.0 0.00060179
11330.0 0.00057372
11350.0 0.00054721
11370.0 0.00052272
11390.0 0.00050152
11410.0 0.00048298
11430.0 0.00046575
11450.0 0.0004509
11470.0 0.00043805
11490.0 0.0004261
11510.0 0.00041459
11530.0 0.0004039
11550.0 0.00039328
11570.0 0.00038196
11590.0 0.00037023
11610.0 0.00035829
11630.0 0.0003453
11650.0 0.0003314
11670.0 0.0003177
11690.0 0.0003038
11710.0 0.00028946
11730.0 0.00027557
11750.0 0.00026272
11770.0 0.00025011
11790.0 0.00023829
11810.0 0.00022789
11830.0 0.00021859
11850.0 0.00021002
11870.0 0.00020285
11890.0 0.00019689
11910.0 0.00019165
11930.0 0.00018714
11950.0 0.00018339
11970.0 0.00018004
11990.0 0.00017687
12010.0 0.00017394
12030.0 0.00017111
12050.0 0.00016819
12070.0 0.00016516
12090.0 0.00016223
12110.0 0.00015926
12130.0 0.00015628
12150.0 0.00015353
12170.0 0.00015114
12190.0 0.00014906
12210.0 0.00014761
12230.0 0.00014691
12250.0 0.00014702
12270.0 0.00014812
12290.0 0.00015021
12310.0 0.00015321
12330.0 0.00015741
12350.0 0.00016265
12370.0 0.00016862
12390.0 0.0001755
12410.0 0.00018357
12430.0 0.00019177
12450.0 0.00020026
12470.0 0.00020929
12490.0 0.00021835
12510.0 0.00022686
12530.0 0.00023532
12550.0 0.00024349
12570.0 0.00025069
12590.0 0.00025702
12610.0 0.00026266
12630.0 0.00026715
12650.0 0.00027025
12670.0 0.00027229
12690.0 0.0002731
12710.0 0.00027265
12730.0 0.00027106
12750.0 0.00026824
12770.0 0.00026437
12790.0 0.00025967
12810.0 0.00025406
12830.0 0.00024758
12850.0 0.0002408
12870.0 0.00023362
12890.0 0.00022586
12910.0 0.00021798
12930.0 0.0002102
12950.0 0.00020209
12970.0 0.00019384
12990.0 0.00018603
13010.0 0.00017831
13030.0 0.00017051
13050.0 0.00016302
13070.0 0.00015601
13090.0 0.00014897
13110.0 0.00014215
13130.0 0.00013587
13150.0 0.00012992
13170.0 0.0001241
13190.0 0.00011892
13210.0 0.00011436
13230.0 0.00011019
13250.0 0.00010659
13270.0 0.00010376
13290.0 0.00010155
13310.0 0.00010004
13330.0 9.9342e-05
13350.0 9.9419e-05
13370.0 0.00010031
13390.0 0.00010206
13410.0 0.00010442
13430.0 0.0001075
13450.0 0.0001113
13470.0 0.00011552
13490.0 0.00011999
13510.0 0.00012503
13530.0 0.00013014
13550.0 0.00013503
13570.0 0.00013986
13590.0 0.00014456
13610.0 0.00014874
13630.0 0.00015239
13650.0 0.00015573
13670.0 0.0001585
13690.0 0.00016064
13710.0 0.0001623
13730.0 0.00016348
13750.0 0.00016407
13770.0 0.00016421
13790.0 0.00016391
13810.0 0.00016319
13830.0 0.00016212
13850.0 0.00016067
13870.0 0.00015884
13890.0 0.00015676
13910.0 0.0001544
13930.0 0.00015168
13950.0 0.0001487
13970.0 0.00014566
13990.0 0.00014234
14010.0 0.00013882
14030.0 0.0001353
14050.0 0.00013176
14070.0 0.00012802
14090.0 0.00012444
14110.0 0.00012107
14130.0 0.00011781
14150.0 0.00011473
14170.0 0.00011211
14190.0 0.00010984
14210.0 0.00010792
14230.0 0.0001065
14250.0 0.00010557
14270.0 0.00010513
14290.0 0.00010522
14310.0 0.00010581
14330.0 0.00010686
14350.0 0.00010841
14370.0 0.00011034
14390.0 0.00011253
14410.0 0.00011512
14430.0 0.00011795
14450.0 0.00012085
14470.0 0.00012386
14490.0 0.00012705
14510.0 0.00013011
14530.0 0.00013302
14550.0 0.00013592
14570.0 0.00013871
14590.0 0.00014124
14610.0 0.0001437
14630.0 0.00014612
14650.0 0.00014839
14670.0 0.00015057
14690.0 0.00015285
14710.0 0.00015524
14730.0 0.00015763
14750.0 0.00016029
14770.0 0.00016329
14790.0 0.00016655
14810.0 0.00017009
14830.0 0.00017427
14850.0 0.00017883
14870.0 0.00018357
14890.0 0.0001887
14910.0 0.00019414
14930.0 0.00019937
14950.0 0.00020426
14970.0 0.00020889
14990.0 0.00021277
15010.0 0.00021574
15030.0 0.00021794
15050.0 0.00021939
15070.0 0.0002201
15090.0 0.00022035
15110.0 0.00022028
15130.0 0.00022001
15150.0 0.00021964
15170.0 0.0002192
15190.0 0.00021873
15210.0 0.00021826
15230.0 0.0002178
15250.0 0.00021732
15270.0 0.00021685
15290.0 0.0002164
15310.0 0.00021594
15330.0 0.00021547
15350.0 0.00021502
15370.0 0.00021458
15390.0 0.00021411
15410.0 0.00021366
15430.0 0.00021322
15450.0 0.00021278
15470.0 0.00021232
15490.0 0.00021189
15510.0 0.00021146
15530.0 0.00021101
15550.0 0.00021058
15570.0 0.00021016
15590.0 0.00020972
15610.0 0.00020928
15630.0 0.00020886
15650.0 0.00020844
15670.0 0.000208
15690.0 0.00020758
15710.0 0.00020717
15730.0 0.00020674
15750.0 0.00020631
15770.0 0.0002059
15790.0 0.00020549
15810.0 0.00020505
15830.0 0.00020464
15850.0 0.00020423
15870.0 0.00020381
15890.0 0.0002034
15910.0 0.00020299
15930.0 0.00020258
15950.0 0.00020216
15970.0 0.00020175
15990.0 0.00020135
16010.0 0.00020093
16030.0 0.00020051
16050.0 0.00020011
16070.0 0.00019971
16090.0 0.00019929
16110.0 0.00019889
16130.0 0.00019849
16150.0 0.00019807
16170.0 0.00019765
16190.0 0.00019725
16210.0 0.00019685
16230.0 0.00019643
16250.0 0.00019602
16270.0 0.00019563
16290.0 0.00019521
16310.0 0.0001948
16330.0 0.0001944
16350.0 0.00019399
16370.0 0.00019356
16390.0 0.00019316
16410.0 0.00019276
16430.0 0.00019234
16450.0 0.00019192
16470.0 0.00019153
16490.0 0.00019111
16510.0 0.00019069
16530.0 0.00019028
16550.0 0.00018987
16570.0 0.00018945
16590.0 0.00018902
16610.0 0.00018862
16630.0 0.0001882
16650.0 0.00018778
16670.0 0.00018737
16690.0 0.00018696
16710.0 0.00018652
16730.0 0.0001861
16750.0 0.00018569
16770.0 0.00018526
16790.0 0.00018483
16810.0 0.00018441
16830.0 0.00018399
16850.0 0.00018356
16870.0 0.00018313
16890.0 0.00018272
16910.0 0.00018228
16930.0 0.00018183
16950.0 0.00018141
16970.0 0.00018098
16990.0 0.00018054
17010.0 0.00018011
17030.0 0.00017969
17050.0 0.00017924
17070.0 0.00017879
17090.0 0.00017836
17110.0 0.00017793
17130.0 0.00017747
17150.0 0.00017703
17170.0 0.0001766
17190.0 0.00017615
17210.0 0.00017569
17230.0 0.00017526
17250.0 0.00017481
17270.0 0.00017435
17290.0 0.0001739
17310.0 0.00017346
17330.0 0.000173
17350.0 0.00017253
17370.0 0.00017209
17390.0 0.00017164
17410.0 0.00017117
17430.0 0.00017072
17450.0 0.00017027
17470.0 0.00016979
17490.0 0.00016932
17510.0 0.00016887
17530.0 0.0001684
17550.0 0.00016793
17570.0 0.00016747
17590.0 0.00016701
17610.0 0.00016653
17630.0 0.00016606
17650.0 0.0001656
17670.0 0.00016512
17690.0 0.00016463
17710.0 0.00016416
17730.0 0.0001637
17750.0 0.00016321
17770.0 0.00016273
17790.0 0.00016227
17810.0 0.00016178
17830.0 0.00016129
17850.0 0.00016082
17870.0 0.00016034
17890.0 0.00015984
17910.0 0.00015935
17930.0 0.00015888
17950.0 0.00015839
17970.0 0.0001579
17990.0 0.00015742
18010.0 0.00015694
18030.0 0.00015643
18050.0 0.00015594
18070.0 0.00015546
18090.0 0.00015496
18110.0 0.00015446
18130.0 0.00015397
18150.0 0.00015348
18170.0 0.00015298
18190.0 0.00015248
18210.0 0.000152
18230.0 0.00015149
18250.0 0.00015098
18270.0 0.00015049
18290.0 0.00014999
18310.0 0.00014948
18330.0 0.00014898
18350.0 0.0001485
18370.0 0.00014798
18390.0 0.00014747
18410.0 0.00014698
18430.0 0.00014648
18450.0 0.00014596
18470.0 0.00014545
18490.0 0.00014496
18510.0 0.00014445
18530.0 0.00014394
18550.0 0.00014344
18570.0 0.00014293
18590.0 0.00014241
18610.0 0.00014191
18630.0 0.00014141
18650.0 0.00014089
18670.0 0.00014037
18690.0 0.00013987
18710.0 0.00013937
18730.0 0.00013885
18750.0 0.00013834
18770.0 0.00013784
18790.0 0.00013731
18810.0 0.00013679
18830.0 0.00013629
18850.0 0.00013578
18870.0 0.00013526
18890.0 0.00013475
18910.0 0.00013425
18930.0 0.00013373
18950.0 0.00013321
18970.0 0.00013271
18990.0 0.00013219
19010.0 0.00013166
19030.0 0.00013116
19050.0 0.00013065
19070.0 0.00013013
19090.0 0.00012961
19110.0 0.00012912
19130.0 0.00012859
19150.0 0.00012807
19170.0 0.00012756
19190.0 0.00012705
19210.0 0.00012653
19230.0 0.00012601
19250.0 0.00012551
19270.0 0.00012499
19290.0 0.00012447
19310.0 0.00012397
19330.0 0.00012346
19350.0 0.00012293
19370.0 0.00012242
19390.0 0.00012191
19410.0 0.00012139
19430.0 0.00012087
19450.0 0.00012037
19470.0 0.00011986
19490.0 0.00011934
19510.0 0.00011883
19530.0 0.00011833
19550.0 0.00011781
19570.0 0.00011728
19590.0 0.00011678
19610.0 0.00011627
19630.0 0.00011575
19650.0 0.00011525
19670.0 0.00011475
19690.0 0.00011423
19710.0 0.00011371
19730.0 0.00011321
19750.0 0.0001127
19770.0 0.00011217
19790.0 0.00011167
19810.0 0.00011117
19830.0 0.00011065
19850.0 0.00011013
19870.0 0.00010962
19890.0 0.00010907
19910.0 0.00010847
19930.0 0.00010783
19950.0 0.00010709
19970.0 0.00010618
19990.0 0.00010509
20010.0 9.3508e-05
20030.0 9.2154e-05
20050.0 9.057e-05
20070.0 8.8853e-05
20090.0 8.7007e-05
20110.0 8.4918e-05
20130.0 8.2804e-05
20150.0 8.0708e-05
20170.0 7.8536e-05
20190.0 7.6333e-05
20210.0 7.4252e-05
20230.0 7.2222e-05
20250.0 7.0188e-05
20270.0 6.83e-05
20290.0 6.6576e-05
20310.0 6.4938e-05
20330.0 6.3408e-05
20350.0 6.2137e-05
20370.0 6.1009e-05
20390.0 6.002e-05
20410.0 5.9221e-05
20430.0 5.8605e-05
20450.0 5.8117e-05
20470.0 5.779e-05
20490.0 5.7614e-05
20510.0 5.7563e-05
20530.0 5.7634e-05
20550.0 5.7811e-05
20570.0 5.807e-05
20590.0 5.842e-05
20610.0 5.8844e-05
20630.0 5.9312e-05
20650.0 5.9835e-05
20670.0 6.0432e-05
20690.0 6.1042e-05
20710.0 6.1672e-05
20730.0 6.2351e-05
20750.0 6.3061e-05
20770.0 6.3758e-05
20790.0 6.4491e-05
20810.0 6.5266e-05
20830.0 6.6038e-05
20850.0 6.6812e-05
20870.0 6.7642e-05
20890.0 6.8487e-05
20910.0 6.9303e-05
20930.0 7.0149e-05
20950.0 7.1026e-05
20970.0 7.1881e-05
20990.0 7.2725e-05
21010.0 7.3612e-05
21030.0 7.4479e-05
21050.0 7.5306e-05
21070.0 7.6132e-05
21090.0 7.6961e-05
21110.0 7.7717e-05
21130.0 7.8427e-05
21150.0 7.9114e-05
21170.0 7.9737e-05
21190.0 8.0273e-05
21210.0 8.0755e-05
21230.0 8.1155e-05
21250.0 8.1441e-05
21270.0 8.1622e-05
21290.0 8.169e-05
21310.0 8.1624e-05
21330.0 8.1432e-05
21350.0 8.1093e-05
21370.0 8.0596e-05
21390.0 7.9965e-05
21410.0 7.9193e-05
21430.0 7.8214e-05
21450.0 7.7115e-05
21470.0 7.5918e-05
21490.0 7.4565e-05
21510.0 7.3081e-05
21530.0 7.1572e-05
21550.0 6.9993e-05
21570.0 6.8308e-05
21590.0 6.665e-05
21610.0 6.5049e-05
21630.0 6.3446e-05
21650.0 6.188e-05
21670.0 6.0523e-05
21690.0 5.9271e-05
21710.0 5.8144e-05
21730.0 5.722e-05
21750.0 5.6508e-05
21770.0 5.5965e-05
21790.0 5.5653e-05
21810.0 5.5566e-05
21830.0 5.5689e-05
21850.0 5.6037e-05
21870.0 5.658e-05
21890.0 5.7281e-05
21910.0 5.818e-05
21930.0 5.9234e-05
21950.0 6.0377e-05
21970.0 6.1643e-05
21990.0 6.3063e-05
22010.0 6.4483e-05
22030.0 6.5925e-05
22050.0 6.7439e-05
22070.0 6.8962e-05
22090.0 7.0403e-05
22110.0 7.1857e-05
22130.0 7.3308e-05
22150.0 7.4663e-05
22170.0 7.5941e-05
22190.0 7.7207e-05
22210.0 7.8385e-05
22230.0 7.9422e-05
22250.0 8.0399e-05
22270.0 8.1297e-05
22290.0 8.2066e-05
22310.0 8.2726e-05
22330.0 8.3306e-05
22350.0 8.3755e-05
22370.0 8.4072e-05
22390.0 8.427e-05
22410.0 8.4332e-05
22430.0 8.4252e-05
22450.0 8.4034e-05
22470.0 8.3659e-05
22490.0 8.3132e-05
22510.0 8.2476e-05
22530.0 8.1636e-05
22550.0 8.0614e-05
22570.0 7.948e-05
22590.0 7.8202e-05
22610.0 7.6731e-05
22630.0 7.5139e-05
22650.0 7.3495e-05
22670.0 7.1675e-05
22690.0 6.9733e-05
22710.0 6.7774e-05
22730.0 6.5755e-05
22750.0 6.3566e-05
22770.0 6.1426e-05
22790.0 5.9338e-05
22810.0 5.7194e-05
22830.0 5.5054e-05
22850.0 5.3052e-05
