#lamb flux
1010.0 3.431e-07
1030.0 3.7998e-07
1050.0 4.224e-07
1070.0 4.7016e-07
1090.0 5.244e-07
1110.0 5.8003e-07
1130.0 6.3603e-07
1150.0 6.9468e-07
1170.0 7.5518e-07
1190.0 8.1255e-07
1210.0 8.707e-07
1230.0 9.3078e-07
1250.0 9.8965e-07
1270.0 1.0468e-06
1290.0 1.1072e-06
1310.0 1.1676e-06
1330.0 1.2255e-06
1350.0 1.284e-06
1370.0 1.3444e-06
1390.0 1.4033e-06
1410.0 1.4605e-06
1430.0 1.5202e-06
1450.0 1.58e-06
1470.0 1.6377e-06
1490.0 1.696e-06
1510.0 1.7576e-06
1530.0 1.816e-06
1550.0 1.8735e-06
1570.0 1.9331e-06
1590.0 1.9926e-06
1610.0 2.0495e-06
1630.0 2.108e-06
1650.0 2.1681e-06
1670.0 2.2262e-06
1690.0 2.2834e-06
1710.0 2.3428e-06
1730.0 2.4024e-06
1750.0 2.4583e-06
1770.0 2.5158e-06
1790.0 2.5742e-06
1810.0 2.6306e-06
1830.0 2.6858e-06
1850.0 2.7442e-06
1870.0 2.8008e-06
1890.0 2.8551e-06
1910.0 2.9102e-06
1930.0 2.9663e-06
1950.0 3.0192e-06
1970.0 3.0709e-06
1990.0 3.1241e-06
2010.0 3.1757e-06
2030.0 3.2245e-06
2050.0 3.2742e-06
2070.0 3.3244e-06
2090.0 3.3703e-06
2110.0 3.415e-06
2130.0 3.4602e-06
2150.0 3.503e-06
2170.0 3.542e-06
2190.0 3.5816e-06
2210.0 3.6199e-06
2230.0 3.6543e-06
2250.0 3.6868e-06
2270.0 3.7197e-06
2290.0 3.749e-06
2310.0 3.7742e-06
2330.0 3.7991e-06
2350.0 3.8229e-06
2370.0 3.8436e-06
2390.0 3.8652e-06
2410.0 3.8922e-06
2430.0 3.9233e-06
2450.0 3.9618e-06
2470.0 4.0158e-06
2490.0 4.0887e-06
2510.0 4.1734e-06
2530.0 4.2832e-06
2550.0 4.435e-06
2570.0 4.6412e-06
2590.0 4.9288e-06
2610.0 5.3829e-06
2630.0 6.0356e-06
2650.0 6.8707e-06
2670.0 7.9185e-06
2690.0 9.1573e-06
2710.0 1.0413e-05
2730.0 1.1582e-05
2750.0 1.2666e-05
2770.0 1.3529e-05
2790.0 1.4132e-05
2810.0 1.4538e-05
2830.0 1.4785e-05
2850.0 1.487e-05
2870.0 1.4866e-05
2890.0 1.4813e-05
2910.0 1.4726e-05
2930.0 1.4615e-05
2950.0 1.4503e-05
2970.0 1.4392e-05
2990.0 1.4279e-05
3010.0 0.00042881
3030.0 0.00042572
3050.0 0.00042268
3070.0 0.00041942
3090.0 0.00041601
3110.0 0.00041199
3130.0 0.00040691
3150.0 0.0004004
3170.0 0.00039176
3190.0 0.00038118
3210.0 0.00036932
3230.0 0.00035668
3250.0 0.00034416
3270.0 0.00033485
3290.0 0.0003281
3310.0 0.00032672
3330.0 0.00032921
3350.0 0.00033532
3370.0 0.00034508
3390.0 0.00035801
3410.0 0.00037247
3430.0 0.00038904
3450.0 0.00040836
3470.0 0.00042971
3490.0 0.00045264
3510.0 0.00047876
3530.0 0.00050729
3550.0 0.00053778
3570.0 0.00057144
3590.0 0.00060939
3610.0 0.00065167
3630.0 0.00069448
3650.0 0.00074
3670.0 0.00078148
3690.0 0.00081273
3710.0 0.00082889
3730.0 0.00082097
3750.0 0.00078862
3770.0 0.00078978
3790.0 0.00075493
3810.0 0.00058642
3830.0 0.00054086
3850.0 0.0007216
3870.0 0.00063154
3890.0 0.00051699
3910.0 0.00060461
3930.0 0.00079587
3950.0 0.00090831
3970.0 0.0010545
3990.0 0.0008451
4010.0 0.0013082
4030.0 0.0012017
4050.0 0.0011309
4070.0 0.0012867
4090.0 0.0012355
4110.0 0.0012281
4130.0 0.0015139
4150.0 0.0019261
4170.0 0.001579
4190.0 0.0014112
4210.0 0.0015573
4230.0 0.0019268
4250.0 0.0022441
4270.0 0.0024214
4290.0 0.002222
4310.0 0.0020694
4330.0 0.0021001
4350.0 0.0026691
4370.0 0.0032082
4390.0 0.002616
4410.0 0.0015958
4430.0 0.0011788
4450.0 0.0010634
4470.0 0.00080398
4490.0 0.0012163
4510.0 0.0021818
4530.0 0.0026162
4550.0 0.0025986
4570.0 0.0024678
4590.0 0.0027344
4610.0 0.0049417
4630.0 0.0067484
4650.0 0.0063974
4670.0 0.0057001
4690.0 0.0059963
4710.0 0.0063309
4730.0 0.0051169
4750.0 0.0033012
4770.0 0.0023878
4790.0 0.0026157
4810.0 0.0026712
4830.0 0.0026258
4850.0 0.0028914
4870.0 0.0038232
4890.0 0.0044455
4910.0 0.0034619
4930.0 0.0032779
4950.0 0.0037595
4970.0 0.0050726
4990.0 0.0068051
5010.0 0.0077202
5030.0 0.0061269
5050.0 0.0036924
5070.0 0.0026219
5090.0 0.0020854
5110.0 0.0019997
5130.0 0.0023222
5150.0 0.0022599
5170.0 0.0021534
5190.0 0.0019702
5210.0 0.0020921
5230.0 0.0025234
5250.0 0.0029092
5270.0 0.0027921
5290.0 0.0030796
5310.0 0.0039939
5330.0 0.0041831
5350.0 0.004126
5370.0 0.0046531
5390.0 0.005681
5410.0 0.004918
5430.0 0.0037737
5450.0 0.0037451
5470.0 0.0043798
5490.0 0.0055733
5510.0 0.0069077
5530.0 0.0079523
5550.0 0.0072236
5570.0 0.0064503
5590.0 0.005361
5610.0 0.0053796
5630.0 0.0058924
5650.0 0.0055785
5670.0 0.0051997
5690.0 0.0042932
5710.0 0.0043484
5730.0 0.0042072
5750.0 0.0023249
5770.0 0.0017596
5790.0 0.0021526
5810.0 0.0023873
5830.0 0.003477
5850.0 0.0043884
5870.0 0.0046253
5890.0 0.0043718
5910.0 0.0042161
5930.0 0.0041216
5950.0 0.0042839
5970.0 0.0051978
5990.0 0.004352
6010.0 0.003377
6030.0 0.0027462
6050.0 0.0024305
6070.0 0.0028383
6090.0 0.0032365
6110.0 0.0033367
6130.0 0.0030498
6150.0 0.0024666
6170.0 0.0021443
6190.0 0.002671
6210.0 0.0039715
6230.0 0.0055328
6250.0 0.0058132
6270.0 0.0045519
6290.0 0.003862
6310.0 0.0029689
6330.0 0.0022011
6350.0 0.0021243
6370.0 0.0022406
6390.0 0.0027089
6410.0 0.0034124
6430.0 0.0040895
6450.0 0.0050099
6470.0 0.0054458
6490.0 0.0066065
6510.0 0.007416
6530.0 0.007359
6550.0 0.0067718
6570.0 0.0057385
6590.0 0.0055616
6610.0 0.0046642
6630.0 0.0047197
6650.0 0.0044976
6670.0 0.0041083
6690.0 0.0034153
6710.0 0.0032516
6730.0 0.0018584
6750.0 0.002123
6770.0 0.0029078
6790.0 0.0037557
6810.0 0.0029047
6830.0 0.0029748
6850.0 0.0026021
6870.0 0.002474
6890.0 0.0021841
6910.0 0.002454
6930.0 0.0022962
6950.0 0.0026636
6970.0 0.0027101
6990.0 0.0030076
7010.0 0.0030213
7030.0 0.0032349
7050.0 0.0028404
7070.0 0.0024834
7090.0 0.0025463
7110.0 0.0025821
7130.0 0.0028838
7150.0 0.0032522
7170.0 0.003599
7190.0 0.0037422
7210.0 0.0033514
7230.0 0.0033925
7250.0 0.0037215
7270.0 0.00413
7290.0 0.0049108
7310.0 0.0050165
7330.0 0.0045558
7350.0 0.0040595
7370.0 0.0031408
7390.0 0.0032753
7410.0 0.0039499
7430.0 0.0044528
7450.0 0.0047922
7470.0 0.0045917
7490.0 0.0041557
7510.0 0.0061095
7530.0 0.0054892
7550.0 0.0049753
7570.0 0.0034299
7590.0 0.0016973
7610.0 0.0012861
7630.0 0.0017561
7650.0 0.0022663
7670.0 0.003375
7690.0 0.0038084
7710.0 0.0035412
7730.0 0.0034986
7750.0 0.0043606
7770.0 0.0044333
7790.0 0.0041141
7810.0 0.0035078
7830.0 0.0036886
7850.0 0.0038765
7870.0 0.0037462
7890.0 0.0030151
7910.0 0.0021114
7930.0 0.0020787
7950.0 0.0018678
7970.0 0.0016262
7990.0 0.0015123
8010.0 0.0014052
8030.0 0.0013459
8050.0 0.001412
8070.0 0.0014854
8090.0 0.0016746
8110.0 0.0015684
8130.0 0.0011142
8150.0 0.001087
8170.0 0.00079682
8190.0 0.00066159
8210.0 0.0010042
8230.0 0.0011448
8250.0 0.00073477
8270.0 0.00062867
8290.0 0.00072825
8310.0 0.00056492
8330.0 0.00035291
8350.0 0.00027491
8370.0 0.00015517
8390.0 0.00030956
8410.0 0.0003764
8430.0 0.00046762
8450.0 0.00052287
8470.0 0.0007337
8490.0 0.00063998
8510.0 0.00055496
8530.0 0.00041517
8550.0 0.00083517
8570.0 0.0012
8590.0 0.0010183
8610.0 0.0013904
8630.0 0.0015482
8650.0 0.001156
8670.0 0.0013978
8690.0 0.0017985
8710.0 0.0016043
8730.0 0.0016546
8750.0 0.001386
8770.0 0.0012752
8790.0 0.001357
8810.0 0.0013987
8830.0 0.00092436
8850.0 0.00057771
8870.0 0.00045242
8890.0 0.00067597
8910.0 0.00092251
8930.0 0.0011331
8950.0 0.0012856
8970.0 0.0012633
8990.0 0.0010517
9010.0 0.0007976
9030.0 0.00069081
9050.0 0.00071143
9070.0 0.00073061
9090.0 0.0007457
9110.0 0.00076286
9130.0 0.00077554
9150.0 0.00078502
9170.0 0.00079511
9190.0 0.00080591
9210.0 0.00081721
9230.0 0.00082919
9250.0 0.00084143
9270.0 0.00085409
9290.0 0.00086712
9310.0 0.00088029
9330.0 0.00089372
9350.0 0.00090758
9370.0 0.00092163
9390.0 0.00093585
9410.0 0.00095045
9430.0 0.00096543
9450.0 0.00098045
9470.0 0.00099578
9490.0 0.0010115
9510.0 0.0010274
9530.0 0.0010435
9550.0 0.00106
9570.0 0.0010768
9590.0 0.0010937
9610.0 0.001111
9630.0 0.0011286
9650.0 0.0011464
9670.0 0.0011643
9690.0 0.0011826
9710.0 0.0012011
9730.0 0.0012198
9750.0 0.0012387
9770.0 0.0012581
9790.0 0.0012776
9810.0 0.0012971
9830.0 0.0013171
9850.0 0.0013372
9870.0 0.0013574
9890.0 0.0013778
9910.0 0.0013986
9930.0 0.0014194
9950.0 0.0014403
9970.0 0.0014616
9990.0 0.001483
10010.0 0.0013713
10030.0 0.0013905
10050.0 0.0014099
10070.0 0.0014292
10090.0 0.0014487
10110.0 0.0014685
10130.0 0.0014882
10150.0 0.0015079
10170.0 0.0015277
10190.0 0.0015476
10210.0 0.0015673
10230.0 0.001587
10250.0 0.0016068
10270.0 0.0016265
10290.0 0.0016461
10310.0 0.0016657
10330.0 0.0016854
10350.0 0.0017048
10370.0 0.0017241
10390.0 0.0017433
10410.0 0.0017625
10430.0 0.0017813
10450.0 0.0018001
10470.0 0.0018188
10490.0 0.0018372
10510.0 0.0018554
10530.0 0.0018736
10550.0 0.0018914
10570.0 0.0019089
10590.0 0.0019262
10610.0 0.0019433
10630.0 0.00196
10650.0 0.0019764
10670.0 0.0019927
10690.0 0.0020086
10710.0 0.002024
10730.0 0.0020392
10750.0 0.0020542
10770.0 0.0020686
10790.0 0.0020827
10810.0 0.0020964
10830.0 0.0021096
10850.0 0.0021221
10870.0 0.002134
10890.0 0.0021444
10910.0 0.0021526
10930.0 0.0021577
10950.0 0.0021578
10970.0 0.0021516
10990.0 0.0021384
11010.0 0.0021701
11030.0 0.0021374
11050.0 0.0020969
11070.0 0.002048
11090.0 0.0019887
11110.0 0.0019271
11130.0 0.0018627
11150.0 0.0017933
11170.0 0.0017219
11190.0 0.001653
11210.0 0.0015822
11230.0 0.0015103
11250.0 0.0014421
11270.0 0.0013772
11290.0 0.0013128
11310.0 0.0012524
11330.0 0.0011995
11350.0 0.0011497
11370.0 0.0011037
11390.0 0.0010638
11410.0 0.0010285
11430.0 0.00099527
11450.0 0.00096594
11470.0 0.00093979
11490.0 0.0009147
11510.0 0.00088978
11530.0 0.00086597
11550.0 0.00084192
11570.0 0.00081613
11590.0 0.00078942
11610.0 0.00076236
11630.0 0.00073324
11650.0 0.00070247
11670.0 0.00067242
11690.0 0.00064225
11710.0 0.00061147
11730.0 0.00058184
11750.0 0.00055449
11770.0 0.00052779
11790.0 0.00050278
11810.0 0.00048063
11830.0 0.00046067
11850.0 0.00044212
11870.0 0.00042625
11890.0 0.00041269
11910.0 0.00040041
11930.0 0.00038944
11950.0 0.00037983
11970.0 0.00037087
11990.0 0.0003621
12010.0 0.00035369
12030.0 0.00034541
12050.0 0.00033682
12070.0 0.00032787
12090.0 0.00031917
12110.0 0.00031029
12130.0 0.0003013
12150.0 0.00029272
12170.0 0.00028482
12190.0 0.00027731
12210.0 0.00027091
12230.0 0.00026589
12250.0 0.00026224
12270.0 0.00026019
12290.0 0.00025988
12310.0 0.00026118
12330.0 0.00026434
12350.0 0.00026921
12370.0 0.00027533
12390.0 0.00028286
12410.0 0.00029212
12430.0 0.00030166
12450.0 0.00031162
12470.0 0.00032231
12490.0 0.00033299
12510.0 0.00034284
12530.0 0.00035254
12550.0 0.00036174
12570.0 0.00036956
12590.0 0.00037612
12610.0 0.00038172
12630.0 0.00038576
12650.0 0.00038798
12670.0 0.00038884
12690.0 0.00038817
12710.0 0.00038594
12730.0 0.00038236
12750.0 0.00037734
12770.0 0.00037111
12790.0 0.00036395
12810.0 0.00035579
12830.0 0.00034665
12850.0 0.00033722
12870.0 0.00032738
12890.0 0.0003169
12910.0 0.00030629
12930.0 0.00029582
12950.0 0.00028495
12970.0 0.00027388
12990.0 0.0002633
13010.0 0.0002528
13030.0 0.00024212
13050.0 0.00023175
13070.0 0.00022191
13090.0 0.00021197
13110.0 0.00020226
13130.0 0.00019317
13150.0 0.00018448
13170.0 0.0001759
13190.0 0.00016815
13210.0 0.00016122
13230.0 0.00015479
13250.0 0.00014913
13270.0 0.00014449
13290.0 0.00014067
13310.0 0.00013773
13330.0 0.00013586
13350.0 0.00013498
13370.0 0.00013509
13390.0 0.00013625
13410.0 0.0001382
13430.0 0.00014099
13450.0 0.00014464
13470.0 0.00014882
13490.0 0.00015332
13510.0 0.00015851
13530.0 0.00016384
13550.0 0.00016899
13570.0 0.00017412
13590.0 0.00017918
13610.0 0.00018371
13630.0 0.00018768
13650.0 0.00019135
13670.0 0.0001944
13690.0 0.00019673
13710.0 0.00019852
13730.0 0.00019978
13750.0 0.00020032
13770.0 0.00020031
13790.0 0.0001998
13810.0 0.00019878
13830.0 0.00019735
13850.0 0.00019549
13870.0 0.00019321
13890.0 0.00019066
13910.0 0.00018784
13930.0 0.00018466
13950.0 0.00018125
13970.0 0.00017781
13990.0 0.00017414
14010.0 0.0001703
14030.0 0.00016653
14050.0 0.00016277
14070.0 0.00015887
14090.0 0.00015517
14110.0 0.00015172
14130.0 0.0001484
14150.0 0.0001453
14170.0 0.00014266
14190.0 0.00014037
14210.0 0.00013844
14230.0 0.00013699
14250.0 0.00013603
14270.0 0.00013554
14290.0 0.00013557
14310.0 0.00013609
14330.0 0.00013707
14350.0 0.00013856
14370.0 0.00014044
14390.0 0.00014262
14410.0 0.00014522
14430.0 0.00014814
14450.0 0.00015118
14470.0 0.00015442
14490.0 0.00015795
14510.0 0.00016145
14530.0 0.00016491
14550.0 0.00016851
14570.0 0.00017215
14590.0 0.00017566
14610.0 0.00017924
14630.0 0.00018302
14650.0 0.00018675
14670.0 0.00019054
14690.0 0.00019463
14710.0 0.00019902
14730.0 0.00020343
14750.0 0.00020826
14770.0 0.00021358
14790.0 0.00021916
14810.0 0.00022499
14830.0 0.00023161
14850.0 0.0002385
14870.0 0.00024543
14890.0 0.00025265
14910.0 0.00026007
14930.0 0.00026703
14950.0 0.00027341
14970.0 0.00027936
14990.0 0.00028431
15010.0 0.00028812
15030.0 0.00029097
15050.0 0.00029293
15070.0 0.00029403
15090.0 0.00029458
15110.0 0.00029477
15130.0 0.00029472
15150.0 0.00029458
15170.0 0.00029436
15190.0 0.0002941
15210.0 0.00029386
15230.0 0.00029362
15250.0 0.00029336
15270.0 0.00029312
15290.0 0.00029291
15310.0 0.00029269
15330.0 0.00029246
15350.0 0.00029226
15370.0 0.00029206
15390.0 0.00029183
15410.0 0.00029163
15430.0 0.00029145
15450.0 0.00029125
15470.0 0.00029104
15490.0 0.00029087
15510.0 0.0002907
15530.0 0.0002905
15550.0 0.00029031
15570.0 0.00029015
15590.0 0.00028996
15610.0 0.00028976
15630.0 0.00028959
15650.0 0.00028942
15670.0 0.00028922
15690.0 0.00028904
15710.0 0.00028888
15730.0 0.00028869
15750.0 0.00028849
15770.0 0.00028832
15790.0 0.00028814
15810.0 0.00028792
15830.0 0.00028772
15850.0 0.00028755
15870.0 0.00028734
15890.0 0.00028713
15910.0 0.00028694
15930.0 0.00028673
15950.0 0.00028649
15970.0 0.00028628
15990.0 0.00028607
16010.0 0.00028583
16030.0 0.00028557
16050.0 0.00028536
16070.0 0.00028512
16090.0 0.00028485
16110.0 0.0002846
16130.0 0.00028436
16150.0 0.00028406
16170.0 0.00028378
16190.0 0.00028351
16210.0 0.00028322
16230.0 0.00028291
16250.0 0.00028261
16270.0 0.00028232
16290.0 0.00028199
16310.0 0.00028165
16330.0 0.00028134
16350.0 0.000281
16370.0 0.00028061
16390.0 0.00028027
16410.0 0.00027991
16430.0 0.00027953
16450.0 0.00027914
16470.0 0.00027877
16490.0 0.00027836
16510.0 0.00027793
16530.0 0.00027752
16550.0 0.0002771
16570.0 0.00027664
16590.0 0.00027619
16610.0 0.00027576
16630.0 0.00027529
16650.0 0.0002748
16670.0 0.00027433
16690.0 0.00027385
16710.0 0.00027331
16730.0 0.0002728
16750.0 0.00027229
16770.0 0.00027175
16790.0 0.00027119
16810.0 0.00027065
16830.0 0.0002701
16850.0 0.00026951
16870.0 0.00026893
16890.0 0.00026836
16910.0 0.00026774
16930.0 0.0002671
16950.0 0.0002665
16970.0 0.00026588
16990.0 0.00026522
17010.0 0.00026457
17030.0 0.00026393
17050.0 0.00026325
17070.0 0.00026255
17090.0 0.00026188
17110.0 0.00026118
17130.0 0.00026044
17150.0 0.00025973
17170.0 0.00025902
17190.0 0.00025827
17210.0 0.00025752
17230.0 0.00025678
17250.0 0.00025602
17270.0 0.00025522
17290.0 0.00025444
17310.0 0.00025366
17330.0 0.00025285
17350.0 0.00025202
17370.0 0.00025122
17390.0 0.0002504
17410.0 0.00024955
17430.0 0.00024871
17450.0 0.00024788
17470.0 0.00024699
17490.0 0.00024611
17510.0 0.00024525
17530.0 0.00024437
17550.0 0.00024345
17570.0 0.00024256
17590.0 0.00024168
17610.0 0.00024074
17630.0 0.00023982
17650.0 0.00023891
17670.0 0.00023797
17690.0 0.00023698
17710.0 0.00023605
17730.0 0.00023511
17750.0 0.00023413
17770.0 0.00023316
17790.0 0.00023221
17810.0 0.00023122
17830.0 0.00023021
17850.0 0.00022923
17870.0 0.00022824
17890.0 0.00022721
17910.0 0.00022619
17930.0 0.0002252
17950.0 0.00022417
17970.0 0.00022313
17990.0 0.00022212
18010.0 0.0002211
18030.0 0.00022002
18050.0 0.00021898
18070.0 0.00021795
18090.0 0.00021688
18110.0 0.00021581
18130.0 0.00021477
18150.0 0.00021371
18170.0 0.00021263
18190.0 0.00021156
18210.0 0.0002105
18230.0 0.00020941
18250.0 0.0002083
18270.0 0.00020724
18290.0 0.00020616
18310.0 0.00020505
18330.0 0.00020396
18350.0 0.00020289
18370.0 0.00020178
18390.0 0.00020067
18410.0 0.00019958
18430.0 0.00019848
18450.0 0.00019735
18470.0 0.00019625
18490.0 0.00019516
18510.0 0.00019404
18530.0 0.00019292
18550.0 0.00019184
18570.0 0.00019072
18590.0 0.00018959
18610.0 0.00018848
18630.0 0.00018738
18650.0 0.00018625
18670.0 0.00018512
18690.0 0.00018403
18710.0 0.00018292
18730.0 0.00018179
18750.0 0.00018068
18770.0 0.00017959
18790.0 0.00017844
18810.0 0.00017732
18830.0 0.00017623
18850.0 0.00017511
18870.0 0.00017398
18890.0 0.00017288
18910.0 0.00017179
18930.0 0.00017066
18950.0 0.00016955
18970.0 0.00016847
18990.0 0.00016736
19010.0 0.00016622
19030.0 0.00016514
19050.0 0.00016405
19070.0 0.00016293
19090.0 0.00016184
19110.0 0.00016077
19130.0 0.00015966
19150.0 0.00015855
19170.0 0.00015747
19190.0 0.0001564
19210.0 0.00015529
19230.0 0.0001542
19250.0 0.00015315
19270.0 0.00015206
19290.0 0.00015098
19310.0 0.00014992
19330.0 0.00014886
19350.0 0.00014776
19370.0 0.0001467
19390.0 0.00014565
19410.0 0.00014459
19430.0 0.00014352
19450.0 0.00014248
19470.0 0.00014144
19490.0 0.00014038
19510.0 0.00013934
19530.0 0.00013832
19550.0 0.00013726
19570.0 0.00013621
19590.0 0.0001352
19610.0 0.00013417
19630.0 0.00013313
19650.0 0.00013212
19670.0 0.00013112
19690.0 0.00013009
19710.0 0.00012908
19730.0 0.00012808
19750.0 0.00012708
19770.0 0.00012606
19790.0 0.00012507
19810.0 0.00012409
19830.0 0.00012309
19850.0 0.00012209
19870.0 0.00012112
19890.0 0.0001201
19910.0 0.00011902
19930.0 0.0001179
19950.0 0.0001167
19970.0 0.00011531
19990.0 0.00011374
20010.0 0.00011049
20030.0 0.00010854
20050.0 0.00010635
20070.0 0.00010405
20090.0 0.00010163
20110.0 9.8961e-05
20130.0 9.6309e-05
20150.0 9.372e-05
20170.0 9.1077e-05
20190.0 8.8433e-05
20210.0 8.5953e-05
20230.0 8.3553e-05
20250.0 8.1165e-05
20270.0 7.8952e-05
20290.0 7.6926e-05
20310.0 7.4998e-05
20330.0 7.3188e-05
20350.0 7.1661e-05
20370.0 7.0287e-05
20390.0 6.9061e-05
20410.0 6.8042e-05
20430.0 6.7223e-05
20450.0 6.6544e-05
20470.0 6.6047e-05
20490.0 6.5723e-05
20510.0 6.5546e-05
20530.0 6.5517e-05
20550.0 6.5621e-05
20570.0 6.583e-05
20590.0 6.616e-05
20610.0 6.659e-05
20630.0 6.7082e-05
20650.0 6.7651e-05
20670.0 6.8324e-05
20690.0 6.9014e-05
20710.0 6.9731e-05
20730.0 7.0511e-05
20750.0 7.1324e-05
20770.0 7.2113e-05
20790.0 7.2936e-05
20810.0 7.38e-05
20830.0 7.4644e-05
20850.0 7.5476e-05
20870.0 7.636e-05
20890.0 7.7247e-05
20910.0 7.8084e-05
20930.0 7.8945e-05
20950.0 7.983e-05
20970.0 8.0682e-05
20990.0 8.1514e-05
21010.0 8.2391e-05
21030.0 8.3244e-05
21050.0 8.4052e-05
21070.0 8.4861e-05
21090.0 8.568e-05
21110.0 8.6425e-05
21130.0 8.7128e-05
21150.0 8.7824e-05
21170.0 8.8464e-05
21190.0 8.9025e-05
21210.0 8.9554e-05
21230.0 9.0025e-05
21250.0 9.0391e-05
21270.0 9.0673e-05
21290.0 9.087e-05
21310.0 9.0952e-05
21330.0 9.0912e-05
21350.0 9.0752e-05
21370.0 9.0451e-05
21390.0 9.0013e-05
21410.0 8.9434e-05
21430.0 8.8665e-05
21450.0 8.7756e-05
21470.0 8.6723e-05
21490.0 8.5521e-05
21510.0 8.4163e-05
21530.0 8.2739e-05
21550.0 8.1209e-05
21570.0 7.9537e-05
21590.0 7.7844e-05
21610.0 7.6162e-05
21630.0 7.4431e-05
21650.0 7.2685e-05
21670.0 7.1107e-05
21690.0 6.9591e-05
21710.0 6.815e-05
21730.0 6.688e-05
21750.0 6.5795e-05
21770.0 6.4832e-05
21790.0 6.4074e-05
21810.0 6.3535e-05
21830.0 6.3186e-05
21850.0 6.304e-05
21870.0 6.3097e-05
21890.0 6.3329e-05
21910.0 6.3754e-05
21930.0 6.4351e-05
21950.0 6.5072e-05
21970.0 6.5938e-05
21990.0 6.6982e-05
22010.0 6.8079e-05
22030.0 6.9243e-05
22050.0 7.052e-05
22070.0 7.1854e-05
22090.0 7.3158e-05
22110.0 7.4519e-05
22130.0 7.5923e-05
22150.0 7.7273e-05
22170.0 7.858e-05
22190.0 7.9915e-05
22210.0 8.1189e-05
22230.0 8.2333e-05
22250.0 8.3434e-05
22270.0 8.4471e-05
22290.0 8.5372e-05
22310.0 8.6158e-05
22330.0 8.6869e-05
22350.0 8.7432e-05
22370.0 8.7844e-05
22390.0 8.8127e-05
22410.0 8.8262e-05
22430.0 8.823e-05
22450.0 8.8047e-05
22470.0 8.7697e-05
22490.0 8.7181e-05
22510.0 8.6523e-05
22530.0 8.5676e-05
22550.0 8.464e-05
22570.0 8.3483e-05
22590.0 8.2176e-05
22610.0 8.067e-05
22630.0 7.9036e-05
22650.0 7.7339e-05
22670.0 7.546e-05
22690.0 7.3446e-05
22710.0 7.1404e-05
22730.0 6.9291e-05
22750.0 6.6991e-05
22770.0 6.473e-05
22790.0 6.2511e-05
22810.0 6.0223e-05
22830.0 5.793e-05
22850.0 5.5773e-05
22870.0 5.3652e-05
22890.0 5.1537e-05
22910.0 4.9582e-05
22930.0 4.7788e-05
22950.0 4.6078e-05
22970.0 4.4496e-05
