#lamb flux
1010.0 6.4609e-05
1030.0 8.192e-05
1050.0 0.00010168
1070.0 0.00012355
1090.0 0.00014769
1110.0 0.00017131
1130.0 0.00019351
1150.0 0.00021482
1170.0 0.00023439
1190.0 0.00024977
1210.0 0.00026239
1230.0 0.00027246
1250.0 0.00027874
1270.0 0.00028122
1290.0 0.00028173
1310.0 0.00027934
1330.0 0.00027379
1350.0 0.00026708
1370.0 0.00026213
1390.0 0.00025466
1410.0 0.00024514
1430.0 0.00023484
1450.0 0.00022363
1470.0 0.00021163
1490.0 0.00019961
1510.0 0.0001878
1530.0 0.00017564
1550.0 0.00016405
1570.0 0.00015341
1590.0 0.00014417
1610.0 0.00013728
1630.0 0.00013156
1650.0 0.0001269
1670.0 0.00012307
1690.0 0.00012016
1710.0 0.00011834
1730.0 0.00011738
1750.0 0.00011634
1770.0 0.00011617
1790.0 0.00011684
1810.0 0.00011821
1830.0 0.00012024
1850.0 0.00012133
1870.0 0.00012341
1890.0 0.00012619
1910.0 0.00012983
1930.0 0.00013442
1950.0 0.00013981
1970.0 0.00014617
1990.0 0.00015372
2010.0 0.00016241
2030.0 0.00017226
2050.0 0.0001836
2070.0 0.00019654
2090.0 0.00021092
2110.0 0.00022704
2130.0 0.00024517
2150.0 0.00026524
2170.0 0.00028723
2190.0 0.0003116
2210.0 0.00033832
2230.0 0.0003672
2250.0 0.00039844
2270.0 0.00043238
2290.0 0.00046851
2310.0 0.00050665
2330.0 0.0005472
2350.0 0.00058985
2370.0 0.00063396
2390.0 0.00067961
2410.0 0.00072672
2430.0 0.00077403
2450.0 0.00082094
2470.0 0.00086708
2490.0 0.00091152
2510.0 0.00095352
2530.0 0.00099406
2550.0 0.0010352
2570.0 0.0010807
2590.0 0.0011356
2610.0 0.0012116
2630.0 0.0013184
2650.0 0.0014603
2670.0 0.0016489
2690.0 0.0018941
2710.0 0.0021818
2730.0 0.0025016
2750.0 0.0028638
2770.0 0.0032383
2790.0 0.0035969
2810.0 0.00394
2830.0 0.0042646
2850.0 0.0045336
2870.0 0.0047645
2890.0 0.0049712
2910.0 0.0051529
2930.0 0.0053112
2950.0 0.0054648
2970.0 0.0056153
2990.0 0.0057571
3010.0 0.0058954
3030.0 0.0060372
3050.0 0.0061767
3070.0 0.0063044
3090.0 0.00643
3110.0 0.006547
3130.0 0.006645
3150.0 0.0067242
3170.0 0.0067856
3190.0 0.0068257
3210.0 0.0068538
3230.0 0.0068834
3250.0 0.0069282
3270.0 0.006998
3290.0 0.0071035
3310.0 0.0072556
3330.0 0.0074438
3350.0 0.0076546
3370.0 0.0078905
3390.0 0.0081382
3410.0 0.0083691
3430.0 0.0085816
3450.0 0.0087554
3470.0 0.0092678
3490.0 0.0092856
3510.0 0.0082444
3530.0 0.0084548
3550.0 0.010195
3570.0 0.01157
3590.0 0.012467
3610.0 0.013362
3630.0 0.013898
3650.0 0.012559
3670.0 0.011317
3690.0 0.01145
3710.0 0.01264
3730.0 0.014243
3750.0 0.013941
3770.0 0.013961
3790.0 0.014521
3810.0 0.013707
3830.0 0.012077
3850.0 0.010837
3870.0 0.010484
3890.0 0.011756
3910.0 0.012769
3930.0 0.013135
3950.0 0.013384
3970.0 0.013808
3990.0 0.014427
4010.0 0.014469
4030.0 0.013578
4050.0 0.012355
4070.0 0.012286
4090.0 0.013032
4110.0 0.013795
4130.0 0.013457
4150.0 0.013102
4170.0 0.012974
4190.0 0.013505
4210.0 0.013347
4230.0 0.012299
4250.0 0.010982
4270.0 0.0099215
4290.0 0.009062
4310.0 0.0084088
4330.0 0.008405
4350.0 0.0091445
4370.0 0.0094007
4390.0 0.0097163
4410.0 0.010045
4430.0 0.010159
4450.0 0.0099877
4470.0 0.0097627
4490.0 0.010173
4510.0 0.01043
4530.0 0.010652
4550.0 0.010838
4570.0 0.010972
4590.0 0.011251
4610.0 0.011398
4630.0 0.011717
4650.0 0.012136
4670.0 0.011761
4690.0 0.010977
4710.0 0.010024
4730.0 0.00963
4750.0 0.0094843
4770.0 0.0091876
4790.0 0.0088127
4810.0 0.0084675
4830.0 0.0087541
4850.0 0.0091894
4870.0 0.0082227
4890.0 0.008021
4910.0 0.0077378
4930.0 0.00791
4950.0 0.007302
4970.0 0.0066663
4990.0 0.0065007
5010.0 0.0060589
5030.0 0.0056653
5050.0 0.0057257
5070.0 0.0061824
5090.0 0.0064115
5110.0 0.0070977
5130.0 0.0073116
5150.0 0.0075538
5170.0 0.0077942
5190.0 0.0076063
5210.0 0.0077231
5230.0 0.0078777
5250.0 0.0079187
5270.0 0.0080971
5290.0 0.0079839
5310.0 0.0078121
5330.0 0.0074022
5350.0 0.0070031
5370.0 0.0065816
5390.0 0.0067051
5410.0 0.0067919
5430.0 0.006819
5450.0 0.0068561
5470.0 0.0067724
5490.0 0.0066733
5510.0 0.0065663
5530.0 0.0064018
5550.0 0.0063874
5570.0 0.0064677
5590.0 0.006559
5610.0 0.0065475
5630.0 0.0064065
5650.0 0.0063322
5670.0 0.0061639
5690.0 0.0059923
5710.0 0.0057911
5730.0 0.005727
5750.0 0.005687
5770.0 0.0055455
5790.0 0.0055214
5810.0 0.0054819
5830.0 0.0056016
5850.0 0.0056819
5870.0 0.0057136
5890.0 0.0056339
5910.0 0.0056272
5930.0 0.0055904
5950.0 0.0056057
5970.0 0.0055137
5990.0 0.0054105
6010.0 0.005486
6030.0 0.0055566
6050.0 0.0054494
6070.0 0.0054075
6090.0 0.0053664
6110.0 0.005409
6130.0 0.0054058
6150.0 0.0052532
6170.0 0.004889
6190.0 0.0045203
6210.0 0.0043238
6230.0 0.0042641
6250.0 0.0042945
6270.0 0.0044365
6290.0 0.0045842
6310.0 0.0047928
6330.0 0.004931
6350.0 0.004984
6370.0 0.0050015
6390.0 0.0049082
6410.0 0.004797
6430.0 0.0046476
6450.0 0.0045429
6470.0 0.0044956
6490.0 0.0044929
6510.0 0.004475
6530.0 0.0044705
6550.0 0.0043913
6570.0 0.0042772
6590.0 0.004253
6610.0 0.0041789
6630.0 0.0040912
6650.0 0.0040002
6670.0 0.0038792
6690.0 0.0037872
6710.0 0.0036771
6730.0 0.0036339
6750.0 0.0035745
6770.0 0.0035191
6790.0 0.0035343
6810.0 0.0034827
6830.0 0.0034209
6850.0 0.0033841
6870.0 0.0033178
6890.0 0.0032823
6910.0 0.0032561
6930.0 0.0032029
6950.0 0.0031861
6970.0 0.0031341
6990.0 0.0031352
7010.0 0.0030923
7030.0 0.0030848
7050.0 0.0030449
7070.0 0.0029943
7090.0 0.0029419
7110.0 0.0028487
7130.0 0.0028407
7150.0 0.0028791
7170.0 0.0029121
7190.0 0.0029291
7210.0 0.0029583
7230.0 0.0030075
7250.0 0.0030046
7270.0 0.0029798
7290.0 0.0029514
7310.0 0.0028824
7330.0 0.0027503
7350.0 0.0027202
7370.0 0.0027021
7390.0 0.0026548
7410.0 0.0026457
7430.0 0.0026247
7450.0 0.0025866
7470.0 0.0025614
7490.0 0.0025197
7510.0 0.0023991
7530.0 0.0024141
7550.0 0.0024415
7570.0 0.002341
7590.0 0.0022023
7610.0 0.002223
7630.0 0.0022273
7650.0 0.0022143
7670.0 0.0022369
7690.0 0.0022357
7710.0 0.0022653
7730.0 0.0023262
7750.0 0.0024364
7770.0 0.0025331
7790.0 0.0026286
7810.0 0.0027148
7830.0 0.0028062
7850.0 0.0028332
7870.0 0.00285
7890.0 0.0028161
7910.0 0.0027376
7930.0 0.0026773
7950.0 0.0026304
7970.0 0.0026106
7990.0 0.0026049
8010.0 0.0023678
8030.0 0.0023535
8050.0 0.0023067
8070.0 0.0022848
8090.0 0.0022205
8110.0 0.0022376
8130.0 0.0022653
8150.0 0.0023045
8170.0 0.0022816
8190.0 0.0023164
8210.0 0.0022853
8230.0 0.002169
8250.0 0.0021312
8270.0 0.002094
8290.0 0.0020589
8310.0 0.0019835
8330.0 0.0020076
8350.0 0.0019981
8370.0 0.0020004
8390.0 0.0020362
8410.0 0.0020255
8430.0 0.0020536
8450.0 0.0020793
8470.0 0.0020947
8490.0 0.0021203
8510.0 0.0020832
8530.0 0.0020099
8550.0 0.0020265
8570.0 0.0020285
8590.0 0.0019668
8610.0 0.0020089
8630.0 0.0019813
8650.0 0.0019419
8670.0 0.0019291
8690.0 0.0019257
8710.0 0.001848
8730.0 0.001876
8750.0 0.0018129
8770.0 0.0018042
8790.0 0.0017536
8810.0 0.0017324
8830.0 0.0017312
8850.0 0.0016529
8870.0 0.0015692
8890.0 0.001549
8910.0 0.0014598
8930.0 0.0013478
8950.0 0.0013475
8970.0 0.0013015
8990.0 0.0012921
9010.0 0.0012808
9030.0 0.001272
9050.0 0.0012629
9070.0 0.0012538
9090.0 0.0012446
9110.0 0.0012353
9130.0 0.0012261
9150.0 0.0012169
9170.0 0.0012076
9190.0 0.0011983
9210.0 0.001189
9230.0 0.0011797
9250.0 0.0011704
9270.0 0.001161
9290.0 0.0011517
9310.0 0.0011424
9330.0 0.0011331
9350.0 0.0011238
9370.0 0.0011145
9390.0 0.0011052
9410.0 0.001096
9430.0 0.0010868
9450.0 0.0010776
9470.0 0.0010691
9490.0 0.0010603
9510.0 0.0010509
9530.0 0.0010416
9550.0 0.0010324
9570.0 0.0010234
9590.0 0.0010145
9610.0 0.0010056
9630.0 0.00099688
9650.0 0.00098817
9670.0 0.00097949
9690.0 0.00097092
9710.0 0.00096242
9730.0 0.00095395
9750.0 0.00094555
9770.0 0.00093729
9790.0 0.00092904
9810.0 0.00092086
9830.0 0.00091263
9850.0 0.00090331
9870.0 0.00089513
9890.0 0.00088797
9910.0 0.00088068
9930.0 0.00087184
9950.0 0.00086424
9970.0 0.00085735
9990.0 0.00085025
10010.0 0.00084313
10030.0 0.00083598
10050.0 0.00082886
10070.0 0.00082186
10090.0 0.00081497
10110.0 0.00080795
10130.0 0.00080101
10150.0 0.00079432
10170.0 0.00078766
10190.0 0.00078097
10210.0 0.0007745
10230.0 0.00076816
10250.0 0.00076177
10270.0 0.00075549
10290.0 0.00074941
10310.0 0.0007433
10330.0 0.00073718
10350.0 0.0007313
10370.0 0.00072551
10390.0 0.00071968
10410.0 0.00071391
10430.0 0.00070833
10450.0 0.00070287
10470.0 0.00069741
10490.0 0.00069211
10510.0 0.00068691
10530.0 0.0006816
10550.0 0.00067644
10570.0 0.00067148
10590.0 0.00066649
10610.0 0.00066153
10630.0 0.00065677
10650.0 0.00065207
10670.0 0.0006473
10690.0 0.00064267
10710.0 0.0006382
10730.0 0.0006337
10750.0 0.00062917
10770.0 0.00062491
10790.0 0.00062068
10810.0 0.00061641
10830.0 0.00061226
10850.0 0.00060829
10870.0 0.00060421
10890.0 0.00060021
10910.0 0.00059643
10930.0 0.00059273
10950.0 0.00058905
10970.0 0.0005856
10990.0 0.00058239
11010.0 0.00061643
11030.0 0.00061405
11050.0 0.00061174
11070.0 0.00060933
11090.0 0.00060665
11110.0 0.0006039
11130.0 0.000601
11150.0 0.00059781
11170.0 0.00059442
11190.0 0.00059104
11210.0 0.00058749
11230.0 0.00058376
11250.0 0.00058015
11270.0 0.00057662
11290.0 0.00057301
11310.0 0.00056951
11330.0 0.00056636
11350.0 0.00056329
11370.0 0.00056032
11390.0 0.00055762
11410.0 0.00055513
11430.0 0.0005526
11450.0 0.00055024
11470.0 0.00054804
11490.0 0.0005458
11510.0 0.00054345
11530.0 0.00054119
11550.0 0.00053889
11570.0 0.00053638
11590.0 0.0005338
11610.0 0.00053123
11630.0 0.00052846
11650.0 0.0005255
11670.0 0.00052268
11690.0 0.00051984
11710.0 0.00051686
11730.0 0.00051395
11750.0 0.00051123
11770.0 0.00050842
11790.0 0.00050562
11810.0 0.00050301
11830.0 0.00050047
11850.0 0.00049782
11870.0 0.00049535
11890.0 0.00049309
11910.0 0.00049082
11930.0 0.00048863
11950.0 0.00048672
11970.0 0.00048495
11990.0 0.00048326
12010.0 0.00048188
12030.0 0.00048082
12050.0 0.00047996
12070.0 0.00047939
12090.0 0.00047923
12110.0 0.00047935
12130.0 0.00047976
12150.0 0.00048049
12170.0 0.00048148
12190.0 0.00048271
12210.0 0.00048416
12230.0 0.00048577
12250.0 0.00048751
12270.0 0.00048935
12290.0 0.00049123
12310.0 0.0004931
12330.0 0.00049497
12350.0 0.00049678
12370.0 0.00049848
12390.0 0.00050006
12410.0 0.00050148
12430.0 0.00050269
12450.0 0.00050368
12470.0 0.00050439
12490.0 0.00050479
12510.0 0.00050491
12530.0 0.00050464
12550.0 0.00050395
12570.0 0.00050292
12590.0 0.00050155
12610.0 0.00049966
12630.0 0.00049737
12650.0 0.00049492
12670.0 0.00049204
12690.0 0.00048879
12710.0 0.00048542
12730.0 0.0004819
12750.0 0.00047795
12770.0 0.00047398
12790.0 0.00047008
12810.0 0.00046605
12830.0 0.00046189
12850.0 0.00045802
12870.0 0.00045427
12890.0 0.00045046
12910.0 0.00044687
12930.0 0.00044358
12950.0 0.00044032
12970.0 0.00043717
12990.0 0.00043438
13010.0 0.00043176
13030.0 0.00042919
13050.0 0.00042681
13070.0 0.00042467
13090.0 0.00042251
13110.0 0.00042043
13130.0 0.0004185
13150.0 0.00041664
13170.0 0.00041471
13190.0 0.00041291
13210.0 0.00041122
13230.0 0.00040949
13250.0 0.00040777
13270.0 0.00040614
13290.0 0.00040449
13310.0 0.00040274
13330.0 0.00040102
13350.0 0.0003993
13370.0 0.00039744
13390.0 0.00039545
13410.0 0.00039351
13430.0 0.00039143
13450.0 0.00038917
13470.0 0.00038687
13490.0 0.00038453
13510.0 0.00038193
13530.0 0.00037927
13550.0 0.00037662
13570.0 0.00037386
13590.0 0.00037093
13610.0 0.00036804
13630.0 0.00036515
13650.0 0.00036209
13670.0 0.000359
13690.0 0.00035597
13710.0 0.00035285
13730.0 0.00034955
13750.0 0.0003464
13770.0 0.00034325
13790.0 0.00033998
13810.0 0.00033672
13830.0 0.00033358
13850.0 0.00033035
13870.0 0.00032707
13890.0 0.00032391
13910.0 0.00032079
13930.0 0.00031759
13950.0 0.00031444
13970.0 0.00031147
13990.0 0.00030845
14010.0 0.00030543
14030.0 0.00030254
14050.0 0.00029971
14070.0 0.00029677
14090.0 0.00029394
14110.0 0.00029121
14130.0 0.00028844
14150.0 0.00028565
14170.0 0.000283
14190.0 0.00028036
14210.0 0.00027768
14230.0 0.00027505
14250.0 0.00027252
14270.0 0.00026993
14290.0 0.00026736
14310.0 0.00026493
14330.0 0.00026254
14350.0 0.00026016
14370.0 0.00025787
14390.0 0.00025571
14410.0 0.00025354
14430.0 0.00025143
14450.0 0.00024944
14470.0 0.0002475
14490.0 0.00024554
14510.0 0.00024368
14530.0 0.0002419
14550.0 0.0002401
14570.0 0.00023832
14590.0 0.00023661
14610.0 0.00023489
14630.0 0.00023315
14650.0 0.00023145
14670.0 0.00022979
14690.0 0.0002281
14710.0 0.00022641
14730.0 0.00022479
14750.0 0.00022318
14770.0 0.00022155
14790.0 0.00021998
14810.0 0.00021845
14830.0 0.00021689
14850.0 0.00021536
14870.0 0.00021389
14890.0 0.00021243
14910.0 0.00021096
14930.0 0.00020954
14950.0 0.00020818
14970.0 0.00020681
14990.0 0.00020549
15010.0 0.00020424
15030.0 0.00020303
15050.0 0.00020183
15070.0 0.00020069
15090.0 0.00019959
15110.0 0.00019849
15130.0 0.0001974
15150.0 0.00019634
15170.0 0.00019527
15190.0 0.0001942
15210.0 0.00019314
15230.0 0.00019209
15250.0 0.00019103
15270.0 0.00018997
15290.0 0.00018894
15310.0 0.0001879
15330.0 0.00018685
15350.0 0.00018583
15370.0 0.00018481
15390.0 0.00018377
15410.0 0.00018275
15430.0 0.00018174
15450.0 0.00018073
15470.0 0.00017971
15490.0 0.00017872
15510.0 0.00017774
15530.0 0.00017674
15550.0 0.00017576
15570.0 0.00017479
15590.0 0.00017381
15610.0 0.00017283
15630.0 0.00017188
15650.0 0.00017093
15670.0 0.00016997
15690.0 0.00016903
15710.0 0.0001681
15730.0 0.00016717
15750.0 0.00016623
15770.0 0.00016532
15790.0 0.00016441
15810.0 0.00016349
15830.0 0.00016259
15850.0 0.00016171
15870.0 0.00016082
15890.0 0.00015994
15910.0 0.00015907
15930.0 0.00015821
15950.0 0.00015733
15970.0 0.00015648
15990.0 0.00015564
16010.0 0.00015479
16030.0 0.00015395
16050.0 0.00015313
16070.0 0.00015232
16090.0 0.00015149
16110.0 0.00015069
16130.0 0.0001499
16150.0 0.00014909
16170.0 0.0001483
16190.0 0.00014753
16210.0 0.00014675
16230.0 0.00014597
16250.0 0.00014522
16270.0 0.00014447
16290.0 0.00014372
16310.0 0.00014297
16330.0 0.00014225
16350.0 0.00014152
16370.0 0.00014078
16390.0 0.00014007
16410.0 0.00013937
16430.0 0.00013866
16450.0 0.00013796
16470.0 0.00013729
16490.0 0.0001366
16510.0 0.00013591
16530.0 0.00013525
16550.0 0.00013459
16570.0 0.00013392
16590.0 0.00013326
16610.0 0.00013263
16630.0 0.00013199
16650.0 0.00013135
16670.0 0.00013073
16690.0 0.00013011
16710.0 0.00012948
16730.0 0.00012887
16750.0 0.00012828
16770.0 0.00012768
16790.0 0.00012707
16810.0 0.0001265
16830.0 0.00012592
16850.0 0.00012534
16870.0 0.00012477
16890.0 0.00012421
16910.0 0.00012365
16930.0 0.00012308
16950.0 0.00012254
16970.0 0.000122
16990.0 0.00012146
17010.0 0.00012092
17030.0 0.00012041
17050.0 0.00011988
17070.0 0.00011936
17090.0 0.00011885
17110.0 0.00011834
17130.0 0.00011783
17150.0 0.00011733
17170.0 0.00011685
17190.0 0.00011635
17210.0 0.00011587
17230.0 0.0001154
17250.0 0.00011492
17270.0 0.00011444
17290.0 0.00011397
17310.0 0.00011352
17330.0 0.00011305
17350.0 0.00011259
17370.0 0.00011215
17390.0 0.00011171
17410.0 0.00011126
17430.0 0.00011083
17450.0 0.0001104
17470.0 0.00010996
17490.0 0.00010953
17510.0 0.00010911
17530.0 0.00010869
17550.0 0.00010827
17570.0 0.00010786
17590.0 0.00010746
17610.0 0.00010705
17630.0 0.00010664
17650.0 0.00010625
17670.0 0.00010586
17690.0 0.00010545
17710.0 0.00010507
17730.0 0.00010469
17750.0 0.0001043
17770.0 0.00010391
17790.0 0.00010355
17810.0 0.00010317
17830.0 0.00010279
17850.0 0.00010242
17870.0 0.00010206
17890.0 0.00010169
17910.0 0.00010132
17930.0 0.00010097
17950.0 0.00010061
17970.0 0.00010025
17990.0 9.9906e-05
18010.0 9.9561e-05
18030.0 9.9199e-05
18050.0 9.8853e-05
18070.0 9.8515e-05
18090.0 9.8169e-05
18110.0 9.7821e-05
18130.0 9.7491e-05
18150.0 9.7158e-05
18170.0 9.6815e-05
18190.0 9.6483e-05
18210.0 9.6159e-05
18230.0 9.5822e-05
18250.0 9.5484e-05
18270.0 9.5164e-05
18290.0 9.4841e-05
18310.0 9.4509e-05
18330.0 9.4188e-05
18350.0 9.3875e-05
18370.0 9.3548e-05
18390.0 9.3224e-05
18410.0 9.2911e-05
18430.0 9.2595e-05
18450.0 9.2266e-05
18470.0 9.1953e-05
18490.0 9.1646e-05
18510.0 9.1328e-05
18530.0 9.1012e-05
18550.0 9.0709e-05
18570.0 9.0397e-05
18590.0 9.0075e-05
18610.0 8.9768e-05
18630.0 8.9463e-05
18650.0 8.9148e-05
18670.0 8.8833e-05
18690.0 8.8535e-05
18710.0 8.8227e-05
18730.0 8.7913e-05
18750.0 8.761e-05
18770.0 8.7311e-05
18790.0 8.6991e-05
18810.0 8.6681e-05
18830.0 8.6382e-05
18850.0 8.6075e-05
18870.0 8.5761e-05
18890.0 8.546e-05
18910.0 8.5161e-05
18930.0 8.4847e-05
18950.0 8.4538e-05
18970.0 8.4239e-05
18990.0 8.3931e-05
19010.0 8.3609e-05
19030.0 8.3309e-05
19050.0 8.3007e-05
19070.0 8.2693e-05
19090.0 8.2384e-05
19110.0 8.2086e-05
19130.0 8.1771e-05
19150.0 8.1454e-05
19170.0 8.1149e-05
19190.0 8.0842e-05
19210.0 8.0522e-05
19230.0 8.0207e-05
19250.0 7.9906e-05
19270.0 7.9591e-05
19290.0 7.9272e-05
19310.0 7.8965e-05
19330.0 7.8655e-05
19350.0 7.8326e-05
19370.0 7.801e-05
19390.0 7.77e-05
19410.0 7.7378e-05
19430.0 7.7052e-05
19450.0 7.6742e-05
19470.0 7.6425e-05
19490.0 7.6096e-05
19510.0 7.5775e-05
19530.0 7.546e-05
19550.0 7.5129e-05
19570.0 7.4795e-05
19590.0 7.4478e-05
19610.0 7.4153e-05
19630.0 7.3818e-05
19650.0 7.3492e-05
19670.0 7.3172e-05
19690.0 7.2833e-05
19710.0 7.2497e-05
19730.0 7.2171e-05
19750.0 7.1838e-05
19770.0 7.149e-05
19790.0 7.1157e-05
19810.0 7.0828e-05
19830.0 7.0485e-05
19850.0 7.0143e-05
19870.0 6.9814e-05
19890.0 6.9472e-05
19910.0 6.9121e-05
19930.0 6.8786e-05
19950.0 6.8454e-05
19970.0 6.8114e-05
19990.0 6.7779e-05
20010.0 6.7464e-05
20030.0 6.7143e-05
20050.0 6.6819e-05
20070.0 6.6507e-05
20090.0 6.6198e-05
20110.0 6.5869e-05
20130.0 6.5548e-05
20150.0 6.5234e-05
20170.0 6.491e-05
20190.0 6.4579e-05
20210.0 6.4259e-05
20230.0 6.394e-05
20250.0 6.3609e-05
20270.0 6.3288e-05
20290.0 6.2978e-05
20310.0 6.2666e-05
20330.0 6.2352e-05
20350.0 6.2066e-05
20370.0 6.1784e-05
20390.0 6.1506e-05
20410.0 6.1244e-05
20430.0 6.1001e-05
20450.0 6.0759e-05
20470.0 6.0532e-05
20490.0 6.0325e-05
20510.0 6.0132e-05
20530.0 5.995e-05
20550.0 5.9788e-05
20570.0 5.9647e-05
20590.0 5.9519e-05
20610.0 5.9409e-05
20630.0 5.9319e-05
20650.0 5.9247e-05
20670.0 5.9192e-05
20690.0 5.9154e-05
20710.0 5.9131e-05
20730.0 5.9123e-05
20750.0 5.9126e-05
20770.0 5.9134e-05
20790.0 5.9147e-05
20810.0 5.9164e-05
20830.0 5.9176e-05
20850.0 5.918e-05
20870.0 5.9176e-05
20890.0 5.9156e-05
20910.0 5.9117e-05
20930.0 5.9057e-05
20950.0 5.8972e-05
20970.0 5.8862e-05
20990.0 5.8726e-05
21010.0 5.8557e-05
21030.0 5.836e-05
21050.0 5.8139e-05
21070.0 5.7888e-05
21090.0 5.7603e-05
21110.0 5.7305e-05
21130.0 5.699e-05
21150.0 5.6647e-05
21170.0 5.6292e-05
21190.0 5.5936e-05
21210.0 5.556e-05
21230.0 5.5172e-05
21250.0 5.4793e-05
21270.0 5.4413e-05
21290.0 5.4023e-05
21310.0 5.3638e-05
21330.0 5.3266e-05
21350.0 5.2887e-05
21370.0 5.2504e-05
21390.0 5.2131e-05
21410.0 5.176e-05
21430.0 5.137e-05
21450.0 5.0986e-05
21470.0 5.0608e-05
21490.0 5.0216e-05
21510.0 4.9814e-05
21530.0 4.9418e-05
21550.0 4.9014e-05
21570.0 4.8592e-05
21590.0 4.8171e-05
21610.0 4.7753e-05
21630.0 4.7321e-05
21650.0 4.6875e-05
21670.0 4.6452e-05
21690.0 4.6022e-05
21710.0 4.5584e-05
21730.0 4.5156e-05
21750.0 4.4741e-05
21770.0 4.4312e-05
21790.0 4.389e-05
21810.0 4.3486e-05
21830.0 4.3084e-05
21850.0 4.2679e-05
21870.0 4.2288e-05
21890.0 4.1912e-05
21910.0 4.1529e-05
21930.0 4.1151e-05
21950.0 4.0787e-05
21970.0 4.0421e-05
21990.0 4.0044e-05
22010.0 3.9681e-05
22030.0 3.9321e-05
22050.0 3.8952e-05
22070.0 3.8579e-05
22090.0 3.8216e-05
22110.0 3.7843e-05
22130.0 3.7459e-05
22150.0 3.7079e-05
22170.0 3.6699e-05
22190.0 3.6302e-05
22210.0 3.5902e-05
22230.0 3.5513e-05
22250.0 3.5115e-05
22270.0 3.4708e-05
22290.0 3.431e-05
22310.0 3.3916e-05
22330.0 3.3506e-05
22350.0 3.3103e-05
22370.0 3.2712e-05
22390.0 3.2317e-05
22410.0 3.1917e-05
22430.0 3.1537e-05
22450.0 3.1164e-05
22470.0 3.0788e-05
22490.0 3.0423e-05
22510.0 3.0075e-05
22530.0 2.9724e-05
22550.0 2.9379e-05
22570.0 2.9054e-05
22590.0 2.8738e-05
22610.0 2.8424e-05
22630.0 2.8123e-05
22650.0 2.7839e-05
22670.0 2.7556e-05
22690.0 2.7279e-05
22710.0 2.7017e-05
22730.0 2.6763e-05
22750.0 2.6506e-05
22770.0 2.6263e-05
22790.0 2.6031e-05
22810.0 2.5801e-05
22830.0 2.5577e-05
22850.0 2.5365e-05
22870.0 2.516e-05
22890.0 2.4958e-05
22910.0 2.4767e-05
22930.0 2.4587e-05
22950.0 2.4414e-05
22970.0 2.4248e-05
22990.0 2.4098e-05
23010.0 2.3958e-05
23030.0 2.3827e-05
