#lamb flux
1010.0 7.0636e-07
1030.0 7.961e-07
1050.0 8.9931e-07
1070.0 1.0155e-06
1090.0 1.1475e-06
1110.0 1.2828e-06
1130.0 1.4191e-06
1150.0 1.5618e-06
1170.0 1.709e-06
1190.0 1.8486e-06
1210.0 1.9901e-06
1230.0 2.1363e-06
1250.0 2.2795e-06
1270.0 2.4186e-06
1290.0 2.5656e-06
1310.0 2.7125e-06
1330.0 2.8534e-06
1350.0 2.9958e-06
1370.0 3.1428e-06
1390.0 3.2862e-06
1410.0 3.4253e-06
1430.0 3.5707e-06
1450.0 3.7161e-06
1470.0 3.8566e-06
1490.0 3.9985e-06
1510.0 4.1485e-06
1530.0 4.2905e-06
1550.0 4.4306e-06
1570.0 4.5754e-06
1590.0 4.7203e-06
1610.0 4.8587e-06
1630.0 5.0013e-06
1650.0 5.1475e-06
1670.0 5.2888e-06
1690.0 5.4281e-06
1710.0 5.5726e-06
1730.0 5.7177e-06
1750.0 5.8538e-06
1770.0 5.9937e-06
1790.0 6.136e-06
1810.0 6.2732e-06
1830.0 6.4075e-06
1850.0 6.5496e-06
1870.0 6.6873e-06
1890.0 6.8194e-06
1910.0 6.9533e-06
1930.0 7.0897e-06
1950.0 7.2183e-06
1970.0 7.344e-06
1990.0 7.4734e-06
2010.0 7.5988e-06
2030.0 7.7174e-06
2050.0 7.8381e-06
2070.0 7.96e-06
2090.0 8.0714e-06
2110.0 8.1797e-06
2130.0 8.2892e-06
2150.0 8.3928e-06
2170.0 8.4873e-06
2190.0 8.583e-06
2210.0 8.6755e-06
2230.0 8.7586e-06
2250.0 8.8367e-06
2270.0 8.916e-06
2290.0 8.9861e-06
2310.0 9.0459e-06
2330.0 9.1044e-06
2350.0 9.1588e-06
2370.0 9.203e-06
2390.0 9.2442e-06
2410.0 9.2887e-06
2430.0 9.3287e-06
2450.0 9.3683e-06
2470.0 9.4189e-06
2490.0 9.4858e-06
2510.0 9.5646e-06
2530.0 9.6879e-06
2550.0 9.9026e-06
2570.0 1.0252e-05
2590.0 1.0796e-05
2610.0 1.1701e-05
2630.0 1.3003e-05
2650.0 1.463e-05
2670.0 1.6597e-05
2690.0 1.882e-05
2710.0 2.0958e-05
2730.0 2.2845e-05
2750.0 2.4499e-05
2770.0 2.5734e-05
2790.0 2.6533e-05
2810.0 2.703e-05
2830.0 2.7314e-05
2850.0 2.7386e-05
2870.0 2.7357e-05
2890.0 2.7286e-05
2910.0 2.7183e-05
2930.0 2.7048e-05
2950.0 2.6922e-05
2970.0 2.6804e-05
2990.0 2.6675e-05
3010.0 0.00055202
3030.0 0.00054916
3050.0 0.00054632
3070.0 0.00054301
3090.0 0.0005395
3110.0 0.00053524
3130.0 0.00052954
3150.0 0.00052211
3170.0 0.00051236
3190.0 0.00050053
3210.0 0.00048764
3230.0 0.0004747
3250.0 0.00046394
3270.0 0.00045683
3290.0 0.0004552
3310.0 0.00045874
3330.0 0.00046854
3350.0 0.00048308
3370.0 0.00050269
3390.0 0.00052676
3410.0 0.00055265
3430.0 0.00058163
3450.0 0.00061476
3470.0 0.00065061
3490.0 0.00068821
3510.0 0.00073017
3530.0 0.00077468
3550.0 0.00081921
3570.0 0.0008656
3590.0 0.00091726
3610.0 0.00097043
3630.0 0.0010264
3650.0 0.0010845
3670.0 0.0011392
3690.0 0.001182
3710.0 0.0012086
3730.0 0.0012137
3750.0 0.0011974
3770.0 0.0011016
3790.0 0.00099392
3810.0 0.00092151
3830.0 0.00080483
3850.0 0.00059888
3870.0 0.00042576
3890.0 0.00071183
3910.0 0.0011577
3930.0 0.0014001
3950.0 0.0013757
3970.0 0.0014062
3990.0 0.0016516
4010.0 0.0021216
4030.0 0.0021472
4050.0 0.001903
4070.0 0.0016867
4090.0 0.0015946
4110.0 0.0019221
4130.0 0.002009
4150.0 0.0019605
4170.0 0.0019882
4190.0 0.0020269
4210.0 0.0020007
4230.0 0.0022099
4250.0 0.0024155
4270.0 0.0024503
4290.0 0.0024808
4310.0 0.0025445
4330.0 0.0028055
4350.0 0.0032354
4370.0 0.0036733
4390.0 0.003487
4410.0 0.0028555
4430.0 0.0023962
4450.0 0.0020525
4470.0 0.0019924
4490.0 0.002189
4510.0 0.0024555
4530.0 0.0027132
4550.0 0.0031425
4570.0 0.0037185
4590.0 0.0045081
4610.0 0.0057892
4630.0 0.0070332
4650.0 0.007232
4670.0 0.0069829
4690.0 0.007442
4710.0 0.0078587
4730.0 0.0066655
4750.0 0.0047625
4770.0 0.0038802
4790.0 0.0037498
4810.0 0.0034868
4830.0 0.0032903
4850.0 0.003768
4870.0 0.0048634
4890.0 0.00559
4910.0 0.0047428
4930.0 0.0041969
4950.0 0.0046987
4970.0 0.0062977
4990.0 0.0081699
5010.0 0.0086916
5030.0 0.0071897
5050.0 0.0046413
5070.0 0.003189
5090.0 0.00283
5110.0 0.0029576
5130.0 0.0031841
5150.0 0.0033449
5170.0 0.0033411
5190.0 0.0032702
5210.0 0.0031666
5230.0 0.0032441
5250.0 0.003466
5270.0 0.0039873
5290.0 0.0045991
5310.0 0.0050658
5330.0 0.005196
5350.0 0.0052343
5370.0 0.005687
5390.0 0.0061438
5410.0 0.0059741
5430.0 0.0051621
5450.0 0.0047461
5470.0 0.0053154
5490.0 0.0068162
5510.0 0.0087061
5530.0 0.0096769
5550.0 0.0093814
5570.0 0.0085008
5590.0 0.0075796
5610.0 0.0070013
5630.0 0.006646
5650.0 0.0067948
5670.0 0.0066319
5690.0 0.0061534
5710.0 0.005826
5730.0 0.0052853
5750.0 0.0037945
5770.0 0.0032933
5790.0 0.0037035
5810.0 0.0044751
5830.0 0.0050937
5850.0 0.0055865
5870.0 0.0057505
5890.0 0.0055543
5910.0 0.0053161
5930.0 0.0053292
5950.0 0.0055811
5970.0 0.0059467
5990.0 0.0056318
6010.0 0.0047379
6030.0 0.0039354
6050.0 0.0034152
6070.0 0.0033944
6090.0 0.0038262
6110.0 0.0042031
6130.0 0.0040509
6150.0 0.0037353
6170.0 0.0040613
6190.0 0.0048956
6210.0 0.0059723
6230.0 0.006881
6250.0 0.0068988
6270.0 0.0061766
6290.0 0.0051158
6310.0 0.004065
6330.0 0.0032317
6350.0 0.0029094
6370.0 0.0031478
6390.0 0.0037221
6410.0 0.004299
6430.0 0.0049843
6450.0 0.0058006
6470.0 0.007093
6490.0 0.008733
6510.0 0.00966
6530.0 0.0089834
6550.0 0.0082475
6570.0 0.0080101
6590.0 0.0076992
6610.0 0.0068748
6630.0 0.00619
6650.0 0.0056961
6670.0 0.0059036
6690.0 0.0058299
6710.0 0.005179
6730.0 0.0047062
6750.0 0.0042172
6770.0 0.0040941
6790.0 0.0045103
6810.0 0.0046417
6830.0 0.0047659
6850.0 0.0046676
6870.0 0.0044669
6890.0 0.0043602
6910.0 0.0041966
6930.0 0.0039419
6950.0 0.0040096
6970.0 0.004069
6990.0 0.0045441
7010.0 0.0048423
7030.0 0.0044362
7050.0 0.0041601
7070.0 0.004038
7090.0 0.0036965
7110.0 0.0034637
7130.0 0.0035389
7150.0 0.0037144
7170.0 0.0039409
7190.0 0.0039686
7210.0 0.0039373
7230.0 0.0041006
7250.0 0.0046995
7270.0 0.0054985
7290.0 0.005962
7310.0 0.0058247
7330.0 0.0051835
7350.0 0.0046445
7370.0 0.0044789
7390.0 0.0045178
7410.0 0.0047213
7430.0 0.0051601
7450.0 0.0055875
7470.0 0.0061402
7490.0 0.0068008
7510.0 0.006611
7530.0 0.0062597
7550.0 0.0052282
7570.0 0.004277
7590.0 0.0033942
7610.0 0.0030803
7630.0 0.0032467
7650.0 0.0037166
7670.0 0.0041183
7690.0 0.0046628
7710.0 0.0051288
7730.0 0.0053248
7750.0 0.0053913
7770.0 0.0053638
7790.0 0.0052308
7810.0 0.0053738
7830.0 0.0052135
7850.0 0.0046564
7870.0 0.0041943
7890.0 0.0038638
7910.0 0.0034293
7930.0 0.0029422
7950.0 0.0026821
7970.0 0.002656
7990.0 0.002768
8010.0 0.0029358
8030.0 0.002966
8050.0 0.0029646
8070.0 0.0028892
8090.0 0.0029057
8110.0 0.0027509
8130.0 0.002506
8150.0 0.0023521
8170.0 0.0022481
8190.0 0.0022735
8210.0 0.0023301
8230.0 0.0024567
8250.0 0.0023901
8270.0 0.0021373
8290.0 0.0016774
8310.0 0.001141
8330.0 0.000747
8350.0 0.00053532
8370.0 0.00061841
8390.0 0.00069417
8410.0 0.00088769
8430.0 0.0010791
8450.0 0.0011863
8470.0 0.0012595
8490.0 0.0012714
8510.0 0.0013102
8530.0 0.0014322
8550.0 0.001624
8570.0 0.0019399
8590.0 0.0023331
8610.0 0.002763
8630.0 0.0032231
8650.0 0.0035549
8670.0 0.0035361
8690.0 0.0033742
8710.0 0.0031781
8730.0 0.0030161
8750.0 0.0028503
8770.0 0.0027563
8790.0 0.0026954
8810.0 0.0025321
8830.0 0.0022264
8850.0 0.0018983
8870.0 0.0016036
8890.0 0.0014839
8910.0 0.0015319
8930.0 0.0015668
8950.0 0.0017329
8970.0 0.0017709
8990.0 0.0018078
9010.0 0.0018282
9030.0 0.0018349
9050.0 0.0018464
9070.0 0.0018551
9090.0 0.0018615
9110.0 0.0018662
9130.0 0.0018712
9150.0 0.0018769
9170.0 0.0018827
9190.0 0.0018888
9210.0 0.0018961
9230.0 0.001903
9250.0 0.0019105
9270.0 0.0019183
9290.0 0.0019266
9310.0 0.0019354
9330.0 0.0019447
9350.0 0.0019542
9370.0 0.0019642
9390.0 0.0019747
9410.0 0.0019855
9430.0 0.0019966
9450.0 0.0020084
9470.0 0.0020204
9490.0 0.0020328
9510.0 0.0020455
9530.0 0.0020588
9550.0 0.0020722
9570.0 0.0020859
9590.0 0.0021001
9610.0 0.0021146
9630.0 0.0021293
9650.0 0.0021444
9670.0 0.00216
9690.0 0.0021756
9710.0 0.0021915
9730.0 0.0022079
9750.0 0.0022244
9770.0 0.002241
9790.0 0.002258
9810.0 0.0022753
9830.0 0.0022926
9850.0 0.0023101
9870.0 0.002328
9890.0 0.002346
9910.0 0.002364
9930.0 0.0023822
9950.0 0.0024006
9970.0 0.002419
9990.0 0.0024374
10010.0 0.0023744
10030.0 0.0023922
10050.0 0.0024097
10070.0 0.0024272
10090.0 0.0024453
10110.0 0.002463
10130.0 0.0024807
10150.0 0.0024986
10170.0 0.0025163
10190.0 0.0025336
10210.0 0.0025512
10230.0 0.0025687
10250.0 0.0025858
10270.0 0.0026029
10290.0 0.00262
10310.0 0.0026367
10330.0 0.002653
10350.0 0.0026694
10370.0 0.0026856
10390.0 0.0027013
10410.0 0.0027168
10430.0 0.0027323
10450.0 0.0027473
10470.0 0.0027618
10490.0 0.0027762
10510.0 0.0027904
10530.0 0.0028037
10550.0 0.0028169
10570.0 0.00283
10590.0 0.0028424
10610.0 0.0028543
10630.0 0.002866
10650.0 0.0028773
10670.0 0.0028878
10690.0 0.002898
10710.0 0.0029079
10730.0 0.0029171
10750.0 0.0029255
10770.0 0.0029339
10790.0 0.0029417
10810.0 0.0029487
10830.0 0.0029551
10850.0 0.0029611
10870.0 0.0029655
10890.0 0.0029682
10910.0 0.0029687
10930.0 0.0029653
10950.0 0.0029555
10970.0 0.0029384
10990.0 0.0029133
11010.0 0.002811
11030.0 0.0027638
11050.0 0.0027085
11070.0 0.0026434
11090.0 0.0025657
11110.0 0.0024859
11130.0 0.0024031
11150.0 0.0023143
11170.0 0.0022236
11190.0 0.0021371
11210.0 0.0020493
11230.0 0.0019614
11250.0 0.0018797
11270.0 0.0018036
11290.0 0.0017297
11310.0 0.001662
11330.0 0.0016042
11350.0 0.001551
11370.0 0.0015028
11390.0 0.0014616
11410.0 0.0014255
11430.0 0.0013911
11450.0 0.00136
11470.0 0.0013314
11490.0 0.0013025
11510.0 0.0012722
11530.0 0.0012419
11550.0 0.0012101
11570.0 0.001175
11590.0 0.001138
11610.0 0.0011004
11630.0 0.00106
11650.0 0.0010176
11670.0 0.00097676
11690.0 0.00093639
11710.0 0.00089586
11730.0 0.00085764
11750.0 0.00082309
11770.0 0.00078997
11790.0 0.00075956
11810.0 0.00073316
11830.0 0.00070973
11850.0 0.00068816
11870.0 0.0006698
11890.0 0.000654
11910.0 0.00063938
11930.0 0.0006258
11950.0 0.00061333
11970.0 0.00060102
11990.0 0.00058817
12010.0 0.00057522
12030.0 0.000562
12050.0 0.00054787
12070.0 0.00053296
12090.0 0.00051853
12110.0 0.00050391
12130.0 0.00048926
12150.0 0.00047563
12170.0 0.00046342
12190.0 0.00045217
12210.0 0.00044304
12230.0 0.00043642
12250.0 0.0004322
12270.0 0.00043073
12290.0 0.00043208
12310.0 0.00043592
12330.0 0.00044266
12350.0 0.0004519
12370.0 0.00046284
12390.0 0.00047571
12410.0 0.0004909
12430.0 0.00050612
12450.0 0.00052159
12470.0 0.0005377
12490.0 0.00055334
12510.0 0.00056737
12530.0 0.00058072
12550.0 0.00059287
12570.0 0.0006027
12590.0 0.00061044
12610.0 0.00061643
12630.0 0.00062004
12650.0 0.00062113
12670.0 0.00062025
12690.0 0.00061728
12710.0 0.00061243
12730.0 0.00060597
12750.0 0.00059772
12770.0 0.00058821
12790.0 0.0005778
12810.0 0.0005663
12830.0 0.00055374
12850.0 0.000541
12870.0 0.00052781
12890.0 0.00051377
12910.0 0.00049952
12930.0 0.00048534
12950.0 0.00047042
12970.0 0.00045498
12990.0 0.00043999
13010.0 0.00042487
13030.0 0.00040926
13050.0 0.00039391
13070.0 0.00037922
13090.0 0.00036429
13110.0 0.00034969
13130.0 0.00033611
13150.0 0.00032323
13170.0 0.00031074
13190.0 0.00029973
13210.0 0.00029019
13230.0 0.00028173
13250.0 0.00027473
13270.0 0.00026946
13290.0 0.00026568
13310.0 0.00026348
13330.0 0.00026295
13350.0 0.00026387
13370.0 0.00026631
13390.0 0.00027019
13410.0 0.00027487
13430.0 0.00028054
13450.0 0.00028713
13470.0 0.00029404
13490.0 0.00030099
13510.0 0.00030851
13530.0 0.00031576
13550.0 0.00032238
13570.0 0.00032863
13590.0 0.00033447
13610.0 0.00033937
13630.0 0.00034339
13650.0 0.00034683
13670.0 0.00034938
13690.0 0.00035102
13710.0 0.00035193
13730.0 0.00035213
13750.0 0.00035153
13770.0 0.00035031
13790.0 0.00034848
13810.0 0.0003461
13830.0 0.00034332
13850.0 0.00034004
13870.0 0.0003363
13890.0 0.00033229
13910.0 0.00032801
13930.0 0.00032329
13950.0 0.00031834
13970.0 0.00031343
13990.0 0.00030825
14010.0 0.00030291
14030.0 0.00029772
14050.0 0.00029263
14070.0 0.00028741
14090.0 0.00028254
14110.0 0.00027808
14130.0 0.0002739
14150.0 0.0002701
14170.0 0.00026698
14190.0 0.0002644
14210.0 0.00026239
14230.0 0.00026106
14250.0 0.00026042
14270.0 0.00026044
14290.0 0.00026119
14310.0 0.00026252
14330.0 0.00026444
14350.0 0.00026698
14370.0 0.00026996
14390.0 0.00027321
14410.0 0.00027694
14430.0 0.00028096
14450.0 0.00028503
14470.0 0.00028927
14490.0 0.00029386
14510.0 0.00029838
14530.0 0.00030289
14550.0 0.00030772
14570.0 0.00031279
14590.0 0.00031791
14610.0 0.00032348
14630.0 0.00032973
14650.0 0.00033631
14670.0 0.00034336
14690.0 0.00035131
14710.0 0.00036012
14730.0 0.00036908
14750.0 0.00037889
14770.0 0.00038958
14790.0 0.00040049
14810.0 0.00041151
14830.0 0.00042349
14850.0 0.00043532
14870.0 0.00044657
14890.0 0.00045763
14910.0 0.00046834
14930.0 0.00047778
14950.0 0.00048595
14970.0 0.00049311
14990.0 0.00049868
15010.0 0.00050262
15030.0 0.00050526
15050.0 0.00050673
15070.0 0.00050719
15090.0 0.00050701
15110.0 0.00050639
15130.0 0.00050551
15150.0 0.00050455
15170.0 0.00050348
15190.0 0.00050236
15210.0 0.00050128
15230.0 0.00050022
15250.0 0.0004991
15270.0 0.000498
15290.0 0.00049697
15310.0 0.00049591
15330.0 0.00049483
15350.0 0.0004938
15370.0 0.00049278
15390.0 0.00049169
15410.0 0.00049064
15430.0 0.00048963
15450.0 0.00048859
15470.0 0.00048753
15490.0 0.00048653
15510.0 0.00048553
15530.0 0.00048447
15550.0 0.00048345
15570.0 0.00048247
15590.0 0.00048142
15610.0 0.00048036
15630.0 0.00047936
15650.0 0.00047835
15670.0 0.0004773
15690.0 0.00047628
15710.0 0.00047529
15730.0 0.00047424
15750.0 0.00047319
15770.0 0.00047218
15790.0 0.00047115
15810.0 0.00047006
15830.0 0.00046902
15850.0 0.000468
15870.0 0.00046694
15890.0 0.00046586
15910.0 0.00046484
15930.0 0.00046378
15950.0 0.00046266
15970.0 0.00046159
15990.0 0.00046053
16010.0 0.00045942
16030.0 0.00045829
16050.0 0.00045723
16070.0 0.00045613
16090.0 0.00045499
16110.0 0.00045388
16130.0 0.00045279
16150.0 0.0004516
16170.0 0.00045043
16190.0 0.00044931
16210.0 0.00044815
16230.0 0.00044695
16250.0 0.00044579
16270.0 0.00044464
16290.0 0.00044342
16310.0 0.00044221
16330.0 0.00044103
16350.0 0.00043981
16370.0 0.00043852
16390.0 0.00043731
16410.0 0.00043609
16430.0 0.00043481
16450.0 0.00043353
16470.0 0.00043231
16490.0 0.00043101
16510.0 0.00042968
16530.0 0.0004284
16550.0 0.00042711
16570.0 0.00042575
16590.0 0.0004244
16610.0 0.0004231
16630.0 0.00042175
16650.0 0.00042037
16670.0 0.00041902
16690.0 0.00041767
16710.0 0.00041623
16730.0 0.00041483
16750.0 0.00041345
16770.0 0.00041203
16790.0 0.00041056
16810.0 0.00040916
16830.0 0.00040774
16850.0 0.00040626
16870.0 0.0004048
16890.0 0.00040336
16910.0 0.00040185
16930.0 0.00040032
16950.0 0.00039885
16970.0 0.00039736
16990.0 0.00039581
17010.0 0.00039429
17030.0 0.0003928
17050.0 0.00039123
17070.0 0.00038966
17090.0 0.00038812
17110.0 0.00038657
17130.0 0.00038494
17150.0 0.00038336
17170.0 0.0003818
17190.0 0.00038019
17210.0 0.00037856
17230.0 0.00037699
17250.0 0.00037537
17270.0 0.00037369
17290.0 0.00037207
17310.0 0.00037045
17330.0 0.00036877
17350.0 0.00036708
17370.0 0.00036546
17390.0 0.0003638
17410.0 0.0003621
17430.0 0.00036043
17450.0 0.00035878
17470.0 0.00035703
17490.0 0.00035531
17510.0 0.00035364
17530.0 0.00035193
17550.0 0.00035018
17570.0 0.00034848
17590.0 0.00034678
17610.0 0.00034502
17630.0 0.00034328
17650.0 0.00034157
17670.0 0.00033982
17690.0 0.00033802
17710.0 0.00033629
17730.0 0.00033456
17750.0 0.00033278
17770.0 0.00033101
17790.0 0.00032929
17810.0 0.0003275
17830.0 0.0003257
17850.0 0.00032395
17870.0 0.00032219
17890.0 0.00032037
17910.0 0.00031857
17930.0 0.00031683
17950.0 0.00031504
17970.0 0.00031323
17990.0 0.00031147
18010.0 0.00030971
18030.0 0.00030786
18050.0 0.00030607
18070.0 0.00030431
18090.0 0.0003025
18110.0 0.00030067
18130.0 0.00029891
18150.0 0.00029714
18170.0 0.00029531
18190.0 0.00029352
18210.0 0.00029176
18230.0 0.00028994
18250.0 0.00028811
18270.0 0.00028635
18290.0 0.00028456
18310.0 0.00028274
18330.0 0.00028096
18350.0 0.00027921
18370.0 0.0002774
18390.0 0.00027559
18410.0 0.00027384
18430.0 0.00027206
18450.0 0.00027023
18470.0 0.00026846
18490.0 0.00026672
18510.0 0.00026493
18530.0 0.00026314
18550.0 0.00026141
18570.0 0.00025964
18590.0 0.00025784
18610.0 0.00025609
18630.0 0.00025435
18650.0 0.00025257
18670.0 0.00025079
18690.0 0.00024909
18710.0 0.00024734
18730.0 0.00024558
18750.0 0.00024385
18770.0 0.00024215
18790.0 0.00024037
18810.0 0.00023863
18830.0 0.00023694
18850.0 0.00023522
18870.0 0.00023348
18890.0 0.00023179
18910.0 0.00023011
18930.0 0.00022838
18950.0 0.00022667
18970.0 0.00022501
18990.0 0.00022332
19010.0 0.00022158
19030.0 0.00021993
19050.0 0.00021828
19070.0 0.00021658
19090.0 0.00021492
19110.0 0.0002133
19130.0 0.00021163
19150.0 0.00020995
19170.0 0.00020833
19190.0 0.0002067
19210.0 0.00020503
19230.0 0.0002034
19250.0 0.00020181
19270.0 0.00020019
19290.0 0.00019856
19310.0 0.00019698
19330.0 0.00019539
19350.0 0.00019375
19370.0 0.00019216
19390.0 0.0001906
19410.0 0.00018901
19430.0 0.00018741
19450.0 0.00018588
19470.0 0.00018433
19490.0 0.00018275
19510.0 0.0001812
19530.0 0.00017969
19550.0 0.00017812
19570.0 0.00017656
19590.0 0.00017506
19610.0 0.00017355
19630.0 0.00017201
19650.0 0.00017051
19670.0 0.00016904
19690.0 0.00016752
19710.0 0.00016601
19730.0 0.00016455
19750.0 0.00016307
19770.0 0.00016155
19790.0 0.0001601
19810.0 0.00015866
19830.0 0.00015718
19850.0 0.00015571
19870.0 0.00015428
19890.0 0.00015278
19910.0 0.00015121
19930.0 0.0001496
19950.0 0.00014788
19970.0 0.00014592
19990.0 0.00014375
20010.0 0.00014422
20030.0 0.00014153
20050.0 0.00013855
20070.0 0.00013547
20090.0 0.00013228
20110.0 0.00012882
20130.0 0.00012544
20150.0 0.0001222
20170.0 0.00011894
20190.0 0.00011573
20210.0 0.00011276
20230.0 0.00010994
20250.0 0.00010717
20270.0 0.00010464
20290.0 0.00010237
20310.0 0.00010025
20330.0 9.8307e-05
20350.0 9.6713e-05
20370.0 9.5331e-05
20390.0 9.4158e-05
20410.0 9.3252e-05
20430.0 9.2596e-05
20450.0 9.2148e-05
20470.0 9.1937e-05
20490.0 9.1936e-05
20510.0 9.2129e-05
20530.0 9.2523e-05
20550.0 9.3072e-05
20570.0 9.3733e-05
20590.0 9.4551e-05
20610.0 9.5483e-05
20630.0 9.6463e-05
20650.0 9.7524e-05
20670.0 9.8707e-05
20690.0 9.9874e-05
20710.0 0.00010105
20730.0 0.00010228
20750.0 0.00010354
20770.0 0.00010474
20790.0 0.00010598
20810.0 0.00010726
20830.0 0.00010851
20850.0 0.00010974
20870.0 0.00011105
20890.0 0.00011238
20910.0 0.00011366
20930.0 0.00011499
20950.0 0.00011637
20970.0 0.00011773
20990.0 0.00011907
21010.0 0.00012051
21030.0 0.00012192
21050.0 0.00012327
21070.0 0.00012463
21090.0 0.00012601
21110.0 0.00012726
21130.0 0.00012845
21150.0 0.00012961
21170.0 0.00013068
21190.0 0.00013161
21210.0 0.00013248
21230.0 0.00013324
21250.0 0.00013385
21270.0 0.00013432
21290.0 0.00013466
21310.0 0.00013484
21330.0 0.00013485
21350.0 0.00013469
21370.0 0.00013435
21390.0 0.00013383
21410.0 0.00013313
21430.0 0.00013218
21450.0 0.00013106
21470.0 0.00012978
21490.0 0.00012827
21510.0 0.00012656
21530.0 0.00012477
21550.0 0.00012282
21570.0 0.00012068
21590.0 0.0001185
21610.0 0.00011632
21630.0 0.00011406
21650.0 0.00011175
21670.0 0.00010965
21690.0 0.00010761
21710.0 0.00010564
21730.0 0.00010388
21750.0 0.00010235
21770.0 0.00010096
21790.0 9.9831e-05
21810.0 9.8989e-05
21830.0 9.8396e-05
21850.0 9.8069e-05
21870.0 9.8025e-05
21890.0 9.8233e-05
21910.0 9.8709e-05
21930.0 9.944e-05
21950.0 0.00010037
21970.0 0.00010152
21990.0 0.00010295
22010.0 0.00010449
22030.0 0.00010616
22050.0 0.00010802
22070.0 0.00010999
22090.0 0.00011196
22110.0 0.00011404
22130.0 0.00011622
22150.0 0.00011834
22170.0 0.00012041
22190.0 0.00012253
22210.0 0.00012458
22230.0 0.00012642
22250.0 0.0001282
22270.0 0.00012986
22290.0 0.00013129
22310.0 0.00013253
22330.0 0.00013362
22350.0 0.00013445
22370.0 0.00013502
22390.0 0.00013535
22410.0 0.00013542
22430.0 0.0001352
22450.0 0.00013473
22470.0 0.00013397
22490.0 0.00013293
22510.0 0.00013168
22530.0 0.00013012
22550.0 0.00012826
22570.0 0.00012624
22590.0 0.000124
22610.0 0.00012146
22630.0 0.00011875
22650.0 0.00011598
22670.0 0.00011294
22690.0 0.00010973
22710.0 0.0001065
22730.0 0.0001032
22750.0 9.9634e-05
22770.0 9.616e-05
22790.0 9.2779e-05
22810.0 8.9318e-05
22830.0 8.5877e-05
22850.0 8.267e-05
22870.0 7.9543e-05
22890.0 7.6455e-05
22910.0 7.364e-05
22930.0 7.1097e-05
22950.0 6.8719e-05
22970.0 6.6579e-05
22990.0 6.4873e-05
23010.0 6.3438e-05
23030.0 6.2306e-05
23050.0 6.1551e-05
