#lamb flux
1010.0 0.00024046
1030.0 0.00026756
1050.0 0.00030426
1070.0 0.00035914
1090.0 0.00043113
1110.0 0.00050838
1130.0 0.00058913
1150.0 0.00067557
1170.0 0.00076515
1190.0 0.0008489
1210.0 0.00092974
1230.0 0.0010066
1250.0 0.0010778
1270.0 0.0011356
1290.0 0.0011841
1310.0 0.0012179
1330.0 0.0012338
1350.0 0.0012359
1370.0 0.0012261
1390.0 0.0012027
1410.0 0.0011676
1430.0 0.0011269
1450.0 0.0010801
1470.0 0.0010282
1490.0 0.00097517
1510.0 0.00092374
1530.0 0.00087176
1550.0 0.00082194
1570.0 0.00077621
1590.0 0.00073427
1610.0 0.00069759
1630.0 0.00067447
1650.0 0.00065783
1670.0 0.00064718
1690.0 0.00064329
1710.0 0.00064736
1730.0 0.00065912
1750.0 0.00067783
1770.0 0.00070544
1790.0 0.0007423
1810.0 0.00078793
1830.0 0.00084298
1850.0 0.00090944
1870.0 0.00098599
1890.0 0.0010726
1910.0 0.0011706
1930.0 0.00128
1950.0 0.0013988
1970.0 0.0015271
1990.0 0.0016658
2010.0 0.0018122
2030.0 0.0019642
2050.0 0.0021227
2070.0 0.0022861
2090.0 0.0024493
2110.0 0.0026126
2130.0 0.0027756
2150.0 0.0029347
2170.0 0.0030867
2190.0 0.0032345
2210.0 0.0033755
2230.0 0.0035064
2250.0 0.0036286
2270.0 0.0037447
2290.0 0.0038508
2310.0 0.0039468
2330.0 0.0040377
2350.0 0.0041234
2370.0 0.0042029
2390.0 0.0042815
2410.0 0.0043655
2430.0 0.0044542
2450.0 0.0045523
2470.0 0.0046697
2490.0 0.0048116
2510.0 0.0049717
2530.0 0.0051652
2550.0 0.0054084
2570.0 0.0057073
2590.0 0.0060784
2610.0 0.0065863
2630.0 0.0072386
2650.0 0.008012
2670.0 0.0089292
2690.0 0.0099788
2710.0 0.011053
2730.0 0.012107
2750.0 0.013177
2770.0 0.014205
2790.0 0.015183
2810.0 0.016182
2830.0 0.017266
2850.0 0.018367
2870.0 0.019533
2890.0 0.020807
2910.0 0.02215
2930.0 0.023506
2950.0 0.024956
2970.0 0.026485
2990.0 0.028027
3010.0 0.029608
3030.0 0.031284
3050.0 0.033003
3070.0 0.034678
3090.0 0.036384
3110.0 0.03805
3130.0 0.039561
3150.0 0.040881
3170.0 0.041964
3190.0 0.042749
3210.0 0.043319
3230.0 0.043719
3250.0 0.043944
3270.0 0.044106
3290.0 0.044305
3310.0 0.044608
3330.0 0.045026
3350.0 0.045523
3370.0 0.046063
3390.0 0.046241
3410.0 0.046533
3430.0 0.047938
3450.0 0.048931
3470.0 0.049123
3490.0 0.050992
3510.0 0.058489
3530.0 0.072011
3550.0 0.081565
3570.0 0.089193
3590.0 0.10039
3610.0 0.10005
3630.0 0.092206
3650.0 0.096832
3670.0 0.11426
3690.0 0.1282
3710.0 0.13288
3730.0 0.13397
3750.0 0.14309
3770.0 0.14387
3790.0 0.13707
3810.0 0.12922
3830.0 0.12249
3850.0 0.12331
3870.0 0.12877
3890.0 0.13271
3910.0 0.13466
3930.0 0.13474
3950.0 0.1442
3970.0 0.15535
3990.0 0.15104
4010.0 0.13475
4030.0 0.12141
4050.0 0.12039
4070.0 0.12584
4090.0 0.12473
4110.0 0.12004
4130.0 0.11937
4150.0 0.12494
4170.0 0.13807
4190.0 0.14506
4210.0 0.13666
4230.0 0.12572
4250.0 0.11899
4270.0 0.11477
4290.0 0.11552
4310.0 0.11861
4330.0 0.11286
4350.0 0.10002
4370.0 0.089223
4390.0 0.08171
4410.0 0.077583
4430.0 0.079803
4450.0 0.087813
4470.0 0.096444
4490.0 0.10314
4510.0 0.11412
4530.0 0.13412
4550.0 0.15511
4570.0 0.16794
4590.0 0.17896
4610.0 0.18861
4630.0 0.19022
4650.0 0.17653
4670.0 0.15367
4690.0 0.13582
4710.0 0.12986
4730.0 0.12407
4750.0 0.10919
4770.0 0.09766
4790.0 0.10063
4810.0 0.10908
4830.0 0.10665
4850.0 0.094773
4870.0 0.096958
4890.0 0.099446
4910.0 0.10087
4930.0 0.099231
4950.0 0.09737
4970.0 0.093058
4990.0 0.085955
5010.0 0.080915
5030.0 0.079512
5050.0 0.079084
5070.0 0.078954
5090.0 0.078837
5110.0 0.07874
5130.0 0.080344
5150.0 0.084318
5170.0 0.091794
5190.0 0.10165
5210.0 0.10959
5230.0 0.11433
5250.0 0.11698
5270.0 0.12076
5290.0 0.12373
5310.0 0.12308
5330.0 0.11881
5350.0 0.11462
5370.0 0.11476
5390.0 0.11775
5410.0 0.11993
5430.0 0.11895
5450.0 0.11722
5470.0 0.11462
5490.0 0.11197
5510.0 0.11099
5530.0 0.11153
5550.0 0.11269
5570.0 0.11311
5590.0 0.11009
5610.0 0.10457
5630.0 0.099412
5650.0 0.094783
5670.0 0.091554
5690.0 0.087873
5710.0 0.085728
5730.0 0.086114
5750.0 0.085218
5770.0 0.083694
5790.0 0.084467
5810.0 0.086918
5830.0 0.088796
5850.0 0.08932
5870.0 0.087098
5890.0 0.083605
5910.0 0.0805
5930.0 0.076446
5950.0 0.073019
5970.0 0.073413
5990.0 0.075189
6010.0 0.075149
6030.0 0.072573
6050.0 0.072104
6070.0 0.074612
6090.0 0.077167
6110.0 0.076959
6130.0 0.073118
6150.0 0.068085
6170.0 0.0653
6190.0 0.063788
6210.0 0.062453
6230.0 0.061205
6250.0 0.061163
6270.0 0.062902
6290.0 0.06542
6310.0 0.068261
6330.0 0.071253
6350.0 0.073075
6370.0 0.073293
6390.0 0.072881
6410.0 0.073464
6430.0 0.074387
6450.0 0.074352
6470.0 0.074504
6490.0 0.074939
6510.0 0.074916
6530.0 0.074007
6550.0 0.072128
6570.0 0.069831
6590.0 0.06782
6610.0 0.066249
6630.0 0.064955
6650.0 0.062844
6670.0 0.060509
6690.0 0.058704
6710.0 0.05767
6730.0 0.057092
6750.0 0.056538
6770.0 0.055788
6790.0 0.054778
6810.0 0.053798
6830.0 0.053485
6850.0 0.053209
6870.0 0.052754
6890.0 0.052676
6910.0 0.051966
6930.0 0.051097
6950.0 0.050977
6970.0 0.050526
6990.0 0.049476
7010.0 0.048668
7030.0 0.0478
7050.0 0.046889
7070.0 0.045775
7090.0 0.044799
7110.0 0.045449
7130.0 0.046739
7150.0 0.047756
7170.0 0.048374
7190.0 0.048294
7210.0 0.047676
7230.0 0.046899
7250.0 0.046414
7270.0 0.045596
7290.0 0.044919
7310.0 0.044545
7330.0 0.045008
7350.0 0.045138
7370.0 0.044993
7390.0 0.044579
7410.0 0.043888
7430.0 0.043441
7450.0 0.042987
7470.0 0.041684
7490.0 0.040289
7510.0 0.038602
7530.0 0.037246
7550.0 0.036527
7570.0 0.037021
7590.0 0.036785
7610.0 0.036381
7630.0 0.036015
7650.0 0.036198
7670.0 0.036952
7690.0 0.038458
7710.0 0.039492
7730.0 0.040967
7750.0 0.041897
7770.0 0.042655
7790.0 0.042731
7810.0 0.041914
7830.0 0.042044
7850.0 0.041655
7870.0 0.040613
7890.0 0.039245
7910.0 0.038079
7930.0 0.037204
7950.0 0.03667
7970.0 0.036688
7990.0 0.036984
8010.0 0.036883
8030.0 0.036495
8050.0 0.035826
8070.0 0.035174
8090.0 0.034456
8110.0 0.034588
8130.0 0.034894
8150.0 0.034956
8170.0 0.034665
8190.0 0.034205
8210.0 0.032865
8230.0 0.030747
8250.0 0.029443
8270.0 0.028689
8290.0 0.028325
8310.0 0.028454
8330.0 0.029098
8350.0 0.028588
8370.0 0.027967
8390.0 0.028355
8410.0 0.029247
8430.0 0.030756
8450.0 0.032139
8470.0 0.032507
8490.0 0.032808
8510.0 0.032635
8530.0 0.032443
8550.0 0.032691
8570.0 0.032731
8590.0 0.032633
8610.0 0.033529
8630.0 0.033782
8650.0 0.033049
8670.0 0.032985
8690.0 0.033109
8710.0 0.032654
8730.0 0.032376
8750.0 0.031388
8770.0 0.030971
8790.0 0.030638
8810.0 0.030335
8830.0 0.029011
8850.0 0.026926
8870.0 0.025313
8890.0 0.024425
8910.0 0.02293
8930.0 0.02135
8950.0 0.020786
8970.0 0.020634
8990.0 0.020657
9010.0 0.020501
9030.0 0.020354
9050.0 0.020219
9070.0 0.020088
9090.0 0.019957
9110.0 0.019827
9130.0 0.019696
9150.0 0.019566
9170.0 0.019436
9190.0 0.019306
9210.0 0.019176
9230.0 0.019047
9250.0 0.018919
9270.0 0.01879
9290.0 0.018662
9310.0 0.018535
9330.0 0.018407
9350.0 0.018281
9370.0 0.018154
9390.0 0.018028
9410.0 0.017903
9430.0 0.017777
9450.0 0.017651
9470.0 0.017528
9490.0 0.017408
9510.0 0.017284
9530.0 0.017162
9550.0 0.01704
9570.0 0.016919
9590.0 0.016799
9610.0 0.016679
9630.0 0.01656
9650.0 0.016442
9670.0 0.016324
9690.0 0.016207
9710.0 0.016091
9730.0 0.015975
9750.0 0.01586
9770.0 0.015746
9790.0 0.015633
9810.0 0.01552
9830.0 0.015405
9850.0 0.015273
9870.0 0.015166
9890.0 0.015064
9910.0 0.014959
9930.0 0.014848
9950.0 0.014743
9970.0 0.014639
9990.0 0.014531
10010.0 0.014413
10030.0 0.014303
10050.0 0.014206
10070.0 0.014108
10090.0 0.014009
10110.0 0.013905
10130.0 0.01379
10150.0 0.013693
10170.0 0.013597
10190.0 0.013498
10210.0 0.013401
10230.0 0.013306
10250.0 0.013207
10270.0 0.013108
10290.0 0.013014
10310.0 0.012916
10330.0 0.012817
10350.0 0.012722
10370.0 0.012628
10390.0 0.012531
10410.0 0.012436
10430.0 0.012345
10450.0 0.012251
10470.0 0.012156
10490.0 0.012065
10510.0 0.011974
10530.0 0.011879
10550.0 0.011787
10570.0 0.011698
10590.0 0.011607
10610.0 0.011514
10630.0 0.011426
10650.0 0.011338
10670.0 0.011246
10690.0 0.011156
10710.0 0.011069
10730.0 0.01098
10750.0 0.010889
10770.0 0.010803
10790.0 0.010716
10810.0 0.010627
10830.0 0.010539
10850.0 0.010455
10870.0 0.010366
10890.0 0.010279
10910.0 0.010195
10930.0 0.010111
10950.0 0.010027
10970.0 0.0099471
10990.0 0.0098723
11010.0 0.0097889
11030.0 0.0097232
11050.0 0.0096616
11070.0 0.0096006
11090.0 0.0095368
11110.0 0.0094756
11130.0 0.0094144
11150.0 0.0093502
11170.0 0.0092849
11190.0 0.0092216
11210.0 0.0091565
11230.0 0.0090896
11250.0 0.0090253
11270.0 0.0089629
11290.0 0.0088994
11310.0 0.0088375
11330.0 0.008781
11350.0 0.0087251
11370.0 0.0086702
11390.0 0.008619
11410.0 0.0085704
11430.0 0.0085206
11450.0 0.0084728
11470.0 0.0084271
11490.0 0.0083805
11510.0 0.0083321
11530.0 0.0082849
11550.0 0.0082368
11570.0 0.0081852
11590.0 0.0081323
11610.0 0.0080791
11630.0 0.0080221
11650.0 0.0079616
11670.0 0.0079022
11690.0 0.0078417
11710.0 0.0077782
11730.0 0.007715
11750.0 0.0076545
11770.0 0.0075922
11790.0 0.00753
11810.0 0.0074712
11830.0 0.0074141
11850.0 0.0073558
11870.0 0.0073012
11890.0 0.0072505
11910.0 0.0072003
11930.0 0.0071518
11950.0 0.0071075
11970.0 0.0070652
11990.0 0.0070238
12010.0 0.0069863
12030.0 0.0069526
12050.0 0.0069209
12070.0 0.0068921
12090.0 0.0068687
12110.0 0.0068484
12130.0 0.0068316
12150.0 0.0068192
12170.0 0.006811
12190.0 0.0068065
12210.0 0.0068063
12230.0 0.0068101
12250.0 0.0068176
12270.0 0.0068289
12290.0 0.0068431
12310.0 0.0068596
12330.0 0.006879
12350.0 0.0069001
12370.0 0.0069216
12390.0 0.0069438
12410.0 0.0069668
12430.0 0.0069876
12450.0 0.0070065
12470.0 0.0070234
12490.0 0.007037
12510.0 0.0070463
12530.0 0.0070515
12550.0 0.0070514
12570.0 0.0070457
12590.0 0.0070345
12610.0 0.0070163
12630.0 0.0069914
12650.0 0.0069622
12670.0 0.0069262
12690.0 0.0068837
12710.0 0.0068377
12730.0 0.0067881
12750.0 0.0067315
12770.0 0.0066731
12790.0 0.0066142
12810.0 0.0065523
12830.0 0.0064876
12850.0 0.0064256
12870.0 0.006364
12890.0 0.0063004
12910.0 0.0062386
12930.0 0.0061797
12950.0 0.0061195
12970.0 0.0060592
12990.0 0.0060032
13010.0 0.0059483
13030.0 0.0058928
13050.0 0.0058396
13070.0 0.0057899
13090.0 0.0057397
13110.0 0.0056909
13130.0 0.0056459
13150.0 0.0056029
13170.0 0.0055601
13190.0 0.0055213
13210.0 0.0054861
13230.0 0.0054521
13250.0 0.0054201
13270.0 0.0053914
13290.0 0.0053641
13310.0 0.005337
13330.0 0.0053119
13350.0 0.005288
13370.0 0.0052636
13390.0 0.0052387
13410.0 0.005215
13430.0 0.0051904
13450.0 0.0051642
13470.0 0.0051378
13490.0 0.0051113
13510.0 0.005082
13530.0 0.0050519
13550.0 0.0050223
13570.0 0.0049912
13590.0 0.0049584
13610.0 0.004926
13630.0 0.0048938
13650.0 0.0048596
13670.0 0.0048252
13690.0 0.0047916
13710.0 0.004757
13730.0 0.0047204
13750.0 0.0046855
13770.0 0.0046507
13790.0 0.0046143
13810.0 0.0045776
13830.0 0.0045422
13850.0 0.004505
13870.0 0.0044663
13890.0 0.0044283
13910.0 0.00439
13930.0 0.0043492
13950.0 0.0043077
13970.0 0.0042676
13990.0 0.0042254
14010.0 0.0041817
14030.0 0.0041389
14050.0 0.0040959
14070.0 0.00405
14090.0 0.0040054
14110.0 0.0039622
14130.0 0.0039184
14150.0 0.0038743
14170.0 0.0038334
14190.0 0.0037938
14210.0 0.0037541
14230.0 0.0037166
14250.0 0.0036818
14270.0 0.003647
14290.0 0.0036131
14310.0 0.0035822
14330.0 0.0035521
14350.0 0.003522
14370.0 0.0034932
14390.0 0.0034661
14410.0 0.0034384
14430.0 0.0034111
14450.0 0.0033853
14470.0 0.00336
14490.0 0.0033342
14510.0 0.0033101
14530.0 0.0032875
14550.0 0.003265
14570.0 0.0032434
14590.0 0.0032235
14610.0 0.0032041
14630.0 0.0031848
14650.0 0.003167
14670.0 0.0031502
14690.0 0.0031336
14710.0 0.0031177
14730.0 0.0031033
14750.0 0.0030895
14770.0 0.0030763
14790.0 0.0030645
14810.0 0.0030541
14830.0 0.0030445
14850.0 0.0030366
14870.0 0.0030305
14890.0 0.0030259
14910.0 0.0030227
14930.0 0.0030209
14950.0 0.0030199
14970.0 0.0030193
14990.0 0.0030187
15010.0 0.0030177
15030.0 0.0030159
15050.0 0.0030131
15070.0 0.0030096
15090.0 0.0030055
15110.0 0.0030009
15130.0 0.0029959
15150.0 0.002991
15170.0 0.0029857
15190.0 0.0029804
15210.0 0.0029752
15230.0 0.0029699
15250.0 0.0029645
15270.0 0.0029591
15290.0 0.002954
15310.0 0.0029486
15330.0 0.0029433
15350.0 0.002938
15370.0 0.0029328
15390.0 0.0029273
15410.0 0.002922
15430.0 0.0029167
15450.0 0.0029114
15470.0 0.0029059
15490.0 0.0029007
15510.0 0.0028955
15530.0 0.0028901
15550.0 0.0028848
15570.0 0.0028797
15590.0 0.0028743
15610.0 0.0028689
15630.0 0.0028638
15650.0 0.0028586
15670.0 0.0028533
15690.0 0.002848
15710.0 0.002843
15730.0 0.0028377
15750.0 0.0028325
15770.0 0.0028274
15790.0 0.0028223
15810.0 0.002817
15830.0 0.0028119
15850.0 0.002807
15870.0 0.0028019
15890.0 0.0027968
15910.0 0.0027919
15930.0 0.0027869
15950.0 0.0027818
15970.0 0.0027768
15990.0 0.002772
16010.0 0.002767
16030.0 0.002762
16050.0 0.0027573
16070.0 0.0027525
16090.0 0.0027476
16110.0 0.0027428
16130.0 0.0027382
16150.0 0.0027333
16170.0 0.0027285
16190.0 0.0027239
16210.0 0.0027192
16230.0 0.0027145
16250.0 0.0027099
16270.0 0.0027055
16290.0 0.0027008
16310.0 0.0026962
16330.0 0.0026918
16350.0 0.0026874
16370.0 0.0026827
16390.0 0.0026783
16410.0 0.002674
16430.0 0.0026696
16450.0 0.0026652
16470.0 0.002661
16490.0 0.0026566
16510.0 0.0026523
16530.0 0.002648
16550.0 0.0026439
16570.0 0.0026395
16590.0 0.0026353
16610.0 0.0026313
16630.0 0.0026271
16650.0 0.0026229
16670.0 0.0026189
16690.0 0.0026149
16710.0 0.0026107
16730.0 0.0026066
16750.0 0.0026027
16770.0 0.0025986
16790.0 0.0025945
16810.0 0.0025907
16830.0 0.0025868
16850.0 0.0025827
16870.0 0.0025788
16890.0 0.002575
16910.0 0.0025711
16930.0 0.002567
16950.0 0.0025633
16970.0 0.0025594
16990.0 0.0025555
17010.0 0.0025517
17030.0 0.002548
17050.0 0.0025441
17070.0 0.0025402
17090.0 0.0025365
17110.0 0.0025327
17130.0 0.0025287
17150.0 0.002525
17170.0 0.0025213
17190.0 0.0025175
17210.0 0.0025136
17230.0 0.0025099
17250.0 0.0025062
17270.0 0.0025022
17290.0 0.0024985
17310.0 0.0024948
17330.0 0.0024909
17350.0 0.002487
17370.0 0.0024833
17390.0 0.0024795
17410.0 0.0024756
17430.0 0.0024718
17450.0 0.0024681
17470.0 0.002464
17490.0 0.0024601
17510.0 0.0024563
17530.0 0.0024524
17550.0 0.0024484
17570.0 0.0024446
17590.0 0.0024407
17610.0 0.0024367
17630.0 0.0024326
17650.0 0.0024287
17670.0 0.0024247
17690.0 0.0024205
17710.0 0.0024165
17730.0 0.0024125
17750.0 0.0024083
17770.0 0.0024042
17790.0 0.0024001
17810.0 0.0023959
17830.0 0.0023916
17850.0 0.0023874
17870.0 0.0023832
17890.0 0.0023788
17910.0 0.0023744
17930.0 0.0023702
17950.0 0.0023657
17970.0 0.0023613
17990.0 0.0023569
18010.0 0.0023525
18030.0 0.0023478
18050.0 0.0023432
18070.0 0.0023387
18090.0 0.002334
18110.0 0.0023293
18130.0 0.0023247
18150.0 0.00232
18170.0 0.0023151
18190.0 0.0023103
18210.0 0.0023056
18230.0 0.0023006
18250.0 0.0022955
18270.0 0.0022906
18290.0 0.0022857
18310.0 0.0022805
18330.0 0.0022754
18350.0 0.0022704
18370.0 0.0022652
18390.0 0.0022599
18410.0 0.0022547
18430.0 0.0022494
18450.0 0.0022439
18470.0 0.0022385
18490.0 0.0022332
18510.0 0.0022276
18530.0 0.0022221
18550.0 0.0022166
18570.0 0.002211
18590.0 0.0022052
18610.0 0.0021996
18630.0 0.0021939
18650.0 0.002188
18670.0 0.0021821
18690.0 0.0021764
18710.0 0.0021705
18730.0 0.0021644
18750.0 0.0021585
18770.0 0.0021525
18790.0 0.0021463
18810.0 0.0021401
18830.0 0.002134
18850.0 0.0021278
18870.0 0.0021215
18890.0 0.0021152
18910.0 0.002109
18930.0 0.0021025
18950.0 0.0020961
18970.0 0.0020897
18990.0 0.0020832
19010.0 0.0020765
19030.0 0.00207
19050.0 0.0020635
19070.0 0.0020567
19090.0 0.00205
19110.0 0.0020435
19130.0 0.0020366
19150.0 0.0020298
19170.0 0.002023
19190.0 0.0020162
19210.0 0.0020092
19230.0 0.0020022
19250.0 0.0019954
19270.0 0.0019883
19290.0 0.0019813
19310.0 0.0019743
19330.0 0.0019673
19350.0 0.00196
19370.0 0.0019529
19390.0 0.0019458
19410.0 0.0019386
19430.0 0.0019313
19450.0 0.0019241
19470.0 0.0019169
19490.0 0.0019095
19510.0 0.0019023
19530.0 0.001895
19550.0 0.0018876
19570.0 0.0018801
19590.0 0.0018728
19610.0 0.0018654
19630.0 0.001858
19650.0 0.0018505
19670.0 0.0018432
19690.0 0.0018357
19710.0 0.0018281
19730.0 0.0018207
19750.0 0.0018132
19770.0 0.0018056
19790.0 0.0017981
19810.0 0.0017906
19830.0 0.001783
19850.0 0.0017754
19870.0 0.0017678
19890.0 0.0017599
19910.0 0.0017515
19930.0 0.0017428
19950.0 0.0017333
19970.0 0.0017223
19990.0 0.0017098
20010.0 0.0016961
20030.0 0.0016803
20050.0 0.0016625
20070.0 0.0016437
20090.0 0.0016239
20110.0 0.0016023
20130.0 0.0015807
20150.0 0.0015595
20170.0 0.0015378
20190.0 0.0015161
20210.0 0.0014956
20230.0 0.0014755
20250.0 0.0014553
20270.0 0.0014362
20290.0 0.0014182
20310.0 0.0014006
20330.0 0.0013835
20350.0 0.0013681
20370.0 0.0013534
20390.0 0.0013392
20410.0 0.0013261
20430.0 0.0013141
20450.0 0.0013025
20470.0 0.0012917
20490.0 0.0012819
20510.0 0.0012728
20530.0 0.0012642
20550.0 0.0012564
20570.0 0.0012494
20590.0 0.0012427
20610.0 0.0012366
20630.0 0.0012311
20650.0 0.001226
20670.0 0.0012212
20690.0 0.0012167
20710.0 0.0012125
20730.0 0.0012085
20750.0 0.0012045
20770.0 0.0012006
20790.0 0.0011966
20810.0 0.0011924
20830.0 0.001188
20850.0 0.0011833
20870.0 0.0011782
20890.0 0.0011726
20910.0 0.0011667
20930.0 0.0011603
20950.0 0.0011532
20970.0 0.0011458
20990.0 0.001138
21010.0 0.0011294
21030.0 0.0011205
21050.0 0.0011114
21070.0 0.0011018
21090.0 0.0010917
21110.0 0.0010818
21130.0 0.0010717
21150.0 0.0010613
21170.0 0.0010509
21190.0 0.0010409
21210.0 0.0010306
21230.0 0.0010202
21250.0 0.0010103
21270.0 0.0010006
21290.0 0.00099088
21310.0 0.00098145
21330.0 0.00097262
21350.0 0.00096379
21370.0 0.00095513
21390.0 0.00094698
21410.0 0.00093911
21430.0 0.00093112
21450.0 0.00092359
21470.0 0.00091646
21490.0 0.00090936
21510.0 0.00090235
21530.0 0.00089573
21550.0 0.0008892
21570.0 0.00088257
21590.0 0.00087616
21610.0 0.00086995
21630.0 0.00086365
21650.0 0.00085724
21670.0 0.00085122
21690.0 0.00084516
21710.0 0.00083896
21730.0 0.00083289
21750.0 0.000827
21770.0 0.0008208
21790.0 0.00081463
21810.0 0.00080865
21830.0 0.00080261
21850.0 0.00079635
21870.0 0.00079024
21890.0 0.00078428
21910.0 0.00077807
21930.0 0.00077183
21950.0 0.00076578
21970.0 0.00075963
21990.0 0.00075318
22010.0 0.00074702
22030.0 0.00074095
22050.0 0.00073471
22070.0 0.00072849
22090.0 0.00072261
22110.0 0.00071665
22130.0 0.00071064
22150.0 0.00070492
22170.0 0.00069941
22190.0 0.0006938
22210.0 0.00068839
22230.0 0.00068344
22250.0 0.00067856
22270.0 0.00067378
22290.0 0.00066938
22310.0 0.00066524
22330.0 0.00066108
22350.0 0.00065722
22370.0 0.00065367
22390.0 0.00065021
22410.0 0.0006468
22430.0 0.00064373
22450.0 0.00064081
22470.0 0.00063789
22490.0 0.00063511
22510.0 0.00063255
22530.0 0.00062994
22550.0 0.00062735
22570.0 0.00062498
22590.0 0.00062268
22610.0 0.00062034
22630.0 0.00061813
22650.0 0.00061613
22670.0 0.00061411
22690.0 0.00061215
22710.0 0.00061041
22730.0 0.00060879
22750.0 0.00060716
22770.0 0.00060578
22790.0 0.00060463
22810.0 0.00060359
22830.0 0.00060272
22850.0 0.00060215
22870.0 0.00060178
22890.0 0.0006016
22910.0 0.00060174
22930.0 0.00060219
22950.0 0.00060293
22970.0 0.00060401
22990.0 0.00060547
23010.0 0.00060727
23030.0 0.00060946
23050.0 0.00061201
23070.0 0.00061487
23090.0 0.00061817
23110.0 0.0006218
23130.0 0.00062568
23150.0 0.00062985
23170.0 0.00063438
23190.0 0.00063906
23210.0 0.00064386
23230.0 0.00064896
23250.0 0.00065421
23270.0 0.00065948
23290.0 0.00066491
23310.0 0.00067059
23330.0 0.00067618
23350.0 0.00068178
23370.0 0.00068753
23390.0 0.00069331
23410.0 0.00069896
23430.0 0.00070471
23450.0 0.00071077
23470.0 0.00071679
23490.0 0.00072279
23510.0 0.00072896
23530.0 0.00073513
23550.0 0.00074118
23570.0 0.00074734
23590.0 0.0007536
23610.0 0.00075979
23630.0 0.00076602
23650.0 0.00077246
23670.0 0.00077893
23690.0 0.00078543
23710.0 0.00079214
23730.0 0.00079911
23750.0 0.0008061
23770.0 0.00081328
23790.0 0.00082081
23810.0 0.00082852
23830.0 0.00083632
23850.0 0.00084451
23870.0 0.00085298
23890.0 0.00086145
23910.0 0.0008701
23930.0 0.00087903
23950.0 0.000888
23970.0 0.00089686
23990.0 0.00090594
24010.0 0.00091504
24030.0 0.00092392
24050.0 0.00093271
24070.0 0.00094156
24090.0 0.00095004
24110.0 0.00095819
24130.0 0.00096621
24150.0 0.00097397
24170.0 0.00098134
