#lamb flux
1010.0 1.3558e-05
1030.0 1.4449e-05
1050.0 1.6243e-05
1070.0 1.8256e-05
1090.0 2.036e-05
1110.0 2.2524e-05
1130.0 2.4698e-05
1150.0 2.6973e-05
1170.0 2.9299e-05
1190.0 3.1449e-05
1210.0 3.357e-05
1230.0 3.5687e-05
1250.0 3.7695e-05
1270.0 3.9524e-05
1290.0 4.1356e-05
1310.0 4.3061e-05
1330.0 4.4558e-05
1350.0 4.5984e-05
1370.0 4.7408e-05
1390.0 4.8738e-05
1410.0 5.0009e-05
1430.0 5.1411e-05
1450.0 5.2893e-05
1470.0 5.4433e-05
1490.0 5.6157e-05
1510.0 5.8191e-05
1530.0 6.0352e-05
1550.0 6.2752e-05
1570.0 6.5508e-05
1590.0 6.858e-05
1610.0 7.1904e-05
1630.0 7.5695e-05
1650.0 7.9899e-05
1670.0 8.4388e-05
1690.0 8.9193e-05
1710.0 9.4416e-05
1730.0 9.9961e-05
1750.0 0.00010562
1770.0 0.00011156
1790.0 0.00011772
1810.0 0.00012387
1830.0 0.00012998
1850.0 0.00013618
1870.0 0.00014214
1890.0 0.00014773
1910.0 0.00015301
1930.0 0.00015792
1950.0 0.00016216
1970.0 0.00016574
1990.0 0.00016878
2010.0 0.00017107
2030.0 0.00017251
2050.0 0.00017332
2070.0 0.00017349
2090.0 0.0001728
2110.0 0.00017148
2130.0 0.00016967
2150.0 0.00016731
2170.0 0.00016444
2190.0 0.00016134
2210.0 0.00015803
2230.0 0.00015449
2250.0 0.00015088
2270.0 0.00014739
2290.0 0.00014394
2310.0 0.00014056
2330.0 0.00013747
2350.0 0.00013467
2370.0 0.00013212
2390.0 0.00012996
2410.0 0.0001283
2430.0 0.00012708
2450.0 0.00012636
2470.0 0.00012631
2490.0 0.00012702
2510.0 0.00012836
2530.0 0.00013076
2550.0 0.00013475
2570.0 0.00014076
2590.0 0.00014948
2610.0 0.00016296
2630.0 0.00018174
2650.0 0.00020514
2670.0 0.00023381
2690.0 0.00026724
2710.0 0.00030158
2730.0 0.0003349
2750.0 0.00036769
2770.0 0.00039743
2790.0 0.00042364
2810.0 0.0004482
2830.0 0.00047276
2850.0 0.00049675
2870.0 0.00052188
2890.0 0.00054942
2910.0 0.00057912
2930.0 0.00061024
2950.0 0.00064428
2970.0 0.00068108
2990.0 0.0007195
3010.0 0.00086115
3030.0 0.00091042
3050.0 0.00096184
3070.0 0.0010131
3090.0 0.0010649
3110.0 0.0011145
3130.0 0.0011578
3150.0 0.0011933
3170.0 0.0012158
3190.0 0.0012544
3210.0 0.0013835
3230.0 0.0015833
3250.0 0.0016663
3270.0 0.0015788
3290.0 0.0014401
3310.0 0.0013677
3330.0 0.001338
3350.0 0.0013358
3370.0 0.0013429
3390.0 0.0013593
3410.0 0.0013679
3430.0 0.0013252
3450.0 0.0013099
3470.0 0.0013057
3490.0 0.0014619
3510.0 0.0019249
3530.0 0.0023882
3550.0 0.0027213
3570.0 0.0030374
3590.0 0.00322
3610.0 0.003199
3630.0 0.0031414
3650.0 0.0033025
3670.0 0.0037691
3690.0 0.0043382
3710.0 0.0048404
3730.0 0.0052586
3750.0 0.005631
3770.0 0.0055634
3790.0 0.0051776
3810.0 0.0047913
3830.0 0.0044167
3850.0 0.0042647
3870.0 0.0044681
3890.0 0.004907
3910.0 0.0053565
3930.0 0.0058437
3950.0 0.006554
3970.0 0.0070674
3990.0 0.0068497
4010.0 0.0062166
4030.0 0.0054625
4050.0 0.0050027
4070.0 0.0048053
4090.0 0.004709
4110.0 0.0047738
4130.0 0.0047791
4150.0 0.0048004
4170.0 0.0050003
4190.0 0.0053369
4210.0 0.0053314
4230.0 0.0052537
4250.0 0.0052676
4270.0 0.0054201
4290.0 0.0057032
4310.0 0.0059718
4330.0 0.005814
4350.0 0.0053024
4370.0 0.0047999
4390.0 0.0043005
4410.0 0.0038022
4430.0 0.0036051
4450.0 0.003678
4470.0 0.0038336
4490.0 0.0040992
4510.0 0.0046775
4530.0 0.0058768
4550.0 0.0076577
4570.0 0.0089499
4590.0 0.0098763
4610.0 0.01123
4630.0 0.012269
4650.0 0.011877
4670.0 0.010382
4690.0 0.0088118
4710.0 0.007728
4730.0 0.0070231
4750.0 0.0063337
4770.0 0.005819
4790.0 0.0059919
4810.0 0.0064654
4830.0 0.0066541
4850.0 0.0065082
4870.0 0.0066678
4890.0 0.0071276
4910.0 0.0075466
4930.0 0.0078176
4950.0 0.0078642
4970.0 0.007548
4990.0 0.0068897
5010.0 0.006167
5030.0 0.0055629
5050.0 0.0051622
5070.0 0.0048905
5090.0 0.0046801
5110.0 0.0046162
5130.0 0.0046143
5150.0 0.0046908
5170.0 0.0050366
5190.0 0.0055953
5210.0 0.0063155
5230.0 0.0069455
5250.0 0.007476
5270.0 0.0080721
5290.0 0.0086934
5310.0 0.0090682
5330.0 0.0090786
5350.0 0.0088523
5370.0 0.0087945
5390.0 0.0091216
5410.0 0.0097516
5430.0 0.01041
5450.0 0.010963
5470.0 0.011311
5490.0 0.011343
5510.0 0.011221
5530.0 0.011091
5550.0 0.010963
5570.0 0.010757
5590.0 0.010508
5610.0 0.010199
5630.0 0.0097167
5650.0 0.0090409
5670.0 0.0084229
5690.0 0.0080629
5710.0 0.0078673
5730.0 0.0076323
5750.0 0.0074765
5770.0 0.0074651
5790.0 0.0075387
5810.0 0.0075397
5830.0 0.0075546
5850.0 0.0075707
5870.0 0.0074192
5890.0 0.0072309
5910.0 0.006993
5930.0 0.0064827
5950.0 0.0058777
5970.0 0.0054499
5990.0 0.00525
6010.0 0.0051317
6030.0 0.00496
6050.0 0.0048734
6070.0 0.0050686
6090.0 0.0053556
6110.0 0.0054955
6130.0 0.0054491
6150.0 0.0053433
6170.0 0.0052859
6190.0 0.005223
6210.0 0.0050442
6230.0 0.0047043
6250.0 0.0043747
6270.0 0.0041784
6290.0 0.0040514
6310.0 0.004142
6330.0 0.0044911
6350.0 0.0049299
6370.0 0.0052453
6390.0 0.0055004
6410.0 0.0058043
6430.0 0.0060374
6450.0 0.006201
6470.0 0.0063601
6490.0 0.0065166
6510.0 0.0066268
6530.0 0.0066714
6550.0 0.0067093
6570.0 0.0066175
6590.0 0.0063751
6610.0 0.0061401
6630.0 0.005936
6650.0 0.0056711
6670.0 0.0053579
6690.0 0.0051137
6710.0 0.0049682
6730.0 0.0048224
6750.0 0.0047154
6770.0 0.0047117
6790.0 0.0047152
6810.0 0.004635
6830.0 0.0045421
6850.0 0.0045699
6870.0 0.0045943
6890.0 0.0045151
6910.0 0.0044733
6930.0 0.0044477
6950.0 0.0043671
6970.0 0.00425
6990.0 0.00413
7010.0 0.004027
7030.0 0.0038989
7050.0 0.0036746
7070.0 0.0034336
7090.0 0.0033881
7110.0 0.003512
7130.0 0.0036475
7150.0 0.0037452
7170.0 0.003856
7190.0 0.0039491
7210.0 0.0039342
7230.0 0.0039291
7250.0 0.0040007
7270.0 0.003966
7290.0 0.0038865
7310.0 0.0038889
7330.0 0.0040047
7350.0 0.0041778
7370.0 0.004289
7390.0 0.0043658
7410.0 0.0044437
7430.0 0.0044452
7450.0 0.0043802
7470.0 0.004299
7490.0 0.0041246
7510.0 0.0039466
7530.0 0.0038914
7550.0 0.0038391
7570.0 0.0037895
7590.0 0.0037947
7610.0 0.0037898
7630.0 0.0038059
7650.0 0.0039462
7670.0 0.0041431
7690.0 0.0043298
7710.0 0.0044648
7730.0 0.0045858
7750.0 0.0047075
7770.0 0.0048225
7790.0 0.0049242
7810.0 0.0049538
7830.0 0.0048368
7850.0 0.0046571
7870.0 0.0044735
7890.0 0.00431
7910.0 0.0042423
7930.0 0.0041691
7950.0 0.0040709
7970.0 0.0039596
7990.0 0.0039007
8010.0 0.0036601
8030.0 0.003636
8050.0 0.0036052
8070.0 0.003551
8090.0 0.0035018
8110.0 0.0034806
8130.0 0.0034828
8150.0 0.0034581
8170.0 0.0034147
8190.0 0.0033103
8210.0 0.003131
8230.0 0.0029639
8250.0 0.0028843
8270.0 0.0027643
8290.0 0.0025444
8310.0 0.002329
8330.0 0.0021895
8350.0 0.0021186
8370.0 0.0021817
8390.0 0.0023477
8410.0 0.0025026
8430.0 0.002656
8450.0 0.0028543
8470.0 0.0030292
8490.0 0.0032209
8510.0 0.0034115
8530.0 0.0035977
8550.0 0.003746
8570.0 0.0038537
8590.0 0.0039364
8610.0 0.0040183
8630.0 0.0040312
8650.0 0.0039534
8670.0 0.0039557
8690.0 0.0040899
8710.0 0.004265
8730.0 0.004317
8750.0 0.0042463
8770.0 0.0042424
8790.0 0.0042328
8810.0 0.0041097
8830.0 0.0038079
8850.0 0.0034383
8870.0 0.0031686
8890.0 0.0030648
8910.0 0.0029491
8930.0 0.0027434
8950.0 0.0025646
8970.0 0.0025057
8990.0 0.0025295
9010.0 0.002523
9030.0 0.0024949
9050.0 0.0024746
9070.0 0.002461
9090.0 0.0024485
9110.0 0.0024362
9130.0 0.0024239
9150.0 0.0024118
9170.0 0.0023997
9190.0 0.0023882
9210.0 0.0023776
9230.0 0.0023653
9250.0 0.0023534
9270.0 0.0023418
9290.0 0.0023304
9310.0 0.0023191
9330.0 0.0023079
9350.0 0.0022969
9370.0 0.0022861
9390.0 0.0022753
9410.0 0.0022646
9430.0 0.0022536
9450.0 0.0022406
9470.0 0.0022284
9490.0 0.0022204
9510.0 0.0022113
9530.0 0.002202
9550.0 0.0021924
9570.0 0.0021826
9590.0 0.002173
9610.0 0.0021633
9630.0 0.0021536
9650.0 0.002144
9670.0 0.0021346
9690.0 0.0021251
9710.0 0.0021157
9730.0 0.0021064
9750.0 0.0020972
9770.0 0.0020878
9790.0 0.0020786
9810.0 0.0020696
9830.0 0.0020604
9850.0 0.0020509
9870.0 0.0020421
9890.0 0.0020332
9910.0 0.0020242
9930.0 0.0020152
9950.0 0.0020044
9970.0 0.0019959
9990.0 0.0019872
10010.0 0.0019783
10030.0 0.0019694
10050.0 0.0019607
10070.0 0.001952
10090.0 0.0019434
10110.0 0.0019336
10130.0 0.0019204
10150.0 0.0019121
10170.0 0.0019044
10190.0 0.0018957
10210.0 0.0018872
10230.0 0.0018786
10250.0 0.0018692
10270.0 0.0018597
10290.0 0.0018506
10310.0 0.0018409
10330.0 0.0018306
10350.0 0.0018209
10370.0 0.0018112
10390.0 0.0018009
10410.0 0.0017905
10430.0 0.0017808
10450.0 0.0017704
10470.0 0.0017596
10490.0 0.0017492
10510.0 0.0017387
10530.0 0.0017273
10550.0 0.0017161
10570.0 0.0017054
10590.0 0.001694
10610.0 0.0016822
10630.0 0.001671
10650.0 0.0016595
10670.0 0.0016472
10690.0 0.0016351
10710.0 0.0016232
10730.0 0.0016107
10750.0 0.0015975
10770.0 0.0015852
10790.0 0.0015726
10810.0 0.0015592
10830.0 0.001546
10850.0 0.0015332
10870.0 0.0015191
10890.0 0.001505
10910.0 0.0014914
10930.0 0.0014775
10950.0 0.0014629
10970.0 0.0014486
10990.0 0.001435
11010.0 0.0014114
11030.0 0.0013961
11050.0 0.0013817
11070.0 0.0013675
11090.0 0.0013529
11110.0 0.0013396
11130.0 0.001327
11150.0 0.0013145
11170.0 0.0013025
11190.0 0.0012917
11210.0 0.0012811
11230.0 0.0012709
11250.0 0.0012616
11270.0 0.0012532
11290.0 0.0012449
11310.0 0.0012373
11330.0 0.0012306
11350.0 0.0012241
11370.0 0.0012178
11390.0 0.0012119
11410.0 0.0012062
11430.0 0.0012
11450.0 0.0011937
11470.0 0.0011873
11490.0 0.0011803
11510.0 0.0011724
11530.0 0.0011643
11550.0 0.0011555
11570.0 0.0011457
11590.0 0.0011352
11610.0 0.0011243
11630.0 0.0011123
11650.0 0.0010993
11670.0 0.0010861
11690.0 0.0010722
11710.0 0.0010571
11730.0 0.0010415
11750.0 0.0010259
11770.0 0.0010089
11790.0 0.0009911
11810.0 0.00097319
11830.0 0.00095475
11850.0 0.00093484
11870.0 0.00091505
11890.0 0.00089559
11910.0 0.00087542
11930.0 0.00085502
11950.0 0.00083554
11970.0 0.00081622
11990.0 0.00079661
12010.0 0.0007781
12030.0 0.00076066
12050.0 0.00074353
12070.0 0.00072697
12090.0 0.00071226
12110.0 0.00069827
12130.0 0.00068495
12150.0 0.00067296
12170.0 0.00066232
12190.0 0.00065227
12210.0 0.00064352
12230.0 0.00063624
12250.0 0.00063006
12270.0 0.00062501
12290.0 0.00062127
12310.0 0.00061868
12330.0 0.00061711
12350.0 0.00061656
12370.0 0.00061682
12390.0 0.00061781
12410.0 0.00061961
12430.0 0.00062171
12450.0 0.0006241
12470.0 0.00062687
12490.0 0.00062977
12510.0 0.00063251
12530.0 0.00063534
12550.0 0.00063815
12570.0 0.0006406
12590.0 0.00064272
12610.0 0.00064462
12630.0 0.00064599
12650.0 0.00064663
12670.0 0.0006467
12690.0 0.00064602
12710.0 0.00064449
12730.0 0.00064212
12750.0 0.00063878
12770.0 0.00063453
12790.0 0.00062951
12810.0 0.00062362
12830.0 0.00061686
12850.0 0.00060973
12870.0 0.00060219
12890.0 0.00059408
12910.0 0.00058586
12930.0 0.00057779
12950.0 0.0005695
12970.0 0.00056123
12990.0 0.00055348
13010.0 0.00054598
13030.0 0.00053859
13050.0 0.00053161
13070.0 0.00052514
13090.0 0.00051877
13110.0 0.00051266
13130.0 0.000507
13150.0 0.0005016
13170.0 0.00049626
13190.0 0.00049132
13210.0 0.00048673
13230.0 0.00048226
13250.0 0.000478
13270.0 0.00047405
13290.0 0.00047025
13310.0 0.00046651
13330.0 0.00046298
13350.0 0.00045959
13370.0 0.00045619
13390.0 0.00045277
13410.0 0.00044947
13430.0 0.00044608
13450.0 0.00044255
13470.0 0.00043897
13490.0 0.00043535
13510.0 0.00043142
13530.0 0.00042737
13550.0 0.00042331
13570.0 0.00041907
13590.0 0.00041461
13610.0 0.00041016
13630.0 0.00040574
13650.0 0.0004011
13670.0 0.00039646
13690.0 0.00039194
13710.0 0.00038737
13730.0 0.00038263
13750.0 0.00037817
13770.0 0.00037379
13790.0 0.00036934
13810.0 0.00036498
13830.0 0.00036087
13850.0 0.00035672
13870.0 0.00035262
13890.0 0.00034876
13910.0 0.00034508
13930.0 0.00034142
13950.0 0.00033796
13970.0 0.00033484
13990.0 0.00033182
14010.0 0.00032896
14030.0 0.00032637
14050.0 0.00032396
14070.0 0.00032161
14090.0 0.00031948
14110.0 0.00031752
14130.0 0.00031565
14150.0 0.00031383
14170.0 0.00031218
14190.0 0.0003106
14210.0 0.00030903
14230.0 0.00030753
14250.0 0.00030613
14270.0 0.00030471
14290.0 0.00030331
14310.0 0.000302
14330.0 0.00030071
14350.0 0.00029941
14370.0 0.00029815
14390.0 0.00029695
14410.0 0.00029572
14430.0 0.00029451
14450.0 0.00029335
14470.0 0.00029221
14490.0 0.00029103
14510.0 0.0002899
14530.0 0.00028882
14550.0 0.0002877
14570.0 0.00028656
14590.0 0.00028545
14610.0 0.0002843
14630.0 0.00028308
14650.0 0.0002819
14670.0 0.00028076
14690.0 0.00027965
14710.0 0.00027865
14730.0 0.00027792
14750.0 0.00027745
14770.0 0.00027736
14790.0 0.00027777
14810.0 0.00027873
14830.0 0.00028042
14850.0 0.00028287
14870.0 0.00028598
14890.0 0.00028985
14910.0 0.00029446
14930.0 0.00029935
14950.0 0.00030432
14970.0 0.00030937
14990.0 0.00031399
15010.0 0.00031788
15030.0 0.00032114
15050.0 0.00032375
15070.0 0.00032561
15090.0 0.00032701
15110.0 0.00032811
15130.0 0.00032899
15150.0 0.00032977
15170.0 0.0003305
15190.0 0.00033122
15210.0 0.00033194
15230.0 0.00033267
15250.0 0.00033342
15270.0 0.00033418
15290.0 0.00033496
15310.0 0.00033576
15330.0 0.00033656
15350.0 0.00033739
15370.0 0.00033823
15390.0 0.00033908
15410.0 0.00033995
15430.0 0.00034084
15450.0 0.00034174
15470.0 0.00034265
15490.0 0.00034358
15510.0 0.00034452
15530.0 0.00034547
15550.0 0.00034644
15570.0 0.00034742
15590.0 0.00034841
15610.0 0.00034942
15630.0 0.00035043
15650.0 0.00035147
15670.0 0.00035251
15690.0 0.00035356
15710.0 0.00035463
15730.0 0.0003557
15750.0 0.00035679
15770.0 0.00035789
15790.0 0.000359
15810.0 0.00036011
15830.0 0.00036124
15850.0 0.00036238
15870.0 0.00036352
15890.0 0.00036468
15910.0 0.00036584
15930.0 0.00036701
15950.0 0.00036819
15970.0 0.00036938
15990.0 0.00037057
16010.0 0.00037177
16030.0 0.00037298
16050.0 0.00037419
16070.0 0.00037541
16090.0 0.00037663
16110.0 0.00037786
16130.0 0.00037909
16150.0 0.00038033
16170.0 0.00038157
16190.0 0.00038281
16210.0 0.00038406
16230.0 0.00038531
16250.0 0.00038656
16270.0 0.00038782
16290.0 0.00038907
16310.0 0.00039032
16330.0 0.00039158
16350.0 0.00039283
16370.0 0.00039409
16390.0 0.00039534
16410.0 0.00039659
16430.0 0.00039784
16450.0 0.00039909
16470.0 0.00040034
16490.0 0.00040158
16510.0 0.00040282
16530.0 0.00040405
16550.0 0.00040528
16570.0 0.00040651
16590.0 0.00040772
16610.0 0.00040894
16630.0 0.00041015
16650.0 0.00041134
16670.0 0.00041254
16690.0 0.00041372
16710.0 0.0004149
16730.0 0.00041606
16750.0 0.00041722
16770.0 0.00041837
16790.0 0.00041951
16810.0 0.00042063
16830.0 0.00042175
16850.0 0.00042285
16870.0 0.00042394
16890.0 0.00042502
16910.0 0.00042609
16930.0 0.00042714
16950.0 0.00042818
16970.0 0.0004292
16990.0 0.00043021
17010.0 0.00043121
17030.0 0.00043219
17050.0 0.00043315
17070.0 0.00043409
17090.0 0.00043502
17110.0 0.00043593
17130.0 0.00043682
17150.0 0.00043769
17170.0 0.00043855
17190.0 0.00043939
17210.0 0.0004402
17230.0 0.000441
17250.0 0.00044178
17270.0 0.00044253
17290.0 0.00044326
17310.0 0.00044398
17330.0 0.00044467
17350.0 0.00044534
17370.0 0.00044598
17390.0 0.00044661
17410.0 0.00044721
17430.0 0.00044778
17450.0 0.00044834
17470.0 0.00044886
17490.0 0.00044937
17510.0 0.00044985
17530.0 0.0004503
17550.0 0.00045073
17570.0 0.00045114
17590.0 0.00045152
17610.0 0.00045187
17630.0 0.00045219
17650.0 0.00045249
17670.0 0.00045277
17690.0 0.00045301
17710.0 0.00045323
17730.0 0.00045343
17750.0 0.00045359
17770.0 0.00045373
17790.0 0.00045384
17810.0 0.00045392
17830.0 0.00045397
17850.0 0.000454
17870.0 0.000454
17890.0 0.00045397
17910.0 0.00045391
17930.0 0.00045383
17950.0 0.00045371
17970.0 0.00045357
17990.0 0.0004534
18010.0 0.0004532
18030.0 0.00045297
18050.0 0.00045271
18070.0 0.00045243
18090.0 0.00045212
18110.0 0.00045177
18130.0 0.0004514
18150.0 0.00045101
18170.0 0.00045058
18190.0 0.00045012
18210.0 0.00044964
18230.0 0.00044913
18250.0 0.00044859
18270.0 0.00044802
18290.0 0.00044743
18310.0 0.00044681
18330.0 0.00044616
18350.0 0.00044548
18370.0 0.00044478
18390.0 0.00044404
18410.0 0.00044329
18430.0 0.0004425
18450.0 0.00044169
18470.0 0.00044085
18490.0 0.00043999
18510.0 0.0004391
18530.0 0.00043819
18550.0 0.00043725
18570.0 0.00043628
18590.0 0.00043529
18610.0 0.00043428
18630.0 0.00043324
18650.0 0.00043218
18670.0 0.00043109
18690.0 0.00042998
18710.0 0.00042885
18730.0 0.00042769
18750.0 0.00042651
18770.0 0.00042531
18790.0 0.00042408
18810.0 0.00042283
18830.0 0.00042157
18850.0 0.00042028
18870.0 0.00041897
18890.0 0.00041764
18910.0 0.00041629
18930.0 0.00041492
18950.0 0.00041352
18970.0 0.00041212
18990.0 0.00041069
19010.0 0.00040924
19030.0 0.00040777
19050.0 0.00040629
19070.0 0.00040479
19090.0 0.00040327
19110.0 0.00040174
19130.0 0.00040019
19150.0 0.00039862
19170.0 0.00039704
19190.0 0.00039544
19210.0 0.00039382
19230.0 0.0003922
19250.0 0.00039055
19270.0 0.0003889
19290.0 0.00038723
19310.0 0.00038554
19330.0 0.00038385
19350.0 0.00038214
19370.0 0.00038042
19390.0 0.00037869
19410.0 0.00037695
19430.0 0.00037519
19450.0 0.00037343
19470.0 0.00037165
19490.0 0.00036987
19510.0 0.00036807
19530.0 0.00036627
19550.0 0.00036446
19570.0 0.00036263
19590.0 0.00036081
19610.0 0.00035897
19630.0 0.00035712
19650.0 0.00035527
19670.0 0.00035342
19690.0 0.00035155
19710.0 0.00034968
19730.0 0.00034781
19750.0 0.00034592
19770.0 0.00034404
19790.0 0.00034215
19810.0 0.00034025
19830.0 0.00033834
19850.0 0.00033642
19870.0 0.00033446
19890.0 0.00033245
19910.0 0.00033031
19930.0 0.00032801
19950.0 0.00032545
19970.0 0.00032249
19990.0 0.00031906
20010.0 0.00031523
20030.0 0.00031083
20050.0 0.0003059
20070.0 0.00030069
20090.0 0.00029524
20110.0 0.00028937
20130.0 0.00028355
20150.0 0.00027786
20170.0 0.00027212
20190.0 0.0002664
20210.0 0.00026097
20230.0 0.00025567
20250.0 0.00025037
20270.0 0.00024532
20290.0 0.00024054
20310.0 0.00023587
20330.0 0.00023131
20350.0 0.00022717
20370.0 0.00022321
20390.0 0.0002194
20410.0 0.00021587
20430.0 0.00021263
20450.0 0.00020952
20470.0 0.00020664
20490.0 0.00020404
20510.0 0.00020162
20530.0 0.00019937
20550.0 0.00019733
20570.0 0.00019547
20590.0 0.00019374
20610.0 0.00019214
20630.0 0.00019067
20650.0 0.00018929
20670.0 0.00018798
20690.0 0.00018674
20710.0 0.00018554
20730.0 0.00018436
20750.0 0.00018318
20770.0 0.00018199
20790.0 0.00018077
20810.0 0.00017952
20830.0 0.00017821
20850.0 0.00017686
20870.0 0.00017542
20890.0 0.00017392
20910.0 0.00017235
20930.0 0.00017071
20950.0 0.00016898
20970.0 0.0001672
20990.0 0.00016537
21010.0 0.00016345
21030.0 0.00016149
21050.0 0.00015951
21070.0 0.00015748
21090.0 0.00015538
21110.0 0.00015332
21130.0 0.00015125
21150.0 0.00014915
21170.0 0.00014706
21190.0 0.00014501
21210.0 0.00014294
21230.0 0.00014087
21250.0 0.00013887
21270.0 0.0001369
21290.0 0.00013493
21310.0 0.00013301
21330.0 0.00013117
21350.0 0.00012934
21370.0 0.00012756
21390.0 0.00012585
21410.0 0.0001242
21430.0 0.00012256
21450.0 0.00012102
21470.0 0.00011956
21490.0 0.00011814
21510.0 0.00011678
21530.0 0.0001155
21550.0 0.00011428
21570.0 0.00011311
21590.0 0.000112
21610.0 0.00011095
21630.0 0.00010995
21650.0 0.00010898
21670.0 0.00010805
21690.0 0.00010716
21710.0 0.00010629
21730.0 0.00010544
21750.0 0.00010461
21770.0 0.00010379
21790.0 0.00010298
21810.0 0.00010218
21830.0 0.00010138
21850.0 0.00010058
21870.0 9.9785e-05
21890.0 9.899e-05
21910.0 9.8192e-05
21930.0 9.7391e-05
21950.0 9.659e-05
21970.0 9.5785e-05
21990.0 9.4968e-05
22010.0 9.4151e-05
22030.0 9.3328e-05
22050.0 9.2491e-05
22070.0 9.1641e-05
22090.0 9.0788e-05
22110.0 8.9915e-05
22130.0 8.9021e-05
22150.0 8.8116e-05
22170.0 8.7199e-05
22190.0 8.6249e-05
22210.0 8.5279e-05
22230.0 8.431e-05
22250.0 8.3313e-05
22270.0 8.2289e-05
22290.0 8.1262e-05
22310.0 8.0226e-05
22330.0 7.9149e-05
22350.0 7.8067e-05
22370.0 7.6988e-05
22390.0 7.5886e-05
22410.0 7.4753e-05
22430.0 7.3642e-05
22450.0 7.2528e-05
22470.0 7.1385e-05
22490.0 7.0246e-05
22510.0 6.913e-05
22530.0 6.7987e-05
22550.0 6.6835e-05
22570.0 6.5722e-05
22590.0 6.4619e-05
22610.0 6.3507e-05
22630.0 6.2423e-05
22650.0 6.1388e-05
22670.0 6.0353e-05
22690.0 5.9339e-05
22710.0 5.8379e-05
22730.0 5.7452e-05
22750.0 5.653e-05
22770.0 5.5667e-05
22790.0 5.4857e-05
22810.0 5.4071e-05
22830.0 5.332e-05
22850.0 5.2624e-05
22870.0 5.196e-05
22890.0 5.1318e-05
22910.0 5.0719e-05
22930.0 5.0157e-05
22950.0 4.9614e-05
22970.0 4.9092e-05
22990.0 4.8607e-05
23010.0 4.8139e-05
23030.0 4.7682e-05
23050.0 4.7245e-05
23070.0 4.6826e-05
23090.0 4.6408e-05
23110.0 4.6002e-05
