#lamb flux
1010.0 3.6618e-07
1030.0 3.9256e-07
1050.0 4.2299e-07
1070.0 4.5728e-07
1090.0 4.9624e-07
1110.0 5.3626e-07
1130.0 5.7663e-07
1150.0 6.1899e-07
1170.0 6.6277e-07
1190.0 7.0442e-07
1210.0 7.4674e-07
1230.0 7.9057e-07
1250.0 8.3367e-07
1270.0 8.7569e-07
1290.0 9.2019e-07
1310.0 9.6483e-07
1330.0 1.0078e-06
1350.0 1.0515e-06
1370.0 1.0967e-06
1390.0 1.141e-06
1410.0 1.1843e-06
1430.0 1.2296e-06
1450.0 1.2751e-06
1470.0 1.3194e-06
1490.0 1.3643e-06
1510.0 1.4118e-06
1530.0 1.4571e-06
1550.0 1.502e-06
1570.0 1.5485e-06
1590.0 1.5951e-06
1610.0 1.6398e-06
1630.0 1.6859e-06
1650.0 1.7331e-06
1670.0 1.7788e-06
1690.0 1.8239e-06
1710.0 1.8705e-06
1730.0 1.9172e-06
1750.0 1.9609e-06
1770.0 2.0055e-06
1790.0 2.0507e-06
1810.0 2.094e-06
1830.0 2.1361e-06
1850.0 2.1803e-06
1870.0 2.2226e-06
1890.0 2.2628e-06
1910.0 2.3032e-06
1930.0 2.3438e-06
1950.0 2.3816e-06
1970.0 2.4181e-06
1990.0 2.4553e-06
2010.0 2.4909e-06
2030.0 2.5241e-06
2050.0 2.5576e-06
2070.0 2.5913e-06
2090.0 2.6217e-06
2110.0 2.6511e-06
2130.0 2.6808e-06
2150.0 2.709e-06
2170.0 2.7347e-06
2190.0 2.7612e-06
2210.0 2.7873e-06
2230.0 2.8112e-06
2250.0 2.8344e-06
2270.0 2.859e-06
2290.0 2.8818e-06
2310.0 2.9028e-06
2330.0 2.9248e-06
2350.0 2.9469e-06
2370.0 2.9674e-06
2390.0 2.9882e-06
2410.0 3.0109e-06
2430.0 3.0327e-06
2450.0 3.0541e-06
2470.0 3.0778e-06
2490.0 3.105e-06
2510.0 3.1367e-06
2530.0 3.1842e-06
2550.0 3.2661e-06
2570.0 3.4022e-06
2590.0 3.6162e-06
2610.0 3.968e-06
2630.0 4.4748e-06
2650.0 5.1115e-06
2670.0 5.8865e-06
2690.0 6.7739e-06
2710.0 7.656e-06
2730.0 8.4748e-06
2750.0 9.2442e-06
2770.0 9.897e-06
2790.0 1.0425e-05
2810.0 1.088e-05
2830.0 1.1302e-05
2850.0 1.1674e-05
2870.0 1.2038e-05
2890.0 1.242e-05
2910.0 1.2814e-05
2930.0 1.3205e-05
2950.0 1.3624e-05
2970.0 1.4067e-05
2990.0 1.451e-05
3010.0 6.5609e-05
3030.0 6.7688e-05
3050.0 6.9746e-05
3070.0 7.1578e-05
3090.0 7.3119e-05
3110.0 7.393e-05
3130.0 7.3491e-05
3150.0 7.1267e-05
3170.0 6.6177e-05
3190.0 5.814e-05
3210.0 4.7345e-05
3230.0 3.527e-05
3250.0 4.7359e-05
3270.0 3.4155e-05
3290.0 6.301e-05
3310.0 3.2306e-05
3330.0 3.2266e-05
3350.0 3.6457e-05
3370.0 4.1538e-05
3390.0 4.7154e-05
3410.0 5.28e-05
3430.0 5.8761e-05
3450.0 6.4818e-05
3470.0 7.0456e-05
3490.0 7.4585e-05
3510.0 8.6921e-05
3530.0 0.00010811
3550.0 0.00010615
3570.0 9.101e-05
3590.0 0.00011723
3610.0 8.3289e-05
3630.0 0.00012445
3650.0 0.00014274
3670.0 0.00017622
3690.0 0.000165
3710.0 0.00011703
3730.0 0.000144
3750.0 0.00014662
3770.0 0.00015852
3790.0 0.00015858
3810.0 0.00017002
3830.0 0.00026113
3850.0 0.00032519
3870.0 0.00039689
3890.0 0.00039324
3910.0 0.00035831
3930.0 0.00036092
3950.0 0.00038505
3970.0 0.00039999
3990.0 0.0002476
4010.0 0.00013946
4030.0 0.00024983
4050.0 0.00033837
4070.0 0.0003482
4090.0 0.00022871
4110.0 0.00015193
4130.0 0.00025596
4150.0 0.00027092
4170.0 0.00024144
4190.0 0.00021231
4210.0 0.00030584
4230.0 0.00024086
4250.0 0.0002498
4270.0 0.00024801
4290.0 0.0002301
4310.0 0.00029237
4330.0 0.0003232
4350.0 0.00028805
4370.0 0.00024911
4390.0 0.00028989
4410.0 0.00028999
4430.0 0.00021328
4450.0 0.00018416
4470.0 0.00022734
4490.0 0.00018468
4510.0 0.00026346
4530.0 0.00027205
4550.0 0.00030573
4570.0 0.00041629
4590.0 0.00043068
4610.0 0.00039336
4630.0 0.00058939
4650.0 0.00073773
4670.0 0.00071816
4690.0 0.00056672
4710.0 0.00058553
4730.0 0.00060798
4750.0 0.0004825
4770.0 0.00037565
4790.0 0.00026444
4810.0 0.00033576
4830.0 0.00039442
4850.0 0.00035965
4870.0 0.00020196
4890.0 0.00041853
4910.0 0.000511
4930.0 0.00055707
4950.0 0.00059775
4970.0 0.00047863
4990.0 0.00055102
5010.0 0.00061411
5030.0 0.00062788
5050.0 0.0005598
5070.0 0.00039756
5090.0 0.00032579
5110.0 0.00032026
5130.0 0.00031453
5150.0 0.00031588
5170.0 0.00028886
5190.0 0.00033131
5210.0 0.0003385
5230.0 0.00037486
5250.0 0.00043052
5270.0 0.00037117
5290.0 0.00040055
5310.0 0.00056152
5330.0 0.0006365
5350.0 0.00055146
5370.0 0.00051426
5390.0 0.00058455
5410.0 0.00066101
5430.0 0.00068612
5450.0 0.00071967
5470.0 0.00074303
5490.0 0.00080036
5510.0 0.000959
5530.0 0.0009965
5550.0 0.001034
5570.0 0.0010663
5590.0 0.0010409
5610.0 0.00097701
5630.0 0.00096299
5650.0 0.00099827
5670.0 0.0009714
5690.0 0.00084531
5710.0 0.00083708
5730.0 0.00081912
5750.0 0.00081641
5770.0 0.00070923
5790.0 0.00069827
5810.0 0.00072384
5830.0 0.00078703
5850.0 0.00074522
5870.0 0.00074248
5890.0 0.00083522
5910.0 0.00077557
5930.0 0.00066046
5950.0 0.00061674
5970.0 0.00066402
5990.0 0.0005967
6010.0 0.00053246
6030.0 0.00050429
6050.0 0.00045968
6070.0 0.00037639
6090.0 0.00037207
6110.0 0.00045686
6130.0 0.00049674
6150.0 0.00050951
6170.0 0.00050556
6190.0 0.0004995
6210.0 0.00053838
6230.0 0.00064695
6250.0 0.00059859
6270.0 0.00053301
6290.0 0.00047712
6310.0 0.00042038
6330.0 0.00038402
6350.0 0.00035082
6370.0 0.00036134
6390.0 0.00041459
6410.0 0.00050992
6430.0 0.00061122
6450.0 0.00064353
6470.0 0.00066993
6490.0 0.00079696
6510.0 0.00090067
6530.0 0.00086123
6550.0 0.00081883
6570.0 0.00082949
6590.0 0.00082266
6610.0 0.00085309
6630.0 0.00079769
6650.0 0.00070008
6670.0 0.00065574
6690.0 0.00064829
6710.0 0.00073162
6730.0 0.00064698
6750.0 0.0005372
6770.0 0.00049742
6790.0 0.00052942
6810.0 0.00060478
6830.0 0.00060595
6850.0 0.00054677
6870.0 0.00055995
6890.0 0.00055568
6910.0 0.0005224
6930.0 0.00056381
6950.0 0.0005324
6970.0 0.00050429
6990.0 0.00050709
7010.0 0.00052115
7030.0 0.00050961
7050.0 0.00048111
7070.0 0.00049886
7090.0 0.00045736
7110.0 0.00038934
7130.0 0.0003497
7150.0 0.00035382
7170.0 0.00042553
7190.0 0.00044346
7210.0 0.00042297
7230.0 0.00045066
7250.0 0.00045301
7270.0 0.00045085
7290.0 0.00047804
7310.0 0.00050905
7330.0 0.00049113
7350.0 0.00045549
7370.0 0.00042104
7390.0 0.00041779
7410.0 0.00047334
7430.0 0.00053876
7450.0 0.00057893
7470.0 0.00060226
7490.0 0.00068296
7510.0 0.00067706
7530.0 0.0005927
7550.0 0.00054481
7570.0 0.00046594
7590.0 0.00043261
7610.0 0.00041872
7630.0 0.00039333
7650.0 0.00042262
7670.0 0.00047238
7690.0 0.0005156
7710.0 0.00058921
7730.0 0.00061506
7750.0 0.0006381
7770.0 0.00067213
7790.0 0.00072056
7810.0 0.00071966
7830.0 0.00064844
7850.0 0.00064927
7870.0 0.0006282
7890.0 0.00063031
7910.0 0.00059115
7930.0 0.00057949
7950.0 0.00048394
7970.0 0.0004798
7990.0 0.0004685
8010.0 0.00052182
8030.0 0.00052045
8050.0 0.00055268
8070.0 0.00053211
8090.0 0.00053417
8110.0 0.00052601
8130.0 0.00051588
8150.0 0.00048197
8170.0 0.00047427
8190.0 0.00047473
8210.0 0.0004794
8230.0 0.00042185
8250.0 0.00038677
8270.0 0.0003416
8290.0 0.00029004
8310.0 0.00025293
8330.0 0.00019777
8350.0 0.00015824
8370.0 0.00015073
8390.0 0.0001472
8410.0 0.00015605
8430.0 0.00020115
8450.0 0.00021997
8470.0 0.00023735
8490.0 0.00027657
8510.0 0.00030079
8530.0 0.00034028
8550.0 0.00040247
8570.0 0.00044303
8590.0 0.00046655
8610.0 0.00052141
8630.0 0.00059629
8650.0 0.00061372
8670.0 0.00062706
8690.0 0.00064723
8710.0 0.00063359
8730.0 0.00061111
8750.0 0.00056203
8770.0 0.0005609
8790.0 0.00055138
8810.0 0.00050719
8830.0 0.00050431
8850.0 0.00045749
8870.0 0.00043408
8890.0 0.00038939
8910.0 0.00043572
8930.0 0.00039537
8950.0 0.00039799
8970.0 0.00040721
8990.0 0.0003966
9010.0 0.00040645
9030.0 0.00038585
9050.0 0.0003841
9070.0 0.00038438
9090.0 0.00038459
9110.0 0.00038508
9130.0 0.0003852
9150.0 0.00038513
9170.0 0.00038405
9190.0 0.00038154
9210.0 0.00038753
9230.0 0.00038603
9250.0 0.00038525
9270.0 0.00038462
9290.0 0.00038409
9310.0 0.00038362
9330.0 0.00038317
9350.0 0.00038274
9370.0 0.00038229
9390.0 0.00038181
9410.0 0.00038131
9430.0 0.00038081
9450.0 0.00038025
9470.0 0.00037969
9490.0 0.00037911
9510.0 0.00037851
9530.0 0.00037789
9550.0 0.00037727
9570.0 0.00037665
9590.0 0.000376
9610.0 0.00037535
9630.0 0.00037472
9650.0 0.00037407
9670.0 0.00037341
9690.0 0.00037276
9710.0 0.00037213
9730.0 0.00037148
9750.0 0.00037084
9770.0 0.00037024
9790.0 0.00036962
9810.0 0.00036901
9830.0 0.00036842
9850.0 0.00036786
9870.0 0.00036727
9890.0 0.00036672
9910.0 0.0003662
9930.0 0.00036567
9950.0 0.00036466
9970.0 0.00036435
9990.0 0.00036403
10010.0 0.00036367
10030.0 0.0003633
10050.0 0.0003628
10070.0 0.00036155
10090.0 0.0003615
10110.0 0.00036144
10130.0 0.00036131
10150.0 0.00036115
10170.0 0.00036096
10190.0 0.00036072
10210.0 0.00036052
10230.0 0.00036034
10250.0 0.00036015
10270.0 0.00035999
10290.0 0.00035986
10310.0 0.00035974
10330.0 0.00035962
10350.0 0.00035954
10370.0 0.00035949
10390.0 0.00035944
10410.0 0.00035942
10430.0 0.00035943
10450.0 0.00035945
10470.0 0.00035947
10490.0 0.00035953
10510.0 0.00035961
10530.0 0.00035968
10550.0 0.00035977
10570.0 0.0003599
10590.0 0.00036003
10610.0 0.00036017
10630.0 0.00036034
10650.0 0.00036052
10670.0 0.0003607
10690.0 0.0003609
10710.0 0.00036112
10730.0 0.00036134
10750.0 0.00036157
10770.0 0.00036182
10790.0 0.00036208
10810.0 0.00036233
10830.0 0.00036259
10850.0 0.00036283
10870.0 0.00036299
10890.0 0.000363
10910.0 0.00036276
10930.0 0.00036207
10950.0 0.00036063
10970.0 0.00035827
10990.0 0.00035491
11010.0 0.00036241
11030.0 0.00035577
11050.0 0.00034801
11070.0 0.00033904
11090.0 0.00032865
11110.0 0.00031831
11130.0 0.00030799
11150.0 0.00029743
11170.0 0.0002872
11190.0 0.00027792
11210.0 0.00026902
11230.0 0.0002606
11250.0 0.0002532
11270.0 0.00024665
11290.0 0.00024059
11310.0 0.00023524
11330.0 0.00023078
11350.0 0.00022667
11370.0 0.00022287
11390.0 0.00021944
11410.0 0.00021618
11430.0 0.00021276
11450.0 0.00020931
11470.0 0.00020582
11490.0 0.00020206
11510.0 0.00019793
11530.0 0.00019374
11550.0 0.00018939
11570.0 0.00018468
11590.0 0.00017987
11610.0 0.00017514
11630.0 0.00017019
11650.0 0.00016513
11670.0 0.00016036
11690.0 0.00015568
11710.0 0.00015098
11730.0 0.00014649
11750.0 0.00014233
11770.0 0.0001382
11790.0 0.00013419
11810.0 0.00013049
11830.0 0.00012696
11850.0 0.00012341
11870.0 0.0001201
11890.0 0.00011702
11910.0 0.00011393
11930.0 0.0001109
11950.0 0.00010806
11970.0 0.00010524
11990.0 0.00010236
12010.0 9.9602e-05
12030.0 9.6961e-05
12050.0 9.4302e-05
12070.0 9.1671e-05
12090.0 8.9309e-05
12110.0 8.704e-05
12130.0 8.4875e-05
12150.0 8.2966e-05
12170.0 8.1342e-05
12190.0 7.99e-05
12210.0 7.8805e-05
12230.0 7.8098e-05
12250.0 7.775e-05
12270.0 7.7805e-05
12290.0 7.8277e-05
12310.0 7.9122e-05
12330.0 8.0392e-05
12350.0 8.2035e-05
12370.0 8.3933e-05
12390.0 8.6113e-05
12410.0 8.8622e-05
12430.0 9.1129e-05
12450.0 9.3659e-05
12470.0 9.6257e-05
12490.0 9.8767e-05
12510.0 0.00010104
12530.0 0.00010319
12550.0 0.00010517
12570.0 0.00010685
12590.0 0.00010825
12610.0 0.00010945
12630.0 0.00011037
12650.0 0.000111
12670.0 0.00011142
12690.0 0.00011162
12710.0 0.00011163
12730.0 0.00011147
12750.0 0.00011113
12770.0 0.00011065
12790.0 0.00011007
12810.0 0.00010935
12830.0 0.00010848
12850.0 0.00010755
12870.0 0.00010652
12890.0 0.00010532
12910.0 0.00010401
12930.0 0.00010263
12950.0 0.00010105
12970.0 9.9293e-05
12990.0 9.749e-05
13010.0 9.5564e-05
13030.0 9.3457e-05
13050.0 9.1294e-05
13070.0 8.9159e-05
13090.0 8.6904e-05
13110.0 8.4634e-05
13130.0 8.2494e-05
13150.0 8.0435e-05
13170.0 7.8399e-05
13190.0 7.6607e-05
13210.0 7.5062e-05
13230.0 7.3681e-05
13250.0 7.2532e-05
13270.0 7.167e-05
13290.0 7.1026e-05
13310.0 7.059e-05
13330.0 7.0378e-05
13350.0 7.0338e-05
13370.0 7.0428e-05
13390.0 7.0613e-05
13410.0 7.0834e-05
13430.0 7.1056e-05
13450.0 7.1241e-05
13470.0 7.1347e-05
13490.0 7.1358e-05
13510.0 7.1246e-05
13530.0 7.1007e-05
13550.0 7.0664e-05
13570.0 7.0213e-05
13590.0 6.9659e-05
13610.0 6.9061e-05
13630.0 6.8446e-05
13650.0 6.779e-05
13670.0 6.715e-05
13690.0 6.656e-05
13710.0 6.6e-05
13730.0 6.5464e-05
13750.0 6.5009e-05
13770.0 6.4599e-05
13790.0 6.4211e-05
13810.0 6.3849e-05
13830.0 6.351e-05
13850.0 6.3155e-05
13870.0 6.2776e-05
13890.0 6.2379e-05
13910.0 6.195e-05
13930.0 6.1464e-05
13950.0 6.0941e-05
13970.0 6.0411e-05
13990.0 5.9845e-05
14010.0 5.9261e-05
14030.0 5.8699e-05
14050.0 5.8159e-05
14070.0 5.7625e-05
14090.0 5.7151e-05
14110.0 5.6738e-05
14130.0 5.6374e-05
14150.0 5.6068e-05
14170.0 5.5833e-05
14190.0 5.5655e-05
14210.0 5.5534e-05
14230.0 5.5472e-05
14250.0 5.5463e-05
14270.0 5.5514e-05
14290.0 5.563e-05
14310.0 5.5792e-05
14330.0 5.601e-05
14350.0 5.6295e-05
14370.0 5.6624e-05
14390.0 5.698e-05
14410.0 5.7394e-05
14430.0 5.7842e-05
14450.0 5.829e-05
14470.0 5.8754e-05
14490.0 5.9254e-05
14510.0 5.9736e-05
14530.0 6.0206e-05
14550.0 6.0706e-05
14570.0 6.1229e-05
14590.0 6.1754e-05
14610.0 6.2332e-05
14630.0 6.3001e-05
14650.0 6.3719e-05
14670.0 6.4508e-05
14690.0 6.543e-05
14710.0 6.6483e-05
14730.0 6.7574e-05
14750.0 6.8798e-05
14770.0 7.0164e-05
14790.0 7.158e-05
14810.0 7.3023e-05
14830.0 7.4622e-05
14850.0 7.6213e-05
14870.0 7.7725e-05
14890.0 7.9217e-05
14910.0 8.0659e-05
14930.0 8.1911e-05
14950.0 8.2965e-05
14970.0 8.3863e-05
14990.0 8.4511e-05
15010.0 8.4904e-05
15030.0 8.5093e-05
15050.0 8.5096e-05
15070.0 8.4939e-05
15090.0 8.4683e-05
15110.0 8.4357e-05
15130.0 8.3989e-05
15150.0 8.3608e-05
15170.0 8.321e-05
15190.0 8.2805e-05
15210.0 8.2405e-05
15230.0 8.2006e-05
15250.0 8.1599e-05
15270.0 8.1196e-05
15290.0 8.0803e-05
15310.0 8.0405e-05
15330.0 8.0006e-05
15350.0 7.9614e-05
15370.0 7.9224e-05
15390.0 7.8825e-05
15410.0 7.8433e-05
15430.0 7.8048e-05
15450.0 7.7658e-05
15470.0 7.7267e-05
15490.0 7.6886e-05
15510.0 7.6506e-05
15530.0 7.612e-05
15550.0 7.574e-05
15570.0 7.5367e-05
15590.0 7.4987e-05
15610.0 7.4607e-05
15630.0 7.4237e-05
15650.0 7.3868e-05
15670.0 7.3494e-05
15690.0 7.3126e-05
15710.0 7.2766e-05
15730.0 7.2399e-05
15750.0 7.2034e-05
15770.0 7.1677e-05
15790.0 7.132e-05
15810.0 7.0955e-05
15830.0 7.0601e-05
15850.0 7.0253e-05
15870.0 6.9899e-05
15890.0 6.9548e-05
15910.0 6.9205e-05
15930.0 6.886e-05
15950.0 6.8511e-05
15970.0 6.817e-05
15990.0 6.7833e-05
16010.0 6.7492e-05
16030.0 6.7151e-05
16050.0 6.6823e-05
16070.0 6.6491e-05
16090.0 6.6157e-05
16110.0 6.5829e-05
16130.0 6.5508e-05
16150.0 6.5176e-05
16170.0 6.485e-05
16190.0 6.4532e-05
16210.0 6.4213e-05
16230.0 6.389e-05
16250.0 6.3576e-05
16270.0 6.3266e-05
16290.0 6.295e-05
16310.0 6.2637e-05
16330.0 6.2332e-05
16350.0 6.2024e-05
16370.0 6.171e-05
16390.0 6.1409e-05
16410.0 6.1109e-05
16430.0 6.0805e-05
16450.0 6.0504e-05
16470.0 6.0213e-05
16490.0 5.9914e-05
16510.0 5.9615e-05
16530.0 5.9324e-05
16550.0 5.9035e-05
16570.0 5.874e-05
16590.0 5.8448e-05
16610.0 5.8167e-05
16630.0 5.788e-05
16650.0 5.7593e-05
16670.0 5.7313e-05
16690.0 5.7035e-05
16710.0 5.6748e-05
16730.0 5.6468e-05
16750.0 5.6194e-05
16770.0 5.5917e-05
16790.0 5.5637e-05
16810.0 5.5368e-05
16830.0 5.5098e-05
16850.0 5.4823e-05
16870.0 5.4553e-05
16890.0 5.4289e-05
16910.0 5.4018e-05
16930.0 5.3746e-05
16950.0 5.3485e-05
16970.0 5.3222e-05
16990.0 5.2955e-05
17010.0 5.2694e-05
17030.0 5.2439e-05
17050.0 5.2176e-05
17070.0 5.1914e-05
17090.0 5.166e-05
17110.0 5.1405e-05
17130.0 5.1142e-05
17150.0 5.0889e-05
17170.0 5.064e-05
17190.0 5.0385e-05
17210.0 5.0131e-05
17230.0 4.9886e-05
17250.0 4.9636e-05
17270.0 4.9381e-05
17290.0 4.9134e-05
17310.0 4.8891e-05
17330.0 4.8641e-05
17350.0 4.8392e-05
17370.0 4.8153e-05
17390.0 4.791e-05
17410.0 4.7664e-05
17430.0 4.7424e-05
17450.0 4.7188e-05
17470.0 4.694e-05
17490.0 4.6698e-05
17510.0 4.6464e-05
17530.0 4.6226e-05
17550.0 4.5984e-05
17570.0 4.575e-05
17590.0 4.5519e-05
17610.0 4.528e-05
17630.0 4.5045e-05
17650.0 4.4816e-05
17670.0 4.4582e-05
17690.0 4.4342e-05
17710.0 4.4115e-05
17730.0 4.3887e-05
17750.0 4.3654e-05
17770.0 4.3424e-05
17790.0 4.3202e-05
17810.0 4.2971e-05
17830.0 4.274e-05
17850.0 4.2516e-05
17870.0 4.2293e-05
17890.0 4.2062e-05
17910.0 4.1836e-05
17930.0 4.1618e-05
17950.0 4.1394e-05
17970.0 4.1168e-05
17990.0 4.095e-05
18010.0 4.0732e-05
18030.0 4.0504e-05
18050.0 4.0284e-05
18070.0 4.0069e-05
18090.0 3.9848e-05
18110.0 3.9626e-05
18130.0 3.9413e-05
18150.0 3.9199e-05
18170.0 3.8979e-05
18190.0 3.8764e-05
18210.0 3.8553e-05
18230.0 3.8335e-05
18250.0 3.8117e-05
18270.0 3.7908e-05
18290.0 3.7697e-05
18310.0 3.7481e-05
18330.0 3.7271e-05
18350.0 3.7066e-05
18370.0 3.6853e-05
18390.0 3.6641e-05
18410.0 3.6435e-05
18430.0 3.6228e-05
18450.0 3.6014e-05
18470.0 3.5809e-05
18490.0 3.5607e-05
18510.0 3.5399e-05
18530.0 3.5192e-05
18550.0 3.4993e-05
18570.0 3.4789e-05
18590.0 3.458e-05
18610.0 3.4379e-05
18630.0 3.418e-05
18650.0 3.3975e-05
18670.0 3.3771e-05
18690.0 3.3577e-05
18710.0 3.3378e-05
18730.0 3.3176e-05
18750.0 3.2979e-05
18770.0 3.2786e-05
18790.0 3.2582e-05
18810.0 3.2384e-05
18830.0 3.2192e-05
18850.0 3.1997e-05
18870.0 3.1798e-05
18890.0 3.1607e-05
18910.0 3.1418e-05
18930.0 3.1221e-05
18950.0 3.1028e-05
18970.0 3.084e-05
18990.0 3.0648e-05
19010.0 3.045e-05
19030.0 3.0265e-05
19050.0 3.0078e-05
19070.0 2.9887e-05
19090.0 2.9699e-05
19110.0 2.9517e-05
19130.0 2.9327e-05
19150.0 2.9137e-05
19170.0 2.8955e-05
19190.0 2.8771e-05
19210.0 2.8582e-05
19230.0 2.8397e-05
19250.0 2.822e-05
19270.0 2.8036e-05
19290.0 2.7851e-05
19310.0 2.7674e-05
19330.0 2.7495e-05
19350.0 2.7308e-05
19370.0 2.7129e-05
19390.0 2.6953e-05
19410.0 2.6773e-05
19430.0 2.6591e-05
19450.0 2.6419e-05
19470.0 2.6244e-05
19490.0 2.6064e-05
19510.0 2.5889e-05
19530.0 2.5718e-05
19550.0 2.554e-05
19570.0 2.5362e-05
19590.0 2.5193e-05
19610.0 2.5021e-05
19630.0 2.4845e-05
19650.0 2.4675e-05
19670.0 2.4509e-05
19690.0 2.4334e-05
19710.0 2.4162e-05
19730.0 2.3996e-05
19750.0 2.3828e-05
19770.0 2.3653e-05
19790.0 2.3487e-05
19810.0 2.3323e-05
19830.0 2.3153e-05
19850.0 2.2983e-05
19870.0 2.2818e-05
19890.0 2.2641e-05
19910.0 2.2448e-05
19930.0 2.2245e-05
19950.0 2.2017e-05
19970.0 2.1744e-05
19990.0 2.1425e-05
20010.0 2.1074e-05
20030.0 2.0664e-05
20050.0 2.0204e-05
20070.0 1.9729e-05
20090.0 1.9242e-05
20110.0 1.8722e-05
20130.0 1.8229e-05
20150.0 1.777e-05
20170.0 1.7325e-05
20190.0 1.6903e-05
20210.0 1.6532e-05
20230.0 1.6194e-05
20250.0 1.5878e-05
20270.0 1.5606e-05
20290.0 1.5376e-05
20310.0 1.5176e-05
20330.0 1.5008e-05
20350.0 1.4887e-05
20370.0 1.48e-05
20390.0 1.4746e-05
20410.0 1.4731e-05
20430.0 1.4751e-05
20450.0 1.4809e-05
20470.0 1.4905e-05
20490.0 1.5033e-05
20510.0 1.5197e-05
20530.0 1.5402e-05
20550.0 1.5635e-05
20570.0 1.5887e-05
20590.0 1.6174e-05
20610.0 1.6483e-05
20630.0 1.6797e-05
20650.0 1.7123e-05
20670.0 1.7471e-05
20690.0 1.7802e-05
20710.0 1.812e-05
20730.0 1.8435e-05
20750.0 1.8735e-05
20770.0 1.9001e-05
20790.0 1.9252e-05
20810.0 1.9487e-05
20830.0 1.9693e-05
20850.0 1.9877e-05
20870.0 2.0053e-05
20890.0 2.0213e-05
20910.0 2.0355e-05
20930.0 2.0492e-05
20950.0 2.0626e-05
20970.0 2.0751e-05
20990.0 2.087e-05
21010.0 2.099e-05
21030.0 2.11e-05
21050.0 2.1198e-05
21070.0 2.1285e-05
21090.0 2.1359e-05
21110.0 2.1412e-05
21130.0 2.1446e-05
21150.0 2.146e-05
21170.0 2.1453e-05
21190.0 2.1425e-05
21210.0 2.1377e-05
21230.0 2.1308e-05
21250.0 2.1225e-05
21270.0 2.1128e-05
21290.0 2.1016e-05
21310.0 2.0896e-05
21330.0 2.0775e-05
21350.0 2.0645e-05
21370.0 2.0512e-05
21390.0 2.0384e-05
21410.0 2.0259e-05
21430.0 2.0132e-05
21450.0 2.0015e-05
21470.0 1.991e-05
21490.0 1.981e-05
21510.0 1.9719e-05
21530.0 1.9643e-05
21550.0 1.9578e-05
21570.0 1.9523e-05
21590.0 1.9484e-05
21610.0 1.946e-05
21630.0 1.945e-05
21650.0 1.9457e-05
21670.0 1.9481e-05
21690.0 1.9521e-05
21710.0 1.9581e-05
21730.0 1.9658e-05
21750.0 1.975e-05
21770.0 1.9867e-05
21790.0 2.0004e-05
21810.0 2.0154e-05
21830.0 2.0323e-05
21850.0 2.0518e-05
21870.0 2.0724e-05
21890.0 2.0939e-05
21910.0 2.1177e-05
21930.0 2.1428e-05
21950.0 2.168e-05
21970.0 2.1945e-05
21990.0 2.2229e-05
22010.0 2.2503e-05
22030.0 2.2774e-05
22050.0 2.3051e-05
22070.0 2.3323e-05
22090.0 2.3573e-05
22110.0 2.3817e-05
22130.0 2.4052e-05
22150.0 2.4259e-05
22170.0 2.4442e-05
22190.0 2.4606e-05
22210.0 2.4739e-05
22230.0 2.4834e-05
22250.0 2.4897e-05
22270.0 2.4923e-05
22290.0 2.4911e-05
22310.0 2.4861e-05
22330.0 2.4766e-05
22350.0 2.463e-05
22370.0 2.4459e-05
22390.0 2.4245e-05
22410.0 2.3984e-05
22430.0 2.37e-05
22450.0 2.3385e-05
22470.0 2.3028e-05
22490.0 2.2647e-05
22510.0 2.2258e-05
22530.0 2.1832e-05
22550.0 2.1382e-05
22570.0 2.094e-05
22590.0 2.049e-05
22610.0 2.0021e-05
22630.0 1.9559e-05
22650.0 1.9119e-05
