#lamb flux
1010.0 1.3935e-06
1030.0 1.8034e-06
1050.0 2.3131e-06
1070.0 2.9366e-06
1090.0 3.7044e-06
1110.0 4.5797e-06
1130.0 5.559e-06
1150.0 6.6823e-06
1170.0 7.9413e-06
1190.0 9.2587e-06
1210.0 1.0641e-05
1230.0 1.2119e-05
1250.0 1.362e-05
1270.0 1.5101e-05
1290.0 1.6613e-05
1310.0 1.8064e-05
1330.0 1.937e-05
1350.0 2.0552e-05
1370.0 2.1602e-05
1390.0 2.2434e-05
1410.0 2.3029e-05
1430.0 2.346e-05
1450.0 2.3683e-05
1470.0 2.3677e-05
1490.0 2.3509e-05
1510.0 2.3168e-05
1530.0 2.262e-05
1550.0 2.1972e-05
1570.0 2.1312e-05
1590.0 2.0616e-05
1610.0 1.9884e-05
1630.0 1.9188e-05
1650.0 1.8539e-05
1670.0 1.7918e-05
1690.0 1.7349e-05
1710.0 1.6864e-05
1730.0 1.6448e-05
1750.0 1.6076e-05
1770.0 1.5786e-05
1790.0 1.5574e-05
1810.0 1.5416e-05
1830.0 1.5317e-05
1850.0 1.5301e-05
1870.0 1.5334e-05
1890.0 1.5411e-05
1910.0 1.5549e-05
1930.0 1.5745e-05
1950.0 1.5975e-05
1970.0 1.6248e-05
1990.0 1.6578e-05
2010.0 1.6946e-05
2030.0 1.7344e-05
2050.0 1.7792e-05
2070.0 1.8286e-05
2090.0 1.8799e-05
2110.0 1.9346e-05
2130.0 1.9937e-05
2150.0 2.0553e-05
2170.0 2.1184e-05
2190.0 2.1855e-05
2210.0 2.2553e-05
2230.0 2.326e-05
2250.0 2.3984e-05
2270.0 2.4743e-05
2290.0 2.5504e-05
2310.0 2.6261e-05
2330.0 2.7038e-05
2350.0 2.7823e-05
2370.0 2.8592e-05
2390.0 2.9362e-05
2410.0 3.0144e-05
2430.0 3.0906e-05
2450.0 3.1655e-05
2470.0 3.2424e-05
2490.0 3.3234e-05
2510.0 3.4087e-05
2530.0 3.5084e-05
2550.0 3.6353e-05
2570.0 3.7985e-05
2590.0 4.0104e-05
2610.0 4.312e-05
2630.0 4.7156e-05
2650.0 5.2154e-05
2670.0 5.8411e-05
2690.0 6.6101e-05
2710.0 7.4619e-05
2730.0 8.3619e-05
2750.0 9.3379e-05
2770.0 0.00010298
2790.0 0.00011166
2810.0 0.00011952
2830.0 0.00012652
2850.0 0.00013182
2870.0 0.00013596
2890.0 0.00013936
2910.0 0.00014205
2930.0 0.0001441
2950.0 0.00014596
2970.0 0.00014768
2990.0 0.00014914
3010.0 0.00015045
3030.0 0.0001518
3050.0 0.00015306
3070.0 0.00015408
3090.0 0.00015512
3110.0 0.00015621
3130.0 0.00015739
3150.0 0.00015752
3170.0 0.00015917
3190.0 0.0001623
3210.0 0.00016765
3230.0 0.00017667
3250.0 0.00019197
3270.0 0.0002104
3290.0 0.00023321
3310.0 0.00026696
3330.0 0.00027493
3350.0 0.00027638
3370.0 0.00027763
3390.0 0.00027876
3410.0 0.00027912
3430.0 0.00027885
3450.0 0.00027824
3470.0 0.0002775
3490.0 0.00027567
3510.0 0.00026935
3530.0 0.00025076
3550.0 0.00023486
3570.0 0.0002458
3590.0 0.0002737
3610.0 0.00029953
3630.0 0.00032797
3650.0 0.00031828
3670.0 0.0002802
3690.0 0.00024767
3710.0 0.00023738
3730.0 0.00024373
3750.0 0.00024815
3770.0 0.00025579
3790.0 0.00026462
3810.0 0.00026929
3830.0 0.00025023
3850.0 0.00022784
3870.0 0.00021709
3890.0 0.00022437
3910.0 0.00022815
3930.0 0.00022919
3950.0 0.00024192
3970.0 0.0002568
3990.0 0.00026152
4010.0 0.00026254
4030.0 0.00025401
4050.0 0.00024884
4070.0 0.00024578
4090.0 0.00024736
4110.0 0.00024904
4130.0 0.00024283
4150.0 0.00023423
4170.0 0.00023181
4190.0 0.00022709
4210.0 0.00021193
4230.0 0.00019595
4250.0 0.00017836
4270.0 0.00016405
4290.0 0.00015832
4310.0 0.0001569
4330.0 0.00016214
4350.0 0.00017521
4370.0 0.00018315
4390.0 0.00020028
4410.0 0.00021441
4430.0 0.00021789
4450.0 0.00020263
4470.0 0.00018706
4490.0 0.00018237
4510.0 0.00017977
4530.0 0.00018039
4550.0 0.00018088
4570.0 0.00018419
4590.0 0.00019124
4610.0 0.00019789
4630.0 0.00020344
4650.0 0.00020665
4670.0 0.00020524
4690.0 0.00019428
4710.0 0.00018347
4730.0 0.00017542
4750.0 0.00017119
4770.0 0.00016859
4790.0 0.00016933
4810.0 0.00016619
4830.0 0.00015838
4850.0 0.00016923
4870.0 0.00016243
4890.0 0.00016453
4910.0 0.00016551
4930.0 0.00015634
4950.0 0.00013629
4970.0 0.00012756
4990.0 0.00011973
5010.0 0.00011369
5030.0 0.00011467
5050.0 0.00012102
5070.0 0.00012332
5090.0 0.00012915
5110.0 0.00012971
5130.0 0.00012829
5150.0 0.00012973
5170.0 0.00012565
5190.0 0.00012535
5210.0 0.00012655
5230.0 0.00012167
5250.0 0.000123
5270.0 0.00012692
5290.0 0.00012486
5310.0 0.00011913
5330.0 0.0001155
5350.0 0.0001096
5370.0 0.00010739
5390.0 0.00010601
5410.0 0.00010263
5430.0 0.00010375
5450.0 0.00010113
5470.0 0.00010169
5490.0 0.00010947
5510.0 0.0001112
5530.0 0.00011179
5550.0 0.0001116
5570.0 0.00011273
5590.0 0.00011207
5610.0 0.00011102
5630.0 0.00011052
5650.0 0.00010927
5670.0 0.00010658
5690.0 0.00010437
5710.0 0.00010235
5730.0 0.00010441
5750.0 0.00010047
5770.0 9.5194e-05
5790.0 9.0561e-05
5810.0 8.206e-05
5830.0 8.7125e-05
5850.0 9.3235e-05
5870.0 9.4258e-05
5890.0 9.5282e-05
5910.0 9.8618e-05
5930.0 9.8521e-05
5950.0 9.8713e-05
5970.0 9.8567e-05
5990.0 9.9194e-05
6010.0 9.683e-05
6030.0 9.5188e-05
6050.0 9.4678e-05
6070.0 9.371e-05
6090.0 9.4415e-05
6110.0 9.3196e-05
6130.0 9.0558e-05
6150.0 8.8415e-05
6170.0 8.6454e-05
6190.0 8.1267e-05
6210.0 7.9771e-05
6230.0 8.0473e-05
6250.0 7.9778e-05
6270.0 7.9055e-05
6290.0 8.0486e-05
6310.0 8.2347e-05
6330.0 8.1797e-05
6350.0 7.9871e-05
6370.0 7.9784e-05
6390.0 7.7736e-05
6410.0 7.7003e-05
6430.0 7.5045e-05
6450.0 7.463e-05
6470.0 7.4239e-05
6490.0 7.4033e-05
6510.0 7.2068e-05
6530.0 7.1154e-05
6550.0 7.0096e-05
6570.0 6.8731e-05
6590.0 6.9838e-05
6610.0 6.9881e-05
6630.0 6.8116e-05
6650.0 6.5822e-05
6670.0 6.497e-05
6690.0 6.4002e-05
6710.0 6.2351e-05
6730.0 6.1599e-05
6750.0 6.2097e-05
6770.0 6.464e-05
6790.0 6.7937e-05
6810.0 6.5968e-05
6830.0 6.0395e-05
6850.0 5.7163e-05
6870.0 5.6211e-05
6890.0 5.5933e-05
6910.0 5.5715e-05
6930.0 5.5314e-05
6950.0 5.539e-05
6970.0 5.3648e-05
6990.0 5.2846e-05
7010.0 5.3245e-05
7030.0 5.3619e-05
7050.0 5.2492e-05
7070.0 5.0188e-05
7090.0 4.8875e-05
7110.0 4.9102e-05
7130.0 4.9331e-05
7150.0 4.9332e-05
7170.0 4.9037e-05
7190.0 4.8354e-05
7210.0 4.9609e-05
7230.0 5.0752e-05
7250.0 5.0653e-05
7270.0 5.0782e-05
7290.0 5.1429e-05
7310.0 5.0778e-05
7330.0 4.9519e-05
7350.0 4.7713e-05
7370.0 4.7412e-05
7390.0 4.7794e-05
7410.0 4.5771e-05
7430.0 4.594e-05
7450.0 4.5612e-05
7470.0 4.6678e-05
7490.0 4.6225e-05
7510.0 4.4498e-05
7530.0 4.4995e-05
7550.0 4.2947e-05
7570.0 4.1585e-05
7590.0 4.0734e-05
7610.0 4.1251e-05
7630.0 4.2107e-05
7650.0 4.3206e-05
7670.0 4.1114e-05
7690.0 4.0705e-05
7710.0 4.2446e-05
7730.0 4.3894e-05
7750.0 4.4178e-05
7770.0 4.4602e-05
7790.0 4.3958e-05
7810.0 4.4798e-05
7830.0 4.6954e-05
7850.0 4.6078e-05
7870.0 4.7725e-05
7890.0 4.6792e-05
7910.0 4.6074e-05
7930.0 4.4836e-05
7950.0 4.5184e-05
7970.0 4.5687e-05
7990.0 4.3394e-05
8010.0 4.2078e-05
8030.0 4.162e-05
8050.0 4.0804e-05
8070.0 3.9954e-05
8090.0 3.6722e-05
8110.0 3.6838e-05
8130.0 3.9408e-05
8150.0 4.0906e-05
8170.0 4.1269e-05
8190.0 4.2483e-05
8210.0 4.1656e-05
8230.0 4.0881e-05
8250.0 4.0796e-05
8270.0 4.0026e-05
8290.0 3.9207e-05
8310.0 3.7316e-05
8330.0 3.7334e-05
8350.0 3.7874e-05
8370.0 3.8117e-05
8390.0 3.7997e-05
8410.0 3.7467e-05
8430.0 3.6915e-05
8450.0 3.6863e-05
8470.0 3.8241e-05
8490.0 3.8664e-05
8510.0 3.7161e-05
8530.0 3.5833e-05
8550.0 3.5705e-05
8570.0 3.4779e-05
8590.0 3.414e-05
8610.0 3.4774e-05
8630.0 3.4765e-05
8650.0 3.4461e-05
8670.0 3.4225e-05
8690.0 3.3831e-05
8710.0 3.2333e-05
8730.0 3.2363e-05
8750.0 3.1594e-05
8770.0 3.1698e-05
8790.0 3.1319e-05
8810.0 3.0505e-05
8830.0 3.0617e-05
8850.0 3.0695e-05
8870.0 2.925e-05
8890.0 2.8185e-05
8910.0 2.7202e-05
8930.0 2.588e-05
8950.0 2.5244e-05
8970.0 2.4176e-05
8990.0 2.3802e-05
9010.0 2.3006e-05
9030.0 2.2752e-05
9050.0 2.2611e-05
9070.0 2.2474e-05
9090.0 2.2336e-05
9110.0 2.2195e-05
9130.0 2.2054e-05
9150.0 2.1915e-05
9170.0 2.1775e-05
9190.0 2.1634e-05
9210.0 2.1491e-05
9230.0 2.1348e-05
9250.0 2.1205e-05
9270.0 2.1061e-05
9290.0 2.0916e-05
9310.0 2.0773e-05
9330.0 2.0634e-05
9350.0 2.0494e-05
9370.0 2.0354e-05
9390.0 2.0214e-05
9410.0 2.0074e-05
9430.0 1.9934e-05
9450.0 1.9795e-05
9470.0 1.9668e-05
9490.0 1.9535e-05
9510.0 1.9388e-05
9530.0 1.9244e-05
9550.0 1.9103e-05
9570.0 1.8963e-05
9590.0 1.8825e-05
9610.0 1.869e-05
9630.0 1.8556e-05
9650.0 1.8423e-05
9670.0 1.829e-05
9690.0 1.8159e-05
9710.0 1.8028e-05
9730.0 1.7898e-05
9750.0 1.7768e-05
9770.0 1.7641e-05
9790.0 1.7513e-05
9810.0 1.7386e-05
9830.0 1.726e-05
9850.0 1.7124e-05
9870.0 1.6987e-05
9890.0 1.6875e-05
9910.0 1.676e-05
9930.0 1.6623e-05
9950.0 1.6504e-05
9970.0 1.6395e-05
9990.0 1.6283e-05
10010.0 1.6173e-05
10030.0 1.606e-05
10050.0 1.5947e-05
10070.0 1.5835e-05
10090.0 1.5725e-05
10110.0 1.5615e-05
10130.0 1.5505e-05
10150.0 1.5399e-05
10170.0 1.5293e-05
10190.0 1.5187e-05
10210.0 1.5084e-05
10230.0 1.4982e-05
10250.0 1.4881e-05
10270.0 1.4781e-05
10290.0 1.4684e-05
10310.0 1.4587e-05
10330.0 1.449e-05
10350.0 1.4396e-05
10370.0 1.4303e-05
10390.0 1.421e-05
10410.0 1.4112e-05
10430.0 1.4015e-05
10450.0 1.3935e-05
10470.0 1.3851e-05
10490.0 1.3768e-05
10510.0 1.3687e-05
10530.0 1.3603e-05
10550.0 1.3521e-05
10570.0 1.3442e-05
10590.0 1.3363e-05
10610.0 1.3284e-05
10630.0 1.3208e-05
10650.0 1.3133e-05
10670.0 1.3057e-05
10690.0 1.2984e-05
10710.0 1.2913e-05
10730.0 1.2842e-05
10750.0 1.277e-05
10770.0 1.2703e-05
10790.0 1.2636e-05
10810.0 1.2569e-05
10830.0 1.2503e-05
10850.0 1.2441e-05
10870.0 1.2376e-05
10890.0 1.2313e-05
10910.0 1.2252e-05
10930.0 1.2192e-05
10950.0 1.2131e-05
10970.0 1.2071e-05
10990.0 1.2013e-05
11010.0 1.3184e-05
11030.0 1.3114e-05
11050.0 1.304e-05
11070.0 1.2961e-05
11090.0 1.2874e-05
11110.0 1.2788e-05
11130.0 1.2701e-05
11150.0 1.261e-05
11170.0 1.2517e-05
11190.0 1.2427e-05
11210.0 1.2335e-05
11230.0 1.2241e-05
11250.0 1.215e-05
11270.0 1.2062e-05
11290.0 1.1972e-05
11310.0 1.1885e-05
11330.0 1.1806e-05
11350.0 1.1729e-05
11370.0 1.1655e-05
11390.0 1.1587e-05
11410.0 1.1524e-05
11430.0 1.1462e-05
11450.0 1.1405e-05
11470.0 1.1352e-05
11490.0 1.1301e-05
11510.0 1.1249e-05
11530.0 1.1201e-05
11550.0 1.1154e-05
11570.0 1.1105e-05
11590.0 1.1055e-05
11610.0 1.1007e-05
11630.0 1.0955e-05
11650.0 1.0901e-05
11670.0 1.0848e-05
11690.0 1.0793e-05
11710.0 1.0734e-05
11730.0 1.0675e-05
11750.0 1.0618e-05
11770.0 1.0557e-05
11790.0 1.0494e-05
11810.0 1.0434e-05
11830.0 1.0374e-05
11850.0 1.0311e-05
11870.0 1.025e-05
11890.0 1.0194e-05
11910.0 1.0138e-05
11930.0 1.0083e-05
11950.0 1.0034e-05
11970.0 9.9871e-06
11990.0 9.9415e-06
12010.0 9.9014e-06
12030.0 9.8661e-06
12050.0 9.8335e-06
12070.0 9.8043e-06
12090.0 9.7815e-06
12110.0 9.7618e-06
12130.0 9.7448e-06
12150.0 9.7318e-06
12170.0 9.7221e-06
12190.0 9.7134e-06
12210.0 9.7065e-06
12230.0 9.7011e-06
12250.0 9.6955e-06
12270.0 9.6884e-06
12290.0 9.6801e-06
12310.0 9.6701e-06
12330.0 9.6561e-06
12350.0 9.6381e-06
12370.0 9.617e-06
12390.0 9.591e-06
12410.0 9.5577e-06
12430.0 9.5215e-06
12450.0 9.481e-06
12470.0 9.4337e-06
12490.0 9.3816e-06
12510.0 9.3279e-06
12530.0 9.2682e-06
12550.0 9.2028e-06
12570.0 9.1364e-06
12590.0 9.068e-06
12610.0 8.9939e-06
12630.0 8.9177e-06
12650.0 8.8447e-06
12670.0 8.7685e-06
12690.0 8.6903e-06
12710.0 8.6151e-06
12730.0 8.5415e-06
12750.0 8.4645e-06
12770.0 8.3912e-06
12790.0 8.3223e-06
12810.0 8.2541e-06
12830.0 8.1869e-06
12850.0 8.1261e-06
12870.0 8.0689e-06
12890.0 8.0131e-06
12910.0 7.9621e-06
12930.0 7.9169e-06
12950.0 7.8742e-06
12970.0 7.8355e-06
12990.0 7.8037e-06
13010.0 7.7765e-06
13030.0 7.7533e-06
13050.0 7.7354e-06
13070.0 7.7223e-06
13090.0 7.7125e-06
13110.0 7.7062e-06
13130.0 7.7026e-06
13150.0 7.7006e-06
13170.0 7.6993e-06
13190.0 7.6978e-06
13210.0 7.6953e-06
13230.0 7.6907e-06
13250.0 7.6833e-06
13270.0 7.6729e-06
13290.0 7.6587e-06
13310.0 7.6396e-06
13330.0 7.6166e-06
13350.0 7.5897e-06
13370.0 7.5575e-06
13390.0 7.52e-06
13410.0 7.4803e-06
13430.0 7.4358e-06
13450.0 7.386e-06
13470.0 7.3334e-06
13490.0 7.2789e-06
13510.0 7.2176e-06
13530.0 7.1539e-06
13550.0 7.0898e-06
13570.0 7.0226e-06
13590.0 6.9515e-06
13610.0 6.8807e-06
13630.0 6.8104e-06
13650.0 6.736e-06
13670.0 6.6611e-06
13690.0 6.588e-06
13710.0 6.5134e-06
13730.0 6.435e-06
13750.0 6.3609e-06
13770.0 6.2876e-06
13790.0 6.2125e-06
13810.0 6.1385e-06
13830.0 6.0684e-06
13850.0 5.9972e-06
13870.0 5.9261e-06
13890.0 5.8587e-06
13910.0 5.7934e-06
13930.0 5.7274e-06
13950.0 5.6636e-06
13970.0 5.6046e-06
13990.0 5.5458e-06
14010.0 5.4881e-06
14030.0 5.4342e-06
14050.0 5.3825e-06
14070.0 5.3305e-06
14090.0 5.2819e-06
14110.0 5.2364e-06
14130.0 5.1919e-06
14150.0 5.1484e-06
14170.0 5.1085e-06
14190.0 5.0701e-06
14210.0 5.0321e-06
14230.0 4.9958e-06
14250.0 4.9615e-06
14270.0 4.9271e-06
14290.0 4.893e-06
14310.0 4.8611e-06
14330.0 4.8296e-06
14350.0 4.798e-06
14370.0 4.7675e-06
14390.0 4.7383e-06
14410.0 4.7087e-06
14430.0 4.6795e-06
14450.0 4.6516e-06
14470.0 4.6241e-06
14490.0 4.5959e-06
14510.0 4.5689e-06
14530.0 4.5427e-06
14550.0 4.516e-06
14570.0 4.4893e-06
14590.0 4.4635e-06
14610.0 4.4372e-06
14630.0 4.4101e-06
14650.0 4.3835e-06
14670.0 4.3571e-06
14690.0 4.3298e-06
14710.0 4.302e-06
14730.0 4.2753e-06
14750.0 4.2478e-06
14770.0 4.2195e-06
14790.0 4.1914e-06
14810.0 4.1635e-06
14830.0 4.1338e-06
14850.0 4.104e-06
14870.0 4.0749e-06
14890.0 4.0451e-06
14910.0 4.0149e-06
14930.0 3.9859e-06
14950.0 3.9582e-06
14970.0 3.931e-06
14990.0 3.9057e-06
15010.0 3.8829e-06
15030.0 3.8618e-06
15050.0 3.8419e-06
15070.0 3.8244e-06
15090.0 3.8079e-06
15110.0 3.7919e-06
15130.0 3.7764e-06
15150.0 3.7616e-06
15170.0 3.7466e-06
15190.0 3.7315e-06
15210.0 3.7169e-06
15230.0 3.7023e-06
15250.0 3.6874e-06
15270.0 3.6726e-06
15290.0 3.6583e-06
15310.0 3.6437e-06
15330.0 3.6291e-06
15350.0 3.6148e-06
15370.0 3.6005e-06
15390.0 3.5858e-06
15410.0 3.5715e-06
15430.0 3.5574e-06
15450.0 3.5431e-06
15470.0 3.5287e-06
15490.0 3.5147e-06
15510.0 3.5007e-06
15530.0 3.4865e-06
15550.0 3.4725e-06
15570.0 3.4588e-06
15590.0 3.4447e-06
15610.0 3.4305e-06
15630.0 3.4169e-06
15650.0 3.4032e-06
15670.0 3.3892e-06
15690.0 3.3755e-06
15710.0 3.3621e-06
15730.0 3.3484e-06
15750.0 3.3347e-06
15770.0 3.3213e-06
15790.0 3.3079e-06
15810.0 3.2941e-06
15830.0 3.2807e-06
15850.0 3.2676e-06
15870.0 3.2542e-06
15890.0 3.2409e-06
15910.0 3.2279e-06
15930.0 3.2148e-06
15950.0 3.2014e-06
15970.0 3.1884e-06
15990.0 3.1755e-06
16010.0 3.1624e-06
16030.0 3.1492e-06
16050.0 3.1366e-06
16070.0 3.1238e-06
16090.0 3.1108e-06
16110.0 3.0982e-06
16130.0 3.0857e-06
16150.0 3.0728e-06
16170.0 3.0601e-06
16190.0 3.0477e-06
16210.0 3.0352e-06
16230.0 3.0225e-06
16250.0 3.0102e-06
16270.0 2.9981e-06
16290.0 2.9856e-06
16310.0 2.9733e-06
16330.0 2.9613e-06
16350.0 2.9491e-06
16370.0 2.9366e-06
16390.0 2.9247e-06
16410.0 2.9128e-06
16430.0 2.9007e-06
16450.0 2.8888e-06
16470.0 2.8772e-06
16490.0 2.8653e-06
16510.0 2.8534e-06
16530.0 2.8418e-06
16550.0 2.8302e-06
16570.0 2.8184e-06
16590.0 2.8067e-06
16610.0 2.7955e-06
16630.0 2.784e-06
16650.0 2.7725e-06
16670.0 2.7613e-06
16690.0 2.7502e-06
16710.0 2.7387e-06
16730.0 2.7275e-06
16750.0 2.7165e-06
16770.0 2.7054e-06
16790.0 2.6942e-06
16810.0 2.6834e-06
16830.0 2.6726e-06
16850.0 2.6616e-06
16870.0 2.6508e-06
16890.0 2.6402e-06
16910.0 2.6294e-06
16930.0 2.6185e-06
16950.0 2.6081e-06
16970.0 2.5976e-06
16990.0 2.587e-06
17010.0 2.5766e-06
17030.0 2.5665e-06
17050.0 2.556e-06
17070.0 2.5456e-06
17090.0 2.5356e-06
17110.0 2.5255e-06
17130.0 2.5151e-06
17150.0 2.5051e-06
17170.0 2.4953e-06
17190.0 2.4852e-06
17210.0 2.4753e-06
17230.0 2.4657e-06
17250.0 2.4559e-06
17270.0 2.4459e-06
17290.0 2.4363e-06
17310.0 2.4268e-06
17330.0 2.4171e-06
17350.0 2.4074e-06
17370.0 2.3982e-06
17390.0 2.3888e-06
17410.0 2.3793e-06
17430.0 2.3701e-06
17450.0 2.361e-06
17470.0 2.3515e-06
17490.0 2.3423e-06
17510.0 2.3333e-06
17530.0 2.3243e-06
17550.0 2.3151e-06
17570.0 2.3062e-06
17590.0 2.2975e-06
17610.0 2.2885e-06
17630.0 2.2796e-06
17650.0 2.271e-06
17670.0 2.2623e-06
17690.0 2.2533e-06
17710.0 2.2448e-06
17730.0 2.2364e-06
17750.0 2.2277e-06
17770.0 2.2192e-06
17790.0 2.211e-06
17810.0 2.2025e-06
17830.0 2.194e-06
17850.0 2.1858e-06
17870.0 2.1776e-06
17890.0 2.1692e-06
17910.0 2.1609e-06
17930.0 2.153e-06
17950.0 2.1449e-06
17970.0 2.1367e-06
17990.0 2.1289e-06
18010.0 2.121e-06
18030.0 2.1128e-06
18050.0 2.1049e-06
18070.0 2.0972e-06
18090.0 2.0893e-06
18110.0 2.0814e-06
18130.0 2.0738e-06
18150.0 2.0662e-06
18170.0 2.0584e-06
18190.0 2.0508e-06
18210.0 2.0434e-06
18230.0 2.0357e-06
18250.0 2.0279e-06
18270.0 2.0206e-06
18290.0 2.0132e-06
18310.0 2.0056e-06
18330.0 1.9983e-06
18350.0 1.9911e-06
18370.0 1.9837e-06
18390.0 1.9762e-06
18410.0 1.9691e-06
18430.0 1.9619e-06
18450.0 1.9544e-06
18470.0 1.9473e-06
18490.0 1.9403e-06
18510.0 1.9331e-06
18530.0 1.9259e-06
18550.0 1.9191e-06
18570.0 1.912e-06
18590.0 1.9047e-06
18610.0 1.8978e-06
18630.0 1.891e-06
18650.0 1.8839e-06
18670.0 1.8768e-06
18690.0 1.8701e-06
18710.0 1.8633e-06
18730.0 1.8562e-06
18750.0 1.8495e-06
18770.0 1.8429e-06
18790.0 1.8357e-06
18810.0 1.8289e-06
18830.0 1.8223e-06
18850.0 1.8155e-06
18870.0 1.8086e-06
18890.0 1.802e-06
18910.0 1.7955e-06
18930.0 1.7886e-06
18950.0 1.7819e-06
18970.0 1.7754e-06
18990.0 1.7687e-06
19010.0 1.7617e-06
19030.0 1.7553e-06
19050.0 1.7488e-06
19070.0 1.7421e-06
19090.0 1.7355e-06
19110.0 1.7292e-06
19130.0 1.7224e-06
19150.0 1.7157e-06
19170.0 1.7093e-06
19190.0 1.7028e-06
19210.0 1.696e-06
19230.0 1.6894e-06
19250.0 1.6832e-06
19270.0 1.6766e-06
19290.0 1.6699e-06
19310.0 1.6636e-06
19330.0 1.6572e-06
19350.0 1.6504e-06
19370.0 1.6439e-06
19390.0 1.6375e-06
19410.0 1.6309e-06
19430.0 1.6243e-06
19450.0 1.618e-06
19470.0 1.6115e-06
19490.0 1.6049e-06
19510.0 1.5984e-06
19530.0 1.5921e-06
19550.0 1.5854e-06
19570.0 1.5786e-06
19590.0 1.5723e-06
19610.0 1.5659e-06
19630.0 1.5591e-06
19650.0 1.5527e-06
19670.0 1.5464e-06
19690.0 1.5396e-06
19710.0 1.533e-06
19730.0 1.5266e-06
19750.0 1.52e-06
19770.0 1.5131e-06
19790.0 1.5066e-06
19810.0 1.5002e-06
19830.0 1.4935e-06
19850.0 1.4869e-06
19870.0 1.4806e-06
19890.0 1.474e-06
19910.0 1.4674e-06
19930.0 1.4614e-06
19950.0 1.4558e-06
19970.0 1.4505e-06
19990.0 1.446e-06
20010.0 1.4425e-06
20030.0 1.4397e-06
20050.0 1.4376e-06
20070.0 1.4364e-06
20090.0 1.4358e-06
20110.0 1.4355e-06
20130.0 1.4356e-06
20150.0 1.436e-06
20170.0 1.4364e-06
20190.0 1.4369e-06
20210.0 1.4375e-06
20230.0 1.438e-06
20250.0 1.4384e-06
20270.0 1.4389e-06
20290.0 1.4392e-06
20310.0 1.4395e-06
20330.0 1.4395e-06
20350.0 1.4396e-06
20370.0 1.4395e-06
20390.0 1.4392e-06
20410.0 1.4389e-06
20430.0 1.4385e-06
20450.0 1.4379e-06
20470.0 1.4372e-06
20490.0 1.4365e-06
20510.0 1.4358e-06
20530.0 1.435e-06
20550.0 1.4343e-06
20570.0 1.4336e-06
20590.0 1.4329e-06
20610.0 1.4323e-06
20630.0 1.4318e-06
20650.0 1.4313e-06
20670.0 1.4307e-06
20690.0 1.4303e-06
20710.0 1.4298e-06
20730.0 1.4292e-06
20750.0 1.4285e-06
20770.0 1.4278e-06
20790.0 1.4268e-06
20810.0 1.4256e-06
20830.0 1.4242e-06
20850.0 1.4225e-06
20870.0 1.4204e-06
20890.0 1.418e-06
20910.0 1.4155e-06
20930.0 1.4127e-06
20950.0 1.4094e-06
20970.0 1.4061e-06
20990.0 1.4026e-06
21010.0 1.3987e-06
21030.0 1.3948e-06
21050.0 1.3909e-06
21070.0 1.3868e-06
21090.0 1.3825e-06
21110.0 1.3785e-06
21130.0 1.3745e-06
21150.0 1.3703e-06
21170.0 1.3662e-06
21190.0 1.3623e-06
21210.0 1.3581e-06
21230.0 1.3538e-06
21250.0 1.3497e-06
21270.0 1.3455e-06
21290.0 1.3409e-06
21310.0 1.3363e-06
21330.0 1.3318e-06
21350.0 1.3269e-06
21370.0 1.3217e-06
21390.0 1.3165e-06
21410.0 1.3112e-06
21430.0 1.3052e-06
21450.0 1.2992e-06
21470.0 1.2932e-06
21490.0 1.2869e-06
21510.0 1.2802e-06
21530.0 1.2736e-06
21550.0 1.2668e-06
21570.0 1.2596e-06
21590.0 1.2524e-06
21610.0 1.2453e-06
21630.0 1.2378e-06
21650.0 1.2301e-06
21670.0 1.2228e-06
21690.0 1.2153e-06
21710.0 1.2075e-06
21730.0 1.1998e-06
21750.0 1.1923e-06
21770.0 1.1843e-06
21790.0 1.1763e-06
21810.0 1.1685e-06
21830.0 1.1606e-06
21850.0 1.1523e-06
21870.0 1.1442e-06
21890.0 1.1363e-06
21910.0 1.128e-06
21930.0 1.1197e-06
21950.0 1.1116e-06
21970.0 1.1034e-06
21990.0 1.0948e-06
22010.0 1.0867e-06
22030.0 1.0788e-06
22050.0 1.0707e-06
22070.0 1.0628e-06
22090.0 1.0553e-06
22110.0 1.0479e-06
22130.0 1.0405e-06
22150.0 1.0334e-06
22170.0 1.0267e-06
22190.0 1.02e-06
22210.0 1.0135e-06
22230.0 1.0074e-06
22250.0 1.0014e-06
22270.0 9.9553e-07
22290.0 9.899e-07
22310.0 9.8441e-07
22330.0 9.7883e-07
22350.0 9.7337e-07
22370.0 9.6804e-07
22390.0 9.6265e-07
22410.0 9.5712e-07
22430.0 9.5172e-07
22450.0 9.4628e-07
22470.0 9.4065e-07
22490.0 9.3497e-07
22510.0 9.2932e-07
22530.0 9.2346e-07
22550.0 9.1746e-07
22570.0 9.1151e-07
22590.0 9.055e-07
