#lamb flux
1010.0 1.5345e-05
1030.0 1.6914e-05
1050.0 1.9113e-05
1070.0 2.2505e-05
1090.0 2.6746e-05
1110.0 3.122e-05
1130.0 3.5838e-05
1150.0 4.075e-05
1170.0 4.5815e-05
1190.0 5.0513e-05
1210.0 5.5038e-05
1230.0 5.9335e-05
1250.0 6.3493e-05
1270.0 6.6901e-05
1290.0 6.9762e-05
1310.0 7.177e-05
1330.0 7.2749e-05
1350.0 7.292e-05
1370.0 7.2397e-05
1390.0 7.1074e-05
1410.0 6.9074e-05
1430.0 6.6723e-05
1450.0 6.4008e-05
1470.0 6.0986e-05
1490.0 5.7873e-05
1510.0 5.4824e-05
1530.0 5.1721e-05
1550.0 4.8713e-05
1570.0 4.5902e-05
1590.0 4.3271e-05
1610.0 4.0976e-05
1630.0 3.9722e-05
1650.0 3.8837e-05
1670.0 3.8306e-05
1690.0 3.8175e-05
1710.0 3.8516e-05
1730.0 3.9317e-05
1750.0 4.0534e-05
1770.0 4.2289e-05
1790.0 4.4605e-05
1810.0 4.746e-05
1830.0 5.0902e-05
1850.0 5.5058e-05
1870.0 5.9862e-05
1890.0 6.5325e-05
1910.0 7.1538e-05
1930.0 7.8531e-05
1950.0 8.6192e-05
1970.0 9.4553e-05
1990.0 0.00010368
2010.0 0.00011345
2030.0 0.00012373
2050.0 0.00013461
2070.0 0.00014601
2090.0 0.00015761
2110.0 0.00016944
2130.0 0.0001815
2150.0 0.00019353
2170.0 0.00020534
2190.0 0.0002171
2210.0 0.00022862
2230.0 0.00023967
2250.0 0.00025031
2270.0 0.00026069
2290.0 0.00027051
2310.0 0.00027973
2330.0 0.00028865
2350.0 0.00029726
2370.0 0.00030544
2390.0 0.00031355
2410.0 0.00032204
2430.0 0.00033086
2450.0 0.00034035
2470.0 0.00035129
2490.0 0.00036411
2510.0 0.00037828
2530.0 0.00039495
2550.0 0.00041533
2570.0 0.00043975
2590.0 0.00046942
2610.0 0.00050927
2630.0 0.00055993
2650.0 0.00061978
2670.0 0.0006907
2690.0 0.00077182
2710.0 0.00085477
2730.0 0.00093581
2750.0 0.0010174
2770.0 0.0010948
2790.0 0.0011674
2810.0 0.0012408
2830.0 0.0013201
2850.0 0.0014009
2870.0 0.0014868
2890.0 0.0015813
2910.0 0.0016814
2930.0 0.0017831
2950.0 0.0018922
2970.0 0.0020076
2990.0 0.0021244
3010.0 0.0022444
3030.0 0.0023716
3050.0 0.0025025
3070.0 0.0026303
3090.0 0.0027605
3110.0 0.0028879
3130.0 0.0030037
3150.0 0.003105
3170.0 0.003188
3190.0 0.003247
3210.0 0.0032865
3230.0 0.0033094
3250.0 0.0033186
3270.0 0.0033239
3290.0 0.0033298
3310.0 0.0033384
3330.0 0.0033521
3350.0 0.0033698
3370.0 0.0033898
3390.0 0.003377
3410.0 0.0033718
3430.0 0.0034012
3450.0 0.0034226
3470.0 0.0034098
3490.0 0.0035931
3510.0 0.0042937
3530.0 0.0053112
3550.0 0.0059978
3570.0 0.0066194
3590.0 0.0074508
3610.0 0.0074454
3630.0 0.0068507
3650.0 0.007047
3670.0 0.0081822
3690.0 0.0092195
3710.0 0.0095957
3730.0 0.0096496
3750.0 0.010187
3770.0 0.010225
3790.0 0.0097796
3810.0 0.009247
3830.0 0.0087581
3850.0 0.0087778
3870.0 0.0091591
3890.0 0.0094244
3910.0 0.009503
3930.0 0.0095025
3950.0 0.010182
3970.0 0.010962
3990.0 0.010708
4010.0 0.0095865
4030.0 0.0086712
4050.0 0.0086653
4070.0 0.0090474
4090.0 0.0089546
4110.0 0.0086396
4130.0 0.0086082
4150.0 0.0090233
4170.0 0.0098973
4190.0 0.010258
4210.0 0.0095863
4230.0 0.0087654
4250.0 0.0082158
4270.0 0.0078774
4290.0 0.0078781
4310.0 0.0080437
4330.0 0.0076955
4350.0 0.0069018
4370.0 0.0062295
4390.0 0.0057679
4410.0 0.0055438
4430.0 0.0057369
4450.0 0.0063023
4470.0 0.0069126
4490.0 0.0073521
4510.0 0.008033
4530.0 0.0092293
4550.0 0.01046
4570.0 0.011236
4590.0 0.011911
4610.0 0.012438
4630.0 0.012443
4650.0 0.011596
4670.0 0.010279
4690.0 0.0092255
4710.0 0.0088429
4730.0 0.0084226
4750.0 0.0074179
4770.0 0.0066505
4790.0 0.0068167
4810.0 0.0073283
4830.0 0.0071543
4850.0 0.0063845
4870.0 0.006445
4890.0 0.0065763
4910.0 0.0066367
4930.0 0.0065112
4950.0 0.006373
4970.0 0.0060726
4990.0 0.005623
5010.0 0.0053456
5030.0 0.0053211
5050.0 0.0053572
5070.0 0.0054017
5090.0 0.0054316
5110.0 0.0054512
5130.0 0.0055703
5150.0 0.0058197
5170.0 0.0062784
5190.0 0.0068824
5210.0 0.0073372
5230.0 0.0076058
5250.0 0.0077637
5270.0 0.0079382
5290.0 0.0080358
5310.0 0.0079312
5330.0 0.0076601
5350.0 0.0074088
5370.0 0.0074062
5390.0 0.0075211
5410.0 0.007574
5430.0 0.0074682
5450.0 0.0073509
5470.0 0.0072287
5490.0 0.0071214
5510.0 0.0070825
5530.0 0.0070976
5550.0 0.0071355
5570.0 0.0071357
5590.0 0.0069842
5610.0 0.0067054
5630.0 0.0064151
5650.0 0.0061065
5670.0 0.0058684
5690.0 0.0056608
5710.0 0.0055674
5730.0 0.0055555
5750.0 0.0054644
5770.0 0.0053705
5790.0 0.0054306
5810.0 0.0055832
5830.0 0.0057019
5850.0 0.0057364
5870.0 0.0055992
5890.0 0.0053935
5910.0 0.0052389
5930.0 0.0050319
5950.0 0.0048397
5970.0 0.0048596
5990.0 0.004955
6010.0 0.0049354
6030.0 0.0047903
6050.0 0.0047636
6070.0 0.0048975
6090.0 0.0050373
6110.0 0.0050017
6130.0 0.0047292
6150.0 0.0043854
6170.0 0.0041979
6190.0 0.0041319
6210.0 0.0040822
6230.0 0.0040187
6250.0 0.0040283
6270.0 0.0041459
6290.0 0.0043003
6310.0 0.0044731
6330.0 0.0046507
6350.0 0.0047413
6370.0 0.0047345
6390.0 0.0046953
6410.0 0.0047138
6430.0 0.0047573
6450.0 0.0047484
6470.0 0.0047359
6490.0 0.0047395
6510.0 0.0047327
6530.0 0.0046853
6550.0 0.0045909
6570.0 0.0044546
6590.0 0.0043138
6610.0 0.0042044
6630.0 0.0041179
6650.0 0.0039906
6670.0 0.0038544
6690.0 0.0037477
6710.0 0.0036855
6730.0 0.003638
6750.0 0.0036046
6770.0 0.0035672
6790.0 0.0035018
6810.0 0.0034238
6830.0 0.003385
6850.0 0.0033672
6870.0 0.0033521
6890.0 0.0033497
6910.0 0.0033185
6930.0 0.0032789
6950.0 0.0032639
6970.0 0.0032343
6990.0 0.0031843
7010.0 0.0031321
7030.0 0.0030755
7050.0 0.0030166
7070.0 0.0029432
7090.0 0.0028843
7110.0 0.0029316
7130.0 0.003006
7150.0 0.0030481
7170.0 0.0030734
7190.0 0.0030729
7210.0 0.0030327
7230.0 0.0029749
7250.0 0.0029508
7270.0 0.0028954
7290.0 0.0028521
7310.0 0.0028304
7330.0 0.0028457
7350.0 0.0028408
7370.0 0.0028201
7390.0 0.0027962
7410.0 0.002764
7430.0 0.0027252
7450.0 0.0026819
7470.0 0.0026366
7490.0 0.0025671
7510.0 0.0024721
7530.0 0.002385
7550.0 0.0023292
7570.0 0.0023459
7590.0 0.0023376
7610.0 0.0023105
7630.0 0.002283
7650.0 0.0023063
7670.0 0.0023622
7690.0 0.0024464
7710.0 0.0024964
7730.0 0.0025902
7750.0 0.002654
7770.0 0.0027129
7790.0 0.0027373
7810.0 0.0026998
7830.0 0.0026914
7850.0 0.0026542
7870.0 0.0025906
7890.0 0.0025039
7910.0 0.0024344
7930.0 0.0023942
7950.0 0.0023695
7970.0 0.0023718
7990.0 0.0023788
8010.0 0.0023583
8030.0 0.0023356
8050.0 0.0022924
8070.0 0.0022537
8090.0 0.0022085
8110.0 0.0022196
8130.0 0.0022388
8150.0 0.0022471
8170.0 0.0022261
8190.0 0.0022061
8210.0 0.0021328
8230.0 0.0019994
8250.0 0.00192
8270.0 0.001875
8290.0 0.0018528
8310.0 0.0018535
8330.0 0.0018958
8350.0 0.0018662
8370.0 0.0018316
8390.0 0.0018574
8410.0 0.0019027
8430.0 0.0019877
8450.0 0.0020638
8470.0 0.0020798
8490.0 0.0020956
8510.0 0.0020782
8530.0 0.0020553
8550.0 0.0020697
8570.0 0.0020711
8590.0 0.0020553
8610.0 0.0021104
8630.0 0.0021199
8650.0 0.0020734
8670.0 0.0020676
8690.0 0.0020734
8710.0 0.0020345
8730.0 0.0020216
8750.0 0.0019581
8770.0 0.0019331
8790.0 0.0019078
8810.0 0.0018897
8830.0 0.001821
8850.0 0.0016969
8870.0 0.0015973
8890.0 0.0015465
8910.0 0.0014512
8930.0 0.0013497
8950.0 0.0013217
8970.0 0.001308
8990.0 0.0013073
9010.0 0.0012969
9030.0 0.0012877
9050.0 0.001279
9070.0 0.0012705
9090.0 0.0012619
9110.0 0.0012533
9130.0 0.0012448
9150.0 0.0012363
9170.0 0.0012277
9190.0 0.0012192
9210.0 0.0012107
9230.0 0.0012022
9250.0 0.0011937
9270.0 0.0011852
9290.0 0.0011768
9310.0 0.0011684
9330.0 0.00116
9350.0 0.0011516
9370.0 0.0011432
9390.0 0.0011349
9410.0 0.0011266
9430.0 0.0011184
9450.0 0.0011101
9470.0 0.001102
9490.0 0.0010941
9510.0 0.0010858
9530.0 0.0010777
9550.0 0.0010696
9570.0 0.0010616
9590.0 0.0010537
9610.0 0.0010457
9630.0 0.0010379
9650.0 0.0010301
9670.0 0.0010223
9690.0 0.0010146
9710.0 0.0010069
9730.0 0.00099926
9750.0 0.00099167
9770.0 0.00098416
9790.0 0.00097667
9810.0 0.00096924
9830.0 0.00096166
9850.0 0.00095292
9870.0 0.00094586
9890.0 0.00093918
9910.0 0.00093238
9930.0 0.00092497
9950.0 0.00091808
9970.0 0.00091129
9990.0 0.00090434
10010.0 0.00089676
10030.0 0.00088966
10050.0 0.00088327
10070.0 0.00087686
10090.0 0.00087046
10110.0 0.00086374
10130.0 0.00085655
10150.0 0.00085019
10170.0 0.00084392
10190.0 0.00083745
10210.0 0.00083118
10230.0 0.00082498
10250.0 0.00081861
10270.0 0.00081231
10290.0 0.00080623
10310.0 0.00080001
10330.0 0.0007937
10350.0 0.00078765
10370.0 0.00078167
10390.0 0.00077556
10410.0 0.00076952
10430.0 0.00076374
10450.0 0.00075783
10470.0 0.00075188
10490.0 0.00074613
10510.0 0.00074044
10530.0 0.00073451
10550.0 0.00072876
10570.0 0.00072321
10590.0 0.00071755
10610.0 0.00071185
10630.0 0.00070638
10650.0 0.00070093
10670.0 0.00069528
10690.0 0.00068979
10710.0 0.00068445
10730.0 0.00067899
10750.0 0.00067341
10770.0 0.00066818
10790.0 0.00066291
10810.0 0.00065751
10830.0 0.00065224
10850.0 0.00064715
10870.0 0.00064182
10890.0 0.00063655
10910.0 0.00063154
10930.0 0.00062657
10950.0 0.00062157
10970.0 0.00061684
10990.0 0.00061243
11010.0 0.00058973
11030.0 0.00058584
11050.0 0.00058225
11070.0 0.00057878
11090.0 0.00057523
11110.0 0.00057186
11130.0 0.00056853
11150.0 0.00056506
11170.0 0.00056152
11190.0 0.00055807
11210.0 0.00055449
11230.0 0.00055079
11250.0 0.00054719
11270.0 0.00054367
11290.0 0.00054006
11310.0 0.00053652
11330.0 0.00053328
11350.0 0.00053007
11370.0 0.00052692
11390.0 0.00052401
11410.0 0.00052126
11430.0 0.00051848
11450.0 0.00051585
11470.0 0.00051337
11490.0 0.00051089
11510.0 0.00050835
11530.0 0.00050591
11550.0 0.00050347
11570.0 0.00050087
11590.0 0.00049823
11610.0 0.00049562
11630.0 0.00049281
11650.0 0.00048985
11670.0 0.00048697
11690.0 0.00048405
11710.0 0.00048099
11730.0 0.00047795
11750.0 0.00047507
11770.0 0.00047209
11790.0 0.00046912
11810.0 0.00046633
11830.0 0.00046363
11850.0 0.00046085
11870.0 0.00045827
11890.0 0.0004559
11910.0 0.00045355
11930.0 0.0004513
11950.0 0.00044929
11970.0 0.00044741
11990.0 0.0004456
12010.0 0.00044405
12030.0 0.00044275
12050.0 0.00044162
12070.0 0.00044071
12090.0 0.00044015
12110.0 0.00043983
12130.0 0.00043978
12150.0 0.00044002
12170.0 0.00044053
12190.0 0.00044132
12210.0 0.00044238
12230.0 0.00044365
12250.0 0.00044514
12270.0 0.00044685
12290.0 0.0004487
12310.0 0.00045062
12330.0 0.00045267
12350.0 0.00045477
12370.0 0.00045682
12390.0 0.00045885
12410.0 0.00046085
12430.0 0.00046265
12450.0 0.00046426
12470.0 0.00046568
12490.0 0.00046683
12510.0 0.00046768
12530.0 0.00046821
12550.0 0.00046836
12570.0 0.00046814
12590.0 0.00046755
12610.0 0.00046649
12630.0 0.000465
12650.0 0.00046325
12670.0 0.00046107
12690.0 0.00045846
12710.0 0.00045566
12730.0 0.00045263
12750.0 0.00044914
12770.0 0.00044555
12790.0 0.00044195
12810.0 0.00043815
12830.0 0.00043417
12850.0 0.00043039
12870.0 0.00042665
12890.0 0.00042277
12910.0 0.00041903
12930.0 0.00041551
12950.0 0.00041191
12970.0 0.00040833
12990.0 0.00040506
13010.0 0.00040188
13030.0 0.00039868
13050.0 0.00039566
13070.0 0.00039289
13090.0 0.00039011
13110.0 0.00038743
13130.0 0.00038501
13150.0 0.00038274
13170.0 0.00038047
13190.0 0.00037847
13210.0 0.00037669
13230.0 0.00037498
13250.0 0.00037338
13270.0 0.00037198
13290.0 0.00037064
13310.0 0.00036929
13330.0 0.00036804
13350.0 0.00036684
13370.0 0.00036557
13390.0 0.00036424
13410.0 0.00036297
13430.0 0.00036159
13450.0 0.00036009
13470.0 0.00035854
13490.0 0.00035696
13510.0 0.00035516
13530.0 0.00035328
13550.0 0.00035141
13570.0 0.00034942
13590.0 0.00034728
13610.0 0.00034515
13630.0 0.00034303
13650.0 0.00034073
13670.0 0.0003384
13690.0 0.00033613
13710.0 0.00033377
13730.0 0.00033124
13750.0 0.00032884
13770.0 0.00032644
13790.0 0.00032391
13810.0 0.00032137
13830.0 0.00031892
13850.0 0.00031634
13870.0 0.00031366
13890.0 0.00031104
13910.0 0.00030839
13930.0 0.00030557
13950.0 0.0003027
13970.0 0.00029995
13990.0 0.00029705
14010.0 0.00029405
14030.0 0.00029112
14050.0 0.00028819
14070.0 0.00028507
14090.0 0.00028205
14110.0 0.00027915
14130.0 0.00027621
14150.0 0.00027328
14170.0 0.00027057
14190.0 0.00026794
14210.0 0.00026532
14230.0 0.00026284
14250.0 0.00026052
14270.0 0.0002582
14290.0 0.0002559
14310.0 0.00025377
14330.0 0.00025167
14350.0 0.00024952
14370.0 0.00024742
14390.0 0.0002454
14410.0 0.0002433
14430.0 0.00024119
14450.0 0.00023918
14470.0 0.00023718
14490.0 0.00023514
14510.0 0.00023322
14530.0 0.00023141
14550.0 0.00022961
14570.0 0.00022788
14590.0 0.00022629
14610.0 0.00022473
14630.0 0.00022319
14650.0 0.00022176
14670.0 0.00022039
14690.0 0.00021904
14710.0 0.00021771
14730.0 0.00021649
14750.0 0.0002153
14770.0 0.00021413
14790.0 0.00021304
14810.0 0.00021203
14830.0 0.00021104
14850.0 0.00021015
14870.0 0.00020937
14890.0 0.00020867
14910.0 0.00020804
14930.0 0.0002075
14950.0 0.00020702
14970.0 0.00020657
14990.0 0.00020613
15010.0 0.0002057
15030.0 0.00020524
15050.0 0.00020474
15070.0 0.00020422
15090.0 0.00020368
15110.0 0.00020311
15130.0 0.00020252
15150.0 0.00020194
15170.0 0.00020134
15190.0 0.00020072
15210.0 0.00020011
15230.0 0.0001995
15250.0 0.00019887
15270.0 0.00019824
15290.0 0.00019762
15310.0 0.00019699
15330.0 0.00019635
15350.0 0.00019572
15370.0 0.00019508
15390.0 0.00019443
15410.0 0.00019378
15430.0 0.00019313
15450.0 0.00019248
15470.0 0.00019181
15490.0 0.00019116
15510.0 0.00019051
15530.0 0.00018984
15550.0 0.00018917
15570.0 0.00018852
15590.0 0.00018784
15610.0 0.00018716
15630.0 0.0001865
15650.0 0.00018583
15670.0 0.00018515
15690.0 0.00018448
15710.0 0.00018381
15730.0 0.00018313
15750.0 0.00018245
15770.0 0.00018178
15790.0 0.00018111
15810.0 0.00018042
15830.0 0.00017974
15850.0 0.00017907
15870.0 0.00017839
15890.0 0.00017771
15910.0 0.00017704
15930.0 0.00017636
15950.0 0.00017568
15970.0 0.000175
15990.0 0.00017433
16010.0 0.00017366
16030.0 0.00017297
16050.0 0.00017231
16070.0 0.00017164
16090.0 0.00017097
16110.0 0.0001703
16130.0 0.00016964
16150.0 0.00016897
16170.0 0.0001683
16190.0 0.00016764
16210.0 0.00016698
16230.0 0.00016632
16250.0 0.00016566
16270.0 0.00016502
16290.0 0.00016436
16310.0 0.00016371
16330.0 0.00016306
16350.0 0.00016242
16370.0 0.00016176
16390.0 0.00016113
16410.0 0.00016049
16430.0 0.00015985
16450.0 0.00015921
16470.0 0.00015859
16490.0 0.00015796
16510.0 0.00015733
16530.0 0.00015671
16550.0 0.00015609
16570.0 0.00015547
16590.0 0.00015485
16610.0 0.00015425
16630.0 0.00015364
16650.0 0.00015303
16670.0 0.00015243
16690.0 0.00015183
16710.0 0.00015123
16730.0 0.00015063
16750.0 0.00015005
16770.0 0.00014946
16790.0 0.00014887
16810.0 0.00014829
16830.0 0.00014772
16850.0 0.00014714
16870.0 0.00014656
16890.0 0.000146
16910.0 0.00014543
16930.0 0.00014486
16950.0 0.00014431
16970.0 0.00014376
16990.0 0.0001432
17010.0 0.00014265
17030.0 0.00014211
17050.0 0.00014157
17070.0 0.00014103
17090.0 0.00014049
17110.0 0.00013996
17130.0 0.00013942
17150.0 0.0001389
17170.0 0.00013838
17190.0 0.00013786
17210.0 0.00013734
17230.0 0.00013683
17250.0 0.00013633
17270.0 0.00013581
17290.0 0.00013531
17310.0 0.00013481
17330.0 0.00013431
17350.0 0.00013381
17370.0 0.00013333
17390.0 0.00013284
17410.0 0.00013235
17430.0 0.00013187
17450.0 0.0001314
17470.0 0.00013091
17490.0 0.00013043
17510.0 0.00012997
17530.0 0.0001295
17550.0 0.00012903
17570.0 0.00012857
17590.0 0.00012812
17610.0 0.00012766
17630.0 0.0001272
17650.0 0.00012676
17670.0 0.00012631
17690.0 0.00012585
17710.0 0.00012541
17730.0 0.00012498
17750.0 0.00012453
17770.0 0.0001241
17790.0 0.00012367
17810.0 0.00012324
17830.0 0.0001228
17850.0 0.00012238
17870.0 0.00012196
17890.0 0.00012153
17910.0 0.00012111
17930.0 0.00012071
17950.0 0.00012029
17970.0 0.00011987
17990.0 0.00011947
18010.0 0.00011907
18030.0 0.00011865
18050.0 0.00011825
18070.0 0.00011785
18090.0 0.00011745
18110.0 0.00011705
18130.0 0.00011666
18150.0 0.00011627
18170.0 0.00011587
18190.0 0.00011549
18210.0 0.00011511
18230.0 0.00011472
18250.0 0.00011433
18270.0 0.00011395
18290.0 0.00011357
18310.0 0.00011319
18330.0 0.00011281
18350.0 0.00011245
18370.0 0.00011207
18390.0 0.00011169
18410.0 0.00011133
18430.0 0.00011096
18450.0 0.00011059
18470.0 0.00011022
18490.0 0.00010987
18510.0 0.0001095
18530.0 0.00010914
18550.0 0.00010879
18570.0 0.00010843
18590.0 0.00010807
18610.0 0.00010772
18630.0 0.00010737
18650.0 0.00010701
18670.0 0.00010666
18690.0 0.00010632
18710.0 0.00010597
18730.0 0.00010562
18750.0 0.00010528
18770.0 0.00010494
18790.0 0.00010459
18810.0 0.00010425
18830.0 0.00010391
18850.0 0.00010358
18870.0 0.00010323
18890.0 0.0001029
18910.0 0.00010257
18930.0 0.00010224
18950.0 0.0001019
18970.0 0.00010158
18990.0 0.00010125
19010.0 0.00010091
19030.0 0.00010059
19050.0 0.00010027
19070.0 9.9943e-05
19090.0 9.962e-05
19110.0 9.9307e-05
19130.0 9.8983e-05
19150.0 9.8659e-05
19170.0 9.8345e-05
19190.0 9.8031e-05
19210.0 9.771e-05
19230.0 9.7395e-05
19250.0 9.7089e-05
19270.0 9.6777e-05
19290.0 9.6464e-05
19310.0 9.616e-05
19330.0 9.5855e-05
19350.0 9.554e-05
19370.0 9.5236e-05
19390.0 9.4937e-05
19410.0 9.4632e-05
19430.0 9.4327e-05
19450.0 9.4033e-05
19470.0 9.3737e-05
19490.0 9.3435e-05
19510.0 9.3141e-05
19530.0 9.2851e-05
19550.0 9.2554e-05
19570.0 9.2257e-05
19590.0 9.1972e-05
19610.0 9.1684e-05
19630.0 9.1392e-05
19650.0 9.1108e-05
19670.0 9.083e-05
19690.0 9.0542e-05
19710.0 9.0258e-05
19730.0 8.9982e-05
19750.0 8.9704e-05
19770.0 8.9419e-05
19790.0 8.9145e-05
19810.0 8.8875e-05
19830.0 8.8599e-05
19850.0 8.8323e-05
19870.0 8.8054e-05
19890.0 8.7772e-05
19910.0 8.7471e-05
19930.0 8.7159e-05
19950.0 8.6817e-05
19970.0 8.6417e-05
19990.0 8.5955e-05
20010.0 8.5448e-05
20030.0 8.4855e-05
20050.0 8.4179e-05
20070.0 8.3462e-05
20090.0 8.2705e-05
20110.0 8.1865e-05
20130.0 8.1029e-05
20150.0 8.021e-05
20170.0 7.9372e-05
20190.0 7.8529e-05
20210.0 7.7737e-05
20230.0 7.6965e-05
20250.0 7.6187e-05
20270.0 7.5457e-05
20290.0 7.4776e-05
20310.0 7.4109e-05
20330.0 7.3459e-05
20350.0 7.2886e-05
20370.0 7.234e-05
20390.0 7.1813e-05
20410.0 7.1332e-05
20430.0 7.0899e-05
20450.0 7.0475e-05
20470.0 7.0086e-05
20490.0 6.9742e-05
20510.0 6.9426e-05
20530.0 6.9129e-05
20550.0 6.887e-05
20570.0 6.8647e-05
20590.0 6.8441e-05
20610.0 6.8262e-05
20630.0 6.8113e-05
20650.0 6.7984e-05
20670.0 6.7869e-05
20690.0 6.7779e-05
20710.0 6.7704e-05
20730.0 6.7636e-05
20750.0 6.7575e-05
20770.0 6.752e-05
20790.0 6.7462e-05
20810.0 6.7395e-05
20830.0 6.7319e-05
20850.0 6.7231e-05
20870.0 6.7117e-05
20890.0 6.6979e-05
20910.0 6.6825e-05
20930.0 6.664e-05
20950.0 6.642e-05
20970.0 6.6181e-05
20990.0 6.5919e-05
21010.0 6.5614e-05
21030.0 6.5289e-05
21050.0 6.4955e-05
21070.0 6.4594e-05
21090.0 6.4201e-05
21110.0 6.3819e-05
21130.0 6.3431e-05
21150.0 6.3021e-05
21170.0 6.2612e-05
21190.0 6.222e-05
21210.0 6.1812e-05
21230.0 6.1398e-05
21250.0 6.101e-05
21270.0 6.0632e-05
21290.0 6.0246e-05
21310.0 5.9875e-05
21330.0 5.9535e-05
21350.0 5.9191e-05
21370.0 5.8853e-05
21390.0 5.854e-05
21410.0 5.8241e-05
21430.0 5.7928e-05
21450.0 5.764e-05
21470.0 5.7373e-05
21490.0 5.7103e-05
21510.0 5.6834e-05
21530.0 5.6588e-05
21550.0 5.6344e-05
21570.0 5.609e-05
21590.0 5.5848e-05
21610.0 5.5617e-05
21630.0 5.5377e-05
21650.0 5.5127e-05
21670.0 5.4903e-05
21690.0 5.4672e-05
21710.0 5.4429e-05
21730.0 5.4193e-05
21750.0 5.3968e-05
21770.0 5.3719e-05
21790.0 5.347e-05
21810.0 5.3232e-05
21830.0 5.2988e-05
21850.0 5.2727e-05
21870.0 5.2474e-05
21890.0 5.2232e-05
21910.0 5.197e-05
21930.0 5.1706e-05
21950.0 5.1453e-05
21970.0 5.1193e-05
21990.0 5.0911e-05
22010.0 5.0648e-05
22030.0 5.039e-05
22050.0 5.0118e-05
22070.0 4.9846e-05
22090.0 4.9595e-05
22110.0 4.9336e-05
22130.0 4.907e-05
22150.0 4.8822e-05
22170.0 4.8586e-05
22190.0 4.8339e-05
22210.0 4.8102e-05
22230.0 4.7896e-05
22250.0 4.769e-05
22270.0 4.7489e-05
22290.0 4.7311e-05
22310.0 4.715e-05
22330.0 4.6985e-05
22350.0 4.6839e-05
22370.0 4.6715e-05
22390.0 4.6596e-05
22410.0 4.648e-05
22430.0 4.6389e-05
22450.0 4.6309e-05
22470.0 4.623e-05
22490.0 4.6163e-05
22510.0 4.6113e-05
22530.0 4.6061e-05
22550.0 4.6014e-05
22570.0 4.5984e-05
22590.0 4.5962e-05
22610.0 4.5941e-05
22630.0 4.5931e-05
22650.0 4.5938e-05
22670.0 4.5945e-05
22690.0 4.596e-05
22710.0 4.599e-05
22730.0 4.6029e-05
22750.0 4.607e-05
22770.0 4.6127e-05
22790.0 4.6199e-05
22810.0 4.6278e-05
22830.0 4.6368e-05
22850.0 4.6476e-05
22870.0 4.6596e-05
22890.0 4.6728e-05
22910.0 4.6878e-05
22930.0 4.7047e-05
22950.0 4.7232e-05
22970.0 4.7438e-05
22990.0 4.7666e-05
