#lamb flux
1010.0 5.5736e-09
1030.0 6.1102e-09
1050.0 6.7274e-09
1070.0 7.4221e-09
1090.0 8.2113e-09
1110.0 9.0207e-09
1130.0 9.8353e-09
1150.0 1.0689e-08
1170.0 1.1569e-08
1190.0 1.2404e-08
1210.0 1.325e-08
1230.0 1.4124e-08
1250.0 1.498e-08
1270.0 1.5812e-08
1290.0 1.6691e-08
1310.0 1.7569e-08
1330.0 1.8411e-08
1350.0 1.9262e-08
1370.0 2.0141e-08
1390.0 2.0999e-08
1410.0 2.183e-08
1430.0 2.2699e-08
1450.0 2.3568e-08
1470.0 2.4408e-08
1490.0 2.5257e-08
1510.0 2.6153e-08
1530.0 2.7003e-08
1550.0 2.784e-08
1570.0 2.8706e-08
1590.0 2.9573e-08
1610.0 3.0401e-08
1630.0 3.1254e-08
1650.0 3.2128e-08
1670.0 3.2974e-08
1690.0 3.3808e-08
1710.0 3.4673e-08
1730.0 3.5543e-08
1750.0 3.6358e-08
1770.0 3.7197e-08
1790.0 3.8051e-08
1810.0 3.8876e-08
1830.0 3.9683e-08
1850.0 4.0539e-08
1870.0 4.1368e-08
1890.0 4.2166e-08
1910.0 4.2975e-08
1930.0 4.3801e-08
1950.0 4.4582e-08
1970.0 4.5347e-08
1990.0 4.6136e-08
2010.0 4.6904e-08
2030.0 4.7633e-08
2050.0 4.8377e-08
2070.0 4.9132e-08
2090.0 4.9826e-08
2110.0 5.0505e-08
2130.0 5.1195e-08
2150.0 5.1854e-08
2170.0 5.2461e-08
2190.0 5.3081e-08
2210.0 5.3687e-08
2230.0 5.424e-08
2250.0 5.4769e-08
2270.0 5.5311e-08
2290.0 5.5804e-08
2310.0 5.6243e-08
2330.0 5.6686e-08
2350.0 5.7123e-08
2370.0 5.7529e-08
2390.0 5.7972e-08
2410.0 5.8539e-08
2430.0 5.9221e-08
2450.0 6.0089e-08
2470.0 6.1296e-08
2490.0 6.2909e-08
2510.0 6.4783e-08
2530.0 6.7134e-08
2550.0 7.0217e-08
2570.0 7.419e-08
2590.0 7.9486e-08
2610.0 8.7573e-08
2630.0 9.9064e-08
2650.0 1.138e-07
2670.0 1.3246e-07
2690.0 1.5481e-07
2710.0 1.7788e-07
2730.0 1.9981e-07
2750.0 2.2059e-07
2770.0 2.3765e-07
2790.0 2.501e-07
2810.0 2.5896e-07
2830.0 2.6487e-07
2850.0 2.6768e-07
2870.0 2.6875e-07
2890.0 2.6884e-07
2910.0 2.6822e-07
2930.0 2.6715e-07
2950.0 2.66e-07
2970.0 2.6485e-07
2990.0 2.6364e-07
3010.0 8.4109e-06
3030.0 8.3765e-06
3050.0 8.3426e-06
3070.0 8.3038e-06
3090.0 8.2607e-06
3110.0 8.2046e-06
3130.0 8.1254e-06
3150.0 8.0156e-06
3170.0 7.8595e-06
3190.0 7.6599e-06
3210.0 7.4299e-06
3230.0 7.1789e-06
3250.0 6.9225e-06
3270.0 6.7302e-06
3290.0 6.5837e-06
3310.0 6.5496e-06
3330.0 6.5908e-06
3350.0 6.7055e-06
3370.0 6.8927e-06
3390.0 7.143e-06
3410.0 7.4236e-06
3430.0 7.7446e-06
3450.0 8.1191e-06
3470.0 8.5329e-06
3490.0 8.9779e-06
3510.0 9.4857e-06
3530.0 1.0041e-05
3550.0 1.0637e-05
3570.0 1.1296e-05
3590.0 1.2032e-05
3610.0 1.2852e-05
3630.0 1.3669e-05
3650.0 1.4534e-05
3670.0 1.5314e-05
3690.0 1.5893e-05
3710.0 1.6183e-05
3730.0 1.6009e-05
3750.0 1.5382e-05
3770.0 1.5734e-05
3790.0 1.5372e-05
3810.0 1.1851e-05
3830.0 1.1384e-05
3850.0 1.6779e-05
3870.0 1.6193e-05
3890.0 1.2252e-05
3910.0 1.191e-05
3930.0 1.5209e-05
3950.0 1.82e-05
3970.0 2.0687e-05
3990.0 1.4231e-05
4010.0 2.6628e-05
4030.0 2.5688e-05
4050.0 2.7104e-05
4070.0 3.0736e-05
4090.0 2.9116e-05
4110.0 2.5679e-05
4130.0 3.1654e-05
4150.0 4.244e-05
4170.0 3.3591e-05
4190.0 2.9621e-05
4210.0 3.3411e-05
4230.0 4.1454e-05
4250.0 4.9569e-05
4270.0 5.39e-05
4290.0 4.787e-05
4310.0 4.4204e-05
4330.0 4.3745e-05
4350.0 5.6102e-05
4370.0 6.8287e-05
4390.0 5.4182e-05
4410.0 3.0127e-05
4430.0 2.1271e-05
4450.0 1.9874e-05
4470.0 1.2258e-05
4490.0 2.1719e-05
4510.0 4.6842e-05
4530.0 5.716e-05
4550.0 5.3872e-05
4570.0 4.8185e-05
4590.0 5.1551e-05
4610.0 0.0001026
4630.0 0.00014406
4650.0 0.00013576
4670.0 0.00011924
4690.0 0.00012262
4710.0 0.00012837
4730.0 0.00010454
4750.0 6.724e-05
4770.0 4.6077e-05
4790.0 5.1581e-05
4810.0 5.4401e-05
4830.0 5.3927e-05
4850.0 5.8603e-05
4870.0 7.7646e-05
4890.0 8.9964e-05
4910.0 6.9546e-05
4930.0 6.7594e-05
4950.0 7.8025e-05
4970.0 0.00010426
4990.0 0.00014069
5010.0 0.00016239
5030.0 0.00012908
5050.0 7.8365e-05
5070.0 5.5876e-05
5090.0 4.2541e-05
5110.0 3.9671e-05
5130.0 4.762e-05
5150.0 4.5799e-05
5170.0 4.2939e-05
5190.0 3.8119e-05
5210.0 4.2456e-05
5230.0 5.3287e-05
5250.0 6.2431e-05
5270.0 5.7412e-05
5290.0 6.1984e-05
5310.0 8.3861e-05
5330.0 8.9534e-05
5350.0 8.8179e-05
5370.0 9.9626e-05
5390.0 0.00012461
5410.0 0.00010588
5430.0 8.0313e-05
5450.0 8.1435e-05
5470.0 9.5462e-05
5490.0 0.00012003
5510.0 0.00014631
5530.0 0.00016973
5550.0 0.00015267
5570.0 0.00013664
5590.0 0.00011191
5610.0 0.00011424
5630.0 0.00012922
5650.0 0.00011929
5670.0 0.00010973
5690.0 8.8234e-05
5710.0 9.0966e-05
5730.0 8.8747e-05
5750.0 4.7204e-05
5770.0 3.3679e-05
5790.0 4.2126e-05
5810.0 4.4471e-05
5830.0 7.0263e-05
5850.0 9.2063e-05
5870.0 9.8419e-05
5890.0 9.3258e-05
5910.0 9.0549e-05
5930.0 8.7431e-05
5950.0 9.0427e-05
5970.0 0.00011275
5990.0 9.1933e-05
6010.0 7.0267e-05
6030.0 5.7079e-05
6050.0 5.1002e-05
6070.0 6.1643e-05
6090.0 6.9723e-05
6110.0 7.07e-05
6130.0 6.448e-05
6150.0 5.045e-05
6170.0 3.9341e-05
6190.0 4.8705e-05
6210.0 7.7918e-05
6230.0 0.00011527
6250.0 0.00012362
6270.0 9.3705e-05
6290.0 8.0265e-05
6310.0 6.1159e-05
6330.0 4.4447e-05
6350.0 4.3981e-05
6370.0 4.6192e-05
6390.0 5.558e-05
6410.0 7.1947e-05
6430.0 8.6818e-05
6450.0 0.00010719
6470.0 0.00011293
6490.0 0.00013551
6510.0 0.00015211
6530.0 0.00015499
6550.0 0.00014285
6570.0 0.00011515
6590.0 0.0001106
6610.0 9.1431e-05
6630.0 9.5727e-05
6650.0 9.2865e-05
6670.0 8.1067e-05
6690.0 6.2697e-05
6710.0 6.1419e-05
6730.0 2.65e-05
6750.0 3.6021e-05
6770.0 5.7491e-05
6790.0 7.6808e-05
6810.0 5.431e-05
6830.0 5.5445e-05
6850.0 4.6024e-05
6870.0 4.3374e-05
6890.0 3.6387e-05
6910.0 4.425e-05
6930.0 4.1609e-05
6950.0 5.0346e-05
6970.0 5.1951e-05
6990.0 5.7521e-05
7010.0 5.5804e-05
7030.0 6.3791e-05
7050.0 5.4842e-05
7070.0 4.548e-05
7090.0 4.8725e-05
7110.0 5.1362e-05
7130.0 5.9209e-05
7150.0 6.7563e-05
7170.0 7.5677e-05
7190.0 8.0088e-05
7210.0 7.0602e-05
7230.0 7.1336e-05
7250.0 7.6814e-05
7270.0 8.2917e-05
7290.0 0.00010186
7310.0 0.00010653
7330.0 9.8585e-05
7350.0 8.8072e-05
7370.0 6.4306e-05
7390.0 6.7146e-05
7410.0 8.3663e-05
7430.0 9.5423e-05
7450.0 0.00010264
7470.0 9.3838e-05
7490.0 7.5711e-05
7510.0 0.00012532
7530.0 0.00011273
7550.0 0.00010596
7570.0 7.0928e-05
7590.0 2.991e-05
7610.0 2.0501e-05
7630.0 3.2396e-05
7650.0 4.4158e-05
7670.0 7.1902e-05
7690.0 8.047e-05
7710.0 7.1707e-05
7730.0 7.0452e-05
7750.0 9.3618e-05
7770.0 9.6137e-05
7790.0 8.8089e-05
7810.0 7.0762e-05
7830.0 7.6745e-05
7850.0 8.4752e-05
7870.0 8.3326e-05
7890.0 6.4914e-05
7910.0 4.2795e-05
7930.0 4.4416e-05
7950.0 4.0015e-05
7970.0 3.3438e-05
7990.0 2.991e-05
8010.0 2.0339e-05
8030.0 1.8803e-05
8050.0 2.0258e-05
8070.0 2.2498e-05
8090.0 2.703e-05
8110.0 2.5312e-05
8130.0 1.5554e-05
8150.0 1.5881e-05
8170.0 9.4026e-06
8190.0 6.158e-06
8210.0 1.4184e-05
8230.0 1.6949e-05
8250.0 7.3255e-06
8270.0 5.8703e-06
8290.0 1.0173e-05
8310.0 8.733e-06
8330.0 5.3442e-06
8350.0 4.2969e-06
8370.0 1.2181e-06
8390.0 4.6272e-06
8410.0 5.4196e-06
8430.0 6.7478e-06
8450.0 7.5786e-06
8470.0 1.2371e-05
8490.0 1.0132e-05
8510.0 7.8998e-06
8530.0 4.1419e-06
8550.0 1.3689e-05
8570.0 2.1228e-05
8590.0 1.5093e-05
8610.0 2.2414e-05
8630.0 2.4369e-05
8650.0 1.3505e-05
8670.0 1.949e-05
8690.0 2.9889e-05
8710.0 2.5788e-05
8730.0 2.7711e-05
8750.0 2.1933e-05
8770.0 1.958e-05
8790.0 2.169e-05
8810.0 2.3406e-05
8830.0 1.3224e-05
8850.0 6.0475e-06
8870.0 4.3827e-06
8890.0 1.0223e-05
8910.0 1.5917e-05
8930.0 2.0865e-05
8950.0 2.3451e-05
8970.0 2.2655e-05
8990.0 1.7252e-05
9010.0 1.3633e-05
9030.0 1.0433e-05
9050.0 1.0877e-05
9070.0 1.1324e-05
9090.0 1.1684e-05
9110.0 1.2114e-05
9130.0 1.2426e-05
9150.0 1.2649e-05
9170.0 1.2886e-05
9190.0 1.314e-05
9210.0 1.3406e-05
9230.0 1.3688e-05
9250.0 1.3974e-05
9270.0 1.4268e-05
9290.0 1.4571e-05
9310.0 1.4873e-05
9330.0 1.5179e-05
9350.0 1.5496e-05
9370.0 1.5815e-05
9390.0 1.6136e-05
9410.0 1.6464e-05
9430.0 1.6802e-05
9450.0 1.7136e-05
9470.0 1.7477e-05
9490.0 1.7826e-05
9510.0 1.8178e-05
9530.0 1.8531e-05
9550.0 1.8896e-05
9570.0 1.9266e-05
9590.0 1.9636e-05
9610.0 2.0012e-05
9630.0 2.0398e-05
9650.0 2.0786e-05
9670.0 2.1174e-05
9690.0 2.1572e-05
9710.0 2.1976e-05
9730.0 2.238e-05
9750.0 2.2789e-05
9770.0 2.3212e-05
9790.0 2.3632e-05
9810.0 2.4054e-05
9830.0 2.4485e-05
9850.0 2.4921e-05
9870.0 2.5355e-05
9890.0 2.5796e-05
9910.0 2.6246e-05
9930.0 2.6695e-05
9950.0 2.7145e-05
9970.0 2.7605e-05
9990.0 2.8069e-05
10010.0 2.5282e-05
10030.0 2.5691e-05
10050.0 2.6106e-05
10070.0 2.6515e-05
10090.0 2.6929e-05
10110.0 2.7352e-05
10130.0 2.7774e-05
10150.0 2.8193e-05
10170.0 2.8616e-05
10190.0 2.9044e-05
10210.0 2.9466e-05
10230.0 2.9888e-05
10250.0 3.0315e-05
10270.0 3.074e-05
10290.0 3.1161e-05
10310.0 3.1586e-05
10330.0 3.2013e-05
10350.0 3.2434e-05
10370.0 3.2853e-05
10390.0 3.3275e-05
10410.0 3.3694e-05
10430.0 3.4105e-05
10450.0 3.4518e-05
10470.0 3.4932e-05
10490.0 3.5337e-05
10510.0 3.5739e-05
10530.0 3.6145e-05
10550.0 3.6544e-05
10570.0 3.6934e-05
10590.0 3.7324e-05
10610.0 3.7711e-05
10630.0 3.8088e-05
10650.0 3.8461e-05
10670.0 3.8835e-05
10690.0 3.92e-05
10710.0 3.9555e-05
10730.0 3.991e-05
10750.0 4.0262e-05
10770.0 4.0599e-05
10790.0 4.093e-05
10810.0 4.1259e-05
10830.0 4.1577e-05
10850.0 4.1878e-05
10870.0 4.217e-05
10890.0 4.2433e-05
10910.0 4.2649e-05
10930.0 4.2798e-05
10950.0 4.2844e-05
10970.0 4.2755e-05
10990.0 4.2516e-05
11010.0 4.3129e-05
11030.0 4.2478e-05
11050.0 4.1661e-05
11070.0 4.0669e-05
11090.0 3.9466e-05
11110.0 3.8217e-05
11130.0 3.6913e-05
11150.0 3.5511e-05
11170.0 3.4073e-05
11190.0 3.2683e-05
11210.0 3.1257e-05
11230.0 2.9806e-05
11250.0 2.8428e-05
11270.0 2.7112e-05
11290.0 2.5802e-05
11310.0 2.4566e-05
11330.0 2.3479e-05
11350.0 2.2451e-05
11370.0 2.1499e-05
11390.0 2.0668e-05
11410.0 1.9931e-05
11430.0 1.9238e-05
11450.0 1.8627e-05
11470.0 1.8084e-05
11490.0 1.7568e-05
11510.0 1.7061e-05
11530.0 1.6582e-05
11550.0 1.6103e-05
11570.0 1.5595e-05
11590.0 1.5073e-05
11610.0 1.4546e-05
11630.0 1.3981e-05
11650.0 1.3385e-05
11670.0 1.2802e-05
11690.0 1.2216e-05
11710.0 1.1616e-05
11730.0 1.1037e-05
11750.0 1.0501e-05
11770.0 9.9755e-06
11790.0 9.4812e-06
11810.0 9.0415e-06
11830.0 8.6435e-06
11850.0 8.2725e-06
11870.0 7.9545e-06
11890.0 7.6821e-06
11910.0 7.4363e-06
11930.0 7.2177e-06
11950.0 7.0282e-06
11970.0 6.8537e-06
11990.0 6.6858e-06
12010.0 6.5277e-06
12030.0 6.3745e-06
12050.0 6.2178e-06
12070.0 6.0568e-06
12090.0 5.9011e-06
12110.0 5.7435e-06
12130.0 5.5845e-06
12150.0 5.4337e-06
12170.0 5.2951e-06
12190.0 5.1647e-06
12210.0 5.0548e-06
12230.0 4.9704e-06
12250.0 4.9117e-06
12270.0 4.8838e-06
12290.0 4.8885e-06
12310.0 4.9234e-06
12330.0 4.9947e-06
12350.0 5.0989e-06
12370.0 5.227e-06
12390.0 5.3829e-06
12410.0 5.5737e-06
12430.0 5.7698e-06
12450.0 5.9747e-06
12470.0 6.1949e-06
12490.0 6.4161e-06
12510.0 6.6212e-06
12530.0 6.8246e-06
12550.0 7.0192e-06
12570.0 7.1866e-06
12590.0 7.3295e-06
12610.0 7.4533e-06
12630.0 7.546e-06
12650.0 7.6006e-06
12670.0 7.627e-06
12690.0 7.6211e-06
12710.0 7.5816e-06
12730.0 7.5126e-06
12750.0 7.412e-06
12770.0 7.2843e-06
12790.0 7.1358e-06
12810.0 6.9645e-06
12830.0 6.7716e-06
12850.0 6.572e-06
12870.0 6.3635e-06
12890.0 6.1414e-06
12910.0 5.9173e-06
12930.0 5.6974e-06
12950.0 5.4701e-06
12970.0 5.2404e-06
12990.0 5.0227e-06
13010.0 4.8082e-06
13030.0 4.592e-06
13050.0 4.3837e-06
13070.0 4.1875e-06
13090.0 3.9904e-06
13110.0 3.7987e-06
13130.0 3.6202e-06
13150.0 3.4497e-06
13170.0 3.2816e-06
13190.0 3.1294e-06
13210.0 2.993e-06
13230.0 2.8658e-06
13250.0 2.7529e-06
13270.0 2.6595e-06
13290.0 2.5815e-06
13310.0 2.5202e-06
13330.0 2.48e-06
13350.0 2.4595e-06
13370.0 2.459e-06
13390.0 2.4802e-06
13410.0 2.5181e-06
13430.0 2.5745e-06
13450.0 2.6497e-06
13470.0 2.7373e-06
13490.0 2.8331e-06
13510.0 2.9449e-06
13530.0 3.0611e-06
13550.0 3.1745e-06
13570.0 3.2887e-06
13590.0 3.4027e-06
13610.0 3.5058e-06
13630.0 3.5975e-06
13650.0 3.6833e-06
13670.0 3.7562e-06
13690.0 3.8137e-06
13710.0 3.8597e-06
13730.0 3.8945e-06
13750.0 3.9134e-06
13770.0 3.9205e-06
13790.0 3.9164e-06
13810.0 3.9011e-06
13830.0 3.8764e-06
13850.0 3.8421e-06
13870.0 3.7983e-06
13890.0 3.7478e-06
13910.0 3.6909e-06
13930.0 3.6254e-06
13950.0 3.5543e-06
13970.0 3.4819e-06
13990.0 3.4038e-06
14010.0 3.3215e-06
14030.0 3.2399e-06
14050.0 3.1582e-06
14070.0 3.0725e-06
14090.0 2.9908e-06
14110.0 2.9141e-06
14130.0 2.84e-06
14150.0 2.77e-06
14170.0 2.71e-06
14190.0 2.6576e-06
14210.0 2.6126e-06
14230.0 2.5782e-06
14250.0 2.5548e-06
14270.0 2.5416e-06
14290.0 2.5401e-06
14310.0 2.5496e-06
14330.0 2.5697e-06
14350.0 2.6011e-06
14370.0 2.6417e-06
14390.0 2.6892e-06
14410.0 2.7463e-06
14430.0 2.8105e-06
14450.0 2.8775e-06
14470.0 2.9486e-06
14490.0 3.026e-06
14510.0 3.1019e-06
14530.0 3.176e-06
14550.0 3.2519e-06
14570.0 3.3269e-06
14590.0 3.3972e-06
14610.0 3.4672e-06
14630.0 3.5382e-06
14650.0 3.6062e-06
14670.0 3.6731e-06
14690.0 3.7435e-06
14710.0 3.8177e-06
14730.0 3.8919e-06
14750.0 3.9731e-06
14770.0 4.0639e-06
14790.0 4.1608e-06
14810.0 4.2644e-06
14830.0 4.3848e-06
14850.0 4.5139e-06
14870.0 4.6473e-06
14890.0 4.7896e-06
14910.0 4.9395e-06
14930.0 5.0831e-06
14950.0 5.2174e-06
14970.0 5.3445e-06
14990.0 5.4522e-06
15010.0 5.5363e-06
15030.0 5.6007e-06
15050.0 5.646e-06
15070.0 5.6725e-06
15090.0 5.6873e-06
15110.0 5.694e-06
15130.0 5.6956e-06
15150.0 5.6949e-06
15170.0 5.6925e-06
15190.0 5.6893e-06
15210.0 5.6865e-06
15230.0 5.6837e-06
15250.0 5.6806e-06
15270.0 5.6776e-06
15290.0 5.6754e-06
15310.0 5.6729e-06
15330.0 5.6703e-06
15350.0 5.6683e-06
15370.0 5.6664e-06
15390.0 5.6638e-06
15410.0 5.6617e-06
15430.0 5.6601e-06
15450.0 5.6581e-06
15470.0 5.656e-06
15490.0 5.6545e-06
15510.0 5.6531e-06
15530.0 5.6512e-06
15550.0 5.6496e-06
15570.0 5.6484e-06
15590.0 5.6467e-06
15610.0 5.6448e-06
15630.0 5.6435e-06
15650.0 5.6422e-06
15670.0 5.6404e-06
15690.0 5.639e-06
15710.0 5.6379e-06
15730.0 5.6362e-06
15750.0 5.6345e-06
15770.0 5.6332e-06
15790.0 5.6318e-06
15810.0 5.6297e-06
15830.0 5.6281e-06
15850.0 5.6267e-06
15870.0 5.6249e-06
15890.0 5.6229e-06
15910.0 5.6215e-06
15930.0 5.6196e-06
15950.0 5.6172e-06
15970.0 5.6153e-06
15990.0 5.6134e-06
16010.0 5.611e-06
16030.0 5.6083e-06
16050.0 5.6064e-06
16070.0 5.604e-06
16090.0 5.6011e-06
16110.0 5.5986e-06
16130.0 5.5962e-06
16150.0 5.5928e-06
16170.0 5.5896e-06
16190.0 5.5867e-06
16210.0 5.5835e-06
16230.0 5.5797e-06
16250.0 5.5764e-06
16270.0 5.5731e-06
16290.0 5.569e-06
16310.0 5.565e-06
16330.0 5.5612e-06
16350.0 5.557e-06
16370.0 5.552e-06
16390.0 5.5477e-06
16410.0 5.5433e-06
16430.0 5.5382e-06
16450.0 5.5331e-06
16470.0 5.5284e-06
16490.0 5.5229e-06
16510.0 5.5171e-06
16530.0 5.5116e-06
16550.0 5.506e-06
16570.0 5.4995e-06
16590.0 5.4931e-06
16610.0 5.4872e-06
16630.0 5.4806e-06
16650.0 5.4736e-06
16670.0 5.467e-06
16690.0 5.4601e-06
16710.0 5.4523e-06
16730.0 5.4447e-06
16750.0 5.4374e-06
16770.0 5.4294e-06
16790.0 5.4209e-06
16810.0 5.413e-06
16830.0 5.4048e-06
16850.0 5.3959e-06
16870.0 5.387e-06
16890.0 5.3784e-06
16910.0 5.3689e-06
16930.0 5.359e-06
16950.0 5.3498e-06
16970.0 5.3401e-06
16990.0 5.3297e-06
17010.0 5.3196e-06
17030.0 5.3097e-06
17050.0 5.2988e-06
17070.0 5.2878e-06
17090.0 5.2771e-06
17110.0 5.266e-06
17130.0 5.254e-06
17150.0 5.2425e-06
17170.0 5.2312e-06
17190.0 5.2191e-06
17210.0 5.2067e-06
17230.0 5.1949e-06
17250.0 5.1824e-06
17270.0 5.1691e-06
17290.0 5.1563e-06
17310.0 5.1435e-06
17330.0 5.13e-06
17350.0 5.1162e-06
17370.0 5.103e-06
17390.0 5.0893e-06
17410.0 5.075e-06
17430.0 5.061e-06
17450.0 5.0471e-06
17470.0 5.0319e-06
17490.0 5.017e-06
17510.0 5.0025e-06
17530.0 4.9875e-06
17550.0 4.9719e-06
17570.0 4.9567e-06
17590.0 4.9416e-06
17610.0 4.9255e-06
17630.0 4.9096e-06
17650.0 4.8939e-06
17670.0 4.8777e-06
17690.0 4.8607e-06
17710.0 4.8446e-06
17730.0 4.8282e-06
17750.0 4.8112e-06
17770.0 4.7942e-06
17790.0 4.7777e-06
17810.0 4.7603e-06
17830.0 4.7426e-06
17850.0 4.7253e-06
17870.0 4.708e-06
17890.0 4.6898e-06
17910.0 4.6717e-06
17930.0 4.6543e-06
17950.0 4.6361e-06
17970.0 4.6177e-06
17990.0 4.5997e-06
18010.0 4.5815e-06
18030.0 4.5623e-06
18050.0 4.5436e-06
18070.0 4.5252e-06
18090.0 4.5062e-06
18110.0 4.4868e-06
18130.0 4.4682e-06
18150.0 4.4492e-06
18170.0 4.4296e-06
18190.0 4.4103e-06
18210.0 4.3913e-06
18230.0 4.3714e-06
18250.0 4.3513e-06
18270.0 4.332e-06
18290.0 4.3124e-06
18310.0 4.2922e-06
18330.0 4.2724e-06
18350.0 4.2529e-06
18370.0 4.2326e-06
18390.0 4.2122e-06
18410.0 4.1924e-06
18430.0 4.1722e-06
18450.0 4.1513e-06
18470.0 4.1311e-06
18490.0 4.1111e-06
18510.0 4.0905e-06
18530.0 4.0699e-06
18550.0 4.0498e-06
18570.0 4.0292e-06
18590.0 4.0081e-06
18610.0 3.9876e-06
18630.0 3.9672e-06
18650.0 3.9462e-06
18670.0 3.9252e-06
18690.0 3.9049e-06
18710.0 3.8842e-06
18730.0 3.863e-06
18750.0 3.8424e-06
18770.0 3.822e-06
18790.0 3.8005e-06
18810.0 3.7794e-06
18830.0 3.7589e-06
18850.0 3.738e-06
18870.0 3.7167e-06
18890.0 3.6961e-06
18910.0 3.6755e-06
18930.0 3.6542e-06
18950.0 3.6333e-06
18970.0 3.6127e-06
18990.0 3.5917e-06
19010.0 3.5701e-06
19030.0 3.5496e-06
19050.0 3.529e-06
19070.0 3.5078e-06
19090.0 3.4869e-06
19110.0 3.4666e-06
19130.0 3.4455e-06
19150.0 3.4244e-06
19170.0 3.4039e-06
19190.0 3.3833e-06
19210.0 3.3621e-06
19230.0 3.3413e-06
19250.0 3.3211e-06
19270.0 3.3003e-06
19290.0 3.2794e-06
19310.0 3.2592e-06
19330.0 3.2388e-06
19350.0 3.2177e-06
19370.0 3.1972e-06
19390.0 3.177e-06
19410.0 3.1565e-06
19430.0 3.1357e-06
19450.0 3.1158e-06
19470.0 3.0957e-06
19490.0 3.0751e-06
19510.0 3.0549e-06
19530.0 3.0351e-06
19550.0 3.0146e-06
19570.0 2.9942e-06
19590.0 2.9745e-06
19610.0 2.9546e-06
19630.0 2.9344e-06
19650.0 2.9146e-06
19670.0 2.8952e-06
19690.0 2.8751e-06
19710.0 2.8552e-06
19730.0 2.8358e-06
19750.0 2.8162e-06
19770.0 2.7961e-06
19790.0 2.7767e-06
19810.0 2.7576e-06
19830.0 2.7379e-06
19850.0 2.7183e-06
19870.0 2.6991e-06
19890.0 2.6789e-06
19910.0 2.6574e-06
19930.0 2.635e-06
19950.0 2.6106e-06
19970.0 2.5821e-06
19990.0 2.5494e-06
20010.0 2.3891e-06
20030.0 2.3491e-06
20050.0 2.3036e-06
20070.0 2.2553e-06
20090.0 2.2042e-06
20110.0 2.1475e-06
20130.0 2.0907e-06
20150.0 2.0351e-06
20170.0 1.978e-06
20190.0 1.9206e-06
20210.0 1.8666e-06
20230.0 1.8142e-06
20250.0 1.762e-06
20270.0 1.7135e-06
20290.0 1.6691e-06
20310.0 1.6268e-06
20330.0 1.5871e-06
20350.0 1.5536e-06
20370.0 1.5235e-06
20390.0 1.4966e-06
20410.0 1.4742e-06
20430.0 1.4562e-06
20450.0 1.4412e-06
20470.0 1.4301e-06
20490.0 1.4227e-06
20510.0 1.4186e-06
20530.0 1.4175e-06
20550.0 1.4193e-06
20570.0 1.4234e-06
20590.0 1.4301e-06
20610.0 1.4389e-06
20630.0 1.4491e-06
20650.0 1.4609e-06
20670.0 1.475e-06
20690.0 1.4895e-06
20710.0 1.5047e-06
20730.0 1.5212e-06
20750.0 1.5385e-06
20770.0 1.5554e-06
20790.0 1.573e-06
20810.0 1.5916e-06
20830.0 1.6098e-06
20850.0 1.6278e-06
20870.0 1.6469e-06
20890.0 1.6662e-06
20910.0 1.6844e-06
20930.0 1.7031e-06
20950.0 1.7223e-06
20970.0 1.7408e-06
20990.0 1.7588e-06
21010.0 1.7777e-06
21030.0 1.7961e-06
21050.0 1.8134e-06
21070.0 1.8307e-06
21090.0 1.8481e-06
21110.0 1.8637e-06
21130.0 1.8784e-06
21150.0 1.8927e-06
21170.0 1.9056e-06
21190.0 1.9168e-06
21210.0 1.9269e-06
21230.0 1.9356e-06
21250.0 1.9418e-06
21270.0 1.9459e-06
21290.0 1.9478e-06
21310.0 1.947e-06
21330.0 1.9435e-06
21350.0 1.9369e-06
21370.0 1.9271e-06
21390.0 1.9142e-06
21410.0 1.8982e-06
21430.0 1.8777e-06
21450.0 1.8544e-06
21470.0 1.8286e-06
21490.0 1.7992e-06
21510.0 1.7667e-06
21530.0 1.7332e-06
21550.0 1.6978e-06
21570.0 1.6597e-06
21590.0 1.6218e-06
21610.0 1.5847e-06
21630.0 1.5472e-06
21650.0 1.5101e-06
21670.0 1.4772e-06
21690.0 1.4463e-06
21710.0 1.4177e-06
21730.0 1.3934e-06
21750.0 1.3734e-06
21770.0 1.3568e-06
21790.0 1.345e-06
21810.0 1.3381e-06
21830.0 1.3356e-06
21850.0 1.3379e-06
21870.0 1.3444e-06
21890.0 1.3546e-06
21910.0 1.369e-06
21930.0 1.387e-06
21950.0 1.4072e-06
21970.0 1.4302e-06
21990.0 1.4569e-06
22010.0 1.4841e-06
22030.0 1.5121e-06
22050.0 1.5422e-06
22070.0 1.5729e-06
22090.0 1.6023e-06
22110.0 1.6324e-06
22130.0 1.663e-06
22150.0 1.6918e-06
22170.0 1.7193e-06
22190.0 1.747e-06
22210.0 1.773e-06
22230.0 1.796e-06
22250.0 1.8179e-06
22270.0 1.8382e-06
22290.0 1.8557e-06
22310.0 1.8707e-06
22330.0 1.8841e-06
22350.0 1.8945e-06
22370.0 1.9018e-06
22390.0 1.9064e-06
22410.0 1.908e-06
22430.0 1.9063e-06
22450.0 1.9015e-06
22470.0 1.8933e-06
22490.0 1.8816e-06
22510.0 1.867e-06
22530.0 1.8484e-06
22550.0 1.8259e-06
22570.0 1.8008e-06
22590.0 1.7725e-06
22610.0 1.7401e-06
