#lamb flux
1010.0 5.2087e-05
1030.0 5.4557e-05
1050.0 6.0669e-05
1070.0 6.747e-05
1090.0 7.4569e-05
1110.0 8.1663e-05
1130.0 8.8604e-05
1150.0 9.5747e-05
1170.0 0.00010294
1190.0 0.00010942
1210.0 0.00011577
1230.0 0.0001221
1250.0 0.00012808
1270.0 0.00013352
1290.0 0.00013909
1310.0 0.00014436
1330.0 0.00014909
1350.0 0.00015377
1370.0 0.00015864
1390.0 0.0001634
1410.0 0.00016819
1430.0 0.00017367
1450.0 0.00017967
1470.0 0.00018612
1490.0 0.00019348
1510.0 0.00020221
1530.0 0.00021168
1550.0 0.00022229
1570.0 0.00023449
1590.0 0.00024816
1610.0 0.00026307
1630.0 0.00027999
1650.0 0.0002988
1670.0 0.00031902
1690.0 0.00034079
1710.0 0.0003645
1730.0 0.00038982
1750.0 0.0004159
1770.0 0.00044344
1790.0 0.00047214
1810.0 0.00050114
1830.0 0.00053025
1850.0 0.00056001
1870.0 0.00058902
1890.0 0.00061673
1910.0 0.00064339
1930.0 0.00066866
1950.0 0.00069122
1970.0 0.00071117
1990.0 0.00072886
2010.0 0.00074335
2030.0 0.00075422
2050.0 0.00076227
2070.0 0.00076743
2090.0 0.00076867
2110.0 0.0007669
2130.0 0.00076273
2150.0 0.00075581
2170.0 0.00074619
2190.0 0.00073517
2210.0 0.00072272
2230.0 0.0007087
2250.0 0.0006939
2270.0 0.00067911
2290.0 0.00066389
2310.0 0.00064851
2330.0 0.00063389
2350.0 0.00062005
2370.0 0.00060683
2390.0 0.0005949
2410.0 0.00058482
2430.0 0.00057624
2450.0 0.00056949
2470.0 0.00056538
2490.0 0.00056423
2510.0 0.00056566
2530.0 0.00057144
2550.0 0.00058394
2570.0 0.000605
2590.0 0.00063737
2610.0 0.00068957
2630.0 0.00076357
2650.0 0.00085646
2670.0 0.00097101
2690.0 0.0011056
2710.0 0.0012453
2730.0 0.0013833
2750.0 0.0015235
2770.0 0.0016569
2790.0 0.0017814
2810.0 0.0019058
2830.0 0.0020383
2850.0 0.0021718
2870.0 0.0023137
2890.0 0.0024701
2910.0 0.0026378
2930.0 0.0028115
2950.0 0.0030005
2970.0 0.0032037
2990.0 0.0034137
3010.0 0.003788
3030.0 0.0040337
3050.0 0.0042891
3070.0 0.0045414
3090.0 0.0047968
3110.0 0.005041
3130.0 0.0052542
3150.0 0.0054264
3170.0 0.0055387
3190.0 0.0056272
3210.0 0.0058063
3230.0 0.0060553
3250.0 0.0061252
3270.0 0.0059693
3290.0 0.0057586
3310.0 0.0056643
3330.0 0.0056516
3350.0 0.0056907
3370.0 0.0057558
3390.0 0.0058654
3410.0 0.0059427
3430.0 0.0058794
3450.0 0.0058901
3470.0 0.0059433
3490.0 0.0065697
3510.0 0.0083689
3530.0 0.01035
3550.0 0.011784
3570.0 0.012912
3590.0 0.013548
3610.0 0.013425
3630.0 0.013117
3650.0 0.013989
3670.0 0.016256
3690.0 0.01848
3710.0 0.020147
3730.0 0.021632
3750.0 0.023036
3770.0 0.022698
3790.0 0.021117
3810.0 0.019605
3830.0 0.018274
3850.0 0.017969
3870.0 0.019306
3890.0 0.021084
3910.0 0.022461
3930.0 0.023903
3950.0 0.026676
3970.0 0.028899
3990.0 0.027718
4010.0 0.024507
4030.0 0.021417
4050.0 0.02021
4070.0 0.019981
4090.0 0.01959
4110.0 0.019463
4130.0 0.019285
4150.0 0.019377
4170.0 0.020568
4190.0 0.022313
4210.0 0.022252
4230.0 0.021522
4250.0 0.021339
4270.0 0.021826
4290.0 0.023116
4310.0 0.024337
4330.0 0.023369
4350.0 0.020596
4370.0 0.018216
4390.0 0.016224
4410.0 0.014436
4430.0 0.0141
4450.0 0.014927
4470.0 0.015763
4490.0 0.016895
4510.0 0.019339
4530.0 0.024658
4550.0 0.032306
4570.0 0.037279
4590.0 0.040254
4610.0 0.045216
4630.0 0.049161
4650.0 0.046735
4670.0 0.039288
4690.0 0.032355
4710.0 0.028564
4730.0 0.026858
4750.0 0.024758
4770.0 0.023029
4790.0 0.02409
4810.0 0.02628
4830.0 0.026837
4850.0 0.025544
4870.0 0.025586
4890.0 0.027511
4910.0 0.029255
4930.0 0.029891
4950.0 0.02939
4970.0 0.027683
4990.0 0.024968
5010.0 0.022423
5030.0 0.020675
5050.0 0.019659
5070.0 0.0189
5090.0 0.018155
5110.0 0.017881
5130.0 0.017872
5150.0 0.018352
5170.0 0.020095
5190.0 0.022636
5210.0 0.025572
5230.0 0.027706
5250.0 0.029072
5270.0 0.030747
5290.0 0.032733
5310.0 0.033633
5330.0 0.032769
5350.0 0.031095
5370.0 0.030707
5390.0 0.032236
5410.0 0.034786
5430.0 0.036816
5450.0 0.037798
5470.0 0.037745
5490.0 0.036761
5510.0 0.035699
5530.0 0.034966
5550.0 0.034447
5570.0 0.033732
5590.0 0.032703
5610.0 0.031311
5630.0 0.029197
5650.0 0.026561
5670.0 0.024543
5690.0 0.02355
5710.0 0.023013
5730.0 0.022362
5750.0 0.021704
5770.0 0.02123
5790.0 0.02107
5810.0 0.020802
5830.0 0.020611
5850.0 0.020449
5870.0 0.019784
5890.0 0.018869
5910.0 0.017727
5930.0 0.015916
5950.0 0.014115
5970.0 0.013129
5990.0 0.012909
6010.0 0.012853
6030.0 0.012434
6050.0 0.012038
6070.0 0.012499
6090.0 0.01346
6110.0 0.014019
6130.0 0.0138
6150.0 0.013233
6170.0 0.012845
6190.0 0.012517
6210.0 0.011913
6230.0 0.011013
6250.0 0.01036
6270.0 0.010226
6290.0 0.010237
6310.0 0.010657
6330.0 0.011626
6350.0 0.012793
6370.0 0.013545
6390.0 0.013953
6410.0 0.014384
6430.0 0.014722
6450.0 0.015031
6470.0 0.015391
6490.0 0.01576
6510.0 0.016056
6530.0 0.016163
6550.0 0.016159
6570.0 0.015799
6590.0 0.01505
6610.0 0.01444
6630.0 0.014043
6650.0 0.013528
6670.0 0.012843
6690.0 0.012263
6710.0 0.011957
6730.0 0.011697
6750.0 0.011468
6770.0 0.011368
6790.0 0.011272
6810.0 0.011018
6830.0 0.010801
6850.0 0.010988
6870.0 0.011153
6890.0 0.010991
6910.0 0.010827
6930.0 0.010698
6950.0 0.010455
6970.0 0.010084
6990.0 0.0097351
7010.0 0.0095195
7030.0 0.009322
7050.0 0.0088969
7070.0 0.0083509
7090.0 0.0082105
7110.0 0.0085201
7130.0 0.0090071
7150.0 0.0094519
7170.0 0.0097964
7190.0 0.0098817
7210.0 0.0095982
7230.0 0.0094103
7250.0 0.0095292
7270.0 0.0094851
7290.0 0.0093661
7310.0 0.0094512
7330.0 0.0097717
7350.0 0.010214
7370.0 0.010493
7390.0 0.010597
7410.0 0.010595
7430.0 0.010386
7450.0 0.010049
7470.0 0.009743
7490.0 0.0093841
7510.0 0.0091069
7530.0 0.0090815
7550.0 0.0091415
7570.0 0.0092167
7590.0 0.0093752
7610.0 0.0094454
7630.0 0.0095084
7650.0 0.0098451
7670.0 0.01032
7690.0 0.010793
7710.0 0.011197
7730.0 0.011578
7750.0 0.011988
7770.0 0.01239
7790.0 0.012746
7810.0 0.012934
7830.0 0.012806
7850.0 0.012458
7870.0 0.011992
7890.0 0.01153
7910.0 0.011344
7930.0 0.011237
7950.0 0.011064
7970.0 0.010888
7990.0 0.010875
8010.0 0.010304
8030.0 0.010282
8050.0 0.010239
8070.0 0.010141
8090.0 0.010049
8110.0 0.01007
8130.0 0.010149
8150.0 0.010144
8170.0 0.010094
8190.0 0.0098505
8210.0 0.0093371
8230.0 0.0088328
8250.0 0.0085941
8270.0 0.0083132
8290.0 0.0078352
8310.0 0.0074186
8330.0 0.0071798
8350.0 0.0070016
8370.0 0.0071156
8390.0 0.0075708
8410.0 0.0081009
8430.0 0.0086865
8450.0 0.0093791
8470.0 0.009929
8490.0 0.010493
8510.0 0.011019
8530.0 0.011534
8550.0 0.011975
8570.0 0.01231
8590.0 0.012589
8610.0 0.012934
8630.0 0.01307
8650.0 0.012874
8670.0 0.012939
8690.0 0.013353
8710.0 0.013858
8730.0 0.014011
8750.0 0.013799
8770.0 0.013798
8790.0 0.013812
8810.0 0.013533
8830.0 0.012615
8850.0 0.011468
8870.0 0.010646
8890.0 0.01032
8910.0 0.0099074
8930.0 0.0092453
8950.0 0.0087248
8970.0 0.0086015
8990.0 0.0087248
9010.0 0.0087369
9030.0 0.0086547
9050.0 0.0085884
9070.0 0.0085403
9090.0 0.008495
9110.0 0.0084505
9130.0 0.0084061
9150.0 0.0083623
9170.0 0.0083185
9190.0 0.0082759
9210.0 0.008235
9230.0 0.0081915
9250.0 0.0081488
9270.0 0.0081066
9290.0 0.008065
9310.0 0.0080238
9330.0 0.007983
9350.0 0.0079427
9370.0 0.0079026
9390.0 0.0078629
9410.0 0.0078234
9430.0 0.0077831
9450.0 0.0077373
9470.0 0.0076938
9490.0 0.007662
9510.0 0.0076271
9530.0 0.0075921
9550.0 0.0075558
9570.0 0.0075192
9590.0 0.0074831
9610.0 0.007447
9630.0 0.0074106
9650.0 0.0073746
9670.0 0.0073395
9690.0 0.0073039
9710.0 0.0072685
9730.0 0.0072339
9750.0 0.0071992
9770.0 0.0071639
9790.0 0.0071294
9810.0 0.0070955
9830.0 0.0070609
9850.0 0.0070249
9870.0 0.0069919
9890.0 0.0069586
9910.0 0.0069248
9930.0 0.0068913
9950.0 0.0068548
9970.0 0.0068219
9990.0 0.0067883
10010.0 0.0067533
10030.0 0.0067192
10050.0 0.006687
10070.0 0.0066547
10090.0 0.0066225
10110.0 0.0065865
10130.0 0.0065378
10150.0 0.0065068
10170.0 0.0064785
10190.0 0.0064466
10210.0 0.0064152
10230.0 0.0063834
10250.0 0.0063488
10270.0 0.006314
10290.0 0.0062807
10310.0 0.0062453
10330.0 0.006208
10350.0 0.0061729
10370.0 0.0061378
10390.0 0.0061006
10410.0 0.0060634
10430.0 0.0060283
10450.0 0.005991
10470.0 0.0059524
10490.0 0.0059153
10510.0 0.0058782
10530.0 0.0058377
10550.0 0.0057982
10570.0 0.0057603
10590.0 0.0057204
10610.0 0.0056792
10630.0 0.0056398
10650.0 0.0055997
10670.0 0.0055568
10690.0 0.0055147
10710.0 0.0054736
10730.0 0.0054303
10750.0 0.0053849
10770.0 0.0053426
10790.0 0.0052992
10810.0 0.0052534
10830.0 0.0052083
10850.0 0.0051645
10870.0 0.005117
10890.0 0.0050691
10910.0 0.0050232
10930.0 0.0049763
10950.0 0.0049274
10970.0 0.0048798
10990.0 0.0048343
11010.0 0.004639
11030.0 0.0045882
11050.0 0.0045408
11070.0 0.0044945
11090.0 0.0044473
11110.0 0.0044046
11130.0 0.0043646
11150.0 0.0043253
11170.0 0.0042882
11190.0 0.0042553
11210.0 0.0042239
11230.0 0.0041941
11250.0 0.004168
11270.0 0.0041446
11290.0 0.0041226
11310.0 0.0041028
11330.0 0.0040861
11350.0 0.0040704
11370.0 0.0040556
11390.0 0.0040422
11410.0 0.0040292
11430.0 0.0040155
11450.0 0.0040015
11470.0 0.0039871
11490.0 0.0039711
11510.0 0.0039529
11530.0 0.0039337
11550.0 0.0039127
11570.0 0.0038886
11590.0 0.0038623
11610.0 0.0038345
11630.0 0.0038032
11650.0 0.0037684
11670.0 0.0037324
11690.0 0.0036937
11710.0 0.0036508
11730.0 0.0036054
11750.0 0.0035589
11770.0 0.0035078
11790.0 0.0034531
11810.0 0.0033973
11830.0 0.0033392
11850.0 0.0032758
11870.0 0.0032121
11890.0 0.0031492
11910.0 0.0030835
11930.0 0.0030168
11950.0 0.0029529
11970.0 0.0028893
11990.0 0.0028246
12010.0 0.0027635
12030.0 0.0027058
12050.0 0.002649
12070.0 0.0025939
12090.0 0.0025448
12110.0 0.0024979
12130.0 0.002453
12150.0 0.0024124
12170.0 0.002376
12190.0 0.0023412
12210.0 0.0023104
12230.0 0.0022844
12250.0 0.0022619
12270.0 0.0022427
12290.0 0.0022278
12310.0 0.0022167
12330.0 0.0022087
12350.0 0.002204
12370.0 0.0022021
12390.0 0.0022025
12410.0 0.0022055
12430.0 0.0022098
12450.0 0.0022152
12470.0 0.0022218
12490.0 0.0022291
12510.0 0.0022362
12530.0 0.0022436
12550.0 0.0022512
12570.0 0.002258
12590.0 0.0022639
12610.0 0.0022692
12630.0 0.002273
12650.0 0.0022748
12670.0 0.0022747
12690.0 0.0022724
12710.0 0.0022675
12730.0 0.00226
12750.0 0.0022493
12770.0 0.0022358
12790.0 0.0022199
12810.0 0.0022012
12830.0 0.0021796
12850.0 0.002157
12870.0 0.002133
12890.0 0.0021072
12910.0 0.0020811
12930.0 0.0020555
12950.0 0.0020292
12970.0 0.002003
12990.0 0.0019786
13010.0 0.001955
13030.0 0.0019318
13050.0 0.0019099
13070.0 0.0018897
13090.0 0.0018698
13110.0 0.0018509
13130.0 0.0018333
13150.0 0.0018166
13170.0 0.0018001
13190.0 0.0017849
13210.0 0.0017708
13230.0 0.0017572
13250.0 0.0017441
13270.0 0.0017321
13290.0 0.0017206
13310.0 0.0017092
13330.0 0.0016985
13350.0 0.0016882
13370.0 0.0016778
13390.0 0.0016672
13410.0 0.0016569
13430.0 0.0016461
13450.0 0.0016347
13470.0 0.0016229
13490.0 0.0016108
13510.0 0.0015973
13530.0 0.0015833
13550.0 0.0015689
13570.0 0.0015537
13590.0 0.0015375
13610.0 0.0015212
13630.0 0.0015048
13650.0 0.0014875
13670.0 0.00147
13690.0 0.001453
13710.0 0.0014357
13730.0 0.0014176
13750.0 0.0014006
13770.0 0.0013839
13790.0 0.0013668
13810.0 0.0013501
13830.0 0.0013344
13850.0 0.0013185
13870.0 0.0013028
13890.0 0.001288
13910.0 0.0012739
13930.0 0.00126
13950.0 0.0012468
13970.0 0.001235
13990.0 0.0012236
14010.0 0.0012128
14030.0 0.0012032
14050.0 0.0011943
14070.0 0.0011857
14090.0 0.001178
14110.0 0.0011711
14130.0 0.0011645
14150.0 0.0011582
14170.0 0.0011525
14190.0 0.0011471
14210.0 0.0011417
14230.0 0.0011366
14250.0 0.0011317
14270.0 0.0011267
14290.0 0.0011216
14310.0 0.0011168
14330.0 0.001112
14350.0 0.0011069
14370.0 0.001102
14390.0 0.0010972
14410.0 0.0010922
14430.0 0.0010872
14450.0 0.0010823
14470.0 0.0010776
14490.0 0.0010726
14510.0 0.0010679
14530.0 0.0010634
14550.0 0.0010587
14570.0 0.001054
14590.0 0.0010493
14610.0 0.0010445
14630.0 0.0010392
14650.0 0.001034
14670.0 0.0010288
14690.0 0.0010235
14710.0 0.0010184
14730.0 0.0010141
14750.0 0.0010104
14770.0 0.0010079
14790.0 0.001007
14810.0 0.0010078
14830.0 0.001011
14850.0 0.0010168
14870.0 0.001025
14890.0 0.0010357
14910.0 0.001049
14930.0 0.0010635
14950.0 0.0010784
14970.0 0.0010938
14990.0 0.0011079
15010.0 0.0011199
15030.0 0.0011298
15050.0 0.0011378
15070.0 0.0011433
15090.0 0.0011474
15110.0 0.0011505
15130.0 0.0011529
15150.0 0.0011549
15170.0 0.0011569
15190.0 0.0011587
15210.0 0.0011606
15230.0 0.0011625
15250.0 0.0011644
15270.0 0.0011664
15290.0 0.0011684
15310.0 0.0011704
15330.0 0.0011725
15350.0 0.0011747
15370.0 0.0011769
15390.0 0.0011791
15410.0 0.0011813
15430.0 0.0011836
15450.0 0.001186
15470.0 0.0011883
15490.0 0.0011908
15510.0 0.0011932
15530.0 0.0011957
15550.0 0.0011982
15570.0 0.0012008
15590.0 0.0012034
15610.0 0.001206
15630.0 0.0012087
15650.0 0.0012114
15670.0 0.0012142
15690.0 0.0012169
15710.0 0.0012197
15730.0 0.0012226
15750.0 0.0012254
15770.0 0.0012283
15790.0 0.0012312
15810.0 0.0012342
15830.0 0.0012371
15850.0 0.0012401
15870.0 0.0012432
15890.0 0.0012462
15910.0 0.0012493
15930.0 0.0012524
15950.0 0.0012555
15970.0 0.0012586
15990.0 0.0012618
16010.0 0.001265
16030.0 0.0012682
16050.0 0.0012714
16070.0 0.0012746
16090.0 0.0012779
16110.0 0.0012811
16130.0 0.0012844
16150.0 0.0012877
16170.0 0.001291
16190.0 0.0012943
16210.0 0.0012977
16230.0 0.001301
16250.0 0.0013043
16270.0 0.0013077
16290.0 0.001311
16310.0 0.0013144
16330.0 0.0013177
16350.0 0.0013211
16370.0 0.0013245
16390.0 0.0013278
16410.0 0.0013312
16430.0 0.0013345
16450.0 0.0013379
16470.0 0.0013413
16490.0 0.0013446
16510.0 0.0013479
16530.0 0.0013513
16550.0 0.0013546
16570.0 0.0013579
16590.0 0.0013612
16610.0 0.0013645
16630.0 0.0013677
16650.0 0.001371
16670.0 0.0013742
16690.0 0.0013775
16710.0 0.0013807
16730.0 0.0013838
16750.0 0.001387
16770.0 0.0013901
16790.0 0.0013932
16810.0 0.0013963
16830.0 0.0013994
16850.0 0.0014024
16870.0 0.0014054
16890.0 0.0014084
16910.0 0.0014113
16930.0 0.0014142
16950.0 0.0014171
16970.0 0.00142
16990.0 0.0014228
17010.0 0.0014255
17030.0 0.0014283
17050.0 0.0014309
17070.0 0.0014336
17090.0 0.0014362
17110.0 0.0014387
17130.0 0.0014412
17150.0 0.0014437
17170.0 0.0014461
17190.0 0.0014485
17210.0 0.0014508
17230.0 0.0014531
17250.0 0.0014553
17270.0 0.0014575
17290.0 0.0014596
17310.0 0.0014616
17330.0 0.0014636
17350.0 0.0014656
17370.0 0.0014675
17390.0 0.0014693
17410.0 0.001471
17430.0 0.0014727
17450.0 0.0014744
17470.0 0.001476
17490.0 0.0014775
17510.0 0.0014789
17530.0 0.0014803
17550.0 0.0014816
17570.0 0.0014829
17590.0 0.0014841
17610.0 0.0014852
17630.0 0.0014862
17650.0 0.0014872
17670.0 0.0014881
17690.0 0.0014889
17710.0 0.0014897
17730.0 0.0014903
17750.0 0.0014909
17770.0 0.0014915
17790.0 0.0014919
17810.0 0.0014923
17830.0 0.0014926
17850.0 0.0014928
17870.0 0.001493
17890.0 0.0014931
17910.0 0.0014931
17930.0 0.001493
17950.0 0.0014928
17970.0 0.0014926
17990.0 0.0014922
18010.0 0.0014918
18030.0 0.0014913
18050.0 0.0014908
18070.0 0.0014901
18090.0 0.0014894
18110.0 0.0014886
18130.0 0.0014877
18150.0 0.0014867
18170.0 0.0014857
18190.0 0.0014845
18210.0 0.0014833
18230.0 0.001482
18250.0 0.0014806
18270.0 0.0014792
18290.0 0.0014776
18310.0 0.001476
18330.0 0.0014743
18350.0 0.0014725
18370.0 0.0014706
18390.0 0.0014686
18410.0 0.0014666
18430.0 0.0014645
18450.0 0.0014623
18470.0 0.00146
18490.0 0.0014577
18510.0 0.0014552
18530.0 0.0014527
18550.0 0.0014501
18570.0 0.0014474
18590.0 0.0014447
18610.0 0.0014418
18630.0 0.0014389
18650.0 0.0014359
18670.0 0.0014329
18690.0 0.0014297
18710.0 0.0014265
18730.0 0.0014232
18750.0 0.0014199
18770.0 0.0014165
18790.0 0.0014129
18810.0 0.0014094
18830.0 0.0014057
18850.0 0.001402
18870.0 0.0013982
18890.0 0.0013943
18910.0 0.0013904
18930.0 0.0013864
18950.0 0.0013824
18970.0 0.0013782
18990.0 0.001374
19010.0 0.0013698
19030.0 0.0013655
19050.0 0.0013611
19070.0 0.0013566
19090.0 0.0013521
19110.0 0.0013476
19130.0 0.0013429
19150.0 0.0013382
19170.0 0.0013335
19190.0 0.0013287
19210.0 0.0013238
19230.0 0.0013189
19250.0 0.001314
19270.0 0.001309
19290.0 0.0013039
19310.0 0.0012988
19330.0 0.0012936
19350.0 0.0012884
19370.0 0.0012831
19390.0 0.0012778
19410.0 0.0012725
19430.0 0.0012671
19450.0 0.0012616
19470.0 0.0012561
19490.0 0.0012506
19510.0 0.001245
19530.0 0.0012394
19550.0 0.0012338
19570.0 0.0012281
19590.0 0.0012224
19610.0 0.0012166
19630.0 0.0012108
19650.0 0.001205
19670.0 0.0011992
19690.0 0.0011933
19710.0 0.0011874
19730.0 0.0011814
19750.0 0.0011755
19770.0 0.0011695
19790.0 0.0011634
19810.0 0.0011574
19830.0 0.0011513
19850.0 0.0011451
19870.0 0.0011389
19890.0 0.0011324
19910.0 0.0011255
19930.0 0.0011181
19950.0 0.0011098
19970.0 0.0011003
19990.0 0.0010892
20010.0 0.0010767
20030.0 0.0010625
20050.0 0.0010465
20070.0 0.0010295
20090.0 0.0010118
20110.0 0.00099268
20130.0 0.00097369
20150.0 0.0009551
20170.0 0.0009363
20190.0 0.00091754
20210.0 0.00089966
20230.0 0.00088217
20250.0 0.00086464
20270.0 0.00084789
20290.0 0.00083199
20310.0 0.00081636
20330.0 0.00080106
20350.0 0.0007871
20370.0 0.00077368
20390.0 0.00076073
20410.0 0.00074866
20430.0 0.00073754
20450.0 0.0007268
20470.0 0.00071683
20490.0 0.00070776
20510.0 0.00069932
20530.0 0.00069143
20550.0 0.00068426
20570.0 0.00067773
20590.0 0.00067165
20610.0 0.00066605
20630.0 0.0006609
20650.0 0.0006561
20670.0 0.0006516
20690.0 0.00064734
20710.0 0.00064326
20730.0 0.00063929
20750.0 0.00063538
20770.0 0.00063145
20790.0 0.00062748
20810.0 0.0006234
20830.0 0.00061918
20850.0 0.00061478
20870.0 0.00061015
20890.0 0.00060528
20910.0 0.00060019
20930.0 0.00059482
20950.0 0.00058916
20970.0 0.00058329
20990.0 0.00057721
21010.0 0.00057079
21030.0 0.00056418
21050.0 0.00055746
21070.0 0.00055052
21090.0 0.00054333
21110.0 0.00053617
21130.0 0.00052897
21150.0 0.00052158
21170.0 0.00051419
21190.0 0.00050692
21210.0 0.00049953
21230.0 0.00049209
21250.0 0.00048487
21270.0 0.00047772
21290.0 0.00047055
21310.0 0.00046351
21330.0 0.00045676
21350.0 0.00045002
21370.0 0.0004434
21390.0 0.00043705
21410.0 0.00043089
21430.0 0.00042477
21450.0 0.00041896
21470.0 0.00041345
21490.0 0.00040809
21510.0 0.00040293
21530.0 0.00039809
21550.0 0.00039346
21570.0 0.00038899
21590.0 0.00038477
21610.0 0.00038077
21630.0 0.00037693
21650.0 0.00037324
21670.0 0.00036974
21690.0 0.00036636
21710.0 0.00036308
21730.0 0.00035989
21750.0 0.00035678
21770.0 0.00035371
21790.0 0.00035068
21810.0 0.00034768
21830.0 0.0003447
21850.0 0.0003417
21870.0 0.00033871
21890.0 0.00033573
21910.0 0.00033271
21930.0 0.00032968
21950.0 0.00032664
21970.0 0.00032357
21990.0 0.00032044
22010.0 0.0003173
22030.0 0.00031414
22050.0 0.00031092
22070.0 0.00030765
22090.0 0.00030437
22110.0 0.00030102
22130.0 0.00029758
22150.0 0.00029413
22170.0 0.00029063
22190.0 0.00028701
22210.0 0.00028333
22230.0 0.00027967
22250.0 0.00027592
22270.0 0.00027208
22290.0 0.00026824
22310.0 0.00026439
22330.0 0.00026039
22350.0 0.0002564
22370.0 0.00025243
22390.0 0.0002484
22410.0 0.00024428
22430.0 0.00024026
22450.0 0.00023625
22470.0 0.00023217
22490.0 0.00022812
22510.0 0.00022418
22530.0 0.00022017
22550.0 0.00021616
22570.0 0.00021231
22590.0 0.00020851
22610.0 0.00020472
22630.0 0.00020104
22650.0 0.00019754
22670.0 0.00019406
22690.0 0.00019067
22710.0 0.00018747
22730.0 0.0001844
22750.0 0.00018136
22770.0 0.00017853
22790.0 0.00017586
22810.0 0.00017329
22830.0 0.00017084
22850.0 0.00016856
22870.0 0.00016639
22890.0 0.0001643
22910.0 0.00016235
22930.0 0.00016051
22950.0 0.00015874
22970.0 0.00015704
22990.0 0.00015545
23010.0 0.00015391
23030.0 0.00015242
23050.0 0.00015099
23070.0 0.0001496
23090.0 0.00014823
23110.0 0.00014689
23130.0 0.00014559
23150.0 0.00014429
23170.0 0.000143
23190.0 0.00014172
23210.0 0.00014045
23230.0 0.00013916
23250.0 0.00013785
23270.0 0.00013654
23290.0 0.0001352
23310.0 0.0001338
23330.0 0.00013239
23350.0 0.00013096
23370.0 0.00012947
23390.0 0.00012794
23410.0 0.00012643
23430.0 0.00012487
23450.0 0.0001233
23470.0 0.00012175
23490.0 0.00012023
23510.0 0.0001187
23530.0 0.00011723
23550.0 0.00011586
23570.0 0.00011453
23590.0 0.00011328
23610.0 0.00011215
23630.0 0.00011113
23650.0 0.0001102
23670.0 0.0001094
23690.0 0.00010874
23710.0 0.00010821
23730.0 0.00010783
23750.0 0.00010759
23770.0 0.00010749
23790.0 0.00010756
