#lamb flux
1010.0 2.5225e-09
1030.0 2.7899e-09
1050.0 3.0975e-09
1070.0 3.4437e-09
1090.0 3.837e-09
1110.0 4.2403e-09
1130.0 4.6463e-09
1150.0 5.0716e-09
1170.0 5.5102e-09
1190.0 5.9262e-09
1210.0 6.3478e-09
1230.0 6.7834e-09
1250.0 7.2102e-09
1270.0 7.6247e-09
1290.0 8.0627e-09
1310.0 8.5003e-09
1330.0 8.9201e-09
1350.0 9.3445e-09
1370.0 9.7827e-09
1390.0 1.021e-08
1410.0 1.0625e-08
1430.0 1.1058e-08
1450.0 1.1491e-08
1470.0 1.191e-08
1490.0 1.2334e-08
1510.0 1.2781e-08
1530.0 1.3205e-08
1550.0 1.3623e-08
1570.0 1.4056e-08
1590.0 1.4489e-08
1610.0 1.4903e-08
1630.0 1.533e-08
1650.0 1.5769e-08
1670.0 1.6193e-08
1690.0 1.6613e-08
1710.0 1.7048e-08
1730.0 1.7487e-08
1750.0 1.7899e-08
1770.0 1.8325e-08
1790.0 1.8759e-08
1810.0 1.918e-08
1830.0 1.9594e-08
1850.0 2.0035e-08
1870.0 2.0464e-08
1890.0 2.088e-08
1910.0 2.1305e-08
1930.0 2.1741e-08
1950.0 2.2158e-08
1970.0 2.2572e-08
1990.0 2.3001e-08
2010.0 2.3425e-08
2030.0 2.3834e-08
2050.0 2.4257e-08
2070.0 2.4692e-08
2090.0 2.5102e-08
2110.0 2.5513e-08
2130.0 2.5936e-08
2150.0 2.6353e-08
2170.0 2.6752e-08
2190.0 2.7167e-08
2210.0 2.7586e-08
2230.0 2.7988e-08
2250.0 2.8389e-08
2270.0 2.8808e-08
2290.0 2.9215e-08
2310.0 2.9606e-08
2330.0 3.0013e-08
2350.0 3.0431e-08
2370.0 3.0847e-08
2390.0 3.1298e-08
2410.0 3.1832e-08
2430.0 3.2446e-08
2450.0 3.3181e-08
2470.0 3.4122e-08
2490.0 3.5307e-08
2510.0 3.6655e-08
2530.0 3.8278e-08
2550.0 4.0308e-08
2570.0 4.2835e-08
2590.0 4.6121e-08
2610.0 5.1042e-08
2630.0 5.8067e-08
2650.0 6.7252e-08
2670.0 7.9128e-08
2690.0 9.3722e-08
2710.0 1.093e-07
2730.0 1.2469e-07
2750.0 1.3986e-07
2770.0 1.5304e-07
2790.0 1.6352e-07
2810.0 1.7183e-07
2830.0 1.7832e-07
2850.0 1.8275e-07
2870.0 1.8601e-07
2890.0 1.8858e-07
2910.0 1.9064e-07
2930.0 1.9232e-07
2950.0 1.9392e-07
2970.0 1.9549e-07
2990.0 1.9696e-07
3010.0 5.5671e-06
3030.0 5.6088e-06
3050.0 5.649e-06
3070.0 5.6834e-06
3090.0 5.7131e-06
3110.0 5.7314e-06
3130.0 5.7307e-06
3150.0 5.7053e-06
3170.0 5.6442e-06
3190.0 5.5482e-06
3210.0 5.4265e-06
3230.0 5.2872e-06
3250.0 5.1497e-06
3270.0 5.0492e-06
3290.0 4.9935e-06
3310.0 5.0025e-06
3330.0 5.0749e-06
3350.0 5.201e-06
3370.0 5.381e-06
3390.0 5.6079e-06
3410.0 5.8548e-06
3430.0 6.1319e-06
3450.0 6.451e-06
3470.0 6.7995e-06
3490.0 7.1688e-06
3510.0 7.5862e-06
3530.0 8.0332e-06
3550.0 8.4857e-06
3570.0 8.9578e-06
3590.0 9.4713e-06
3610.0 1e-05
3630.0 1.0528e-05
3650.0 1.1075e-05
3670.0 1.1574e-05
3690.0 1.1948e-05
3710.0 1.2162e-05
3730.0 1.2169e-05
3750.0 1.2e-05
3770.0 1.1933e-05
3790.0 1.1862e-05
3810.0 1.1571e-05
3830.0 1.1929e-05
3850.0 1.3338e-05
3870.0 1.4111e-05
3890.0 1.4047e-05
3910.0 1.4107e-05
3930.0 1.4478e-05
3950.0 1.4707e-05
3970.0 1.3399e-05
3990.0 1.1529e-05
4010.0 3.4555e-05
4030.0 4.1868e-05
4050.0 4.7999e-05
4070.0 4.1647e-05
4090.0 3.772e-05
4110.0 3.3284e-05
4130.0 3.0635e-05
4150.0 3.2586e-05
4170.0 3.2099e-05
4190.0 3.4215e-05
4210.0 3.3902e-05
4230.0 3.5859e-05
4250.0 4.2422e-05
4270.0 4.2921e-05
4290.0 3.9551e-05
4310.0 4.1096e-05
4330.0 4.3714e-05
4350.0 4.9015e-05
4370.0 5.5779e-05
4390.0 5.2343e-05
4410.0 3.8672e-05
4430.0 3.2739e-05
4450.0 3.0083e-05
4470.0 2.309e-05
4490.0 2.4917e-05
4510.0 3.7637e-05
4530.0 4.3407e-05
4550.0 4.3784e-05
4570.0 4.9268e-05
4590.0 5.6121e-05
4610.0 7.5693e-05
4630.0 9.831e-05
4650.0 0.00010662
4670.0 9.8736e-05
4690.0 9.4212e-05
4710.0 9.9589e-05
4730.0 9.3984e-05
4750.0 7.0265e-05
4770.0 5.1542e-05
4790.0 4.813e-05
4810.0 4.5876e-05
4830.0 4.1999e-05
4850.0 4.6086e-05
4870.0 6.0885e-05
4890.0 7.18e-05
4910.0 6.2996e-05
4930.0 5.5742e-05
4950.0 6.1241e-05
4970.0 7.8538e-05
4990.0 0.00010644
5010.0 0.00012244
5030.0 0.00010797
5050.0 7.3046e-05
5070.0 4.814e-05
5090.0 3.8818e-05
5110.0 3.992e-05
5130.0 4.6074e-05
5150.0 4.9918e-05
5170.0 4.9169e-05
5190.0 4.5945e-05
5210.0 4.8023e-05
5230.0 5.0483e-05
5250.0 5.4406e-05
5270.0 5.87e-05
5290.0 6.5051e-05
5310.0 7.5717e-05
5330.0 8.3789e-05
5350.0 8.3254e-05
5370.0 8.745e-05
5390.0 0.00010035
5410.0 0.00010026
5430.0 8.8664e-05
5450.0 8.1461e-05
5470.0 8.6497e-05
5490.0 0.00010567
5510.0 0.00013213
5530.0 0.00015154
5550.0 0.00014647
5570.0 0.00013315
5590.0 0.00011577
5610.0 0.00010677
5630.0 0.00010353
5650.0 9.8603e-05
5670.0 9.3433e-05
5690.0 8.3529e-05
5710.0 8.1441e-05
5730.0 7.5019e-05
5750.0 5.2892e-05
5770.0 4.1264e-05
5790.0 4.6761e-05
5810.0 5.2801e-05
5830.0 6.4794e-05
5850.0 7.7129e-05
5870.0 8.5575e-05
5890.0 8.7025e-05
5910.0 8.5377e-05
5930.0 8.1268e-05
5950.0 8.281e-05
5970.0 9.4394e-05
5990.0 8.8754e-05
6010.0 7.4402e-05
6030.0 6.2859e-05
6050.0 5.4742e-05
6070.0 5.4443e-05
6090.0 5.9034e-05
6110.0 6.601e-05
6130.0 6.7021e-05
6150.0 5.7666e-05
6170.0 5.0728e-05
6190.0 5.7087e-05
6210.0 7.5468e-05
6230.0 9.9036e-05
6250.0 0.00010727
6270.0 9.3739e-05
6290.0 7.8868e-05
6310.0 6.157e-05
6330.0 4.7174e-05
6350.0 4.2078e-05
6370.0 4.425e-05
6390.0 5.1155e-05
6410.0 6.3077e-05
6430.0 7.3656e-05
6450.0 8.4282e-05
6470.0 9.6504e-05
6490.0 0.00011657
6510.0 0.00013034
6530.0 0.00012787
6550.0 0.00011563
6570.0 9.8161e-05
6590.0 8.8514e-05
6610.0 7.6322e-05
6630.0 6.9145e-05
6650.0 6.5362e-05
6670.0 6.3497e-05
6690.0 5.7373e-05
6710.0 5.2154e-05
6730.0 3.7565e-05
6750.0 3.7242e-05
6770.0 4.0479e-05
6790.0 4.6528e-05
6810.0 4.2574e-05
6830.0 4.384e-05
6850.0 4.1004e-05
6870.0 3.7457e-05
6890.0 3.5965e-05
6910.0 3.8325e-05
6930.0 3.5897e-05
6950.0 3.6932e-05
6970.0 3.8845e-05
6990.0 4.4093e-05
7010.0 4.4468e-05
7030.0 4.5175e-05
7050.0 4.3081e-05
7070.0 4.1049e-05
7090.0 4.1169e-05
7110.0 4.236e-05
7130.0 4.5586e-05
7150.0 4.8416e-05
7170.0 5.3423e-05
7190.0 5.8727e-05
7210.0 5.7707e-05
7230.0 5.9324e-05
7250.0 6.3753e-05
7270.0 6.9475e-05
7290.0 8.246e-05
7310.0 8.9477e-05
7330.0 8.6487e-05
7350.0 7.8222e-05
7370.0 6.806e-05
7390.0 6.6027e-05
7410.0 7.0167e-05
7430.0 7.7981e-05
7450.0 8.4936e-05
7470.0 8.4156e-05
7490.0 7.6734e-05
7510.0 8.6921e-05
7530.0 8.597e-05
7550.0 7.7271e-05
7570.0 6.0364e-05
7590.0 4.1498e-05
7610.0 3.5618e-05
7630.0 4.0469e-05
7650.0 4.7849e-05
7670.0 5.9552e-05
7690.0 6.5533e-05
7710.0 6.8294e-05
7730.0 7.1768e-05
7750.0 8.0569e-05
7770.0 8.1836e-05
7790.0 7.517e-05
7810.0 6.8589e-05
7830.0 7.0731e-05
7850.0 6.8757e-05
7870.0 6.3039e-05
7890.0 5.2965e-05
7910.0 4.3054e-05
7930.0 4.111e-05
7950.0 3.7453e-05
7970.0 3.4669e-05
7990.0 3.4472e-05
8010.0 2.5542e-06
8030.0 2.5209e-06
8050.0 2.487e-06
8070.0 2.5198e-06
8090.0 2.7078e-06
8110.0 2.6616e-06
8130.0 2.195e-06
8150.0 2.1378e-06
8170.0 1.841e-06
8190.0 1.7444e-06
8210.0 2.2661e-06
8230.0 2.5232e-06
8250.0 2.2733e-06
8270.0 1.9785e-06
8290.0 1.9293e-06
8310.0 1.485e-06
8330.0 1.0008e-06
8350.0 7.1033e-07
8370.0 4.4729e-07
8390.0 8.1807e-07
8410.0 9.5326e-07
8430.0 1.175e-06
8450.0 1.3798e-06
8470.0 1.7153e-06
8490.0 1.7031e-06
8510.0 1.675e-06
8530.0 1.7478e-06
8550.0 2.3589e-06
8570.0 2.7931e-06
8590.0 3.013e-06
8610.0 3.8064e-06
8630.0 4.5852e-06
8650.0 4.7955e-06
8670.0 5.0967e-06
8690.0 5.1262e-06
8710.0 4.6424e-06
8730.0 4.3185e-06
8750.0 3.8116e-06
8770.0 3.6166e-06
8790.0 3.5533e-06
8810.0 3.4051e-06
8830.0 2.7224e-06
8850.0 1.9926e-06
8870.0 1.5256e-06
8890.0 1.4921e-06
8910.0 1.7104e-06
8930.0 1.9457e-06
8950.0 1.9831e-06
8970.0 1.9924e-06
8990.0 1.7767e-06
9010.0 1.8606e-05
9030.0 1.6858e-05
9050.0 1.694e-05
9070.0 1.7074e-05
9090.0 1.7191e-05
9110.0 1.7336e-05
9130.0 1.7448e-05
9150.0 1.7535e-05
9170.0 1.7627e-05
9190.0 1.7726e-05
9210.0 1.783e-05
9230.0 1.794e-05
9250.0 1.8052e-05
9270.0 1.8168e-05
9290.0 1.8287e-05
9310.0 1.8407e-05
9330.0 1.853e-05
9350.0 1.8657e-05
9370.0 1.8785e-05
9390.0 1.8915e-05
9410.0 1.9048e-05
9430.0 1.9186e-05
9450.0 1.9323e-05
9470.0 1.9463e-05
9490.0 1.9607e-05
9510.0 1.9753e-05
9530.0 1.9899e-05
9550.0 2.005e-05
9570.0 2.0205e-05
9590.0 2.0359e-05
9610.0 2.0516e-05
9630.0 2.0678e-05
9650.0 2.084e-05
9670.0 2.1003e-05
9690.0 2.1171e-05
9710.0 2.1341e-05
9730.0 2.1511e-05
9750.0 2.1684e-05
9770.0 2.1862e-05
9790.0 2.204e-05
9810.0 2.2219e-05
9830.0 2.2401e-05
9850.0 2.2586e-05
9870.0 2.277e-05
9890.0 2.2957e-05
9910.0 2.3148e-05
9930.0 2.3338e-05
9950.0 2.353e-05
9970.0 2.3725e-05
9990.0 2.3922e-05
10010.0 2.0758e-05
10030.0 2.0929e-05
10050.0 2.1103e-05
10070.0 2.1282e-05
10090.0 2.1452e-05
10110.0 2.1626e-05
10130.0 2.18e-05
10150.0 2.1974e-05
10170.0 2.215e-05
10190.0 2.2329e-05
10210.0 2.2506e-05
10230.0 2.2682e-05
10250.0 2.2862e-05
10270.0 2.3041e-05
10290.0 2.3218e-05
10310.0 2.3397e-05
10330.0 2.3578e-05
10350.0 2.3755e-05
10370.0 2.3933e-05
10390.0 2.4112e-05
10410.0 2.429e-05
10430.0 2.4465e-05
10450.0 2.4642e-05
10470.0 2.4819e-05
10490.0 2.4993e-05
10510.0 2.5166e-05
10530.0 2.5342e-05
10550.0 2.5515e-05
10570.0 2.5684e-05
10590.0 2.5854e-05
10610.0 2.6024e-05
10630.0 2.619e-05
10650.0 2.6355e-05
10670.0 2.6521e-05
10690.0 2.6684e-05
10710.0 2.6843e-05
10730.0 2.7003e-05
10750.0 2.7163e-05
10770.0 2.7317e-05
10790.0 2.7469e-05
10810.0 2.7621e-05
10830.0 2.7768e-05
10850.0 2.7908e-05
10870.0 2.8044e-05
10890.0 2.8163e-05
10910.0 2.8255e-05
10930.0 2.8307e-05
10950.0 2.8295e-05
10970.0 2.8199e-05
10990.0 2.8011e-05
11010.0 2.7695e-05
11030.0 2.7254e-05
11050.0 2.6717e-05
11070.0 2.6075e-05
11090.0 2.5304e-05
11110.0 2.4506e-05
11130.0 2.3673e-05
11150.0 2.2777e-05
11170.0 2.1853e-05
11190.0 2.0957e-05
11210.0 2.0032e-05
11230.0 1.9083e-05
11250.0 1.8176e-05
11270.0 1.7305e-05
11290.0 1.6433e-05
11310.0 1.5606e-05
11330.0 1.4878e-05
11350.0 1.4191e-05
11370.0 1.3556e-05
11390.0 1.3006e-05
11410.0 1.2525e-05
11430.0 1.2078e-05
11450.0 1.1693e-05
11470.0 1.136e-05
11490.0 1.1051e-05
11510.0 1.0752e-05
11530.0 1.0475e-05
11550.0 1.02e-05
11570.0 9.9065e-06
11590.0 9.6025e-06
11610.0 9.2931e-06
11630.0 8.9563e-06
11650.0 8.5958e-06
11670.0 8.2405e-06
11690.0 7.8801e-06
11710.0 7.5084e-06
11730.0 7.1482e-06
11750.0 6.8148e-06
11770.0 6.4879e-06
11790.0 6.1815e-06
11810.0 5.9118e-06
11830.0 5.6706e-06
11850.0 5.4484e-06
11870.0 5.2626e-06
11890.0 5.1081e-06
11910.0 4.9723e-06
11930.0 4.8556e-06
11950.0 4.7585e-06
11970.0 4.6716e-06
11990.0 4.5896e-06
12010.0 4.5137e-06
12030.0 4.4405e-06
12050.0 4.3649e-06
12070.0 4.2862e-06
12090.0 4.2104e-06
12110.0 4.1334e-06
12130.0 4.0562e-06
12150.0 3.9851e-06
12170.0 3.923e-06
12190.0 3.8693e-06
12210.0 3.8319e-06
12230.0 3.8138e-06
12250.0 3.8167e-06
12270.0 3.8455e-06
12290.0 3.8999e-06
12310.0 3.9779e-06
12330.0 4.0871e-06
12350.0 4.2233e-06
12370.0 4.3785e-06
12390.0 4.5574e-06
12410.0 4.767e-06
12430.0 4.98e-06
12450.0 5.2006e-06
12470.0 5.4352e-06
12490.0 5.6708e-06
12510.0 5.8918e-06
12530.0 6.1117e-06
12550.0 6.3238e-06
12570.0 6.511e-06
12590.0 6.6754e-06
12610.0 6.8219e-06
12630.0 6.9387e-06
12650.0 7.0193e-06
12670.0 7.0722e-06
12690.0 7.0935e-06
12710.0 7.0818e-06
12730.0 7.0407e-06
12750.0 6.9675e-06
12770.0 6.867e-06
12790.0 6.7451e-06
12810.0 6.5995e-06
12830.0 6.4312e-06
12850.0 6.2551e-06
12870.0 6.0689e-06
12890.0 5.8674e-06
12910.0 5.6626e-06
12930.0 5.4607e-06
12950.0 5.2501e-06
12970.0 5.0357e-06
12990.0 4.8328e-06
13010.0 4.6325e-06
13030.0 4.43e-06
13050.0 4.2354e-06
13070.0 4.0532e-06
13090.0 3.8703e-06
13110.0 3.6933e-06
13130.0 3.5302e-06
13150.0 3.3757e-06
13170.0 3.2245e-06
13190.0 3.0899e-06
13210.0 2.9714e-06
13230.0 2.8631e-06
13250.0 2.7699e-06
13270.0 2.6963e-06
13290.0 2.6391e-06
13310.0 2.5997e-06
13330.0 2.5817e-06
13350.0 2.5838e-06
13370.0 2.607e-06
13390.0 2.6525e-06
13410.0 2.714e-06
13430.0 2.794e-06
13450.0 2.8928e-06
13470.0 3.0025e-06
13490.0 3.1186e-06
13510.0 3.2496e-06
13530.0 3.3824e-06
13550.0 3.5096e-06
13570.0 3.6349e-06
13590.0 3.7571e-06
13610.0 3.8657e-06
13630.0 3.9606e-06
13650.0 4.0472e-06
13670.0 4.1191e-06
13690.0 4.1747e-06
13710.0 4.2177e-06
13730.0 4.2484e-06
13750.0 4.2638e-06
13770.0 4.2673e-06
13790.0 4.2595e-06
13810.0 4.2407e-06
13830.0 4.2129e-06
13850.0 4.1753e-06
13870.0 4.1278e-06
13890.0 4.0735e-06
13910.0 4.0123e-06
13930.0 3.9415e-06
13950.0 3.8642e-06
13970.0 3.7851e-06
13990.0 3.699e-06
14010.0 3.6074e-06
14030.0 3.5161e-06
14050.0 3.4241e-06
14070.0 3.3269e-06
14090.0 3.2338e-06
14110.0 3.1463e-06
14130.0 3.0615e-06
14150.0 2.9817e-06
14170.0 2.9135e-06
14190.0 2.8546e-06
14210.0 2.8046e-06
14230.0 2.7676e-06
14250.0 2.7437e-06
14270.0 2.7321e-06
14290.0 2.7346e-06
14310.0 2.7498e-06
14330.0 2.7772e-06
14350.0 2.8175e-06
14370.0 2.8676e-06
14390.0 2.9246e-06
14410.0 2.9918e-06
14430.0 3.0655e-06
14450.0 3.1407e-06
14470.0 3.2188e-06
14490.0 3.3019e-06
14510.0 3.3813e-06
14530.0 3.4567e-06
14550.0 3.5321e-06
14570.0 3.6045e-06
14590.0 3.6704e-06
14610.0 3.7342e-06
14630.0 3.7972e-06
14650.0 3.856e-06
14670.0 3.9127e-06
14690.0 3.9718e-06
14710.0 4.034e-06
14730.0 4.0962e-06
14750.0 4.1651e-06
14770.0 4.2433e-06
14790.0 4.328e-06
14810.0 4.4198e-06
14830.0 4.5285e-06
14850.0 4.6467e-06
14870.0 4.7701e-06
14890.0 4.9031e-06
14910.0 5.0444e-06
14930.0 5.1803e-06
14950.0 5.3073e-06
14970.0 5.4275e-06
14990.0 5.5283e-06
15010.0 5.6054e-06
15030.0 5.6625e-06
15050.0 5.7002e-06
15070.0 5.7187e-06
15090.0 5.7251e-06
15110.0 5.7233e-06
15130.0 5.716e-06
15150.0 5.7064e-06
15170.0 5.695e-06
15190.0 5.6827e-06
15210.0 5.6706e-06
15230.0 5.6586e-06
15250.0 5.6461e-06
15270.0 5.6337e-06
15290.0 5.622e-06
15310.0 5.61e-06
15330.0 5.5979e-06
15350.0 5.5862e-06
15370.0 5.5746e-06
15390.0 5.5624e-06
15410.0 5.5507e-06
15430.0 5.5393e-06
15450.0 5.5277e-06
15470.0 5.5158e-06
15490.0 5.5046e-06
15510.0 5.4934e-06
15530.0 5.4817e-06
15550.0 5.4704e-06
15570.0 5.4594e-06
15590.0 5.448e-06
15610.0 5.4364e-06
15630.0 5.4255e-06
15650.0 5.4145e-06
15670.0 5.4032e-06
15690.0 5.3921e-06
15710.0 5.3815e-06
15730.0 5.3703e-06
15750.0 5.3592e-06
15770.0 5.3485e-06
15790.0 5.3377e-06
15810.0 5.3263e-06
15830.0 5.3155e-06
15850.0 5.305e-06
15870.0 5.2941e-06
15890.0 5.2831e-06
15910.0 5.2727e-06
15930.0 5.262e-06
15950.0 5.2509e-06
15970.0 5.2403e-06
15990.0 5.2298e-06
16010.0 5.2189e-06
16030.0 5.2079e-06
16050.0 5.1976e-06
16070.0 5.187e-06
16090.0 5.1762e-06
16110.0 5.1656e-06
16130.0 5.1553e-06
16150.0 5.1443e-06
16170.0 5.1335e-06
16190.0 5.1231e-06
16210.0 5.1125e-06
16230.0 5.1016e-06
16250.0 5.0911e-06
16270.0 5.0807e-06
16290.0 5.0699e-06
16310.0 5.0591e-06
16330.0 5.0487e-06
16350.0 5.0381e-06
16370.0 5.0269e-06
16390.0 5.0164e-06
16410.0 5.006e-06
16430.0 4.9951e-06
16450.0 4.9843e-06
16470.0 4.974e-06
16490.0 4.9631e-06
16510.0 4.9521e-06
16530.0 4.9415e-06
16550.0 4.9309e-06
16570.0 4.9197e-06
16590.0 4.9087e-06
16610.0 4.8983e-06
16630.0 4.8874e-06
16650.0 4.8763e-06
16670.0 4.8657e-06
16690.0 4.855e-06
16710.0 4.8436e-06
16730.0 4.8326e-06
16750.0 4.8219e-06
16770.0 4.8108e-06
16790.0 4.7995e-06
16810.0 4.7887e-06
16830.0 4.7779e-06
16850.0 4.7665e-06
16870.0 4.7554e-06
16890.0 4.7446e-06
16910.0 4.7332e-06
16930.0 4.7216e-06
16950.0 4.7107e-06
16970.0 4.6995e-06
16990.0 4.688e-06
17010.0 4.6767e-06
17030.0 4.6658e-06
17050.0 4.6542e-06
17070.0 4.6426e-06
17090.0 4.6314e-06
17110.0 4.6201e-06
17130.0 4.6081e-06
17150.0 4.5967e-06
17170.0 4.5855e-06
17190.0 4.5738e-06
17210.0 4.562e-06
17230.0 4.5508e-06
17250.0 4.5391e-06
17270.0 4.5271e-06
17290.0 4.5154e-06
17310.0 4.5039e-06
17330.0 4.4919e-06
17350.0 4.4798e-06
17370.0 4.4684e-06
17390.0 4.4566e-06
17410.0 4.4445e-06
17430.0 4.4327e-06
17450.0 4.421e-06
17470.0 4.4086e-06
17490.0 4.3964e-06
17510.0 4.3847e-06
17530.0 4.3726e-06
17550.0 4.3602e-06
17570.0 4.3483e-06
17590.0 4.3364e-06
17610.0 4.324e-06
17630.0 4.3117e-06
17650.0 4.2997e-06
17670.0 4.2874e-06
17690.0 4.2746e-06
17710.0 4.2625e-06
17730.0 4.2504e-06
17750.0 4.2378e-06
17770.0 4.2253e-06
17790.0 4.2133e-06
17810.0 4.2007e-06
17830.0 4.1879e-06
17850.0 4.1756e-06
17870.0 4.1632e-06
17890.0 4.1503e-06
17910.0 4.1376e-06
17930.0 4.1254e-06
17950.0 4.1127e-06
17970.0 4.0999e-06
17990.0 4.0874e-06
18010.0 4.075e-06
18030.0 4.0617e-06
18050.0 4.049e-06
18070.0 4.0365e-06
18090.0 4.0236e-06
18110.0 4.0105e-06
18130.0 3.998e-06
18150.0 3.9853e-06
18170.0 3.9722e-06
18190.0 3.9593e-06
18210.0 3.9467e-06
18230.0 3.9336e-06
18250.0 3.9203e-06
18270.0 3.9076e-06
18290.0 3.8947e-06
18310.0 3.8815e-06
18330.0 3.8685e-06
18350.0 3.8559e-06
18370.0 3.8426e-06
18390.0 3.8294e-06
18410.0 3.8166e-06
18430.0 3.8035e-06
18450.0 3.79e-06
18470.0 3.7769e-06
18490.0 3.7641e-06
18510.0 3.7508e-06
18530.0 3.7376e-06
18550.0 3.7248e-06
18570.0 3.7116e-06
18590.0 3.698e-06
18610.0 3.6849e-06
18630.0 3.6719e-06
18650.0 3.6585e-06
18670.0 3.645e-06
18690.0 3.6322e-06
18710.0 3.619e-06
18730.0 3.6055e-06
18750.0 3.5924e-06
18770.0 3.5795e-06
18790.0 3.5657e-06
18810.0 3.5523e-06
18830.0 3.5393e-06
18850.0 3.526e-06
18870.0 3.5124e-06
18890.0 3.4994e-06
18910.0 3.4863e-06
18930.0 3.4727e-06
18950.0 3.4594e-06
18970.0 3.4464e-06
18990.0 3.433e-06
19010.0 3.4191e-06
19030.0 3.4061e-06
19050.0 3.393e-06
19070.0 3.3794e-06
19090.0 3.3661e-06
19110.0 3.3532e-06
19130.0 3.3396e-06
19150.0 3.326e-06
19170.0 3.3129e-06
19190.0 3.2997e-06
19210.0 3.286e-06
19230.0 3.2726e-06
19250.0 3.2597e-06
19270.0 3.2462e-06
19290.0 3.2327e-06
19310.0 3.2197e-06
19330.0 3.2065e-06
19350.0 3.1927e-06
19370.0 3.1794e-06
19390.0 3.1664e-06
19410.0 3.1529e-06
19430.0 3.1393e-06
19450.0 3.1264e-06
19470.0 3.1132e-06
19490.0 3.0996e-06
19510.0 3.0864e-06
19530.0 3.0734e-06
19550.0 3.0598e-06
19570.0 3.0462e-06
19590.0 3.0333e-06
19610.0 3.0201e-06
19630.0 3.0066e-06
19650.0 2.9934e-06
19670.0 2.9805e-06
19690.0 2.967e-06
19710.0 2.9536e-06
19730.0 2.9406e-06
19750.0 2.9274e-06
19770.0 2.9138e-06
19790.0 2.9007e-06
19810.0 2.8877e-06
19830.0 2.8743e-06
19850.0 2.8608e-06
19870.0 2.8475e-06
19890.0 2.8333e-06
19910.0 2.8177e-06
19930.0 2.801e-06
19950.0 2.7819e-06
19970.0 2.7583e-06
19990.0 2.73e-06
20010.0 2.4288e-06
20030.0 2.3937e-06
20050.0 2.3525e-06
20070.0 2.308e-06
20090.0 2.26e-06
20110.0 2.2058e-06
20130.0 2.1509e-06
20150.0 2.0964e-06
20170.0 2.04e-06
20190.0 1.9828e-06
20210.0 1.9287e-06
20230.0 1.876e-06
20250.0 1.8232e-06
20270.0 1.7742e-06
20290.0 1.7294e-06
20310.0 1.6868e-06
20330.0 1.6471e-06
20350.0 1.6141e-06
20370.0 1.5848e-06
20390.0 1.5591e-06
20410.0 1.5384e-06
20430.0 1.5224e-06
20450.0 1.5097e-06
20470.0 1.5012e-06
20490.0 1.4966e-06
20510.0 1.4953e-06
20530.0 1.4972e-06
20550.0 1.5018e-06
20570.0 1.5085e-06
20590.0 1.5176e-06
20610.0 1.5287e-06
20630.0 1.5408e-06
20650.0 1.5544e-06
20670.0 1.5699e-06
20690.0 1.5857e-06
20710.0 1.6021e-06
20730.0 1.6198e-06
20750.0 1.6382e-06
20770.0 1.6563e-06
20790.0 1.6754e-06
20810.0 1.6955e-06
20830.0 1.7155e-06
20850.0 1.7357e-06
20870.0 1.7572e-06
20890.0 1.7792e-06
20910.0 1.8004e-06
20930.0 1.8224e-06
20950.0 1.8452e-06
20970.0 1.8674e-06
20990.0 1.8893e-06
21010.0 1.9124e-06
21030.0 1.9349e-06
21050.0 1.9564e-06
21070.0 1.9779e-06
21090.0 1.9994e-06
21110.0 2.019e-06
21130.0 2.0375e-06
21150.0 2.0554e-06
21170.0 2.0716e-06
21190.0 2.0855e-06
21210.0 2.098e-06
21230.0 2.1084e-06
21250.0 2.1159e-06
21270.0 2.1206e-06
21290.0 2.1223e-06
21310.0 2.1206e-06
21330.0 2.1156e-06
21350.0 2.1068e-06
21370.0 2.0939e-06
21390.0 2.0776e-06
21410.0 2.0575e-06
21430.0 2.032e-06
21450.0 2.0035e-06
21470.0 1.9724e-06
21490.0 1.9373e-06
21510.0 1.8987e-06
21530.0 1.8595e-06
21550.0 1.8185e-06
21570.0 1.7747e-06
21590.0 1.7316e-06
21610.0 1.69e-06
21630.0 1.6484e-06
21650.0 1.6077e-06
21670.0 1.5724e-06
21690.0 1.5399e-06
21710.0 1.5106e-06
21730.0 1.4866e-06
21750.0 1.4681e-06
21770.0 1.454e-06
21790.0 1.4459e-06
21810.0 1.4436e-06
21830.0 1.4468e-06
21850.0 1.4559e-06
21870.0 1.47e-06
21890.0 1.4882e-06
21910.0 1.5116e-06
21930.0 1.539e-06
21950.0 1.5687e-06
21970.0 1.6016e-06
21990.0 1.6385e-06
22010.0 1.6754e-06
22030.0 1.7129e-06
22050.0 1.7522e-06
22070.0 1.7918e-06
22090.0 1.8293e-06
22110.0 1.867e-06
22130.0 1.9047e-06
22150.0 1.94e-06
22170.0 1.9732e-06
22190.0 2.0061e-06
22210.0 2.0367e-06
22230.0 2.0637e-06
22250.0 2.089e-06
22270.0 2.1124e-06
22290.0 2.1324e-06
22310.0 2.1495e-06
22330.0 2.1646e-06
22350.0 2.1763e-06
22370.0 2.1845e-06
22390.0 2.1896e-06
22410.0 2.1913e-06
22430.0 2.1892e-06
22450.0 2.1835e-06
22470.0 2.1738e-06
22490.0 2.1601e-06
22510.0 2.1431e-06
22530.0 2.1212e-06
22550.0 2.0947e-06
22570.0 2.0652e-06
22590.0 2.032e-06
22610.0 1.9938e-06
22630.0 1.9524e-06
