#lamb flux
1010.0 2.5757e-08
1030.0 2.8429e-08
1050.0 3.1503e-08
1070.0 3.4964e-08
1090.0 3.8894e-08
1110.0 4.2926e-08
1130.0 4.6983e-08
1150.0 5.1233e-08
1170.0 5.5617e-08
1190.0 5.9775e-08
1210.0 6.3988e-08
1230.0 6.8342e-08
1250.0 7.2608e-08
1270.0 7.675e-08
1290.0 8.1128e-08
1310.0 8.5502e-08
1330.0 8.9697e-08
1350.0 9.3939e-08
1370.0 9.8319e-08
1390.0 1.0259e-07
1410.0 1.0673e-07
1430.0 1.1106e-07
1450.0 1.154e-07
1470.0 1.1958e-07
1490.0 1.2381e-07
1510.0 1.2828e-07
1530.0 1.3252e-07
1550.0 1.367e-07
1570.0 1.4102e-07
1590.0 1.4535e-07
1610.0 1.4949e-07
1630.0 1.5376e-07
1650.0 1.5814e-07
1670.0 1.6238e-07
1690.0 1.6656e-07
1710.0 1.7092e-07
1730.0 1.7529e-07
1750.0 1.7941e-07
1770.0 1.8366e-07
1790.0 1.8799e-07
1810.0 1.9219e-07
1830.0 1.9632e-07
1850.0 2.0071e-07
1870.0 2.05e-07
1890.0 2.0914e-07
1910.0 2.1337e-07
1930.0 2.1771e-07
1950.0 2.2186e-07
1970.0 2.2597e-07
1990.0 2.3024e-07
2010.0 2.3444e-07
2030.0 2.385e-07
2050.0 2.4268e-07
2070.0 2.4698e-07
2090.0 2.5104e-07
2110.0 2.5509e-07
2130.0 2.5927e-07
2150.0 2.6336e-07
2170.0 2.6728e-07
2190.0 2.7135e-07
2210.0 2.7545e-07
2230.0 2.7938e-07
2250.0 2.8328e-07
2270.0 2.8737e-07
2290.0 2.9132e-07
2310.0 2.951e-07
2330.0 2.9903e-07
2350.0 3.0307e-07
2370.0 3.0708e-07
2390.0 3.1143e-07
2410.0 3.1662e-07
2430.0 3.2262e-07
2450.0 3.2982e-07
2470.0 3.3911e-07
2490.0 3.5087e-07
2510.0 3.6427e-07
2530.0 3.8044e-07
2550.0 4.0071e-07
2570.0 4.2595e-07
2590.0 4.5877e-07
2610.0 5.0788e-07
2630.0 5.779e-07
2650.0 6.6929e-07
2670.0 7.8727e-07
2690.0 9.3202e-07
2710.0 1.0862e-06
2730.0 1.2383e-06
2750.0 1.3877e-06
2770.0 1.5173e-06
2790.0 1.6197e-06
2810.0 1.7005e-06
2830.0 1.7632e-06
2850.0 1.8054e-06
2870.0 1.836e-06
2890.0 1.8598e-06
2910.0 1.8784e-06
2930.0 1.8934e-06
2950.0 1.9077e-06
2970.0 1.9216e-06
2990.0 1.9346e-06
3010.0 5.5487e-05
3030.0 5.5857e-05
3050.0 5.6214e-05
3070.0 5.6515e-05
3090.0 5.677e-05
3110.0 5.6915e-05
3130.0 5.6871e-05
3150.0 5.6584e-05
3170.0 5.5944e-05
3190.0 5.4959e-05
3210.0 5.3722e-05
3230.0 5.2309e-05
3250.0 5.0907e-05
3270.0 4.9879e-05
3290.0 4.9282e-05
3310.0 4.9343e-05
3330.0 5.0023e-05
3350.0 5.1235e-05
3370.0 5.298e-05
3390.0 5.5188e-05
3410.0 5.7596e-05
3430.0 6.0302e-05
3450.0 6.3419e-05
3470.0 6.6827e-05
3490.0 7.0441e-05
3510.0 7.453e-05
3530.0 7.8914e-05
3550.0 8.3374e-05
3570.0 8.8047e-05
3590.0 9.3138e-05
3610.0 9.8419e-05
3630.0 0.00010368
3650.0 0.00010914
3670.0 0.00011411
3690.0 0.00011783
3710.0 0.00011993
3730.0 0.00011989
3750.0 0.000118
3770.0 0.00011772
3790.0 0.00011698
3810.0 0.00011217
3830.0 0.00011531
3850.0 0.00013204
3870.0 0.00013927
3890.0 0.00013566
3910.0 0.00013512
3930.0 0.00014026
3950.0 0.00014446
3970.0 0.00013385
3990.0 0.00011209
4010.0 0.00032756
4030.0 0.00039299
4050.0 0.00045047
4070.0 0.00039653
4090.0 0.00035995
4110.0 0.00031595
4130.0 0.00029662
4150.0 0.00032306
4170.0 0.0003114
4190.0 0.00032716
4210.0 0.00032754
4230.0 0.00035099
4250.0 0.00041636
4270.0 0.00042432
4290.0 0.00038876
4310.0 0.00039967
4330.0 0.00042207
4350.0 0.0004786
4370.0 0.00054841
4390.0 0.00050654
4410.0 0.00036548
4430.0 0.00030595
4450.0 0.00028177
4470.0 0.00021254
4490.0 0.00023621
4510.0 0.00037086
4530.0 0.00043056
4550.0 0.00042985
4570.0 0.00047304
4590.0 0.00053549
4610.0 0.00075016
4630.0 0.00098424
4650.0 0.0010518
4670.0 0.00096856
4690.0 0.000929
4710.0 0.00098029
4730.0 0.00091379
4750.0 0.00067542
4770.0 0.00049166
4790.0 0.00046555
4810.0 0.00044845
4830.0 0.00041379
4850.0 0.00045324
4870.0 0.00059891
4890.0 0.00070478
4910.0 0.00061152
4930.0 0.00054652
4950.0 0.00060349
4970.0 0.00077634
4990.0 0.0010519
5010.0 0.0012119
5030.0 0.0010584
5050.0 0.00071
5070.0 0.00047122
5090.0 0.00037703
5110.0 0.00038416
5130.0 0.00044558
5150.0 0.00047828
5170.0 0.00046914
5190.0 0.00043628
5210.0 0.00045903
5230.0 0.00048987
5250.0 0.00053214
5270.0 0.00056542
5290.0 0.00062459
5310.0 0.00073718
5330.0 0.00081432
5350.0 0.0008085
5370.0 0.00085452
5390.0 0.00098965
5410.0 0.00097348
5430.0 0.00085049
5450.0 0.00078808
5470.0 0.00084372
5490.0 0.0010325
5510.0 0.0012865
5530.0 0.0014775
5550.0 0.0014188
5570.0 0.0012884
5590.0 0.0011143
5610.0 0.0010367
5630.0 0.0010212
5650.0 0.00096803
5670.0 0.00091398
5690.0 0.00080861
5710.0 0.00079276
5730.0 0.0007341
5750.0 0.00050551
5770.0 0.000391
5790.0 0.00044627
5810.0 0.00050038
5830.0 0.00062767
5850.0 0.00075487
5870.0 0.00083547
5890.0 0.00084462
5910.0 0.00082823
5930.0 0.0007887
5950.0 0.00080439
5970.0 0.00092546
5990.0 0.00085821
6010.0 0.00071388
6030.0 0.00060143
6050.0 0.00052502
6070.0 0.00053132
6090.0 0.00057793
6110.0 0.00064007
6130.0 0.00064442
6150.0 0.00054993
6170.0 0.00047769
6190.0 0.00054025
6210.0 0.00072631
6230.0 0.00096588
6250.0 0.0010467
6270.0 0.00090239
6290.0 0.00076071
6310.0 0.00059249
6330.0 0.00045176
6350.0 0.00040673
6370.0 0.00042763
6390.0 0.00049573
6410.0 0.00061476
6430.0 0.00072023
6450.0 0.00083037
6470.0 0.00094166
6490.0 0.0011359
6510.0 0.0012703
6530.0 0.0012528
6550.0 0.0011351
6570.0 0.00095591
6590.0 0.00086614
6610.0 0.00074348
6630.0 0.0006844
6650.0 0.00064967
6670.0 0.00062239
6690.0 0.00055228
6710.0 0.00050599
6730.0 0.00034744
6750.0 0.00035367
6770.0 0.00040098
6790.0 0.00046967
6810.0 0.00041558
6830.0 0.00042747
6850.0 0.00039444
6870.0 0.00036093
6890.0 0.00034203
6910.0 0.00036993
6930.0 0.00034678
6950.0 0.00036288
6970.0 0.00038154
6990.0 0.00043198
7010.0 0.00043291
7030.0 0.00044695
7050.0 0.00042134
7070.0 0.00039523
7090.0 0.00039965
7110.0 0.00041324
7130.0 0.00044856
7150.0 0.00048013
7170.0 0.00053109
7190.0 0.00058234
7210.0 0.0005657
7230.0 0.00058064
7250.0 0.00062332
7270.0 0.00067732
7290.0 0.00080818
7310.0 0.00087544
7330.0 0.000844
7350.0 0.00076269
7370.0 0.0006524
7390.0 0.00063638
7410.0 0.0006866
7430.0 0.00076553
7450.0 0.0008328
7470.0 0.00081685
7490.0 0.00073222
7510.0 0.00086337
7530.0 0.00084619
7550.0 0.00076627
7570.0 0.00058891
7590.0 0.00038849
7610.0 0.00032883
7630.0 0.0003819
7650.0 0.00045692
7670.0 0.00058395
7690.0 0.0006432
7710.0 0.00065976
7730.0 0.00068969
7750.0 0.00078789
7770.0 0.00080165
7790.0 0.00073574
7810.0 0.00066192
7830.0 0.00068661
7850.0 0.00067716
7870.0 0.00062591
7890.0 0.00052096
7910.0 0.0004147
7930.0 0.00039981
7950.0 0.00036402
7970.0 0.00033356
7990.0 0.00032861
8010.0 4.5235e-05
8030.0 4.2085e-05
8050.0 4.4102e-05
8070.0 4.9015e-05
8090.0 5.8917e-05
8110.0 5.6394e-05
8130.0 3.59e-05
8150.0 3.7279e-05
8170.0 2.347e-05
8190.0 1.6771e-05
8210.0 3.5851e-05
8230.0 4.2541e-05
8250.0 2.3076e-05
8270.0 1.878e-05
8290.0 2.8119e-05
8310.0 2.4175e-05
8330.0 1.5482e-05
8350.0 1.1754e-05
8370.0 3.8002e-06
8390.0 1.3014e-05
8410.0 1.4852e-05
8430.0 1.8306e-05
8450.0 2.1083e-05
8470.0 3.2494e-05
8490.0 2.8423e-05
8510.0 2.3929e-05
8530.0 1.7348e-05
8550.0 3.9884e-05
8570.0 5.6243e-05
8590.0 4.5356e-05
8610.0 6.4282e-05
8630.0 7.307e-05
8650.0 5.397e-05
8670.0 6.7706e-05
8690.0 8.7531e-05
8710.0 7.6093e-05
8730.0 7.737e-05
8750.0 6.2994e-05
8770.0 5.7208e-05
8790.0 6.0525e-05
8810.0 6.3075e-05
8830.0 3.9683e-05
8850.0 2.1111e-05
8870.0 1.5229e-05
8890.0 2.5999e-05
8910.0 3.7941e-05
8930.0 4.8934e-05
8950.0 5.257e-05
8970.0 5.0877e-05
8990.0 3.8715e-05
9010.0 0.00016497
9030.0 0.00014336
9050.0 0.00014486
9070.0 0.00014684
9090.0 0.00014853
9110.0 0.00015062
9130.0 0.00015217
9150.0 0.00015333
9170.0 0.00015456
9190.0 0.00015587
9210.0 0.00015725
9230.0 0.00015871
9250.0 0.00016018
9270.0 0.00016171
9290.0 0.00016327
9310.0 0.00016484
9330.0 0.00016643
9350.0 0.00016809
9370.0 0.00016975
9390.0 0.00017142
9410.0 0.00017313
9430.0 0.0001749
9450.0 0.00017665
9470.0 0.00017843
9490.0 0.00018026
9510.0 0.00018211
9530.0 0.00018396
9550.0 0.00018588
9570.0 0.00018782
9590.0 0.00018977
9610.0 0.00019175
9630.0 0.00019378
9650.0 0.00019582
9670.0 0.00019786
9690.0 0.00019996
9710.0 0.00020209
9730.0 0.00020422
9750.0 0.00020638
9770.0 0.0002086
9790.0 0.00021082
9810.0 0.00021305
9830.0 0.00021532
9850.0 0.00021763
9870.0 0.00021992
9890.0 0.00022225
9910.0 0.00022462
9930.0 0.000227
9950.0 0.00022938
9970.0 0.00023181
9990.0 0.00023427
10010.0 0.00020395
10030.0 0.00020608
10050.0 0.00020824
10070.0 0.00021044
10090.0 0.00021256
10110.0 0.00021475
10130.0 0.00021693
10150.0 0.0002191
10170.0 0.0002213
10190.0 0.00022354
10210.0 0.00022574
10230.0 0.00022794
10250.0 0.00023018
10270.0 0.00023241
10290.0 0.00023461
10310.0 0.00023685
10330.0 0.00023911
10350.0 0.00024132
10370.0 0.00024353
10390.0 0.00024577
10410.0 0.00024799
10430.0 0.00025017
10450.0 0.00025238
10470.0 0.00025459
10490.0 0.00025676
10510.0 0.00025891
10530.0 0.0002611
10550.0 0.00026326
10570.0 0.00026536
10590.0 0.00026748
10610.0 0.0002696
10630.0 0.00027166
10650.0 0.00027371
10670.0 0.00027578
10690.0 0.0002778
10710.0 0.00027978
10730.0 0.00028176
10750.0 0.00028375
10770.0 0.00028566
10790.0 0.00028754
10810.0 0.00028943
10830.0 0.00029125
10850.0 0.00029299
10870.0 0.00029468
10890.0 0.00029619
10910.0 0.00029739
10930.0 0.00029815
10950.0 0.00029822
10970.0 0.00029737
10990.0 0.0002955
11010.0 0.00027767
11030.0 0.00027327
11050.0 0.00026789
11070.0 0.00026144
11090.0 0.00025369
11110.0 0.00024567
11130.0 0.0002373
11150.0 0.00022829
11170.0 0.00021902
11190.0 0.00021003
11210.0 0.00020075
11230.0 0.00019124
11250.0 0.00018217
11270.0 0.00017345
11290.0 0.00016473
11310.0 0.00015647
11330.0 0.00014919
11350.0 0.00014231
11370.0 0.00013595
11390.0 0.00013044
11410.0 0.00012562
11430.0 0.00012112
11450.0 0.00011724
11470.0 0.00011387
11490.0 0.00011074
11510.0 0.00010771
11530.0 0.00010489
11550.0 0.0001021
11570.0 9.9117e-05
11590.0 9.6038e-05
11610.0 9.2908e-05
11630.0 8.9509e-05
11650.0 8.5878e-05
11670.0 8.2302e-05
11690.0 7.8679e-05
11710.0 7.4945e-05
11730.0 7.1328e-05
11750.0 6.7979e-05
11770.0 6.4695e-05
11790.0 6.1615e-05
11810.0 5.8899e-05
11830.0 5.6466e-05
11850.0 5.4222e-05
11870.0 5.2338e-05
11890.0 5.0766e-05
11910.0 4.938e-05
11930.0 4.8184e-05
11950.0 4.7183e-05
11970.0 4.6286e-05
11990.0 4.5437e-05
12010.0 4.4652e-05
12030.0 4.3895e-05
12050.0 4.3116e-05
12070.0 4.2308e-05
12090.0 4.153e-05
12110.0 4.0741e-05
12130.0 3.995e-05
12150.0 3.9219e-05
12170.0 3.8578e-05
12190.0 3.8018e-05
12210.0 3.7616e-05
12230.0 3.7405e-05
12250.0 3.7399e-05
12270.0 3.7645e-05
12290.0 3.8142e-05
12310.0 3.8871e-05
12330.0 3.9903e-05
12350.0 4.1199e-05
12370.0 4.268e-05
12390.0 4.4393e-05
12410.0 4.6404e-05
12430.0 4.8449e-05
12450.0 5.0568e-05
12470.0 5.2823e-05
12490.0 5.5087e-05
12510.0 5.7211e-05
12530.0 5.9323e-05
12550.0 6.136e-05
12570.0 6.3156e-05
12590.0 6.473e-05
12610.0 6.6131e-05
12630.0 6.7244e-05
12650.0 6.8006e-05
12670.0 6.8501e-05
12690.0 6.8689e-05
12710.0 6.8558e-05
12730.0 6.8142e-05
12750.0 6.7415e-05
12770.0 6.6424e-05
12790.0 6.5226e-05
12810.0 6.38e-05
12830.0 6.2153e-05
12850.0 6.0432e-05
12870.0 5.8614e-05
12890.0 5.665e-05
12910.0 5.4656e-05
12930.0 5.2691e-05
12950.0 5.0643e-05
12970.0 4.8561e-05
12990.0 4.6592e-05
13010.0 4.4648e-05
13030.0 4.2685e-05
13050.0 4.0799e-05
13070.0 3.9033e-05
13090.0 3.7261e-05
13110.0 3.5547e-05
13130.0 3.3966e-05
13150.0 3.2467e-05
13170.0 3.1e-05
13190.0 2.9693e-05
13210.0 2.854e-05
13230.0 2.7485e-05
13250.0 2.6573e-05
13270.0 2.5851e-05
13290.0 2.5285e-05
13310.0 2.489e-05
13330.0 2.4701e-05
13350.0 2.4705e-05
13370.0 2.4911e-05
13390.0 2.5332e-05
13410.0 2.5909e-05
13430.0 2.6665e-05
13450.0 2.7602e-05
13470.0 2.8646e-05
13490.0 2.9755e-05
13510.0 3.1009e-05
13530.0 3.2282e-05
13550.0 3.3504e-05
13570.0 3.471e-05
13590.0 3.5889e-05
13610.0 3.6939e-05
13630.0 3.7857e-05
13650.0 3.8698e-05
13670.0 3.9398e-05
13690.0 3.9941e-05
13710.0 4.0363e-05
13730.0 4.0667e-05
13750.0 4.0822e-05
13770.0 4.0862e-05
13790.0 4.0793e-05
13810.0 4.0617e-05
13830.0 4.0353e-05
13850.0 3.9995e-05
13870.0 3.9541e-05
13890.0 3.902e-05
13910.0 3.8433e-05
13930.0 3.7754e-05
13950.0 3.7011e-05
13970.0 3.6252e-05
13990.0 3.5425e-05
14010.0 3.4546e-05
14030.0 3.3669e-05
14050.0 3.2785e-05
14070.0 3.1853e-05
14090.0 3.0959e-05
14110.0 3.0119e-05
14130.0 2.9305e-05
14150.0 2.8538e-05
14170.0 2.7884e-05
14190.0 2.7317e-05
14210.0 2.6835e-05
14230.0 2.6478e-05
14250.0 2.6245e-05
14270.0 2.6131e-05
14290.0 2.6151e-05
14310.0 2.6294e-05
14330.0 2.6553e-05
14350.0 2.6936e-05
14370.0 2.7415e-05
14390.0 2.796e-05
14410.0 2.8603e-05
14430.0 2.931e-05
14450.0 3.0033e-05
14470.0 3.0784e-05
14490.0 3.1585e-05
14510.0 3.2351e-05
14530.0 3.308e-05
14550.0 3.3809e-05
14570.0 3.4509e-05
14590.0 3.5148e-05
14610.0 3.5765e-05
14630.0 3.6377e-05
14650.0 3.6946e-05
14670.0 3.7495e-05
14690.0 3.8067e-05
14710.0 3.8669e-05
14730.0 3.9269e-05
14750.0 3.9934e-05
14770.0 4.0689e-05
14790.0 4.1507e-05
14810.0 4.2393e-05
14830.0 4.3444e-05
14850.0 4.4587e-05
14870.0 4.578e-05
14890.0 4.7068e-05
14910.0 4.8437e-05
14930.0 4.9754e-05
14950.0 5.0986e-05
14970.0 5.2154e-05
14990.0 5.3135e-05
15010.0 5.3886e-05
15030.0 5.4445e-05
15050.0 5.4818e-05
15070.0 5.5004e-05
15090.0 5.5074e-05
15110.0 5.5063e-05
15130.0 5.5001e-05
15150.0 5.4915e-05
15170.0 5.4813e-05
15190.0 5.4702e-05
15210.0 5.4593e-05
15230.0 5.4484e-05
15250.0 5.4371e-05
15270.0 5.426e-05
15290.0 5.4155e-05
15310.0 5.4047e-05
15330.0 5.3937e-05
15350.0 5.3833e-05
15370.0 5.3729e-05
15390.0 5.3619e-05
15410.0 5.3514e-05
15430.0 5.3412e-05
15450.0 5.3308e-05
15470.0 5.3201e-05
15490.0 5.3101e-05
15510.0 5.3001e-05
15530.0 5.2896e-05
15550.0 5.2795e-05
15570.0 5.2697e-05
15590.0 5.2595e-05
15610.0 5.2491e-05
15630.0 5.2394e-05
15650.0 5.2296e-05
15670.0 5.2194e-05
15690.0 5.2096e-05
15710.0 5.2001e-05
15730.0 5.1901e-05
15750.0 5.1801e-05
15770.0 5.1706e-05
15790.0 5.161e-05
15810.0 5.1508e-05
15830.0 5.1411e-05
15850.0 5.1318e-05
15870.0 5.122e-05
15890.0 5.1122e-05
15910.0 5.1029e-05
15930.0 5.0933e-05
15950.0 5.0834e-05
15970.0 5.0738e-05
15990.0 5.0645e-05
16010.0 5.0547e-05
16030.0 5.0448e-05
16050.0 5.0356e-05
16070.0 5.0261e-05
16090.0 5.0163e-05
16110.0 5.0068e-05
16130.0 4.9976e-05
16150.0 4.9876e-05
16170.0 4.9778e-05
16190.0 4.9685e-05
16210.0 4.9589e-05
16230.0 4.949e-05
16250.0 4.9395e-05
16270.0 4.9302e-05
16290.0 4.9204e-05
16310.0 4.9106e-05
16330.0 4.9012e-05
16350.0 4.8915e-05
16370.0 4.8813e-05
16390.0 4.8718e-05
16410.0 4.8623e-05
16430.0 4.8523e-05
16450.0 4.8424e-05
16470.0 4.833e-05
16490.0 4.8231e-05
16510.0 4.813e-05
16530.0 4.8032e-05
16550.0 4.7935e-05
16570.0 4.7833e-05
16590.0 4.7731e-05
16610.0 4.7635e-05
16630.0 4.7535e-05
16650.0 4.7432e-05
16670.0 4.7334e-05
16690.0 4.7235e-05
16710.0 4.7129e-05
16730.0 4.7027e-05
16750.0 4.6928e-05
16770.0 4.6824e-05
16790.0 4.6719e-05
16810.0 4.6619e-05
16830.0 4.6517e-05
16850.0 4.6411e-05
16870.0 4.6307e-05
16890.0 4.6206e-05
16910.0 4.6098e-05
16930.0 4.599e-05
16950.0 4.5887e-05
16970.0 4.5782e-05
16990.0 4.5673e-05
17010.0 4.5567e-05
17030.0 4.5463e-05
17050.0 4.5354e-05
17070.0 4.5244e-05
17090.0 4.5138e-05
17110.0 4.503e-05
17130.0 4.4916e-05
17150.0 4.4807e-05
17170.0 4.4701e-05
17190.0 4.4589e-05
17210.0 4.4477e-05
17230.0 4.4369e-05
17250.0 4.4258e-05
17270.0 4.4142e-05
17290.0 4.4031e-05
17310.0 4.392e-05
17330.0 4.3805e-05
17350.0 4.3689e-05
17370.0 4.3579e-05
17390.0 4.3465e-05
17410.0 4.3348e-05
17430.0 4.3234e-05
17450.0 4.3122e-05
17470.0 4.3002e-05
17490.0 4.2884e-05
17510.0 4.277e-05
17530.0 4.2653e-05
17550.0 4.2532e-05
17570.0 4.2416e-05
17590.0 4.2301e-05
17610.0 4.218e-05
17630.0 4.206e-05
17650.0 4.1944e-05
17670.0 4.1824e-05
17690.0 4.1698e-05
17710.0 4.1581e-05
17730.0 4.1462e-05
17750.0 4.1339e-05
17770.0 4.1217e-05
17790.0 4.1099e-05
17810.0 4.0975e-05
17830.0 4.085e-05
17850.0 4.0729e-05
17870.0 4.0607e-05
17890.0 4.0481e-05
17910.0 4.0355e-05
17930.0 4.0235e-05
17950.0 4.011e-05
17970.0 3.9984e-05
17990.0 3.9861e-05
18010.0 3.9738e-05
18030.0 3.9608e-05
18050.0 3.9482e-05
18070.0 3.9358e-05
18090.0 3.9231e-05
18110.0 3.9101e-05
18130.0 3.8977e-05
18150.0 3.8852e-05
18170.0 3.8721e-05
18190.0 3.8594e-05
18210.0 3.8469e-05
18230.0 3.8339e-05
18250.0 3.8207e-05
18270.0 3.8081e-05
18290.0 3.7953e-05
18310.0 3.7822e-05
18330.0 3.7693e-05
18350.0 3.7567e-05
18370.0 3.7435e-05
18390.0 3.7304e-05
18410.0 3.7176e-05
18430.0 3.7046e-05
18450.0 3.6911e-05
18470.0 3.6782e-05
18490.0 3.6654e-05
18510.0 3.6522e-05
18530.0 3.6389e-05
18550.0 3.6262e-05
18570.0 3.613e-05
18590.0 3.5995e-05
18610.0 3.5864e-05
18630.0 3.5735e-05
18650.0 3.5601e-05
18670.0 3.5466e-05
18690.0 3.5338e-05
18710.0 3.5206e-05
18730.0 3.5072e-05
18750.0 3.4941e-05
18770.0 3.4811e-05
18790.0 3.4674e-05
18810.0 3.454e-05
18830.0 3.441e-05
18850.0 3.4277e-05
18870.0 3.4142e-05
18890.0 3.4011e-05
18910.0 3.3881e-05
18930.0 3.3745e-05
18950.0 3.3611e-05
18970.0 3.3481e-05
18990.0 3.3347e-05
19010.0 3.3209e-05
19030.0 3.3078e-05
19050.0 3.2947e-05
19070.0 3.2812e-05
19090.0 3.2678e-05
19110.0 3.2549e-05
19130.0 3.2414e-05
19150.0 3.2278e-05
19170.0 3.2146e-05
19190.0 3.2014e-05
19210.0 3.1877e-05
19230.0 3.1743e-05
19250.0 3.1614e-05
19270.0 3.148e-05
19290.0 3.1345e-05
19310.0 3.1214e-05
19330.0 3.1083e-05
19350.0 3.0945e-05
19370.0 3.0812e-05
19390.0 3.0681e-05
19410.0 3.0547e-05
19430.0 3.0411e-05
19450.0 3.0282e-05
19470.0 3.015e-05
19490.0 3.0015e-05
19510.0 2.9882e-05
19530.0 2.9753e-05
19550.0 2.9617e-05
19570.0 2.9482e-05
19590.0 2.9352e-05
19610.0 2.922e-05
19630.0 2.9086e-05
19650.0 2.8954e-05
19670.0 2.8826e-05
19690.0 2.8691e-05
19710.0 2.8557e-05
19730.0 2.8428e-05
19750.0 2.8296e-05
19770.0 2.816e-05
19790.0 2.8029e-05
19810.0 2.7901e-05
19830.0 2.7767e-05
19850.0 2.7632e-05
19870.0 2.75e-05
19890.0 2.7359e-05
19910.0 2.7204e-05
19930.0 2.7039e-05
19950.0 2.6851e-05
19970.0 2.662e-05
19990.0 2.6343e-05
20010.0 2.3486e-05
20030.0 2.3143e-05
20050.0 2.2743e-05
20070.0 2.2309e-05
20090.0 2.1843e-05
20110.0 2.1317e-05
20130.0 2.0784e-05
20150.0 2.0257e-05
20170.0 1.971e-05
20190.0 1.9156e-05
20210.0 1.8633e-05
20230.0 1.8122e-05
20250.0 1.7611e-05
20270.0 1.7137e-05
20290.0 1.6704e-05
20310.0 1.6292e-05
20330.0 1.5907e-05
20350.0 1.5587e-05
20370.0 1.5303e-05
20390.0 1.5054e-05
20410.0 1.4852e-05
20430.0 1.4696e-05
20450.0 1.4571e-05
20470.0 1.4487e-05
20490.0 1.4441e-05
20510.0 1.4427e-05
20530.0 1.4442e-05
20550.0 1.4485e-05
20570.0 1.4548e-05
20590.0 1.4635e-05
20610.0 1.474e-05
20630.0 1.4856e-05
20650.0 1.4986e-05
20670.0 1.5135e-05
20690.0 1.5288e-05
20710.0 1.5445e-05
20730.0 1.5615e-05
20750.0 1.5793e-05
20770.0 1.5967e-05
20790.0 1.6151e-05
20810.0 1.6345e-05
20830.0 1.6537e-05
20850.0 1.6731e-05
20870.0 1.6938e-05
20890.0 1.7149e-05
20910.0 1.7352e-05
20930.0 1.7562e-05
20950.0 1.7781e-05
20970.0 1.7993e-05
20990.0 1.8203e-05
21010.0 1.8423e-05
21030.0 1.8638e-05
21050.0 1.8843e-05
21070.0 1.9048e-05
21090.0 1.9254e-05
21110.0 1.9441e-05
21130.0 1.9616e-05
21150.0 1.9787e-05
21170.0 1.994e-05
21190.0 2.0073e-05
21210.0 2.0192e-05
21230.0 2.029e-05
21250.0 2.036e-05
21270.0 2.0404e-05
21290.0 2.042e-05
21310.0 2.0403e-05
21330.0 2.0354e-05
21350.0 2.0269e-05
21370.0 2.0144e-05
21390.0 1.9986e-05
21410.0 1.9793e-05
21430.0 1.9548e-05
21450.0 1.9273e-05
21470.0 1.8974e-05
21490.0 1.8636e-05
21510.0 1.8265e-05
21530.0 1.7889e-05
21550.0 1.7494e-05
21570.0 1.7074e-05
21590.0 1.666e-05
21610.0 1.626e-05
21630.0 1.586e-05
21650.0 1.5469e-05
21670.0 1.513e-05
21690.0 1.4818e-05
21710.0 1.4536e-05
21730.0 1.4305e-05
21750.0 1.4127e-05
21770.0 1.3991e-05
21790.0 1.3913e-05
21810.0 1.389e-05
21830.0 1.392e-05
21850.0 1.4005e-05
21870.0 1.4139e-05
21890.0 1.4313e-05
21910.0 1.4535e-05
21930.0 1.4796e-05
21950.0 1.5079e-05
21970.0 1.5393e-05
21990.0 1.5745e-05
22010.0 1.6097e-05
22030.0 1.6455e-05
22050.0 1.6831e-05
22070.0 1.7208e-05
22090.0 1.7566e-05
22110.0 1.7926e-05
22130.0 1.8286e-05
22150.0 1.8623e-05
22170.0 1.894e-05
22190.0 1.9254e-05
22210.0 1.9546e-05
22230.0 1.9804e-05
22250.0 2.0046e-05
22270.0 2.0269e-05
22290.0 2.0459e-05
22310.0 2.0622e-05
22330.0 2.0766e-05
22350.0 2.0877e-05
22370.0 2.0955e-05
22390.0 2.1004e-05
22410.0 2.1018e-05
22430.0 2.0998e-05
22450.0 2.0943e-05
22470.0 2.0849e-05
22490.0 2.0717e-05
22510.0 2.0553e-05
22530.0 2.0344e-05
22550.0 2.0089e-05
22570.0 1.9807e-05
22590.0 1.9489e-05
22610.0 1.9123e-05
22630.0 1.8726e-05
