#lamb flux
1010.0 1.8707e-05
1030.0 1.9498e-05
1050.0 2.0415e-05
1070.0 2.145e-05
1090.0 2.2627e-05
1110.0 2.3841e-05
1130.0 2.5068e-05
1150.0 2.6361e-05
1170.0 2.7703e-05
1190.0 2.8985e-05
1210.0 3.0295e-05
1230.0 3.1658e-05
1250.0 3.3006e-05
1270.0 3.4329e-05
1290.0 3.5736e-05
1310.0 3.7156e-05
1330.0 3.8536e-05
1350.0 3.9946e-05
1370.0 4.1414e-05
1390.0 4.2865e-05
1410.0 4.4294e-05
1430.0 4.5798e-05
1450.0 4.7321e-05
1470.0 4.8816e-05
1490.0 5.0341e-05
1510.0 5.1959e-05
1530.0 5.3519e-05
1550.0 5.5073e-05
1570.0 5.6687e-05
1590.0 5.8313e-05
1610.0 5.9884e-05
1630.0 6.1503e-05
1650.0 6.3161e-05
1670.0 6.4772e-05
1690.0 6.6361e-05
1710.0 6.7996e-05
1730.0 6.9627e-05
1750.0 7.1156e-05
1770.0 7.2705e-05
1790.0 7.4259e-05
1810.0 7.574e-05
1830.0 7.7164e-05
1850.0 7.8638e-05
1870.0 8.0036e-05
1890.0 8.1345e-05
1910.0 8.2639e-05
1930.0 8.3923e-05
1950.0 8.5096e-05
1970.0 8.6206e-05
1990.0 8.7325e-05
2010.0 8.8377e-05
2030.0 8.934e-05
2050.0 9.0308e-05
2070.0 9.1279e-05
2090.0 9.2144e-05
2110.0 9.2988e-05
2130.0 9.3858e-05
2150.0 9.47e-05
2170.0 9.5492e-05
2190.0 9.6346e-05
2210.0 9.7234e-05
2230.0 9.8106e-05
2250.0 9.902e-05
2270.0 0.00010005
2290.0 0.00010111
2310.0 0.00010219
2330.0 0.00010341
2350.0 0.00010475
2370.0 0.00010615
2390.0 0.00010769
2410.0 0.00010943
2430.0 0.00011128
2450.0 0.00011325
2470.0 0.00011541
2490.0 0.00011773
2510.0 0.00012017
2530.0 0.00012296
2550.0 0.0001265
2570.0 0.00013131
2590.0 0.00013814
2610.0 0.00014867
2630.0 0.00016381
2650.0 0.00018344
2670.0 0.00020824
2690.0 0.00023807
2710.0 0.00027
2730.0 0.0003024
2750.0 0.00033585
2770.0 0.00036811
2790.0 0.00039835
2810.0 0.00042809
2830.0 0.00045862
2850.0 0.00048849
2870.0 0.00051921
2890.0 0.00055201
2910.0 0.00058635
2930.0 0.0006214
2950.0 0.00065881
2970.0 0.0006984
2990.0 0.00073875
3010.0 0.0013529
3030.0 0.0014284
3050.0 0.0015042
3070.0 0.0015748
3090.0 0.0016374
3110.0 0.0016788
3130.0 0.0016826
3150.0 0.0016307
3170.0 0.0014865
3190.0 0.0012443
3210.0 0.00090621
3230.0 0.0005218
3250.0 0.00091478
3270.0 0.00039541
3290.0 0.0013245
3310.0 0.00026358
3330.0 0.0002689
3350.0 0.0004123
3370.0 0.00057559
3390.0 0.00074875
3410.0 0.00092119
3430.0 0.0011013
3450.0 0.0012808
3470.0 0.0014454
3490.0 0.0015532
3510.0 0.0019335
3530.0 0.0026482
3550.0 0.0026547
3570.0 0.0022542
3590.0 0.0032304
3610.0 0.0020823
3630.0 0.003357
3650.0 0.0038107
3670.0 0.0048986
3690.0 0.0046841
3710.0 0.0033427
3730.0 0.0044652
3750.0 0.0046431
3770.0 0.0047834
3790.0 0.0043274
3810.0 0.0038032
3830.0 0.0052585
3850.0 0.0056568
3870.0 0.0070253
3890.0 0.0066305
3910.0 0.0060198
3930.0 0.0065161
3950.0 0.0073338
3970.0 0.0095645
3990.0 0.007702
4010.0 0.0050893
4030.0 0.0068543
4050.0 0.0074969
4070.0 0.008519
4090.0 0.0074765
4110.0 0.0051129
4130.0 0.0067405
4150.0 0.006196
4170.0 0.0065659
4190.0 0.0065338
4210.0 0.0081148
4230.0 0.0056756
4250.0 0.0067818
4270.0 0.0067744
4290.0 0.0068492
4310.0 0.0083425
4330.0 0.0085555
4350.0 0.0066346
4370.0 0.0057452
4390.0 0.0069705
4410.0 0.0071006
4430.0 0.0054871
4450.0 0.0055207
4470.0 0.0063978
4490.0 0.0047745
4510.0 0.0058115
4530.0 0.0062758
4550.0 0.0083906
4570.0 0.012286
4590.0 0.011932
4610.0 0.0079842
4630.0 0.012693
4650.0 0.018163
4670.0 0.016802
4690.0 0.0099839
4710.0 0.010787
4730.0 0.013937
4750.0 0.012458
4770.0 0.0094351
4790.0 0.0065241
4810.0 0.0094166
4830.0 0.010862
4850.0 0.0097083
4870.0 0.0035203
4890.0 0.010421
4910.0 0.014449
4930.0 0.015495
4950.0 0.015284
4970.0 0.0096499
4990.0 0.011071
5010.0 0.012865
5030.0 0.013977
5050.0 0.013776
5070.0 0.0099663
5090.0 0.0081808
5110.0 0.0076517
5130.0 0.0068248
5150.0 0.0078007
5170.0 0.0068005
5190.0 0.0084216
5210.0 0.0084012
5230.0 0.0091688
5250.0 0.011596
5270.0 0.0098257
5290.0 0.0096243
5310.0 0.014007
5330.0 0.016178
5350.0 0.013653
5370.0 0.011897
5390.0 0.013431
5410.0 0.016738
5430.0 0.018371
5450.0 0.019642
5470.0 0.019744
5490.0 0.019314
5510.0 0.022475
5530.0 0.023231
5550.0 0.024769
5570.0 0.026167
5590.0 0.025859
5610.0 0.024439
5630.0 0.023522
5650.0 0.023887
5670.0 0.023566
5690.0 0.020097
5710.0 0.019209
5730.0 0.019348
5750.0 0.021003
5770.0 0.018193
5790.0 0.016628
5810.0 0.016803
5830.0 0.01758
5850.0 0.016034
5870.0 0.016068
5890.0 0.018987
5910.0 0.018052
5930.0 0.014802
5950.0 0.012831
5970.0 0.01365
5990.0 0.012544
6010.0 0.011805
6030.0 0.012084
6050.0 0.011336
6070.0 0.0085802
6090.0 0.0077179
6110.0 0.0099303
6130.0 0.01144
6150.0 0.012039
6170.0 0.011745
6190.0 0.011064
6210.0 0.010841
6230.0 0.012528
6250.0 0.01158
6270.0 0.010591
6290.0 0.0097311
6310.0 0.0092047
6330.0 0.0087588
6350.0 0.0076776
6370.0 0.0076282
6390.0 0.0090402
6410.0 0.011228
6430.0 0.012893
6450.0 0.012159
6470.0 0.01193
6490.0 0.014854
6510.0 0.016994
6530.0 0.0161
6550.0 0.015498
6570.0 0.015736
6590.0 0.015246
6610.0 0.016561
6630.0 0.015594
6650.0 0.013821
6670.0 0.012458
6690.0 0.012063
6710.0 0.014731
6730.0 0.013547
6750.0 0.011664
6770.0 0.010519
6790.0 0.011024
6810.0 0.012192
6830.0 0.011901
6850.0 0.010833
6870.0 0.011187
6890.0 0.010984
6910.0 0.01037
6930.0 0.01188
6950.0 0.011023
6970.0 0.010339
6990.0 0.010328
7010.0 0.0098855
7030.0 0.0093102
7050.0 0.0089804
7070.0 0.0097018
7090.0 0.009193
7110.0 0.0079774
7130.0 0.0064608
7150.0 0.005865
7170.0 0.007766
7190.0 0.0084629
7210.0 0.0081863
7230.0 0.0085197
7250.0 0.0079417
7270.0 0.0075654
7290.0 0.0083616
7310.0 0.0093146
7330.0 0.0091416
7350.0 0.0085824
7370.0 0.0082057
7390.0 0.0085968
7410.0 0.01002
7430.0 0.010958
7450.0 0.011669
7470.0 0.011474
7490.0 0.011782
7510.0 0.011322
7530.0 0.011354
7550.0 0.011231
7570.0 0.0099206
7590.0 0.0098477
7610.0 0.0095918
7630.0 0.0089577
7650.0 0.0098543
7670.0 0.010783
7690.0 0.011735
7710.0 0.013111
7730.0 0.014002
7750.0 0.014668
7770.0 0.014704
7790.0 0.016079
7810.0 0.016635
7830.0 0.015426
7850.0 0.015571
7870.0 0.014865
7890.0 0.015553
7910.0 0.014781
7930.0 0.014921
7950.0 0.013282
7970.0 0.013652
7990.0 0.013124
8010.0 0.013149
8030.0 0.013125
8050.0 0.013787
8070.0 0.01333
8090.0 0.013395
8110.0 0.013086
8130.0 0.013108
8150.0 0.01258
8170.0 0.01226
8190.0 0.012135
8210.0 0.012253
8230.0 0.010938
8250.0 0.01004
8270.0 0.0088276
8290.0 0.0073531
8310.0 0.0062864
8330.0 0.0050247
8350.0 0.0042398
8370.0 0.0043832
8390.0 0.0045014
8410.0 0.0047887
8430.0 0.0058438
8450.0 0.0062625
8470.0 0.0066293
8490.0 0.0076056
8510.0 0.0083097
8530.0 0.0095929
8550.0 0.011362
8570.0 0.012692
8590.0 0.013648
8610.0 0.014919
8630.0 0.01642
8650.0 0.016717
8670.0 0.016922
8690.0 0.017607
8710.0 0.017461
8730.0 0.017326
8750.0 0.016437
8770.0 0.016477
8790.0 0.01628
8810.0 0.015057
8830.0 0.015056
8850.0 0.014164
8870.0 0.013634
8890.0 0.012514
8910.0 0.013409
8930.0 0.012306
8950.0 0.012112
8970.0 0.012157
8990.0 0.011779
9010.0 0.011977
9030.0 0.0115
9050.0 0.011437
9070.0 0.011423
9090.0 0.011406
9110.0 0.011394
9130.0 0.011373
9150.0 0.011349
9170.0 0.011299
9190.0 0.011206
9210.0 0.011333
9230.0 0.011272
9250.0 0.011229
9270.0 0.011188
9290.0 0.011148
9310.0 0.01111
9330.0 0.011071
9350.0 0.011032
9370.0 0.010992
9390.0 0.010951
9410.0 0.010909
9430.0 0.010866
9450.0 0.010822
9470.0 0.010777
9490.0 0.010732
9510.0 0.010686
9530.0 0.010639
9550.0 0.010592
9570.0 0.010544
9590.0 0.010495
9610.0 0.010446
9630.0 0.010397
9650.0 0.010347
9670.0 0.010297
9690.0 0.010247
9710.0 0.010197
9730.0 0.010146
9750.0 0.010096
9770.0 0.010045
9790.0 0.0099948
9810.0 0.0099445
9830.0 0.0098944
9850.0 0.0098445
9870.0 0.0097947
9890.0 0.0097452
9910.0 0.009696
9930.0 0.0096468
9950.0 0.0095693
9970.0 0.0095298
9990.0 0.0094892
10010.0 0.0094481
10030.0 0.0094051
10050.0 0.0093589
10070.0 0.0093036
10090.0 0.0092637
10110.0 0.0092222
10130.0 0.0091808
10150.0 0.0091398
10170.0 0.009098
10190.0 0.0090552
10210.0 0.0090145
10230.0 0.0089748
10250.0 0.0089344
10270.0 0.0088949
10290.0 0.0088574
10310.0 0.0088194
10330.0 0.0087811
10350.0 0.0087452
10370.0 0.0087101
10390.0 0.0086746
10410.0 0.00864
10430.0 0.0086077
10450.0 0.0085749
10470.0 0.0085423
10490.0 0.0085116
10510.0 0.0084817
10530.0 0.0084507
10550.0 0.0084214
10570.0 0.008394
10590.0 0.0083663
10610.0 0.0083388
10630.0 0.0083133
10650.0 0.0082884
10670.0 0.0082628
10690.0 0.0082387
10710.0 0.008216
10730.0 0.0081931
10750.0 0.0081699
10770.0 0.0081493
10790.0 0.008129
10810.0 0.0081083
10830.0 0.0080886
10850.0 0.00807
10870.0 0.0080491
10890.0 0.0080263
10910.0 0.0080013
10930.0 0.0079695
10950.0 0.0079257
10970.0 0.0078687
10990.0 0.0077978
11010.0 0.0076571
11030.0 0.0075492
11050.0 0.0074247
11070.0 0.0072818
11090.0 0.0071167
11110.0 0.0069522
11130.0 0.0067869
11150.0 0.0066158
11170.0 0.0064469
11190.0 0.0062902
11210.0 0.0061349
11230.0 0.005982
11250.0 0.0058416
11270.0 0.0057112
11290.0 0.0055837
11310.0 0.005465
11330.0 0.0053619
11350.0 0.0052638
11370.0 0.0051713
11390.0 0.0050887
11410.0 0.005013
11430.0 0.0049369
11450.0 0.0048657
11470.0 0.0047987
11490.0 0.0047304
11510.0 0.0046585
11530.0 0.0045883
11550.0 0.0045162
11570.0 0.0044369
11590.0 0.0043546
11610.0 0.0042715
11630.0 0.0041807
11650.0 0.0040833
11670.0 0.0039879
11690.0 0.0038903
11710.0 0.0037875
11730.0 0.0036858
11750.0 0.0035896
11770.0 0.0034909
11790.0 0.0033938
11810.0 0.003304
11830.0 0.0032186
11850.0 0.0031329
11870.0 0.0030554
11890.0 0.0029857
11910.0 0.0029182
11930.0 0.0028545
11950.0 0.0027978
11970.0 0.0027442
11990.0 0.002691
12010.0 0.0026425
12030.0 0.0025978
12050.0 0.0025535
12070.0 0.0025099
12090.0 0.0024718
12110.0 0.0024348
12130.0 0.0023987
12150.0 0.0023664
12170.0 0.0023384
12190.0 0.0023117
12210.0 0.0022901
12230.0 0.0022749
12250.0 0.0022653
12270.0 0.0022621
12290.0 0.0022669
12310.0 0.0022797
12330.0 0.0023007
12350.0 0.0023304
12370.0 0.0023674
12390.0 0.002412
12410.0 0.0024654
12430.0 0.0025224
12450.0 0.002583
12470.0 0.002648
12490.0 0.0027144
12510.0 0.0027785
12530.0 0.0028429
12550.0 0.002906
12570.0 0.0029642
12590.0 0.0030181
12610.0 0.0030688
12630.0 0.0031142
12650.0 0.0031532
12670.0 0.0031878
12690.0 0.0032176
12710.0 0.0032421
12730.0 0.0032622
12750.0 0.0032777
12770.0 0.0032888
12790.0 0.0032961
12810.0 0.0032994
12830.0 0.0032983
12850.0 0.0032943
12870.0 0.0032871
12890.0 0.0032754
12910.0 0.0032605
12930.0 0.0032434
12950.0 0.0032215
12970.0 0.0031954
12990.0 0.0031679
13010.0 0.0031372
13030.0 0.0031019
13050.0 0.0030645
13070.0 0.0030265
13090.0 0.0029843
13110.0 0.00294
13130.0 0.0028967
13150.0 0.0028531
13170.0 0.0028075
13190.0 0.0027656
13210.0 0.0027279
13230.0 0.0026921
13250.0 0.0026607
13270.0 0.0026359
13290.0 0.0026162
13310.0 0.0026014
13330.0 0.0025933
13350.0 0.0025906
13370.0 0.0025923
13390.0 0.0025977
13410.0 0.0026054
13430.0 0.002614
13450.0 0.0026222
13470.0 0.0026283
13490.0 0.0026316
13510.0 0.0026304
13530.0 0.0026241
13550.0 0.0026131
13570.0 0.0025968
13590.0 0.0025747
13610.0 0.0025491
13630.0 0.0025209
13650.0 0.0024886
13670.0 0.0024548
13690.0 0.0024216
13710.0 0.0023879
13730.0 0.0023532
13750.0 0.0023219
13770.0 0.0022924
13790.0 0.0022637
13810.0 0.0022369
13830.0 0.0022129
13850.0 0.0021894
13870.0 0.0021667
13890.0 0.0021456
13910.0 0.0021254
13930.0 0.0021048
13950.0 0.0020847
13970.0 0.0020659
13990.0 0.0020469
14010.0 0.0020281
14030.0 0.0020105
14050.0 0.0019938
14070.0 0.0019774
14090.0 0.0019626
14110.0 0.0019495
14130.0 0.0019377
14150.0 0.0019273
14170.0 0.001919
14190.0 0.0019124
14210.0 0.0019074
14230.0 0.0019041
14250.0 0.0019025
14270.0 0.0019027
14290.0 0.0019048
14310.0 0.0019081
14330.0 0.0019128
14350.0 0.0019191
14370.0 0.0019263
14390.0 0.0019338
14410.0 0.0019424
14430.0 0.0019512
14450.0 0.0019593
14470.0 0.0019671
14490.0 0.0019748
14510.0 0.0019812
14530.0 0.0019863
14550.0 0.001991
14570.0 0.0019951
14590.0 0.0019983
14610.0 0.0020015
14630.0 0.0020056
14650.0 0.0020101
14670.0 0.0020156
14690.0 0.0020234
14710.0 0.0020337
14730.0 0.0020455
14750.0 0.0020606
14770.0 0.0020794
14790.0 0.0021007
14810.0 0.0021242
14830.0 0.0021529
14850.0 0.0021839
14870.0 0.0022153
14890.0 0.0022487
14910.0 0.0022834
14930.0 0.0023152
14950.0 0.0023432
14970.0 0.0023684
14990.0 0.0023871
15010.0 0.0023984
15030.0 0.0024036
15050.0 0.0024031
15070.0 0.002397
15090.0 0.0023874
15110.0 0.0023754
15130.0 0.0023619
15150.0 0.0023477
15170.0 0.002333
15190.0 0.002318
15210.0 0.002303
15230.0 0.0022881
15250.0 0.002273
15270.0 0.0022579
15290.0 0.002243
15310.0 0.002228
15330.0 0.002213
15350.0 0.0021981
15370.0 0.0021833
15390.0 0.0021683
15410.0 0.0021535
15430.0 0.0021387
15450.0 0.0021239
15470.0 0.0021091
15490.0 0.0020945
15510.0 0.00208
15530.0 0.0020653
15550.0 0.0020508
15570.0 0.0020364
15590.0 0.002022
15610.0 0.0020075
15630.0 0.0019933
15650.0 0.0019792
15670.0 0.0019649
15690.0 0.0019509
15710.0 0.001937
15730.0 0.001923
15750.0 0.0019091
15770.0 0.0018954
15790.0 0.0018817
15810.0 0.001868
15830.0 0.0018545
15850.0 0.0018411
15870.0 0.0018277
15890.0 0.0018144
15910.0 0.0018013
15930.0 0.0017882
15950.0 0.0017751
15970.0 0.0017622
15990.0 0.0017495
16010.0 0.0017367
16030.0 0.001724
16050.0 0.0017115
16070.0 0.0016991
16090.0 0.0016867
16110.0 0.0016745
16130.0 0.0016624
16150.0 0.0016503
16170.0 0.0016383
16190.0 0.0016265
16210.0 0.0016147
16230.0 0.001603
16250.0 0.0015915
16270.0 0.0015801
16290.0 0.0015687
16310.0 0.0015574
16330.0 0.0015463
16350.0 0.0015352
16370.0 0.0015242
16390.0 0.0015134
16410.0 0.0015027
16430.0 0.001492
16450.0 0.0014814
16470.0 0.001471
16490.0 0.0014607
16510.0 0.0014503
16530.0 0.0014402
16550.0 0.0014302
16570.0 0.0014202
16590.0 0.0014103
16610.0 0.0014006
16630.0 0.001391
16650.0 0.0013814
16670.0 0.001372
16690.0 0.0013626
16710.0 0.0013533
16730.0 0.0013441
16750.0 0.0013351
16770.0 0.0013261
16790.0 0.0013171
16810.0 0.0013084
16830.0 0.0012997
16850.0 0.0012911
16870.0 0.0012826
16890.0 0.0012742
16910.0 0.0012658
16930.0 0.0012575
16950.0 0.0012494
16970.0 0.0012414
16990.0 0.0012333
17010.0 0.0012255
17030.0 0.0012177
17050.0 0.00121
17070.0 0.0012023
17090.0 0.0011948
17110.0 0.0011874
17130.0 0.0011799
17150.0 0.0011726
17170.0 0.0011655
17190.0 0.0011583
17210.0 0.0011513
17230.0 0.0011444
17250.0 0.0011375
17270.0 0.0011306
17290.0 0.0011239
17310.0 0.0011173
17330.0 0.0011106
17350.0 0.0011041
17370.0 0.0010977
17390.0 0.0010914
17410.0 0.001085
17430.0 0.0010789
17450.0 0.0010728
17470.0 0.0010666
17490.0 0.0010606
17510.0 0.0010547
17530.0 0.0010489
17550.0 0.001043
17570.0 0.0010373
17590.0 0.0010317
17610.0 0.0010261
17630.0 0.0010205
17650.0 0.0010151
17670.0 0.0010097
17690.0 0.0010043
17710.0 0.00099905
17730.0 0.00099387
17750.0 0.00098868
17770.0 0.00098358
17790.0 0.00097862
17810.0 0.00097361
17830.0 0.00096864
17850.0 0.00096382
17870.0 0.00095904
17890.0 0.00095423
17910.0 0.00094951
17930.0 0.00094495
17950.0 0.00094035
17970.0 0.00093578
17990.0 0.00093135
18010.0 0.00092696
18030.0 0.00092249
18050.0 0.00091817
18070.0 0.00091394
18090.0 0.00090969
18110.0 0.00090546
18130.0 0.00090139
18150.0 0.00089733
18170.0 0.00089325
18190.0 0.00088927
18210.0 0.00088538
18230.0 0.00088144
18250.0 0.00087752
18270.0 0.00087376
18290.0 0.00087001
18310.0 0.00086624
18330.0 0.00086257
18350.0 0.000859
18370.0 0.00085535
18390.0 0.00085176
18410.0 0.00084829
18430.0 0.00084482
18450.0 0.00084129
18470.0 0.00083791
18490.0 0.0008346
18510.0 0.00083124
18530.0 0.00082793
18550.0 0.00082474
18570.0 0.00082152
18590.0 0.00081827
18610.0 0.00081514
18630.0 0.00081206
18650.0 0.00080894
18670.0 0.00080585
18690.0 0.0008029
18710.0 0.00079992
18730.0 0.00079693
18750.0 0.00079404
18770.0 0.0007912
18790.0 0.00078826
18810.0 0.00078541
18830.0 0.00078266
18850.0 0.00077989
18870.0 0.0007771
18890.0 0.00077443
18910.0 0.00077179
18930.0 0.00076908
18950.0 0.00076644
18970.0 0.00076388
18990.0 0.0007613
19010.0 0.00075865
19030.0 0.00075618
19050.0 0.00075371
19070.0 0.00075119
19090.0 0.00074873
19110.0 0.00074638
19130.0 0.00074394
19150.0 0.00074151
19170.0 0.00073918
19190.0 0.00073686
19210.0 0.00073449
19230.0 0.00073218
19250.0 0.00072997
19270.0 0.0007277
19290.0 0.00072544
19310.0 0.00072327
19330.0 0.00072111
19350.0 0.00071885
19370.0 0.0007167
19390.0 0.00071461
19410.0 0.00071247
19430.0 0.00071032
19450.0 0.0007083
19470.0 0.00070625
19490.0 0.00070416
19510.0 0.00070214
19530.0 0.00070018
19550.0 0.00069813
19570.0 0.00069609
19590.0 0.00069418
19610.0 0.00069224
19630.0 0.00069026
19650.0 0.00068836
19670.0 0.00068651
19690.0 0.00068457
19710.0 0.00068266
19730.0 0.00068084
19750.0 0.00067899
19770.0 0.00067708
19790.0 0.00067527
19810.0 0.0006735
19830.0 0.00067165
19850.0 0.0006698
19870.0 0.00066798
19890.0 0.00066598
19910.0 0.0006637
19930.0 0.00066116
19950.0 0.00065809
19970.0 0.0006541
19990.0 0.00064908
20010.0 0.00064322
20030.0 0.00063596
20050.0 0.00062736
20070.0 0.00061802
20090.0 0.00060799
20110.0 0.00059667
20130.0 0.00058531
20150.0 0.00057415
20170.0 0.00056266
20190.0 0.00055108
20210.0 0.00054024
20230.0 0.00052972
20250.0 0.00051922
20270.0 0.00050953
20290.0 0.00050075
20310.0 0.00049246
20330.0 0.0004848
20350.0 0.00047859
20370.0 0.00047324
20390.0 0.00046877
20410.0 0.00046549
20430.0 0.00046335
20450.0 0.00046218
20470.0 0.00046215
20490.0 0.00046317
20510.0 0.00046516
20530.0 0.00046819
20550.0 0.00047203
20570.0 0.00047646
20590.0 0.00048171
20610.0 0.00048751
20630.0 0.00049351
20650.0 0.00049983
20670.0 0.00050661
20690.0 0.00051309
20710.0 0.00051935
20730.0 0.00052553
20750.0 0.00053136
20770.0 0.00053649
20790.0 0.0005412
20810.0 0.0005454
20830.0 0.00054885
20850.0 0.00055161
20870.0 0.00055379
20890.0 0.00055527
20910.0 0.00055608
20930.0 0.00055632
20950.0 0.00055598
20970.0 0.00055516
20990.0 0.00055392
21010.0 0.00055216
21030.0 0.00055005
21050.0 0.0005477
21070.0 0.00054502
21090.0 0.00054197
21110.0 0.00053889
21130.0 0.0005357
21150.0 0.00053229
21170.0 0.00052886
21190.0 0.00052557
21210.0 0.00052221
21230.0 0.0005189
21250.0 0.00051591
21270.0 0.00051317
21290.0 0.00051061
21310.0 0.00050843
21330.0 0.00050671
21350.0 0.00050533
21370.0 0.00050438
21390.0 0.00050392
21410.0 0.00050392
21430.0 0.00050439
21450.0 0.00050535
21470.0 0.00050671
21490.0 0.00050853
21510.0 0.00051079
21530.0 0.00051332
21550.0 0.00051619
21570.0 0.00051947
21590.0 0.00052295
21610.0 0.00052659
21630.0 0.00053053
21650.0 0.00053477
21670.0 0.00053891
21690.0 0.00054324
21710.0 0.00054783
21730.0 0.00055244
21750.0 0.00055703
21770.0 0.00056197
21790.0 0.000567
21810.0 0.00057195
21830.0 0.00057704
21850.0 0.0005824
21870.0 0.00058771
21890.0 0.00059292
21910.0 0.00059839
21930.0 0.0006039
21950.0 0.00060923
21970.0 0.00061461
21990.0 0.00062016
22010.0 0.00062534
22030.0 0.0006303
22050.0 0.00063519
22070.0 0.00063978
22090.0 0.00064385
22110.0 0.00064762
22130.0 0.00065098
22150.0 0.00065371
22170.0 0.00065583
22190.0 0.00065737
22210.0 0.00065816
22230.0 0.00065819
22250.0 0.00065747
22270.0 0.00065591
22290.0 0.0006536
22310.0 0.00065055
22330.0 0.00064651
22350.0 0.00064174
22370.0 0.0006364
22390.0 0.00063023
22410.0 0.00062317
22430.0 0.00061588
22450.0 0.00060814
22470.0 0.00059965
22490.0 0.0005909
22510.0 0.00058218
22530.0 0.00057289
22550.0 0.00056331
22570.0 0.00055411
22590.0 0.00054496
22610.0 0.0005356
22630.0 0.00052655
22650.0 0.00051812
22670.0 0.00050965
22690.0 0.00050142
22710.0 0.00049384
22730.0 0.00048664
22750.0 0.00047944
22770.0 0.00047295
22790.0 0.00046703
22810.0 0.00046133
22830.0 0.00045598
22850.0 0.00045124
22870.0 0.00044679
22890.0 0.00044254
22910.0 0.00043876
22930.0 0.00043538
22950.0 0.00043222
22970.0 0.00042931
22990.0 0.00042691
23010.0 0.00042475
23030.0 0.00042284
23050.0 0.00042127
23070.0 0.00042003
23090.0 0.00041899
23110.0 0.00041824
23130.0 0.00041778
23150.0 0.00041753
23170.0 0.0004175
23190.0 0.00041767
23210.0 0.00041799
23230.0 0.00041847
23250.0 0.00041908
23270.0 0.00041977
23290.0 0.00042056
23310.0 0.00042147
23330.0 0.0004224
23350.0 0.00042338
23370.0 0.00042445
23390.0 0.00042554
23410.0 0.00042661
23430.0 0.00042772
23450.0 0.00042885
23470.0 0.00042991
23490.0 0.00043091
23510.0 0.00043188
23530.0 0.00043276
23550.0 0.0004335
23570.0 0.00043415
23590.0 0.0004347
