#lamb flux
1010.0 8.8039e-06
1030.0 9.3729e-06
1050.0 1.003e-05
1070.0 1.0771e-05
1090.0 1.1613e-05
1110.0 1.2479e-05
1130.0 1.3353e-05
1150.0 1.427e-05
1170.0 1.522e-05
1190.0 1.6124e-05
1210.0 1.7043e-05
1230.0 1.7997e-05
1250.0 1.8936e-05
1270.0 1.9853e-05
1290.0 2.0825e-05
1310.0 2.1801e-05
1330.0 2.2744e-05
1350.0 2.3702e-05
1370.0 2.4696e-05
1390.0 2.5672e-05
1410.0 2.6627e-05
1430.0 2.7628e-05
1450.0 2.8636e-05
1470.0 2.9618e-05
1490.0 3.0616e-05
1510.0 3.1673e-05
1530.0 3.2683e-05
1550.0 3.3684e-05
1570.0 3.4723e-05
1590.0 3.5765e-05
1610.0 3.6767e-05
1630.0 3.7799e-05
1650.0 3.8857e-05
1670.0 3.9882e-05
1690.0 4.0892e-05
1710.0 4.1934e-05
1730.0 4.2977e-05
1750.0 4.3954e-05
1770.0 4.4949e-05
1790.0 4.5954e-05
1810.0 4.6915e-05
1830.0 4.7845e-05
1850.0 4.8818e-05
1870.0 4.9747e-05
1890.0 5.0626e-05
1910.0 5.1503e-05
1930.0 5.2382e-05
1950.0 5.3195e-05
1970.0 5.3975e-05
1990.0 5.4766e-05
2010.0 5.5518e-05
2030.0 5.6214e-05
2050.0 5.6914e-05
2070.0 5.7616e-05
2090.0 5.8242e-05
2110.0 5.8847e-05
2130.0 5.9459e-05
2150.0 6.0038e-05
2170.0 6.0564e-05
2190.0 6.111e-05
2210.0 6.1651e-05
2230.0 6.215e-05
2250.0 6.2641e-05
2270.0 6.3168e-05
2290.0 6.3668e-05
2310.0 6.4137e-05
2330.0 6.464e-05
2350.0 6.5158e-05
2370.0 6.5655e-05
2390.0 6.6174e-05
2410.0 6.675e-05
2430.0 6.7321e-05
2450.0 6.79e-05
2470.0 6.8542e-05
2490.0 6.927e-05
2510.0 7.01e-05
2530.0 7.1269e-05
2550.0 7.3168e-05
2570.0 7.6227e-05
2590.0 8.0967e-05
2610.0 8.8686e-05
2630.0 9.9805e-05
2650.0 0.00011384
2670.0 0.00013103
2690.0 0.00015088
2710.0 0.00017086
2730.0 0.00018973
2750.0 0.00020778
2770.0 0.00022354
2790.0 0.00023675
2810.0 0.00024856
2830.0 0.00025985
2850.0 0.00027016
2870.0 0.00028041
2890.0 0.00029128
2910.0 0.00030255
2930.0 0.00031387
2950.0 0.00032601
2970.0 0.00033886
2990.0 0.00035182
3010.0 0.0012449
3030.0 0.0012924
3050.0 0.0013397
3070.0 0.0013824
3090.0 0.0014185
3110.0 0.0014382
3130.0 0.0014297
3150.0 0.0013803
3170.0 0.0012645
3190.0 0.0010802
3210.0 0.00083069
3230.0 0.00055072
3250.0 0.00084428
3270.0 0.00052799
3290.0 0.0012154
3310.0 0.00047911
3330.0 0.00047429
3350.0 0.00056803
3370.0 0.00068016
3390.0 0.00080276
3410.0 0.00092561
3430.0 0.0010551
3450.0 0.0011858
3470.0 0.0013063
3490.0 0.0013907
3510.0 0.00167
3530.0 0.0021625
3550.0 0.0021066
3570.0 0.0017371
3590.0 0.0023513
3610.0 0.0015218
3630.0 0.0024781
3650.0 0.0028865
3670.0 0.0036704
3690.0 0.0034079
3710.0 0.002282
3730.0 0.0029451
3750.0 0.0030157
3770.0 0.0032366
3790.0 0.0031407
3810.0 0.0032332
3830.0 0.0050816
3850.0 0.0062376
3870.0 0.007692
3890.0 0.0074753
3910.0 0.0066811
3930.0 0.0067672
3950.0 0.0073096
3970.0 0.0080597
3990.0 0.0051679
4010.0 0.0027974
4030.0 0.0049746
4050.0 0.0065801
4070.0 0.0070393
4090.0 0.0049237
4110.0 0.0031166
4130.0 0.0051257
4150.0 0.0052331
4170.0 0.0048711
4190.0 0.00442
4210.0 0.0062561
4230.0 0.004609
4250.0 0.0049936
4270.0 0.004961
4290.0 0.0047002
4310.0 0.0060252
4330.0 0.0065107
4350.0 0.0054246
4370.0 0.0045794
4390.0 0.0055812
4410.0 0.0057161
4430.0 0.0042028
4450.0 0.0038135
4470.0 0.0047129
4490.0 0.0036058
4510.0 0.0050331
4530.0 0.0052309
4550.0 0.0062077
4570.0 0.0087515
4590.0 0.0086547
4610.0 0.0068621
4630.0 0.010951
4650.0 0.014594
4670.0 0.013918
4690.0 0.0098419
4710.0 0.010437
4730.0 0.011822
4750.0 0.0097388
4770.0 0.0074451
4790.0 0.0050247
4810.0 0.0068585
4830.0 0.0080776
4850.0 0.0071001
4870.0 0.0029848
4890.0 0.0080569
4910.0 0.010563
4930.0 0.011481
4950.0 0.01183
4970.0 0.0083097
4990.0 0.0096702
5010.0 0.011232
5030.0 0.012039
5050.0 0.011239
5070.0 0.0079477
5090.0 0.0064483
5110.0 0.0062337
5130.0 0.0059229
5150.0 0.0061694
5170.0 0.0055051
5190.0 0.0065634
5210.0 0.0066652
5230.0 0.0073845
5250.0 0.0087703
5270.0 0.007273
5290.0 0.0075652
5310.0 0.011122
5330.0 0.012788
5350.0 0.010735
5370.0 0.0096541
5390.0 0.011204
5410.0 0.013372
5430.0 0.014249
5450.0 0.014991
5470.0 0.015095
5490.0 0.015549
5510.0 0.018615
5530.0 0.019341
5550.0 0.020426
5570.0 0.021451
5590.0 0.021087
5610.0 0.019747
5630.0 0.019282
5650.0 0.019946
5670.0 0.019492
5690.0 0.016692
5710.0 0.016514
5730.0 0.016543
5750.0 0.017206
5770.0 0.014822
5790.0 0.014142
5810.0 0.014492
5830.0 0.015643
5850.0 0.014568
5870.0 0.014641
5890.0 0.017078
5910.0 0.015936
5930.0 0.013164
5950.0 0.011894
5970.0 0.012965
5990.0 0.011775
6010.0 0.010765
6030.0 0.010557
6050.0 0.009669
6070.0 0.007492
6090.0 0.007125
6110.0 0.0091407
6130.0 0.010258
6150.0 0.010595
6170.0 0.010304
6190.0 0.0098277
6210.0 0.010247
6230.0 0.012435
6250.0 0.01149
6270.0 0.010331
6290.0 0.0093908
6310.0 0.0085057
6330.0 0.0078903
6350.0 0.0070521
6370.0 0.0071477
6390.0 0.0083172
6410.0 0.010327
6430.0 0.012207
6450.0 0.012254
6470.0 0.012391
6490.0 0.015133
6510.0 0.017373
6530.0 0.016509
6550.0 0.015665
6570.0 0.015891
6590.0 0.015662
6610.0 0.016577
6630.0 0.015458
6650.0 0.013431
6670.0 0.012389
6690.0 0.012282
6710.0 0.014538
6730.0 0.012945
6750.0 0.010647
6770.0 0.0096114
6790.0 0.010211
6810.0 0.011727
6830.0 0.011672
6850.0 0.010468
6870.0 0.010842
6890.0 0.010775
6910.0 0.010127
6930.0 0.011243
6950.0 0.010459
6970.0 0.009743
6990.0 0.0097124
7010.0 0.0097837
7030.0 0.0095033
7050.0 0.0090996
7070.0 0.0097598
7090.0 0.0090902
7110.0 0.0077074
7130.0 0.0066201
7150.0 0.0065011
7170.0 0.0082084
7190.0 0.0087024
7210.0 0.0082514
7230.0 0.008678
7250.0 0.0084286
7270.0 0.0082217
7290.0 0.0089066
7310.0 0.0097633
7330.0 0.0095125
7350.0 0.0088253
7370.0 0.0081641
7390.0 0.0081885
7410.0 0.0094084
7430.0 0.010593
7450.0 0.011279
7470.0 0.01144
7490.0 0.012726
7510.0 0.012576
7530.0 0.011389
7550.0 0.010783
7570.0 0.0093202
7590.0 0.0088747
7610.0 0.0085734
7630.0 0.0078988
7650.0 0.0084868
7670.0 0.0094035
7690.0 0.010239
7710.0 0.011685
7730.0 0.012258
7750.0 0.012737
7770.0 0.013242
7790.0 0.014366
7810.0 0.014474
7830.0 0.012991
7850.0 0.013046
7870.0 0.012563
7890.0 0.012865
7910.0 0.012118
7930.0 0.012032
7950.0 0.010105
7970.0 0.010139
7990.0 0.0097991
8010.0 0.010647
8030.0 0.010603
8050.0 0.011263
8070.0 0.010805
8090.0 0.010849
8110.0 0.01068
8130.0 0.010556
8150.0 0.00991
8170.0 0.0097196
8190.0 0.0096914
8210.0 0.0097827
8230.0 0.0085542
8250.0 0.0078184
8270.0 0.0069075
8290.0 0.005871
8310.0 0.00517
8330.0 0.0040938
8350.0 0.0033133
8370.0 0.0031979
8390.0 0.0030992
8410.0 0.0032423
8430.0 0.004169
8450.0 0.0045386
8470.0 0.0048831
8490.0 0.0057123
8510.0 0.006214
8530.0 0.0070634
8550.0 0.0083523
8570.0 0.0091711
8590.0 0.0096418
8610.0 0.010705
8630.0 0.012173
8650.0 0.012483
8670.0 0.012739
8690.0 0.013213
8710.0 0.012952
8730.0 0.012538
8750.0 0.011548
8770.0 0.011547
8790.0 0.011379
8810.0 0.01046
8830.0 0.010468
8850.0 0.0095828
8870.0 0.0091334
8890.0 0.0081791
8910.0 0.0091133
8930.0 0.0082398
8950.0 0.0082576
8970.0 0.0084285
8990.0 0.0081819
9010.0 0.0084012
9030.0 0.0079751
9050.0 0.0079365
9070.0 0.0079399
9090.0 0.0079418
9110.0 0.007949
9130.0 0.0079485
9150.0 0.007944
9170.0 0.0079179
9190.0 0.00786
9210.0 0.0079843
9230.0 0.0079491
9250.0 0.0079288
9270.0 0.0079117
9290.0 0.0078964
9310.0 0.0078822
9330.0 0.0078683
9350.0 0.0078545
9370.0 0.0078403
9390.0 0.0078253
9410.0 0.0078098
9430.0 0.0077939
9450.0 0.0077771
9470.0 0.0077597
9490.0 0.0077421
9510.0 0.0077239
9530.0 0.0077051
9550.0 0.0076864
9570.0 0.0076673
9590.0 0.0076478
9610.0 0.0076281
9630.0 0.0076085
9650.0 0.0075887
9670.0 0.0075684
9690.0 0.0075484
9710.0 0.0075286
9730.0 0.0075084
9750.0 0.0074884
9770.0 0.0074692
9790.0 0.0074496
9810.0 0.0074299
9830.0 0.0074109
9850.0 0.0073921
9870.0 0.0073731
9890.0 0.0073546
9910.0 0.0073369
9930.0 0.007319
9950.0 0.0072899
9970.0 0.0072766
9990.0 0.0072633
10010.0 0.0072491
10030.0 0.0072347
10050.0 0.0072178
10070.0 0.007187
10090.0 0.0071785
10110.0 0.0071697
10130.0 0.0071599
10150.0 0.0071496
10170.0 0.0071386
10190.0 0.0071271
10210.0 0.0071163
10230.0 0.007106
10250.0 0.0070956
10270.0 0.0070858
10290.0 0.0070769
10310.0 0.0070682
10330.0 0.0070595
10350.0 0.007052
10370.0 0.0070451
10390.0 0.0070382
10410.0 0.0070319
10430.0 0.0070267
10450.0 0.0070215
10470.0 0.0070167
10490.0 0.0070127
10510.0 0.0070092
10530.0 0.0070056
10550.0 0.0070027
10570.0 0.0070007
10590.0 0.0069989
10610.0 0.0069973
10630.0 0.0069965
10650.0 0.0069961
10670.0 0.0069958
10690.0 0.0069961
10710.0 0.006997
10730.0 0.006998
10750.0 0.0069992
10770.0 0.0070013
10790.0 0.0070036
10810.0 0.0070059
10830.0 0.0070085
10850.0 0.0070111
10870.0 0.0070121
10890.0 0.0070106
10910.0 0.0070047
10930.0 0.0069906
10950.0 0.0069626
10970.0 0.0069177
10990.0 0.0068543
11010.0 0.006973
11030.0 0.0068514
11050.0 0.0067085
11070.0 0.006543
11090.0 0.0063511
11110.0 0.0061597
11130.0 0.0059682
11150.0 0.0057721
11170.0 0.0055816
11190.0 0.0054081
11210.0 0.0052408
11230.0 0.0050816
11250.0 0.0049407
11270.0 0.0048149
11290.0 0.0046973
11310.0 0.0045925
11330.0 0.0045043
11350.0 0.0044227
11370.0 0.0043468
11390.0 0.0042786
11410.0 0.0042144
11430.0 0.0041477
11450.0 0.0040816
11470.0 0.0040157
11490.0 0.0039453
11510.0 0.0038688
11530.0 0.0037918
11550.0 0.0037119
11570.0 0.0036253
11590.0 0.0035366
11610.0 0.003449
11630.0 0.0033567
11650.0 0.0032614
11670.0 0.0031709
11690.0 0.0030814
11710.0 0.0029905
11730.0 0.0029029
11750.0 0.0028215
11770.0 0.0027399
11790.0 0.0026605
11810.0 0.0025872
11830.0 0.0025172
11850.0 0.0024467
11870.0 0.0023815
11890.0 0.0023212
11910.0 0.0022614
11930.0 0.002203
11950.0 0.0021489
11970.0 0.0020958
11990.0 0.0020418
12010.0 0.0019906
12030.0 0.001942
12050.0 0.0018931
12070.0 0.0018448
12090.0 0.0018016
12110.0 0.00176
12130.0 0.0017201
12150.0 0.0016848
12170.0 0.0016547
12190.0 0.0016275
12210.0 0.0016065
12230.0 0.0015927
12250.0 0.0015854
12270.0 0.0015854
12290.0 0.0015934
12310.0 0.0016085
12330.0 0.0016317
12350.0 0.0016623
12370.0 0.0016982
12390.0 0.0017398
12410.0 0.0017881
12430.0 0.001837
12450.0 0.001887
12470.0 0.0019388
12490.0 0.0019894
12510.0 0.002036
12530.0 0.0020809
12550.0 0.0021228
12570.0 0.0021591
12590.0 0.0021906
12610.0 0.0022183
12630.0 0.0022408
12650.0 0.0022578
12670.0 0.002271
12690.0 0.00228
12710.0 0.0022851
12730.0 0.002287
12750.0 0.0022855
12770.0 0.0022811
12790.0 0.0022744
12810.0 0.002265
12830.0 0.0022526
12850.0 0.0022387
12870.0 0.0022227
12890.0 0.0022032
12910.0 0.0021815
12930.0 0.002158
12950.0 0.0021307
12970.0 0.0020997
12990.0 0.0020676
13010.0 0.002033
13030.0 0.0019946
13050.0 0.0019549
13070.0 0.0019154
13090.0 0.0018732
13110.0 0.0018303
13130.0 0.0017896
13150.0 0.00175
13170.0 0.0017104
13190.0 0.0016752
13210.0 0.0016445
13230.0 0.0016167
13250.0 0.0015933
13270.0 0.0015755
13290.0 0.001562
13310.0 0.0015525
13330.0 0.0015476
13350.0 0.0015463
13370.0 0.0015477
13390.0 0.0015511
13410.0 0.0015554
13430.0 0.0015597
13450.0 0.0015633
13470.0 0.0015653
13490.0 0.0015652
13510.0 0.0015624
13530.0 0.0015567
13550.0 0.0015487
13570.0 0.0015381
13590.0 0.001525
13610.0 0.0015108
13630.0 0.001496
13650.0 0.00148
13670.0 0.0014641
13690.0 0.0014493
13710.0 0.0014349
13730.0 0.0014209
13750.0 0.0014087
13770.0 0.0013977
13790.0 0.0013871
13810.0 0.0013773
13830.0 0.0013683
13850.0 0.001359
13870.0 0.0013495
13890.0 0.0013399
13910.0 0.0013299
13930.0 0.0013188
13950.0 0.0013071
13970.0 0.0012956
13990.0 0.0012833
14010.0 0.0012708
14030.0 0.0012588
14050.0 0.0012472
14070.0 0.0012358
14090.0 0.0012257
14110.0 0.0012168
14130.0 0.001209
14150.0 0.0012024
14170.0 0.0011973
14190.0 0.0011934
14210.0 0.0011908
14230.0 0.0011895
14250.0 0.0011893
14270.0 0.0011905
14290.0 0.0011931
14310.0 0.0011966
14330.0 0.0012012
14350.0 0.0012072
14370.0 0.0012141
14390.0 0.0012214
14410.0 0.0012297
14430.0 0.0012387
14450.0 0.0012475
14470.0 0.0012565
14490.0 0.001266
14510.0 0.0012749
14530.0 0.0012834
14550.0 0.0012922
14570.0 0.0013013
14590.0 0.0013102
14610.0 0.0013199
14630.0 0.0013311
14650.0 0.0013432
14670.0 0.0013565
14690.0 0.0013722
14710.0 0.0013904
14730.0 0.0014095
14750.0 0.0014312
14770.0 0.0014557
14790.0 0.0014815
14810.0 0.0015081
14830.0 0.001538
14850.0 0.0015682
14870.0 0.0015972
14890.0 0.0016263
14910.0 0.0016547
14930.0 0.0016797
14950.0 0.0017008
14970.0 0.001719
14990.0 0.0017321
15010.0 0.00174
15030.0 0.0017435
15050.0 0.0017432
15070.0 0.0017394
15090.0 0.0017334
15110.0 0.001726
15130.0 0.0017176
15150.0 0.0017089
15170.0 0.0016998
15190.0 0.0016906
15210.0 0.0016814
15230.0 0.0016723
15250.0 0.001663
15270.0 0.0016538
15290.0 0.0016448
15310.0 0.0016357
15330.0 0.0016266
15350.0 0.0016176
15370.0 0.0016086
15390.0 0.0015995
15410.0 0.0015905
15430.0 0.0015816
15450.0 0.0015727
15470.0 0.0015637
15490.0 0.001555
15510.0 0.0015462
15530.0 0.0015374
15550.0 0.0015287
15570.0 0.0015201
15590.0 0.0015114
15610.0 0.0015026
15630.0 0.0014941
15650.0 0.0014857
15670.0 0.0014771
15690.0 0.0014687
15710.0 0.0014604
15730.0 0.001452
15750.0 0.0014436
15770.0 0.0014354
15790.0 0.0014272
15810.0 0.0014189
15830.0 0.0014108
15850.0 0.0014028
15870.0 0.0013947
15890.0 0.0013867
15910.0 0.0013789
15930.0 0.001371
15950.0 0.001363
15970.0 0.0013553
15990.0 0.0013476
16010.0 0.0013398
16030.0 0.0013321
16050.0 0.0013246
16070.0 0.0013171
16090.0 0.0013095
16110.0 0.0013021
16130.0 0.0012948
16150.0 0.0012873
16170.0 0.00128
16190.0 0.0012728
16210.0 0.0012656
16230.0 0.0012584
16250.0 0.0012513
16270.0 0.0012444
16290.0 0.0012373
16310.0 0.0012303
16330.0 0.0012235
16350.0 0.0012166
16370.0 0.0012096
16390.0 0.0012029
16410.0 0.0011963
16430.0 0.0011895
16450.0 0.0011829
16470.0 0.0011764
16490.0 0.0011698
16510.0 0.0011633
16530.0 0.0011568
16550.0 0.0011505
16570.0 0.001144
16590.0 0.0011377
16610.0 0.0011315
16630.0 0.0011253
16650.0 0.001119
16670.0 0.0011129
16690.0 0.0011069
16710.0 0.0011007
16730.0 0.0010947
16750.0 0.0010888
16770.0 0.0010828
16790.0 0.0010768
16810.0 0.001071
16830.0 0.0010653
16850.0 0.0010594
16870.0 0.0010537
16890.0 0.001048
16910.0 0.0010423
16930.0 0.0010366
16950.0 0.001031
16970.0 0.0010255
16990.0 0.0010199
17010.0 0.0010144
17030.0 0.0010091
17050.0 0.0010036
17070.0 0.00099816
17090.0 0.00099287
17110.0 0.00098757
17130.0 0.00098216
17150.0 0.00097692
17170.0 0.00097178
17190.0 0.00096655
17210.0 0.00096135
17230.0 0.00095631
17250.0 0.00095122
17270.0 0.00094605
17290.0 0.00094103
17310.0 0.00093608
17330.0 0.00093104
17350.0 0.00092601
17370.0 0.0009212
17390.0 0.00091631
17410.0 0.00091138
17430.0 0.00090658
17450.0 0.00090185
17470.0 0.00089695
17490.0 0.00089215
17510.0 0.00088749
17530.0 0.00088278
17550.0 0.00087802
17570.0 0.00087341
17590.0 0.00086886
17610.0 0.00086418
17630.0 0.00085958
17650.0 0.0008551
17670.0 0.00085055
17690.0 0.0008459
17710.0 0.00084148
17730.0 0.00083707
17750.0 0.00083257
17770.0 0.00082814
17790.0 0.00082386
17810.0 0.00081944
17830.0 0.00081502
17850.0 0.00081073
17870.0 0.00080646
17890.0 0.00080209
17910.0 0.00079778
17930.0 0.00079364
17950.0 0.0007894
17970.0 0.00078515
17990.0 0.00078103
18010.0 0.00077692
18030.0 0.00077265
18050.0 0.00076853
18070.0 0.00076449
18090.0 0.00076038
18110.0 0.00075624
18130.0 0.00075227
18150.0 0.00074829
18170.0 0.00074421
18190.0 0.00074023
18210.0 0.00073634
18230.0 0.00073232
18250.0 0.0007283
18270.0 0.00072446
18290.0 0.00072058
18310.0 0.00071664
18330.0 0.00071279
18350.0 0.00070904
18370.0 0.00070515
18390.0 0.0007013
18410.0 0.00069756
18430.0 0.0006938
18450.0 0.00068992
18470.0 0.00068621
18490.0 0.00068256
18510.0 0.00067881
18530.0 0.00067508
18550.0 0.0006715
18570.0 0.00066783
18590.0 0.00066409
18610.0 0.00066049
18630.0 0.00065693
18650.0 0.00065328
18670.0 0.00064963
18690.0 0.00064617
18710.0 0.00064263
18730.0 0.00063903
18750.0 0.00063555
18770.0 0.00063212
18790.0 0.00062851
18810.0 0.00062501
18830.0 0.00062162
18850.0 0.00061817
18870.0 0.00061467
18890.0 0.00061131
18910.0 0.00060798
18930.0 0.00060452
18950.0 0.00060113
18970.0 0.00059785
18990.0 0.00059449
19010.0 0.00059102
19030.0 0.00058778
19050.0 0.00058453
19070.0 0.00058118
19090.0 0.0005779
19110.0 0.00057475
19130.0 0.00057145
19150.0 0.00056815
19170.0 0.00056497
19190.0 0.0005618
19210.0 0.00055852
19230.0 0.00055531
19250.0 0.00055224
19270.0 0.00054906
19290.0 0.00054588
19310.0 0.00054281
19330.0 0.00053973
19350.0 0.00053651
19370.0 0.00053342
19390.0 0.0005304
19410.0 0.0005273
19430.0 0.00052418
19450.0 0.00052122
19470.0 0.00051822
19490.0 0.00051513
19510.0 0.00051213
19530.0 0.00050921
19550.0 0.00050615
19570.0 0.0005031
19590.0 0.00050021
19610.0 0.00049728
19630.0 0.00049427
19650.0 0.00049137
19670.0 0.00048853
19690.0 0.00048556
19710.0 0.00048262
19730.0 0.0004798
19750.0 0.00047693
19770.0 0.00047395
19790.0 0.00047112
19810.0 0.00046834
19830.0 0.00046545
19850.0 0.00046256
19870.0 0.00045973
19890.0 0.00045671
19910.0 0.00045339
19930.0 0.00044987
19950.0 0.00044589
19970.0 0.00044105
19990.0 0.00043533
20010.0 0.00042899
20030.0 0.0004215
20050.0 0.000413
20070.0 0.00040415
20090.0 0.000395
20110.0 0.00038512
20130.0 0.00037563
20150.0 0.00036672
20170.0 0.00035795
20190.0 0.00034952
20210.0 0.000342
20230.0 0.00033503
20250.0 0.00032841
20270.0 0.00032262
20290.0 0.00031763
20310.0 0.00031319
20330.0 0.00030937
20350.0 0.00030654
20370.0 0.00030438
20390.0 0.00030291
20410.0 0.00030226
20430.0 0.00030235
20450.0 0.00030322
20470.0 0.0003049
20490.0 0.00030728
20510.0 0.00031038
20530.0 0.00031432
20550.0 0.00031885
20570.0 0.00032377
20590.0 0.00032939
20610.0 0.00033546
20630.0 0.00034162
20650.0 0.00034805
20670.0 0.00035488
20690.0 0.00036137
20710.0 0.00036761
20730.0 0.00037378
20750.0 0.00037963
20770.0 0.00038481
20790.0 0.00038965
20810.0 0.00039415
20830.0 0.00039804
20850.0 0.00040144
20870.0 0.00040459
20890.0 0.00040735
20910.0 0.00040969
20930.0 0.00041185
20950.0 0.00041385
20970.0 0.00041562
20990.0 0.00041721
21010.0 0.00041871
21030.0 0.00042001
21050.0 0.00042106
21070.0 0.0004219
21090.0 0.00042247
21110.0 0.0004227
21130.0 0.00042263
21150.0 0.00042221
21170.0 0.00042146
21190.0 0.00042044
21210.0 0.00041908
21230.0 0.00041742
21250.0 0.00041561
21270.0 0.00041365
21290.0 0.0004115
21310.0 0.00040929
21330.0 0.00040716
21350.0 0.00040499
21370.0 0.00040285
21390.0 0.00040089
21410.0 0.00039907
21430.0 0.00039732
21450.0 0.00039583
21470.0 0.00039459
21490.0 0.00039353
21510.0 0.00039271
21530.0 0.00039215
21550.0 0.00039183
21570.0 0.00039175
21590.0 0.00039194
21610.0 0.00039238
21630.0 0.0003931
21650.0 0.00039412
21670.0 0.00039536
21690.0 0.00039689
21710.0 0.00039876
21730.0 0.00040089
21750.0 0.00040323
21770.0 0.00040602
21790.0 0.00040912
21810.0 0.00041241
21830.0 0.00041602
21850.0 0.00042006
21870.0 0.00042427
21890.0 0.00042859
21910.0 0.00043333
21930.0 0.00043827
21950.0 0.00044321
21970.0 0.00044835
21990.0 0.00045382
22010.0 0.00045908
22030.0 0.00046424
22050.0 0.00046949
22070.0 0.00047461
22090.0 0.00047929
22110.0 0.00048383
22130.0 0.00048814
22150.0 0.00049191
22170.0 0.00049519
22190.0 0.00049806
22210.0 0.00050029
22230.0 0.0005018
22250.0 0.00050267
22270.0 0.0005028
22290.0 0.00050218
22310.0 0.00050084
22330.0 0.00049861
22350.0 0.00049561
22370.0 0.00049194
22390.0 0.00048746
22410.0 0.00048207
22430.0 0.00047628
22450.0 0.00046994
22470.0 0.0004628
22490.0 0.00045525
22510.0 0.00044758
22530.0 0.00043925
22550.0 0.00043049
22570.0 0.00042193
22590.0 0.00041328
22610.0 0.0004043
22630.0 0.00039548
22650.0 0.00038713
22670.0 0.00037862
22690.0 0.00037024
22710.0 0.00036241
22730.0 0.00035487
22750.0 0.00034725
22770.0 0.00034029
22790.0 0.0003339
22810.0 0.0003277
22830.0 0.00032188
22850.0 0.00031673
22870.0 0.00031195
22890.0 0.00030747
22910.0 0.00030359
22930.0 0.00030028
22950.0 0.00029735
22970.0 0.00029491
22990.0 0.00029314
23010.0 0.00029184
23030.0 0.00029106
23050.0 0.00029082
23070.0 0.00029108
23090.0 0.00029187
23110.0 0.00029316
23130.0 0.00029484
23150.0 0.00029694
23170.0 0.00029947
23190.0 0.00030222
23210.0 0.00030513
23230.0 0.00030832
23250.0 0.00031162
23270.0 0.00031484
23290.0 0.0003181
23310.0 0.00032142
23330.0 0.00032443
23350.0 0.00032723
23370.0 0.00032989
23390.0 0.00033227
23410.0 0.00033426
23430.0 0.00033599
23450.0 0.0003374
23470.0 0.00033841
23490.0 0.00033907
