#lamb flux
1010.0 0.00020635
1030.0 0.00022961
1050.0 0.0002611
1070.0 0.0003082
1090.0 0.00036998
1110.0 0.00043627
1130.0 0.00050557
1150.0 0.00057975
1170.0 0.00065663
1190.0 0.0007285
1210.0 0.00079787
1230.0 0.00086384
1250.0 0.0009249
1270.0 0.00097455
1290.0 0.0010162
1310.0 0.0010452
1330.0 0.0010588
1350.0 0.0010606
1370.0 0.0010522
1390.0 0.0010321
1410.0 0.001002
1430.0 0.00096702
1450.0 0.00092687
1470.0 0.00088237
1490.0 0.00083685
1510.0 0.00079272
1530.0 0.00074811
1550.0 0.00070536
1570.0 0.00066611
1590.0 0.00063012
1610.0 0.00059865
1630.0 0.00057881
1650.0 0.00056453
1670.0 0.00055539
1690.0 0.00055205
1710.0 0.00055554
1730.0 0.00056563
1750.0 0.00058168
1770.0 0.00060539
1790.0 0.00063702
1810.0 0.00067617
1830.0 0.00072342
1850.0 0.00078045
1870.0 0.00084614
1890.0 0.00092048
1910.0 0.0010045
1930.0 0.0010984
1950.0 0.0012004
1970.0 0.0013105
1990.0 0.0014295
2010.0 0.0015551
2030.0 0.0016856
2050.0 0.0018216
2070.0 0.0019619
2090.0 0.0021019
2110.0 0.002242
2130.0 0.0023819
2150.0 0.0025184
2170.0 0.0026489
2190.0 0.0027757
2210.0 0.0028967
2230.0 0.003009
2250.0 0.0031139
2270.0 0.0032136
2290.0 0.0033046
2310.0 0.003387
2330.0 0.003465
2350.0 0.0035385
2370.0 0.0036067
2390.0 0.0036742
2410.0 0.0037463
2430.0 0.0038224
2450.0 0.0039066
2470.0 0.0040073
2490.0 0.0041291
2510.0 0.0042665
2530.0 0.0044326
2550.0 0.0046413
2570.0 0.0048978
2590.0 0.0052162
2610.0 0.0056521
2630.0 0.0062119
2650.0 0.0068756
2670.0 0.0076627
2690.0 0.0085634
2710.0 0.0094853
2730.0 0.01039
2750.0 0.011308
2770.0 0.01219
2790.0 0.01303
2810.0 0.013886
2830.0 0.014817
2850.0 0.015762
2870.0 0.016763
2890.0 0.017856
2910.0 0.019008
2930.0 0.020172
2950.0 0.021417
2970.0 0.022729
2990.0 0.024052
3010.0 0.025409
3030.0 0.026847
3050.0 0.028322
3070.0 0.02976
3090.0 0.031224
3110.0 0.032653
3130.0 0.03395
3150.0 0.035082
3170.0 0.036012
3190.0 0.036686
3210.0 0.037174
3230.0 0.037518
3250.0 0.037711
3270.0 0.03785
3290.0 0.038021
3310.0 0.038281
3330.0 0.038639
3350.0 0.039066
3370.0 0.039529
3390.0 0.039682
3410.0 0.039933
3430.0 0.041138
3450.0 0.04199
3470.0 0.042156
3490.0 0.04376
3510.0 0.050193
3530.0 0.061797
3550.0 0.069996
3570.0 0.076542
3590.0 0.086154
3610.0 0.08586
3630.0 0.079127
3650.0 0.083098
3670.0 0.098055
3690.0 0.11002
3710.0 0.11403
3730.0 0.11497
3750.0 0.12279
3770.0 0.12347
3790.0 0.11763
3810.0 0.11089
3830.0 0.10512
3850.0 0.10582
3870.0 0.11051
3890.0 0.11388
3910.0 0.11556
3930.0 0.11563
3950.0 0.12374
3970.0 0.13332
3990.0 0.12962
4010.0 0.11564
4030.0 0.10419
4050.0 0.10332
4070.0 0.10799
4090.0 0.10704
4110.0 0.10301
4130.0 0.10244
4150.0 0.10722
4170.0 0.11849
4190.0 0.12448
4210.0 0.11728
4230.0 0.10789
4250.0 0.10211
4270.0 0.098487
4290.0 0.099136
4310.0 0.10179
4330.0 0.096853
4350.0 0.085836
4370.0 0.076568
4390.0 0.070121
4410.0 0.066579
4430.0 0.068484
4450.0 0.075358
4470.0 0.082765
4490.0 0.088507
4510.0 0.097932
4530.0 0.1151
4550.0 0.13311
4570.0 0.14412
4590.0 0.15358
4610.0 0.16186
4630.0 0.16324
4650.0 0.15149
4670.0 0.13188
4690.0 0.11655
4710.0 0.11144
4730.0 0.10647
4750.0 0.093701
4770.0 0.083808
4790.0 0.086358
4810.0 0.093609
4830.0 0.091521
4850.0 0.081331
4870.0 0.083206
4890.0 0.085341
4910.0 0.086564
4930.0 0.085156
4950.0 0.083559
4970.0 0.079859
4990.0 0.073764
5010.0 0.069438
5030.0 0.068234
5050.0 0.067867
5070.0 0.067755
5090.0 0.067655
5110.0 0.067572
5130.0 0.068948
5150.0 0.072359
5170.0 0.078774
5190.0 0.08723
5210.0 0.094048
5230.0 0.098123
5250.0 0.10041
5270.0 0.10366
5290.0 0.10622
5310.0 0.10567
5330.0 0.102
5350.0 0.098411
5370.0 0.09854
5390.0 0.10111
5410.0 0.10299
5430.0 0.10216
5450.0 0.10068
5470.0 0.098452
5490.0 0.096187
5510.0 0.095351
5530.0 0.095821
5550.0 0.096822
5570.0 0.09719
5590.0 0.094603
5610.0 0.089862
5630.0 0.085439
5650.0 0.081466
5670.0 0.078696
5690.0 0.075538
5710.0 0.073698
5730.0 0.074036
5750.0 0.073271
5770.0 0.071965
5790.0 0.072635
5810.0 0.074748
5830.0 0.076368
5850.0 0.076824
5870.0 0.074918
5890.0 0.071918
5910.0 0.069252
5930.0 0.065769
5950.0 0.062826
5970.0 0.063169
5990.0 0.064702
6010.0 0.064669
6030.0 0.062452
6050.0 0.062049
6070.0 0.064208
6090.0 0.066406
6110.0 0.066227
6130.0 0.062922
6150.0 0.058591
6170.0 0.056194
6190.0 0.054893
6210.0 0.053744
6230.0 0.05267
6250.0 0.052633
6270.0 0.05413
6290.0 0.056297
6310.0 0.058742
6330.0 0.061317
6350.0 0.062884
6370.0 0.063072
6390.0 0.062718
6410.0 0.06322
6430.0 0.064014
6450.0 0.063983
6470.0 0.064114
6490.0 0.064489
6510.0 0.064469
6530.0 0.063687
6550.0 0.062069
6570.0 0.060093
6590.0 0.058363
6610.0 0.05701
6630.0 0.055897
6650.0 0.05408
6670.0 0.052071
6690.0 0.050518
6710.0 0.049628
6730.0 0.04913
6750.0 0.048654
6770.0 0.048009
6790.0 0.047139
6810.0 0.046296
6830.0 0.046026
6850.0 0.045789
6870.0 0.045397
6890.0 0.04533
6910.0 0.044719
6930.0 0.043972
6950.0 0.043868
6970.0 0.04348
6990.0 0.042577
7010.0 0.041881
7030.0 0.041135
7050.0 0.04035
7070.0 0.039392
7090.0 0.038552
7110.0 0.039111
7130.0 0.040222
7150.0 0.041097
7170.0 0.041628
7190.0 0.041559
7210.0 0.041027
7230.0 0.040359
7250.0 0.039941
7270.0 0.039237
7290.0 0.038655
7310.0 0.038334
7330.0 0.038732
7350.0 0.038844
7370.0 0.038719
7390.0 0.038363
7410.0 0.037768
7430.0 0.037383
7450.0 0.036992
7470.0 0.035871
7490.0 0.034671
7510.0 0.033218
7530.0 0.032051
7550.0 0.03143
7570.0 0.031854
7590.0 0.03165
7610.0 0.031301
7630.0 0.030985
7650.0 0.031141
7670.0 0.031789
7690.0 0.033084
7710.0 0.033972
7730.0 0.035239
7750.0 0.036038
7770.0 0.036688
7790.0 0.036752
7810.0 0.036048
7830.0 0.036159
7850.0 0.035823
7870.0 0.034925
7890.0 0.033748
7910.0 0.032744
7930.0 0.03199
7950.0 0.03153
7970.0 0.031544
7990.0 0.031797
8010.0 0.031709
8030.0 0.031375
8050.0 0.030798
8070.0 0.030237
8090.0 0.029619
8110.0 0.029731
8130.0 0.029993
8150.0 0.030045
8170.0 0.029794
8190.0 0.029397
8210.0 0.028244
8230.0 0.026423
8250.0 0.025302
8270.0 0.024653
8290.0 0.02434
8310.0 0.02445
8330.0 0.025002
8350.0 0.024562
8370.0 0.024028
8390.0 0.02436
8410.0 0.025126
8430.0 0.026421
8450.0 0.027609
8470.0 0.027923
8490.0 0.028181
8510.0 0.028031
8530.0 0.027865
8550.0 0.028078
8570.0 0.028111
8590.0 0.028025
8610.0 0.028794
8630.0 0.02901
8650.0 0.02838
8670.0 0.028323
8690.0 0.028429
8710.0 0.028038
8730.0 0.027798
8750.0 0.026948
8770.0 0.026589
8790.0 0.026302
8810.0 0.026041
8830.0 0.024904
8850.0 0.023113
8870.0 0.021728
8890.0 0.020965
8910.0 0.019681
8930.0 0.018324
8950.0 0.017839
8970.0 0.017708
8990.0 0.017728
9010.0 0.017593
9030.0 0.017467
9050.0 0.017351
9070.0 0.017239
9090.0 0.017126
9110.0 0.017014
9130.0 0.016902
9150.0 0.016791
9170.0 0.016679
9190.0 0.016568
9210.0 0.016456
9230.0 0.016346
9250.0 0.016235
9270.0 0.016125
9290.0 0.016015
9310.0 0.015906
9330.0 0.015796
9350.0 0.015688
9370.0 0.015579
9390.0 0.015471
9410.0 0.015363
9430.0 0.015256
9450.0 0.015147
9470.0 0.015042
9490.0 0.014938
9510.0 0.014833
9530.0 0.014728
9550.0 0.014623
9570.0 0.014519
9590.0 0.014416
9610.0 0.014313
9630.0 0.014211
9650.0 0.01411
9670.0 0.014009
9690.0 0.013908
9710.0 0.013809
9730.0 0.013709
9750.0 0.013611
9770.0 0.013513
9790.0 0.013415
9810.0 0.013318
9830.0 0.01322
9850.0 0.013107
9870.0 0.013015
9890.0 0.012927
9910.0 0.012838
9930.0 0.012742
9950.0 0.012652
9970.0 0.012562
9990.0 0.01247
10010.0 0.012368
10030.0 0.012274
10050.0 0.012191
10070.0 0.012107
10090.0 0.012022
10110.0 0.011933
10130.0 0.011834
10150.0 0.011751
10170.0 0.011669
10190.0 0.011584
10210.0 0.011501
10230.0 0.011418
10250.0 0.011333
10270.0 0.011249
10290.0 0.011168
10310.0 0.011084
10330.0 0.010999
10350.0 0.010918
10370.0 0.010837
10390.0 0.010754
10410.0 0.010672
10430.0 0.010594
10450.0 0.010513
10470.0 0.010432
10490.0 0.010353
10510.0 0.010276
10530.0 0.010194
10550.0 0.010115
10570.0 0.010039
10590.0 0.0099603
10610.0 0.0098813
10630.0 0.0098055
10650.0 0.0097296
10670.0 0.0096509
10690.0 0.0095741
10710.0 0.0094993
10730.0 0.0094227
10750.0 0.0093441
10770.0 0.0092704
10790.0 0.0091959
10810.0 0.0091194
10830.0 0.0090445
10850.0 0.0089722
10870.0 0.0088961
10890.0 0.0088207
10910.0 0.0087488
10930.0 0.0086773
10950.0 0.0086049
10970.0 0.0085362
10990.0 0.008472
11010.0 0.0084004
11030.0 0.0083441
11050.0 0.0082912
11070.0 0.0082389
11090.0 0.0081841
11110.0 0.0081316
11130.0 0.0080791
11150.0 0.008024
11170.0 0.0079679
11190.0 0.0079136
11210.0 0.0078577
11230.0 0.0078004
11250.0 0.0077452
11270.0 0.0076916
11290.0 0.0076371
11310.0 0.007584
11330.0 0.0075355
11350.0 0.0074875
11370.0 0.0074404
11390.0 0.0073965
11410.0 0.0073548
11430.0 0.007312
11450.0 0.0072711
11470.0 0.0072318
11490.0 0.0071918
11510.0 0.0071503
11530.0 0.0071098
11550.0 0.0070685
11570.0 0.0070243
11590.0 0.0069788
11610.0 0.0069332
11630.0 0.0068842
11650.0 0.0068323
11670.0 0.0067814
11690.0 0.0067294
11710.0 0.006675
11730.0 0.0066208
11750.0 0.0065688
11770.0 0.0065153
11790.0 0.006462
11810.0 0.0064115
11830.0 0.0063625
11850.0 0.0063124
11870.0 0.0062656
11890.0 0.0062221
11910.0 0.006179
11930.0 0.0061374
11950.0 0.0060994
11970.0 0.0060631
11990.0 0.0060276
12010.0 0.0059954
12030.0 0.0059664
12050.0 0.0059393
12070.0 0.0059146
12090.0 0.0058944
12110.0 0.0058771
12130.0 0.0058626
12150.0 0.005852
12170.0 0.005845
12190.0 0.0058411
12210.0 0.0058409
12230.0 0.0058442
12250.0 0.0058506
12270.0 0.0058603
12290.0 0.0058725
12310.0 0.0058867
12330.0 0.0059033
12350.0 0.0059214
12370.0 0.0059399
12390.0 0.005959
12410.0 0.0059786
12430.0 0.0059965
12450.0 0.0060127
12470.0 0.0060272
12490.0 0.0060389
12510.0 0.0060469
12530.0 0.0060513
12550.0 0.0060512
12570.0 0.0060464
12590.0 0.0060367
12610.0 0.0060211
12630.0 0.0059998
12650.0 0.0059747
12670.0 0.0059438
12690.0 0.0059074
12710.0 0.0058679
12730.0 0.0058253
12750.0 0.0057767
12770.0 0.0057266
12790.0 0.0056761
12810.0 0.0056229
12830.0 0.0055674
12850.0 0.0055142
12870.0 0.0054614
12890.0 0.0054068
12910.0 0.0053537
12930.0 0.0053032
12950.0 0.0052515
12970.0 0.0051998
12990.0 0.0051517
13010.0 0.0051046
13030.0 0.0050569
13050.0 0.0050113
13070.0 0.0049687
13090.0 0.0049256
13110.0 0.0048837
13130.0 0.0048451
13150.0 0.0048082
13170.0 0.0047715
13190.0 0.0047382
13210.0 0.004708
13230.0 0.0046788
13250.0 0.0046513
13270.0 0.0046267
13290.0 0.0046033
13310.0 0.00458
13330.0 0.0045585
13350.0 0.004538
13370.0 0.004517
13390.0 0.0044956
13410.0 0.0044754
13430.0 0.0044542
13450.0 0.0044317
13470.0 0.0044091
13490.0 0.0043863
13510.0 0.0043611
13530.0 0.0043354
13550.0 0.0043099
13570.0 0.0042833
13590.0 0.0042551
13610.0 0.0042273
13630.0 0.0041997
13650.0 0.0041703
13670.0 0.0041408
13690.0 0.0041119
13710.0 0.0040823
13730.0 0.0040508
13750.0 0.004021
13770.0 0.0039911
13790.0 0.0039598
13810.0 0.0039283
13830.0 0.0038979
13850.0 0.003866
13870.0 0.0038328
13890.0 0.0038002
13910.0 0.0037673
13930.0 0.0037323
13950.0 0.0036967
13970.0 0.0036623
13990.0 0.0036261
14010.0 0.0035886
14030.0 0.0035518
14050.0 0.0035149
14070.0 0.0034756
14090.0 0.0034373
14110.0 0.0034002
14130.0 0.0033626
14150.0 0.0033248
14170.0 0.0032897
14190.0 0.0032557
14210.0 0.0032216
14230.0 0.0031895
14250.0 0.0031596
14270.0 0.0031297
14290.0 0.0031006
14310.0 0.0030741
14330.0 0.0030483
14350.0 0.0030224
14370.0 0.0029978
14390.0 0.0029745
14410.0 0.0029507
14430.0 0.0029272
14450.0 0.0029051
14470.0 0.0028834
14490.0 0.0028613
14510.0 0.0028406
14530.0 0.0028212
14550.0 0.0028019
14570.0 0.0027834
14590.0 0.0027663
14610.0 0.0027496
14630.0 0.0027331
14650.0 0.0027178
14670.0 0.0027034
14690.0 0.0026892
14710.0 0.0026755
14730.0 0.0026632
14750.0 0.0026513
14770.0 0.00264
14790.0 0.0026299
14810.0 0.0026209
14830.0 0.0026127
14850.0 0.0026059
14870.0 0.0026007
14890.0 0.0025967
14910.0 0.002594
14930.0 0.0025924
14950.0 0.0025916
14970.0 0.0025911
14990.0 0.0025906
15010.0 0.0025896
15030.0 0.0025881
15050.0 0.0025857
15070.0 0.0025827
15090.0 0.0025792
15110.0 0.0025752
15130.0 0.002571
15150.0 0.0025667
15170.0 0.0025623
15190.0 0.0025577
15210.0 0.0025532
15230.0 0.0025487
15250.0 0.002544
15270.0 0.0025394
15290.0 0.002535
15310.0 0.0025304
15330.0 0.0025258
15350.0 0.0025213
15370.0 0.0025168
15390.0 0.0025121
15410.0 0.0025075
15430.0 0.002503
15450.0 0.0024984
15470.0 0.0024938
15490.0 0.0024893
15510.0 0.0024848
15530.0 0.0024802
15550.0 0.0024757
15570.0 0.0024712
15590.0 0.0024666
15610.0 0.002462
15630.0 0.0024576
15650.0 0.0024531
15670.0 0.0024486
15690.0 0.0024441
15710.0 0.0024397
15730.0 0.0024352
15750.0 0.0024307
15770.0 0.0024264
15790.0 0.002422
15810.0 0.0024175
15830.0 0.0024131
15850.0 0.0024088
15870.0 0.0024045
15890.0 0.0024001
15910.0 0.0023959
15930.0 0.0023916
15950.0 0.0023872
15970.0 0.002383
15990.0 0.0023788
16010.0 0.0023745
16030.0 0.0023703
16050.0 0.0023662
16070.0 0.0023621
16090.0 0.0023579
16110.0 0.0023538
16130.0 0.0023498
16150.0 0.0023456
16170.0 0.0023415
16190.0 0.0023376
16210.0 0.0023336
16230.0 0.0023295
16250.0 0.0023256
16270.0 0.0023217
16290.0 0.0023177
16310.0 0.0023138
16330.0 0.00231
16350.0 0.0023062
16370.0 0.0023022
16390.0 0.0022985
16410.0 0.0022947
16430.0 0.0022909
16450.0 0.0022872
16470.0 0.0022836
16490.0 0.0022798
16510.0 0.0022761
16530.0 0.0022725
16550.0 0.0022689
16570.0 0.0022652
16590.0 0.0022615
16610.0 0.002258
16630.0 0.0022545
16650.0 0.0022509
16670.0 0.0022474
16690.0 0.002244
16710.0 0.0022404
16730.0 0.0022369
16750.0 0.0022335
16770.0 0.00223
16790.0 0.0022265
16810.0 0.0022232
16830.0 0.0022199
16850.0 0.0022164
16870.0 0.002213
16890.0 0.0022098
16910.0 0.0022064
16930.0 0.0022029
16950.0 0.0021997
16970.0 0.0021964
16990.0 0.002193
17010.0 0.0021898
17030.0 0.0021866
17050.0 0.0021832
17070.0 0.0021799
17090.0 0.0021767
17110.0 0.0021735
17130.0 0.0021701
17150.0 0.0021668
17170.0 0.0021637
17190.0 0.0021604
17210.0 0.0021571
17230.0 0.0021539
17250.0 0.0021507
17270.0 0.0021473
17290.0 0.0021441
17310.0 0.0021409
17330.0 0.0021376
17350.0 0.0021342
17370.0 0.0021311
17390.0 0.0021278
17410.0 0.0021245
17430.0 0.0021212
17450.0 0.002118
17470.0 0.0021146
17490.0 0.0021112
17510.0 0.0021079
17530.0 0.0021046
17550.0 0.0021011
17570.0 0.0020978
17590.0 0.0020945
17610.0 0.002091
17630.0 0.0020876
17650.0 0.0020843
17670.0 0.0020808
17690.0 0.0020772
17710.0 0.0020738
17730.0 0.0020703
17750.0 0.0020667
17770.0 0.0020632
17790.0 0.0020597
17810.0 0.0020561
17830.0 0.0020524
17850.0 0.0020488
17870.0 0.0020452
17890.0 0.0020414
17910.0 0.0020376
17930.0 0.002034
17950.0 0.0020302
17970.0 0.0020263
17990.0 0.0020226
18010.0 0.0020188
18030.0 0.0020148
18050.0 0.0020109
18070.0 0.002007
18090.0 0.002003
18110.0 0.0019989
18130.0 0.001995
18150.0 0.0019909
18170.0 0.0019867
18190.0 0.0019826
18210.0 0.0019785
18230.0 0.0019743
18250.0 0.0019699
18270.0 0.0019657
18290.0 0.0019615
18310.0 0.0019571
18330.0 0.0019527
18350.0 0.0019484
18370.0 0.0019439
18390.0 0.0019393
18410.0 0.0019349
18430.0 0.0019303
18450.0 0.0019256
18470.0 0.001921
18490.0 0.0019164
18510.0 0.0019117
18530.0 0.0019069
18550.0 0.0019022
18570.0 0.0018974
18590.0 0.0018924
18610.0 0.0018876
18630.0 0.0018827
18650.0 0.0018777
18670.0 0.0018726
18690.0 0.0018677
18710.0 0.0018626
18730.0 0.0018574
18750.0 0.0018523
18770.0 0.0018472
18790.0 0.0018419
18810.0 0.0018366
18830.0 0.0018313
18850.0 0.001826
18870.0 0.0018206
18890.0 0.0018152
18910.0 0.0018099
18930.0 0.0018043
18950.0 0.0017988
18970.0 0.0017933
18990.0 0.0017877
19010.0 0.001782
19030.0 0.0017764
19050.0 0.0017708
19070.0 0.001765
19090.0 0.0017593
19110.0 0.0017536
19130.0 0.0017478
19150.0 0.0017419
19170.0 0.001736
19190.0 0.0017302
19210.0 0.0017242
19230.0 0.0017182
19250.0 0.0017123
19270.0 0.0017063
19290.0 0.0017003
19310.0 0.0016943
19330.0 0.0016882
19350.0 0.001682
19370.0 0.0016759
19390.0 0.0016698
19410.0 0.0016636
19430.0 0.0016573
19450.0 0.0016512
19470.0 0.001645
19490.0 0.0016387
19510.0 0.0016324
19530.0 0.0016262
19550.0 0.0016199
19570.0 0.0016134
19590.0 0.0016072
19610.0 0.0016009
19630.0 0.0015944
19650.0 0.0015881
19670.0 0.0015818
19690.0 0.0015753
19710.0 0.0015688
19730.0 0.0015625
19750.0 0.001556
19770.0 0.0015495
19790.0 0.0015431
19810.0 0.0015367
19830.0 0.0015301
19850.0 0.0015236
19870.0 0.0015171
19890.0 0.0015103
19910.0 0.0015031
19930.0 0.0014956
19950.0 0.0014874
19970.0 0.001478
19990.0 0.0014673
20010.0 0.0014555
20030.0 0.0014419
20050.0 0.0014267
20070.0 0.0014105
20090.0 0.0013936
20110.0 0.001375
20130.0 0.0013565
20150.0 0.0013383
20170.0 0.0013197
20190.0 0.0013011
20210.0 0.0012834
20230.0 0.0012662
20250.0 0.0012489
20270.0 0.0012325
20290.0 0.0012171
20310.0 0.001202
20330.0 0.0011872
20350.0 0.001174
20370.0 0.0011614
20390.0 0.0011492
20410.0 0.001138
20430.0 0.0011277
20450.0 0.0011177
20470.0 0.0011085
20490.0 0.0011001
20510.0 0.0010923
20530.0 0.0010849
20550.0 0.0010782
20570.0 0.0010722
20590.0 0.0010665
20610.0 0.0010612
20630.0 0.0010565
20650.0 0.0010521
20670.0 0.001048
20690.0 0.0010441
20710.0 0.0010406
20730.0 0.0010371
20750.0 0.0010337
20770.0 0.0010303
20790.0 0.0010269
20810.0 0.0010233
20830.0 0.0010195
20850.0 0.0010155
20870.0 0.0010111
20890.0 0.0010063
20910.0 0.0010013
20930.0 0.00099573
20950.0 0.00098966
20970.0 0.00098329
20990.0 0.00097658
21010.0 0.00096923
21030.0 0.00096156
21050.0 0.00095375
21070.0 0.00094554
21090.0 0.00093686
21110.0 0.00092832
21130.0 0.00091972
21150.0 0.00091079
21170.0 0.00090188
21190.0 0.00089325
21210.0 0.00088439
21230.0 0.00087548
21250.0 0.000867
21270.0 0.00085869
21290.0 0.00085033
21310.0 0.00084225
21330.0 0.00083467
21350.0 0.00082709
21370.0 0.00081966
21390.0 0.00081266
21410.0 0.00080591
21430.0 0.00079905
21450.0 0.00079259
21470.0 0.00078648
21490.0 0.00078038
21510.0 0.00077436
21530.0 0.00076868
21550.0 0.00076308
21570.0 0.00075739
21590.0 0.00075189
21610.0 0.00074656
21630.0 0.00074115
21650.0 0.00073565
21670.0 0.00073049
21690.0 0.00072528
21710.0 0.00071996
21730.0 0.00071475
21750.0 0.0007097
21770.0 0.00070438
21790.0 0.00069908
21810.0 0.00069395
21830.0 0.00068877
21850.0 0.0006834
21870.0 0.00067815
21890.0 0.00067304
21910.0 0.00066771
21930.0 0.00066235
21950.0 0.00065716
21970.0 0.00065189
21990.0 0.00064635
22010.0 0.00064107
22030.0 0.00063586
22050.0 0.0006305
22070.0 0.00062517
22090.0 0.00062012
22110.0 0.00061501
22130.0 0.00060984
22150.0 0.00060493
22170.0 0.00060021
22190.0 0.00059539
22210.0 0.00059075
22230.0 0.00058651
22250.0 0.00058232
22270.0 0.00057822
22290.0 0.00057444
22310.0 0.00057089
22330.0 0.00056732
22350.0 0.000564
22370.0 0.00056095
22390.0 0.00055798
22410.0 0.00055506
22430.0 0.00055242
22450.0 0.00054992
22470.0 0.00054741
22490.0 0.00054503
22510.0 0.00054283
22530.0 0.00054059
22550.0 0.00053837
22570.0 0.00053633
22590.0 0.00053436
22610.0 0.00053236
22630.0 0.00053046
22650.0 0.00052874
22670.0 0.000527
22690.0 0.00052533
22710.0 0.00052383
22730.0 0.00052244
22750.0 0.00052104
22770.0 0.00051986
22790.0 0.00051887
22810.0 0.00051798
22830.0 0.00051723
22850.0 0.00051674
22870.0 0.00051642
22890.0 0.00051627
22910.0 0.00051639
22930.0 0.00051678
22950.0 0.00051741
22970.0 0.00051834
22990.0 0.00051959
23010.0 0.00052114
23030.0 0.00052301
23050.0 0.0005252
23070.0 0.00052766
23090.0 0.00053049
23110.0 0.00053361
23130.0 0.00053693
23150.0 0.00054052
23170.0 0.0005444
23190.0 0.00054842
23210.0 0.00055253
23230.0 0.00055691
23250.0 0.00056142
23270.0 0.00056594
23290.0 0.0005706
23310.0 0.00057548
23330.0 0.00058027
23350.0 0.00058508
23370.0 0.00059001
23390.0 0.00059497
23410.0 0.00059982
23430.0 0.00060476
23450.0 0.00060996
23470.0 0.00061512
23490.0 0.00062028
23510.0 0.00062557
23530.0 0.00063086
23550.0 0.00063605
23570.0 0.00064134
23590.0 0.00064671
23610.0 0.00065202
23630.0 0.00065737
23650.0 0.0006629
23670.0 0.00066845
23690.0 0.00067403
23710.0 0.00067979
23730.0 0.00068576
23750.0 0.00069176
23770.0 0.00069793
23790.0 0.00070439
23810.0 0.000711
23830.0 0.0007177
23850.0 0.00072473
23870.0 0.000732
23890.0 0.00073927
23910.0 0.00074668
23930.0 0.00075435
23950.0 0.00076205
23970.0 0.00076965
23990.0 0.00077744
24010.0 0.00078525
24030.0 0.00079287
24050.0 0.00080041
24070.0 0.00080801
24090.0 0.00081529
