#lamb flux
1010.0 2.8145e-09
1030.0 3.1065e-09
1050.0 3.4424e-09
1070.0 3.8205e-09
1090.0 4.25e-09
1110.0 4.6905e-09
1130.0 5.1339e-09
1150.0 5.5983e-09
1170.0 6.0774e-09
1190.0 6.5316e-09
1210.0 6.992e-09
1230.0 7.4678e-09
1250.0 7.9339e-09
1270.0 8.3866e-09
1290.0 8.8649e-09
1310.0 9.3429e-09
1330.0 9.8013e-09
1350.0 1.0265e-08
1370.0 1.0743e-08
1390.0 1.121e-08
1410.0 1.1663e-08
1430.0 1.2136e-08
1450.0 1.2609e-08
1470.0 1.3067e-08
1490.0 1.3529e-08
1510.0 1.4018e-08
1530.0 1.4481e-08
1550.0 1.4937e-08
1570.0 1.541e-08
1590.0 1.5883e-08
1610.0 1.6335e-08
1630.0 1.6801e-08
1650.0 1.728e-08
1670.0 1.7743e-08
1690.0 1.8201e-08
1710.0 1.8676e-08
1730.0 1.9154e-08
1750.0 1.9605e-08
1770.0 2.0069e-08
1790.0 2.0542e-08
1810.0 2.1001e-08
1830.0 2.1453e-08
1850.0 2.1932e-08
1870.0 2.24e-08
1890.0 2.2853e-08
1910.0 2.3315e-08
1930.0 2.379e-08
1950.0 2.4243e-08
1970.0 2.4692e-08
1990.0 2.5158e-08
2010.0 2.5617e-08
2030.0 2.6061e-08
2050.0 2.6518e-08
2070.0 2.6988e-08
2090.0 2.7432e-08
2110.0 2.7874e-08
2130.0 2.833e-08
2150.0 2.8778e-08
2170.0 2.9206e-08
2190.0 2.9651e-08
2210.0 3.0099e-08
2230.0 3.0528e-08
2250.0 3.0955e-08
2270.0 3.1401e-08
2290.0 3.1832e-08
2310.0 3.2246e-08
2330.0 3.2676e-08
2350.0 3.3117e-08
2370.0 3.3555e-08
2390.0 3.4031e-08
2410.0 3.4597e-08
2430.0 3.5252e-08
2450.0 3.604e-08
2470.0 3.7055e-08
2490.0 3.834e-08
2510.0 3.9804e-08
2530.0 4.1571e-08
2550.0 4.3786e-08
2570.0 4.6544e-08
2590.0 5.013e-08
2610.0 5.5497e-08
2630.0 6.3148e-08
2650.0 7.3134e-08
2670.0 8.6026e-08
2690.0 1.0184e-07
2710.0 1.1869e-07
2730.0 1.3531e-07
2750.0 1.5164e-07
2770.0 1.6579e-07
2790.0 1.7698e-07
2810.0 1.8582e-07
2830.0 1.9267e-07
2850.0 1.9728e-07
2870.0 2.0062e-07
2890.0 2.0322e-07
2910.0 2.0526e-07
2930.0 2.069e-07
2950.0 2.0845e-07
2970.0 2.0997e-07
2990.0 2.114e-07
3010.0 6.0631e-06
3030.0 6.1035e-06
3050.0 6.1425e-06
3070.0 6.1755e-06
3090.0 6.2033e-06
3110.0 6.2191e-06
3130.0 6.2144e-06
3150.0 6.183e-06
3170.0 6.113e-06
3190.0 6.0055e-06
3210.0 5.8702e-06
3230.0 5.7158e-06
3250.0 5.5626e-06
3270.0 5.4503e-06
3290.0 5.3851e-06
3310.0 5.3917e-06
3330.0 5.4661e-06
3350.0 5.5985e-06
3370.0 5.7892e-06
3390.0 6.0304e-06
3410.0 6.2935e-06
3430.0 6.5892e-06
3450.0 6.9299e-06
3470.0 7.3022e-06
3490.0 7.6972e-06
3510.0 8.144e-06
3530.0 8.6231e-06
3550.0 9.1104e-06
3570.0 9.621e-06
3590.0 1.0177e-05
3610.0 1.0754e-05
3630.0 1.1329e-05
3650.0 1.1926e-05
3670.0 1.2469e-05
3690.0 1.2875e-05
3710.0 1.3105e-05
3730.0 1.31e-05
3750.0 1.2894e-05
3770.0 1.2863e-05
3790.0 1.2783e-05
3810.0 1.2257e-05
3830.0 1.26e-05
3850.0 1.4429e-05
3870.0 1.5218e-05
3890.0 1.4824e-05
3910.0 1.4765e-05
3930.0 1.5326e-05
3950.0 1.5786e-05
3970.0 1.4626e-05
3990.0 1.2248e-05
4010.0 3.5793e-05
4030.0 4.2942e-05
4050.0 4.9223e-05
4070.0 4.3329e-05
4090.0 3.9332e-05
4110.0 3.4524e-05
4130.0 3.2412e-05
4150.0 3.5302e-05
4170.0 3.4027e-05
4190.0 3.5749e-05
4210.0 3.579e-05
4230.0 3.8353e-05
4250.0 4.5496e-05
4270.0 4.6365e-05
4290.0 4.248e-05
4310.0 4.3673e-05
4330.0 4.612e-05
4350.0 5.2297e-05
4370.0 5.9925e-05
4390.0 5.535e-05
4410.0 3.9937e-05
4430.0 3.3432e-05
4450.0 3.0789e-05
4470.0 2.3224e-05
4490.0 2.5811e-05
4510.0 4.0524e-05
4530.0 4.7048e-05
4550.0 4.697e-05
4570.0 5.169e-05
4590.0 5.8514e-05
4610.0 8.1971e-05
4630.0 0.00010755
4650.0 0.00011494
4670.0 0.00010584
4690.0 0.00010151
4710.0 0.00010712
4730.0 9.9851e-05
4750.0 7.3803e-05
4770.0 5.3724e-05
4790.0 5.0871e-05
4810.0 4.9003e-05
4830.0 4.5215e-05
4850.0 4.9526e-05
4870.0 6.5444e-05
4890.0 7.7012e-05
4910.0 6.6821e-05
4930.0 5.9719e-05
4950.0 6.5944e-05
4970.0 8.4831e-05
4990.0 0.00011495
5010.0 0.00013242
5030.0 0.00011565
5050.0 7.7582e-05
5070.0 5.149e-05
5090.0 4.1198e-05
5110.0 4.1977e-05
5130.0 4.8689e-05
5150.0 5.2262e-05
5170.0 5.1264e-05
5190.0 4.7673e-05
5210.0 5.0159e-05
5230.0 5.3529e-05
5250.0 5.815e-05
5270.0 6.1787e-05
5290.0 6.8254e-05
5310.0 8.0559e-05
5330.0 8.899e-05
5350.0 8.8355e-05
5370.0 9.3386e-05
5390.0 0.00010815
5410.0 0.00010639
5430.0 9.295e-05
5450.0 8.613e-05
5470.0 9.2212e-05
5490.0 0.00011284
5510.0 0.00014061
5530.0 0.00016148
5550.0 0.00015507
5570.0 0.00014082
5590.0 0.0001218
5610.0 0.00011332
5630.0 0.00011162
5650.0 0.00010581
5670.0 9.9906e-05
5690.0 8.839e-05
5710.0 8.6658e-05
5730.0 8.0247e-05
5750.0 5.526e-05
5770.0 4.2743e-05
5790.0 4.8785e-05
5810.0 5.4702e-05
5830.0 6.8617e-05
5850.0 8.2525e-05
5870.0 9.1338e-05
5890.0 9.2339e-05
5910.0 9.0549e-05
5930.0 8.6228e-05
5950.0 8.7945e-05
5970.0 0.00010118
5990.0 9.3832e-05
6010.0 7.8052e-05
6030.0 6.5757e-05
6050.0 5.7403e-05
6070.0 5.8091e-05
6090.0 6.3188e-05
6110.0 6.9982e-05
6130.0 7.0457e-05
6150.0 6.0127e-05
6170.0 5.2228e-05
6190.0 5.9069e-05
6210.0 7.9411e-05
6230.0 0.0001056
6250.0 0.00011444
6270.0 9.8663e-05
6290.0 8.3172e-05
6310.0 6.478e-05
6330.0 4.9393e-05
6350.0 4.447e-05
6370.0 4.6755e-05
6390.0 5.4201e-05
6410.0 6.7214e-05
6430.0 7.8746e-05
6450.0 9.0789e-05
6470.0 0.00010296
6490.0 0.00012419
6510.0 0.00013889
6530.0 0.00013698
6550.0 0.0001241
6570.0 0.00010451
6590.0 9.4699e-05
6610.0 8.1289e-05
6630.0 7.4828e-05
6650.0 7.1032e-05
6670.0 6.8049e-05
6690.0 6.0384e-05
6710.0 5.5323e-05
6730.0 3.7987e-05
6750.0 3.8668e-05
6770.0 4.3841e-05
6790.0 5.1351e-05
6810.0 4.5437e-05
6830.0 4.6738e-05
6850.0 4.3126e-05
6870.0 3.9463e-05
6890.0 3.7396e-05
6910.0 4.0446e-05
6930.0 3.7915e-05
6950.0 3.9675e-05
6970.0 4.1715e-05
6990.0 4.7231e-05
7010.0 4.7332e-05
7030.0 4.8867e-05
7050.0 4.6067e-05
7070.0 4.3213e-05
7090.0 4.3696e-05
7110.0 4.5181e-05
7130.0 4.9043e-05
7150.0 5.2495e-05
7170.0 5.8067e-05
7190.0 6.367e-05
7210.0 6.1851e-05
7230.0 6.3484e-05
7250.0 6.815e-05
7270.0 7.4055e-05
7290.0 8.8363e-05
7310.0 9.5716e-05
7330.0 9.2279e-05
7350.0 8.3389e-05
7370.0 7.133e-05
7390.0 6.9578e-05
7410.0 7.5069e-05
7430.0 8.3699e-05
7450.0 9.1055e-05
7470.0 8.9311e-05
7490.0 8.0057e-05
7510.0 9.4396e-05
7530.0 9.2517e-05
7550.0 8.3779e-05
7570.0 6.4387e-05
7590.0 4.2474e-05
7610.0 3.5951e-05
7630.0 4.1752e-05
7650.0 4.9955e-05
7670.0 6.3842e-05
7690.0 7.032e-05
7710.0 7.2129e-05
7730.0 7.5401e-05
7750.0 8.6135e-05
7770.0 8.7639e-05
7790.0 8.0433e-05
7810.0 7.2362e-05
7830.0 7.5061e-05
7850.0 7.4027e-05
7870.0 6.8423e-05
7890.0 5.6951e-05
7910.0 4.5334e-05
7930.0 4.3706e-05
7950.0 3.9793e-05
7970.0 3.6463e-05
7990.0 3.5922e-05
8010.0 4.9447e-06
8030.0 4.6004e-06
8050.0 4.8208e-06
8070.0 5.3579e-06
8090.0 6.4402e-06
8110.0 6.1643e-06
8130.0 3.9241e-06
8150.0 4.0749e-06
8170.0 2.5654e-06
8190.0 1.8332e-06
8210.0 3.9187e-06
8230.0 4.6498e-06
8250.0 2.5222e-06
8270.0 2.0527e-06
8290.0 3.0735e-06
8310.0 2.6423e-06
8330.0 1.6922e-06
8350.0 1.2847e-06
8370.0 4.1535e-07
8390.0 1.4223e-06
8410.0 1.6233e-06
8430.0 2.0007e-06
8450.0 2.3043e-06
8470.0 3.5514e-06
8490.0 3.1064e-06
8510.0 2.6153e-06
8530.0 1.8959e-06
8550.0 4.3589e-06
8570.0 6.1468e-06
8590.0 4.9569e-06
8610.0 7.0252e-06
8630.0 7.9856e-06
8650.0 5.8981e-06
8670.0 7.3992e-06
8690.0 9.5657e-06
8710.0 8.3157e-06
8730.0 8.4552e-06
8750.0 6.8841e-06
8770.0 6.2518e-06
8790.0 6.6142e-06
8810.0 6.8927e-06
8830.0 4.3364e-06
8850.0 2.3069e-06
8870.0 1.6642e-06
8890.0 2.8411e-06
8910.0 4.1459e-06
8930.0 5.3472e-06
8950.0 5.7445e-06
8970.0 5.5594e-06
8990.0 4.2305e-06
9010.0 1.8026e-05
9030.0 1.5665e-05
9050.0 1.5829e-05
9070.0 1.6046e-05
9090.0 1.623e-05
9110.0 1.6458e-05
9130.0 1.6628e-05
9150.0 1.6754e-05
9170.0 1.6888e-05
9190.0 1.7032e-05
9210.0 1.7183e-05
9230.0 1.7342e-05
9250.0 1.7503e-05
9270.0 1.767e-05
9290.0 1.7841e-05
9310.0 1.8012e-05
9330.0 1.8186e-05
9350.0 1.8367e-05
9370.0 1.8548e-05
9390.0 1.8731e-05
9410.0 1.8918e-05
9430.0 1.9111e-05
9450.0 1.9302e-05
9470.0 1.9497e-05
9490.0 1.9697e-05
9510.0 1.9899e-05
9530.0 2.0101e-05
9550.0 2.0311e-05
9570.0 2.0524e-05
9590.0 2.0736e-05
9610.0 2.0952e-05
9630.0 2.1174e-05
9650.0 2.1398e-05
9670.0 2.162e-05
9690.0 2.185e-05
9710.0 2.2082e-05
9730.0 2.2315e-05
9750.0 2.2551e-05
9770.0 2.2794e-05
9790.0 2.3037e-05
9810.0 2.328e-05
9830.0 2.3529e-05
9850.0 2.3781e-05
9870.0 2.4031e-05
9890.0 2.4285e-05
9910.0 2.4545e-05
9930.0 2.4804e-05
9950.0 2.5064e-05
9970.0 2.533e-05
9990.0 2.5599e-05
10010.0 2.2286e-05
10030.0 2.2518e-05
10050.0 2.2755e-05
10070.0 2.2995e-05
10090.0 2.3227e-05
10110.0 2.3465e-05
10130.0 2.3704e-05
10150.0 2.3941e-05
10170.0 2.4182e-05
10190.0 2.4426e-05
10210.0 2.4667e-05
10230.0 2.4907e-05
10250.0 2.5152e-05
10270.0 2.5396e-05
10290.0 2.5636e-05
10310.0 2.588e-05
10330.0 2.6127e-05
10350.0 2.6369e-05
10370.0 2.6611e-05
10390.0 2.6855e-05
10410.0 2.7099e-05
10430.0 2.7337e-05
10450.0 2.7577e-05
10470.0 2.7819e-05
10490.0 2.8056e-05
10510.0 2.8291e-05
10530.0 2.8531e-05
10550.0 2.8766e-05
10570.0 2.8997e-05
10590.0 2.9228e-05
10610.0 2.946e-05
10630.0 2.9685e-05
10650.0 2.9908e-05
10670.0 3.0134e-05
10690.0 3.0356e-05
10710.0 3.0572e-05
10730.0 3.0789e-05
10750.0 3.1006e-05
10770.0 3.1214e-05
10790.0 3.142e-05
10810.0 3.1626e-05
10830.0 3.1825e-05
10850.0 3.2015e-05
10870.0 3.22e-05
10890.0 3.2365e-05
10910.0 3.2496e-05
10930.0 3.2579e-05
10950.0 3.2586e-05
10970.0 3.2493e-05
10990.0 3.229e-05
11010.0 3.0341e-05
11030.0 2.9861e-05
11050.0 2.9273e-05
11070.0 2.8568e-05
11090.0 2.7721e-05
11110.0 2.6844e-05
11130.0 2.593e-05
11150.0 2.4946e-05
11170.0 2.3932e-05
11190.0 2.295e-05
11210.0 2.1936e-05
11230.0 2.0897e-05
11250.0 1.9905e-05
11270.0 1.8953e-05
11290.0 1.8e-05
11310.0 1.7097e-05
11330.0 1.6302e-05
11350.0 1.555e-05
11370.0 1.4856e-05
11390.0 1.4254e-05
11410.0 1.3726e-05
11430.0 1.3235e-05
11450.0 1.2811e-05
11470.0 1.2443e-05
11490.0 1.21e-05
11510.0 1.1769e-05
11530.0 1.1462e-05
11550.0 1.1156e-05
11570.0 1.0831e-05
11590.0 1.0494e-05
11610.0 1.0152e-05
11630.0 9.7808e-06
11650.0 9.3839e-06
11670.0 8.9932e-06
11690.0 8.5973e-06
11710.0 8.1893e-06
11730.0 7.7941e-06
11750.0 7.4282e-06
11770.0 7.0693e-06
11790.0 6.7327e-06
11810.0 6.436e-06
11830.0 6.1701e-06
11850.0 5.9249e-06
11870.0 5.719e-06
11890.0 5.5473e-06
11910.0 5.3958e-06
11930.0 5.2651e-06
11950.0 5.1557e-06
11970.0 5.0577e-06
11990.0 4.965e-06
12010.0 4.8791e-06
12030.0 4.7965e-06
12050.0 4.7113e-06
12070.0 4.623e-06
12090.0 4.538e-06
12110.0 4.4518e-06
12130.0 4.3654e-06
12150.0 4.2855e-06
12170.0 4.2154e-06
12190.0 4.1542e-06
12210.0 4.1104e-06
12230.0 4.0873e-06
12250.0 4.0866e-06
12270.0 4.1135e-06
12290.0 4.1679e-06
12310.0 4.2475e-06
12330.0 4.3602e-06
12350.0 4.5019e-06
12370.0 4.6637e-06
12390.0 4.8508e-06
12410.0 5.0706e-06
12430.0 5.2941e-06
12450.0 5.5256e-06
12470.0 5.772e-06
12490.0 6.0195e-06
12510.0 6.2515e-06
12530.0 6.4823e-06
12550.0 6.7049e-06
12570.0 6.9011e-06
12590.0 7.0731e-06
12610.0 7.2262e-06
12630.0 7.3478e-06
12650.0 7.4311e-06
12670.0 7.4852e-06
12690.0 7.5057e-06
12710.0 7.4914e-06
12730.0 7.4459e-06
12750.0 7.3665e-06
12770.0 7.2582e-06
12790.0 7.1273e-06
12810.0 6.9714e-06
12830.0 6.7915e-06
12850.0 6.6034e-06
12870.0 6.4048e-06
12890.0 6.1902e-06
12910.0 5.9723e-06
12930.0 5.7576e-06
12950.0 5.5339e-06
12970.0 5.3063e-06
12990.0 5.0911e-06
13010.0 4.8788e-06
13030.0 4.6642e-06
13050.0 4.4582e-06
13070.0 4.2652e-06
13090.0 4.0716e-06
13110.0 3.8842e-06
13130.0 3.7115e-06
13150.0 3.5477e-06
13170.0 3.3874e-06
13190.0 3.2445e-06
13210.0 3.1186e-06
13230.0 3.0033e-06
13250.0 2.9037e-06
13270.0 2.8248e-06
13290.0 2.7629e-06
13310.0 2.7197e-06
13330.0 2.6991e-06
13350.0 2.6995e-06
13370.0 2.722e-06
13390.0 2.7681e-06
13410.0 2.8311e-06
13430.0 2.9137e-06
13450.0 3.0161e-06
13470.0 3.1302e-06
13490.0 3.2514e-06
13510.0 3.3884e-06
13530.0 3.5275e-06
13550.0 3.661e-06
13570.0 3.7928e-06
13590.0 3.9216e-06
13610.0 4.0363e-06
13630.0 4.1367e-06
13650.0 4.2286e-06
13670.0 4.305e-06
13690.0 4.3644e-06
13710.0 4.4105e-06
13730.0 4.4437e-06
13750.0 4.4606e-06
13770.0 4.465e-06
13790.0 4.4575e-06
13810.0 4.4382e-06
13830.0 4.4095e-06
13850.0 4.3702e-06
13870.0 4.3206e-06
13890.0 4.2638e-06
13910.0 4.1997e-06
13930.0 4.1254e-06
13950.0 4.0442e-06
13970.0 3.9613e-06
13990.0 3.8709e-06
14010.0 3.7749e-06
14030.0 3.679e-06
14050.0 3.5825e-06
14070.0 3.4806e-06
14090.0 3.3829e-06
14110.0 3.2912e-06
14130.0 3.2022e-06
14150.0 3.1184e-06
14170.0 3.0469e-06
14190.0 2.9849e-06
14210.0 2.9323e-06
14230.0 2.8932e-06
14250.0 2.8678e-06
14270.0 2.8553e-06
14290.0 2.8575e-06
14310.0 2.8731e-06
14330.0 2.9014e-06
14350.0 2.9433e-06
14370.0 2.9956e-06
14390.0 3.0552e-06
14410.0 3.1254e-06
14430.0 3.2027e-06
14450.0 3.2817e-06
14470.0 3.3638e-06
14490.0 3.4513e-06
14510.0 3.535e-06
14530.0 3.6146e-06
14550.0 3.6943e-06
14570.0 3.7709e-06
14590.0 3.8406e-06
14610.0 3.9081e-06
14630.0 3.9749e-06
14650.0 4.0371e-06
14670.0 4.0972e-06
14690.0 4.1597e-06
14710.0 4.2254e-06
14730.0 4.291e-06
14750.0 4.3637e-06
14770.0 4.4461e-06
14790.0 4.5355e-06
14810.0 4.6323e-06
14830.0 4.7471e-06
14850.0 4.872e-06
14870.0 5.0024e-06
14890.0 5.1431e-06
14910.0 5.2927e-06
14930.0 5.4367e-06
14950.0 5.5713e-06
14970.0 5.6989e-06
14990.0 5.8061e-06
15010.0 5.8882e-06
15030.0 5.9493e-06
15050.0 5.99e-06
15070.0 6.0103e-06
15090.0 6.0179e-06
15110.0 6.0168e-06
15130.0 6.01e-06
15150.0 6.0007e-06
15170.0 5.9894e-06
15190.0 5.9773e-06
15210.0 5.9654e-06
15230.0 5.9535e-06
15250.0 5.9412e-06
15270.0 5.929e-06
15290.0 5.9175e-06
15310.0 5.9057e-06
15330.0 5.8938e-06
15350.0 5.8823e-06
15370.0 5.871e-06
15390.0 5.859e-06
15410.0 5.8475e-06
15430.0 5.8364e-06
15450.0 5.825e-06
15470.0 5.8133e-06
15490.0 5.8024e-06
15510.0 5.7914e-06
15530.0 5.78e-06
15550.0 5.769e-06
15570.0 5.7583e-06
15590.0 5.7471e-06
15610.0 5.7358e-06
15630.0 5.7251e-06
15650.0 5.7144e-06
15670.0 5.7033e-06
15690.0 5.6925e-06
15710.0 5.6822e-06
15730.0 5.6713e-06
15750.0 5.6604e-06
15770.0 5.65e-06
15790.0 5.6394e-06
15810.0 5.6283e-06
15830.0 5.6178e-06
15850.0 5.6075e-06
15870.0 5.5969e-06
15890.0 5.5862e-06
15910.0 5.576e-06
15930.0 5.5655e-06
15950.0 5.5546e-06
15970.0 5.5442e-06
15990.0 5.534e-06
16010.0 5.5233e-06
16030.0 5.5125e-06
16050.0 5.5025e-06
16070.0 5.4921e-06
16090.0 5.4814e-06
16110.0 5.471e-06
16130.0 5.4609e-06
16150.0 5.45e-06
16170.0 5.4393e-06
16190.0 5.4291e-06
16210.0 5.4187e-06
16230.0 5.4079e-06
16250.0 5.3975e-06
16270.0 5.3873e-06
16290.0 5.3765e-06
16310.0 5.3659e-06
16330.0 5.3556e-06
16350.0 5.345e-06
16370.0 5.3338e-06
16390.0 5.3234e-06
16410.0 5.313e-06
16430.0 5.3022e-06
16450.0 5.2914e-06
16470.0 5.2811e-06
16490.0 5.2702e-06
16510.0 5.2592e-06
16530.0 5.2485e-06
16550.0 5.2379e-06
16570.0 5.2267e-06
16590.0 5.2156e-06
16610.0 5.2052e-06
16630.0 5.1942e-06
16650.0 5.183e-06
16670.0 5.1722e-06
16690.0 5.1614e-06
16710.0 5.1499e-06
16730.0 5.1387e-06
16750.0 5.1278e-06
16770.0 5.1166e-06
16790.0 5.105e-06
16810.0 5.094e-06
16830.0 5.083e-06
16850.0 5.0713e-06
16870.0 5.06e-06
16890.0 5.0489e-06
16910.0 5.0372e-06
16930.0 5.0253e-06
16950.0 5.0141e-06
16970.0 5.0026e-06
16990.0 4.9907e-06
17010.0 4.9791e-06
17030.0 4.9678e-06
17050.0 4.9558e-06
17070.0 4.9438e-06
17090.0 4.9323e-06
17110.0 4.9205e-06
17130.0 4.9081e-06
17150.0 4.8962e-06
17170.0 4.8845e-06
17190.0 4.8723e-06
17210.0 4.86e-06
17230.0 4.8483e-06
17250.0 4.8361e-06
17270.0 4.8235e-06
17290.0 4.8113e-06
17310.0 4.7992e-06
17330.0 4.7866e-06
17350.0 4.7739e-06
17370.0 4.7619e-06
17390.0 4.7495e-06
17410.0 4.7367e-06
17430.0 4.7242e-06
17450.0 4.712e-06
17470.0 4.6988e-06
17490.0 4.6859e-06
17510.0 4.6735e-06
17530.0 4.6607e-06
17550.0 4.6476e-06
17570.0 4.6349e-06
17590.0 4.6223e-06
17610.0 4.609e-06
17630.0 4.596e-06
17650.0 4.5832e-06
17670.0 4.5701e-06
17690.0 4.5564e-06
17710.0 4.5435e-06
17730.0 4.5306e-06
17750.0 4.5171e-06
17770.0 4.5038e-06
17790.0 4.4909e-06
17810.0 4.4774e-06
17830.0 4.4637e-06
17850.0 4.4505e-06
17870.0 4.4372e-06
17890.0 4.4233e-06
17910.0 4.4097e-06
17930.0 4.3966e-06
17950.0 4.3829e-06
17970.0 4.3691e-06
17990.0 4.3557e-06
18010.0 4.3422e-06
18030.0 4.3279e-06
18050.0 4.3142e-06
18070.0 4.3007e-06
18090.0 4.2868e-06
18110.0 4.2726e-06
18130.0 4.2591e-06
18150.0 4.2453e-06
18170.0 4.2311e-06
18190.0 4.2172e-06
18210.0 4.2036e-06
18230.0 4.1893e-06
18250.0 4.1749e-06
18270.0 4.1612e-06
18290.0 4.1472e-06
18310.0 4.1328e-06
18330.0 4.1188e-06
18350.0 4.105e-06
18370.0 4.0906e-06
18390.0 4.0762e-06
18410.0 4.0623e-06
18430.0 4.0481e-06
18450.0 4.0333e-06
18470.0 4.0192e-06
18490.0 4.0052e-06
18510.0 3.9907e-06
18530.0 3.9763e-06
18550.0 3.9624e-06
18570.0 3.948e-06
18590.0 3.9332e-06
18610.0 3.9189e-06
18630.0 3.9048e-06
18650.0 3.8901e-06
18670.0 3.8754e-06
18690.0 3.8614e-06
18710.0 3.847e-06
18730.0 3.8323e-06
18750.0 3.818e-06
18770.0 3.8039e-06
18790.0 3.7889e-06
18810.0 3.7742e-06
18830.0 3.76e-06
18850.0 3.7455e-06
18870.0 3.7307e-06
18890.0 3.7164e-06
18910.0 3.7022e-06
18930.0 3.6873e-06
18950.0 3.6727e-06
18970.0 3.6585e-06
18990.0 3.6439e-06
19010.0 3.6287e-06
19030.0 3.6145e-06
19050.0 3.6001e-06
19070.0 3.5853e-06
19090.0 3.5708e-06
19110.0 3.5567e-06
19130.0 3.5419e-06
19150.0 3.527e-06
19170.0 3.5126e-06
19190.0 3.4982e-06
19210.0 3.4833e-06
19230.0 3.4686e-06
19250.0 3.4545e-06
19270.0 3.4398e-06
19290.0 3.4251e-06
19310.0 3.4108e-06
19330.0 3.3964e-06
19350.0 3.3814e-06
19370.0 3.3668e-06
19390.0 3.3526e-06
19410.0 3.3379e-06
19430.0 3.3231e-06
19450.0 3.3089e-06
19470.0 3.2945e-06
19490.0 3.2797e-06
19510.0 3.2653e-06
19530.0 3.2511e-06
19550.0 3.2363e-06
19570.0 3.2215e-06
19590.0 3.2073e-06
19610.0 3.1929e-06
19630.0 3.1782e-06
19650.0 3.1639e-06
19670.0 3.1498e-06
19690.0 3.1351e-06
19710.0 3.1205e-06
19730.0 3.1063e-06
19750.0 3.092e-06
19770.0 3.0771e-06
19790.0 3.0628e-06
19810.0 3.0487e-06
19830.0 3.0341e-06
19850.0 3.0194e-06
19870.0 3.005e-06
19890.0 2.9896e-06
19910.0 2.9727e-06
19930.0 2.9546e-06
19950.0 2.934e-06
19970.0 2.9088e-06
19990.0 2.8785e-06
20010.0 2.5664e-06
20030.0 2.5289e-06
20050.0 2.4851e-06
20070.0 2.4378e-06
20090.0 2.3868e-06
20110.0 2.3293e-06
20130.0 2.2711e-06
20150.0 2.2135e-06
20170.0 2.1537e-06
20190.0 2.0932e-06
20210.0 2.036e-06
20230.0 1.9803e-06
20250.0 1.9244e-06
20270.0 1.8726e-06
20290.0 1.8252e-06
20310.0 1.7802e-06
20330.0 1.7382e-06
20350.0 1.7032e-06
20370.0 1.6722e-06
20390.0 1.6449e-06
20410.0 1.6229e-06
20430.0 1.6058e-06
20450.0 1.5922e-06
20470.0 1.5831e-06
20490.0 1.578e-06
20510.0 1.5764e-06
20530.0 1.5781e-06
20550.0 1.5828e-06
20570.0 1.5897e-06
20590.0 1.5992e-06
20610.0 1.6106e-06
20630.0 1.6233e-06
20650.0 1.6376e-06
20670.0 1.6539e-06
20690.0 1.6705e-06
20710.0 1.6877e-06
20730.0 1.7063e-06
20750.0 1.7257e-06
20770.0 1.7448e-06
20790.0 1.7648e-06
20810.0 1.786e-06
20830.0 1.8071e-06
20850.0 1.8282e-06
20870.0 1.8508e-06
20890.0 1.8738e-06
20910.0 1.896e-06
20930.0 1.9191e-06
20950.0 1.9429e-06
20970.0 1.9661e-06
20990.0 1.989e-06
21010.0 2.0131e-06
21030.0 2.0366e-06
21050.0 2.059e-06
21070.0 2.0814e-06
21090.0 2.1039e-06
21110.0 2.1243e-06
21130.0 2.1435e-06
21150.0 2.1621e-06
21170.0 2.1789e-06
21190.0 2.1934e-06
21210.0 2.2063e-06
21230.0 2.2171e-06
21250.0 2.2248e-06
21270.0 2.2296e-06
21290.0 2.2313e-06
21310.0 2.2294e-06
21330.0 2.2241e-06
21350.0 2.2148e-06
21370.0 2.2012e-06
21390.0 2.1839e-06
21410.0 2.1627e-06
21430.0 2.136e-06
21450.0 2.106e-06
21470.0 2.0733e-06
21490.0 2.0364e-06
21510.0 1.9959e-06
21530.0 1.9547e-06
21550.0 1.9116e-06
21570.0 1.8656e-06
21590.0 1.8204e-06
21610.0 1.7768e-06
21630.0 1.733e-06
21650.0 1.6903e-06
21670.0 1.6533e-06
21690.0 1.6191e-06
21710.0 1.5884e-06
21730.0 1.5632e-06
21750.0 1.5437e-06
21770.0 1.5288e-06
21790.0 1.5202e-06
21810.0 1.5178e-06
21830.0 1.521e-06
21850.0 1.5304e-06
21870.0 1.545e-06
21890.0 1.5639e-06
21910.0 1.5883e-06
21930.0 1.6168e-06
21950.0 1.6477e-06
21970.0 1.682e-06
21990.0 1.7205e-06
22010.0 1.759e-06
22030.0 1.798e-06
22050.0 1.8391e-06
22070.0 1.8804e-06
22090.0 1.9194e-06
22110.0 1.9588e-06
22130.0 1.9982e-06
22150.0 2.0349e-06
22170.0 2.0696e-06
22190.0 2.1039e-06
22210.0 2.1358e-06
22230.0 2.164e-06
22250.0 2.1904e-06
22270.0 2.2148e-06
22290.0 2.2356e-06
22310.0 2.2534e-06
22330.0 2.2691e-06
22350.0 2.2813e-06
22370.0 2.2898e-06
22390.0 2.2951e-06
22410.0 2.2967e-06
22430.0 2.2944e-06
22450.0 2.2885e-06
22470.0 2.2782e-06
22490.0 2.2638e-06
22510.0 2.2459e-06
22530.0 2.223e-06
22550.0 2.1952e-06
22570.0 2.1643e-06
22590.0 2.1295e-06
22610.0 2.0896e-06
22630.0 2.0463e-06
