#lamb flux
1010.0 6.804e-09
1030.0 7.5253e-09
1050.0 8.3549e-09
1070.0 9.2888e-09
1090.0 1.035e-08
1110.0 1.1438e-08
1130.0 1.2533e-08
1150.0 1.368e-08
1170.0 1.4863e-08
1190.0 1.5985e-08
1210.0 1.7122e-08
1230.0 1.8297e-08
1250.0 1.9448e-08
1270.0 2.0566e-08
1290.0 2.1748e-08
1310.0 2.2928e-08
1330.0 2.406e-08
1350.0 2.5205e-08
1370.0 2.6387e-08
1390.0 2.754e-08
1410.0 2.8658e-08
1430.0 2.9827e-08
1450.0 3.0996e-08
1470.0 3.2126e-08
1490.0 3.3268e-08
1510.0 3.4474e-08
1530.0 3.5618e-08
1550.0 3.6746e-08
1570.0 3.7913e-08
1590.0 3.9082e-08
1610.0 4.0199e-08
1630.0 4.1351e-08
1650.0 4.2534e-08
1670.0 4.3678e-08
1690.0 4.4809e-08
1710.0 4.5984e-08
1730.0 4.7167e-08
1750.0 4.828e-08
1770.0 4.9427e-08
1790.0 5.0599e-08
1810.0 5.1734e-08
1830.0 5.2852e-08
1850.0 5.4039e-08
1870.0 5.5198e-08
1890.0 5.632e-08
1910.0 5.7466e-08
1930.0 5.8643e-08
1950.0 5.9768e-08
1970.0 6.0883e-08
1990.0 6.2042e-08
2010.0 6.3184e-08
2030.0 6.4288e-08
2050.0 6.5429e-08
2070.0 6.6601e-08
2090.0 6.7709e-08
2110.0 6.8816e-08
2130.0 6.9959e-08
2150.0 7.1082e-08
2170.0 7.2159e-08
2190.0 7.3278e-08
2210.0 7.4407e-08
2230.0 7.5491e-08
2250.0 7.6573e-08
2270.0 7.7704e-08
2290.0 7.8802e-08
2310.0 7.9857e-08
2330.0 8.0955e-08
2350.0 8.2082e-08
2370.0 8.3204e-08
2390.0 8.4421e-08
2410.0 8.5861e-08
2430.0 8.7518e-08
2450.0 8.9498e-08
2470.0 9.2036e-08
2490.0 9.5235e-08
2510.0 9.887e-08
2530.0 1.0325e-07
2550.0 1.0872e-07
2570.0 1.1554e-07
2590.0 1.244e-07
2610.0 1.3767e-07
2630.0 1.5662e-07
2650.0 1.814e-07
2670.0 2.1343e-07
2690.0 2.528e-07
2710.0 2.9482e-07
2730.0 3.3634e-07
2750.0 3.7723e-07
2770.0 4.1281e-07
2790.0 4.4105e-07
2810.0 4.6347e-07
2830.0 4.8098e-07
2850.0 4.9294e-07
2870.0 5.0172e-07
2890.0 5.0866e-07
2910.0 5.1421e-07
2930.0 5.1874e-07
2950.0 5.2306e-07
2970.0 5.2729e-07
2990.0 5.3126e-07
3010.0 1.5016e-05
3030.0 1.5129e-05
3050.0 1.5237e-05
3070.0 1.533e-05
3090.0 1.541e-05
3110.0 1.5459e-05
3130.0 1.5457e-05
3150.0 1.5389e-05
3170.0 1.5224e-05
3190.0 1.4965e-05
3210.0 1.4637e-05
3230.0 1.4261e-05
3250.0 1.389e-05
3270.0 1.3619e-05
3290.0 1.3469e-05
3310.0 1.3493e-05
3330.0 1.3689e-05
3350.0 1.4029e-05
3370.0 1.4514e-05
3390.0 1.5126e-05
3410.0 1.5792e-05
3430.0 1.654e-05
3450.0 1.74e-05
3470.0 1.834e-05
3490.0 1.9336e-05
3510.0 2.0462e-05
3530.0 2.1668e-05
3550.0 2.2889e-05
3570.0 2.4162e-05
3590.0 2.5547e-05
3610.0 2.6974e-05
3630.0 2.8396e-05
3650.0 2.9872e-05
3670.0 3.122e-05
3690.0 3.2227e-05
3710.0 3.2804e-05
3730.0 3.2823e-05
3750.0 3.2367e-05
3770.0 3.2187e-05
3790.0 3.1996e-05
3810.0 3.1209e-05
3830.0 3.2175e-05
3850.0 3.5976e-05
3870.0 3.8062e-05
3890.0 3.7888e-05
3910.0 3.805e-05
3930.0 3.9052e-05
3950.0 3.9668e-05
3970.0 3.6141e-05
3990.0 3.1098e-05
4010.0 9.3205e-05
4030.0 0.00011293
4050.0 0.00012947
4070.0 0.00011234
4090.0 0.00010174
4110.0 8.9778e-05
4130.0 8.2631e-05
4150.0 8.7895e-05
4170.0 8.658e-05
4190.0 9.2288e-05
4210.0 9.1444e-05
4230.0 9.6723e-05
4250.0 0.00011443
4270.0 0.00011577
4290.0 0.00010668
4310.0 0.00011085
4330.0 0.00011791
4350.0 0.00013221
4370.0 0.00015045
4390.0 0.00014119
4410.0 0.00010431
4430.0 8.8306e-05
4450.0 8.1143e-05
4470.0 6.228e-05
4490.0 6.7208e-05
4510.0 0.00010152
4530.0 0.00011708
4550.0 0.0001181
4570.0 0.00013289
4590.0 0.00015137
4610.0 0.00020417
4630.0 0.00026517
4650.0 0.00028758
4670.0 0.00026632
4690.0 0.00025412
4710.0 0.00026862
4730.0 0.0002535
4750.0 0.00018953
4770.0 0.00013902
4790.0 0.00012982
4810.0 0.00012374
4830.0 0.00011328
4850.0 0.00012431
4870.0 0.00016422
4890.0 0.00019367
4910.0 0.00016992
4930.0 0.00015035
4950.0 0.00016519
4970.0 0.00021184
4990.0 0.00028709
5010.0 0.00033026
5030.0 0.00029122
5050.0 0.00019703
5070.0 0.00012985
5090.0 0.0001047
5110.0 0.00010768
5130.0 0.00012428
5150.0 0.00013464
5170.0 0.00013262
5190.0 0.00012393
5210.0 0.00012953
5230.0 0.00013617
5250.0 0.00014675
5270.0 0.00015834
5290.0 0.00017547
5310.0 0.00020424
5330.0 0.00022602
5350.0 0.00022458
5370.0 0.0002359
5390.0 0.0002707
5410.0 0.00027046
5430.0 0.00023918
5450.0 0.00021975
5470.0 0.00023334
5490.0 0.00028508
5510.0 0.00035645
5530.0 0.00040883
5550.0 0.00039514
5570.0 0.00035921
5590.0 0.00031234
5610.0 0.00028805
5630.0 0.00027932
5650.0 0.00026602
5670.0 0.00025208
5690.0 0.00022536
5710.0 0.00021973
5730.0 0.00020241
5750.0 0.00014271
5770.0 0.00011134
5790.0 0.00012617
5810.0 0.00014247
5830.0 0.00017483
5850.0 0.00020811
5870.0 0.0002309
5890.0 0.00023482
5910.0 0.00023037
5930.0 0.00021929
5950.0 0.00022345
5970.0 0.00025471
5990.0 0.0002395
6010.0 0.00020077
6030.0 0.00016962
6050.0 0.00014772
6070.0 0.00014691
6090.0 0.0001593
6110.0 0.00017812
6130.0 0.00018085
6150.0 0.00015561
6170.0 0.00013689
6190.0 0.00015405
6210.0 0.00020365
6230.0 0.00026724
6250.0 0.00028946
6270.0 0.00025295
6290.0 0.00021282
6310.0 0.00016614
6330.0 0.0001273
6350.0 0.00011355
6370.0 0.0001194
6390.0 0.00013804
6410.0 0.00017021
6430.0 0.00019876
6450.0 0.00022743
6470.0 0.00026041
6490.0 0.00031456
6510.0 0.00035172
6530.0 0.00034506
6550.0 0.00031202
6570.0 0.00026488
6590.0 0.00023885
6610.0 0.00020595
6630.0 0.00018658
6650.0 0.00017637
6670.0 0.00017134
6690.0 0.00015482
6710.0 0.00014073
6730.0 0.00010137
6750.0 0.0001005
6770.0 0.00010923
6790.0 0.00012555
6810.0 0.00011488
6830.0 0.0001183
6850.0 0.00011065
6870.0 0.00010108
6890.0 9.7048e-05
6910.0 0.00010342
6930.0 9.6865e-05
6950.0 9.9658e-05
6970.0 0.00010482
6990.0 0.00011898
7010.0 0.00011999
7030.0 0.0001219
7050.0 0.00011625
7070.0 0.00011077
7090.0 0.00011109
7110.0 0.0001143
7130.0 0.00012301
7150.0 0.00013065
7170.0 0.00014416
7190.0 0.00015847
7210.0 0.00015572
7230.0 0.00016008
7250.0 0.00017203
7270.0 0.00018747
7290.0 0.00022251
7310.0 0.00024145
7330.0 0.00023338
7350.0 0.00021108
7370.0 0.00018366
7390.0 0.00017817
7410.0 0.00018934
7430.0 0.00021043
7450.0 0.00022919
7470.0 0.00022709
7490.0 0.00020706
7510.0 0.00023455
7530.0 0.00023198
7550.0 0.00020851
7570.0 0.00016288
7590.0 0.00011198
7610.0 9.611e-05
7630.0 0.0001092
7650.0 0.00012911
7670.0 0.00016069
7690.0 0.00017683
7710.0 0.00018428
7730.0 0.00019365
7750.0 0.00021739
7770.0 0.00022081
7790.0 0.00020283
7810.0 0.00018507
7830.0 0.00019085
7850.0 0.00018552
7870.0 0.00017009
7890.0 0.00014291
7910.0 0.00011616
7930.0 0.00011092
7950.0 0.00010105
7970.0 9.3541e-05
7990.0 9.3007e-05
8010.0 6.8884e-06
8030.0 6.7988e-06
8050.0 6.7071e-06
8070.0 6.7949e-06
8090.0 7.301e-06
8110.0 7.1766e-06
8130.0 5.9198e-06
8150.0 5.7651e-06
8170.0 4.9659e-06
8190.0 4.7062e-06
8210.0 6.1115e-06
8230.0 6.8043e-06
8250.0 6.1327e-06
8270.0 5.3376e-06
8290.0 5.2032e-06
8310.0 4.0046e-06
8330.0 2.6991e-06
8350.0 1.9155e-06
8370.0 1.2069e-06
8390.0 2.2061e-06
8410.0 2.5707e-06
8430.0 3.1688e-06
8450.0 3.721e-06
8470.0 4.625e-06
8490.0 4.5924e-06
8510.0 4.5173e-06
8530.0 4.7144e-06
8550.0 6.3607e-06
8570.0 7.5301e-06
8590.0 8.125e-06
8610.0 1.0264e-05
8630.0 1.2364e-05
8650.0 1.2934e-05
8670.0 1.3745e-05
8690.0 1.3822e-05
8710.0 1.2518e-05
8730.0 1.1643e-05
8750.0 1.0277e-05
8770.0 9.7518e-06
8790.0 9.5806e-06
8810.0 9.1803e-06
8830.0 7.3411e-06
8850.0 5.3742e-06
8870.0 4.1149e-06
8890.0 4.023e-06
8910.0 4.6104e-06
8930.0 5.244e-06
8950.0 5.3445e-06
8970.0 5.3697e-06
8990.0 4.7891e-06
9010.0 5.0188e-05
9030.0 4.5476e-05
9050.0 4.5696e-05
9070.0 4.6056e-05
9090.0 4.6373e-05
9110.0 4.6763e-05
9130.0 4.7065e-05
9150.0 4.7299e-05
9170.0 4.7549e-05
9190.0 4.7816e-05
9210.0 4.8097e-05
9230.0 4.8393e-05
9250.0 4.8694e-05
9270.0 4.9006e-05
9290.0 4.9328e-05
9310.0 4.9652e-05
9330.0 4.9983e-05
9350.0 5.0325e-05
9370.0 5.0672e-05
9390.0 5.1022e-05
9410.0 5.1382e-05
9430.0 5.1753e-05
9450.0 5.2123e-05
9470.0 5.25e-05
9490.0 5.2888e-05
9510.0 5.3281e-05
9530.0 5.3676e-05
9550.0 5.4084e-05
9570.0 5.45e-05
9590.0 5.4916e-05
9610.0 5.534e-05
9630.0 5.5775e-05
9650.0 5.6214e-05
9670.0 5.6654e-05
9690.0 5.7106e-05
9710.0 5.7564e-05
9730.0 5.8024e-05
9750.0 5.849e-05
9770.0 5.897e-05
9790.0 5.9449e-05
9810.0 5.9931e-05
9830.0 6.0423e-05
9850.0 6.0922e-05
9870.0 6.1418e-05
9890.0 6.1923e-05
9910.0 6.2437e-05
9930.0 6.2951e-05
9950.0 6.3467e-05
9970.0 6.3994e-05
9990.0 6.4526e-05
10010.0 5.5991e-05
10030.0 5.6451e-05
10050.0 5.692e-05
10070.0 5.7405e-05
10090.0 5.7862e-05
10110.0 5.8331e-05
10130.0 5.8801e-05
10150.0 5.927e-05
10170.0 5.9745e-05
10190.0 6.0227e-05
10210.0 6.0704e-05
10230.0 6.118e-05
10250.0 6.1664e-05
10270.0 6.2147e-05
10290.0 6.2624e-05
10310.0 6.3106e-05
10330.0 6.3594e-05
10350.0 6.4074e-05
10370.0 6.4552e-05
10390.0 6.5035e-05
10410.0 6.5517e-05
10430.0 6.5988e-05
10450.0 6.6465e-05
10470.0 6.6943e-05
10490.0 6.7412e-05
10510.0 6.7878e-05
10530.0 6.8353e-05
10550.0 6.8819e-05
10570.0 6.9276e-05
10590.0 6.9734e-05
10610.0 7.0193e-05
10630.0 7.064e-05
10650.0 7.1084e-05
10670.0 7.1532e-05
10690.0 7.1971e-05
10710.0 7.2401e-05
10730.0 7.2832e-05
10750.0 7.3264e-05
10770.0 7.3678e-05
10790.0 7.4089e-05
10810.0 7.4499e-05
10830.0 7.4896e-05
10850.0 7.5274e-05
10870.0 7.5639e-05
10890.0 7.5961e-05
10910.0 7.6208e-05
10930.0 7.6348e-05
10950.0 7.6316e-05
10970.0 7.6057e-05
10990.0 7.555e-05
11010.0 7.4701e-05
11030.0 7.3513e-05
11050.0 7.2065e-05
11070.0 7.0333e-05
11090.0 6.8252e-05
11110.0 6.6099e-05
11130.0 6.3854e-05
11150.0 6.1437e-05
11170.0 5.8945e-05
11190.0 5.6528e-05
11210.0 5.4032e-05
11230.0 5.1472e-05
11250.0 4.9026e-05
11270.0 4.6677e-05
11290.0 4.4324e-05
11310.0 4.2095e-05
11330.0 4.0132e-05
11350.0 3.8277e-05
11370.0 3.6564e-05
11390.0 3.5081e-05
11410.0 3.3784e-05
11430.0 3.2579e-05
11450.0 3.154e-05
11470.0 3.0642e-05
11490.0 2.9807e-05
11510.0 2.9002e-05
11530.0 2.8255e-05
11550.0 2.7513e-05
11570.0 2.6721e-05
11590.0 2.5901e-05
11610.0 2.5066e-05
11630.0 2.4158e-05
11650.0 2.3185e-05
11670.0 2.2227e-05
11690.0 2.1255e-05
11710.0 2.0252e-05
11730.0 1.9281e-05
11750.0 1.8382e-05
11770.0 1.75e-05
11790.0 1.6673e-05
11810.0 1.5946e-05
11830.0 1.5295e-05
11850.0 1.4696e-05
11870.0 1.4195e-05
11890.0 1.3778e-05
11910.0 1.3412e-05
11930.0 1.3097e-05
11950.0 1.2835e-05
11970.0 1.2601e-05
11990.0 1.2379e-05
12010.0 1.2175e-05
12030.0 1.1977e-05
12050.0 1.1773e-05
12070.0 1.1561e-05
12090.0 1.1357e-05
12110.0 1.1149e-05
12130.0 1.0941e-05
12150.0 1.0749e-05
12170.0 1.0582e-05
12190.0 1.0437e-05
12210.0 1.0336e-05
12230.0 1.0287e-05
12250.0 1.0295e-05
12270.0 1.0372e-05
12290.0 1.0519e-05
12310.0 1.073e-05
12330.0 1.1024e-05
12350.0 1.1392e-05
12370.0 1.181e-05
12390.0 1.2293e-05
12410.0 1.2858e-05
12430.0 1.3433e-05
12450.0 1.4028e-05
12470.0 1.466e-05
12490.0 1.5296e-05
12510.0 1.5892e-05
12530.0 1.6485e-05
12550.0 1.7057e-05
12570.0 1.7562e-05
12590.0 1.8006e-05
12610.0 1.8401e-05
12630.0 1.8716e-05
12650.0 1.8933e-05
12670.0 1.9076e-05
12690.0 1.9133e-05
12710.0 1.9102e-05
12730.0 1.8991e-05
12750.0 1.8793e-05
12770.0 1.8522e-05
12790.0 1.8194e-05
12810.0 1.7801e-05
12830.0 1.7347e-05
12850.0 1.6872e-05
12870.0 1.637e-05
12890.0 1.5826e-05
12910.0 1.5274e-05
12930.0 1.4729e-05
12950.0 1.4161e-05
12970.0 1.3583e-05
12990.0 1.3036e-05
13010.0 1.2495e-05
13030.0 1.1949e-05
13050.0 1.1424e-05
13070.0 1.0933e-05
13090.0 1.0439e-05
13110.0 9.9621e-06
13130.0 9.5221e-06
13150.0 9.1054e-06
13170.0 8.6974e-06
13190.0 8.3343e-06
13210.0 8.0148e-06
13230.0 7.7227e-06
13250.0 7.4711e-06
13270.0 7.2727e-06
13290.0 7.1184e-06
13310.0 7.0121e-06
13330.0 6.9637e-06
13350.0 6.9693e-06
13370.0 7.0318e-06
13390.0 7.1547e-06
13410.0 7.3206e-06
13430.0 7.5363e-06
13450.0 7.8028e-06
13470.0 8.0986e-06
13490.0 8.4119e-06
13510.0 8.7653e-06
13530.0 9.1235e-06
13550.0 9.4663e-06
13570.0 9.8044e-06
13590.0 1.0134e-05
13610.0 1.0427e-05
13630.0 1.0683e-05
13650.0 1.0917e-05
13670.0 1.111e-05
13690.0 1.126e-05
13710.0 1.1376e-05
13730.0 1.1459e-05
13750.0 1.1501e-05
13770.0 1.151e-05
13790.0 1.1489e-05
13810.0 1.1438e-05
13830.0 1.1364e-05
13850.0 1.1262e-05
13870.0 1.1134e-05
13890.0 1.0987e-05
13910.0 1.0822e-05
13930.0 1.0631e-05
13950.0 1.0423e-05
13970.0 1.021e-05
13990.0 9.9773e-06
14010.0 9.7304e-06
14030.0 9.484e-06
14050.0 9.2358e-06
14070.0 8.9737e-06
14090.0 8.7225e-06
14110.0 8.4865e-06
14130.0 8.2578e-06
14150.0 8.0424e-06
14170.0 7.8587e-06
14190.0 7.6997e-06
14210.0 7.5649e-06
14230.0 7.4651e-06
14250.0 7.4006e-06
14270.0 7.3693e-06
14290.0 7.376e-06
14310.0 7.4171e-06
14330.0 7.4909e-06
14350.0 7.5995e-06
14370.0 7.7349e-06
14390.0 7.8886e-06
14410.0 8.0697e-06
14430.0 8.2685e-06
14450.0 8.4715e-06
14470.0 8.6822e-06
14490.0 8.9062e-06
14510.0 9.1204e-06
14530.0 9.3239e-06
14550.0 9.5273e-06
14570.0 9.7225e-06
14590.0 9.9003e-06
14610.0 1.0072e-05
14630.0 1.0242e-05
14650.0 1.0401e-05
14670.0 1.0554e-05
14690.0 1.0713e-05
14710.0 1.0881e-05
14730.0 1.1049e-05
14750.0 1.1235e-05
14770.0 1.1445e-05
14790.0 1.1674e-05
14810.0 1.1921e-05
14830.0 1.2215e-05
14850.0 1.2534e-05
14870.0 1.2866e-05
14890.0 1.3225e-05
14910.0 1.3606e-05
14930.0 1.3973e-05
14950.0 1.4315e-05
14970.0 1.464e-05
14990.0 1.4912e-05
15010.0 1.5119e-05
15030.0 1.5273e-05
15050.0 1.5375e-05
15070.0 1.5425e-05
15090.0 1.5442e-05
15110.0 1.5437e-05
15130.0 1.5418e-05
15150.0 1.5392e-05
15170.0 1.5361e-05
15190.0 1.5328e-05
15210.0 1.5295e-05
15230.0 1.5263e-05
15250.0 1.5229e-05
15270.0 1.5196e-05
15290.0 1.5164e-05
15310.0 1.5132e-05
15330.0 1.5099e-05
15350.0 1.5068e-05
15370.0 1.5036e-05
15390.0 1.5004e-05
15410.0 1.4972e-05
15430.0 1.4941e-05
15450.0 1.491e-05
15470.0 1.4878e-05
15490.0 1.4848e-05
15510.0 1.4817e-05
15530.0 1.4786e-05
15550.0 1.4755e-05
15570.0 1.4726e-05
15590.0 1.4695e-05
15610.0 1.4664e-05
15630.0 1.4634e-05
15650.0 1.4605e-05
15670.0 1.4574e-05
15690.0 1.4544e-05
15710.0 1.4515e-05
15730.0 1.4485e-05
15750.0 1.4455e-05
15770.0 1.4426e-05
15790.0 1.4397e-05
15810.0 1.4367e-05
15830.0 1.4338e-05
15850.0 1.4309e-05
15870.0 1.428e-05
15890.0 1.425e-05
15910.0 1.4222e-05
15930.0 1.4193e-05
15950.0 1.4163e-05
15970.0 1.4135e-05
15990.0 1.4106e-05
16010.0 1.4077e-05
16030.0 1.4047e-05
16050.0 1.402e-05
16070.0 1.3991e-05
16090.0 1.3962e-05
16110.0 1.3933e-05
16130.0 1.3906e-05
16150.0 1.3876e-05
16170.0 1.3847e-05
16190.0 1.3819e-05
16210.0 1.379e-05
16230.0 1.376e-05
16250.0 1.3732e-05
16270.0 1.3704e-05
16290.0 1.3675e-05
16310.0 1.3646e-05
16330.0 1.3618e-05
16350.0 1.3589e-05
16370.0 1.3559e-05
16390.0 1.3531e-05
16410.0 1.3503e-05
16430.0 1.3473e-05
16450.0 1.3444e-05
16470.0 1.3416e-05
16490.0 1.3387e-05
16510.0 1.3357e-05
16530.0 1.3329e-05
16550.0 1.33e-05
16570.0 1.327e-05
16590.0 1.324e-05
16610.0 1.3212e-05
16630.0 1.3183e-05
16650.0 1.3153e-05
16670.0 1.3124e-05
16690.0 1.3095e-05
16710.0 1.3065e-05
16730.0 1.3035e-05
16750.0 1.3006e-05
16770.0 1.2976e-05
16790.0 1.2946e-05
16810.0 1.2917e-05
16830.0 1.2887e-05
16850.0 1.2857e-05
16870.0 1.2827e-05
16890.0 1.2798e-05
16910.0 1.2767e-05
16930.0 1.2736e-05
16950.0 1.2706e-05
16970.0 1.2676e-05
16990.0 1.2645e-05
17010.0 1.2615e-05
17030.0 1.2585e-05
17050.0 1.2554e-05
17070.0 1.2523e-05
17090.0 1.2492e-05
17110.0 1.2462e-05
17130.0 1.243e-05
17150.0 1.2399e-05
17170.0 1.2368e-05
17190.0 1.2337e-05
17210.0 1.2305e-05
17230.0 1.2275e-05
17250.0 1.2243e-05
17270.0 1.2211e-05
17290.0 1.2179e-05
17310.0 1.2148e-05
17330.0 1.2116e-05
17350.0 1.2083e-05
17370.0 1.2053e-05
17390.0 1.2021e-05
17410.0 1.1988e-05
17430.0 1.1956e-05
17450.0 1.1925e-05
17470.0 1.1891e-05
17490.0 1.1859e-05
17510.0 1.1827e-05
17530.0 1.1794e-05
17550.0 1.1761e-05
17570.0 1.1729e-05
17590.0 1.1697e-05
17610.0 1.1663e-05
17630.0 1.163e-05
17650.0 1.1598e-05
17670.0 1.1565e-05
17690.0 1.153e-05
17710.0 1.1497e-05
17730.0 1.1465e-05
17750.0 1.1431e-05
17770.0 1.1397e-05
17790.0 1.1365e-05
17810.0 1.1331e-05
17830.0 1.1296e-05
17850.0 1.1263e-05
17870.0 1.123e-05
17890.0 1.1195e-05
17910.0 1.116e-05
17930.0 1.1127e-05
17950.0 1.1093e-05
17970.0 1.1059e-05
17990.0 1.1025e-05
18010.0 1.0991e-05
18030.0 1.0956e-05
18050.0 1.0921e-05
18070.0 1.0888e-05
18090.0 1.0853e-05
18110.0 1.0818e-05
18130.0 1.0784e-05
18150.0 1.075e-05
18170.0 1.0714e-05
18190.0 1.0679e-05
18210.0 1.0646e-05
18230.0 1.061e-05
18250.0 1.0574e-05
18270.0 1.054e-05
18290.0 1.0505e-05
18310.0 1.047e-05
18330.0 1.0435e-05
18350.0 1.0401e-05
18370.0 1.0365e-05
18390.0 1.0329e-05
18410.0 1.0294e-05
18430.0 1.0259e-05
18450.0 1.0223e-05
18470.0 1.0188e-05
18490.0 1.0153e-05
18510.0 1.0117e-05
18530.0 1.0081e-05
18550.0 1.0047e-05
18570.0 1.0011e-05
18590.0 9.9747e-06
18610.0 9.9394e-06
18630.0 9.9044e-06
18650.0 9.8681e-06
18670.0 9.8318e-06
18690.0 9.7972e-06
18710.0 9.7616e-06
18730.0 9.7252e-06
18750.0 9.6899e-06
18770.0 9.6549e-06
18790.0 9.6178e-06
18810.0 9.5817e-06
18830.0 9.5467e-06
18850.0 9.5108e-06
18870.0 9.4741e-06
18890.0 9.4389e-06
18910.0 9.4037e-06
18930.0 9.3671e-06
18950.0 9.331e-06
18970.0 9.2959e-06
18990.0 9.2598e-06
19010.0 9.2224e-06
19030.0 9.1873e-06
19050.0 9.1519e-06
19070.0 9.1153e-06
19090.0 9.0793e-06
19110.0 9.0445e-06
19130.0 9.008e-06
19150.0 8.9713e-06
19170.0 8.9359e-06
19190.0 8.9003e-06
19210.0 8.8634e-06
19230.0 8.8272e-06
19250.0 8.7923e-06
19270.0 8.7561e-06
19290.0 8.7197e-06
19310.0 8.6844e-06
19330.0 8.649e-06
19350.0 8.6117e-06
19370.0 8.5758e-06
19390.0 8.5406e-06
19410.0 8.5044e-06
19430.0 8.4678e-06
19450.0 8.4328e-06
19470.0 8.3972e-06
19490.0 8.3606e-06
19510.0 8.3249e-06
19530.0 8.2899e-06
19550.0 8.2533e-06
19570.0 8.2166e-06
19590.0 8.1817e-06
19610.0 8.1461e-06
19630.0 8.1096e-06
19650.0 8.0742e-06
19670.0 8.0394e-06
19690.0 8.0029e-06
19710.0 7.9668e-06
19730.0 7.9318e-06
19750.0 7.8962e-06
19770.0 7.8593e-06
19790.0 7.824e-06
19810.0 7.7891e-06
19830.0 7.7528e-06
19850.0 7.7165e-06
19870.0 7.6807e-06
19890.0 7.6424e-06
19910.0 7.6002e-06
19930.0 7.5551e-06
19950.0 7.5035e-06
19970.0 7.44e-06
19990.0 7.3636e-06
20010.0 6.5513e-06
20030.0 6.4565e-06
20050.0 6.3455e-06
20070.0 6.2253e-06
20090.0 6.096e-06
20110.0 5.9496e-06
20130.0 5.8015e-06
20150.0 5.6548e-06
20170.0 5.5026e-06
20190.0 5.3482e-06
20210.0 5.2024e-06
20230.0 5.0602e-06
20250.0 4.9177e-06
20270.0 4.7854e-06
20290.0 4.6647e-06
20310.0 4.5499e-06
20330.0 4.4427e-06
20350.0 4.3537e-06
20370.0 4.2747e-06
20390.0 4.2054e-06
20410.0 4.1494e-06
20430.0 4.1063e-06
20450.0 4.0721e-06
20470.0 4.0492e-06
20490.0 4.0369e-06
20510.0 4.0334e-06
20530.0 4.0383e-06
20550.0 4.0508e-06
20570.0 4.0689e-06
20590.0 4.0935e-06
20610.0 4.1232e-06
20630.0 4.156e-06
20650.0 4.1927e-06
20670.0 4.2345e-06
20690.0 4.2772e-06
20710.0 4.3214e-06
20730.0 4.369e-06
20750.0 4.4187e-06
20770.0 4.4676e-06
20790.0 4.519e-06
20810.0 4.5733e-06
20830.0 4.6273e-06
20850.0 4.6816e-06
20870.0 4.7397e-06
20890.0 4.799e-06
20910.0 4.8562e-06
20930.0 4.9155e-06
20950.0 4.977e-06
20970.0 5.0369e-06
20990.0 5.096e-06
21010.0 5.1582e-06
21030.0 5.219e-06
21050.0 5.277e-06
21070.0 5.3349e-06
21090.0 5.393e-06
21110.0 5.446e-06
21130.0 5.4957e-06
21150.0 5.544e-06
21170.0 5.5876e-06
21190.0 5.6252e-06
21210.0 5.659e-06
21230.0 5.6871e-06
21250.0 5.7071e-06
21270.0 5.7198e-06
21290.0 5.7246e-06
21310.0 5.72e-06
21330.0 5.7065e-06
21350.0 5.6828e-06
21370.0 5.648e-06
21390.0 5.6038e-06
21410.0 5.5497e-06
21430.0 5.4811e-06
21450.0 5.4041e-06
21470.0 5.3202e-06
21490.0 5.2254e-06
21510.0 5.1214e-06
21530.0 5.0157e-06
21550.0 4.905e-06
21570.0 4.7869e-06
21590.0 4.6707e-06
21610.0 4.5585e-06
21630.0 4.4462e-06
21650.0 4.3364e-06
21670.0 4.2413e-06
21690.0 4.1536e-06
21710.0 4.0745e-06
21730.0 4.0098e-06
21750.0 3.9599e-06
21770.0 3.9219e-06
21790.0 3.9e-06
21810.0 3.8939e-06
21830.0 3.9026e-06
21850.0 3.927e-06
21870.0 3.965e-06
21890.0 4.0141e-06
21910.0 4.0772e-06
21930.0 4.1511e-06
21950.0 4.2312e-06
21970.0 4.3199e-06
21990.0 4.4195e-06
22010.0 4.519e-06
22030.0 4.6201e-06
22050.0 4.7263e-06
22070.0 4.833e-06
22090.0 4.9341e-06
22110.0 5.036e-06
22130.0 5.1377e-06
22150.0 5.2327e-06
22170.0 5.3222e-06
22190.0 5.411e-06
22210.0 5.4936e-06
22230.0 5.5663e-06
22250.0 5.6347e-06
22270.0 5.6978e-06
22290.0 5.7516e-06
22310.0 5.7979e-06
22330.0 5.8386e-06
22350.0 5.8701e-06
22370.0 5.8923e-06
22390.0 5.9062e-06
22410.0 5.9105e-06
22430.0 5.9049e-06
22450.0 5.8897e-06
22470.0 5.8634e-06
22490.0 5.8265e-06
22510.0 5.7805e-06
22530.0 5.7216e-06
22550.0 5.65e-06
22570.0 5.5705e-06
22590.0 5.4809e-06
22610.0 5.3779e-06
22630.0 5.2663e-06
