#lamb flux
1010.0 5.1793e-05
1030.0 5.8021e-05
1050.0 6.4202e-05
1070.0 7.1186e-05
1090.0 7.9435e-05
1110.0 8.7891e-05
1130.0 9.6425e-05
1150.0 0.00010541
1170.0 0.00011478
1190.0 0.00012383
1210.0 0.00013321
1230.0 0.00014315
1250.0 0.00015315
1270.0 0.00016325
1290.0 0.00017424
1310.0 0.00018564
1330.0 0.00019707
1350.0 0.000209
1370.0 0.00022161
1390.0 0.00023431
1410.0 0.00024698
1430.0 0.0002603
1450.0 0.00027377
1470.0 0.00028696
1490.0 0.00030027
1510.0 0.00031412
1530.0 0.00032726
1550.0 0.00034007
1570.0 0.000353
1590.0 0.00036564
1610.0 0.00037741
1630.0 0.00038898
1650.0 0.00040037
1670.0 0.00041089
1690.0 0.00042073
1710.0 0.00043041
1730.0 0.00043956
1750.0 0.00044748
1770.0 0.00045512
1790.0 0.00046243
1810.0 0.00046887
1830.0 0.00047466
1850.0 0.00048066
1870.0 0.00048602
1890.0 0.00049076
1910.0 0.00049548
1930.0 0.00050029
1950.0 0.00050456
1970.0 0.00050868
1990.0 0.00051315
2010.0 0.00051748
2030.0 0.00052149
2050.0 0.00052578
2070.0 0.00053026
2090.0 0.00053411
2110.0 0.00053779
2130.0 0.0005415
2150.0 0.00054472
2170.0 0.00054718
2190.0 0.00054947
2210.0 0.00055124
2230.0 0.00055204
2250.0 0.00055212
2270.0 0.00055181
2290.0 0.00055047
2310.0 0.00054801
2330.0 0.00054498
2350.0 0.00054119
2370.0 0.00053628
2390.0 0.00053062
2410.0 0.00052441
2430.0 0.00051707
2450.0 0.00050864
2470.0 0.00049933
2490.0 0.00048905
2510.0 0.00047788
2530.0 0.00046695
2550.0 0.00045794
2570.0 0.00045291
2590.0 0.00045408
2610.0 0.00046625
2630.0 0.00049082
2650.0 0.00052548
2670.0 0.00057028
2690.0 0.00062238
2710.0 0.00067137
2730.0 0.00071127
2750.0 0.00074034
2770.0 0.00075045
2790.0 0.00073941
2810.0 0.00070844
2830.0 0.00065672
2850.0 0.00059008
2870.0 0.0005121
2890.0 0.00042333
2910.0 0.00032827
2930.0 0.0002322
2950.0 0.00013085
2970.0 3.5561e-05
2990.0 3.5561e-05
3010.0 7.221e-05
3030.0 7.221e-05
3050.0 7.221e-05
3070.0 7.221e-05
3090.0 7.221e-05
3110.0 7.221e-05
3130.0 7.221e-05
3150.0 7.221e-05
3170.0 7.221e-05
3190.0 7.221e-05
3210.0 7.221e-05
3230.0 0.0029354
3250.0 0.0052291
3270.0 0.0049051
3290.0 0.0045788
3310.0 0.0034804
3330.0 0.0033779
3350.0 0.0037305
3370.0 0.0042564
3390.0 0.0048353
3410.0 0.0054562
3430.0 0.0062745
3450.0 0.0070756
3470.0 0.0079053
3490.0 0.0082096
3510.0 0.0074566
3530.0 0.0071718
3550.0 0.0079354
3570.0 0.0085214
3590.0 0.0092354
3610.0 0.0090172
3630.0 0.010924
3650.0 0.011927
3670.0 0.012596
3690.0 0.012514
3710.0 0.01133
3730.0 0.011188
3750.0 0.010628
3770.0 0.010265
3790.0 0.0096671
3810.0 0.0091944
3830.0 0.009488
3850.0 0.0050276
3870.0 0.0067446
3890.0 0.0078193
3910.0 0.0096125
3930.0 0.012338
3950.0 0.013375
3970.0 0.014941
3990.0 0.017898
4010.0 0.015176
4030.0 0.013057
4050.0 0.009429
4070.0 0.0088862
4090.0 0.013097
4110.0 0.013098
4130.0 0.014257
4150.0 0.013663
4170.0 0.012938
4190.0 0.011743
4210.0 0.015821
4230.0 0.016707
4250.0 0.018209
4270.0 0.017335
4290.0 0.01709
4310.0 0.018564
4330.0 0.021804
4350.0 0.022758
4370.0 0.022622
4390.0 0.02064
4410.0 0.019043
4430.0 0.014845
4450.0 0.012088
4470.0 0.013052
4490.0 0.015304
4510.0 0.015932
4530.0 0.016058
4550.0 0.016245
4570.0 0.023146
4590.0 0.034645
4610.0 0.040707
4630.0 0.041235
4650.0 0.044465
4670.0 0.051843
4690.0 0.056197
4710.0 0.046847
4730.0 0.035734
4750.0 0.027992
4770.0 0.024135
4790.0 0.022076
4810.0 0.020929
4830.0 0.023198
4850.0 0.027411
4870.0 0.030057
4890.0 0.031392
4910.0 0.029566
4930.0 0.031967
4950.0 0.039015
4970.0 0.045453
4990.0 0.047138
5010.0 0.043407
5030.0 0.036049
5050.0 0.027766
5070.0 0.022145
5090.0 0.019999
5110.0 0.019686
5130.0 0.02005
5150.0 0.019908
5170.0 0.018721
5190.0 0.017563
5210.0 0.017261
5230.0 0.019577
5250.0 0.023357
5270.0 0.027963
5290.0 0.03192
5310.0 0.034191
5330.0 0.037761
5350.0 0.041975
5370.0 0.043569
5390.0 0.039552
5410.0 0.035216
5430.0 0.034549
5450.0 0.040359
5470.0 0.049898
5490.0 0.058137
5510.0 0.061922
5530.0 0.061208
5550.0 0.058673
5570.0 0.056928
5590.0 0.055046
5610.0 0.054263
5630.0 0.054252
5650.0 0.054635
5670.0 0.053844
5690.0 0.049036
5710.0 0.041601
5730.0 0.03742
5750.0 0.036077
5770.0 0.037106
5790.0 0.03848
5810.0 0.040071
5830.0 0.04088
5850.0 0.039222
5870.0 0.037236
5890.0 0.036483
5910.0 0.037969
5930.0 0.039697
5950.0 0.037563
5970.0 0.033319
5990.0 0.027688
6010.0 0.022505
6030.0 0.020779
6050.0 0.022504
6070.0 0.023922
6090.0 0.022806
6110.0 0.020129
6130.0 0.020598
6150.0 0.023965
6170.0 0.027552
6190.0 0.030243
6210.0 0.030679
6230.0 0.030197
6250.0 0.027576
6270.0 0.023049
6290.0 0.019029
6310.0 0.016889
6330.0 0.016501
6350.0 0.016797
6370.0 0.017025
6390.0 0.019147
6410.0 0.023883
6430.0 0.029475
6450.0 0.033069
6470.0 0.034092
6490.0 0.033858
6510.0 0.034559
6530.0 0.035617
6550.0 0.035443
6570.0 0.036779
6590.0 0.037709
6610.0 0.038351
6630.0 0.03771
6650.0 0.035217
6670.0 0.032132
6690.0 0.029219
6710.0 0.027653
6730.0 0.027314
6750.0 0.027808
6770.0 0.028571
6790.0 0.029498
6810.0 0.030125
6830.0 0.02955
6850.0 0.028122
6870.0 0.026346
6890.0 0.025753
6910.0 0.024977
6930.0 0.02585
6950.0 0.02739
6970.0 0.028115
6990.0 0.028637
7010.0 0.027817
7030.0 0.025579
7050.0 0.022632
7070.0 0.020194
7090.0 0.018898
7110.0 0.018734
7130.0 0.018284
7150.0 0.016343
7170.0 0.015505
7190.0 0.016964
7210.0 0.019616
7230.0 0.02262
7250.0 0.023945
7270.0 0.023668
7290.0 0.02183
7310.0 0.02015
7330.0 0.019336
7350.0 0.01939
7370.0 0.019757
7390.0 0.020695
7410.0 0.022931
7430.0 0.026501
7450.0 0.02992
7470.0 0.031559
7490.0 0.030824
7510.0 0.028695
7530.0 0.024927
7550.0 0.022628
7570.0 0.020181
7590.0 0.018974
7610.0 0.019445
7630.0 0.02099
7650.0 0.023178
7670.0 0.025387
7690.0 0.026926
7710.0 0.028532
7730.0 0.03018
7750.0 0.031559
7770.0 0.031228
7790.0 0.031364
7810.0 0.031848
7830.0 0.031655
7850.0 0.030566
7870.0 0.029542
7890.0 0.029659
7910.0 0.0288
7930.0 0.02832
7950.0 0.026799
7970.0 0.026003
7990.0 0.025023
8010.0 0.025345
8030.0 0.025505
8050.0 0.02564
8070.0 0.025312
8090.0 0.025111
8110.0 0.024184
8130.0 0.024114
8150.0 0.023773
8170.0 0.023136
8190.0 0.022617
8210.0 0.022497
8230.0 0.021917
8250.0 0.021442
8270.0 0.01941
8290.0 0.015847
8310.0 0.011909
8330.0 0.0092012
8350.0 0.0086024
8370.0 0.010255
8390.0 0.012429
8410.0 0.013424
8430.0 0.013767
8450.0 0.01447
8470.0 0.015496
8490.0 0.017352
8510.0 0.019793
8530.0 0.022719
8550.0 0.025454
8570.0 0.027705
8590.0 0.029427
8610.0 0.030401
8630.0 0.03044
8650.0 0.030128
8670.0 0.030115
8690.0 0.03161
8710.0 0.033611
8730.0 0.034944
8750.0 0.034796
8770.0 0.035258
8790.0 0.035105
8810.0 0.032956
8830.0 0.031035
8850.0 0.028487
8870.0 0.02643
8890.0 0.025748
8910.0 0.025778
8930.0 0.024347
8950.0 0.02272
8970.0 0.022041
8990.0 0.021847
9010.0 0.02101
9030.0 0.020538
9050.0 0.020364
9070.0 0.020285
9090.0 0.020216
9110.0 0.020149
9130.0 0.020082
9150.0 0.020017
9170.0 0.019942
9190.0 0.019888
9210.0 0.019913
9230.0 0.019812
9250.0 0.019728
9270.0 0.019654
9290.0 0.019587
9310.0 0.019522
9330.0 0.019459
9350.0 0.019401
9370.0 0.019344
9390.0 0.019285
9410.0 0.019228
9430.0 0.01917
9450.0 0.019087
9470.0 0.019013
9490.0 0.018983
9510.0 0.018939
9530.0 0.018893
9550.0 0.018845
9570.0 0.018795
9590.0 0.018744
9610.0 0.018693
9630.0 0.018642
9650.0 0.018591
9670.0 0.01854
9690.0 0.01849
9710.0 0.01844
9730.0 0.018389
9750.0 0.018339
9770.0 0.01829
9790.0 0.01824
9810.0 0.01819
9830.0 0.01814
9850.0 0.018091
9870.0 0.01804
9890.0 0.01799
9910.0 0.01794
9930.0 0.017887
9950.0 0.017697
9970.0 0.017687
9990.0 0.017668
10010.0 0.017645
10030.0 0.01761
10050.0 0.017564
10070.0 0.017517
10090.0 0.01747
10110.0 0.017413
10130.0 0.017358
10150.0 0.017305
10170.0 0.017247
10190.0 0.017183
10210.0 0.017125
10230.0 0.017068
10250.0 0.017004
10270.0 0.01694
10290.0 0.016881
10310.0 0.016815
10330.0 0.016744
10350.0 0.016678
10370.0 0.016612
10390.0 0.016539
10410.0 0.016465
10430.0 0.016397
10450.0 0.016322
10470.0 0.016243
10490.0 0.016167
10510.0 0.016091
10530.0 0.016004
10550.0 0.015919
10570.0 0.015838
10590.0 0.015751
10610.0 0.015659
10630.0 0.015572
10650.0 0.015483
10670.0 0.015384
10690.0 0.015287
10710.0 0.015192
10730.0 0.01509
10750.0 0.014981
10770.0 0.014881
10790.0 0.014777
10810.0 0.014664
10830.0 0.014554
10850.0 0.014446
10870.0 0.014326
10890.0 0.014203
10910.0 0.014084
10930.0 0.013959
10950.0 0.013822
10970.0 0.013685
10990.0 0.013549
11010.0 0.014296
11030.0 0.014131
11050.0 0.013971
11070.0 0.013808
11090.0 0.013634
11110.0 0.013473
11130.0 0.013319
11150.0 0.013162
11170.0 0.013007
11190.0 0.012864
11210.0 0.012719
11230.0 0.01257
11250.0 0.012429
11270.0 0.012291
11290.0 0.012148
11310.0 0.012004
11330.0 0.01187
11350.0 0.011732
11370.0 0.011588
11390.0 0.011448
11410.0 0.011307
11430.0 0.011152
11450.0 0.010994
11470.0 0.010835
11490.0 0.010664
11510.0 0.010479
11530.0 0.010293
11550.0 0.0101
11570.0 0.009892
11590.0 0.0096787
11610.0 0.009467
11630.0 0.0092432
11650.0 0.0090111
11670.0 0.008789
11690.0 0.008568
11710.0 0.008342
11730.0 0.0081226
11750.0 0.0079167
11770.0 0.0077088
11790.0 0.007505
11810.0 0.0073147
11830.0 0.0071316
11850.0 0.0069464
11870.0 0.0067737
11890.0 0.0066128
11910.0 0.0064531
11930.0 0.0062977
11950.0 0.0061537
11970.0 0.0060137
11990.0 0.0058738
12010.0 0.005743
12030.0 0.0056203
12050.0 0.0055002
12070.0 0.0053845
12090.0 0.0052821
12110.0 0.0051855
12130.0 0.0050949
12150.0 0.005015
12170.0 0.004946
12190.0 0.0048839
12210.0 0.0048332
12230.0 0.0047944
12250.0 0.004766
12270.0 0.0047486
12290.0 0.0047423
12310.0 0.0047457
12330.0 0.0047602
12350.0 0.0047847
12370.0 0.0048167
12390.0 0.0048575
12410.0 0.0049098
12430.0 0.0049655
12450.0 0.005026
12470.0 0.0050942
12490.0 0.0051661
12510.0 0.0052362
12530.0 0.0053099
12550.0 0.0053851
12570.0 0.0054546
12590.0 0.0055188
12610.0 0.0055801
12630.0 0.0056325
12650.0 0.0056713
12670.0 0.0057009
12690.0 0.0057186
12710.0 0.0057219
12730.0 0.0057121
12750.0 0.0056889
12770.0 0.0056521
12790.0 0.005604
12810.0 0.0055447
12830.0 0.0054744
12850.0 0.0053989
12870.0 0.0053184
12890.0 0.0052317
12910.0 0.0051438
12930.0 0.0050575
12950.0 0.0049693
12970.0 0.0048816
12990.0 0.0047997
13010.0 0.0047206
13030.0 0.0046425
13050.0 0.0045685
13070.0 0.0044992
13090.0 0.0044303
13110.0 0.004363
13130.0 0.0042991
13150.0 0.0042364
13170.0 0.0041724
13190.0 0.0041109
13210.0 0.0040518
13230.0 0.0039923
13250.0 0.003934
13270.0 0.0038793
13290.0 0.0038266
13310.0 0.0037756
13330.0 0.0037297
13350.0 0.003689
13370.0 0.0036524
13390.0 0.0036212
13410.0 0.0035964
13430.0 0.0035763
13450.0 0.0035605
13470.0 0.0035485
13490.0 0.0035388
13510.0 0.0035303
13530.0 0.0035215
13550.0 0.0035109
13570.0 0.0034976
13590.0 0.0034801
13610.0 0.0034582
13630.0 0.0034321
13650.0 0.0034004
13670.0 0.003364
13690.0 0.0033249
13710.0 0.0032824
13730.0 0.0032359
13750.0 0.0031908
13770.0 0.0031462
13790.0 0.0031015
13810.0 0.0030592
13830.0 0.003021
13850.0 0.0029848
13870.0 0.0029517
13890.0 0.002923
13910.0 0.0028978
13930.0 0.002875
13950.0 0.0028551
13970.0 0.0028382
13990.0 0.0028225
14010.0 0.0028079
14030.0 0.0027942
14050.0 0.0027807
14070.0 0.0027663
14090.0 0.0027513
14110.0 0.0027354
14130.0 0.0027178
14150.0 0.0026981
14170.0 0.0026776
14190.0 0.0026555
14210.0 0.0026313
14230.0 0.0026063
14250.0 0.0025814
14270.0 0.0025554
14290.0 0.0025293
14310.0 0.0025053
14330.0 0.0024827
14350.0 0.0024613
14370.0 0.0024427
14390.0 0.0024273
14410.0 0.0024139
14430.0 0.0024034
14450.0 0.0023958
14470.0 0.0023906
14490.0 0.0023876
14510.0 0.0023867
14530.0 0.0023874
14550.0 0.0023897
14570.0 0.0023936
14590.0 0.0023987
14610.0 0.0024054
14630.0 0.0024141
14650.0 0.0024248
14670.0 0.0024374
14690.0 0.002453
14710.0 0.0024718
14730.0 0.0024925
14750.0 0.0025165
14770.0 0.0025445
14790.0 0.0025751
14810.0 0.0026083
14830.0 0.0026474
14850.0 0.00269
14870.0 0.0027348
14890.0 0.0027839
14910.0 0.002837
14930.0 0.0028897
14950.0 0.0029408
14970.0 0.0029911
14990.0 0.0030357
15010.0 0.0030725
15030.0 0.0031025
15050.0 0.0031259
15070.0 0.0031419
15090.0 0.0031533
15110.0 0.0031618
15130.0 0.0031682
15150.0 0.0031735
15170.0 0.0031783
15190.0 0.0031829
15210.0 0.0031876
15230.0 0.0031923
15250.0 0.0031971
15270.0 0.003202
15290.0 0.003207
15310.0 0.0032121
15330.0 0.0032173
15350.0 0.0032226
15370.0 0.003228
15390.0 0.0032335
15410.0 0.0032391
15430.0 0.0032448
15450.0 0.0032505
15470.0 0.0032563
15490.0 0.0032623
15510.0 0.0032683
15530.0 0.0032743
15550.0 0.0032805
15570.0 0.0032867
15590.0 0.003293
15610.0 0.0032993
15630.0 0.0033057
15650.0 0.0033122
15670.0 0.0033187
15690.0 0.0033253
15710.0 0.003332
15730.0 0.0033387
15750.0 0.0033454
15770.0 0.0033522
15790.0 0.003359
15810.0 0.0033658
15830.0 0.0033727
15850.0 0.0033797
15870.0 0.0033866
15890.0 0.0033936
15910.0 0.0034006
15930.0 0.0034077
15950.0 0.0034147
15970.0 0.0034218
15990.0 0.0034288
16010.0 0.0034359
16030.0 0.003443
16050.0 0.0034501
16070.0 0.0034572
16090.0 0.0034642
16110.0 0.0034713
16130.0 0.0034784
16150.0 0.0034854
16170.0 0.0034924
16190.0 0.0034995
16210.0 0.0035065
16230.0 0.0035134
16250.0 0.0035203
16270.0 0.0035272
16290.0 0.0035341
16310.0 0.0035409
16330.0 0.0035477
16350.0 0.0035544
16370.0 0.003561
16390.0 0.0035676
16410.0 0.0035742
16430.0 0.0035807
16450.0 0.0035871
16470.0 0.0035935
16490.0 0.0035997
16510.0 0.0036059
16530.0 0.003612
16550.0 0.0036181
16570.0 0.003624
16590.0 0.0036298
16610.0 0.0036356
16630.0 0.0036413
16650.0 0.0036468
16670.0 0.0036523
16690.0 0.0036577
16710.0 0.0036628
16730.0 0.003668
16750.0 0.003673
16770.0 0.0036778
16790.0 0.0036826
16810.0 0.0036872
16830.0 0.0036917
16850.0 0.003696
16870.0 0.0037002
16890.0 0.0037043
16910.0 0.0037082
16930.0 0.003712
16950.0 0.0037156
16970.0 0.0037191
16990.0 0.0037224
17010.0 0.0037256
17030.0 0.0037286
17050.0 0.0037314
17070.0 0.003734
17090.0 0.0037365
17110.0 0.0037388
17130.0 0.0037409
17150.0 0.0037429
17170.0 0.0037447
17190.0 0.0037463
17210.0 0.0037477
17230.0 0.0037489
17250.0 0.00375
17270.0 0.0037508
17290.0 0.0037514
17310.0 0.0037519
17330.0 0.0037521
17350.0 0.0037521
17370.0 0.003752
17390.0 0.0037517
17410.0 0.0037511
17430.0 0.0037504
17450.0 0.0037495
17470.0 0.0037482
17490.0 0.0037469
17510.0 0.0037453
17530.0 0.0037435
17550.0 0.0037415
17570.0 0.0037393
17590.0 0.0037369
17610.0 0.0037342
17630.0 0.0037314
17650.0 0.0037284
17670.0 0.0037251
17690.0 0.0037216
17710.0 0.0037179
17730.0 0.003714
17750.0 0.0037099
17770.0 0.0037055
17790.0 0.003701
17810.0 0.0036963
17830.0 0.0036913
17850.0 0.0036862
17870.0 0.0036808
17890.0 0.0036752
17910.0 0.0036694
17930.0 0.0036634
17950.0 0.0036572
17970.0 0.0036508
17990.0 0.0036442
18010.0 0.0036375
18030.0 0.0036304
18050.0 0.0036232
18070.0 0.0036159
18090.0 0.0036083
18110.0 0.0036005
18130.0 0.0035926
18150.0 0.0035844
18170.0 0.0035761
18190.0 0.0035676
18210.0 0.0035589
18230.0 0.00355
18250.0 0.0035409
18270.0 0.0035318
18290.0 0.0035224
18310.0 0.0035128
18330.0 0.0035031
18350.0 0.0034932
18370.0 0.0034832
18390.0 0.0034729
18410.0 0.0034626
18430.0 0.0034521
18450.0 0.0034414
18470.0 0.0034306
18490.0 0.0034197
18510.0 0.0034086
18530.0 0.0033974
18550.0 0.0033861
18570.0 0.0033746
18590.0 0.0033629
18610.0 0.0033512
18630.0 0.0033394
18650.0 0.0033274
18670.0 0.0033153
18690.0 0.0033031
18710.0 0.0032908
18730.0 0.0032784
18750.0 0.0032659
18770.0 0.0032533
18790.0 0.0032406
18810.0 0.0032278
18830.0 0.0032149
18850.0 0.0032019
18870.0 0.0031889
18890.0 0.0031758
18910.0 0.0031626
18930.0 0.0031493
18950.0 0.0031359
18970.0 0.0031226
18990.0 0.0031091
19010.0 0.0030955
19030.0 0.003082
19050.0 0.0030684
19070.0 0.0030547
19090.0 0.0030409
19110.0 0.0030272
19130.0 0.0030134
19150.0 0.0029995
19170.0 0.0029857
19190.0 0.0029718
19210.0 0.0029578
19230.0 0.0029439
19250.0 0.0029299
19270.0 0.0029159
19290.0 0.0029019
19310.0 0.0028879
19330.0 0.0028739
19350.0 0.0028598
19370.0 0.0028458
19390.0 0.0028317
19410.0 0.0028177
19430.0 0.0028036
19450.0 0.0027896
19470.0 0.0027756
19490.0 0.0027616
19510.0 0.0027476
19530.0 0.0027336
19550.0 0.0027196
19570.0 0.0027057
19590.0 0.0026918
19610.0 0.0026779
19630.0 0.002664
19650.0 0.0026501
19670.0 0.0026364
19690.0 0.0026226
19710.0 0.0026088
19730.0 0.0025951
19750.0 0.0025815
19770.0 0.0025678
19790.0 0.0025542
19810.0 0.0025407
19830.0 0.0025271
19850.0 0.0025135
19870.0 0.0024997
19890.0 0.0024854
19910.0 0.0024702
19930.0 0.0024536
19950.0 0.0024349
19970.0 0.0024128
19990.0 0.0023866
20010.0 0.002357
20030.0 0.0023225
20050.0 0.0022834
20070.0 0.0022417
20090.0 0.0021981
20110.0 0.0021509
20130.0 0.0021042
20150.0 0.0020589
20170.0 0.0020133
20190.0 0.0019682
20210.0 0.0019259
20230.0 0.0018851
20250.0 0.0018445
20270.0 0.0018063
20290.0 0.0017705
20310.0 0.0017356
20330.0 0.0017016
20350.0 0.0016709
20370.0 0.0016414
20390.0 0.0016128
20410.0 0.0015861
20430.0 0.0015614
20450.0 0.0015373
20470.0 0.0015146
20490.0 0.0014938
20510.0 0.0014743
20530.0 0.0014557
20550.0 0.0014388
20570.0 0.0014235
20590.0 0.0014091
20610.0 0.001396
20630.0 0.0013842
20650.0 0.0013735
20670.0 0.0013638
20690.0 0.0013552
20710.0 0.0013475
20730.0 0.0013406
20750.0 0.0013344
20770.0 0.0013288
20790.0 0.0013237
20810.0 0.001319
20830.0 0.0013145
20850.0 0.0013102
20870.0 0.0013059
20890.0 0.0013016
20910.0 0.001297
20930.0 0.0012922
20950.0 0.0012871
20970.0 0.0012815
20990.0 0.0012754
21010.0 0.0012688
21030.0 0.0012615
21050.0 0.0012538
21070.0 0.0012454
21090.0 0.0012362
21110.0 0.0012266
21130.0 0.0012166
21150.0 0.0012058
21170.0 0.0011946
21190.0 0.0011832
21210.0 0.0011712
21230.0 0.0011587
21250.0 0.0011462
21270.0 0.0011335
21290.0 0.0011205
21310.0 0.0011074
21330.0 0.0010946
21350.0 0.0010817
21370.0 0.0010687
21390.0 0.0010562
21410.0 0.0010441
21430.0 0.0010318
21450.0 0.0010202
21470.0 0.0010094
21490.0 0.00099888
21510.0 0.00098898
21530.0 0.00097999
21550.0 0.0009717
21570.0 0.00096405
21590.0 0.00095732
21610.0 0.00095146
21630.0 0.00094638
21650.0 0.00094216
21670.0 0.00093875
21690.0 0.00093607
21710.0 0.00093416
21730.0 0.00093286
21750.0 0.00093203
21770.0 0.00093187
21790.0 0.00093213
21810.0 0.00093254
21830.0 0.00093321
21850.0 0.00093416
21870.0 0.00093502
21890.0 0.00093567
21910.0 0.00093638
21930.0 0.00093688
21950.0 0.00093698
21970.0 0.00093684
21990.0 0.0009365
22010.0 0.00093563
22030.0 0.00093437
22050.0 0.00093281
22070.0 0.00093087
22090.0 0.00092853
22110.0 0.00092591
22130.0 0.000923
22150.0 0.0009198
22170.0 0.00091637
22190.0 0.0009127
22210.0 0.00090881
22230.0 0.00090476
22250.0 0.00090052
22270.0 0.00089605
22290.0 0.00089142
22310.0 0.00088659
22330.0 0.00088141
22350.0 0.00087597
22370.0 0.00087027
22390.0 0.00086414
22410.0 0.00085746
22430.0 0.0008505
22450.0 0.00084308
22470.0 0.00083497
22490.0 0.00082636
22510.0 0.00081743
22530.0 0.0008077
22550.0 0.00079729
22570.0 0.00078673
22590.0 0.00077576
22610.0 0.00076414
22630.0 0.00075235
22650.0 0.00074079
22670.0 0.00072878
22690.0 0.00071669
22710.0 0.00070504
22730.0 0.00069361
22750.0 0.00068197
22770.0 0.00067107
22790.0 0.00066087
22810.0 0.00065092
22830.0 0.00064144
22850.0 0.00063285
22870.0 0.00062474
22890.0 0.00061698
22910.0 0.00060996
22930.0 0.00060357
22950.0 0.00059753
22970.0 0.00059186
22990.0 0.00058684
23010.0 0.00058208
23030.0 0.00057751
23050.0 0.00057322
23070.0 0.00056915
23090.0 0.00056501
23110.0 0.00056093
23130.0 0.00055692
23150.0 0.00055282
23170.0 0.00054855
23190.0 0.00054428
23210.0 0.00053999
23230.0 0.0005355
23250.0 0.00053097
23270.0 0.00052653
23290.0 0.00052205
23310.0 0.00051748
23330.0 0.00051317
23350.0 0.00050901
23370.0 0.0005049
23390.0 0.00050096
23410.0 0.00049729
23430.0 0.0004937
23450.0 0.0004902
23470.0 0.0004869
23490.0 0.00048372
23510.0 0.00048054
23530.0 0.00047744
23550.0 0.00047447
23570.0 0.00047149
23590.0 0.0004685
23610.0 0.00046561
23630.0 0.00046278
23650.0 0.00045993
23670.0 0.0004572
23690.0 0.00045465
23710.0 0.00045223
23730.0 0.00045001
23750.0 0.00044812
23770.0 0.00044656
23790.0 0.0004454
23810.0 0.00044473
23830.0 0.00044455
23850.0 0.00044503
23870.0 0.00044623
23890.0 0.00044803
23910.0 0.00045054
23930.0 0.00045392
23950.0 0.00045796
23970.0 0.00046244
23990.0 0.00046776
24010.0 0.00047369
