#lamb flux
1010.0 3.1669e-07
1030.0 3.3951e-07
1050.0 3.6583e-07
1070.0 3.9548e-07
1090.0 4.2918e-07
1110.0 4.6379e-07
1130.0 4.987e-07
1150.0 5.3534e-07
1170.0 5.7321e-07
1190.0 6.0922e-07
1210.0 6.4582e-07
1230.0 6.8374e-07
1250.0 7.2101e-07
1270.0 7.5735e-07
1290.0 7.9584e-07
1310.0 8.3444e-07
1330.0 8.7164e-07
1350.0 9.094e-07
1370.0 9.4851e-07
1390.0 9.8684e-07
1410.0 1.0242e-06
1430.0 1.0634e-06
1450.0 1.1028e-06
1470.0 1.1411e-06
1490.0 1.1799e-06
1510.0 1.221e-06
1530.0 1.2602e-06
1550.0 1.299e-06
1570.0 1.3392e-06
1590.0 1.3795e-06
1610.0 1.4182e-06
1630.0 1.4581e-06
1650.0 1.4989e-06
1670.0 1.5384e-06
1690.0 1.5774e-06
1710.0 1.6177e-06
1730.0 1.6581e-06
1750.0 1.6959e-06
1770.0 1.7345e-06
1790.0 1.7736e-06
1810.0 1.8111e-06
1830.0 1.8474e-06
1850.0 1.8856e-06
1870.0 1.9222e-06
1890.0 1.957e-06
1910.0 1.9919e-06
1930.0 2.0271e-06
1950.0 2.0598e-06
1970.0 2.0913e-06
1990.0 2.1235e-06
2010.0 2.1543e-06
2030.0 2.183e-06
2050.0 2.212e-06
2070.0 2.2411e-06
2090.0 2.2674e-06
2110.0 2.2928e-06
2130.0 2.3186e-06
2150.0 2.3429e-06
2170.0 2.3652e-06
2190.0 2.3881e-06
2210.0 2.4106e-06
2230.0 2.4313e-06
2250.0 2.4514e-06
2270.0 2.4726e-06
2290.0 2.4924e-06
2310.0 2.5106e-06
2330.0 2.5296e-06
2350.0 2.5487e-06
2370.0 2.5664e-06
2390.0 2.5844e-06
2410.0 2.604e-06
2430.0 2.6228e-06
2450.0 2.6414e-06
2470.0 2.6619e-06
2490.0 2.6854e-06
2510.0 2.7128e-06
2530.0 2.7539e-06
2550.0 2.8247e-06
2570.0 2.9424e-06
2590.0 3.1275e-06
2610.0 3.4318e-06
2630.0 3.8701e-06
2650.0 4.4207e-06
2670.0 5.091e-06
2690.0 5.8585e-06
2710.0 6.6214e-06
2730.0 7.3295e-06
2750.0 7.9949e-06
2770.0 8.5596e-06
2790.0 9.016e-06
2810.0 9.4095e-06
2830.0 9.775e-06
2850.0 1.0097e-05
2870.0 1.0411e-05
2890.0 1.0742e-05
2910.0 1.1083e-05
2930.0 1.1421e-05
2950.0 1.1783e-05
2970.0 1.2166e-05
2990.0 1.2549e-05
3010.0 5.6743e-05
3030.0 5.8541e-05
3050.0 6.0321e-05
3070.0 6.1905e-05
3090.0 6.3237e-05
3110.0 6.3939e-05
3130.0 6.356e-05
3150.0 6.1636e-05
3170.0 5.7234e-05
3190.0 5.0283e-05
3210.0 4.0946e-05
3230.0 3.0504e-05
3250.0 4.0959e-05
3270.0 2.9539e-05
3290.0 5.4495e-05
3310.0 2.794e-05
3330.0 2.7906e-05
3350.0 3.153e-05
3370.0 3.5925e-05
3390.0 4.0781e-05
3410.0 4.5665e-05
3430.0 5.082e-05
3450.0 5.6058e-05
3470.0 6.0934e-05
3490.0 6.4506e-05
3510.0 7.5174e-05
3530.0 9.3504e-05
3550.0 9.1805e-05
3570.0 7.8711e-05
3590.0 0.00010139
3610.0 7.2034e-05
3630.0 0.00010763
3650.0 0.00012345
3670.0 0.0001524
3690.0 0.00014271
3710.0 0.00010121
3730.0 0.00012454
3750.0 0.0001268
3770.0 0.00013709
3790.0 0.00013715
3810.0 0.00014704
3830.0 0.00022584
3850.0 0.00028125
3870.0 0.00034326
3890.0 0.0003401
3910.0 0.00030989
3930.0 0.00031214
3950.0 0.00033301
3970.0 0.00034594
3990.0 0.00021414
4010.0 0.00012062
4030.0 0.00021607
4050.0 0.00029264
4070.0 0.00030115
4090.0 0.0001978
4110.0 0.0001314
4130.0 0.00022137
4150.0 0.00023431
4170.0 0.00020882
4190.0 0.00018362
4210.0 0.00026451
4230.0 0.00020831
4250.0 0.00021604
4270.0 0.00021449
4290.0 0.000199
4310.0 0.00025286
4330.0 0.00027952
4350.0 0.00024912
4370.0 0.00021545
4390.0 0.00025071
4410.0 0.0002508
4430.0 0.00018445
4450.0 0.00015928
4470.0 0.00019662
4490.0 0.00015973
4510.0 0.00022786
4530.0 0.00023528
4550.0 0.00026442
4570.0 0.00036003
4590.0 0.00037248
4610.0 0.0003402
4630.0 0.00050974
4650.0 0.00063803
4670.0 0.00062111
4690.0 0.00049013
4710.0 0.0005064
4730.0 0.00052582
4750.0 0.0004173
4770.0 0.00032489
4790.0 0.0002287
4810.0 0.00029039
4830.0 0.00034112
4850.0 0.00031105
4870.0 0.00017467
4890.0 0.00036197
4910.0 0.00044195
4930.0 0.00048179
4950.0 0.00051697
4970.0 0.00041395
4990.0 0.00047655
5010.0 0.00053112
5030.0 0.00054303
5050.0 0.00048415
5070.0 0.00034383
5090.0 0.00028176
5110.0 0.00027698
5130.0 0.00027202
5150.0 0.0002732
5170.0 0.00024982
5190.0 0.00028653
5210.0 0.00029275
5230.0 0.0003242
5250.0 0.00037234
5270.0 0.00032101
5290.0 0.00034642
5310.0 0.00048564
5330.0 0.00055049
5350.0 0.00047694
5370.0 0.00044476
5390.0 0.00050555
5410.0 0.00057168
5430.0 0.0005934
5450.0 0.00062242
5470.0 0.00064262
5490.0 0.0006922
5510.0 0.00082941
5530.0 0.00086184
5550.0 0.00089431
5570.0 0.00092219
5590.0 0.0009002
5610.0 0.00084498
5630.0 0.00083286
5650.0 0.00086337
5670.0 0.00084014
5690.0 0.00073109
5710.0 0.00072397
5730.0 0.00070844
5750.0 0.00070609
5770.0 0.0006134
5790.0 0.00060391
5810.0 0.00062603
5830.0 0.00068068
5850.0 0.00064452
5870.0 0.00064215
5890.0 0.00072236
5910.0 0.00067078
5930.0 0.00057122
5950.0 0.00053341
5970.0 0.0005743
5990.0 0.00051608
6010.0 0.00046052
6030.0 0.00043615
6050.0 0.00039756
6070.0 0.00032553
6090.0 0.0003218
6110.0 0.00039513
6130.0 0.00042962
6150.0 0.00044067
6170.0 0.00043725
6190.0 0.00043201
6210.0 0.00046563
6230.0 0.00055954
6250.0 0.00051771
6270.0 0.00046099
6290.0 0.00041265
6310.0 0.00036358
6330.0 0.00033213
6350.0 0.00030341
6370.0 0.00031251
6390.0 0.00035857
6410.0 0.00044102
6430.0 0.00052863
6450.0 0.00055657
6470.0 0.00057941
6490.0 0.00068928
6510.0 0.00077897
6530.0 0.00074486
6550.0 0.00070819
6570.0 0.00071741
6590.0 0.0007115
6610.0 0.00073782
6630.0 0.00068991
6650.0 0.00060549
6670.0 0.00056714
6690.0 0.0005607
6710.0 0.00063276
6730.0 0.00055956
6750.0 0.00046461
6770.0 0.00043021
6790.0 0.00045789
6810.0 0.00052306
6830.0 0.00052408
6850.0 0.00047289
6870.0 0.00048429
6890.0 0.0004806
6910.0 0.00045181
6930.0 0.00048762
6950.0 0.00046046
6970.0 0.00043615
6990.0 0.00043857
7010.0 0.00045074
7030.0 0.00044076
7050.0 0.00041611
7070.0 0.00043146
7090.0 0.00039556
7110.0 0.00033673
7130.0 0.00030245
7150.0 0.00030602
7170.0 0.00036804
7190.0 0.00038354
7210.0 0.00036582
7230.0 0.00038977
7250.0 0.0003918
7270.0 0.00038993
7290.0 0.00041345
7310.0 0.00044027
7330.0 0.00042477
7350.0 0.00039394
7370.0 0.00036415
7390.0 0.00036134
7410.0 0.00040938
7430.0 0.00046596
7450.0 0.00050071
7470.0 0.00052088
7490.0 0.00059068
7510.0 0.00058558
7530.0 0.00051262
7550.0 0.00047119
7570.0 0.00040298
7590.0 0.00037415
7610.0 0.00036214
7630.0 0.00034018
7650.0 0.00036552
7670.0 0.00040855
7690.0 0.00044593
7710.0 0.0005096
7730.0 0.00053195
7750.0 0.00055188
7770.0 0.00058131
7790.0 0.0006232
7810.0 0.00062242
7830.0 0.00056082
7850.0 0.00056154
7870.0 0.00054331
7890.0 0.00054514
7910.0 0.00051127
7930.0 0.00050118
7950.0 0.00041855
7970.0 0.00041497
7990.0 0.00040519
8010.0 0.00045131
8030.0 0.00045013
8050.0 0.000478
8070.0 0.0004602
8090.0 0.00046199
8110.0 0.00045493
8130.0 0.00044617
8150.0 0.00041684
8170.0 0.00041018
8190.0 0.00041058
8210.0 0.00041462
8230.0 0.00036485
8250.0 0.00033451
8270.0 0.00029544
8290.0 0.00025085
8310.0 0.00021875
8330.0 0.00017104
8350.0 0.00013686
8370.0 0.00013036
8390.0 0.00012731
8410.0 0.00013496
8430.0 0.00017397
8450.0 0.00019025
8470.0 0.00020527
8490.0 0.00023919
8510.0 0.00026014
8530.0 0.0002943
8550.0 0.00034808
8570.0 0.00038316
8590.0 0.0004035
8610.0 0.00045095
8630.0 0.00051571
8650.0 0.00053078
8670.0 0.00054232
8690.0 0.00055977
8710.0 0.00054797
8730.0 0.00052852
8750.0 0.00048608
8770.0 0.0004851
8790.0 0.00047687
8810.0 0.00043865
8830.0 0.00043616
8850.0 0.00039566
8870.0 0.00037542
8890.0 0.00033677
8910.0 0.00037684
8930.0 0.00034194
8950.0 0.0003442
8970.0 0.00035218
8990.0 0.00034301
9010.0 0.00035153
9030.0 0.0003337
9050.0 0.0003322
9070.0 0.00033244
9090.0 0.00033262
9110.0 0.00033304
9130.0 0.00033314
9150.0 0.00033308
9170.0 0.00033215
9190.0 0.00032998
9210.0 0.00033516
9230.0 0.00033386
9250.0 0.00033318
9270.0 0.00033264
9290.0 0.00033219
9310.0 0.00033178
9330.0 0.00033139
9350.0 0.00033102
9370.0 0.00033063
9390.0 0.00033021
9410.0 0.00032978
9430.0 0.00032934
9450.0 0.00032887
9470.0 0.00032838
9490.0 0.00032788
9510.0 0.00032736
9530.0 0.00032682
9550.0 0.00032629
9570.0 0.00032575
9590.0 0.00032519
9610.0 0.00032463
9630.0 0.00032408
9650.0 0.00032352
9670.0 0.00032294
9690.0 0.00032239
9710.0 0.00032184
9730.0 0.00032128
9750.0 0.00032072
9770.0 0.00032021
9790.0 0.00031967
9810.0 0.00031914
9830.0 0.00031863
9850.0 0.00031814
9870.0 0.00031764
9890.0 0.00031716
9910.0 0.00031671
9930.0 0.00031626
9950.0 0.00031538
9970.0 0.00031511
9990.0 0.00031483
10010.0 0.00031452
10030.0 0.0003142
10050.0 0.00031377
10070.0 0.00031269
10090.0 0.00031264
10110.0 0.00031259
10130.0 0.00031248
10150.0 0.00031235
10170.0 0.00031218
10190.0 0.00031198
10210.0 0.0003118
10230.0 0.00031165
10250.0 0.00031148
10270.0 0.00031134
10290.0 0.00031123
10310.0 0.00031112
10330.0 0.00031102
10350.0 0.00031096
10370.0 0.00031091
10390.0 0.00031087
10410.0 0.00031084
10430.0 0.00031086
10450.0 0.00031087
10470.0 0.00031089
10490.0 0.00031094
10510.0 0.00031101
10530.0 0.00031107
10550.0 0.00031115
10570.0 0.00031127
10590.0 0.00031138
10610.0 0.0003115
10630.0 0.00031165
10650.0 0.0003118
10670.0 0.00031196
10690.0 0.00031213
10710.0 0.00031232
10730.0 0.00031251
10750.0 0.0003127
10770.0 0.00031293
10790.0 0.00031315
10810.0 0.00031337
10830.0 0.00031359
10850.0 0.0003138
10870.0 0.00031394
10890.0 0.00031394
10910.0 0.00031373
10930.0 0.00031314
10950.0 0.0003119
10970.0 0.00030986
10990.0 0.00030695
11010.0 0.00031343
11030.0 0.00030769
11050.0 0.00030098
11070.0 0.00029322
11090.0 0.00028424
11110.0 0.0002753
11130.0 0.00026636
11150.0 0.00025724
11170.0 0.00024839
11190.0 0.00024037
11210.0 0.00023266
11230.0 0.00022538
11250.0 0.00021898
11270.0 0.00021332
11290.0 0.00020808
11310.0 0.00020345
11330.0 0.00019959
11350.0 0.00019604
11370.0 0.00019275
11390.0 0.00018978
11410.0 0.00018697
11430.0 0.000184
11450.0 0.00018103
11470.0 0.00017801
11490.0 0.00017475
11510.0 0.00017118
11530.0 0.00016756
11550.0 0.0001638
11570.0 0.00015972
11590.0 0.00015557
11610.0 0.00015147
11630.0 0.00014719
11650.0 0.00014281
11670.0 0.00013869
11690.0 0.00013465
11710.0 0.00013058
11730.0 0.00012669
11750.0 0.0001231
11770.0 0.00011952
11790.0 0.00011606
11810.0 0.00011286
11830.0 0.00010981
11850.0 0.00010673
11870.0 0.00010387
11890.0 0.0001012
11910.0 9.8537e-05
11930.0 9.5913e-05
11950.0 9.3453e-05
11970.0 9.1019e-05
11990.0 8.8525e-05
12010.0 8.6141e-05
12030.0 8.3857e-05
12050.0 8.1558e-05
12070.0 7.9282e-05
12090.0 7.7239e-05
12110.0 7.5278e-05
12130.0 7.3405e-05
12150.0 7.1754e-05
12170.0 7.0349e-05
12190.0 6.9102e-05
12210.0 6.8155e-05
12230.0 6.7544e-05
12250.0 6.7243e-05
12270.0 6.729e-05
12290.0 6.7699e-05
12310.0 6.8429e-05
12330.0 6.9528e-05
12350.0 7.0949e-05
12370.0 7.259e-05
12390.0 7.4476e-05
12410.0 7.6646e-05
12430.0 7.8814e-05
12450.0 8.1002e-05
12470.0 8.3249e-05
12490.0 8.542e-05
12510.0 8.7383e-05
12530.0 8.9249e-05
12550.0 9.0962e-05
12570.0 9.2408e-05
12590.0 9.3625e-05
12610.0 9.4657e-05
12630.0 9.545e-05
12650.0 9.5996e-05
12670.0 9.6361e-05
12690.0 9.6538e-05
12710.0 9.6544e-05
12730.0 9.6406e-05
12750.0 9.6112e-05
12770.0 9.5699e-05
12790.0 9.5192e-05
12810.0 9.4569e-05
12830.0 9.3823e-05
12850.0 9.3018e-05
12870.0 9.2124e-05
12890.0 9.1088e-05
12910.0 8.9958e-05
12930.0 8.8761e-05
12950.0 8.7396e-05
12970.0 8.5874e-05
12990.0 8.4316e-05
13010.0 8.265e-05
13030.0 8.0827e-05
13050.0 7.8956e-05
13070.0 7.711e-05
13090.0 7.5159e-05
13110.0 7.3197e-05
13130.0 7.1346e-05
13150.0 6.9565e-05
13170.0 6.7804e-05
13190.0 6.6254e-05
13210.0 6.4918e-05
13230.0 6.3723e-05
13250.0 6.273e-05
13270.0 6.1984e-05
13290.0 6.1428e-05
13310.0 6.105e-05
13330.0 6.0867e-05
13350.0 6.0833e-05
13370.0 6.0911e-05
13390.0 6.1071e-05
13410.0 6.1262e-05
13430.0 6.1454e-05
13450.0 6.1613e-05
13470.0 6.1705e-05
13490.0 6.1715e-05
13510.0 6.1618e-05
13530.0 6.1411e-05
13550.0 6.1114e-05
13570.0 6.0724e-05
13590.0 6.0245e-05
13610.0 5.9728e-05
13630.0 5.9196e-05
13650.0 5.8629e-05
13670.0 5.8076e-05
13690.0 5.7565e-05
13710.0 5.7081e-05
13730.0 5.6618e-05
13750.0 5.6224e-05
13770.0 5.5869e-05
13790.0 5.5533e-05
13810.0 5.522e-05
13830.0 5.4927e-05
13850.0 5.4621e-05
13870.0 5.4293e-05
13890.0 5.3949e-05
13910.0 5.3578e-05
13930.0 5.3158e-05
13950.0 5.2706e-05
13970.0 5.2247e-05
13990.0 5.1758e-05
14010.0 5.1252e-05
14030.0 5.0766e-05
14050.0 5.0299e-05
14070.0 4.9838e-05
14090.0 4.9427e-05
14110.0 4.907e-05
14130.0 4.8756e-05
14150.0 4.8491e-05
14170.0 4.8288e-05
14190.0 4.8134e-05
14210.0 4.8029e-05
14230.0 4.7975e-05
14250.0 4.7968e-05
14270.0 4.8012e-05
14290.0 4.8112e-05
14310.0 4.8252e-05
14330.0 4.8441e-05
14350.0 4.8687e-05
14370.0 4.8972e-05
14390.0 4.928e-05
14410.0 4.9638e-05
14430.0 5.0025e-05
14450.0 5.0413e-05
14470.0 5.0814e-05
14490.0 5.1247e-05
14510.0 5.1664e-05
14530.0 5.207e-05
14550.0 5.2502e-05
14570.0 5.2955e-05
14590.0 5.3408e-05
14610.0 5.3909e-05
14630.0 5.4487e-05
14650.0 5.5108e-05
14670.0 5.579e-05
14690.0 5.6588e-05
14710.0 5.7499e-05
14730.0 5.8442e-05
14750.0 5.9501e-05
14770.0 6.0682e-05
14790.0 6.1906e-05
14810.0 6.3155e-05
14830.0 6.4537e-05
14850.0 6.5913e-05
14870.0 6.7221e-05
14890.0 6.8511e-05
14910.0 6.9759e-05
14930.0 7.0841e-05
14950.0 7.1753e-05
14970.0 7.253e-05
14990.0 7.3091e-05
15010.0 7.343e-05
15030.0 7.3593e-05
15050.0 7.3597e-05
15070.0 7.346e-05
15090.0 7.3239e-05
15110.0 7.2957e-05
15130.0 7.2639e-05
15150.0 7.231e-05
15170.0 7.1965e-05
15190.0 7.1615e-05
15210.0 7.1268e-05
15230.0 7.0923e-05
15250.0 7.0572e-05
15270.0 7.0223e-05
15290.0 6.9884e-05
15310.0 6.9539e-05
15330.0 6.9194e-05
15350.0 6.8855e-05
15370.0 6.8518e-05
15390.0 6.8173e-05
15410.0 6.7834e-05
15430.0 6.75e-05
15450.0 6.7164e-05
15470.0 6.6825e-05
15490.0 6.6496e-05
15510.0 6.6167e-05
15530.0 6.5834e-05
15550.0 6.5505e-05
15570.0 6.5182e-05
15590.0 6.4854e-05
15610.0 6.4524e-05
15630.0 6.4205e-05
15650.0 6.3885e-05
15670.0 6.3562e-05
15690.0 6.3244e-05
15710.0 6.2933e-05
15730.0 6.2615e-05
15750.0 6.2299e-05
15770.0 6.199e-05
15790.0 6.1682e-05
15810.0 6.1367e-05
15830.0 6.106e-05
15850.0 6.0759e-05
15870.0 6.0453e-05
15890.0 6.0149e-05
15910.0 5.9853e-05
15930.0 5.9555e-05
15950.0 5.9252e-05
15970.0 5.8957e-05
15990.0 5.8666e-05
16010.0 5.8371e-05
16030.0 5.8076e-05
16050.0 5.7792e-05
16070.0 5.7506e-05
16090.0 5.7216e-05
16110.0 5.6933e-05
16130.0 5.6655e-05
16150.0 5.6368e-05
16170.0 5.6086e-05
16190.0 5.5811e-05
16210.0 5.5535e-05
16230.0 5.5256e-05
16250.0 5.4984e-05
16270.0 5.4716e-05
16290.0 5.4443e-05
16310.0 5.4172e-05
16330.0 5.3908e-05
16350.0 5.3642e-05
16370.0 5.337e-05
16390.0 5.311e-05
16410.0 5.2851e-05
16430.0 5.2588e-05
16450.0 5.2328e-05
16470.0 5.2075e-05
16490.0 5.1818e-05
16510.0 5.1559e-05
16530.0 5.1307e-05
16550.0 5.1057e-05
16570.0 5.0802e-05
16590.0 5.055e-05
16610.0 5.0306e-05
16630.0 5.0058e-05
16650.0 4.981e-05
16670.0 4.9568e-05
16690.0 4.9327e-05
16710.0 4.9079e-05
16730.0 4.8837e-05
16750.0 4.86e-05
16770.0 4.836e-05
16790.0 4.8118e-05
16810.0 4.7885e-05
16830.0 4.7652e-05
16850.0 4.7414e-05
16870.0 4.7181e-05
16890.0 4.6952e-05
16910.0 4.6718e-05
16930.0 4.6483e-05
16950.0 4.6257e-05
16970.0 4.603e-05
16990.0 4.5799e-05
17010.0 4.5573e-05
17030.0 4.5352e-05
17050.0 4.5125e-05
17070.0 4.4899e-05
17090.0 4.4679e-05
17110.0 4.4458e-05
17130.0 4.4231e-05
17150.0 4.4011e-05
17170.0 4.3796e-05
17190.0 4.3576e-05
17210.0 4.3356e-05
17230.0 4.3144e-05
17250.0 4.2928e-05
17270.0 4.2708e-05
17290.0 4.2494e-05
17310.0 4.2284e-05
17330.0 4.2068e-05
17350.0 4.1852e-05
17370.0 4.1646e-05
17390.0 4.1436e-05
17410.0 4.1223e-05
17430.0 4.1015e-05
17450.0 4.0811e-05
17470.0 4.0597e-05
17490.0 4.0388e-05
17510.0 4.0185e-05
17530.0 3.9979e-05
17550.0 3.977e-05
17570.0 3.9568e-05
17590.0 3.9368e-05
17610.0 3.9161e-05
17630.0 3.8957e-05
17650.0 3.8759e-05
17670.0 3.8558e-05
17690.0 3.835e-05
17710.0 3.8153e-05
17730.0 3.7956e-05
17750.0 3.7755e-05
17770.0 3.7556e-05
17790.0 3.7364e-05
17810.0 3.7164e-05
17830.0 3.6964e-05
17850.0 3.6771e-05
17870.0 3.6577e-05
17890.0 3.6378e-05
17910.0 3.6182e-05
17930.0 3.5994e-05
17950.0 3.58e-05
17970.0 3.5605e-05
17990.0 3.5416e-05
18010.0 3.5227e-05
18030.0 3.503e-05
18050.0 3.484e-05
18070.0 3.4654e-05
18090.0 3.4463e-05
18110.0 3.4271e-05
18130.0 3.4087e-05
18150.0 3.3901e-05
18170.0 3.3711e-05
18190.0 3.3525e-05
18210.0 3.3343e-05
18230.0 3.3155e-05
18250.0 3.2966e-05
18270.0 3.2785e-05
18290.0 3.2603e-05
18310.0 3.2416e-05
18330.0 3.2234e-05
18350.0 3.2057e-05
18370.0 3.1872e-05
18390.0 3.1689e-05
18410.0 3.1512e-05
18430.0 3.1332e-05
18450.0 3.1147e-05
18470.0 3.0969e-05
18490.0 3.0795e-05
18510.0 3.0615e-05
18530.0 3.0436e-05
18550.0 3.0264e-05
18570.0 3.0088e-05
18590.0 2.9907e-05
18610.0 2.9733e-05
18630.0 2.9561e-05
18650.0 2.9384e-05
18670.0 2.9207e-05
18690.0 2.9039e-05
18710.0 2.8867e-05
18730.0 2.8692e-05
18750.0 2.8523e-05
18770.0 2.8355e-05
18790.0 2.8179e-05
18810.0 2.8008e-05
18830.0 2.7842e-05
18850.0 2.7673e-05
18870.0 2.7501e-05
18890.0 2.7336e-05
18910.0 2.7172e-05
18930.0 2.7002e-05
18950.0 2.6835e-05
18970.0 2.6672e-05
18990.0 2.6507e-05
19010.0 2.6335e-05
19030.0 2.6175e-05
19050.0 2.6014e-05
19070.0 2.5848e-05
19090.0 2.5685e-05
19110.0 2.5528e-05
19130.0 2.5364e-05
19150.0 2.52e-05
19170.0 2.5042e-05
19190.0 2.4883e-05
19210.0 2.472e-05
19230.0 2.456e-05
19250.0 2.4406e-05
19270.0 2.4247e-05
19290.0 2.4087e-05
19310.0 2.3934e-05
19330.0 2.3779e-05
19350.0 2.3618e-05
19370.0 2.3463e-05
19390.0 2.3311e-05
19410.0 2.3155e-05
19430.0 2.2998e-05
19450.0 2.2849e-05
19470.0 2.2697e-05
19490.0 2.2542e-05
19510.0 2.239e-05
19530.0 2.2243e-05
19550.0 2.2088e-05
19570.0 2.1934e-05
19590.0 2.1788e-05
19610.0 2.1639e-05
19630.0 2.1488e-05
19650.0 2.134e-05
19670.0 2.1196e-05
19690.0 2.1046e-05
19710.0 2.0897e-05
19730.0 2.0753e-05
19750.0 2.0608e-05
19770.0 2.0457e-05
19790.0 2.0313e-05
19810.0 2.0171e-05
19830.0 2.0024e-05
19850.0 1.9877e-05
19870.0 1.9734e-05
19890.0 1.9581e-05
19910.0 1.9414e-05
19930.0 1.9239e-05
19950.0 1.9042e-05
19970.0 1.8806e-05
19990.0 1.853e-05
20010.0 1.8226e-05
20030.0 1.7872e-05
20050.0 1.7474e-05
20070.0 1.7063e-05
20090.0 1.6642e-05
20110.0 1.6192e-05
20130.0 1.5765e-05
20150.0 1.5369e-05
20170.0 1.4983e-05
20190.0 1.4619e-05
20210.0 1.4298e-05
20230.0 1.4006e-05
20250.0 1.3732e-05
20270.0 1.3497e-05
20290.0 1.3298e-05
20310.0 1.3125e-05
20330.0 1.298e-05
20350.0 1.2875e-05
20370.0 1.28e-05
20390.0 1.2754e-05
20410.0 1.274e-05
20430.0 1.2757e-05
20450.0 1.2807e-05
20470.0 1.2891e-05
20490.0 1.3002e-05
20510.0 1.3143e-05
20530.0 1.332e-05
20550.0 1.3522e-05
20570.0 1.374e-05
20590.0 1.3988e-05
20610.0 1.4255e-05
20630.0 1.4527e-05
20650.0 1.4809e-05
20670.0 1.511e-05
20690.0 1.5396e-05
20710.0 1.5671e-05
20730.0 1.5944e-05
20750.0 1.6203e-05
20770.0 1.6433e-05
20790.0 1.665e-05
20810.0 1.6853e-05
20830.0 1.7032e-05
20850.0 1.7191e-05
20870.0 1.7343e-05
20890.0 1.7481e-05
20910.0 1.7604e-05
20930.0 1.7722e-05
20950.0 1.7839e-05
20970.0 1.7947e-05
20990.0 1.805e-05
21010.0 1.8153e-05
21030.0 1.8249e-05
21050.0 1.8333e-05
21070.0 1.8409e-05
21090.0 1.8473e-05
21110.0 1.8519e-05
21130.0 1.8548e-05
21150.0 1.856e-05
21170.0 1.8554e-05
21190.0 1.853e-05
21210.0 1.8488e-05
21230.0 1.8428e-05
21250.0 1.8356e-05
21270.0 1.8273e-05
21290.0 1.8176e-05
21310.0 1.8072e-05
21330.0 1.7967e-05
21350.0 1.7855e-05
21370.0 1.774e-05
21390.0 1.7629e-05
21410.0 1.7522e-05
21430.0 1.7411e-05
21450.0 1.731e-05
21470.0 1.7219e-05
21490.0 1.7133e-05
21510.0 1.7054e-05
21530.0 1.6988e-05
21550.0 1.6932e-05
21570.0 1.6885e-05
21590.0 1.6851e-05
21610.0 1.683e-05
21630.0 1.6822e-05
21650.0 1.6828e-05
21670.0 1.6848e-05
21690.0 1.6883e-05
21710.0 1.6934e-05
21730.0 1.7001e-05
21750.0 1.7081e-05
21770.0 1.7182e-05
21790.0 1.73e-05
21810.0 1.743e-05
21830.0 1.7577e-05
21850.0 1.7745e-05
21870.0 1.7923e-05
21890.0 1.8109e-05
21910.0 1.8315e-05
21930.0 1.8532e-05
21950.0 1.8751e-05
21970.0 1.8979e-05
21990.0 1.9225e-05
22010.0 1.9462e-05
22030.0 1.9696e-05
22050.0 1.9936e-05
22070.0 2.0171e-05
22090.0 2.0387e-05
22110.0 2.0599e-05
22130.0 2.0801e-05
22150.0 2.0981e-05
22170.0 2.1139e-05
22190.0 2.1281e-05
22210.0 2.1396e-05
22230.0 2.1478e-05
22250.0 2.1532e-05
22270.0 2.1555e-05
22290.0 2.1544e-05
22310.0 2.1501e-05
22330.0 2.1419e-05
22350.0 2.1302e-05
22370.0 2.1154e-05
22390.0 2.0969e-05
22410.0 2.0743e-05
22430.0 2.0497e-05
22450.0 2.0225e-05
22470.0 1.9916e-05
22490.0 1.9587e-05
22510.0 1.925e-05
22530.0 1.8882e-05
22550.0 1.8492e-05
22570.0 1.811e-05
22590.0 1.7721e-05
22610.0 1.7316e-05
22630.0 1.6916e-05
