#lamb flux
1010.0 1.5714e-08
1030.0 1.7299e-08
1050.0 1.9123e-08
1070.0 2.1176e-08
1090.0 2.3508e-08
1110.0 2.59e-08
1130.0 2.8307e-08
1150.0 3.0828e-08
1170.0 3.3429e-08
1190.0 3.5896e-08
1210.0 3.8395e-08
1230.0 4.0978e-08
1250.0 4.3509e-08
1270.0 4.5966e-08
1290.0 4.8563e-08
1310.0 5.1158e-08
1330.0 5.3646e-08
1350.0 5.6162e-08
1370.0 5.876e-08
1390.0 6.1293e-08
1410.0 6.375e-08
1430.0 6.6318e-08
1450.0 6.8886e-08
1470.0 7.1368e-08
1490.0 7.3875e-08
1510.0 7.6524e-08
1530.0 7.9033e-08
1550.0 8.1507e-08
1570.0 8.4066e-08
1590.0 8.6626e-08
1610.0 8.907e-08
1630.0 9.1589e-08
1650.0 9.4173e-08
1670.0 9.6669e-08
1690.0 9.9131e-08
1710.0 1.0169e-07
1730.0 1.0425e-07
1750.0 1.0666e-07
1770.0 1.0913e-07
1790.0 1.1165e-07
1810.0 1.1408e-07
1830.0 1.1645e-07
1850.0 1.1897e-07
1870.0 1.2141e-07
1890.0 1.2375e-07
1910.0 1.2613e-07
1930.0 1.2855e-07
1950.0 1.3084e-07
1970.0 1.3307e-07
1990.0 1.3538e-07
2010.0 1.3762e-07
2030.0 1.3973e-07
2050.0 1.4189e-07
2070.0 1.4408e-07
2090.0 1.4608e-07
2110.0 1.4804e-07
2130.0 1.5001e-07
2150.0 1.5189e-07
2170.0 1.5362e-07
2190.0 1.5537e-07
2210.0 1.5707e-07
2230.0 1.5861e-07
2250.0 1.6006e-07
2270.0 1.6155e-07
2290.0 1.6288e-07
2310.0 1.6405e-07
2330.0 1.6521e-07
2350.0 1.6634e-07
2370.0 1.6736e-07
2390.0 1.6844e-07
2410.0 1.6983e-07
2430.0 1.7148e-07
2450.0 1.7357e-07
2470.0 1.765e-07
2490.0 1.8044e-07
2510.0 1.8503e-07
2530.0 1.9086e-07
2550.0 1.9867e-07
2570.0 2.0897e-07
2590.0 2.2296e-07
2610.0 2.4464e-07
2630.0 2.7559e-07
2650.0 3.1523e-07
2670.0 3.652e-07
2690.0 4.2469e-07
2710.0 4.8554e-07
2730.0 5.4283e-07
2750.0 5.9653e-07
2770.0 6.3995e-07
2790.0 6.7095e-07
2810.0 6.9237e-07
2830.0 7.0601e-07
2850.0 7.1159e-07
2870.0 7.1268e-07
2890.0 7.1127e-07
2910.0 7.0807e-07
2930.0 7.0371e-07
2950.0 6.9921e-07
2970.0 6.9474e-07
2990.0 6.9015e-07
3010.0 2.161e-05
3030.0 2.1481e-05
3050.0 2.1354e-05
3070.0 2.1216e-05
3090.0 2.1068e-05
3110.0 2.0889e-05
3130.0 2.0654e-05
3150.0 2.0343e-05
3170.0 1.9919e-05
3190.0 1.9391e-05
3210.0 1.8791e-05
3230.0 1.8144e-05
3250.0 1.7489e-05
3270.0 1.6999e-05
3290.0 1.6629e-05
3310.0 1.6542e-05
3330.0 1.6646e-05
3350.0 1.6935e-05
3370.0 1.7408e-05
3390.0 1.8041e-05
3410.0 1.8752e-05
3430.0 1.9568e-05
3450.0 2.0519e-05
3470.0 2.1572e-05
3490.0 2.2705e-05
3510.0 2.3997e-05
3530.0 2.5412e-05
3550.0 2.6934e-05
3570.0 2.862e-05
3590.0 3.0515e-05
3610.0 3.2637e-05
3630.0 3.4762e-05
3650.0 3.7021e-05
3670.0 3.9065e-05
3690.0 4.0592e-05
3710.0 4.1361e-05
3730.0 4.0908e-05
3750.0 3.9237e-05
3770.0 3.9864e-05
3790.0 3.8573e-05
3810.0 2.9375e-05
3830.0 2.7612e-05
3850.0 3.9927e-05
3870.0 3.6919e-05
3890.0 2.8102e-05
3910.0 2.9361e-05
3930.0 3.8644e-05
3950.0 4.5796e-05
3970.0 5.3171e-05
3990.0 3.862e-05
4010.0 6.4949e-05
4030.0 6.012e-05
4050.0 5.987e-05
4070.0 6.979e-05
4090.0 6.6722e-05
4110.0 6.1896e-05
4130.0 7.7743e-05
4150.0 0.00010316
4170.0 8.1968e-05
4190.0 7.1875e-05
4210.0 8.0961e-05
4230.0 0.00010122
4250.0 0.00011976
4270.0 0.00013025
4290.0 0.00011707
4310.0 0.00010784
4330.0 0.00010745
4350.0 0.00013827
4370.0 0.00016793
4390.0 0.00013365
4410.0 7.6068e-05
4430.0 5.4106e-05
4450.0 4.9802e-05
4470.0 3.3346e-05
4490.0 5.6713e-05
4510.0 0.00011484
4530.0 0.00013949
4550.0 0.000134
4570.0 0.00012161
4590.0 0.00013167
4610.0 0.00025605
4630.0 0.00035649
4650.0 0.00033487
4670.0 0.00029511
4690.0 0.00030745
4710.0 0.00032302
4730.0 0.00026042
4750.0 0.00016631
4770.0 0.00011625
4790.0 0.00013023
4810.0 0.00013607
4830.0 0.00013486
4850.0 0.00014731
4870.0 0.00019509
4890.0 0.00022631
4910.0 0.00017442
4930.0 0.00016831
4950.0 0.00019414
4970.0 0.00026099
4990.0 0.00035136
5010.0 0.00040278
5030.0 0.0003185
5050.0 0.00019165
5070.0 0.00013692
5090.0 0.00010592
5110.0 9.9477e-05
5130.0 0.00011795
5150.0 0.00011325
5170.0 0.00010662
5190.0 9.562e-05
5210.0 0.00010467
5230.0 0.00013047
5250.0 0.00015247
5270.0 0.00014154
5290.0 0.00015402
5310.0 0.00020632
5330.0 0.00021809
5350.0 0.00021478
5370.0 0.00024336
5390.0 0.00030265
5410.0 0.00025715
5430.0 0.00019423
5450.0 0.00019625
5470.0 0.000231
5490.0 0.00029235
5510.0 0.00035849
5530.0 0.00041484
5550.0 0.00037325
5570.0 0.00033337
5590.0 0.00027376
5610.0 0.00027899
5630.0 0.00031368
5650.0 0.00029219
5670.0 0.00026987
5690.0 0.00021824
5710.0 0.00022397
5730.0 0.00021841
5750.0 0.00011616
5770.0 8.4561e-05
5790.0 0.00010541
5810.0 0.00011332
5830.0 0.00017526
5850.0 0.00022713
5870.0 0.00024097
5890.0 0.0002273
5910.0 0.00021994
5930.0 0.00021361
5950.0 0.00022154
5970.0 0.00027439
5990.0 0.00022463
6010.0 0.00017189
6030.0 0.00013936
6050.0 0.00012419
6070.0 0.0001495
6090.0 0.00017004
6110.0 0.00017284
6130.0 0.00015686
6150.0 0.00012373
6170.0 0.00010048
6190.0 0.00012554
6210.0 0.0001965
6230.0 0.00028504
6250.0 0.00030293
6270.0 0.00023113
6290.0 0.00019735
6310.0 0.00015074
6330.0 0.00011015
6350.0 0.0001084
6370.0 0.00011402
6390.0 0.00013779
6410.0 0.00017676
6430.0 0.00021302
6450.0 0.00026305
6470.0 0.00027971
6490.0 0.00033717
6510.0 0.00037863
6530.0 0.00038209
6550.0 0.00035217
6570.0 0.00028928
6590.0 0.00027974
6610.0 0.00023219
6630.0 0.000241
6650.0 0.00023221
6670.0 0.00020582
6690.0 0.00016323
6710.0 0.00015841
6730.0 7.6149e-05
6750.0 9.6655e-05
6770.0 0.00014641
6790.0 0.00019394
6810.0 0.00014117
6830.0 0.00014429
6850.0 0.00012203
6870.0 0.00011563
6890.0 9.8738e-05
6910.0 0.00011647
6930.0 0.00010926
6950.0 0.00013064
6970.0 0.00013382
6990.0 0.00014819
7010.0 0.00014582
7030.0 0.00016271
7050.0 0.00014061
7070.0 0.00011874
7090.0 0.00012514
7110.0 0.00012982
7130.0 0.00014805
7150.0 0.00016863
7170.0 0.00018804
7190.0 0.00019724
7210.0 0.00017419
7230.0 0.00017596
7250.0 0.00019098
7270.0 0.00020856
7290.0 0.00025308
7310.0 0.00026164
7330.0 0.00023971
7350.0 0.00021377
7370.0 0.00015844
7390.0 0.00016602
7410.0 0.00020565
7430.0 0.00023366
7450.0 0.00025125
7470.0 0.00023344
7490.0 0.00019717
7510.0 0.00031519
7530.0 0.00028227
7550.0 0.00026163
7570.0 0.00017607
7590.0 7.75e-05
7610.0 5.4809e-05
7630.0 8.273e-05
7650.0 0.00011095
7670.0 0.00017633
7690.0 0.0001982
7710.0 0.00017846
7730.0 0.00017509
7750.0 0.00022841
7770.0 0.00023368
7790.0 0.00021516
7810.0 0.0001761
7830.0 0.00018898
7850.0 0.00020569
7870.0 0.00020141
7890.0 0.00015845
7910.0 0.00010597
7930.0 0.00010804
7950.0 9.7149e-05
7970.0 8.2126e-05
7990.0 7.4218e-05
8010.0 6.0962e-05
8030.0 5.7321e-05
8050.0 6.1016e-05
8070.0 6.6033e-05
8090.0 7.704e-05
8110.0 7.2112e-05
8130.0 4.7397e-05
8150.0 4.7291e-05
8170.0 3.1123e-05
8190.0 2.3192e-05
8210.0 4.2849e-05
8230.0 5.0077e-05
8250.0 2.6481e-05
8270.0 2.2016e-05
8290.0 3.0878e-05
8310.0 2.5252e-05
8330.0 1.5583e-05
8350.0 1.2371e-05
8370.0 5.0151e-06
8390.0 1.3559e-05
8410.0 1.6173e-05
8430.0 2.0137e-05
8450.0 2.2571e-05
8470.0 3.4425e-05
8490.0 2.895e-05
8510.0 2.3687e-05
8530.0 1.4846e-05
8550.0 3.8442e-05
8570.0 5.779e-05
8590.0 4.4355e-05
8610.0 6.3431e-05
8630.0 6.965e-05
8650.0 4.4393e-05
8670.0 5.8764e-05
8690.0 8.3421e-05
8710.0 7.3065e-05
8730.0 7.718e-05
8750.0 6.2609e-05
8770.0 5.6655e-05
8790.0 6.1698e-05
8810.0 6.5271e-05
8830.0 3.9532e-05
8850.0 2.12e-05
8870.0 1.603e-05
8890.0 2.9873e-05
8910.0 4.3926e-05
8930.0 5.6032e-05
8950.0 6.3326e-05
8970.0 6.1627e-05
8990.0 4.8799e-05
9010.0 3.6074e-05
9030.0 2.9141e-05
9050.0 3.0254e-05
9070.0 3.1333e-05
9090.0 3.2192e-05
9110.0 3.3198e-05
9130.0 3.3931e-05
9150.0 3.4464e-05
9170.0 3.5031e-05
9190.0 3.5639e-05
9210.0 3.6275e-05
9230.0 3.6949e-05
9250.0 3.7633e-05
9270.0 3.8341e-05
9290.0 3.9067e-05
9310.0 3.9797e-05
9330.0 4.0539e-05
9350.0 4.1305e-05
9370.0 4.2078e-05
9390.0 4.2857e-05
9410.0 4.3656e-05
9430.0 4.4477e-05
9450.0 4.5294e-05
9470.0 4.6126e-05
9490.0 4.6981e-05
9510.0 4.7844e-05
9530.0 4.871e-05
9550.0 4.9605e-05
9570.0 5.0513e-05
9590.0 5.1424e-05
9610.0 5.2349e-05
9630.0 5.3298e-05
9650.0 5.4253e-05
9670.0 5.5211e-05
9690.0 5.6193e-05
9710.0 5.7189e-05
9730.0 5.8187e-05
9750.0 5.92e-05
9770.0 6.0241e-05
9790.0 6.1279e-05
9810.0 6.2324e-05
9830.0 6.339e-05
9850.0 6.4468e-05
9870.0 6.5543e-05
9890.0 6.6634e-05
9910.0 6.7745e-05
9930.0 6.8856e-05
9950.0 6.9971e-05
9970.0 7.1107e-05
9990.0 7.2253e-05
10010.0 6.5905e-05
10030.0 6.6925e-05
10050.0 6.7955e-05
10070.0 6.8973e-05
10090.0 7.0006e-05
10110.0 7.1057e-05
10130.0 7.2107e-05
10150.0 7.3151e-05
10170.0 7.4201e-05
10190.0 7.5261e-05
10210.0 7.6311e-05
10230.0 7.7358e-05
10250.0 7.8415e-05
10270.0 7.9469e-05
10290.0 8.0512e-05
10310.0 8.1562e-05
10330.0 8.2617e-05
10350.0 8.3656e-05
10370.0 8.4691e-05
10390.0 8.5729e-05
10410.0 8.676e-05
10430.0 8.7773e-05
10450.0 8.8789e-05
10470.0 8.9801e-05
10490.0 9.0796e-05
10510.0 9.1781e-05
10530.0 9.2771e-05
10550.0 9.3744e-05
10570.0 9.4695e-05
10590.0 9.5643e-05
10610.0 9.6583e-05
10630.0 9.7499e-05
10650.0 9.8402e-05
10670.0 9.9303e-05
10690.0 0.00010018
10710.0 0.00010104
10730.0 0.00010189
10750.0 0.00010273
10770.0 0.00010354
10790.0 0.00010433
10810.0 0.00010511
10830.0 0.00010586
10850.0 0.00010657
10870.0 0.00010725
10890.0 0.00010787
10910.0 0.00010836
10930.0 0.00010869
10950.0 0.00010876
10970.0 0.0001085
10990.0 0.00010788
11010.0 0.00011014
11030.0 0.00010849
11050.0 0.00010642
11070.0 0.00010391
11090.0 0.00010087
11110.0 9.7708e-05
11130.0 9.4405e-05
11150.0 9.0851e-05
11170.0 8.7199e-05
11190.0 8.3673e-05
11210.0 8.0053e-05
11230.0 7.637e-05
11250.0 7.2877e-05
11270.0 6.9547e-05
11290.0 6.6236e-05
11310.0 6.3118e-05
11330.0 6.0379e-05
11350.0 5.7796e-05
11370.0 5.5407e-05
11390.0 5.3324e-05
11410.0 5.148e-05
11430.0 4.9743e-05
11450.0 4.8211e-05
11470.0 4.6847e-05
11490.0 4.5544e-05
11510.0 4.4259e-05
11530.0 4.3039e-05
11550.0 4.1814e-05
11570.0 4.0508e-05
11590.0 3.9162e-05
11610.0 3.7802e-05
11630.0 3.6341e-05
11650.0 3.4799e-05
11670.0 3.3292e-05
11690.0 3.1778e-05
11710.0 3.0232e-05
11730.0 2.874e-05
11750.0 2.736e-05
11770.0 2.601e-05
11790.0 2.4742e-05
11810.0 2.3615e-05
11830.0 2.2597e-05
11850.0 2.1649e-05
11870.0 2.0837e-05
11890.0 2.0141e-05
11910.0 1.9512e-05
11930.0 1.8951e-05
11950.0 1.8462e-05
11970.0 1.801e-05
11990.0 1.7571e-05
12010.0 1.7155e-05
12030.0 1.6749e-05
12050.0 1.633e-05
12070.0 1.5898e-05
12090.0 1.5479e-05
12110.0 1.5054e-05
12130.0 1.4623e-05
12150.0 1.4213e-05
12170.0 1.3835e-05
12190.0 1.3478e-05
12210.0 1.3173e-05
12230.0 1.2935e-05
12250.0 1.2764e-05
12270.0 1.2671e-05
12290.0 1.2663e-05
12310.0 1.2734e-05
12330.0 1.2897e-05
12350.0 1.3144e-05
12370.0 1.3453e-05
12390.0 1.3833e-05
12410.0 1.43e-05
12430.0 1.4781e-05
12450.0 1.5284e-05
12470.0 1.5825e-05
12490.0 1.6367e-05
12510.0 1.6868e-05
12530.0 1.7364e-05
12550.0 1.7837e-05
12570.0 1.8241e-05
12590.0 1.8583e-05
12610.0 1.8877e-05
12630.0 1.9094e-05
12650.0 1.9216e-05
12670.0 1.9269e-05
12690.0 1.9244e-05
12710.0 1.9137e-05
12730.0 1.8959e-05
12750.0 1.8705e-05
12770.0 1.8386e-05
12790.0 1.8018e-05
12810.0 1.7596e-05
12830.0 1.7123e-05
12850.0 1.6633e-05
12870.0 1.6123e-05
12890.0 1.5579e-05
12910.0 1.503e-05
12930.0 1.449e-05
12950.0 1.3931e-05
12970.0 1.3364e-05
12990.0 1.2825e-05
13010.0 1.2292e-05
13030.0 1.1754e-05
13050.0 1.1233e-05
13070.0 1.074e-05
13090.0 1.0244e-05
13110.0 9.7605e-06
13130.0 9.309e-06
13150.0 8.8772e-06
13170.0 8.451e-06
13190.0 8.0653e-06
13210.0 7.7192e-06
13230.0 7.3971e-06
13250.0 7.1115e-06
13270.0 6.8754e-06
13290.0 6.6789e-06
13310.0 6.5247e-06
13330.0 6.4236e-06
13350.0 6.3716e-06
13370.0 6.3695e-06
13390.0 6.4206e-06
13410.0 6.5126e-06
13430.0 6.649e-06
13450.0 6.8309e-06
13470.0 7.0418e-06
13490.0 7.2718e-06
13510.0 7.5397e-06
13530.0 7.8171e-06
13550.0 8.0871e-06
13570.0 8.3584e-06
13590.0 8.6282e-06
13610.0 8.8717e-06
13630.0 9.0872e-06
13650.0 9.288e-06
13670.0 9.4575e-06
13690.0 9.59e-06
13710.0 9.6945e-06
13730.0 9.7715e-06
13750.0 9.8106e-06
13770.0 9.8211e-06
13790.0 9.8048e-06
13810.0 9.7615e-06
13830.0 9.696e-06
13850.0 9.6077e-06
13870.0 9.497e-06
13890.0 9.3708e-06
13910.0 9.2298e-06
13930.0 9.0689e-06
13950.0 8.8954e-06
13970.0 8.7195e-06
13990.0 8.5307e-06
14010.0 8.3324e-06
14030.0 8.1365e-06
14050.0 7.9411e-06
14070.0 7.737e-06
14090.0 7.5428e-06
14110.0 7.3611e-06
14130.0 7.1857e-06
14150.0 7.021e-06
14170.0 6.8799e-06
14190.0 6.7572e-06
14210.0 6.652e-06
14230.0 6.5723e-06
14250.0 6.5184e-06
14270.0 6.4886e-06
14290.0 6.4864e-06
14310.0 6.5102e-06
14330.0 6.5587e-06
14350.0 6.634e-06
14370.0 6.7308e-06
14390.0 6.8435e-06
14410.0 6.9793e-06
14430.0 7.1318e-06
14450.0 7.2914e-06
14470.0 7.461e-06
14490.0 7.6463e-06
14510.0 7.8291e-06
14530.0 8.0084e-06
14550.0 8.194e-06
14570.0 8.3792e-06
14590.0 8.5553e-06
14610.0 8.7328e-06
14630.0 8.9159e-06
14650.0 9.0941e-06
14670.0 9.2719e-06
14690.0 9.4613e-06
14710.0 9.6626e-06
14730.0 9.8642e-06
14750.0 1.0085e-05
14770.0 1.033e-05
14790.0 1.0589e-05
14810.0 1.0863e-05
14830.0 1.1178e-05
14850.0 1.1511e-05
14870.0 1.185e-05
14890.0 1.2209e-05
14910.0 1.2583e-05
14930.0 1.2938e-05
14950.0 1.3268e-05
14970.0 1.3578e-05
14990.0 1.3838e-05
15010.0 1.4041e-05
15030.0 1.4195e-05
15050.0 1.4303e-05
15070.0 1.4365e-05
15090.0 1.44e-05
15110.0 1.4414e-05
15130.0 1.4417e-05
15150.0 1.4414e-05
15170.0 1.4407e-05
15190.0 1.4399e-05
15210.0 1.4391e-05
15230.0 1.4383e-05
15250.0 1.4374e-05
15270.0 1.4366e-05
15290.0 1.436e-05
15310.0 1.4353e-05
15330.0 1.4346e-05
15350.0 1.434e-05
15370.0 1.4335e-05
15390.0 1.4327e-05
15410.0 1.4322e-05
15430.0 1.4317e-05
15450.0 1.4311e-05
15470.0 1.4305e-05
15490.0 1.4301e-05
15510.0 1.4296e-05
15530.0 1.4291e-05
15550.0 1.4286e-05
15570.0 1.4282e-05
15590.0 1.4277e-05
15610.0 1.4271e-05
15630.0 1.4267e-05
15650.0 1.4263e-05
15670.0 1.4258e-05
15690.0 1.4253e-05
15710.0 1.425e-05
15730.0 1.4245e-05
15750.0 1.4239e-05
15770.0 1.4235e-05
15790.0 1.423e-05
15810.0 1.4224e-05
15830.0 1.4219e-05
15850.0 1.4215e-05
15870.0 1.4209e-05
15890.0 1.4203e-05
15910.0 1.4198e-05
15930.0 1.4192e-05
15950.0 1.4185e-05
15970.0 1.4179e-05
15990.0 1.4173e-05
16010.0 1.4165e-05
16030.0 1.4157e-05
16050.0 1.4151e-05
16070.0 1.4144e-05
16090.0 1.4135e-05
16110.0 1.4127e-05
16130.0 1.412e-05
16150.0 1.411e-05
16170.0 1.41e-05
16190.0 1.4092e-05
16210.0 1.4082e-05
16230.0 1.4071e-05
16250.0 1.4061e-05
16270.0 1.4051e-05
16290.0 1.4039e-05
16310.0 1.4027e-05
16330.0 1.4016e-05
16350.0 1.4003e-05
16370.0 1.3989e-05
16390.0 1.3976e-05
16410.0 1.3963e-05
16430.0 1.3949e-05
16450.0 1.3934e-05
16470.0 1.392e-05
16490.0 1.3904e-05
16510.0 1.3888e-05
16530.0 1.3872e-05
16550.0 1.3855e-05
16570.0 1.3837e-05
16590.0 1.3819e-05
16610.0 1.3802e-05
16630.0 1.3783e-05
16650.0 1.3763e-05
16670.0 1.3744e-05
16690.0 1.3725e-05
16710.0 1.3703e-05
16730.0 1.3681e-05
16750.0 1.3661e-05
16770.0 1.3638e-05
16790.0 1.3614e-05
16810.0 1.3592e-05
16830.0 1.3569e-05
16850.0 1.3544e-05
16870.0 1.3519e-05
16890.0 1.3495e-05
16910.0 1.3469e-05
16930.0 1.3441e-05
16950.0 1.3415e-05
16970.0 1.3388e-05
16990.0 1.336e-05
17010.0 1.3331e-05
17030.0 1.3304e-05
17050.0 1.3274e-05
17070.0 1.3243e-05
17090.0 1.3214e-05
17110.0 1.3183e-05
17130.0 1.315e-05
17150.0 1.3119e-05
17170.0 1.3087e-05
17190.0 1.3054e-05
17210.0 1.302e-05
17230.0 1.2987e-05
17250.0 1.2953e-05
17270.0 1.2917e-05
17290.0 1.2882e-05
17310.0 1.2847e-05
17330.0 1.281e-05
17350.0 1.2772e-05
17370.0 1.2736e-05
17390.0 1.2699e-05
17410.0 1.266e-05
17430.0 1.2622e-05
17450.0 1.2584e-05
17470.0 1.2543e-05
17490.0 1.2502e-05
17510.0 1.2463e-05
17530.0 1.2422e-05
17550.0 1.238e-05
17570.0 1.2339e-05
17590.0 1.2298e-05
17610.0 1.2254e-05
17630.0 1.2211e-05
17650.0 1.2169e-05
17670.0 1.2125e-05
17690.0 1.2079e-05
17710.0 1.2036e-05
17730.0 1.1992e-05
17750.0 1.1946e-05
17770.0 1.19e-05
17790.0 1.1856e-05
17810.0 1.1809e-05
17830.0 1.1762e-05
17850.0 1.1715e-05
17870.0 1.1669e-05
17890.0 1.162e-05
17910.0 1.1572e-05
17930.0 1.1525e-05
17950.0 1.1476e-05
17970.0 1.1427e-05
17990.0 1.1379e-05
18010.0 1.133e-05
18030.0 1.1279e-05
18050.0 1.1229e-05
18070.0 1.118e-05
18090.0 1.113e-05
18110.0 1.1078e-05
18130.0 1.1028e-05
18150.0 1.0978e-05
18170.0 1.0926e-05
18190.0 1.0874e-05
18210.0 1.0824e-05
18230.0 1.0771e-05
18250.0 1.0718e-05
18270.0 1.0667e-05
18290.0 1.0615e-05
18310.0 1.0561e-05
18330.0 1.0509e-05
18350.0 1.0457e-05
18370.0 1.0403e-05
18390.0 1.035e-05
18410.0 1.0297e-05
18430.0 1.0244e-05
18450.0 1.0189e-05
18470.0 1.0135e-05
18490.0 1.0083e-05
18510.0 1.0028e-05
18530.0 9.974e-06
18550.0 9.9212e-06
18570.0 9.8669e-06
18590.0 9.8115e-06
18610.0 9.7575e-06
18630.0 9.7039e-06
18650.0 9.6487e-06
18670.0 9.5935e-06
18690.0 9.5403e-06
18710.0 9.4858e-06
18730.0 9.4305e-06
18750.0 9.3764e-06
18770.0 9.3228e-06
18790.0 9.2666e-06
18810.0 9.2115e-06
18830.0 9.1578e-06
18850.0 9.1031e-06
18870.0 9.0475e-06
18890.0 8.9936e-06
18910.0 8.9399e-06
18930.0 8.8843e-06
18950.0 8.8296e-06
18970.0 8.776e-06
18990.0 8.7213e-06
19010.0 8.6651e-06
19030.0 8.6117e-06
19050.0 8.5579e-06
19070.0 8.5029e-06
19090.0 8.4486e-06
19110.0 8.3958e-06
19130.0 8.341e-06
19150.0 8.2861e-06
19170.0 8.2327e-06
19190.0 8.1793e-06
19210.0 8.1244e-06
19230.0 8.0704e-06
19250.0 8.018e-06
19270.0 7.9642e-06
19290.0 7.9102e-06
19310.0 7.8578e-06
19330.0 7.8051e-06
19350.0 7.7504e-06
19370.0 7.6975e-06
19390.0 7.6455e-06
19410.0 7.5923e-06
19430.0 7.5389e-06
19450.0 7.4874e-06
19470.0 7.4355e-06
19490.0 7.3824e-06
19510.0 7.3305e-06
19530.0 7.2794e-06
19550.0 7.2268e-06
19570.0 7.1741e-06
19590.0 7.1235e-06
19610.0 7.0724e-06
19630.0 7.0204e-06
19650.0 6.9696e-06
19670.0 6.9197e-06
19690.0 6.8681e-06
19710.0 6.8171e-06
19730.0 6.7674e-06
19750.0 6.7172e-06
19770.0 6.6657e-06
19790.0 6.6161e-06
19810.0 6.5671e-06
19830.0 6.5168e-06
19850.0 6.4666e-06
19870.0 6.4175e-06
19890.0 6.3661e-06
19910.0 6.3115e-06
19930.0 6.2551e-06
19950.0 6.1938e-06
19970.0 6.1229e-06
19990.0 6.042e-06
20010.0 5.765e-06
20030.0 5.6656e-06
20050.0 5.5533e-06
20070.0 5.4345e-06
20090.0 5.3094e-06
20110.0 5.1711e-06
20130.0 5.0332e-06
20150.0 4.8982e-06
20170.0 4.76e-06
20190.0 4.6215e-06
20210.0 4.4914e-06
20230.0 4.3652e-06
20250.0 4.2396e-06
20270.0 4.123e-06
20290.0 4.0163e-06
20310.0 3.9146e-06
20330.0 3.8191e-06
20350.0 3.7384e-06
20370.0 3.6657e-06
20390.0 3.6008e-06
20410.0 3.5467e-06
20430.0 3.503e-06
20450.0 3.4666e-06
20470.0 3.4396e-06
20490.0 3.4216e-06
20510.0 3.4113e-06
20530.0 3.4087e-06
20550.0 3.4129e-06
20570.0 3.4227e-06
20590.0 3.4388e-06
20610.0 3.4601e-06
20630.0 3.4848e-06
20650.0 3.5135e-06
20670.0 3.5476e-06
20690.0 3.5828e-06
20710.0 3.6195e-06
20730.0 3.6595e-06
20750.0 3.7013e-06
20770.0 3.742e-06
20790.0 3.7846e-06
20810.0 3.8292e-06
20830.0 3.8729e-06
20850.0 3.9161e-06
20870.0 3.9619e-06
20890.0 4.0078e-06
20910.0 4.0512e-06
20930.0 4.0957e-06
20950.0 4.1415e-06
20970.0 4.1855e-06
20990.0 4.2284e-06
21010.0 4.2734e-06
21030.0 4.3172e-06
21050.0 4.3585e-06
21070.0 4.3998e-06
21090.0 4.4414e-06
21110.0 4.479e-06
21130.0 4.5144e-06
21150.0 4.5491e-06
21170.0 4.5808e-06
21190.0 4.6083e-06
21210.0 4.6338e-06
21230.0 4.656e-06
21250.0 4.6726e-06
21270.0 4.6845e-06
21290.0 4.6917e-06
21310.0 4.6926e-06
21330.0 4.687e-06
21350.0 4.6748e-06
21370.0 4.6549e-06
21390.0 4.6278e-06
21410.0 4.5933e-06
21430.0 4.5486e-06
21450.0 4.4968e-06
21470.0 4.4389e-06
21490.0 4.3722e-06
21510.0 4.2977e-06
21530.0 4.2204e-06
21550.0 4.138e-06
21570.0 4.0489e-06
21590.0 3.9594e-06
21610.0 3.8711e-06
21630.0 3.7812e-06
21650.0 3.6913e-06
21670.0 3.6109e-06
21690.0 3.5345e-06
21710.0 3.4628e-06
21730.0 3.4007e-06
21750.0 3.3487e-06
21770.0 3.3038e-06
21790.0 3.27e-06
21810.0 3.2477e-06
21830.0 3.2357e-06
21850.0 3.2346e-06
21870.0 3.2439e-06
21890.0 3.2619e-06
21910.0 3.2901e-06
21930.0 3.3269e-06
21950.0 3.3696e-06
21970.0 3.4195e-06
21990.0 3.4782e-06
22010.0 3.5388e-06
22030.0 3.6023e-06
22050.0 3.6709e-06
22070.0 3.7419e-06
22090.0 3.8105e-06
22110.0 3.8813e-06
22130.0 3.9538e-06
22150.0 4.0228e-06
22170.0 4.0891e-06
22190.0 4.1563e-06
22210.0 4.22e-06
22230.0 4.2768e-06
22250.0 4.3311e-06
22270.0 4.3819e-06
22290.0 4.4257e-06
22310.0 4.4637e-06
22330.0 4.4979e-06
22350.0 4.5246e-06
22370.0 4.5439e-06
22390.0 4.5566e-06
22410.0 4.562e-06
22430.0 4.5591e-06
22450.0 4.5486e-06
22470.0 4.5298e-06
22490.0 4.5026e-06
22510.0 4.4682e-06
22530.0 4.4243e-06
22550.0 4.3708e-06
22570.0 4.3111e-06
22590.0 4.2438e-06
22610.0 4.1664e-06
