#lamb flux
1010.0 1.4153e-09
1030.0 1.5654e-09
1050.0 1.738e-09
1070.0 1.9322e-09
1090.0 2.1529e-09
1110.0 2.3792e-09
1130.0 2.607e-09
1150.0 2.8456e-09
1170.0 3.0917e-09
1190.0 3.3251e-09
1210.0 3.5616e-09
1230.0 3.806e-09
1250.0 4.0455e-09
1270.0 4.2781e-09
1290.0 4.5238e-09
1310.0 4.7694e-09
1330.0 5.0049e-09
1350.0 5.243e-09
1370.0 5.4889e-09
1390.0 5.7287e-09
1410.0 5.9613e-09
1430.0 6.2045e-09
1450.0 6.4476e-09
1470.0 6.6827e-09
1490.0 6.9202e-09
1510.0 7.1712e-09
1530.0 7.4091e-09
1550.0 7.6437e-09
1570.0 7.8866e-09
1590.0 8.1296e-09
1610.0 8.362e-09
1630.0 8.6017e-09
1650.0 8.8477e-09
1670.0 9.0858e-09
1690.0 9.321e-09
1710.0 9.5655e-09
1730.0 9.8115e-09
1750.0 1.0043e-08
1770.0 1.0282e-08
1790.0 1.0525e-08
1810.0 1.0762e-08
1830.0 1.0994e-08
1850.0 1.1241e-08
1870.0 1.1482e-08
1890.0 1.1715e-08
1910.0 1.1954e-08
1930.0 1.2199e-08
1950.0 1.2433e-08
1970.0 1.2665e-08
1990.0 1.2906e-08
2010.0 1.3143e-08
2030.0 1.3373e-08
2050.0 1.361e-08
2070.0 1.3854e-08
2090.0 1.4084e-08
2110.0 1.4315e-08
2130.0 1.4552e-08
2150.0 1.4786e-08
2170.0 1.501e-08
2190.0 1.5243e-08
2210.0 1.5478e-08
2230.0 1.5703e-08
2250.0 1.5928e-08
2270.0 1.6164e-08
2290.0 1.6392e-08
2310.0 1.6611e-08
2330.0 1.684e-08
2350.0 1.7074e-08
2370.0 1.7308e-08
2390.0 1.7561e-08
2410.0 1.786e-08
2430.0 1.8205e-08
2450.0 1.8617e-08
2470.0 1.9145e-08
2490.0 1.981e-08
2510.0 2.0566e-08
2530.0 2.1477e-08
2550.0 2.2616e-08
2570.0 2.4034e-08
2590.0 2.5878e-08
2610.0 2.8638e-08
2630.0 3.258e-08
2650.0 3.7734e-08
2670.0 4.4397e-08
2690.0 5.2586e-08
2710.0 6.1327e-08
2730.0 6.9963e-08
2750.0 7.847e-08
2770.0 8.587e-08
2790.0 9.1746e-08
2810.0 9.6409e-08
2830.0 1.0005e-07
2850.0 1.0254e-07
2870.0 1.0436e-07
2890.0 1.0581e-07
2910.0 1.0696e-07
2930.0 1.0791e-07
2950.0 1.0881e-07
2970.0 1.0968e-07
2990.0 1.1051e-07
3010.0 3.1236e-06
3030.0 3.147e-06
3050.0 3.1695e-06
3070.0 3.1889e-06
3090.0 3.2055e-06
3110.0 3.2158e-06
3130.0 3.2154e-06
3150.0 3.2011e-06
3170.0 3.1668e-06
3190.0 3.113e-06
3210.0 3.0447e-06
3230.0 2.9665e-06
3250.0 2.8894e-06
3270.0 2.833e-06
3290.0 2.8017e-06
3310.0 2.8068e-06
3330.0 2.8474e-06
3350.0 2.9182e-06
3370.0 3.0192e-06
3390.0 3.1465e-06
3410.0 3.285e-06
3430.0 3.4405e-06
3450.0 3.6195e-06
3470.0 3.8151e-06
3490.0 4.0223e-06
3510.0 4.2565e-06
3530.0 4.5073e-06
3550.0 4.7612e-06
3570.0 5.0261e-06
3590.0 5.3141e-06
3610.0 5.611e-06
3630.0 5.9069e-06
3650.0 6.2139e-06
3670.0 6.4942e-06
3690.0 6.7037e-06
3710.0 6.8238e-06
3730.0 6.8277e-06
3750.0 6.7327e-06
3770.0 6.6954e-06
3790.0 6.6556e-06
3810.0 6.492e-06
3830.0 6.693e-06
3850.0 7.4835e-06
3870.0 7.9175e-06
3890.0 7.8813e-06
3910.0 7.9149e-06
3930.0 8.1233e-06
3950.0 8.2516e-06
3970.0 7.518e-06
3990.0 6.4688e-06
4010.0 1.9388e-05
4030.0 2.3491e-05
4050.0 2.6931e-05
4070.0 2.3367e-05
4090.0 2.1164e-05
4110.0 1.8675e-05
4130.0 1.7188e-05
4150.0 1.8283e-05
4170.0 1.801e-05
4190.0 1.9197e-05
4210.0 1.9022e-05
4230.0 2.012e-05
4250.0 2.3802e-05
4270.0 2.4082e-05
4290.0 2.2191e-05
4310.0 2.3058e-05
4330.0 2.4527e-05
4350.0 2.7501e-05
4370.0 3.1297e-05
4390.0 2.9368e-05
4410.0 2.1698e-05
4430.0 1.8369e-05
4450.0 1.6879e-05
4470.0 1.2955e-05
4490.0 1.398e-05
4510.0 2.1118e-05
4530.0 2.4355e-05
4550.0 2.4566e-05
4570.0 2.7643e-05
4590.0 3.1488e-05
4610.0 4.247e-05
4630.0 5.516e-05
4650.0 5.982e-05
4670.0 5.5399e-05
4690.0 5.2861e-05
4710.0 5.5877e-05
4730.0 5.2732e-05
4750.0 3.9424e-05
4770.0 2.8919e-05
4790.0 2.7005e-05
4810.0 2.574e-05
4830.0 2.3565e-05
4850.0 2.5858e-05
4870.0 3.4161e-05
4890.0 4.0286e-05
4910.0 3.5345e-05
4930.0 3.1276e-05
4950.0 3.4361e-05
4970.0 4.4066e-05
4990.0 5.972e-05
5010.0 6.87e-05
5030.0 6.0577e-05
5050.0 4.0984e-05
5070.0 2.701e-05
5090.0 2.178e-05
5110.0 2.2398e-05
5130.0 2.5851e-05
5150.0 2.8008e-05
5170.0 2.7588e-05
5190.0 2.5779e-05
5210.0 2.6945e-05
5230.0 2.8325e-05
5250.0 3.0526e-05
5270.0 3.2935e-05
5290.0 3.6499e-05
5310.0 4.2484e-05
5330.0 4.7014e-05
5350.0 4.6714e-05
5370.0 4.9068e-05
5390.0 5.6306e-05
5410.0 5.6255e-05
5430.0 4.9749e-05
5450.0 4.5708e-05
5470.0 4.8534e-05
5490.0 5.9294e-05
5510.0 7.4138e-05
5530.0 8.5033e-05
5550.0 8.2185e-05
5570.0 7.4712e-05
5590.0 6.4963e-05
5610.0 5.991e-05
5630.0 5.8094e-05
5650.0 5.5329e-05
5670.0 5.2428e-05
5690.0 4.687e-05
5710.0 4.5699e-05
5730.0 4.2096e-05
5750.0 2.968e-05
5770.0 2.3155e-05
5790.0 2.6239e-05
5810.0 2.9629e-05
5830.0 3.6359e-05
5850.0 4.3281e-05
5870.0 4.802e-05
5890.0 4.8834e-05
5910.0 4.7909e-05
5930.0 4.5604e-05
5950.0 4.6469e-05
5970.0 5.297e-05
5990.0 4.9805e-05
6010.0 4.1751e-05
6030.0 3.5274e-05
6050.0 3.0719e-05
6070.0 3.0551e-05
6090.0 3.3128e-05
6110.0 3.7042e-05
6130.0 3.7609e-05
6150.0 3.2359e-05
6170.0 2.8466e-05
6190.0 3.2035e-05
6210.0 4.2349e-05
6230.0 5.5575e-05
6250.0 6.0195e-05
6270.0 5.2602e-05
6290.0 4.4257e-05
6310.0 3.455e-05
6330.0 2.6472e-05
6350.0 2.3613e-05
6370.0 2.4831e-05
6390.0 2.8706e-05
6410.0 3.5396e-05
6430.0 4.1333e-05
6450.0 4.7296e-05
6470.0 5.4154e-05
6490.0 6.5415e-05
6510.0 7.3142e-05
6530.0 7.1757e-05
6550.0 6.4888e-05
6570.0 5.5084e-05
6590.0 4.9671e-05
6610.0 4.2829e-05
6630.0 3.8801e-05
6650.0 3.6679e-05
6670.0 3.5632e-05
6690.0 3.2196e-05
6710.0 2.9266e-05
6730.0 2.108e-05
6750.0 2.0899e-05
6770.0 2.2716e-05
6790.0 2.611e-05
6810.0 2.3891e-05
6830.0 2.4601e-05
6850.0 2.301e-05
6870.0 2.1019e-05
6890.0 2.0182e-05
6910.0 2.1506e-05
6930.0 2.0144e-05
6950.0 2.0725e-05
6970.0 2.1799e-05
6990.0 2.4743e-05
7010.0 2.4954e-05
7030.0 2.535e-05
7050.0 2.4175e-05
7070.0 2.3035e-05
7090.0 2.3102e-05
7110.0 2.3771e-05
7130.0 2.5581e-05
7150.0 2.7169e-05
7170.0 2.9979e-05
7190.0 3.2955e-05
7210.0 3.2383e-05
7230.0 3.329e-05
7250.0 3.5776e-05
7270.0 3.8987e-05
7290.0 4.6273e-05
7310.0 5.0211e-05
7330.0 4.8533e-05
7350.0 4.3895e-05
7370.0 3.8193e-05
7390.0 3.7052e-05
7410.0 3.9375e-05
7430.0 4.376e-05
7450.0 4.7663e-05
7470.0 4.7225e-05
7490.0 4.306e-05
7510.0 4.8777e-05
7530.0 4.8243e-05
7550.0 4.3361e-05
7570.0 3.3873e-05
7590.0 2.3287e-05
7610.0 1.9987e-05
7630.0 2.2709e-05
7650.0 2.6851e-05
7670.0 3.3418e-05
7690.0 3.6774e-05
7710.0 3.8323e-05
7730.0 4.0273e-05
7750.0 4.5211e-05
7770.0 4.5922e-05
7790.0 4.2181e-05
7810.0 3.8488e-05
7830.0 3.969e-05
7850.0 3.8582e-05
7870.0 3.5374e-05
7890.0 2.9721e-05
7910.0 2.4159e-05
7930.0 2.3068e-05
7950.0 2.1016e-05
7970.0 1.9454e-05
7990.0 1.9343e-05
8010.0 1.4483e-06
8030.0 1.4276e-06
8050.0 1.4101e-06
8070.0 1.4318e-06
8090.0 1.5432e-06
8110.0 1.516e-06
8130.0 1.2426e-06
8150.0 1.2121e-06
8170.0 1.0376e-06
8190.0 9.7887e-07
8210.0 1.2824e-06
8230.0 1.4298e-06
8250.0 1.2773e-06
8270.0 1.1102e-06
8290.0 1.0903e-06
8310.0 8.411e-07
8330.0 5.6635e-07
8350.0 4.0245e-07
8370.0 2.5029e-07
8390.0 4.6319e-07
8410.0 5.3946e-07
8430.0 6.6492e-07
8450.0 7.8051e-07
8470.0 9.7484e-07
8490.0 9.652e-07
8510.0 9.4645e-07
8530.0 9.8196e-07
8550.0 1.3375e-06
8570.0 1.5899e-06
8590.0 1.7042e-06
8610.0 2.158e-06
8630.0 2.5965e-06
8650.0 2.6998e-06
8670.0 2.8768e-06
8690.0 2.9071e-06
8710.0 2.6303e-06
8730.0 2.4514e-06
8750.0 2.1599e-06
8770.0 2.0475e-06
8790.0 2.0146e-06
8810.0 1.9342e-06
8830.0 1.5388e-06
8850.0 1.1205e-06
8870.0 8.5703e-07
8890.0 8.4619e-07
8910.0 9.7571e-07
8930.0 1.1141e-06
8950.0 1.1372e-06
8970.0 1.1411e-06
8990.0 1.0126e-06
9010.0 1.0425e-05
9030.0 9.4402e-06
9050.0 9.4865e-06
9070.0 9.5622e-06
9090.0 9.6285e-06
9110.0 9.7104e-06
9130.0 9.7735e-06
9150.0 9.8226e-06
9170.0 9.8749e-06
9190.0 9.9307e-06
9210.0 9.9895e-06
9230.0 1.0051e-05
9250.0 1.0114e-05
9270.0 1.018e-05
9290.0 1.0247e-05
9310.0 1.0315e-05
9330.0 1.0384e-05
9350.0 1.0456e-05
9370.0 1.0528e-05
9390.0 1.0601e-05
9410.0 1.0677e-05
9430.0 1.0754e-05
9450.0 1.0831e-05
9470.0 1.091e-05
9490.0 1.0992e-05
9510.0 1.1074e-05
9530.0 1.1156e-05
9550.0 1.1242e-05
9570.0 1.1328e-05
9590.0 1.1415e-05
9610.0 1.1504e-05
9630.0 1.1595e-05
9650.0 1.1687e-05
9670.0 1.1779e-05
9690.0 1.1873e-05
9710.0 1.1969e-05
9730.0 1.2065e-05
9750.0 1.2162e-05
9770.0 1.2263e-05
9790.0 1.2363e-05
9810.0 1.2463e-05
9830.0 1.2566e-05
9850.0 1.267e-05
9870.0 1.2774e-05
9890.0 1.288e-05
9910.0 1.2987e-05
9930.0 1.3094e-05
9950.0 1.3202e-05
9970.0 1.3312e-05
9990.0 1.3423e-05
10010.0 1.1648e-05
10030.0 1.1744e-05
10050.0 1.1843e-05
10070.0 1.1944e-05
10090.0 1.2039e-05
10110.0 1.2137e-05
10130.0 1.2236e-05
10150.0 1.2334e-05
10170.0 1.2433e-05
10190.0 1.2534e-05
10210.0 1.2633e-05
10230.0 1.2733e-05
10250.0 1.2834e-05
10270.0 1.2935e-05
10290.0 1.3034e-05
10310.0 1.3135e-05
10330.0 1.3237e-05
10350.0 1.3337e-05
10370.0 1.3437e-05
10390.0 1.3538e-05
10410.0 1.3639e-05
10430.0 1.3737e-05
10450.0 1.3837e-05
10470.0 1.3937e-05
10490.0 1.4035e-05
10510.0 1.4132e-05
10530.0 1.4231e-05
10550.0 1.4329e-05
10570.0 1.4424e-05
10590.0 1.452e-05
10610.0 1.4616e-05
10630.0 1.4709e-05
10650.0 1.4802e-05
10670.0 1.4896e-05
10690.0 1.4988e-05
10710.0 1.5077e-05
10730.0 1.5167e-05
10750.0 1.5258e-05
10770.0 1.5344e-05
10790.0 1.543e-05
10810.0 1.5516e-05
10830.0 1.5599e-05
10850.0 1.5678e-05
10870.0 1.5754e-05
10890.0 1.5821e-05
10910.0 1.5873e-05
10930.0 1.5902e-05
10950.0 1.5896e-05
10970.0 1.5842e-05
10990.0 1.5736e-05
11010.0 1.5539e-05
11030.0 1.5292e-05
11050.0 1.4991e-05
11070.0 1.463e-05
11090.0 1.4198e-05
11110.0 1.375e-05
11130.0 1.3283e-05
11150.0 1.278e-05
11170.0 1.2261e-05
11190.0 1.1759e-05
11210.0 1.1239e-05
11230.0 1.0707e-05
11250.0 1.0198e-05
11270.0 9.7096e-06
11290.0 9.2201e-06
11310.0 8.7564e-06
11330.0 8.3481e-06
11350.0 7.9623e-06
11370.0 7.6058e-06
11390.0 7.2974e-06
11410.0 7.0276e-06
11430.0 6.7769e-06
11450.0 6.5609e-06
11470.0 6.3741e-06
11490.0 6.2003e-06
11510.0 6.0328e-06
11530.0 5.8774e-06
11550.0 5.7231e-06
11570.0 5.5583e-06
11590.0 5.3878e-06
11610.0 5.2142e-06
11630.0 5.0252e-06
11650.0 4.8229e-06
11670.0 4.6236e-06
11690.0 4.4214e-06
11710.0 4.2128e-06
11730.0 4.0107e-06
11750.0 3.8237e-06
11770.0 3.6402e-06
11790.0 3.4683e-06
11810.0 3.317e-06
11830.0 3.1817e-06
11850.0 3.057e-06
11870.0 2.9527e-06
11890.0 2.866e-06
11910.0 2.7899e-06
11930.0 2.7244e-06
11950.0 2.6699e-06
11970.0 2.6212e-06
11990.0 2.5751e-06
12010.0 2.5325e-06
12030.0 2.4915e-06
12050.0 2.449e-06
12070.0 2.4049e-06
12090.0 2.3624e-06
12110.0 2.3192e-06
12130.0 2.2759e-06
12150.0 2.236e-06
12170.0 2.2011e-06
12190.0 2.171e-06
12210.0 2.15e-06
12230.0 2.1398e-06
12250.0 2.1415e-06
12270.0 2.1576e-06
12290.0 2.1881e-06
12310.0 2.2319e-06
12330.0 2.2932e-06
12350.0 2.3696e-06
12370.0 2.4567e-06
12390.0 2.557e-06
12410.0 2.6746e-06
12430.0 2.7942e-06
12450.0 2.918e-06
12470.0 3.0496e-06
12490.0 3.1817e-06
12510.0 3.3058e-06
12530.0 3.4291e-06
12550.0 3.5481e-06
12570.0 3.6532e-06
12590.0 3.7454e-06
12610.0 3.8276e-06
12630.0 3.8931e-06
12650.0 3.9384e-06
12670.0 3.9681e-06
12690.0 3.98e-06
12710.0 3.9734e-06
12730.0 3.9504e-06
12750.0 3.9093e-06
12770.0 3.8529e-06
12790.0 3.7845e-06
12810.0 3.7029e-06
12830.0 3.6084e-06
12850.0 3.5096e-06
12870.0 3.4051e-06
12890.0 3.2921e-06
12910.0 3.1771e-06
12930.0 3.0639e-06
12950.0 2.9457e-06
12970.0 2.8254e-06
12990.0 2.7116e-06
13010.0 2.5992e-06
13030.0 2.4856e-06
13050.0 2.3764e-06
13070.0 2.2742e-06
13090.0 2.1715e-06
13110.0 2.0723e-06
13130.0 1.9807e-06
13150.0 1.894e-06
13170.0 1.8092e-06
13190.0 1.7337e-06
13210.0 1.6672e-06
13230.0 1.6064e-06
13250.0 1.5541e-06
13270.0 1.5128e-06
13290.0 1.4807e-06
13310.0 1.4586e-06
13330.0 1.4486e-06
13350.0 1.4497e-06
13370.0 1.4627e-06
13390.0 1.4883e-06
13410.0 1.5228e-06
13430.0 1.5677e-06
13450.0 1.6231e-06
13470.0 1.6846e-06
13490.0 1.7498e-06
13510.0 1.8233e-06
13530.0 1.8978e-06
13550.0 1.9691e-06
13570.0 2.0395e-06
13590.0 2.108e-06
13610.0 2.169e-06
13630.0 2.2222e-06
13650.0 2.2708e-06
13670.0 2.3111e-06
13690.0 2.3423e-06
13710.0 2.3664e-06
13730.0 2.3837e-06
13750.0 2.3923e-06
13770.0 2.3943e-06
13790.0 2.3899e-06
13810.0 2.3793e-06
13830.0 2.3638e-06
13850.0 2.3426e-06
13870.0 2.316e-06
13890.0 2.2855e-06
13910.0 2.2512e-06
13930.0 2.2115e-06
13950.0 2.1681e-06
13970.0 2.1237e-06
13990.0 2.0754e-06
14010.0 2.0241e-06
14030.0 1.9728e-06
14050.0 1.9212e-06
14070.0 1.8666e-06
14090.0 1.8144e-06
14110.0 1.7653e-06
14130.0 1.7177e-06
14150.0 1.6729e-06
14170.0 1.6347e-06
14190.0 1.6016e-06
14210.0 1.5736e-06
14230.0 1.5528e-06
14250.0 1.5394e-06
14270.0 1.5329e-06
14290.0 1.5343e-06
14310.0 1.5429e-06
14330.0 1.5582e-06
14350.0 1.5808e-06
14370.0 1.609e-06
14390.0 1.6409e-06
14410.0 1.6786e-06
14430.0 1.72e-06
14450.0 1.7622e-06
14470.0 1.806e-06
14490.0 1.8526e-06
14510.0 1.8972e-06
14530.0 1.9395e-06
14550.0 1.9818e-06
14570.0 2.0224e-06
14590.0 2.0594e-06
14610.0 2.0951e-06
14630.0 2.1305e-06
14650.0 2.1635e-06
14670.0 2.1953e-06
14690.0 2.2285e-06
14710.0 2.2634e-06
14730.0 2.2983e-06
14750.0 2.3369e-06
14770.0 2.3808e-06
14790.0 2.4283e-06
14810.0 2.4798e-06
14830.0 2.5408e-06
14850.0 2.6072e-06
14870.0 2.6764e-06
14890.0 2.751e-06
14910.0 2.8303e-06
14930.0 2.9066e-06
14950.0 2.9778e-06
14970.0 3.0452e-06
14990.0 3.1018e-06
15010.0 3.145e-06
15030.0 3.1771e-06
15050.0 3.1983e-06
15070.0 3.2086e-06
15090.0 3.2122e-06
15110.0 3.2112e-06
15130.0 3.2071e-06
15150.0 3.2017e-06
15170.0 3.1953e-06
15190.0 3.1884e-06
15210.0 3.1817e-06
15230.0 3.1749e-06
15250.0 3.1679e-06
15270.0 3.1609e-06
15290.0 3.1544e-06
15310.0 3.1476e-06
15330.0 3.1408e-06
15350.0 3.1343e-06
15370.0 3.1278e-06
15390.0 3.121e-06
15410.0 3.1144e-06
15430.0 3.108e-06
15450.0 3.1014e-06
15470.0 3.0948e-06
15490.0 3.0885e-06
15510.0 3.0822e-06
15530.0 3.0757e-06
15550.0 3.0693e-06
15570.0 3.0632e-06
15590.0 3.0568e-06
15610.0 3.0503e-06
15630.0 3.0441e-06
15650.0 3.038e-06
15670.0 3.0316e-06
15690.0 3.0254e-06
15710.0 3.0194e-06
15730.0 3.0132e-06
15750.0 3.0069e-06
15770.0 3.0009e-06
15790.0 2.9948e-06
15810.0 2.9885e-06
15830.0 2.9824e-06
15850.0 2.9765e-06
15870.0 2.9704e-06
15890.0 2.9643e-06
15910.0 2.9584e-06
15930.0 2.9524e-06
15950.0 2.9462e-06
15970.0 2.9402e-06
15990.0 2.9343e-06
16010.0 2.9282e-06
16030.0 2.922e-06
16050.0 2.9163e-06
16070.0 2.9103e-06
16090.0 2.9042e-06
16110.0 2.8983e-06
16130.0 2.8925e-06
16150.0 2.8863e-06
16170.0 2.8803e-06
16190.0 2.8745e-06
16210.0 2.8685e-06
16230.0 2.8624e-06
16250.0 2.8565e-06
16270.0 2.8507e-06
16290.0 2.8446e-06
16310.0 2.8386e-06
16330.0 2.8327e-06
16350.0 2.8268e-06
16370.0 2.8205e-06
16390.0 2.8146e-06
16410.0 2.8087e-06
16430.0 2.8026e-06
16450.0 2.7966e-06
16470.0 2.7908e-06
16490.0 2.7847e-06
16510.0 2.7785e-06
16530.0 2.7725e-06
16550.0 2.7666e-06
16570.0 2.7604e-06
16590.0 2.7542e-06
16610.0 2.7483e-06
16630.0 2.7422e-06
16650.0 2.736e-06
16670.0 2.73e-06
16690.0 2.724e-06
16710.0 2.7177e-06
16730.0 2.7115e-06
16750.0 2.7055e-06
16770.0 2.6993e-06
16790.0 2.6929e-06
16810.0 2.6869e-06
16830.0 2.6808e-06
16850.0 2.6744e-06
16870.0 2.6682e-06
16890.0 2.6621e-06
16910.0 2.6557e-06
16930.0 2.6492e-06
16950.0 2.6431e-06
16970.0 2.6368e-06
16990.0 2.6303e-06
17010.0 2.624e-06
17030.0 2.6179e-06
17050.0 2.6114e-06
17070.0 2.6049e-06
17090.0 2.5986e-06
17110.0 2.5922e-06
17130.0 2.5855e-06
17150.0 2.5791e-06
17170.0 2.5728e-06
17190.0 2.5662e-06
17210.0 2.5597e-06
17230.0 2.5533e-06
17250.0 2.5468e-06
17270.0 2.54e-06
17290.0 2.5335e-06
17310.0 2.527e-06
17330.0 2.5203e-06
17350.0 2.5135e-06
17370.0 2.5071e-06
17390.0 2.5005e-06
17410.0 2.4937e-06
17430.0 2.4871e-06
17450.0 2.4806e-06
17470.0 2.4736e-06
17490.0 2.4668e-06
17510.0 2.4602e-06
17530.0 2.4534e-06
17550.0 2.4464e-06
17570.0 2.4397e-06
17590.0 2.4331e-06
17610.0 2.4261e-06
17630.0 2.4192e-06
17650.0 2.4125e-06
17670.0 2.4056e-06
17690.0 2.3984e-06
17710.0 2.3916e-06
17730.0 2.3848e-06
17750.0 2.3777e-06
17770.0 2.3707e-06
17790.0 2.364e-06
17810.0 2.3569e-06
17830.0 2.3498e-06
17850.0 2.3428e-06
17870.0 2.3359e-06
17890.0 2.3287e-06
17910.0 2.3215e-06
17930.0 2.3147e-06
17950.0 2.3076e-06
17970.0 2.3003e-06
17990.0 2.2934e-06
18010.0 2.2864e-06
18030.0 2.279e-06
18050.0 2.2718e-06
18070.0 2.2648e-06
18090.0 2.2576e-06
18110.0 2.2502e-06
18130.0 2.2432e-06
18150.0 2.2361e-06
18170.0 2.2287e-06
18190.0 2.2215e-06
18210.0 2.2144e-06
18230.0 2.207e-06
18250.0 2.1996e-06
18270.0 2.1925e-06
18290.0 2.1852e-06
18310.0 2.1778e-06
18330.0 2.1706e-06
18350.0 2.1635e-06
18370.0 2.156e-06
18390.0 2.1486e-06
18410.0 2.1414e-06
18430.0 2.1341e-06
18450.0 2.1265e-06
18470.0 2.1192e-06
18490.0 2.112e-06
18510.0 2.1045e-06
18530.0 2.0971e-06
18550.0 2.0899e-06
18570.0 2.0825e-06
18590.0 2.0749e-06
18610.0 2.0675e-06
18630.0 2.0603e-06
18650.0 2.0527e-06
18670.0 2.0452e-06
18690.0 2.038e-06
18710.0 2.0305e-06
18730.0 2.023e-06
18750.0 2.0156e-06
18770.0 2.0084e-06
18790.0 2.0007e-06
18810.0 1.9931e-06
18830.0 1.9858e-06
18850.0 1.9784e-06
18870.0 1.9708e-06
18890.0 1.9634e-06
18910.0 1.9561e-06
18930.0 1.9485e-06
18950.0 1.941e-06
18970.0 1.9337e-06
18990.0 1.9262e-06
19010.0 1.9184e-06
19030.0 1.9111e-06
19050.0 1.9037e-06
19070.0 1.8961e-06
19090.0 1.8886e-06
19110.0 1.8814e-06
19130.0 1.8738e-06
19150.0 1.8662e-06
19170.0 1.8588e-06
19190.0 1.8514e-06
19210.0 1.8437e-06
19230.0 1.8362e-06
19250.0 1.8289e-06
19270.0 1.8214e-06
19290.0 1.8138e-06
19310.0 1.8065e-06
19330.0 1.7991e-06
19350.0 1.7914e-06
19370.0 1.7839e-06
19390.0 1.7766e-06
19410.0 1.769e-06
19430.0 1.7614e-06
19450.0 1.7541e-06
19470.0 1.7467e-06
19490.0 1.7391e-06
19510.0 1.7317e-06
19530.0 1.7244e-06
19550.0 1.7168e-06
19570.0 1.7092e-06
19590.0 1.7019e-06
19610.0 1.6945e-06
19630.0 1.6869e-06
19650.0 1.6795e-06
19670.0 1.6723e-06
19690.0 1.6647e-06
19710.0 1.6572e-06
19730.0 1.6499e-06
19750.0 1.6425e-06
19770.0 1.6348e-06
19790.0 1.6275e-06
19810.0 1.6202e-06
19830.0 1.6127e-06
19850.0 1.6051e-06
19870.0 1.5977e-06
19890.0 1.5897e-06
19910.0 1.581e-06
19930.0 1.5716e-06
19950.0 1.5608e-06
19970.0 1.5476e-06
19990.0 1.5317e-06
20010.0 1.3628e-06
20030.0 1.343e-06
20050.0 1.32e-06
20070.0 1.295e-06
20090.0 1.268e-06
20110.0 1.2376e-06
20130.0 1.2068e-06
20150.0 1.1763e-06
20170.0 1.1446e-06
20190.0 1.1125e-06
20210.0 1.0822e-06
20230.0 1.0526e-06
20250.0 1.023e-06
20270.0 9.9544e-07
20290.0 9.7032e-07
20310.0 9.4645e-07
20330.0 9.2415e-07
20350.0 9.0563e-07
20370.0 8.8919e-07
20390.0 8.7478e-07
20410.0 8.6314e-07
20430.0 8.5416e-07
20450.0 8.4705e-07
20470.0 8.4229e-07
20490.0 8.3973e-07
20510.0 8.3899e-07
20530.0 8.4003e-07
20550.0 8.4262e-07
20570.0 8.464e-07
20590.0 8.5151e-07
20610.0 8.5769e-07
20630.0 8.6451e-07
20650.0 8.7213e-07
20670.0 8.8084e-07
20690.0 8.8973e-07
20710.0 8.9891e-07
20730.0 9.0882e-07
20750.0 9.1916e-07
20770.0 9.2933e-07
20790.0 9.4001e-07
20810.0 9.5131e-07
20830.0 9.6255e-07
20850.0 9.7384e-07
20870.0 9.8593e-07
20890.0 9.9826e-07
20910.0 1.0102e-06
20930.0 1.0225e-06
20950.0 1.0353e-06
20970.0 1.0477e-06
20990.0 1.06e-06
21010.0 1.073e-06
21030.0 1.0856e-06
21050.0 1.0977e-06
21070.0 1.1097e-06
21090.0 1.1218e-06
21110.0 1.1328e-06
21130.0 1.1432e-06
21150.0 1.1532e-06
21170.0 1.1623e-06
21190.0 1.1701e-06
21210.0 1.1771e-06
21230.0 1.183e-06
21250.0 1.1872e-06
21270.0 1.1898e-06
21290.0 1.1908e-06
21310.0 1.1898e-06
21330.0 1.187e-06
21350.0 1.1821e-06
21370.0 1.1749e-06
21390.0 1.1657e-06
21410.0 1.1544e-06
21430.0 1.1401e-06
21450.0 1.1241e-06
21470.0 1.1067e-06
21490.0 1.087e-06
21510.0 1.0653e-06
21530.0 1.0433e-06
21550.0 1.0203e-06
21570.0 9.9574e-07
21590.0 9.7158e-07
21610.0 9.4824e-07
21630.0 9.2487e-07
21650.0 9.0204e-07
21670.0 8.8225e-07
21690.0 8.64e-07
21710.0 8.4756e-07
21730.0 8.341e-07
21750.0 8.2372e-07
21770.0 8.158e-07
21790.0 8.1125e-07
21810.0 8.0999e-07
21830.0 8.1179e-07
21850.0 8.1686e-07
21870.0 8.2478e-07
21890.0 8.35e-07
21910.0 8.4811e-07
21930.0 8.6349e-07
21950.0 8.8015e-07
21970.0 8.986e-07
21990.0 9.1932e-07
22010.0 9.4002e-07
22030.0 9.6105e-07
22050.0 9.8313e-07
22070.0 1.0053e-06
22090.0 1.0264e-06
22110.0 1.0475e-06
22130.0 1.0687e-06
22150.0 1.0885e-06
22170.0 1.1071e-06
22190.0 1.1256e-06
22210.0 1.1427e-06
22230.0 1.1579e-06
22250.0 1.1721e-06
22270.0 1.1852e-06
22290.0 1.1964e-06
22310.0 1.206e-06
22330.0 1.2145e-06
22350.0 1.2211e-06
22370.0 1.2257e-06
22390.0 1.2286e-06
22410.0 1.2295e-06
22430.0 1.2283e-06
22450.0 1.2251e-06
22470.0 1.2197e-06
22490.0 1.212e-06
22510.0 1.2024e-06
22530.0 1.1902e-06
22550.0 1.1753e-06
22570.0 1.1587e-06
22590.0 1.1401e-06
22610.0 1.1187e-06
22630.0 1.0955e-06
