#lamb flux
1010.0 0.00036316
1030.0 0.00045988
1050.0 0.00057007
1070.0 0.00069183
1090.0 0.00082593
1110.0 0.00095681
1130.0 0.0010794
1150.0 0.0011967
1170.0 0.001304
1190.0 0.0013878
1210.0 0.0014561
1230.0 0.0015102
1250.0 0.0015432
1270.0 0.0015553
1290.0 0.0015565
1310.0 0.0015418
1330.0 0.0015099
1350.0 0.0014721
1370.0 0.0014449
1390.0 0.0014037
1410.0 0.0013514
1430.0 0.0012948
1450.0 0.0012331
1470.0 0.0011671
1490.0 0.0011009
1510.0 0.001036
1530.0 0.00096904
1550.0 0.0009053
1570.0 0.00084675
1590.0 0.00079606
1610.0 0.00075871
1630.0 0.00072781
1650.0 0.00070284
1670.0 0.00068247
1690.0 0.00066721
1710.0 0.00065802
1730.0 0.00065368
1750.0 0.00064895
1770.0 0.0006491
1790.0 0.000654
1810.0 0.00066289
1830.0 0.00067525
1850.0 0.00068231
1870.0 0.00069537
1890.0 0.0007124
1910.0 0.00073447
1930.0 0.00076195
1950.0 0.00079408
1970.0 0.00083178
1990.0 0.00087636
2010.0 0.00092747
2030.0 0.00098528
2050.0 0.0010516
2070.0 0.0011272
2090.0 0.0012109
2110.0 0.0013045
2130.0 0.0014096
2150.0 0.0015256
2170.0 0.0016525
2190.0 0.0017928
2210.0 0.0019464
2230.0 0.0021121
2250.0 0.0022909
2270.0 0.0024848
2290.0 0.0026909
2310.0 0.0029082
2330.0 0.0031387
2350.0 0.0033809
2370.0 0.003631
2390.0 0.0038893
2410.0 0.0041557
2430.0 0.0044227
2450.0 0.0046871
2470.0 0.0049468
2490.0 0.0051965
2510.0 0.0054321
2530.0 0.0056593
2550.0 0.0058899
2570.0 0.0061448
2590.0 0.0064537
2610.0 0.0068821
2630.0 0.0074853
2650.0 0.0082873
2670.0 0.0093532
2690.0 0.01074
2710.0 0.012366
2730.0 0.014173
2750.0 0.01622
2770.0 0.018335
2790.0 0.02036
2810.0 0.022296
2830.0 0.024128
2850.0 0.025645
2870.0 0.026947
2890.0 0.028113
2910.0 0.029137
2930.0 0.03003
2950.0 0.030898
2970.0 0.031748
2990.0 0.032549
3010.0 0.03333
3030.0 0.034133
3050.0 0.034922
3070.0 0.035646
3090.0 0.036358
3110.0 0.037021
3130.0 0.037577
3150.0 0.038026
3170.0 0.038375
3190.0 0.038603
3210.0 0.038763
3230.0 0.038932
3250.0 0.03919
3270.0 0.03959
3290.0 0.040196
3310.0 0.041069
3330.0 0.042148
3350.0 0.043359
3370.0 0.044714
3390.0 0.046137
3410.0 0.047465
3430.0 0.048687
3450.0 0.049688
3470.0 0.052624
3490.0 0.052741
3510.0 0.046802
3530.0 0.047927
3550.0 0.057869
3570.0 0.065736
3590.0 0.07074
3610.0 0.075839
3630.0 0.078868
3650.0 0.071265
3670.0 0.064267
3690.0 0.065116
3710.0 0.071891
3730.0 0.080947
3750.0 0.07912
3770.0 0.079218
3790.0 0.082414
3810.0 0.07782
3830.0 0.068543
3850.0 0.061487
3870.0 0.05955
3890.0 0.066795
3910.0 0.072548
3930.0 0.074627
3950.0 0.076048
3970.0 0.078434
3990.0 0.081927
4010.0 0.082153
4030.0 0.077061
4050.0 0.070129
4070.0 0.069755
4090.0 0.074009
4110.0 0.078336
4130.0 0.076422
4150.0 0.074407
4170.0 0.073679
4190.0 0.076676
4210.0 0.07577
4230.0 0.069811
4250.0 0.06233
4270.0 0.05632
4290.0 0.051446
4310.0 0.047727
4330.0 0.047736
4350.0 0.051932
4370.0 0.053392
4390.0 0.055195
4410.0 0.05704
4430.0 0.057664
4450.0 0.056695
4470.0 0.055422
4490.0 0.057774
4510.0 0.059235
4530.0 0.060488
4550.0 0.061541
4570.0 0.062312
4590.0 0.063885
4610.0 0.064717
4630.0 0.066522
4650.0 0.06891
4670.0 0.066765
4690.0 0.062314
4710.0 0.056908
4730.0 0.054682
4750.0 0.05385
4770.0 0.052174
4790.0 0.05005
4810.0 0.04808
4830.0 0.049728
4850.0 0.05226
4870.0 0.046612
4890.0 0.045481
4910.0 0.043943
4930.0 0.044935
4950.0 0.041468
4970.0 0.037861
4990.0 0.036921
5010.0 0.034409
5030.0 0.032171
5050.0 0.032524
5070.0 0.035115
5090.0 0.036416
5110.0 0.040313
5130.0 0.041527
5150.0 0.042906
5170.0 0.044269
5190.0 0.043189
5210.0 0.043867
5230.0 0.044744
5250.0 0.044979
5270.0 0.045989
5290.0 0.045338
5310.0 0.044358
5330.0 0.042029
5350.0 0.039761
5370.0 0.037369
5390.0 0.038078
5410.0 0.038562
5430.0 0.038724
5450.0 0.038932
5470.0 0.038454
5490.0 0.037893
5510.0 0.037277
5530.0 0.036341
5550.0 0.036253
5570.0 0.036709
5590.0 0.037229
5610.0 0.037174
5630.0 0.036375
5650.0 0.035956
5670.0 0.034994
5690.0 0.034022
5710.0 0.032877
5730.0 0.032517
5750.0 0.032285
5770.0 0.031476
5790.0 0.031354
5810.0 0.031128
5830.0 0.031811
5850.0 0.032266
5870.0 0.032451
5890.0 0.031999
5910.0 0.031962
5930.0 0.031744
5950.0 0.031838
5970.0 0.03131
5990.0 0.030721
6010.0 0.031146
6030.0 0.031554
6050.0 0.030948
6070.0 0.030699
6090.0 0.030462
6110.0 0.030709
6130.0 0.030691
6150.0 0.029828
6170.0 0.027764
6190.0 0.02567
6210.0 0.024548
6230.0 0.024211
6250.0 0.024384
6270.0 0.025186
6290.0 0.026027
6310.0 0.027221
6330.0 0.028006
6350.0 0.028302
6370.0 0.028404
6390.0 0.02788
6410.0 0.027247
6430.0 0.026396
6450.0 0.025803
6470.0 0.025538
6490.0 0.02552
6510.0 0.025416
6530.0 0.025391
6550.0 0.024943
6570.0 0.024289
6590.0 0.024153
6610.0 0.023737
6630.0 0.023233
6650.0 0.022713
6670.0 0.022026
6690.0 0.02151
6710.0 0.020884
6730.0 0.020637
6750.0 0.020299
6770.0 0.019981
6790.0 0.02007
6810.0 0.019779
6830.0 0.019424
6850.0 0.019214
6870.0 0.01884
6890.0 0.018636
6910.0 0.018487
6930.0 0.018187
6950.0 0.018088
6970.0 0.01779
6990.0 0.017797
7010.0 0.017556
7030.0 0.017517
7050.0 0.017286
7070.0 0.017001
7090.0 0.016709
7110.0 0.016176
7130.0 0.016129
7150.0 0.016347
7170.0 0.016536
7190.0 0.016627
7210.0 0.016793
7230.0 0.017076
7250.0 0.017054
7270.0 0.016919
7290.0 0.016757
7310.0 0.016363
7330.0 0.01561
7350.0 0.015444
7370.0 0.015344
7390.0 0.015074
7410.0 0.015017
7430.0 0.014897
7450.0 0.014682
7470.0 0.014543
7490.0 0.014314
7510.0 0.013635
7530.0 0.013713
7550.0 0.013869
7570.0 0.013288
7590.0 0.012505
7610.0 0.012618
7630.0 0.012646
7650.0 0.012568
7670.0 0.0127
7690.0 0.012684
7710.0 0.012861
7730.0 0.013202
7750.0 0.013837
7770.0 0.014384
7790.0 0.014927
7810.0 0.015421
7830.0 0.015938
7850.0 0.016099
7870.0 0.01619
7890.0 0.015999
7910.0 0.015556
7930.0 0.015209
7950.0 0.014939
7970.0 0.014827
7990.0 0.014793
8010.0 0.013444
8030.0 0.013363
8050.0 0.013098
8070.0 0.012973
8090.0 0.012609
8110.0 0.012706
8130.0 0.012863
8150.0 0.013085
8170.0 0.012955
8190.0 0.013152
8210.0 0.012976
8230.0 0.012315
8250.0 0.0121
8270.0 0.011889
8290.0 0.01169
8310.0 0.011262
8330.0 0.011399
8350.0 0.011345
8370.0 0.011358
8390.0 0.011561
8410.0 0.011501
8430.0 0.011661
8450.0 0.011807
8470.0 0.011894
8490.0 0.012039
8510.0 0.011829
8530.0 0.011413
8550.0 0.011507
8570.0 0.011518
8590.0 0.011168
8610.0 0.011407
8630.0 0.01125
8650.0 0.011027
8670.0 0.010954
8690.0 0.010935
8710.0 0.010493
8730.0 0.010652
8750.0 0.010294
8770.0 0.010245
8790.0 0.0099576
8810.0 0.009837
8830.0 0.0098304
8850.0 0.0093851
8870.0 0.0089101
8890.0 0.008795
8910.0 0.0082886
8930.0 0.0076524
8950.0 0.0076509
8970.0 0.0073897
8990.0 0.0073364
9010.0 0.0072723
9030.0 0.0072224
9050.0 0.0071711
9070.0 0.0071193
9090.0 0.0070672
9110.0 0.0070144
9130.0 0.0069617
9150.0 0.0069095
9170.0 0.006857
9190.0 0.0068043
9210.0 0.0067514
9230.0 0.0066984
9250.0 0.0066455
9270.0 0.0065924
9290.0 0.0065394
9310.0 0.0064864
9330.0 0.0064336
9350.0 0.0063807
9370.0 0.006328
9390.0 0.0062755
9410.0 0.006223
9430.0 0.0061706
9450.0 0.0061185
9470.0 0.0060703
9490.0 0.0060204
9510.0 0.0059668
9530.0 0.005914
9550.0 0.0058622
9570.0 0.005811
9590.0 0.0057602
9610.0 0.0057099
9630.0 0.0056603
9650.0 0.0056108
9670.0 0.0055616
9690.0 0.0055129
9710.0 0.0054646
9730.0 0.0054165
9750.0 0.0053688
9770.0 0.0053219
9790.0 0.0052751
9810.0 0.0052286
9830.0 0.0051818
9850.0 0.005129
9870.0 0.0050825
9890.0 0.0050418
9910.0 0.0050004
9930.0 0.0049502
9950.0 0.0049071
9970.0 0.0048679
9990.0 0.0048276
10010.0 0.0047872
10030.0 0.0047466
10050.0 0.0047062
10070.0 0.0046664
10090.0 0.0046273
10110.0 0.0045874
10130.0 0.004548
10150.0 0.00451
10170.0 0.0044722
10190.0 0.0044342
10210.0 0.0043975
10230.0 0.0043615
10250.0 0.0043252
10270.0 0.0042895
10290.0 0.004255
10310.0 0.0042203
10330.0 0.0041856
10350.0 0.0041521
10370.0 0.0041193
10390.0 0.0040862
10410.0 0.0040534
10430.0 0.0040217
10450.0 0.0039907
10470.0 0.0039597
10490.0 0.0039296
10510.0 0.0039001
10530.0 0.0038699
10550.0 0.0038406
10570.0 0.0038125
10590.0 0.0037841
10610.0 0.003756
10630.0 0.0037289
10650.0 0.0037022
10670.0 0.0036751
10690.0 0.0036489
10710.0 0.0036235
10730.0 0.0035979
10750.0 0.0035722
10770.0 0.003548
10790.0 0.003524
10810.0 0.0034997
10830.0 0.0034762
10850.0 0.0034536
10870.0 0.0034304
10890.0 0.0034077
10910.0 0.0033863
10930.0 0.0033652
10950.0 0.0033444
10970.0 0.0033247
10990.0 0.0033066
11010.0 0.0034991
11030.0 0.0034856
11050.0 0.0034725
11070.0 0.0034588
11090.0 0.0034436
11110.0 0.003428
11130.0 0.0034116
11150.0 0.0033934
11170.0 0.0033742
11190.0 0.0033551
11210.0 0.0033349
11230.0 0.0033137
11250.0 0.0032932
11270.0 0.0032732
11290.0 0.0032527
11310.0 0.0032328
11330.0 0.003215
11350.0 0.0031975
11370.0 0.0031806
11390.0 0.0031653
11410.0 0.0031512
11430.0 0.0031368
11450.0 0.0031234
11470.0 0.0031109
11490.0 0.0030982
11510.0 0.0030849
11530.0 0.0030721
11550.0 0.0030591
11570.0 0.0030448
11590.0 0.0030301
11610.0 0.0030156
11630.0 0.0029998
11650.0 0.0029831
11670.0 0.0029671
11690.0 0.0029509
11710.0 0.0029341
11730.0 0.0029175
11750.0 0.0029021
11770.0 0.0028862
11790.0 0.0028703
11810.0 0.0028555
11830.0 0.0028411
11850.0 0.002826
11870.0 0.002812
11890.0 0.0027992
11910.0 0.0027863
11930.0 0.0027739
11950.0 0.0027631
11970.0 0.0027531
11990.0 0.0027435
12010.0 0.0027357
12030.0 0.0027296
12050.0 0.0027248
12070.0 0.0027216
12090.0 0.0027207
12110.0 0.0027214
12130.0 0.0027237
12150.0 0.0027278
12170.0 0.0027335
12190.0 0.0027405
12210.0 0.0027488
12230.0 0.0027579
12250.0 0.0027678
12270.0 0.0027783
12290.0 0.002789
12310.0 0.0027996
12330.0 0.0028103
12350.0 0.0028206
12370.0 0.0028302
12390.0 0.0028393
12410.0 0.0028474
12430.0 0.0028543
12450.0 0.0028599
12470.0 0.002864
12490.0 0.0028663
12510.0 0.002867
12530.0 0.0028655
12550.0 0.0028616
12570.0 0.0028559
12590.0 0.0028481
12610.0 0.0028374
12630.0 0.0028244
12650.0 0.0028105
12670.0 0.0027942
12690.0 0.0027757
12710.0 0.0027566
12730.0 0.0027367
12750.0 0.0027143
12770.0 0.0026917
12790.0 0.0026696
12810.0 0.0026467
12830.0 0.0026232
12850.0 0.0026012
12870.0 0.0025799
12890.0 0.0025583
12910.0 0.0025379
12930.0 0.0025193
12950.0 0.0025008
12970.0 0.0024829
12990.0 0.0024671
13010.0 0.0024522
13030.0 0.0024376
13050.0 0.0024242
13070.0 0.002412
13090.0 0.0023998
13110.0 0.0023879
13130.0 0.002377
13150.0 0.0023665
13170.0 0.0023555
13190.0 0.0023453
13210.0 0.0023357
13230.0 0.0023259
13250.0 0.0023161
13270.0 0.0023069
13290.0 0.0022975
13310.0 0.0022876
13330.0 0.0022779
13350.0 0.0022681
13370.0 0.0022575
13390.0 0.0022463
13410.0 0.0022352
13430.0 0.0022234
13450.0 0.0022106
13470.0 0.0021975
13490.0 0.0021842
13510.0 0.0021695
13530.0 0.0021544
13550.0 0.0021394
13570.0 0.0021237
13590.0 0.0021071
13610.0 0.0020906
13630.0 0.0020743
13650.0 0.0020569
13670.0 0.0020393
13690.0 0.0020221
13710.0 0.0020044
13730.0 0.0019857
13750.0 0.0019678
13770.0 0.0019499
13790.0 0.0019314
13810.0 0.0019129
13830.0 0.0018951
13850.0 0.0018767
13870.0 0.0018581
13890.0 0.0018401
13910.0 0.0018224
13930.0 0.0018043
13950.0 0.0017864
13970.0 0.0017695
13990.0 0.0017524
14010.0 0.0017353
14030.0 0.0017188
14050.0 0.0017027
14070.0 0.0016861
14090.0 0.00167
14110.0 0.0016545
14130.0 0.0016388
14150.0 0.001623
14170.0 0.0016079
14190.0 0.0015929
14210.0 0.0015776
14230.0 0.0015627
14250.0 0.0015483
14270.0 0.0015337
14290.0 0.001519
14310.0 0.0015052
14330.0 0.0014917
14350.0 0.0014781
14370.0 0.0014651
14390.0 0.0014529
14410.0 0.0014405
14430.0 0.0014286
14450.0 0.0014172
14470.0 0.0014062
14490.0 0.0013951
14510.0 0.0013846
14530.0 0.0013744
14550.0 0.0013642
14570.0 0.0013541
14590.0 0.0013444
14610.0 0.0013346
14630.0 0.0013247
14650.0 0.0013151
14670.0 0.0013056
14690.0 0.001296
14710.0 0.0012864
14730.0 0.0012772
14750.0 0.001268
14770.0 0.0012588
14790.0 0.0012499
14810.0 0.0012412
14830.0 0.0012323
14850.0 0.0012236
14870.0 0.0012153
14890.0 0.0012069
14910.0 0.0011986
14930.0 0.0011906
14950.0 0.0011828
14970.0 0.001175
14990.0 0.0011676
15010.0 0.0011604
15030.0 0.0011535
15050.0 0.0011467
15070.0 0.0011403
15090.0 0.001134
15110.0 0.0011277
15130.0 0.0011215
15150.0 0.0011155
15170.0 0.0011094
15190.0 0.0011033
15210.0 0.0010973
15230.0 0.0010913
15250.0 0.0010853
15270.0 0.0010793
15290.0 0.0010734
15310.0 0.0010675
15330.0 0.0010615
15350.0 0.0010557
15370.0 0.0010499
15390.0 0.001044
15410.0 0.0010382
15430.0 0.0010325
15450.0 0.0010267
15470.0 0.0010209
15490.0 0.0010153
15510.0 0.0010097
15530.0 0.001004
15550.0 0.00099839
15570.0 0.00099289
15590.0 0.00098732
15610.0 0.00098174
15630.0 0.00097632
15650.0 0.00097091
15670.0 0.00096546
15690.0 0.00096009
15710.0 0.00095482
15730.0 0.00094949
15750.0 0.00094419
15770.0 0.000939
15790.0 0.00093383
15810.0 0.00092858
15830.0 0.00092346
15850.0 0.00091843
15870.0 0.00091336
15890.0 0.00090832
15910.0 0.0009034
15930.0 0.00089847
15950.0 0.0008935
15970.0 0.00088864
15990.0 0.00088386
16010.0 0.00087903
16030.0 0.00087422
16050.0 0.00086957
16070.0 0.00086491
16090.0 0.00086023
16110.0 0.00085564
16130.0 0.00085114
16150.0 0.00084654
16170.0 0.00084202
16190.0 0.00083761
16210.0 0.0008332
16230.0 0.00082877
16250.0 0.00082446
16270.0 0.00082021
16290.0 0.00081591
16310.0 0.00081167
16330.0 0.00080753
16350.0 0.00080338
16370.0 0.00079917
16390.0 0.00079513
16410.0 0.00079112
16430.0 0.00078709
16450.0 0.0007831
16470.0 0.00077924
16490.0 0.00077533
16510.0 0.00077142
16530.0 0.00076762
16550.0 0.00076386
16570.0 0.00076005
16590.0 0.0007563
16610.0 0.00075269
16630.0 0.00074903
16650.0 0.00074538
16670.0 0.00074184
16690.0 0.00073833
16710.0 0.00073474
16730.0 0.00073126
16750.0 0.00072785
16770.0 0.00072443
16790.0 0.00072099
16810.0 0.00071769
16830.0 0.00071441
16850.0 0.00071108
16870.0 0.00070783
16890.0 0.00070466
16910.0 0.00070143
16930.0 0.00069821
16950.0 0.00069513
16970.0 0.00069204
16990.0 0.00068893
17010.0 0.0006859
17030.0 0.00068294
17050.0 0.00067993
17070.0 0.00067694
17090.0 0.00067405
17110.0 0.00067117
17130.0 0.00066822
17150.0 0.00066539
17170.0 0.00066262
17190.0 0.0006598
17210.0 0.00065702
17230.0 0.00065433
17250.0 0.00065162
17270.0 0.00064887
17290.0 0.00064622
17310.0 0.00064362
17330.0 0.00064097
17350.0 0.00063833
17370.0 0.00063582
17390.0 0.00063329
17410.0 0.00063073
17430.0 0.00062825
17450.0 0.00062582
17470.0 0.00062329
17490.0 0.00062083
17510.0 0.00061846
17530.0 0.00061607
17550.0 0.00061365
17570.0 0.00061133
17590.0 0.00060904
17610.0 0.00060668
17630.0 0.00060437
17650.0 0.00060214
17670.0 0.00059988
17690.0 0.00059755
17710.0 0.00059537
17730.0 0.0005932
17750.0 0.00059098
17770.0 0.0005888
17790.0 0.0005867
17810.0 0.00058454
17830.0 0.00058237
17850.0 0.00058029
17870.0 0.00057822
17890.0 0.00057608
17910.0 0.000574
17930.0 0.00057201
17950.0 0.00056996
17970.0 0.0005679
17990.0 0.00056593
18010.0 0.00056396
18030.0 0.0005619
18050.0 0.00055993
18070.0 0.000558
18090.0 0.00055603
18110.0 0.00055405
18130.0 0.00055216
18150.0 0.00055027
18170.0 0.00054832
18190.0 0.00054642
18210.0 0.00054458
18230.0 0.00054266
18250.0 0.00054073
18270.0 0.00053891
18290.0 0.00053707
18310.0 0.00053518
18330.0 0.00053335
18350.0 0.00053157
18370.0 0.00052971
18390.0 0.00052786
18410.0 0.00052609
18430.0 0.00052429
18450.0 0.00052242
18470.0 0.00052064
18490.0 0.00051889
18510.0 0.00051708
18530.0 0.00051529
18550.0 0.00051357
18570.0 0.00051179
18590.0 0.00050996
18610.0 0.00050822
18630.0 0.00050649
18650.0 0.0005047
18670.0 0.00050291
18690.0 0.00050122
18710.0 0.00049947
18730.0 0.00049769
18750.0 0.00049597
18770.0 0.00049427
18790.0 0.00049246
18810.0 0.00049069
18830.0 0.000489
18850.0 0.00048726
18870.0 0.00048548
18890.0 0.00048377
18910.0 0.00048207
18930.0 0.00048029
18950.0 0.00047855
18970.0 0.00047685
18990.0 0.0004751
19010.0 0.00047328
19030.0 0.00047159
19050.0 0.00046987
19070.0 0.00046809
19090.0 0.00046635
19110.0 0.00046466
19130.0 0.00046288
19150.0 0.00046109
19170.0 0.00045936
19190.0 0.00045763
19210.0 0.00045581
19230.0 0.00045403
19250.0 0.00045233
19270.0 0.00045055
19290.0 0.00044875
19310.0 0.00044701
19330.0 0.00044526
19350.0 0.0004434
19370.0 0.00044161
19390.0 0.00043986
19410.0 0.00043805
19430.0 0.00043621
19450.0 0.00043445
19470.0 0.00043266
19490.0 0.00043081
19510.0 0.000429
19530.0 0.00042722
19550.0 0.00042535
19570.0 0.00042346
19590.0 0.00042167
19610.0 0.00041984
19630.0 0.00041795
19650.0 0.00041611
19670.0 0.0004143
19690.0 0.00041239
19710.0 0.0004105
19730.0 0.00040866
19750.0 0.00040678
19770.0 0.00040482
19790.0 0.00040294
19810.0 0.00040109
19830.0 0.00039915
19850.0 0.00039723
19870.0 0.00039537
19890.0 0.00039344
19910.0 0.00039147
19930.0 0.00038957
19950.0 0.00038771
19970.0 0.00038579
19990.0 0.0003839
20010.0 0.00038213
20030.0 0.00038032
20050.0 0.00037849
20070.0 0.00037673
20090.0 0.00037499
20110.0 0.00037314
20130.0 0.00037132
20150.0 0.00036955
20170.0 0.00036772
20190.0 0.00036585
20210.0 0.00036405
20230.0 0.00036225
20250.0 0.00036038
20270.0 0.00035857
20290.0 0.00035683
20310.0 0.00035507
20330.0 0.0003533
20350.0 0.00035168
20370.0 0.0003501
20390.0 0.00034853
20410.0 0.00034705
20430.0 0.00034568
20450.0 0.00034432
20470.0 0.00034305
20490.0 0.00034189
20510.0 0.00034081
20530.0 0.00033978
20550.0 0.00033888
20570.0 0.00033809
20590.0 0.00033738
20610.0 0.00033677
20630.0 0.00033627
20650.0 0.00033587
20670.0 0.00033558
20690.0 0.00033538
20710.0 0.00033526
20730.0 0.00033523
20750.0 0.00033526
20770.0 0.00033532
20790.0 0.00033541
20810.0 0.00033553
20830.0 0.00033561
20850.0 0.00033565
20870.0 0.00033564
20890.0 0.00033555
20910.0 0.00033534
20930.0 0.00033501
20950.0 0.00033455
20970.0 0.00033394
20990.0 0.00033318
21010.0 0.00033224
21030.0 0.00033114
21050.0 0.0003299
21070.0 0.00032849
21090.0 0.00032689
21110.0 0.00032522
21130.0 0.00032344
21150.0 0.00032151
21170.0 0.00031951
21190.0 0.0003175
21210.0 0.00031538
21230.0 0.00031319
21250.0 0.00031105
21270.0 0.00030891
21290.0 0.00030672
21310.0 0.00030454
21330.0 0.00030245
21350.0 0.0003003
21370.0 0.00029815
21390.0 0.00029605
21410.0 0.00029395
21430.0 0.00029175
21450.0 0.00028959
21470.0 0.00028745
21490.0 0.00028524
21510.0 0.00028297
21530.0 0.00028073
21550.0 0.00027845
21570.0 0.00027607
21590.0 0.00027369
21610.0 0.00027133
21630.0 0.00026889
21650.0 0.00026637
21670.0 0.00026397
21690.0 0.00026155
21710.0 0.00025907
21730.0 0.00025665
21750.0 0.0002543
21770.0 0.00025187
21790.0 0.00024949
21810.0 0.0002472
21830.0 0.00024493
21850.0 0.00024264
21870.0 0.00024043
21890.0 0.0002383
21910.0 0.00023614
21930.0 0.000234
21950.0 0.00023194
21970.0 0.00022987
21990.0 0.00022774
22010.0 0.00022569
22030.0 0.00022365
22050.0 0.00022156
22070.0 0.00021945
22090.0 0.00021739
22110.0 0.00021528
22130.0 0.0002131
22150.0 0.00021095
22170.0 0.0002088
22190.0 0.00020654
22210.0 0.00020427
22230.0 0.00020207
22250.0 0.00019981
22270.0 0.0001975
22290.0 0.00019524
22310.0 0.00019301
22330.0 0.00019068
22350.0 0.00018839
22370.0 0.00018617
22390.0 0.00018393
22410.0 0.00018166
22430.0 0.0001795
22450.0 0.00017738
22470.0 0.00017524
22490.0 0.00017317
22510.0 0.00017119
22530.0 0.0001692
22550.0 0.00016724
22570.0 0.00016539
22590.0 0.00016359
22610.0 0.00016181
22630.0 0.00016009
22650.0 0.00015848
22670.0 0.00015687
22690.0 0.0001553
22710.0 0.00015381
22730.0 0.00015236
22750.0 0.0001509
22770.0 0.00014952
22790.0 0.00014819
22810.0 0.00014689
22830.0 0.00014561
22850.0 0.00014441
22870.0 0.00014324
22890.0 0.00014208
22910.0 0.000141
22930.0 0.00013997
22950.0 0.00013898
22970.0 0.00013804
22990.0 0.00013719
23010.0 0.00013638
23030.0 0.00013563
23050.0 0.00013496
23070.0 0.00013436
23090.0 0.00013381
23110.0 0.00013335
23130.0 0.00013296
23150.0 0.00013264
23170.0 0.0001324
23190.0 0.00013222
23210.0 0.0001321
23230.0 0.00013205
23250.0 0.00013206
23270.0 0.0001321
23290.0 0.00013218
23310.0 0.00013231
23330.0 0.00013242
23350.0 0.00013253
23370.0 0.00013265
23390.0 0.00013273
23410.0 0.00013276
23430.0 0.00013276
23450.0 0.00013273
23470.0 0.00013263
23490.0 0.00013249
23510.0 0.00013231
23530.0 0.00013211
23550.0 0.00013189
23570.0 0.00013167
23590.0 0.00013149
23610.0 0.00013136
23630.0 0.00013128
23650.0 0.0001313
23670.0 0.00013141
23690.0 0.00013161
