#lamb flux
1010.0 6.2563e-06
1030.0 6.8244e-06
1050.0 7.4782e-06
1070.0 8.2144e-06
1090.0 9.0506e-06
1110.0 9.9085e-06
1130.0 1.0772e-05
1150.0 1.1677e-05
1170.0 1.2612e-05
1190.0 1.3498e-05
1210.0 1.4396e-05
1230.0 1.5326e-05
1250.0 1.6236e-05
1270.0 1.7122e-05
1290.0 1.8058e-05
1310.0 1.8994e-05
1330.0 1.9892e-05
1350.0 2.0801e-05
1370.0 2.174e-05
1390.0 2.2657e-05
1410.0 2.3547e-05
1430.0 2.4479e-05
1450.0 2.5411e-05
1470.0 2.6312e-05
1490.0 2.7224e-05
1510.0 2.8188e-05
1530.0 2.9102e-05
1550.0 3.0005e-05
1570.0 3.0938e-05
1590.0 3.1873e-05
1610.0 3.2766e-05
1630.0 3.3687e-05
1650.0 3.4631e-05
1670.0 3.5544e-05
1690.0 3.6444e-05
1710.0 3.7378e-05
1730.0 3.8315e-05
1750.0 3.9194e-05
1770.0 4.0097e-05
1790.0 4.1015e-05
1810.0 4.19e-05
1830.0 4.2765e-05
1850.0 4.3681e-05
1870.0 4.4566e-05
1890.0 4.5415e-05
1910.0 4.6276e-05
1930.0 4.7151e-05
1950.0 4.7976e-05
1970.0 4.8782e-05
1990.0 4.9612e-05
2010.0 5.0416e-05
2030.0 5.1178e-05
2050.0 5.1954e-05
2070.0 5.274e-05
2090.0 5.346e-05
2110.0 5.4163e-05
2130.0 5.4876e-05
2150.0 5.5557e-05
2170.0 5.6183e-05
2190.0 5.6822e-05
2210.0 5.7447e-05
2230.0 5.8018e-05
2250.0 5.8564e-05
2270.0 5.9126e-05
2290.0 5.9638e-05
2310.0 6.0093e-05
2330.0 6.055e-05
2350.0 6.0989e-05
2370.0 6.137e-05
2390.0 6.1736e-05
2410.0 6.2122e-05
2430.0 6.247e-05
2450.0 6.2798e-05
2470.0 6.3172e-05
2490.0 6.3635e-05
2510.0 6.4205e-05
2530.0 6.515e-05
2550.0 6.6891e-05
2570.0 6.9846e-05
2590.0 7.4497e-05
2610.0 8.2134e-05
2630.0 9.2999e-05
2650.0 0.00010641
2670.0 0.00012244
2690.0 0.0001404
2710.0 0.0001577
2730.0 0.00017313
2750.0 0.00018697
2770.0 0.00019789
2790.0 0.00020585
2810.0 0.00021195
2830.0 0.00021699
2850.0 0.0002208
2870.0 0.00022418
2890.0 0.00022764
2910.0 0.00023105
2930.0 0.0002342
2950.0 0.00023758
2970.0 0.00024111
2990.0 0.00024443
3010.0 0.0019458
3030.0 0.0019729
3050.0 0.0019991
3070.0 0.0020203
3090.0 0.0020378
3110.0 0.0020458
3130.0 0.0020377
3150.0 0.0020085
3170.0 0.0019486
3190.0 0.001858
3210.0 0.0017419
3230.0 0.0016152
3250.0 0.0016756
3270.0 0.00156
3290.0 0.0017718
3310.0 0.0015526
3330.0 0.0015772
3350.0 0.0016455
3370.0 0.0017331
3390.0 0.0018348
3410.0 0.0019392
3430.0 0.0020503
3450.0 0.0021676
3470.0 0.0022828
3490.0 0.0023862
3510.0 0.0025563
3530.0 0.0027945
3550.0 0.002858
3570.0 0.002828
3590.0 0.0031209
3610.0 0.0029719
3630.0 0.0033888
3650.0 0.0036309
3670.0 0.0039597
3690.0 0.0039113
3710.0 0.0035492
3730.0 0.003728
3750.0 0.0037378
3770.0 0.0039844
3790.0 0.004243
3810.0 0.0048065
3830.0 0.0063289
3850.0 0.0078079
3870.0 0.0091543
3890.0 0.0096917
3910.0 0.0096172
3930.0 0.0098084
3950.0 0.010205
3970.0 0.0091307
3990.0 0.0057441
4010.0 0.0043897
4030.0 0.006655
4050.0 0.0088176
4070.0 0.0080468
4090.0 0.0047501
4110.0 0.0041856
4130.0 0.0065022
4150.0 0.0073971
4170.0 0.0061229
4190.0 0.0051204
4210.0 0.0071179
4230.0 0.0070464
4250.0 0.0066757
4270.0 0.0066769
4290.0 0.0060107
4310.0 0.0070307
4330.0 0.0082034
4350.0 0.008999
4370.0 0.0086222
4390.0 0.0086866
4410.0 0.0079045
4430.0 0.0060606
4450.0 0.0046317
4470.0 0.0052974
4490.0 0.0054029
4510.0 0.0076539
4530.0 0.0079072
4550.0 0.007822
4570.0 0.0093596
4590.0 0.011494
4610.0 0.014915
4630.0 0.018922
4650.0 0.019791
4670.0 0.020324
4690.0 0.020908
4710.0 0.020535
4730.0 0.017153
4750.0 0.012354
4770.0 0.01021
4790.0 0.0085322
4810.0 0.0085272
4830.0 0.0095909
4850.0 0.010255
4870.0 0.010809
4890.0 0.012924
4910.0 0.012247
4930.0 0.013078
4950.0 0.015932
4970.0 0.018252
4990.0 0.020798
5010.0 0.021051
5030.0 0.018527
5050.0 0.014052
5070.0 0.01022
5090.0 0.0087339
5110.0 0.0089401
5130.0 0.0095821
5150.0 0.0089853
5170.0 0.0088272
5190.0 0.0090032
5210.0 0.0092429
5230.0 0.010107
5250.0 0.010578
5270.0 0.010807
5290.0 0.01281
5310.0 0.015197
5330.0 0.016326
5350.0 0.016051
5370.0 0.016722
5390.0 0.01771
5410.0 0.016881
5430.0 0.015845
5450.0 0.016376
5470.0 0.018827
5490.0 0.023416
5510.0 0.028092
5530.0 0.029418
5550.0 0.028913
5570.0 0.027878
5590.0 0.026426
5610.0 0.025181
5630.0 0.025539
5650.0 0.026486
5670.0 0.02561
5690.0 0.023713
5710.0 0.023284
5730.0 0.021012
5750.0 0.01768
5770.0 0.01597
5790.0 0.017563
5810.0 0.019169
5830.0 0.021292
5850.0 0.021459
5870.0 0.02092
5890.0 0.020576
5910.0 0.019061
5930.0 0.018369
5950.0 0.018994
5970.0 0.019589
5990.0 0.017257
6010.0 0.014273
6030.0 0.011909
6050.0 0.010763
6070.0 0.010863
6090.0 0.011968
6110.0 0.012677
6130.0 0.012244
6150.0 0.012238
6170.0 0.013219
6190.0 0.014896
6210.0 0.017548
6230.0 0.020104
6250.0 0.018879
6270.0 0.016473
6290.0 0.013966
6310.0 0.011278
6330.0 0.0097205
6350.0 0.0095123
6370.0 0.010322
6390.0 0.011413
6410.0 0.013504
6430.0 0.016678
6450.0 0.020084
6470.0 0.022925
6490.0 0.025852
6510.0 0.027731
6530.0 0.026829
6550.0 0.025734
6570.0 0.025917
6590.0 0.025886
6610.0 0.025112
6630.0 0.023666
6650.0 0.021697
6670.0 0.021251
6690.0 0.020758
6710.0 0.019991
6730.0 0.017421
6750.0 0.015251
6770.0 0.015404
6790.0 0.016438
6810.0 0.018125
6830.0 0.01844
6850.0 0.017135
6870.0 0.016838
6890.0 0.016554
6910.0 0.015616
6930.0 0.015399
6950.0 0.015323
6970.0 0.015409
6990.0 0.016071
7010.0 0.017235
7030.0 0.016959
7050.0 0.015442
7070.0 0.014293
7090.0 0.012404
7110.0 0.010884
7130.0 0.011137
7150.0 0.011995
7170.0 0.012579
7190.0 0.012442
7210.0 0.012203
7230.0 0.013559
7250.0 0.015073
7270.0 0.015936
7290.0 0.016127
7310.0 0.015685
7330.0 0.014586
7350.0 0.013515
7370.0 0.012691
7390.0 0.012453
7410.0 0.013462
7430.0 0.015593
7450.0 0.017289
7470.0 0.019255
7490.0 0.022269
7510.0 0.021697
7530.0 0.018041
7550.0 0.015339
7570.0 0.012769
7590.0 0.010826
7610.0 0.010513
7630.0 0.010752
7650.0 0.011737
7670.0 0.013418
7690.0 0.01475
7710.0 0.016731
7730.0 0.017389
7750.0 0.017981
7770.0 0.01923
7790.0 0.019688
7810.0 0.019336
7830.0 0.018019
7850.0 0.017749
7870.0 0.017258
7890.0 0.016125
7910.0 0.014817
7930.0 0.01374
7950.0 0.011609
7970.0 0.011087
7990.0 0.011305
8010.0 0.013224
8030.0 0.013272
8050.0 0.013898
8070.0 0.013599
8090.0 0.013615
8110.0 0.013329
8130.0 0.012694
8150.0 0.011777
8170.0 0.01167
8190.0 0.011801
8210.0 0.011923
8230.0 0.010953
8250.0 0.010213
8270.0 0.0089946
8290.0 0.0074754
8310.0 0.0060961
8330.0 0.0044776
8350.0 0.0034264
8370.0 0.0032009
8390.0 0.0033903
8410.0 0.0038825
8430.0 0.0049208
8450.0 0.0054306
8470.0 0.0058462
8490.0 0.0065493
8510.0 0.0070636
8530.0 0.0078669
8550.0 0.0093024
8570.0 0.010492
8590.0 0.011337
8610.0 0.012954
8630.0 0.014958
8650.0 0.015643
8670.0 0.015928
8690.0 0.016019
8710.0 0.015544
8730.0 0.014906
8750.0 0.013868
8770.0 0.01369
8790.0 0.013293
8810.0 0.012275
8830.0 0.011769
8850.0 0.010352
8870.0 0.0095909
8890.0 0.0087649
8910.0 0.0097121
8930.0 0.0090652
8950.0 0.0092087
8970.0 0.0094066
8990.0 0.0092902
9010.0 0.0094303
9030.0 0.0090429
9050.0 0.0090149
9070.0 0.0090243
9090.0 0.0090334
9110.0 0.0090477
9130.0 0.0090566
9150.0 0.0090631
9170.0 0.0090537
9190.0 0.0090224
9210.0 0.0091329
9230.0 0.0091171
9250.0 0.0091143
9270.0 0.0091151
9290.0 0.0091183
9310.0 0.0091231
9330.0 0.0091289
9350.0 0.0091357
9370.0 0.0091427
9390.0 0.0091497
9410.0 0.009157
9430.0 0.0091649
9450.0 0.0091723
9470.0 0.0091799
9490.0 0.009188
9510.0 0.0091961
9530.0 0.0092042
9550.0 0.009213
9570.0 0.0092221
9590.0 0.0092312
9610.0 0.0092405
9630.0 0.0092506
9650.0 0.0092609
9670.0 0.0092709
9690.0 0.0092819
9710.0 0.0092933
9730.0 0.0093046
9750.0 0.0093164
9770.0 0.0093294
9790.0 0.009342
9810.0 0.0093549
9830.0 0.0093686
9850.0 0.0093828
9870.0 0.0093967
9890.0 0.0094113
9910.0 0.0094267
9930.0 0.009442
9950.0 0.0094499
9970.0 0.0094687
9990.0 0.0094875
10010.0 0.0095047
10030.0 0.0095227
10050.0 0.0095372
10070.0 0.0095319
10090.0 0.0095579
10110.0 0.0095834
10130.0 0.0096068
10150.0 0.0096291
10170.0 0.0096499
10190.0 0.0096694
10210.0 0.0096893
10230.0 0.0097094
10250.0 0.0097286
10270.0 0.009748
10290.0 0.0097681
10310.0 0.0097876
10330.0 0.0098065
10350.0 0.0098263
10370.0 0.009846
10390.0 0.009865
10410.0 0.0098841
10430.0 0.0099038
10450.0 0.0099227
10470.0 0.0099411
10490.0 0.0099598
10510.0 0.0099784
10530.0 0.0099958
10550.0 0.010013
10570.0 0.010031
10590.0 0.010048
10610.0 0.010064
10630.0 0.010081
10650.0 0.010097
10670.0 0.010112
10690.0 0.010127
10710.0 0.010142
10730.0 0.010156
10750.0 0.010169
10770.0 0.010182
10790.0 0.010195
10810.0 0.010206
10830.0 0.010217
10850.0 0.010226
10870.0 0.010232
10890.0 0.010233
10910.0 0.010226
10930.0 0.010205
10950.0 0.01016
10970.0 0.010088
10990.0 0.0099861
11010.0 0.010157
11030.0 0.0099495
11050.0 0.0097111
11070.0 0.0094378
11090.0 0.0091225
11110.0 0.0088098
11130.0 0.0084982
11150.0 0.00818
11170.0 0.0078726
11190.0 0.0075952
11210.0 0.0073306
11230.0 0.0070829
11250.0 0.0068683
11270.0 0.0066814
11290.0 0.0065116
11310.0 0.0063654
11330.0 0.0062461
11350.0 0.0061385
11370.0 0.00604
11390.0 0.0059509
11410.0 0.0058652
11430.0 0.0057729
11450.0 0.005677
11470.0 0.0055766
11490.0 0.0054651
11510.0 0.0053403
11530.0 0.0052118
11550.0 0.0050768
11570.0 0.0049306
11590.0 0.0047818
11610.0 0.004636
11630.0 0.0044857
11650.0 0.0043345
11670.0 0.0041945
11690.0 0.0040602
11710.0 0.0039284
11730.0 0.0038055
11750.0 0.0036944
11770.0 0.0035862
11790.0 0.0034835
11810.0 0.0033897
11830.0 0.0033009
11850.0 0.0032118
11870.0 0.0031282
11890.0 0.0030489
11910.0 0.0029684
11930.0 0.0028873
11950.0 0.002809
11970.0 0.0027296
11990.0 0.0026466
12010.0 0.0025653
12030.0 0.0024858
12050.0 0.002405
12070.0 0.0023244
12090.0 0.0022513
12110.0 0.0021813
12130.0 0.002115
12150.0 0.0020571
12170.0 0.0020085
12190.0 0.0019669
12210.0 0.0019368
12230.0 0.0019188
12250.0 0.0019122
12270.0 0.0019185
12290.0 0.0019368
12310.0 0.0019653
12330.0 0.0020061
12350.0 0.0020567
12370.0 0.0021129
12390.0 0.0021757
12410.0 0.0022464
12430.0 0.0023147
12450.0 0.0023815
12470.0 0.0024483
12490.0 0.0025106
12510.0 0.0025643
12530.0 0.0026131
12550.0 0.0026553
12570.0 0.0026875
12590.0 0.002711
12610.0 0.0027271
12630.0 0.0027345
12650.0 0.0027335
12670.0 0.0027257
12690.0 0.0027111
12710.0 0.0026909
12730.0 0.002666
12750.0 0.0026355
12770.0 0.0026017
12790.0 0.0025654
12810.0 0.0025259
12830.0 0.0024828
12850.0 0.0024391
12870.0 0.0023935
12890.0 0.0023441
12910.0 0.0022927
12930.0 0.0022404
12950.0 0.0021836
12970.0 0.0021229
12990.0 0.0020621
13010.0 0.0019991
13030.0 0.0019324
13050.0 0.0018655
13070.0 0.0018007
13090.0 0.0017341
13110.0 0.0016688
13130.0 0.0016085
13150.0 0.001552
13170.0 0.0014979
13190.0 0.0014515
13210.0 0.0014127
13230.0 0.0013794
13250.0 0.001353
13270.0 0.0013343
13290.0 0.0013216
13310.0 0.0013147
13330.0 0.0013133
13350.0 0.001316
13370.0 0.0013222
13390.0 0.0013308
13410.0 0.00134
13430.0 0.0013495
13450.0 0.0013587
13470.0 0.0013663
13490.0 0.0013719
13510.0 0.001376
13530.0 0.0013778
13550.0 0.0013775
13570.0 0.0013756
13590.0 0.0013724
13610.0 0.0013683
13630.0 0.0013638
13650.0 0.0013592
13670.0 0.0013548
13690.0 0.001351
13710.0 0.0013476
13730.0 0.0013449
13750.0 0.0013427
13770.0 0.0013407
13790.0 0.0013388
13810.0 0.0013366
13830.0 0.0013339
13850.0 0.0013302
13870.0 0.0013253
13890.0 0.0013192
13910.0 0.0013117
13930.0 0.0013025
13950.0 0.0012919
13970.0 0.0012807
13990.0 0.0012684
14010.0 0.0012555
14030.0 0.001243
14050.0 0.0012309
14070.0 0.0012189
14090.0 0.0012082
14110.0 0.0011989
14130.0 0.0011907
14150.0 0.0011836
14170.0 0.0011781
14190.0 0.0011738
14210.0 0.0011706
14230.0 0.0011686
14250.0 0.0011677
14270.0 0.0011681
14290.0 0.0011699
14310.0 0.0011729
14330.0 0.0011772
14350.0 0.0011832
14370.0 0.0011905
14390.0 0.0011988
14410.0 0.0012087
14430.0 0.0012199
14450.0 0.0012315
14470.0 0.001244
14490.0 0.001258
14510.0 0.0012722
14530.0 0.0012867
14550.0 0.0013029
14570.0 0.0013205
14590.0 0.0013389
14610.0 0.0013595
14630.0 0.0013835
14650.0 0.0014095
14670.0 0.001438
14690.0 0.0014706
14710.0 0.0015072
14730.0 0.0015445
14750.0 0.0015853
14770.0 0.0016296
14790.0 0.0016745
14810.0 0.0017191
14830.0 0.0017668
14850.0 0.0018129
14870.0 0.0018555
14890.0 0.0018961
14910.0 0.0019341
14930.0 0.0019662
14950.0 0.0019926
14970.0 0.0020146
14990.0 0.0020305
15010.0 0.0020406
15030.0 0.0020462
15050.0 0.0020477
15070.0 0.0020462
15090.0 0.0020427
15110.0 0.0020378
15130.0 0.0020322
15150.0 0.0020264
15170.0 0.0020203
15190.0 0.002014
15210.0 0.0020079
15230.0 0.0020018
15250.0 0.0019956
15270.0 0.0019894
15290.0 0.0019836
15310.0 0.0019776
15330.0 0.0019715
15350.0 0.0019657
15370.0 0.0019599
15390.0 0.0019539
15410.0 0.001948
15430.0 0.0019424
15450.0 0.0019366
15470.0 0.0019307
15490.0 0.0019251
15510.0 0.0019195
15530.0 0.0019137
15550.0 0.0019081
15570.0 0.0019026
15590.0 0.0018969
15610.0 0.0018912
15630.0 0.0018858
15650.0 0.0018803
15670.0 0.0018747
15690.0 0.0018692
15710.0 0.0018639
15730.0 0.0018583
15750.0 0.0018528
15770.0 0.0018475
15790.0 0.0018421
15810.0 0.0018365
15830.0 0.0018311
15850.0 0.0018259
15870.0 0.0018204
15890.0 0.001815
15910.0 0.0018098
15930.0 0.0018045
15950.0 0.0017989
15970.0 0.0017936
15990.0 0.0017884
16010.0 0.001783
16030.0 0.0017775
16050.0 0.0017723
16070.0 0.0017671
16090.0 0.0017616
16110.0 0.0017563
16130.0 0.0017512
16150.0 0.0017456
16170.0 0.0017402
16190.0 0.001735
16210.0 0.0017297
16230.0 0.0017242
16250.0 0.0017189
16270.0 0.0017137
16290.0 0.0017082
16310.0 0.0017028
16330.0 0.0016976
16350.0 0.0016922
16370.0 0.0016866
16390.0 0.0016813
16410.0 0.001676
16430.0 0.0016704
16450.0 0.001665
16470.0 0.0016597
16490.0 0.0016542
16510.0 0.0016486
16530.0 0.0016432
16550.0 0.0016378
16570.0 0.0016321
16590.0 0.0016265
16610.0 0.0016212
16630.0 0.0016156
16650.0 0.00161
16670.0 0.0016045
16690.0 0.001599
16710.0 0.0015932
16730.0 0.0015875
16750.0 0.001582
16770.0 0.0015763
16790.0 0.0015705
16810.0 0.0015649
16830.0 0.0015593
16850.0 0.0015535
16870.0 0.0015477
16890.0 0.0015421
16910.0 0.0015362
16930.0 0.0015303
16950.0 0.0015246
16970.0 0.0015188
16990.0 0.0015128
17010.0 0.001507
17030.0 0.0015012
17050.0 0.0014952
17070.0 0.0014892
17090.0 0.0014834
17110.0 0.0014774
17130.0 0.0014712
17150.0 0.0014653
17170.0 0.0014594
17190.0 0.0014533
17210.0 0.0014471
17230.0 0.0014412
17250.0 0.0014351
17270.0 0.0014288
17290.0 0.0014227
17310.0 0.0014167
17330.0 0.0014104
17350.0 0.0014041
17370.0 0.0013981
17390.0 0.0013919
17410.0 0.0013855
17430.0 0.0013793
17450.0 0.0013732
17470.0 0.0013667
17490.0 0.0013603
17510.0 0.0013542
17530.0 0.0013478
17550.0 0.0013413
17570.0 0.001335
17590.0 0.0013288
17610.0 0.0013223
17630.0 0.0013158
17650.0 0.0013095
17670.0 0.0013031
17690.0 0.0012963
17710.0 0.00129
17730.0 0.0012836
17750.0 0.001277
17770.0 0.0012705
17790.0 0.0012642
17810.0 0.0012575
17830.0 0.0012509
17850.0 0.0012444
17870.0 0.0012379
17890.0 0.0012311
17910.0 0.0012245
17930.0 0.0012181
17950.0 0.0012114
17970.0 0.0012047
17990.0 0.0011982
18010.0 0.0011917
18030.0 0.0011848
18050.0 0.0011782
18070.0 0.0011716
18090.0 0.0011649
18110.0 0.0011581
18130.0 0.0011516
18150.0 0.001145
18170.0 0.0011382
18190.0 0.0011315
18210.0 0.001125
18230.0 0.0011181
18250.0 0.0011113
18270.0 0.0011047
18290.0 0.001098
18310.0 0.0010912
18330.0 0.0010845
18350.0 0.001078
18370.0 0.0010711
18390.0 0.0010643
18410.0 0.0010577
18430.0 0.001051
18450.0 0.0010441
18470.0 0.0010374
18490.0 0.0010308
18510.0 0.001024
18530.0 0.0010173
18550.0 0.0010107
18570.0 0.001004
18590.0 0.00099711
18610.0 0.00099045
18630.0 0.00098384
18650.0 0.00097703
18670.0 0.00097022
18690.0 0.00096372
18710.0 0.00095704
18730.0 0.00095024
18750.0 0.00094363
18770.0 0.00093711
18790.0 0.00093021
18810.0 0.00092349
18830.0 0.00091697
18850.0 0.00091031
18870.0 0.00090354
18890.0 0.000897
18910.0 0.0008905
18930.0 0.00088374
18950.0 0.0008771
18970.0 0.00087063
18990.0 0.00086401
19010.0 0.00085717
19030.0 0.00085074
19050.0 0.00084426
19070.0 0.00083759
19090.0 0.00083104
19110.0 0.00082469
19130.0 0.00081806
19150.0 0.00081142
19170.0 0.000805
19190.0 0.00079857
19210.0 0.00079192
19230.0 0.0007854
19250.0 0.00077912
19270.0 0.00077263
19290.0 0.00076611
19310.0 0.0007598
19330.0 0.00075346
19350.0 0.00074683
19370.0 0.00074046
19390.0 0.0007342
19410.0 0.00072777
19430.0 0.0007213
19450.0 0.00071511
19470.0 0.00070884
19490.0 0.00070241
19510.0 0.00069613
19530.0 0.00068998
19550.0 0.00068359
19570.0 0.00067718
19590.0 0.00067108
19610.0 0.00066488
19630.0 0.00065855
19650.0 0.0006524
19670.0 0.00064637
19690.0 0.00064007
19710.0 0.00063385
19730.0 0.00062781
19750.0 0.0006217
19770.0 0.00061538
19790.0 0.00060934
19810.0 0.00060337
19830.0 0.0005972
19850.0 0.00059104
19870.0 0.00058502
19890.0 0.00057865
19910.0 0.00057181
19930.0 0.00056472
19950.0 0.00055695
19970.0 0.00054787
19990.0 0.00053755
20010.0 0.00052644
20030.0 0.00051376
20050.0 0.00049982
20070.0 0.00048567
20090.0 0.00047147
20110.0 0.00045664
20130.0 0.00044288
20150.0 0.0004304
20170.0 0.00041862
20190.0 0.00040783
20210.0 0.00039864
20230.0 0.00039057
20250.0 0.00038335
20270.0 0.00037743
20290.0 0.00037267
20310.0 0.00036877
20330.0 0.00036578
20350.0 0.00036385
20370.0 0.00036271
20390.0 0.00036238
20410.0 0.00036285
20430.0 0.00036402
20450.0 0.00036606
20470.0 0.00036892
20490.0 0.00037242
20510.0 0.00037668
20530.0 0.0003819
20550.0 0.00038772
20570.0 0.00039394
20590.0 0.00040101
20610.0 0.00040862
20630.0 0.00041631
20650.0 0.00042435
20670.0 0.00043294
20690.0 0.00044112
20710.0 0.00044902
20730.0 0.00045694
20750.0 0.00046454
20770.0 0.0004714
20790.0 0.00047802
20810.0 0.00048444
20830.0 0.00049033
20850.0 0.00049586
20870.0 0.00050149
20890.0 0.00050706
20910.0 0.00051236
20930.0 0.00051789
20950.0 0.00052372
20970.0 0.0005295
20990.0 0.00053529
21010.0 0.00054146
21030.0 0.00054747
21050.0 0.00055311
21070.0 0.00055856
21090.0 0.00056372
21110.0 0.00056801
21130.0 0.00057161
21150.0 0.00057456
21170.0 0.00057661
21190.0 0.00057775
21210.0 0.00057808
21230.0 0.0005775
21250.0 0.00057609
21270.0 0.00057393
21290.0 0.00057095
21310.0 0.00056731
21330.0 0.00056325
21350.0 0.00055854
21370.0 0.00055331
21390.0 0.00054787
21410.0 0.00054219
21430.0 0.00053596
21450.0 0.00052978
21470.0 0.00052374
21490.0 0.00051755
21510.0 0.00051138
21530.0 0.00050564
21550.0 0.00050011
21570.0 0.00049471
21590.0 0.00048984
21610.0 0.00048553
21630.0 0.00048163
21650.0 0.00047826
21670.0 0.00047574
21690.0 0.00047384
21710.0 0.00047263
21730.0 0.00047221
21750.0 0.00047251
21770.0 0.00047364
21790.0 0.00047558
21810.0 0.00047819
21830.0 0.00048155
21850.0 0.00048577
21870.0 0.00049056
21890.0 0.00049577
21910.0 0.00050178
21930.0 0.00050831
21950.0 0.00051502
21970.0 0.0005222
21990.0 0.00053005
22010.0 0.00053773
22030.0 0.00054543
22050.0 0.00055344
22070.0 0.00056141
22090.0 0.00056888
22110.0 0.00057633
22130.0 0.00058364
22150.0 0.0005903
22170.0 0.00059638
22190.0 0.00060214
22210.0 0.00060712
22230.0 0.00061109
22250.0 0.00061432
22270.0 0.00061665
22290.0 0.0006179
22310.0 0.00061814
22330.0 0.00061726
22350.0 0.00061521
22370.0 0.00061211
22390.0 0.00060781
22410.0 0.00060218
22430.0 0.00059572
22450.0 0.0005883
22470.0 0.00057962
22490.0 0.00057011
22510.0 0.00056015
22530.0 0.00054904
22550.0 0.00053706
22570.0 0.00052507
22590.0 0.00051268
22610.0 0.00049955
22630.0 0.00048638
22650.0 0.00047368
22670.0 0.00046049
22690.0 0.00044726
22710.0 0.00043468
22730.0 0.00042239
22750.0 0.00040977
22770.0 0.00039809
22790.0 0.00038724
22810.0 0.00037664
22830.0 0.00036662
22850.0 0.00035773
22870.0 0.0003495
22890.0 0.00034182
22910.0 0.00033529
22930.0 0.00032981
22950.0 0.00032517
22970.0 0.00032156
22990.0 0.00031924
23010.0 0.00031792
23030.0 0.00031772
23050.0 0.00031864
23070.0 0.00032054
23090.0 0.00032365
23110.0 0.00032777
23130.0 0.00033264
23150.0 0.00033837
23170.0 0.00034504
23190.0 0.00035209
23210.0 0.00035937
23230.0 0.00036726
23250.0 0.00037527
23270.0 0.00038299
23290.0 0.00039069
23310.0 0.00039842
23330.0 0.0004053
23350.0 0.00041156
23370.0 0.00041735
23390.0 0.00042233
23410.0 0.00042628
23430.0 0.00042949
23450.0 0.00043181
23470.0 0.00043312
23490.0 0.00043352
23510.0 0.00043298
23530.0 0.00043152
23550.0 0.00042932
23570.0 0.0004263
23590.0 0.00042249
23610.0 0.00041819
23630.0 0.00041341
23650.0 0.00040792
