#lamb flux
1010.0 3.701e-07
1030.0 4.051e-07
1050.0 4.4134e-07
1070.0 4.8215e-07
1090.0 5.2966e-07
1110.0 5.7818e-07
1130.0 6.2687e-07
1150.0 6.7784e-07
1170.0 7.3051e-07
1190.0 7.8074e-07
1210.0 8.321e-07
1230.0 8.858e-07
1250.0 9.3896e-07
1270.0 9.9159e-07
1290.0 1.0481e-06
1310.0 1.1057e-06
1330.0 1.1623e-06
1350.0 1.2204e-06
1370.0 1.281e-06
1390.0 1.341e-06
1410.0 1.3999e-06
1430.0 1.4613e-06
1450.0 1.5227e-06
1470.0 1.582e-06
1490.0 1.6412e-06
1510.0 1.7028e-06
1530.0 1.7604e-06
1550.0 1.816e-06
1570.0 1.8722e-06
1590.0 1.927e-06
1610.0 1.9775e-06
1630.0 2.0276e-06
1650.0 2.0773e-06
1670.0 2.1232e-06
1690.0 2.1667e-06
1710.0 2.2103e-06
1730.0 2.2526e-06
1750.0 2.2899e-06
1770.0 2.3275e-06
1790.0 2.3649e-06
1810.0 2.3999e-06
1830.0 2.4334e-06
1850.0 2.4699e-06
1870.0 2.5053e-06
1890.0 2.5396e-06
1910.0 2.576e-06
1930.0 2.615e-06
1950.0 2.6535e-06
1970.0 2.6934e-06
1990.0 2.7374e-06
2010.0 2.7828e-06
2030.0 2.8287e-06
2050.0 2.8784e-06
2070.0 2.9313e-06
2090.0 2.9831e-06
2110.0 3.0362e-06
2130.0 3.0917e-06
2150.0 3.1469e-06
2170.0 3.2001e-06
2190.0 3.2547e-06
2210.0 3.3089e-06
2230.0 3.3597e-06
2250.0 3.4088e-06
2270.0 3.458e-06
2290.0 3.5033e-06
2310.0 3.5441e-06
2330.0 3.5837e-06
2350.0 3.6208e-06
2370.0 3.653e-06
2390.0 3.6827e-06
2410.0 3.7118e-06
2430.0 3.7365e-06
2450.0 3.7574e-06
2470.0 3.7769e-06
2490.0 3.7953e-06
2510.0 3.8117e-06
2530.0 3.8358e-06
2550.0 3.8826e-06
2570.0 3.9683e-06
2590.0 4.1135e-06
2610.0 4.3682e-06
2630.0 4.7488e-06
2650.0 5.2373e-06
2670.0 5.8412e-06
2690.0 6.5369e-06
2710.0 7.2183e-06
2730.0 7.8213e-06
2750.0 8.327e-06
2770.0 8.6469e-06
2790.0 8.7558e-06
2810.0 8.6679e-06
2830.0 8.3792e-06
2850.0 7.9477e-06
2870.0 7.4128e-06
2890.0 6.7835e-06
2910.0 6.1034e-06
2930.0 5.4198e-06
2950.0 4.6953e-06
2970.0 3.943e-06
2990.0 3.2033e-06
3010.0 3.8929e-06
3030.0 2.6697e-06
3050.0 1.44e-06
3070.0 4.3056e-07
3090.0 4.3056e-07
3110.0 4.3056e-07
3130.0 4.3056e-07
3150.0 4.3056e-07
3170.0 4.3056e-07
3190.0 4.3056e-07
3210.0 1.3593e-05
3230.0 3.781e-05
3250.0 5.1439e-05
3270.0 4.5139e-05
3290.0 3.4214e-05
3310.0 2.7103e-05
3330.0 2.5283e-05
3350.0 2.6519e-05
3370.0 2.8689e-05
3390.0 3.0958e-05
3410.0 3.3336e-05
3430.0 3.624e-05
3450.0 3.9018e-05
3470.0 4.1902e-05
3490.0 4.2438e-05
3510.0 3.7014e-05
3530.0 3.4655e-05
3550.0 4.4318e-05
3570.0 5.6436e-05
3590.0 6.2811e-05
3610.0 6.5026e-05
3630.0 6.8933e-05
3650.0 6.8995e-05
3670.0 7.1892e-05
3690.0 8.4552e-05
3710.0 9.8279e-05
3730.0 0.0001073
3750.0 0.00011287
3770.0 0.00011466
3790.0 0.0001112
3810.0 0.00010309
3830.0 9.0244e-05
3850.0 7.1004e-05
3870.0 6.313e-05
3890.0 7.1114e-05
3910.0 9.4203e-05
3930.0 0.00011775
3950.0 0.00012874
3970.0 0.00013325
3990.0 0.0001437
4010.0 0.00014858
4030.0 0.00013434
4050.0 0.00010127
4070.0 8.5682e-05
4090.0 9.5956e-05
4110.0 0.00010652
4130.0 0.00011377
4150.0 0.00011384
4170.0 0.00010945
4190.0 0.00010455
4210.0 0.00011132
4230.0 0.00011955
4250.0 0.0001267
4270.0 0.00012704
4290.0 0.00012305
4310.0 0.00012365
4330.0 0.00013592
4350.0 0.00014962
4370.0 0.00015158
4390.0 0.00014135
4410.0 0.00012565
4430.0 0.00010184
4450.0 8.4128e-05
4470.0 8.3745e-05
4490.0 9.2939e-05
4510.0 0.00010128
4530.0 0.00010648
4550.0 0.00011486
4570.0 0.00014933
4590.0 0.0002052
4610.0 0.00024384
4630.0 0.00025902
4650.0 0.00028167
4670.0 0.00031365
4690.0 0.00031927
4710.0 0.00027659
4730.0 0.00021703
4750.0 0.00017035
4770.0 0.00014329
4790.0 0.00013059
4810.0 0.00012688
4830.0 0.00013788
4850.0 0.00016254
4870.0 0.00018153
4890.0 0.00018621
4910.0 0.00018711
4930.0 0.00020676
4950.0 0.00023828
4970.0 0.0002587
4990.0 0.0002568
5010.0 0.00023132
5030.0 0.00019147
5050.0 0.00015526
5070.0 0.0001326
5090.0 0.00012403
5110.0 0.00012416
5130.0 0.00012579
5150.0 0.0001242
5170.0 0.00011822
5190.0 0.00011543
5210.0 0.00012122
5230.0 0.00013844
5250.0 0.00016689
5270.0 0.00019718
5290.0 0.00021799
5310.0 0.00023536
5330.0 0.00026048
5350.0 0.00028258
5370.0 0.00028311
5390.0 0.00026385
5410.0 0.00024648
5430.0 0.00025261
5450.0 0.00029044
5470.0 0.00034134
5490.0 0.00038071
5510.0 0.00039726
5530.0 0.00039546
5550.0 0.00038418
5570.0 0.00037115
5590.0 0.00035864
5610.0 0.00035136
5630.0 0.00035235
5650.0 0.00035276
5670.0 0.0003368
5690.0 0.00030476
5710.0 0.00027211
5730.0 0.00025145
5750.0 0.00024652
5770.0 0.00025545
5790.0 0.00026536
5810.0 0.00027159
5830.0 0.00027466
5850.0 0.00026978
5870.0 0.00026247
5890.0 0.00026341
5910.0 0.0002727
5930.0 0.00027599
5950.0 0.00026139
5970.0 0.00023203
5990.0 0.00019503
6010.0 0.00016572
6030.0 0.00015779
6050.0 0.00016945
6070.0 0.00017803
6090.0 0.00016857
6110.0 0.0001547
6130.0 0.00015905
6150.0 0.00017788
6170.0 0.00019523
6190.0 0.00020579
6210.0 0.00020955
6230.0 0.00020568
6250.0 0.00018705
6270.0 0.00015772
6290.0 0.00013319
6310.0 0.00012302
6330.0 0.00012441
6350.0 0.00012866
6370.0 0.0001356
6390.0 0.00015526
6410.0 0.00018709
6430.0 0.00021534
6450.0 0.00022961
6470.0 0.00023592
6490.0 0.0002395
6510.0 0.00024162
6530.0 0.00024371
6550.0 0.00024642
6570.0 0.00025263
6590.0 0.00025817
6610.0 0.00025749
6630.0 0.00024659
6650.0 0.00022804
6670.0 0.0002101
6690.0 0.00019803
6710.0 0.00018956
6730.0 0.00018168
6750.0 0.00017866
6770.0 0.00018339
6790.0 0.00019023
6810.0 0.00019336
6830.0 0.00019035
6850.0 0.00018119
6870.0 0.00017159
6890.0 0.00016736
6910.0 0.00016728
6930.0 0.00017137
6950.0 0.00017581
6970.0 0.00017922
6990.0 0.0001799
7010.0 0.00017403
7030.0 0.00016088
7050.0 0.00014426
7070.0 0.00013296
7090.0 0.00013062
7110.0 0.00013177
7130.0 0.00012566
7150.0 0.00011357
7170.0 0.00011088
7190.0 0.00012255
7210.0 0.00014045
7230.0 0.00015578
7250.0 0.00016144
7270.0 0.00015774
7290.0 0.00014815
7310.0 0.0001402
7330.0 0.00013886
7350.0 0.00014126
7370.0 0.00014369
7390.0 0.00015062
7410.0 0.00016544
7430.0 0.0001841
7450.0 0.00019966
7470.0 0.000205
7490.0 0.00019559
7510.0 0.00018033
7530.0 0.00016835
7550.0 0.00015708
7570.0 0.00014516
7590.0 0.00013872
7610.0 0.0001386
7630.0 0.00014418
7650.0 0.00015478
7670.0 0.00016777
7690.0 0.00017888
7710.0 0.00018715
7730.0 0.00019412
7750.0 0.00019951
7770.0 0.00019989
7790.0 0.00020128
7810.0 0.00020077
7830.0 0.00019409
7850.0 0.00018637
7870.0 0.00018179
7890.0 0.00018229
7910.0 0.00018134
7930.0 0.00017642
7950.0 0.00016886
7970.0 0.00016202
7990.0 0.0001555
8010.0 0.00014941
8030.0 0.00014934
8050.0 0.00014873
8070.0 0.00014613
8090.0 0.00014419
8110.0 0.00014066
8130.0 0.00014017
8150.0 0.00013845
8170.0 0.00013515
8190.0 0.00013102
8210.0 0.00012728
8230.0 0.00012334
8250.0 0.00012159
8270.0 0.00011316
8290.0 9.61e-05
8310.0 7.7068e-05
8330.0 6.4079e-05
8350.0 6.0977e-05
8370.0 6.9006e-05
8390.0 8.0043e-05
8410.0 8.5183e-05
8430.0 8.7453e-05
8450.0 9.2743e-05
8470.0 9.991e-05
8490.0 0.00011046
8510.0 0.00012317
8530.0 0.00013674
8550.0 0.00014765
8570.0 0.00015568
8590.0 0.00016152
8610.0 0.00016433
8630.0 0.00016312
8650.0 0.00016001
8670.0 0.0001597
8690.0 0.00016778
8710.0 0.0001789
8730.0 0.00018444
8750.0 0.00018292
8770.0 0.00018468
8790.0 0.00018415
8810.0 0.00017465
8830.0 0.00016199
8850.0 0.00014615
8870.0 0.00013388
8890.0 0.00012999
8910.0 0.00012816
8930.0 0.00011996
8950.0 0.00011069
8970.0 0.00010666
8990.0 0.00010638
9010.0 0.00010367
9030.0 0.00010163
9050.0 0.00010068
9070.0 0.0001002
9090.0 9.9793e-05
9110.0 9.9394e-05
9130.0 9.8997e-05
9150.0 9.8609e-05
9170.0 9.8203e-05
9190.0 9.7889e-05
9210.0 9.7765e-05
9230.0 9.7276e-05
9250.0 9.6844e-05
9270.0 9.6447e-05
9290.0 9.6075e-05
9310.0 9.5713e-05
9330.0 9.5361e-05
9350.0 9.503e-05
9370.0 9.4701e-05
9390.0 9.437e-05
9410.0 9.4051e-05
9430.0 9.3717e-05
9450.0 9.325e-05
9470.0 9.2835e-05
9490.0 9.267e-05
9510.0 9.2435e-05
9530.0 9.2185e-05
9550.0 9.1919e-05
9570.0 9.1645e-05
9590.0 9.1371e-05
9610.0 9.1096e-05
9630.0 9.0818e-05
9650.0 9.0544e-05
9670.0 9.0278e-05
9690.0 9.0008e-05
9710.0 8.974e-05
9730.0 8.9479e-05
9750.0 8.9218e-05
9770.0 8.8952e-05
9790.0 8.8692e-05
9810.0 8.8436e-05
9830.0 8.8177e-05
9850.0 8.7916e-05
9870.0 8.7663e-05
9890.0 8.7407e-05
9910.0 8.7146e-05
9930.0 8.6883e-05
9950.0 8.6206e-05
9970.0 8.6067e-05
9990.0 8.5902e-05
10010.0 8.5731e-05
10030.0 8.5521e-05
10050.0 8.5275e-05
10070.0 8.5028e-05
10090.0 8.4781e-05
10110.0 8.4486e-05
10130.0 8.4144e-05
10150.0 8.3883e-05
10170.0 8.3621e-05
10190.0 8.3322e-05
10210.0 8.3044e-05
10230.0 8.2767e-05
10250.0 8.2455e-05
10270.0 8.2141e-05
10290.0 8.1847e-05
10310.0 8.1522e-05
10330.0 8.1168e-05
10350.0 8.0843e-05
10370.0 8.0513e-05
10390.0 8.0151e-05
10410.0 7.9786e-05
10430.0 7.9448e-05
10450.0 7.9075e-05
10470.0 7.8681e-05
10490.0 7.8304e-05
10510.0 7.7924e-05
10530.0 7.7491e-05
10550.0 7.707e-05
10570.0 7.6668e-05
10590.0 7.6233e-05
10610.0 7.5776e-05
10630.0 7.5341e-05
10650.0 7.4894e-05
10670.0 7.4401e-05
10690.0 7.3916e-05
10710.0 7.3442e-05
10730.0 7.2933e-05
10750.0 7.2389e-05
10770.0 7.1886e-05
10790.0 7.1363e-05
10810.0 7.0801e-05
10830.0 7.0245e-05
10850.0 6.9705e-05
10870.0 6.9104e-05
10890.0 6.8493e-05
10910.0 6.7901e-05
10930.0 6.7286e-05
10950.0 6.6625e-05
10970.0 6.5968e-05
10990.0 6.5326e-05
11010.0 7.0701e-05
11030.0 6.9977e-05
11050.0 6.9277e-05
11070.0 6.8562e-05
11090.0 6.7792e-05
11110.0 6.7074e-05
11130.0 6.6372e-05
11150.0 6.5643e-05
11170.0 6.4914e-05
11190.0 6.4229e-05
11210.0 6.3526e-05
11230.0 6.2804e-05
11250.0 6.2116e-05
11270.0 6.1446e-05
11290.0 6.0752e-05
11310.0 6.0065e-05
11330.0 5.943e-05
11350.0 5.878e-05
11370.0 5.8116e-05
11390.0 5.7472e-05
11410.0 5.683e-05
11430.0 5.6131e-05
11450.0 5.5421e-05
11470.0 5.4704e-05
11490.0 5.3934e-05
11510.0 5.3097e-05
11530.0 5.2253e-05
11550.0 5.1374e-05
11570.0 5.0418e-05
11590.0 4.9433e-05
11610.0 4.8449e-05
11630.0 4.7405e-05
11650.0 4.6316e-05
11670.0 4.5265e-05
11690.0 4.4212e-05
11710.0 4.3129e-05
11730.0 4.2067e-05
11750.0 4.1058e-05
11770.0 4.0029e-05
11790.0 3.9007e-05
11810.0 3.8036e-05
11830.0 3.7086e-05
11850.0 3.6112e-05
11870.0 3.5186e-05
11890.0 3.4307e-05
11910.0 3.3424e-05
11930.0 3.2555e-05
11950.0 3.174e-05
11970.0 3.0942e-05
11990.0 3.0144e-05
12010.0 2.9395e-05
12030.0 2.8691e-05
12050.0 2.8006e-05
12070.0 2.7349e-05
12090.0 2.6766e-05
12110.0 2.622e-05
12130.0 2.571e-05
12150.0 2.5261e-05
12170.0 2.4873e-05
12190.0 2.4526e-05
12210.0 2.4242e-05
12230.0 2.4023e-05
12250.0 2.3861e-05
12270.0 2.376e-05
12290.0 2.3717e-05
12310.0 2.3724e-05
12330.0 2.3787e-05
12350.0 2.3897e-05
12370.0 2.4039e-05
12390.0 2.4218e-05
12410.0 2.4445e-05
12430.0 2.4675e-05
12450.0 2.4915e-05
12470.0 2.5177e-05
12490.0 2.5442e-05
12510.0 2.5685e-05
12530.0 2.5931e-05
12550.0 2.6171e-05
12570.0 2.6377e-05
12590.0 2.6553e-05
12610.0 2.6708e-05
12630.0 2.6822e-05
12650.0 2.6878e-05
12670.0 2.6893e-05
12690.0 2.6859e-05
12710.0 2.6767e-05
12730.0 2.6624e-05
12750.0 2.6425e-05
12770.0 2.6174e-05
12790.0 2.5878e-05
12810.0 2.5538e-05
12830.0 2.5153e-05
12850.0 2.4749e-05
12870.0 2.4324e-05
12890.0 2.3873e-05
12910.0 2.3417e-05
12930.0 2.2968e-05
12950.0 2.2509e-05
12970.0 2.2051e-05
12990.0 2.1618e-05
13010.0 2.1197e-05
13030.0 2.0779e-05
13050.0 2.038e-05
13070.0 2.0004e-05
13090.0 1.9631e-05
13110.0 1.9268e-05
13130.0 1.8925e-05
13150.0 1.8593e-05
13170.0 1.826e-05
13190.0 1.7946e-05
13210.0 1.7647e-05
13230.0 1.7352e-05
13250.0 1.7066e-05
13270.0 1.6797e-05
13290.0 1.6536e-05
13310.0 1.6281e-05
13330.0 1.6043e-05
13350.0 1.5819e-05
13370.0 1.5605e-05
13390.0 1.5402e-05
13410.0 1.522e-05
13430.0 1.5049e-05
13450.0 1.4888e-05
13470.0 1.4741e-05
13490.0 1.4606e-05
13510.0 1.4474e-05
13530.0 1.435e-05
13550.0 1.4232e-05
13570.0 1.4114e-05
13590.0 1.3995e-05
13610.0 1.3875e-05
13630.0 1.3755e-05
13650.0 1.3629e-05
13670.0 1.3499e-05
13690.0 1.3369e-05
13710.0 1.3235e-05
13730.0 1.3096e-05
13750.0 1.2962e-05
13770.0 1.283e-05
13790.0 1.2697e-05
13810.0 1.2569e-05
13830.0 1.245e-05
13850.0 1.2333e-05
13870.0 1.2221e-05
13890.0 1.2117e-05
13910.0 1.2019e-05
13930.0 1.1923e-05
13950.0 1.1832e-05
13970.0 1.1747e-05
13990.0 1.1663e-05
14010.0 1.1577e-05
14030.0 1.1494e-05
14050.0 1.1409e-05
14070.0 1.1317e-05
14090.0 1.1224e-05
14110.0 1.113e-05
14130.0 1.1029e-05
14150.0 1.0923e-05
14170.0 1.0819e-05
14190.0 1.0712e-05
14210.0 1.0602e-05
14230.0 1.0495e-05
14250.0 1.0394e-05
14270.0 1.0294e-05
14290.0 1.0198e-05
14310.0 1.0115e-05
14330.0 1.004e-05
14350.0 9.9723e-06
14370.0 9.9163e-06
14390.0 9.8716e-06
14410.0 9.8344e-06
14430.0 9.806e-06
14450.0 9.7862e-06
14470.0 9.7725e-06
14490.0 9.7633e-06
14510.0 9.7589e-06
14530.0 9.758e-06
14550.0 9.7598e-06
14570.0 9.7646e-06
14590.0 9.7732e-06
14610.0 9.7863e-06
14630.0 9.8058e-06
14650.0 9.8331e-06
14670.0 9.8699e-06
14690.0 9.9195e-06
14710.0 9.9847e-06
14730.0 1.0063e-05
14750.0 1.016e-05
14770.0 1.0279e-05
14790.0 1.0417e-05
14810.0 1.0574e-05
14830.0 1.0764e-05
14850.0 1.0977e-05
14870.0 1.1206e-05
14890.0 1.1459e-05
14910.0 1.1735e-05
14930.0 1.2011e-05
14950.0 1.228e-05
14970.0 1.2546e-05
14990.0 1.2784e-05
15010.0 1.2984e-05
15030.0 1.3152e-05
15050.0 1.3289e-05
15070.0 1.339e-05
15090.0 1.3469e-05
15110.0 1.3535e-05
15130.0 1.3591e-05
15150.0 1.3643e-05
15170.0 1.3693e-05
15190.0 1.3742e-05
15210.0 1.3792e-05
15230.0 1.3843e-05
15250.0 1.3895e-05
15270.0 1.3948e-05
15290.0 1.4002e-05
15310.0 1.4057e-05
15330.0 1.4112e-05
15350.0 1.4169e-05
15370.0 1.4227e-05
15390.0 1.4286e-05
15410.0 1.4345e-05
15430.0 1.4406e-05
15450.0 1.4467e-05
15470.0 1.4529e-05
15490.0 1.4593e-05
15510.0 1.4657e-05
15530.0 1.4721e-05
15550.0 1.4787e-05
15570.0 1.4854e-05
15590.0 1.4921e-05
15610.0 1.4989e-05
15630.0 1.5057e-05
15650.0 1.5127e-05
15670.0 1.5197e-05
15690.0 1.5268e-05
15710.0 1.5339e-05
15730.0 1.5411e-05
15750.0 1.5484e-05
15770.0 1.5557e-05
15790.0 1.5631e-05
15810.0 1.5705e-05
15830.0 1.578e-05
15850.0 1.5856e-05
15870.0 1.5932e-05
15890.0 1.6008e-05
15910.0 1.6085e-05
15930.0 1.6163e-05
15950.0 1.624e-05
15970.0 1.6318e-05
15990.0 1.6397e-05
16010.0 1.6475e-05
16030.0 1.6554e-05
16050.0 1.6633e-05
16070.0 1.6713e-05
16090.0 1.6793e-05
16110.0 1.6872e-05
16130.0 1.6952e-05
16150.0 1.7032e-05
16170.0 1.7113e-05
16190.0 1.7193e-05
16210.0 1.7273e-05
16230.0 1.7354e-05
16250.0 1.7434e-05
16270.0 1.7514e-05
16290.0 1.7594e-05
16310.0 1.7674e-05
16330.0 1.7754e-05
16350.0 1.7834e-05
16370.0 1.7913e-05
16390.0 1.7993e-05
16410.0 1.8072e-05
16430.0 1.815e-05
16450.0 1.8229e-05
16470.0 1.8307e-05
16490.0 1.8384e-05
16510.0 1.8462e-05
16530.0 1.8538e-05
16550.0 1.8615e-05
16570.0 1.869e-05
16590.0 1.8765e-05
16610.0 1.884e-05
16630.0 1.8914e-05
16650.0 1.8987e-05
16670.0 1.906e-05
16690.0 1.9132e-05
16710.0 1.9203e-05
16730.0 1.9273e-05
16750.0 1.9343e-05
16770.0 1.9412e-05
16790.0 1.948e-05
16810.0 1.9547e-05
16830.0 1.9613e-05
16850.0 1.9678e-05
16870.0 1.9742e-05
16890.0 1.9805e-05
16910.0 1.9867e-05
16930.0 1.9928e-05
16950.0 1.9988e-05
16970.0 2.0046e-05
16990.0 2.0104e-05
17010.0 2.016e-05
17030.0 2.0215e-05
17050.0 2.0269e-05
17070.0 2.0322e-05
17090.0 2.0373e-05
17110.0 2.0423e-05
17130.0 2.0472e-05
17150.0 2.0519e-05
17170.0 2.0565e-05
17190.0 2.0609e-05
17210.0 2.0652e-05
17230.0 2.0694e-05
17250.0 2.0734e-05
17270.0 2.0773e-05
17290.0 2.081e-05
17310.0 2.0845e-05
17330.0 2.0879e-05
17350.0 2.0911e-05
17370.0 2.0942e-05
17390.0 2.0971e-05
17410.0 2.0999e-05
17430.0 2.1025e-05
17450.0 2.1049e-05
17470.0 2.1072e-05
17490.0 2.1093e-05
17510.0 2.1112e-05
17530.0 2.1129e-05
17550.0 2.1145e-05
17570.0 2.1159e-05
17590.0 2.1172e-05
17610.0 2.1182e-05
17630.0 2.1191e-05
17650.0 2.1198e-05
17670.0 2.1204e-05
17690.0 2.1207e-05
17710.0 2.1209e-05
17730.0 2.1209e-05
17750.0 2.1208e-05
17770.0 2.1204e-05
17790.0 2.1199e-05
17810.0 2.1192e-05
17830.0 2.1183e-05
17850.0 2.1173e-05
17870.0 2.1161e-05
17890.0 2.1147e-05
17910.0 2.1131e-05
17930.0 2.1114e-05
17950.0 2.1094e-05
17970.0 2.1073e-05
17990.0 2.1051e-05
18010.0 2.1027e-05
18030.0 2.1e-05
18050.0 2.0973e-05
18070.0 2.0943e-05
18090.0 2.0912e-05
18110.0 2.0879e-05
18130.0 2.0845e-05
18150.0 2.0809e-05
18170.0 2.0772e-05
18190.0 2.0732e-05
18210.0 2.0692e-05
18230.0 2.0649e-05
18250.0 2.0605e-05
18270.0 2.056e-05
18290.0 2.0513e-05
18310.0 2.0465e-05
18330.0 2.0415e-05
18350.0 2.0363e-05
18370.0 2.0311e-05
18390.0 2.0256e-05
18410.0 2.0201e-05
18430.0 2.0144e-05
18450.0 2.0085e-05
18470.0 2.0026e-05
18490.0 1.9965e-05
18510.0 1.9903e-05
18530.0 1.9839e-05
18550.0 1.9774e-05
18570.0 1.9708e-05
18590.0 1.9641e-05
18610.0 1.9573e-05
18630.0 1.9504e-05
18650.0 1.9433e-05
18670.0 1.9361e-05
18690.0 1.9289e-05
18710.0 1.9215e-05
18730.0 1.914e-05
18750.0 1.9065e-05
18770.0 1.8988e-05
18790.0 1.891e-05
18810.0 1.8832e-05
18830.0 1.8752e-05
18850.0 1.8672e-05
18870.0 1.8591e-05
18890.0 1.8509e-05
18910.0 1.8427e-05
18930.0 1.8343e-05
18950.0 1.8259e-05
18970.0 1.8174e-05
18990.0 1.8089e-05
19010.0 1.8003e-05
19030.0 1.7916e-05
19050.0 1.7829e-05
19070.0 1.7741e-05
19090.0 1.7653e-05
19110.0 1.7564e-05
19130.0 1.7474e-05
19150.0 1.7384e-05
19170.0 1.7294e-05
19190.0 1.7203e-05
19210.0 1.7112e-05
19230.0 1.7021e-05
19250.0 1.6929e-05
19270.0 1.6837e-05
19290.0 1.6745e-05
19310.0 1.6652e-05
19330.0 1.6559e-05
19350.0 1.6466e-05
19370.0 1.6373e-05
19390.0 1.6279e-05
19410.0 1.6185e-05
19430.0 1.6092e-05
19450.0 1.5998e-05
19470.0 1.5904e-05
19490.0 1.581e-05
19510.0 1.5716e-05
19530.0 1.5622e-05
19550.0 1.5527e-05
19570.0 1.5433e-05
19590.0 1.5339e-05
19610.0 1.5245e-05
19630.0 1.5151e-05
19650.0 1.5057e-05
19670.0 1.4964e-05
19690.0 1.487e-05
19710.0 1.4777e-05
19730.0 1.4683e-05
19750.0 1.459e-05
19770.0 1.4497e-05
19790.0 1.4404e-05
19810.0 1.4312e-05
19830.0 1.4219e-05
19850.0 1.4126e-05
19870.0 1.4032e-05
19890.0 1.3935e-05
19910.0 1.3833e-05
19930.0 1.3724e-05
19950.0 1.3602e-05
19970.0 1.3462e-05
19990.0 1.33e-05
20010.0 1.312e-05
20030.0 1.2912e-05
20050.0 1.2679e-05
20070.0 1.2433e-05
20090.0 1.2177e-05
20110.0 1.1901e-05
20130.0 1.1628e-05
20150.0 1.1363e-05
20170.0 1.1096e-05
20190.0 1.0833e-05
20210.0 1.0584e-05
20230.0 1.0344e-05
20250.0 1.0105e-05
20270.0 9.8812e-06
20290.0 9.6713e-06
20310.0 9.4681e-06
20330.0 9.272e-06
20350.0 9.096e-06
20370.0 8.9292e-06
20390.0 8.7703e-06
20410.0 8.6243e-06
20430.0 8.4912e-06
20450.0 8.3639e-06
20470.0 8.2469e-06
20490.0 8.1411e-06
20510.0 8.0431e-06
20530.0 7.9518e-06
20550.0 7.8686e-06
20570.0 7.7928e-06
20590.0 7.7217e-06
20610.0 7.6557e-06
20630.0 7.5944e-06
20650.0 7.5365e-06
20670.0 7.4812e-06
20690.0 7.4284e-06
20710.0 7.377e-06
20730.0 7.3264e-06
20750.0 7.2759e-06
20770.0 7.2252e-06
20790.0 7.1736e-06
20810.0 7.1206e-06
20830.0 7.0661e-06
20850.0 7.01e-06
20870.0 6.9512e-06
20890.0 6.8901e-06
20910.0 6.8277e-06
20930.0 6.7627e-06
20950.0 6.6951e-06
20970.0 6.6263e-06
20990.0 6.5564e-06
21010.0 6.4835e-06
21030.0 6.4098e-06
21050.0 6.3363e-06
21070.0 6.2614e-06
21090.0 6.1849e-06
21110.0 6.1101e-06
21130.0 6.0358e-06
21150.0 5.9606e-06
21170.0 5.8864e-06
21190.0 5.8142e-06
21210.0 5.7417e-06
21230.0 5.6696e-06
21250.0 5.6003e-06
21270.0 5.5325e-06
21290.0 5.4651e-06
21310.0 5.3997e-06
21330.0 5.3374e-06
21350.0 5.276e-06
21370.0 5.2162e-06
21390.0 5.1594e-06
21410.0 5.1048e-06
21430.0 5.0512e-06
21450.0 5.0008e-06
21470.0 4.9533e-06
21490.0 4.9076e-06
21510.0 4.8642e-06
21530.0 4.8237e-06
21550.0 4.7853e-06
21570.0 4.7487e-06
21590.0 4.7146e-06
21610.0 4.6825e-06
21630.0 4.6522e-06
21650.0 4.6236e-06
21670.0 4.5967e-06
21690.0 4.5712e-06
21710.0 4.547e-06
21730.0 4.5239e-06
21750.0 4.5018e-06
21770.0 4.4807e-06
21790.0 4.4604e-06
21810.0 4.4406e-06
21830.0 4.4214e-06
21850.0 4.4029e-06
21870.0 4.3845e-06
21890.0 4.3662e-06
21910.0 4.3483e-06
21930.0 4.3303e-06
21950.0 4.3122e-06
21970.0 4.2939e-06
21990.0 4.2755e-06
22010.0 4.2566e-06
22030.0 4.2372e-06
22050.0 4.2174e-06
22070.0 4.1971e-06
22090.0 4.1761e-06
22110.0 4.1545e-06
22130.0 4.1323e-06
22150.0 4.1095e-06
22170.0 4.0862e-06
22190.0 4.0622e-06
22210.0 4.0375e-06
22230.0 4.0125e-06
22250.0 3.9867e-06
22270.0 3.9602e-06
22290.0 3.9332e-06
22310.0 3.9057e-06
22330.0 3.8768e-06
22350.0 3.847e-06
22370.0 3.8165e-06
22390.0 3.7845e-06
22410.0 3.7504e-06
22430.0 3.7157e-06
22450.0 3.6794e-06
22470.0 3.6406e-06
22490.0 3.6002e-06
22510.0 3.5589e-06
22530.0 3.5147e-06
22550.0 3.468e-06
22570.0 3.4211e-06
22590.0 3.3728e-06
22610.0 3.3221e-06
