#lamb flux
1010.0 5.3863e-06
1030.0 5.99e-06
1050.0 6.5736e-06
1070.0 7.2323e-06
1090.0 8.0145e-06
1110.0 8.8135e-06
1130.0 9.6173e-06
1150.0 1.0462e-05
1170.0 1.1339e-05
1190.0 1.2186e-05
1210.0 1.3061e-05
1230.0 1.3989e-05
1250.0 1.492e-05
1270.0 1.5861e-05
1290.0 1.6886e-05
1310.0 1.795e-05
1330.0 1.9016e-05
1350.0 2.0128e-05
1370.0 2.1303e-05
1390.0 2.2483e-05
1410.0 2.3658e-05
1430.0 2.4889e-05
1450.0 2.6128e-05
1470.0 2.7336e-05
1490.0 2.8546e-05
1510.0 2.9799e-05
1530.0 3.0978e-05
1550.0 3.2116e-05
1570.0 3.3257e-05
1590.0 3.4362e-05
1610.0 3.5377e-05
1630.0 3.6364e-05
1650.0 3.7326e-05
1670.0 3.8201e-05
1690.0 3.9007e-05
1710.0 3.9794e-05
1730.0 4.0531e-05
1750.0 4.1154e-05
1770.0 4.1754e-05
1790.0 4.2327e-05
1810.0 4.2829e-05
1830.0 4.3282e-05
1850.0 4.3767e-05
1870.0 4.4212e-05
1890.0 4.462e-05
1910.0 4.5051e-05
1930.0 4.5515e-05
1950.0 4.596e-05
1970.0 4.6422e-05
1990.0 4.6948e-05
2010.0 4.7495e-05
2030.0 4.8046e-05
2050.0 4.8656e-05
2070.0 4.9316e-05
2090.0 4.9948e-05
2110.0 5.0593e-05
2130.0 5.1266e-05
2150.0 5.1917e-05
2170.0 5.2515e-05
2190.0 5.3115e-05
2210.0 5.368e-05
2230.0 5.4164e-05
2250.0 5.4587e-05
2270.0 5.4979e-05
2290.0 5.5273e-05
2310.0 5.546e-05
2330.0 5.5592e-05
2350.0 5.5647e-05
2370.0 5.5587e-05
2390.0 5.545e-05
2410.0 5.5258e-05
2430.0 5.495e-05
2450.0 5.453e-05
2470.0 5.4025e-05
2490.0 5.343e-05
2510.0 5.2746e-05
2530.0 5.2103e-05
2550.0 5.1693e-05
2570.0 5.1744e-05
2590.0 5.252e-05
2610.0 5.4603e-05
2630.0 5.8175e-05
2650.0 6.2981e-05
2670.0 6.9058e-05
2690.0 7.6081e-05
2710.0 8.2781e-05
2730.0 8.8408e-05
2750.0 9.2717e-05
2770.0 9.4674e-05
2790.0 9.3983e-05
2810.0 9.0766e-05
2830.0 8.4904e-05
2850.0 7.7158e-05
2870.0 6.7975e-05
2890.0 5.7416e-05
2910.0 4.6064e-05
2930.0 3.4588e-05
2950.0 2.2433e-05
2970.0 9.7831e-06
2990.0 3.7653e-06
3010.0 7.0345e-06
3030.0 7.0345e-06
3050.0 7.0345e-06
3070.0 7.0345e-06
3090.0 7.0345e-06
3110.0 7.0345e-06
3130.0 7.0345e-06
3150.0 7.0345e-06
3170.0 7.0345e-06
3190.0 7.0345e-06
3210.0 4.5773e-05
3230.0 0.00039835
3250.0 0.00063826
3270.0 0.00057538
3290.0 0.0004806
3310.0 0.00036274
3330.0 0.0003442
3350.0 0.00037541
3370.0 0.00042388
3390.0 0.000476
3410.0 0.0005318
3430.0 0.00060645
3450.0 0.00067752
3470.0 0.00075066
3490.0 0.00076634
3510.0 0.00065841
3530.0 0.00060455
3550.0 0.00071198
3570.0 0.00082534
3590.0 0.00090859
3610.0 0.00091101
3630.0 0.0010594
3650.0 0.001117
3670.0 0.0011657
3690.0 0.0012338
3710.0 0.0012419
3730.0 0.0012842
3750.0 0.0012774
3770.0 0.0012717
3790.0 0.0012245
3810.0 0.0011504
3830.0 0.0010889
3850.0 0.00068241
3870.0 0.00072075
3890.0 0.00082535
3910.0 0.0010858
3930.0 0.0014057
3950.0 0.001523
3970.0 0.001634
3990.0 0.0018952
4010.0 0.0017854
4030.0 0.0015795
4050.0 0.001131
4070.0 0.0009945
4090.0 0.0013319
4110.0 0.0014044
4130.0 0.0015289
4150.0 0.0014925
4170.0 0.0014122
4190.0 0.0012932
4210.0 0.001591
4230.0 0.001703
4250.0 0.0018466
4270.0 0.0017895
4290.0 0.0017334
4310.0 0.0018173
4330.0 0.0021082
4350.0 0.0022816
4370.0 0.0023051
4390.0 0.0021323
4410.0 0.0019415
4430.0 0.0015182
4450.0 0.0012191
4470.0 0.0012705
4490.0 0.001463
4510.0 0.0015411
4530.0 0.0015427
4550.0 0.0015498
4570.0 0.0021754
4590.0 0.0032433
4610.0 0.0038304
4630.0 0.0039355
4650.0 0.0043216
4670.0 0.0050585
4690.0 0.0054124
4710.0 0.004576
4730.0 0.0035012
4750.0 0.0027166
4770.0 0.002299
4790.0 0.0020706
4810.0 0.0019595
4830.0 0.0021697
4850.0 0.0026051
4870.0 0.0028864
4890.0 0.0029942
4910.0 0.0028833
4930.0 0.0031617
4950.0 0.0038074
4970.0 0.0043403
4990.0 0.0044508
5010.0 0.0040731
5030.0 0.0033697
5050.0 0.002627
5070.0 0.0021313
5090.0 0.001946
5110.0 0.00193
5130.0 0.0019629
5150.0 0.0019415
5170.0 0.0018112
5190.0 0.0017015
5210.0 0.001699
5230.0 0.0019427
5250.0 0.0023624
5270.0 0.0028363
5290.0 0.0032013
5310.0 0.0034559
5330.0 0.0038573
5350.0 0.0042776
5370.0 0.0043756
5390.0 0.0039803
5410.0 0.0035721
5430.0 0.0035528
5450.0 0.0041577
5470.0 0.0050856
5490.0 0.0058597
5510.0 0.00621
5530.0 0.0061556
5550.0 0.0059277
5570.0 0.0057417
5590.0 0.0055461
5610.0 0.0054534
5630.0 0.0054747
5650.0 0.0055281
5670.0 0.0053908
5690.0 0.0048743
5710.0 0.0041888
5730.0 0.0038026
5750.0 0.0037023
5770.0 0.0038293
5790.0 0.0039769
5810.0 0.0041182
5830.0 0.0041901
5850.0 0.0040488
5870.0 0.003882
5890.0 0.003857
5910.0 0.0040273
5930.0 0.0041753
5950.0 0.003957
5970.0 0.0035036
5990.0 0.0029012
6010.0 0.0023765
6030.0 0.0022227
6050.0 0.0024185
6070.0 0.0025565
6090.0 0.0024061
6110.0 0.0021357
6130.0 0.002201
6150.0 0.0025512
6170.0 0.0028982
6190.0 0.0031391
6210.0 0.0031938
6230.0 0.0031515
6250.0 0.0028706
6270.0 0.0023897
6290.0 0.0019729
6310.0 0.0017672
6330.0 0.0017412
6350.0 0.0017711
6370.0 0.001818
6390.0 0.0020781
6410.0 0.0025891
6430.0 0.0031307
6450.0 0.0034441
6470.0 0.003539
6490.0 0.0035428
6510.0 0.0036018
6530.0 0.0036821
6550.0 0.0036847
6570.0 0.003817
6590.0 0.0039246
6610.0 0.0039742
6630.0 0.0038659
6650.0 0.0035853
6670.0 0.0032746
6690.0 0.003017
6710.0 0.0028732
6730.0 0.0028055
6750.0 0.0028174
6770.0 0.002894
6790.0 0.0029992
6810.0 0.0030658
6830.0 0.0030119
6850.0 0.0028558
6870.0 0.0026763
6890.0 0.0026149
6910.0 0.0025664
6930.0 0.0026548
6950.0 0.0027863
6970.0 0.0028566
6990.0 0.0028969
7010.0 0.0028061
7030.0 0.0025778
7050.0 0.0022872
7070.0 0.0020689
7090.0 0.0019748
7110.0 0.0019675
7130.0 0.0018894
7150.0 0.0016758
7170.0 0.001602
7190.0 0.001774
7210.0 0.0020666
7230.0 0.0023633
7250.0 0.0024799
7270.0 0.0024354
7290.0 0.0022556
7310.0 0.0020964
7330.0 0.0020325
7350.0 0.0020462
7370.0 0.0020815
7390.0 0.0021855
7410.0 0.0024272
7430.0 0.0027832
7450.0 0.0031091
7470.0 0.003248
7490.0 0.0031389
7510.0 0.0029036
7530.0 0.002584
7550.0 0.0023684
7570.0 0.0021356
7590.0 0.0020167
7610.0 0.0020456
7630.0 0.0021783
7650.0 0.0023821
7670.0 0.0026012
7690.0 0.0027654
7710.0 0.0029181
7730.0 0.0030655
7750.0 0.0031846
7770.0 0.003158
7790.0 0.0031721
7810.0 0.0031977
7830.0 0.0031408
7850.0 0.0030238
7870.0 0.0029341
7890.0 0.0029561
7910.0 0.0028999
7930.0 0.0028399
7950.0 0.0026924
7970.0 0.0025983
7990.0 0.0024914
8010.0 0.0024775
8030.0 0.0024877
8050.0 0.0024913
8070.0 0.0024537
8090.0 0.0024283
8110.0 0.0023467
8130.0 0.0023395
8150.0 0.002308
8170.0 0.0022469
8190.0 0.0021892
8210.0 0.0021621
8230.0 0.0021065
8250.0 0.0020703
8270.0 0.0018917
8290.0 0.0015602
8310.0 0.0011907
8330.0 0.0009379
8350.0 0.00088288
8370.0 0.0010405
8390.0 0.0012472
8410.0 0.0013375
8430.0 0.0013663
8450.0 0.0014391
8470.0 0.0015467
8490.0 0.0017289
8510.0 0.0019629
8530.0 0.0022316
8550.0 0.0024685
8570.0 0.0026553
8590.0 0.0027953
8610.0 0.0028678
8630.0 0.0028571
8650.0 0.002817
8670.0 0.0028136
8690.0 0.0029584
8710.0 0.0031557
8730.0 0.0032754
8750.0 0.0032588
8770.0 0.0033007
8790.0 0.0032889
8810.0 0.0030952
8830.0 0.0028969
8850.0 0.0026405
8870.0 0.0024357
8890.0 0.0023708
8910.0 0.0023626
8930.0 0.0022248
8950.0 0.0020646
8970.0 0.0019961
8990.0 0.001982
9010.0 0.0019111
9030.0 0.001869
9050.0 0.0018523
9070.0 0.0018445
9090.0 0.0018379
9110.0 0.0018315
9130.0 0.001825
9150.0 0.0018188
9170.0 0.0018119
9190.0 0.001807
9210.0 0.0018079
9230.0 0.0017988
9250.0 0.0017911
9270.0 0.0017843
9290.0 0.001778
9310.0 0.001772
9330.0 0.0017661
9350.0 0.0017608
9370.0 0.0017554
9390.0 0.0017499
9410.0 0.0017447
9430.0 0.0017393
9450.0 0.0017315
9470.0 0.0017245
9490.0 0.0017219
9510.0 0.0017181
9530.0 0.001714
9550.0 0.0017096
9570.0 0.0017051
9590.0 0.0017005
9610.0 0.0016959
9630.0 0.0016914
9650.0 0.0016868
9670.0 0.0016823
9690.0 0.0016778
9710.0 0.0016733
9730.0 0.0016689
9750.0 0.0016644
9770.0 0.00166
9790.0 0.0016556
9810.0 0.0016512
9830.0 0.0016468
9850.0 0.0016424
9870.0 0.001638
9890.0 0.0016336
9910.0 0.0016291
9930.0 0.0016245
9950.0 0.0016086
9970.0 0.0016075
9990.0 0.0016056
10010.0 0.0016034
10030.0 0.0016002
10050.0 0.0015962
10070.0 0.001592
10090.0 0.0015878
10110.0 0.0015827
10130.0 0.0015776
10150.0 0.0015729
10170.0 0.0015679
10190.0 0.0015623
10210.0 0.0015572
10230.0 0.0015522
10250.0 0.0015466
10270.0 0.0015409
10290.0 0.0015356
10310.0 0.0015298
10330.0 0.0015234
10350.0 0.0015176
10370.0 0.0015116
10390.0 0.0015051
10410.0 0.0014985
10430.0 0.0014924
10450.0 0.0014856
10470.0 0.0014784
10490.0 0.0014716
10510.0 0.0014647
10530.0 0.0014568
10550.0 0.0014491
10570.0 0.0014418
10590.0 0.0014339
10610.0 0.0014255
10630.0 0.0014176
10650.0 0.0014094
10670.0 0.0014004
10690.0 0.0013915
10710.0 0.0013829
10730.0 0.0013735
10750.0 0.0013635
10770.0 0.0013543
10790.0 0.0013447
10810.0 0.0013344
10830.0 0.0013242
10850.0 0.0013143
10870.0 0.0013032
10890.0 0.0012919
10910.0 0.001281
10930.0 0.0012695
10950.0 0.0012571
10970.0 0.0012446
10990.0 0.0012323
11010.0 0.001321
11030.0 0.0013065
11050.0 0.0012924
11070.0 0.001278
11090.0 0.0012626
11110.0 0.0012482
11130.0 0.0012344
11150.0 0.0012201
11170.0 0.001206
11190.0 0.0011929
11210.0 0.0011795
11230.0 0.0011657
11250.0 0.0011526
11270.0 0.0011398
11290.0 0.0011265
11310.0 0.0011132
11330.0 0.0011007
11350.0 0.001088
11370.0 0.0010748
11390.0 0.0010619
11410.0 0.0010489
11430.0 0.0010347
11450.0 0.0010203
11470.0 0.0010057
11490.0 0.00098999
11510.0 0.00097295
11530.0 0.00095586
11550.0 0.00093813
11570.0 0.00091892
11590.0 0.00089923
11610.0 0.00087967
11630.0 0.00085897
11650.0 0.00083751
11670.0 0.00081694
11690.0 0.00079645
11710.0 0.00077551
11730.0 0.00075514
11750.0 0.00073598
11770.0 0.00071661
11790.0 0.00069758
11810.0 0.00067973
11830.0 0.00066249
11850.0 0.00064501
11870.0 0.00062861
11890.0 0.00061324
11910.0 0.00059794
11930.0 0.00058301
11950.0 0.00056911
11970.0 0.00055556
11990.0 0.00054203
12010.0 0.00052936
12030.0 0.00051747
12050.0 0.00050584
12070.0 0.00049468
12090.0 0.00048479
12110.0 0.00047548
12130.0 0.00046679
12150.0 0.00045913
12170.0 0.00045252
12190.0 0.00044661
12210.0 0.00044181
12230.0 0.00043814
12250.0 0.00043546
12270.0 0.00043385
12290.0 0.00043327
12310.0 0.00043359
12330.0 0.00043493
12350.0 0.00043718
12370.0 0.00044006
12390.0 0.0004437
12410.0 0.00044834
12430.0 0.00045318
12450.0 0.00045836
12470.0 0.00046413
12490.0 0.00047014
12510.0 0.00047589
12530.0 0.00048186
12550.0 0.00048788
12570.0 0.00049332
12590.0 0.00049823
12610.0 0.00050283
12630.0 0.00050663
12650.0 0.00050921
12670.0 0.00051098
12690.0 0.0005117
12710.0 0.00051117
12730.0 0.00050951
12750.0 0.00050668
12770.0 0.0005027
12790.0 0.00049775
12810.0 0.00049182
12830.0 0.00048497
12850.0 0.00047767
12870.0 0.00046995
12890.0 0.00046169
12910.0 0.00045334
12930.0 0.00044513
12950.0 0.00043677
12970.0 0.00042844
12990.0 0.00042063
13010.0 0.00041307
13030.0 0.00040561
13050.0 0.00039852
13070.0 0.00039188
13090.0 0.00038527
13110.0 0.00037884
13130.0 0.00037275
13150.0 0.0003668
13170.0 0.00036077
13190.0 0.00035501
13210.0 0.00034948
13230.0 0.00034395
13250.0 0.00033853
13270.0 0.00033343
13290.0 0.00032848
13310.0 0.00032366
13330.0 0.00031925
13350.0 0.00031523
13370.0 0.00031151
13390.0 0.00030818
13410.0 0.00030538
13430.0 0.00030294
13450.0 0.00030084
13470.0 0.00029908
13490.0 0.00029756
13510.0 0.00029617
13530.0 0.00029484
13550.0 0.00029348
13570.0 0.00029199
13590.0 0.00029027
13610.0 0.0002883
13630.0 0.0002861
13650.0 0.00028354
13670.0 0.00028069
13690.0 0.00027768
13710.0 0.00027443
13730.0 0.00027093
13750.0 0.00026752
13770.0 0.00026415
13790.0 0.00026078
13810.0 0.00025756
13830.0 0.00025464
13850.0 0.00025185
13870.0 0.00024926
13890.0 0.00024698
13910.0 0.00024494
13930.0 0.00024306
13950.0 0.00024137
13970.0 0.00023988
13990.0 0.00023845
14010.0 0.00023708
14030.0 0.00023575
14050.0 0.00023442
14070.0 0.00023297
14090.0 0.00023147
14110.0 0.00022989
14130.0 0.00022815
14150.0 0.00022625
14170.0 0.00022429
14190.0 0.00022224
14210.0 0.00022002
14230.0 0.00021778
14250.0 0.00021558
14270.0 0.00021331
14290.0 0.00021109
14310.0 0.00020907
14330.0 0.0002072
14350.0 0.00020546
14370.0 0.00020398
14390.0 0.00020276
14410.0 0.00020173
14430.0 0.00020093
14450.0 0.00020038
14470.0 0.00020001
14490.0 0.00019981
14510.0 0.00019978
14530.0 0.00019987
14550.0 0.00020008
14570.0 0.0002004
14590.0 0.00020084
14610.0 0.0002014
14630.0 0.00020214
14650.0 0.00020304
14670.0 0.00020413
14690.0 0.0002055
14710.0 0.00020716
14730.0 0.00020901
14750.0 0.00021119
14770.0 0.00021375
14790.0 0.00021658
14810.0 0.00021968
14830.0 0.00022334
14850.0 0.00022733
14870.0 0.00023156
14890.0 0.00023617
14910.0 0.00024117
14930.0 0.00024614
14950.0 0.00025096
14970.0 0.0002557
14990.0 0.00025993
15010.0 0.00026345
15030.0 0.00026637
15050.0 0.00026869
15070.0 0.00027035
15090.0 0.0002716
15110.0 0.00027259
15130.0 0.00027339
15150.0 0.00027411
15170.0 0.00027478
15190.0 0.00027544
15210.0 0.00027611
15230.0 0.00027678
15250.0 0.00027747
15270.0 0.00027817
15290.0 0.00027889
15310.0 0.00027961
15330.0 0.00028035
15350.0 0.00028111
15370.0 0.00028188
15390.0 0.00028265
15410.0 0.00028344
15430.0 0.00028424
15450.0 0.00028506
15470.0 0.00028588
15490.0 0.00028671
15510.0 0.00028756
15530.0 0.00028842
15550.0 0.00028928
15570.0 0.00029016
15590.0 0.00029104
15610.0 0.00029193
15630.0 0.00029284
15650.0 0.00029375
15670.0 0.00029467
15690.0 0.0002956
15710.0 0.00029654
15730.0 0.00029748
15750.0 0.00029843
15770.0 0.00029938
15790.0 0.00030035
15810.0 0.00030132
15830.0 0.00030229
15850.0 0.00030327
15870.0 0.00030426
15890.0 0.00030525
15910.0 0.00030624
15930.0 0.00030724
15950.0 0.00030824
15970.0 0.00030925
15990.0 0.00031026
16010.0 0.00031127
16030.0 0.00031228
16050.0 0.00031329
16070.0 0.00031431
16090.0 0.00031532
16110.0 0.00031634
16130.0 0.00031736
16150.0 0.00031838
16170.0 0.00031939
16190.0 0.00032041
16210.0 0.00032142
16230.0 0.00032243
16250.0 0.00032345
16270.0 0.00032445
16290.0 0.00032546
16310.0 0.00032646
16330.0 0.00032746
16350.0 0.00032845
16370.0 0.00032943
16390.0 0.00033041
16410.0 0.00033139
16430.0 0.00033236
16450.0 0.00033332
16470.0 0.00033428
16490.0 0.00033523
16510.0 0.00033617
16530.0 0.0003371
16550.0 0.00033803
16570.0 0.00033894
16590.0 0.00033985
16610.0 0.00034074
16630.0 0.00034163
16650.0 0.0003425
16670.0 0.00034336
16690.0 0.00034422
16710.0 0.00034505
16730.0 0.00034587
16750.0 0.00034669
16770.0 0.00034749
16790.0 0.00034827
16810.0 0.00034904
16830.0 0.0003498
16850.0 0.00035054
16870.0 0.00035126
16890.0 0.00035197
16910.0 0.00035266
16930.0 0.00035333
16950.0 0.00035399
16970.0 0.00035464
16990.0 0.00035526
17010.0 0.00035586
17030.0 0.00035645
17050.0 0.00035701
17070.0 0.00035756
17090.0 0.00035809
17110.0 0.0003586
17130.0 0.00035908
17150.0 0.00035955
17170.0 0.00036
17190.0 0.00036042
17210.0 0.00036082
17230.0 0.00036121
17250.0 0.00036157
17270.0 0.0003619
17290.0 0.00036222
17310.0 0.00036251
17330.0 0.00036278
17350.0 0.00036302
17370.0 0.00036324
17390.0 0.00036344
17410.0 0.00036362
17430.0 0.00036377
17450.0 0.0003639
17470.0 0.00036399
17490.0 0.00036407
17510.0 0.00036413
17530.0 0.00036415
17550.0 0.00036415
17570.0 0.00036413
17590.0 0.00036409
17610.0 0.00036402
17630.0 0.00036392
17650.0 0.0003638
17670.0 0.00036365
17690.0 0.00036347
17710.0 0.00036328
17730.0 0.00036306
17750.0 0.00036281
17770.0 0.00036253
17790.0 0.00036224
17810.0 0.00036191
17830.0 0.00036156
17850.0 0.00036119
17870.0 0.00036079
17890.0 0.00036037
17910.0 0.00035992
17930.0 0.00035945
17950.0 0.00035895
17970.0 0.00035843
17990.0 0.00035788
18010.0 0.00035731
18030.0 0.00035672
18050.0 0.0003561
18070.0 0.00035546
18090.0 0.00035479
18110.0 0.00035411
18130.0 0.0003534
18150.0 0.00035267
18170.0 0.00035191
18190.0 0.00035113
18210.0 0.00035033
18230.0 0.00034951
18250.0 0.00034867
18270.0 0.0003478
18290.0 0.00034692
18310.0 0.00034601
18330.0 0.00034509
18350.0 0.00034415
18370.0 0.00034318
18390.0 0.00034219
18410.0 0.00034119
18430.0 0.00034017
18450.0 0.00033913
18470.0 0.00033807
18490.0 0.000337
18510.0 0.0003359
18530.0 0.00033479
18550.0 0.00033367
18570.0 0.00033253
18590.0 0.00033137
18610.0 0.00033019
18630.0 0.000329
18650.0 0.0003278
18670.0 0.00032658
18690.0 0.00032535
18710.0 0.00032411
18730.0 0.00032285
18750.0 0.00032157
18770.0 0.00032029
18790.0 0.00031899
18810.0 0.00031769
18830.0 0.00031637
18850.0 0.00031504
18870.0 0.0003137
18890.0 0.00031235
18910.0 0.00031099
18930.0 0.00030962
18950.0 0.00030824
18970.0 0.00030686
18990.0 0.00030546
19010.0 0.00030406
19030.0 0.00030265
19050.0 0.00030123
19070.0 0.00029981
19090.0 0.00029838
19110.0 0.00029695
19130.0 0.0002955
19150.0 0.00029405
19170.0 0.0002926
19190.0 0.00029115
19210.0 0.00028969
19230.0 0.00028822
19250.0 0.00028676
19270.0 0.00028529
19290.0 0.00028382
19310.0 0.00028234
19330.0 0.00028087
19350.0 0.00027939
19370.0 0.00027791
19390.0 0.00027643
19410.0 0.00027494
19430.0 0.00027346
19450.0 0.00027198
19470.0 0.0002705
19490.0 0.00026902
19510.0 0.00026754
19530.0 0.00026606
19550.0 0.00026458
19570.0 0.0002631
19590.0 0.00026163
19610.0 0.00026015
19630.0 0.00025868
19650.0 0.00025721
19670.0 0.00025575
19690.0 0.00025429
19710.0 0.00025283
19730.0 0.00025137
19750.0 0.00024992
19770.0 0.00024847
19790.0 0.00024703
19810.0 0.00024559
19830.0 0.00024415
19850.0 0.0002427
19870.0 0.00024124
19890.0 0.00023973
19910.0 0.00023813
19930.0 0.0002364
19950.0 0.00023446
19970.0 0.0002322
19990.0 0.00022955
20010.0 0.00022656
20030.0 0.00022311
20050.0 0.00021921
20070.0 0.00021508
20090.0 0.00021076
20110.0 0.00020609
20130.0 0.00020148
20150.0 0.000197
20170.0 0.0001925
20190.0 0.00018806
20210.0 0.00018388
20230.0 0.00017984
20250.0 0.00017584
20270.0 0.00017207
20290.0 0.00016854
20310.0 0.00016511
20330.0 0.00016179
20350.0 0.00015879
20370.0 0.00015593
20390.0 0.00015318
20410.0 0.00015062
20430.0 0.00014827
20450.0 0.00014598
20470.0 0.00014385
20490.0 0.00014191
20510.0 0.00014009
20530.0 0.00013837
20550.0 0.0001368
20570.0 0.00013537
20590.0 0.00013403
20610.0 0.00013279
20630.0 0.00013167
20650.0 0.00013063
20670.0 0.00012967
20690.0 0.00012879
20710.0 0.00012798
20730.0 0.00012721
20750.0 0.00012649
20770.0 0.00012581
20790.0 0.00012515
20810.0 0.00012451
20830.0 0.00012387
20850.0 0.00012323
20870.0 0.00012258
20890.0 0.00012191
20910.0 0.00012122
20930.0 0.00012051
20950.0 0.00011975
20970.0 0.00011897
20990.0 0.00011815
21010.0 0.00011728
21030.0 0.00011636
21050.0 0.00011542
21070.0 0.00011444
21090.0 0.0001134
21110.0 0.00011234
21130.0 0.00011127
21150.0 0.00011014
21170.0 0.000109
21190.0 0.00010785
21210.0 0.00010667
21230.0 0.00010546
21250.0 0.00010427
21270.0 0.00010308
21290.0 0.00010187
21310.0 0.00010067
21330.0 9.9505e-05
21350.0 9.8335e-05
21370.0 9.7174e-05
21390.0 9.6061e-05
21410.0 9.4979e-05
21430.0 9.3897e-05
21450.0 9.2877e-05
21470.0 9.1917e-05
21490.0 9.0991e-05
21510.0 9.0113e-05
21530.0 8.9308e-05
21550.0 8.8558e-05
21570.0 8.7857e-05
21590.0 8.7227e-05
21610.0 8.6662e-05
21630.0 8.6154e-05
21650.0 8.5708e-05
21670.0 8.5322e-05
21690.0 8.4989e-05
21710.0 8.471e-05
21730.0 8.4476e-05
21750.0 8.4276e-05
21770.0 8.4123e-05
21790.0 8.4001e-05
21810.0 8.3892e-05
21830.0 8.3803e-05
21850.0 8.3735e-05
21870.0 8.3663e-05
21890.0 8.3581e-05
21910.0 8.3504e-05
21930.0 8.3415e-05
21950.0 8.3302e-05
21970.0 8.3174e-05
21990.0 8.3034e-05
22010.0 8.2859e-05
22030.0 8.2659e-05
22050.0 8.2439e-05
22070.0 8.2193e-05
22090.0 8.1921e-05
22110.0 8.1629e-05
22130.0 8.1317e-05
22150.0 8.0985e-05
22170.0 8.0638e-05
22190.0 8.0273e-05
22210.0 7.9893e-05
22230.0 7.9503e-05
22250.0 7.9098e-05
22270.0 7.8677e-05
22290.0 7.8244e-05
22310.0 7.7797e-05
22330.0 7.7321e-05
22350.0 7.6825e-05
22370.0 7.6309e-05
22390.0 7.5758e-05
22410.0 7.5161e-05
22430.0 7.4541e-05
22450.0 7.3884e-05
22470.0 7.3167e-05
22490.0 7.2409e-05
22510.0 7.1623e-05
22530.0 7.0769e-05
22550.0 6.9857e-05
22570.0 6.8931e-05
22590.0 6.797e-05
22610.0 6.6951e-05
22630.0 6.5918e-05
22650.0 6.4902e-05
22670.0 6.3847e-05
22690.0 6.2782e-05
22710.0 6.1754e-05
22730.0 6.0743e-05
22750.0 5.971e-05
22770.0 5.8741e-05
22790.0 5.7829e-05
22810.0 5.6937e-05
22830.0 5.6084e-05
22850.0 5.5306e-05
22870.0 5.4568e-05
22890.0 5.386e-05
22910.0 5.3215e-05
22930.0 5.2625e-05
22950.0 5.2064e-05
22970.0 5.1536e-05
22990.0 5.1067e-05
23010.0 5.062e-05
23030.0 5.019e-05
