#lamb flux
1010.0 5.4804e-06
1030.0 5.8752e-06
1050.0 6.3307e-06
1070.0 6.8438e-06
1090.0 7.427e-06
1110.0 8.026e-06
1130.0 8.6301e-06
1150.0 9.2641e-06
1170.0 9.9194e-06
1190.0 1.0543e-05
1210.0 1.1176e-05
1230.0 1.1832e-05
1250.0 1.2477e-05
1270.0 1.3106e-05
1290.0 1.3772e-05
1310.0 1.444e-05
1330.0 1.5084e-05
1350.0 1.5737e-05
1370.0 1.6414e-05
1390.0 1.7077e-05
1410.0 1.7725e-05
1430.0 1.8403e-05
1450.0 1.9084e-05
1470.0 1.9747e-05
1490.0 2.0419e-05
1510.0 2.113e-05
1530.0 2.1808e-05
1550.0 2.248e-05
1570.0 2.3175e-05
1590.0 2.3873e-05
1610.0 2.4542e-05
1630.0 2.5232e-05
1650.0 2.5939e-05
1670.0 2.6623e-05
1690.0 2.7298e-05
1710.0 2.7995e-05
1730.0 2.8693e-05
1750.0 2.9348e-05
1770.0 3.0016e-05
1790.0 3.0692e-05
1810.0 3.1341e-05
1830.0 3.197e-05
1850.0 3.2631e-05
1870.0 3.3265e-05
1890.0 3.3867e-05
1910.0 3.4471e-05
1930.0 3.5079e-05
1950.0 3.5645e-05
1970.0 3.6191e-05
1990.0 3.6748e-05
2010.0 3.728e-05
2030.0 3.7777e-05
2050.0 3.8279e-05
2070.0 3.8783e-05
2090.0 3.9238e-05
2110.0 3.9677e-05
2130.0 4.0123e-05
2150.0 4.0545e-05
2170.0 4.093e-05
2190.0 4.1326e-05
2210.0 4.1716e-05
2230.0 4.2074e-05
2250.0 4.2422e-05
2270.0 4.2789e-05
2290.0 4.3131e-05
2310.0 4.3446e-05
2330.0 4.3774e-05
2350.0 4.4106e-05
2370.0 4.4412e-05
2390.0 4.4724e-05
2410.0 4.5063e-05
2430.0 4.5389e-05
2450.0 4.571e-05
2470.0 4.6064e-05
2490.0 4.6472e-05
2510.0 4.6946e-05
2530.0 4.7657e-05
2550.0 4.8882e-05
2570.0 5.0919e-05
2590.0 5.4122e-05
2610.0 5.9387e-05
2630.0 6.6972e-05
2650.0 7.6501e-05
2670.0 8.81e-05
2690.0 0.00010138
2710.0 0.00011458
2730.0 0.00012684
2750.0 0.00013835
2770.0 0.00014812
2790.0 0.00015602
2810.0 0.00016283
2830.0 0.00016916
2850.0 0.00017472
2870.0 0.00018016
2890.0 0.00018589
2910.0 0.00019179
2930.0 0.00019764
2950.0 0.00020391
2970.0 0.00021054
2990.0 0.00021717
3010.0 0.00098195
3030.0 0.0010131
3050.0 0.0010439
3070.0 0.0010713
3090.0 0.0010943
3110.0 0.0011065
3130.0 0.0010999
3150.0 0.0010666
3170.0 0.00099044
3190.0 0.00087015
3210.0 0.00070859
3230.0 0.00052788
3250.0 0.0007088
3270.0 0.00051118
3290.0 0.00094304
3310.0 0.00048351
3330.0 0.00048292
3350.0 0.00054564
3370.0 0.00062168
3390.0 0.00070573
3410.0 0.00079024
3430.0 0.00087945
3450.0 0.0009701
3470.0 0.0010545
3490.0 0.0011163
3510.0 0.0013009
3530.0 0.0016181
3550.0 0.0015887
3570.0 0.0013621
3590.0 0.0017546
3610.0 0.0012466
3630.0 0.0018626
3650.0 0.0021363
3670.0 0.0026374
3690.0 0.0024696
3710.0 0.0017515
3730.0 0.0021552
3750.0 0.0021944
3770.0 0.0023724
3790.0 0.0023734
3810.0 0.0025446
3830.0 0.0039082
3850.0 0.004867
3870.0 0.0059401
3890.0 0.0058854
3910.0 0.0053627
3930.0 0.0054017
3950.0 0.0057629
3970.0 0.0059865
3990.0 0.0037058
4010.0 0.0020873
4030.0 0.0037392
4050.0 0.0050642
4070.0 0.0052114
4090.0 0.003423
4110.0 0.0022739
4130.0 0.0038308
4150.0 0.0040547
4170.0 0.0036136
4190.0 0.0031775
4210.0 0.0045774
4230.0 0.0036048
4250.0 0.0037387
4270.0 0.0037118
4290.0 0.0034438
4310.0 0.0043757
4330.0 0.0048372
4350.0 0.0043111
4370.0 0.0037284
4390.0 0.0043387
4410.0 0.0043402
4430.0 0.003192
4450.0 0.0027563
4470.0 0.0034025
4490.0 0.0027641
4510.0 0.0039432
4530.0 0.0040716
4550.0 0.0045758
4570.0 0.0062304
4590.0 0.0064458
4610.0 0.0058873
4630.0 0.0088212
4650.0 0.011041
4670.0 0.010748
4690.0 0.0084818
4710.0 0.0087634
4730.0 0.0090994
4750.0 0.0072214
4770.0 0.0056222
4790.0 0.0039577
4810.0 0.0050252
4830.0 0.0059031
4850.0 0.0053827
4870.0 0.0030226
4890.0 0.0062639
4910.0 0.007648
4930.0 0.0083374
4950.0 0.0089463
4970.0 0.0071634
4990.0 0.0082468
5010.0 0.0091912
5030.0 0.0093972
5050.0 0.0083783
5070.0 0.0059501
5090.0 0.0048759
5110.0 0.0047932
5130.0 0.0047074
5150.0 0.0047277
5170.0 0.0043233
5190.0 0.0049585
5210.0 0.0050661
5230.0 0.0056104
5250.0 0.0064434
5270.0 0.005555
5290.0 0.0059948
5310.0 0.0084039
5330.0 0.009526
5350.0 0.0082533
5370.0 0.0076964
5390.0 0.0087484
5410.0 0.0098927
5430.0 0.010268
5450.0 0.01077
5470.0 0.01112
5490.0 0.011978
5510.0 0.014352
5530.0 0.014913
5550.0 0.015475
5570.0 0.015957
5590.0 0.015577
5610.0 0.014621
5630.0 0.014412
5650.0 0.014939
5670.0 0.014537
5690.0 0.01265
5710.0 0.012527
5730.0 0.012258
5750.0 0.012218
5770.0 0.010614
5790.0 0.01045
5810.0 0.010832
5830.0 0.011778
5850.0 0.011152
5870.0 0.011111
5890.0 0.012499
5910.0 0.011606
5930.0 0.0098835
5950.0 0.0092293
5970.0 0.0099367
5990.0 0.0089293
6010.0 0.007968
6030.0 0.0075464
6050.0 0.0068787
6070.0 0.0056325
6090.0 0.0055679
6110.0 0.0068367
6130.0 0.0074334
6150.0 0.0076245
6170.0 0.0075653
6190.0 0.0074747
6210.0 0.0080565
6230.0 0.0096812
6250.0 0.0089575
6270.0 0.0079761
6290.0 0.0071398
6310.0 0.0062907
6330.0 0.0057466
6350.0 0.0052497
6370.0 0.0054072
6390.0 0.0062041
6410.0 0.0076307
6430.0 0.0091465
6450.0 0.00963
6470.0 0.010025
6490.0 0.011926
6510.0 0.013478
6530.0 0.012888
6550.0 0.012253
6570.0 0.012413
6590.0 0.012311
6610.0 0.012766
6630.0 0.011937
6650.0 0.010476
6670.0 0.0098127
6690.0 0.0097013
6710.0 0.010948
6730.0 0.0096816
6750.0 0.0080388
6770.0 0.0074436
6790.0 0.0079224
6810.0 0.0090501
6830.0 0.0090677
6850.0 0.0081821
6870.0 0.0083793
6890.0 0.0083154
6910.0 0.0078174
6930.0 0.008437
6950.0 0.007967
6970.0 0.0075463
6990.0 0.0075883
7010.0 0.0077987
7030.0 0.0076261
7050.0 0.0071996
7070.0 0.0074651
7090.0 0.0068441
7110.0 0.0058262
7130.0 0.0052331
7150.0 0.0052947
7170.0 0.0063678
7190.0 0.0066361
7210.0 0.0063295
7230.0 0.0067438
7250.0 0.006779
7270.0 0.0067467
7290.0 0.0071536
7310.0 0.0076176
7330.0 0.0073494
7350.0 0.0068161
7370.0 0.0063007
7390.0 0.0062519
7410.0 0.0070832
7430.0 0.0080622
7450.0 0.0086634
7470.0 0.0090124
7490.0 0.01022
7510.0 0.010132
7530.0 0.0088695
7550.0 0.0081528
7570.0 0.0069725
7590.0 0.0064737
7610.0 0.006266
7630.0 0.005886
7650.0 0.0063244
7670.0 0.007069
7690.0 0.0077157
7710.0 0.0088174
7730.0 0.0092042
7750.0 0.009549
7770.0 0.010058
7790.0 0.010783
7810.0 0.01077
7830.0 0.0097039
7850.0 0.0097163
7870.0 0.0094009
7890.0 0.0094326
7910.0 0.0088465
7930.0 0.008672
7950.0 0.0072422
7970.0 0.0071803
7990.0 0.0070112
8010.0 0.0078091
8030.0 0.0077887
8050.0 0.008271
8070.0 0.0079631
8090.0 0.007994
8110.0 0.007872
8130.0 0.0077203
8150.0 0.0072128
8170.0 0.0070976
8190.0 0.0071045
8210.0 0.0071744
8230.0 0.0063133
8250.0 0.0057882
8270.0 0.0051123
8290.0 0.0043407
8310.0 0.0037853
8330.0 0.0029597
8350.0 0.0023682
8370.0 0.0022557
8390.0 0.0022029
8410.0 0.0023353
8430.0 0.0030104
8450.0 0.0032921
8470.0 0.0035521
8490.0 0.0041391
8510.0 0.0045016
8530.0 0.0050926
8550.0 0.0060233
8570.0 0.0066304
8590.0 0.0069823
8610.0 0.0078035
8630.0 0.0089242
8650.0 0.0091849
8670.0 0.0093847
8690.0 0.0096866
8710.0 0.0094824
8730.0 0.0091459
8750.0 0.0084114
8770.0 0.0083946
8790.0 0.0082521
8810.0 0.0075908
8830.0 0.0075476
8850.0 0.0068469
8870.0 0.0064967
8890.0 0.0058278
8910.0 0.0065213
8930.0 0.0059174
8950.0 0.0059564
8970.0 0.0060946
8990.0 0.0059358
9010.0 0.0060832
9030.0 0.0057748
9050.0 0.0057487
9070.0 0.0057529
9090.0 0.005756
9110.0 0.0057633
9130.0 0.0057651
9150.0 0.005764
9170.0 0.0057479
9190.0 0.0057104
9210.0 0.0058
9230.0 0.0057776
9250.0 0.0057658
9270.0 0.0057564
9290.0 0.0057486
9310.0 0.0057415
9330.0 0.0057348
9350.0 0.0057283
9370.0 0.0057216
9390.0 0.0057143
9410.0 0.0057069
9430.0 0.0056994
9450.0 0.0056911
9470.0 0.0056826
9490.0 0.005674
9510.0 0.005665
9530.0 0.0056556
9550.0 0.0056465
9570.0 0.0056371
9590.0 0.0056275
9610.0 0.0056178
9630.0 0.0056082
9650.0 0.0055986
9670.0 0.0055886
9690.0 0.005579
9710.0 0.0055695
9730.0 0.0055597
9750.0 0.0055501
9770.0 0.0055412
9790.0 0.005532
9810.0 0.0055227
9830.0 0.005514
9850.0 0.0055055
9870.0 0.0054968
9890.0 0.0054885
9910.0 0.0054807
9930.0 0.0054729
9950.0 0.0054578
9970.0 0.005453
9990.0 0.0054483
10010.0 0.0054428
10030.0 0.0054374
10050.0 0.0054299
10070.0 0.0054112
10090.0 0.0054104
10110.0 0.0054095
10130.0 0.0054076
10150.0 0.0054052
10170.0 0.0054023
10190.0 0.0053988
10210.0 0.0053958
10230.0 0.0053931
10250.0 0.0053902
10270.0 0.0053877
10290.0 0.0053859
10310.0 0.005384
10330.0 0.0053822
10350.0 0.0053811
10370.0 0.0053804
10390.0 0.0053796
10410.0 0.0053792
10430.0 0.0053795
10450.0 0.0053797
10470.0 0.00538
10490.0 0.0053809
10510.0 0.0053821
10530.0 0.0053831
10550.0 0.0053846
10570.0 0.0053865
10590.0 0.0053885
10610.0 0.0053905
10630.0 0.0053931
10650.0 0.0053958
10670.0 0.0053984
10690.0 0.0054014
10710.0 0.0054047
10730.0 0.0054081
10750.0 0.0054114
10770.0 0.0054152
10790.0 0.0054191
10810.0 0.0054229
10830.0 0.0054267
10850.0 0.0054304
10870.0 0.0054327
10890.0 0.0054328
10910.0 0.0054292
10930.0 0.005419
10950.0 0.0053974
10970.0 0.0053621
10990.0 0.0053119
11010.0 0.005424
11030.0 0.0053247
11050.0 0.0052085
11070.0 0.0050742
11090.0 0.0049188
11110.0 0.004764
11130.0 0.0046095
11150.0 0.0044515
11170.0 0.0042984
11190.0 0.0041596
11210.0 0.0040263
11230.0 0.0039003
11250.0 0.0037896
11270.0 0.0036916
11290.0 0.0036008
11310.0 0.0035207
11330.0 0.0034539
11350.0 0.0033925
11370.0 0.0033356
11390.0 0.0032842
11410.0 0.0032355
11430.0 0.0031842
11450.0 0.0031327
11470.0 0.0030805
11490.0 0.0030241
11510.0 0.0029623
11530.0 0.0028996
11550.0 0.0028345
11570.0 0.002764
11590.0 0.0026921
11610.0 0.0026213
11630.0 0.0025472
11650.0 0.0024714
11670.0 0.0024
11690.0 0.0023301
11710.0 0.0022596
11730.0 0.0021924
11750.0 0.0021302
11770.0 0.0020683
11790.0 0.0020084
11810.0 0.001953
11830.0 0.0019002
11850.0 0.001847
11870.0 0.0017975
11890.0 0.0017513
11910.0 0.0017052
11930.0 0.0016598
11950.0 0.0016172
11970.0 0.0015751
11990.0 0.0015319
12010.0 0.0014907
12030.0 0.0014512
12050.0 0.0014114
12070.0 0.001372
12090.0 0.0013366
12110.0 0.0013027
12130.0 0.0012703
12150.0 0.0012417
12170.0 0.0012174
12190.0 0.0011958
12210.0 0.0011794
12230.0 0.0011689
12250.0 0.0011636
12270.0 0.0011645
12290.0 0.0011715
12310.0 0.0011842
12330.0 0.0012032
12350.0 0.0012278
12370.0 0.0012562
12390.0 0.0012888
12410.0 0.0013264
12430.0 0.0013639
12450.0 0.0014018
12470.0 0.0014406
12490.0 0.0014782
12510.0 0.0015122
12530.0 0.0015445
12550.0 0.0015741
12570.0 0.0015991
12590.0 0.0016202
12610.0 0.0016381
12630.0 0.0016518
12650.0 0.0016612
12670.0 0.0016675
12690.0 0.0016706
12710.0 0.0016707
12730.0 0.0016683
12750.0 0.0016632
12770.0 0.0016561
12790.0 0.0016473
12810.0 0.0016365
12830.0 0.0016236
12850.0 0.0016097
12870.0 0.0015942
12890.0 0.0015763
12910.0 0.0015567
12930.0 0.001536
12950.0 0.0015124
12970.0 0.0014861
12990.0 0.0014591
13010.0 0.0014303
13030.0 0.0013987
13050.0 0.0013664
13070.0 0.0013344
13090.0 0.0013006
13110.0 0.0012667
13130.0 0.0012346
13150.0 0.0012038
13170.0 0.0011734
13190.0 0.0011465
13210.0 0.0011234
13230.0 0.0011027
13250.0 0.0010856
13270.0 0.0010727
13290.0 0.001063
13310.0 0.0010565
13330.0 0.0010533
13350.0 0.0010527
13370.0 0.0010541
13390.0 0.0010568
13410.0 0.0010601
13430.0 0.0010635
13450.0 0.0010662
13470.0 0.0010678
13490.0 0.001068
13510.0 0.0010663
13530.0 0.0010627
13550.0 0.0010576
13570.0 0.0010508
13590.0 0.0010425
13610.0 0.0010336
13630.0 0.0010244
13650.0 0.0010146
13670.0 0.001005
13690.0 0.00099618
13710.0 0.00098779
13730.0 0.00097978
13750.0 0.00097296
13770.0 0.00096682
13790.0 0.00096102
13810.0 0.0009556
13830.0 0.00095052
13850.0 0.00094522
13870.0 0.00093954
13890.0 0.0009336
13910.0 0.00092718
13930.0 0.00091991
13950.0 0.00091208
13970.0 0.00090415
13990.0 0.00089568
14010.0 0.00088693
14030.0 0.00087852
14050.0 0.00087043
14070.0 0.00086245
14090.0 0.00085535
14110.0 0.00084917
14130.0 0.00084372
14150.0 0.00083914
14170.0 0.00083562
14190.0 0.00083296
14210.0 0.00083115
14230.0 0.00083022
14250.0 0.00083009
14270.0 0.00083086
14290.0 0.00083259
14310.0 0.00083502
14330.0 0.00083828
14350.0 0.00084254
14370.0 0.00084746
14390.0 0.00085279
14410.0 0.00085899
14430.0 0.00086569
14450.0 0.00087241
14470.0 0.00087934
14490.0 0.00088683
14510.0 0.00089405
14530.0 0.00090108
14550.0 0.00090856
14570.0 0.00091639
14590.0 0.00092424
14610.0 0.0009329
14630.0 0.0009429
14650.0 0.00095366
14670.0 0.00096546
14690.0 0.00097926
14710.0 0.00099503
14730.0 0.0010114
14750.0 0.0010297
14770.0 0.0010501
14790.0 0.0010713
14810.0 0.0010929
14830.0 0.0011168
14850.0 0.0011406
14870.0 0.0011633
14890.0 0.0011856
14910.0 0.0012072
14930.0 0.0012259
14950.0 0.0012417
14970.0 0.0012551
14990.0 0.0012648
15010.0 0.0012707
15030.0 0.0012735
15050.0 0.0012736
15070.0 0.0012712
15090.0 0.0012674
15110.0 0.0012625
15130.0 0.001257
15150.0 0.0012513
15170.0 0.0012454
15190.0 0.0012393
15210.0 0.0012333
15230.0 0.0012273
15250.0 0.0012213
15270.0 0.0012152
15290.0 0.0012093
15310.0 0.0012034
15330.0 0.0011974
15350.0 0.0011915
15370.0 0.0011857
15390.0 0.0011797
15410.0 0.0011739
15430.0 0.0011681
15450.0 0.0011623
15470.0 0.0011564
15490.0 0.0011507
15510.0 0.001145
15530.0 0.0011393
15550.0 0.0011336
15570.0 0.001128
15590.0 0.0011223
15610.0 0.0011166
15630.0 0.0011111
15650.0 0.0011055
15670.0 0.0011
15690.0 0.0010945
15710.0 0.0010891
15730.0 0.0010836
15750.0 0.0010781
15770.0 0.0010728
15790.0 0.0010674
15810.0 0.001062
15830.0 0.0010567
15850.0 0.0010514
15870.0 0.0010462
15890.0 0.0010409
15910.0 0.0010358
15930.0 0.0010306
15950.0 0.0010254
15970.0 0.0010203
15990.0 0.0010152
16010.0 0.0010101
16030.0 0.001005
16050.0 0.0010001
16070.0 0.00099514
16090.0 0.00099014
16110.0 0.00098524
16130.0 0.00098043
16150.0 0.00097546
16170.0 0.00097058
16190.0 0.00096583
16210.0 0.00096104
16230.0 0.00095621
16250.0 0.00095151
16270.0 0.00094688
16290.0 0.00094214
16310.0 0.00093746
16330.0 0.00093289
16350.0 0.00092829
16370.0 0.00092358
16390.0 0.00091908
16410.0 0.0009146
16430.0 0.00091004
16450.0 0.00090554
16470.0 0.00090118
16490.0 0.00089671
16510.0 0.00089223
16530.0 0.00088788
16550.0 0.00088355
16570.0 0.00087913
16590.0 0.00087477
16610.0 0.00087056
16630.0 0.00086627
16650.0 0.00086197
16670.0 0.00085778
16690.0 0.00085362
16710.0 0.00084932
16730.0 0.00084513
16750.0 0.00084104
16770.0 0.00083688
16790.0 0.00083269
16810.0 0.00082866
16830.0 0.00082463
16850.0 0.00082051
16870.0 0.00081647
16890.0 0.00081252
16910.0 0.00080846
16930.0 0.00080439
16950.0 0.00080048
16970.0 0.00079656
16990.0 0.00079256
17010.0 0.00078865
17030.0 0.00078483
17050.0 0.0007809
17070.0 0.00077698
17090.0 0.00077318
17110.0 0.00076936
17130.0 0.00076542
17150.0 0.00076163
17170.0 0.0007579
17190.0 0.00075409
17210.0 0.00075029
17230.0 0.00074662
17250.0 0.00074288
17270.0 0.00073907
17290.0 0.00073537
17310.0 0.00073173
17330.0 0.00072799
17350.0 0.00072426
17370.0 0.00072069
17390.0 0.00071705
17410.0 0.00071336
17430.0 0.00070977
17450.0 0.00070624
17470.0 0.00070254
17490.0 0.00069892
17510.0 0.00069541
17530.0 0.00069184
17550.0 0.00068823
17570.0 0.00068473
17590.0 0.00068126
17610.0 0.00067769
17630.0 0.00067417
17650.0 0.00067073
17670.0 0.00066725
17690.0 0.00066365
17710.0 0.00066025
17730.0 0.00065684
17750.0 0.00065335
17770.0 0.00064991
17790.0 0.00064658
17810.0 0.00064313
17830.0 0.00063967
17850.0 0.00063632
17870.0 0.00063297
17890.0 0.00062953
17910.0 0.00062614
17930.0 0.00062288
17950.0 0.00061952
17970.0 0.00061615
17990.0 0.00061288
18010.0 0.00060962
18030.0 0.00060621
18050.0 0.00060292
18070.0 0.00059969
18090.0 0.00059639
18110.0 0.00059307
18130.0 0.00058988
18150.0 0.00058667
18170.0 0.00058338
18190.0 0.00058016
18210.0 0.00057701
18230.0 0.00057375
18250.0 0.00057048
18270.0 0.00056735
18290.0 0.00056419
18310.0 0.00056097
18330.0 0.00055782
18350.0 0.00055475
18370.0 0.00055156
18390.0 0.00054839
18410.0 0.00054531
18430.0 0.00054221
18450.0 0.00053901
18470.0 0.00053593
18490.0 0.00053291
18510.0 0.0005298
18530.0 0.00052671
18550.0 0.00052372
18570.0 0.00052067
18590.0 0.00051755
18610.0 0.00051454
18630.0 0.00051156
18650.0 0.0005085
18670.0 0.00050544
18690.0 0.00050253
18710.0 0.00049955
18730.0 0.00049652
18750.0 0.00049359
18770.0 0.0004907
18790.0 0.00048765
18810.0 0.00048468
18830.0 0.00048181
18850.0 0.00047888
18870.0 0.00047591
18890.0 0.00047305
18910.0 0.00047021
18930.0 0.00046727
18950.0 0.00046438
18970.0 0.00046157
18990.0 0.0004587
19010.0 0.00045574
19030.0 0.00045296
19050.0 0.00045017
19070.0 0.0004473
19090.0 0.00044448
19110.0 0.00044177
19130.0 0.00043893
19150.0 0.00043609
19170.0 0.00043335
19190.0 0.00043061
19210.0 0.00042778
19230.0 0.00042501
19250.0 0.00042235
19270.0 0.0004196
19290.0 0.00041684
19310.0 0.00041418
19330.0 0.00041151
19350.0 0.00040871
19370.0 0.00040602
19390.0 0.0004034
19410.0 0.0004007
19430.0 0.00039798
19450.0 0.0003954
19470.0 0.00039278
19490.0 0.00039009
19510.0 0.00038747
19530.0 0.00038491
19550.0 0.00038224
19570.0 0.00037958
19590.0 0.00037705
19610.0 0.00037447
19630.0 0.00037185
19650.0 0.0003693
19670.0 0.00036681
19690.0 0.0003642
19710.0 0.00036163
19730.0 0.00035914
19750.0 0.00035662
19770.0 0.00035401
19790.0 0.00035152
19810.0 0.00034907
19830.0 0.00034653
19850.0 0.00034398
19870.0 0.0003415
19890.0 0.00033885
19910.0 0.00033597
19930.0 0.00033293
19950.0 0.00032952
19970.0 0.00032543
19990.0 0.00032066
20010.0 0.00031541
20030.0 0.00030928
20050.0 0.00030239
20070.0 0.00029527
20090.0 0.00028799
20110.0 0.00028021
20130.0 0.00027282
20150.0 0.00026596
20170.0 0.00025929
20190.0 0.00025299
20210.0 0.00024743
20230.0 0.00024237
20250.0 0.00023764
20270.0 0.00023357
20290.0 0.00023013
20310.0 0.00022713
20330.0 0.00022462
20350.0 0.00022281
20370.0 0.0002215
20390.0 0.0002207
20410.0 0.00022048
20430.0 0.00022077
20450.0 0.00022163
20470.0 0.00022307
20490.0 0.000225
20510.0 0.00022744
20530.0 0.00023051
20550.0 0.000234
20570.0 0.00023777
20590.0 0.00024206
20610.0 0.00024669
20630.0 0.00025139
20650.0 0.00025628
20670.0 0.00026149
20690.0 0.00026644
20710.0 0.00027119
20730.0 0.00027591
20750.0 0.00028039
20770.0 0.00028438
20790.0 0.00028813
20810.0 0.00029165
20830.0 0.00029474
20850.0 0.0002975
20870.0 0.00030012
20890.0 0.00030252
20910.0 0.00030464
20930.0 0.00030669
20950.0 0.0003087
20970.0 0.00031058
20990.0 0.00031236
21010.0 0.00031415
21030.0 0.0003158
21050.0 0.00031726
21070.0 0.00031857
21090.0 0.00031968
21110.0 0.00032047
21130.0 0.00032097
21150.0 0.00032119
21170.0 0.00032107
21190.0 0.00032066
21210.0 0.00031994
21230.0 0.0003189
21250.0 0.00031766
21270.0 0.00031622
21290.0 0.00031454
21310.0 0.00031274
21330.0 0.00031092
21350.0 0.00030899
21370.0 0.000307
21390.0 0.00030508
21410.0 0.00030321
21430.0 0.00030131
21450.0 0.00029956
21470.0 0.00029798
21490.0 0.00029648
21510.0 0.00029513
21530.0 0.00029399
21550.0 0.00029301
21570.0 0.0002922
21590.0 0.00029161
21610.0 0.00029125
21630.0 0.0002911
21650.0 0.00029121
21670.0 0.00029156
21690.0 0.00029216
21710.0 0.00029305
21730.0 0.00029421
21750.0 0.00029559
21770.0 0.00029734
21790.0 0.00029938
21810.0 0.00030163
21830.0 0.00030417
21850.0 0.00030708
21870.0 0.00031017
21890.0 0.00031338
21910.0 0.00031694
21930.0 0.0003207
21950.0 0.00032448
21970.0 0.00032844
21990.0 0.00033269
22010.0 0.0003368
22030.0 0.00034085
22050.0 0.000345
22070.0 0.00034906
22090.0 0.00035281
22110.0 0.00035647
22130.0 0.00035997
22150.0 0.00036308
22170.0 0.00036581
22190.0 0.00036827
22210.0 0.00037026
22230.0 0.00037167
22250.0 0.00037262
22270.0 0.00037302
22290.0 0.00037283
22310.0 0.00037208
22330.0 0.00037066
22350.0 0.00036863
22370.0 0.00036607
22390.0 0.00036287
22410.0 0.00035896
22430.0 0.0003547
22450.0 0.00034999
22470.0 0.00034465
22490.0 0.00033895
22510.0 0.00033312
22530.0 0.00032675
22550.0 0.00032001
22570.0 0.0003134
22590.0 0.00030667
22610.0 0.00029965
22630.0 0.00029273
22650.0 0.00028614
22670.0 0.0002794
22690.0 0.00027272
22710.0 0.00026645
22730.0 0.0002604
22750.0 0.00025425
22770.0 0.00024862
22790.0 0.00024343
22810.0 0.00023839
22830.0 0.00023365
22850.0 0.00022945
22870.0 0.00022556
22890.0 0.00022192
22910.0 0.00021879
22930.0 0.00021613
22950.0 0.00021382
22970.0 0.00021193
22990.0 0.00021061
23010.0 0.00020971
23030.0 0.00020926
23050.0 0.00020929
23070.0 0.00020974
23090.0 0.00021067
23110.0 0.00021203
23130.0 0.00021372
23150.0 0.00021577
23170.0 0.00021821
23190.0 0.00022082
23210.0 0.00022356
23230.0 0.00022655
23250.0 0.00022961
23270.0 0.00023258
