#lamb flux
1010.0 1.5959e-06
1030.0 1.7361e-06
1050.0 1.9016e-06
1070.0 2.0879e-06
1090.0 2.2983e-06
1110.0 2.5143e-06
1130.0 2.732e-06
1150.0 2.96e-06
1170.0 3.1952e-06
1190.0 3.418e-06
1210.0 3.6434e-06
1230.0 3.8757e-06
1250.0 4.1027e-06
1270.0 4.3223e-06
1290.0 4.5534e-06
1310.0 4.7832e-06
1330.0 5.0023e-06
1350.0 5.223e-06
1370.0 5.4502e-06
1390.0 5.6709e-06
1410.0 5.8844e-06
1430.0 6.1077e-06
1450.0 6.331e-06
1470.0 6.547e-06
1490.0 6.7658e-06
1510.0 6.998e-06
1530.0 7.2187e-06
1550.0 7.4374e-06
1570.0 7.6649e-06
1590.0 7.8939e-06
1610.0 8.1142e-06
1630.0 8.3431e-06
1650.0 8.5793e-06
1670.0 8.8093e-06
1690.0 9.0376e-06
1710.0 9.2756e-06
1730.0 9.5158e-06
1750.0 9.7427e-06
1770.0 9.9763e-06
1790.0 1.0214e-05
1810.0 1.0444e-05
1830.0 1.0669e-05
1850.0 1.0906e-05
1870.0 1.1135e-05
1890.0 1.1353e-05
1910.0 1.1572e-05
1930.0 1.1792e-05
1950.0 1.1997e-05
1970.0 1.2195e-05
1990.0 1.2396e-05
2010.0 1.2588e-05
2030.0 1.2766e-05
2050.0 1.2944e-05
2070.0 1.3123e-05
2090.0 1.3283e-05
2110.0 1.3437e-05
2130.0 1.3593e-05
2150.0 1.3739e-05
2170.0 1.3873e-05
2190.0 1.4011e-05
2210.0 1.4147e-05
2230.0 1.4271e-05
2250.0 1.4393e-05
2270.0 1.4522e-05
2290.0 1.4643e-05
2310.0 1.4755e-05
2330.0 1.4873e-05
2350.0 1.4992e-05
2370.0 1.5103e-05
2390.0 1.5218e-05
2410.0 1.5345e-05
2430.0 1.5469e-05
2450.0 1.5595e-05
2470.0 1.5734e-05
2490.0 1.589e-05
2510.0 1.6056e-05
2530.0 1.6274e-05
2550.0 1.661e-05
2570.0 1.713e-05
2590.0 1.7922e-05
2610.0 1.9214e-05
2630.0 2.108e-05
2650.0 2.3443e-05
2670.0 2.6347e-05
2690.0 2.9695e-05
2710.0 3.3013e-05
2730.0 3.6019e-05
2750.0 3.8646e-05
2770.0 4.0508e-05
2790.0 4.1502e-05
2810.0 4.1717e-05
2830.0 4.1171e-05
2850.0 4.0081e-05
2870.0 3.8629e-05
2890.0 3.6872e-05
2910.0 3.4972e-05
2930.0 3.3093e-05
2950.0 3.1118e-05
2970.0 2.9094e-05
2990.0 2.7151e-05
3010.0 3.6725e-05
3030.0 3.3856e-05
3050.0 3.102e-05
3070.0 2.8414e-05
3090.0 2.5806e-05
3110.0 2.3316e-05
3130.0 2.1169e-05
3150.0 1.9721e-05
3170.0 1.8565e-05
3190.0 3.0644e-05
3210.0 8.6247e-05
3230.0 0.00017632
3250.0 0.00022373
3270.0 0.00019756
3290.0 0.00015164
3310.0 0.00012549
3330.0 0.00011758
3350.0 0.00012074
3370.0 0.00012714
3390.0 0.00013396
3410.0 0.00014084
3430.0 0.00014728
3450.0 0.00015426
3470.0 0.00016185
3490.0 0.00016703
3510.0 0.00016171
3530.0 0.00016517
3550.0 0.00020715
3570.0 0.00026014
3590.0 0.00028727
3610.0 0.00029626
3630.0 0.00030359
3650.0 0.00030318
3670.0 0.00032138
3690.0 0.00038458
3710.0 0.00045571
3730.0 0.00050224
3750.0 0.00053528
3770.0 0.00054183
3790.0 0.00052086
3810.0 0.00048148
3830.0 0.00042095
3850.0 0.00035685
3870.0 0.00032378
3890.0 0.00036219
3910.0 0.00045814
3930.0 0.0005541
3950.0 0.00061113
3970.0 0.00063526
3990.0 0.00066176
4010.0 0.00067707
4030.0 0.00061087
4050.0 0.00048208
4070.0 0.00041602
4090.0 0.00043851
4110.0 0.00048276
4130.0 0.0005076
4150.0 0.00051033
4170.0 0.00049869
4190.0 0.00049021
4210.0 0.00050264
4230.0 0.00053194
4250.0 0.00055579
4270.0 0.00056464
4290.0 0.00055686
4310.0 0.00056045
4330.0 0.00059448
4350.0 0.00063471
4370.0 0.00063177
4390.0 0.00058595
4410.0 0.00051718
4430.0 0.00043296
4450.0 0.00037352
4470.0 0.00037158
4490.0 0.00040588
4510.0 0.00044974
4530.0 0.00049718
4550.0 0.00057144
4570.0 0.00071411
4590.0 0.00091751
4610.0 0.0010838
4630.0 0.0011676
4650.0 0.0012365
4670.0 0.0013035
4690.0 0.0012749
4710.0 0.0011118
4730.0 0.00089615
4750.0 0.00072236
4770.0 0.00061752
4790.0 0.00057888
4810.0 0.00057875
4830.0 0.00061923
4850.0 0.00070014
4870.0 0.00077258
4890.0 0.00079621
4910.0 0.00081492
4930.0 0.00089142
4950.0 0.0009946
4970.0 0.0010478
4990.0 0.0010189
5010.0 0.00091257
5030.0 0.00076427
5050.0 0.00063878
5070.0 0.00056202
5090.0 0.00053053
5110.0 0.00053054
5130.0 0.00053565
5150.0 0.00053089
5170.0 0.00051918
5190.0 0.00052491
5210.0 0.00056619
5230.0 0.00064255
5250.0 0.0007564
5270.0 0.00087702
5290.0 0.00096311
5310.0 0.001035
5330.0 0.0011251
5350.0 0.001196
5370.0 0.0011934
5390.0 0.0011399
5410.0 0.0011028
5430.0 0.0011489
5450.0 0.0012977
5470.0 0.001482
5490.0 0.0016168
5510.0 0.0016704
5530.0 0.0016653
5550.0 0.0016273
5570.0 0.0015766
5590.0 0.0015291
5610.0 0.0014981
5630.0 0.0014929
5650.0 0.0014773
5670.0 0.0014
5690.0 0.0012804
5710.0 0.0011723
5730.0 0.0010969
5750.0 0.0010775
5770.0 0.0011126
5790.0 0.0011531
5810.0 0.0011748
5830.0 0.0011866
5850.0 0.001176
5870.0 0.0011511
5890.0 0.0011541
5910.0 0.0011824
5930.0 0.0011776
5950.0 0.0011107
5970.0 0.00099347
5990.0 0.00085586
6010.0 0.00075057
6030.0 0.00071888
6050.0 0.00075801
6070.0 0.00079449
6090.0 0.00076783
6110.0 0.00072441
6130.0 0.00073914
6150.0 0.00080153
6170.0 0.00085882
6190.0 0.0008916
6210.0 0.00090176
6230.0 0.00087717
6250.0 0.00079924
6270.0 0.00068789
6290.0 0.00059632
6310.0 0.00056387
6330.0 0.00058101
6350.0 0.00061083
6370.0 0.00064919
6390.0 0.00073126
6410.0 0.00085462
6430.0 0.00095724
6450.0 0.0010084
6470.0 0.0010367
6490.0 0.0010575
6510.0 0.001066
6530.0 0.0010717
6550.0 0.0010862
6570.0 0.0011042
6590.0 0.0011165
6610.0 0.0011032
6630.0 0.0010537
6650.0 0.00097884
6670.0 0.00090749
6690.0 0.00086151
6710.0 0.00082671
6730.0 0.00078988
6750.0 0.00077223
6770.0 0.00078994
6790.0 0.00081532
6810.0 0.00082316
6830.0 0.0008101
6850.0 0.0007784
6870.0 0.0007461
6890.0 0.00072797
6910.0 0.00072997
6930.0 0.00074234
6950.0 0.00075215
6970.0 0.00076072
6990.0 0.00075833
7010.0 0.0007343
7030.0 0.00068444
7050.0 0.00061952
7070.0 0.00057406
7090.0 0.00056805
7110.0 0.00057734
7130.0 0.00055754
7150.0 0.00051778
7170.0 0.00051271
7190.0 0.0005585
7210.0 0.00062267
7230.0 0.00067471
7250.0 0.00069597
7270.0 0.00068087
7290.0 0.00064582
7310.0 0.00061903
7330.0 0.00062001
7350.0 0.00063496
7370.0 0.00064707
7390.0 0.00067491
7410.0 0.00073067
7430.0 0.00079451
7450.0 0.00084408
7470.0 0.00085847
7490.0 0.00081735
7510.0 0.00075656
7530.0 0.00071976
7550.0 0.00067856
7570.0 0.00063586
7590.0 0.00061299
7610.0 0.0006098
7630.0 0.00062714
7650.0 0.0006666
7670.0 0.00071752
7690.0 0.00076289
7710.0 0.00079392
7730.0 0.00081895
7750.0 0.00083848
7770.0 0.00084456
7790.0 0.00085206
7810.0 0.00084811
7830.0 0.00081704
7850.0 0.0007835
7870.0 0.00076283
7890.0 0.00075841
7910.0 0.00075525
7930.0 0.00073396
7950.0 0.00070583
7970.0 0.00067692
7990.0 0.00065177
8010.0 0.00061793
8030.0 0.00061582
8050.0 0.00061169
8070.0 0.00060052
8090.0 0.0005917
8110.0 0.00057968
8130.0 0.00057726
8150.0 0.00057016
8170.0 0.00055741
8190.0 0.00053918
8210.0 0.00051898
8230.0 0.00049997
8250.0 0.00049179
8270.0 0.00046125
8290.0 0.00039865
8310.0 0.00032966
8330.0 0.00028263
8350.0 0.00026995
8370.0 0.00029775
8390.0 0.00033853
8410.0 0.0003597
8430.0 0.00037166
8450.0 0.00039541
8470.0 0.00042495
8490.0 0.00046545
8510.0 0.00051238
8530.0 0.00056101
8550.0 0.00059885
8570.0 0.00062598
8590.0 0.00064548
8610.0 0.00065538
8630.0 0.00065068
8650.0 0.00063707
8670.0 0.00063547
8690.0 0.00066537
8710.0 0.00070658
8730.0 0.00072474
8750.0 0.0007168
8770.0 0.00072138
8790.0 0.00071889
8810.0 0.00068483
8830.0 0.00063317
8850.0 0.00056945
8870.0 0.00052083
8890.0 0.00050472
8910.0 0.00049425
8930.0 0.00046114
8950.0 0.00042537
8970.0 0.00040997
8990.0 0.00040978
9010.0 0.0004019
9030.0 0.00039476
9050.0 0.0003911
9070.0 0.00038916
9090.0 0.00038745
9110.0 0.0003858
9130.0 0.00038415
9150.0 0.00038254
9170.0 0.00038087
9190.0 0.0003795
9210.0 0.00037867
9230.0 0.00037678
9250.0 0.00037506
9270.0 0.00037345
9290.0 0.00037192
9310.0 0.00037042
9330.0 0.00036897
9350.0 0.00036757
9370.0 0.00036619
9390.0 0.00036481
9410.0 0.00036346
9430.0 0.00036206
9450.0 0.00036017
9470.0 0.00035847
9490.0 0.0003577
9510.0 0.00035668
9530.0 0.00035561
9550.0 0.00035447
9570.0 0.0003533
9590.0 0.00035214
9610.0 0.00035098
9630.0 0.0003498
9650.0 0.00034864
9670.0 0.00034751
9690.0 0.00034637
9710.0 0.00034523
9730.0 0.00034413
9750.0 0.00034302
9770.0 0.00034189
9790.0 0.00034079
9810.0 0.00033971
9830.0 0.00033862
9850.0 0.00033751
9870.0 0.00033644
9890.0 0.00033537
9910.0 0.00033427
9930.0 0.00033317
9950.0 0.00033088
9970.0 0.00033013
9990.0 0.00032931
10010.0 0.00032849
10030.0 0.00032754
10050.0 0.00032649
10070.0 0.00032544
10090.0 0.0003244
10110.0 0.00032317
10130.0 0.00032165
10150.0 0.00032059
10170.0 0.00031955
10190.0 0.00031836
10210.0 0.00031724
10230.0 0.00031611
10250.0 0.00031485
10270.0 0.00031358
10290.0 0.00031238
10310.0 0.00031107
10330.0 0.00030965
10350.0 0.00030834
10370.0 0.00030701
10390.0 0.00030556
10410.0 0.0003041
10430.0 0.00030275
10450.0 0.00030126
10470.0 0.0002997
10490.0 0.0002982
10510.0 0.00029669
10530.0 0.00029499
10550.0 0.00029333
10570.0 0.00029174
10590.0 0.00029003
10610.0 0.00028824
10630.0 0.00028654
10650.0 0.00028478
10670.0 0.00028286
10690.0 0.00028097
10710.0 0.00027912
10730.0 0.00027714
10750.0 0.00027503
10770.0 0.00027308
10790.0 0.00027105
10810.0 0.00026888
10830.0 0.00026673
10850.0 0.00026464
10870.0 0.00026233
10890.0 0.00025998
10910.0 0.00025771
10930.0 0.00025535
10950.0 0.00025284
10970.0 0.00025035
10990.0 0.00024793
11010.0 0.00026555
11030.0 0.00026286
11050.0 0.00026027
11070.0 0.00025763
11090.0 0.00025481
11110.0 0.00025218
11130.0 0.00024961
11150.0 0.00024695
11170.0 0.00024429
11190.0 0.0002418
11210.0 0.00023925
11230.0 0.00023664
11250.0 0.00023417
11270.0 0.00023178
11290.0 0.00022932
11310.0 0.0002269
11330.0 0.00022468
11350.0 0.00022242
11370.0 0.00022013
11390.0 0.00021792
11410.0 0.00021572
11430.0 0.00021333
11450.0 0.00021092
11470.0 0.00020847
11490.0 0.00020585
11510.0 0.00020299
11530.0 0.00020009
11550.0 0.00019707
11570.0 0.00019377
11590.0 0.00019036
11610.0 0.00018693
11630.0 0.00018327
11650.0 0.00017945
11670.0 0.00017573
11690.0 0.00017198
11710.0 0.0001681
11730.0 0.00016426
11750.0 0.00016059
11770.0 0.00015681
11790.0 0.00015302
11810.0 0.00014938
11830.0 0.00014579
11850.0 0.00014207
11870.0 0.0001385
11890.0 0.00013509
11910.0 0.00013163
11930.0 0.00012822
11950.0 0.000125
11970.0 0.00012184
11990.0 0.00011867
12010.0 0.00011569
12030.0 0.0001129
12050.0 0.00011017
12070.0 0.00010755
12090.0 0.00010524
12110.0 0.00010306
12130.0 0.00010102
12150.0 9.9223e-05
12170.0 9.766e-05
12190.0 9.625e-05
12210.0 9.5086e-05
12230.0 9.4174e-05
12250.0 9.348e-05
12270.0 9.3017e-05
12290.0 9.2779e-05
12310.0 9.2734e-05
12330.0 9.2901e-05
12350.0 9.325e-05
12370.0 9.3719e-05
12390.0 9.4326e-05
12410.0 9.5103e-05
12430.0 9.5891e-05
12450.0 9.671e-05
12470.0 9.7602e-05
12490.0 9.8496e-05
12510.0 9.9308e-05
12530.0 0.00010012
12550.0 0.00010091
12570.0 0.00010157
12590.0 0.00010212
12610.0 0.00010259
12630.0 0.00010292
12650.0 0.00010304
12670.0 0.00010303
12690.0 0.00010284
12710.0 0.00010245
12730.0 0.00010187
12750.0 0.0001011
12770.0 0.00010015
12790.0 9.9035e-05
12810.0 9.776e-05
12830.0 9.6326e-05
12850.0 9.4821e-05
12870.0 9.3241e-05
12890.0 9.1563e-05
12910.0 8.9865e-05
12930.0 8.8191e-05
12950.0 8.648e-05
12970.0 8.4768e-05
12990.0 8.3148e-05
13010.0 8.1569e-05
13030.0 8.0002e-05
13050.0 7.8504e-05
13070.0 7.7094e-05
13090.0 7.5695e-05
13110.0 7.4338e-05
13130.0 7.3059e-05
13150.0 7.1823e-05
13170.0 7.0592e-05
13190.0 6.9433e-05
13210.0 6.834e-05
13230.0 6.7264e-05
13250.0 6.6226e-05
13270.0 6.5256e-05
13290.0 6.4316e-05
13310.0 6.3394e-05
13330.0 6.253e-05
13350.0 6.1713e-05
13370.0 6.0919e-05
13390.0 6.0155e-05
13410.0 5.9454e-05
13430.0 5.8778e-05
13450.0 5.8124e-05
13470.0 5.7508e-05
13490.0 5.6927e-05
13510.0 5.6349e-05
13530.0 5.5793e-05
13550.0 5.5263e-05
13570.0 5.4739e-05
13590.0 5.4212e-05
13610.0 5.3697e-05
13630.0 5.3192e-05
13650.0 5.2673e-05
13670.0 5.2155e-05
13690.0 5.1648e-05
13710.0 5.1137e-05
13730.0 5.0612e-05
13750.0 5.0111e-05
13770.0 4.962e-05
13790.0 4.9126e-05
13810.0 4.8646e-05
13830.0 4.8192e-05
13850.0 4.7742e-05
13870.0 4.7302e-05
13890.0 4.6887e-05
13910.0 4.6489e-05
13930.0 4.6094e-05
13950.0 4.5714e-05
13970.0 4.5357e-05
13990.0 4.5e-05
14010.0 4.4642e-05
14030.0 4.4294e-05
14050.0 4.3947e-05
14070.0 4.358e-05
14090.0 4.3215e-05
14110.0 4.2851e-05
14130.0 4.2473e-05
14150.0 4.2081e-05
14170.0 4.1703e-05
14190.0 4.1326e-05
14210.0 4.0941e-05
14230.0 4.0573e-05
14250.0 4.0229e-05
14270.0 3.9891e-05
14290.0 3.9574e-05
14310.0 3.9299e-05
14330.0 3.9052e-05
14350.0 3.883e-05
14370.0 3.8644e-05
14390.0 3.8493e-05
14410.0 3.8363e-05
14430.0 3.8258e-05
14450.0 3.8178e-05
14470.0 3.8114e-05
14490.0 3.8058e-05
14510.0 3.8015e-05
14530.0 3.7981e-05
14550.0 3.795e-05
14570.0 3.7926e-05
14590.0 3.7913e-05
14610.0 3.791e-05
14630.0 3.7924e-05
14650.0 3.7963e-05
14670.0 3.8034e-05
14690.0 3.8147e-05
14710.0 3.8313e-05
14730.0 3.8532e-05
14750.0 3.882e-05
14770.0 3.9194e-05
14790.0 3.9647e-05
14810.0 4.0178e-05
14830.0 4.0842e-05
14850.0 4.1604e-05
14870.0 4.244e-05
14890.0 4.3376e-05
14910.0 4.4409e-05
14930.0 4.5449e-05
14950.0 4.6468e-05
14970.0 4.7479e-05
14990.0 4.8388e-05
15010.0 4.9154e-05
15030.0 4.9798e-05
15050.0 5.0321e-05
15070.0 5.0709e-05
15090.0 5.1016e-05
15110.0 5.127e-05
15130.0 5.1487e-05
15150.0 5.1687e-05
15170.0 5.188e-05
15190.0 5.2072e-05
15210.0 5.2265e-05
15230.0 5.2462e-05
15250.0 5.2663e-05
15270.0 5.2868e-05
15290.0 5.3077e-05
15310.0 5.3289e-05
15330.0 5.3506e-05
15350.0 5.3726e-05
15370.0 5.3951e-05
15390.0 5.4178e-05
15410.0 5.441e-05
15430.0 5.4645e-05
15450.0 5.4884e-05
15470.0 5.5126e-05
15490.0 5.5372e-05
15510.0 5.5622e-05
15530.0 5.5874e-05
15550.0 5.613e-05
15570.0 5.6389e-05
15590.0 5.6651e-05
15610.0 5.6916e-05
15630.0 5.7184e-05
15650.0 5.7455e-05
15670.0 5.7729e-05
15690.0 5.8005e-05
15710.0 5.8285e-05
15730.0 5.8567e-05
15750.0 5.8851e-05
15770.0 5.9138e-05
15790.0 5.9428e-05
15810.0 5.9719e-05
15830.0 6.0013e-05
15850.0 6.0309e-05
15870.0 6.0607e-05
15890.0 6.0907e-05
15910.0 6.1209e-05
15930.0 6.1513e-05
15950.0 6.1818e-05
15970.0 6.2125e-05
15990.0 6.2433e-05
16010.0 6.2743e-05
16030.0 6.3054e-05
16050.0 6.3366e-05
16070.0 6.3679e-05
16090.0 6.3993e-05
16110.0 6.4308e-05
16130.0 6.4625e-05
16150.0 6.4941e-05
16170.0 6.5258e-05
16190.0 6.5575e-05
16210.0 6.5893e-05
16230.0 6.6211e-05
16250.0 6.6529e-05
16270.0 6.6847e-05
16290.0 6.7165e-05
16310.0 6.7482e-05
16330.0 6.78e-05
16350.0 6.8116e-05
16370.0 6.8432e-05
16390.0 6.8748e-05
16410.0 6.9062e-05
16430.0 6.9376e-05
16450.0 6.9688e-05
16470.0 6.9999e-05
16490.0 7.0309e-05
16510.0 7.0617e-05
16530.0 7.0924e-05
16550.0 7.1229e-05
16570.0 7.1532e-05
16590.0 7.1833e-05
16610.0 7.2133e-05
16630.0 7.243e-05
16650.0 7.2724e-05
16670.0 7.3016e-05
16690.0 7.3306e-05
16710.0 7.3592e-05
16730.0 7.3876e-05
16750.0 7.4157e-05
16770.0 7.4435e-05
16790.0 7.4709e-05
16810.0 7.4981e-05
16830.0 7.5249e-05
16850.0 7.5513e-05
16870.0 7.5773e-05
16890.0 7.603e-05
16910.0 7.6283e-05
16930.0 7.6531e-05
16950.0 7.6776e-05
16970.0 7.7017e-05
16990.0 7.7252e-05
17010.0 7.7484e-05
17030.0 7.7711e-05
17050.0 7.7933e-05
17070.0 7.8151e-05
17090.0 7.8363e-05
17110.0 7.8571e-05
17130.0 7.8773e-05
17150.0 7.897e-05
17170.0 7.9162e-05
17190.0 7.9349e-05
17210.0 7.953e-05
17230.0 7.9705e-05
17250.0 7.9875e-05
17270.0 8.0039e-05
17290.0 8.0198e-05
17310.0 8.035e-05
17330.0 8.0496e-05
17350.0 8.0637e-05
17370.0 8.0771e-05
17390.0 8.09e-05
17410.0 8.1021e-05
17430.0 8.1137e-05
17450.0 8.1247e-05
17470.0 8.1349e-05
17490.0 8.1446e-05
17510.0 8.1536e-05
17530.0 8.1619e-05
17550.0 8.1696e-05
17570.0 8.1766e-05
17590.0 8.183e-05
17610.0 8.1886e-05
17630.0 8.1937e-05
17650.0 8.198e-05
17670.0 8.2017e-05
17690.0 8.2046e-05
17710.0 8.2069e-05
17730.0 8.2085e-05
17750.0 8.2094e-05
17770.0 8.2097e-05
17790.0 8.2093e-05
17810.0 8.2081e-05
17830.0 8.2063e-05
17850.0 8.2038e-05
17870.0 8.2006e-05
17890.0 8.1967e-05
17910.0 8.1921e-05
17930.0 8.187e-05
17950.0 8.181e-05
17970.0 8.1744e-05
17990.0 8.1672e-05
18010.0 8.1593e-05
18030.0 8.1506e-05
18050.0 8.1414e-05
18070.0 8.1315e-05
18090.0 8.1209e-05
18110.0 8.1096e-05
18130.0 8.0978e-05
18150.0 8.0853e-05
18170.0 8.0721e-05
18190.0 8.0583e-05
18210.0 8.044e-05
18230.0 8.0289e-05
18250.0 8.0132e-05
18270.0 7.997e-05
18290.0 7.9802e-05
18310.0 7.9627e-05
18330.0 7.9446e-05
18350.0 7.9261e-05
18370.0 7.9069e-05
18390.0 7.8871e-05
18410.0 7.8668e-05
18430.0 7.8459e-05
18450.0 7.8245e-05
18470.0 7.8026e-05
18490.0 7.7801e-05
18510.0 7.7571e-05
18530.0 7.7336e-05
18550.0 7.7097e-05
18570.0 7.6852e-05
18590.0 7.6602e-05
18610.0 7.6348e-05
18630.0 7.6089e-05
18650.0 7.5825e-05
18670.0 7.5557e-05
18690.0 7.5285e-05
18710.0 7.5009e-05
18730.0 7.4728e-05
18750.0 7.4444e-05
18770.0 7.4155e-05
18790.0 7.3862e-05
18810.0 7.3566e-05
18830.0 7.3266e-05
18850.0 7.2963e-05
18870.0 7.2656e-05
18890.0 7.2346e-05
18910.0 7.2032e-05
18930.0 7.1715e-05
18950.0 7.1396e-05
18970.0 7.1073e-05
18990.0 7.0748e-05
19010.0 7.0419e-05
19030.0 7.0088e-05
19050.0 6.9755e-05
19070.0 6.9419e-05
19090.0 6.908e-05
19110.0 6.874e-05
19130.0 6.8397e-05
19150.0 6.8052e-05
19170.0 6.7706e-05
19190.0 6.7357e-05
19210.0 6.7007e-05
19230.0 6.6655e-05
19250.0 6.6301e-05
19270.0 6.5946e-05
19290.0 6.559e-05
19310.0 6.5232e-05
19330.0 6.4873e-05
19350.0 6.4512e-05
19370.0 6.4151e-05
19390.0 6.3789e-05
19410.0 6.3426e-05
19430.0 6.3062e-05
19450.0 6.2698e-05
19470.0 6.2333e-05
19490.0 6.1967e-05
19510.0 6.1601e-05
19530.0 6.1235e-05
19550.0 6.0868e-05
19570.0 6.0501e-05
19590.0 6.0135e-05
19610.0 5.9767e-05
19630.0 5.94e-05
19650.0 5.9033e-05
19670.0 5.8667e-05
19690.0 5.83e-05
19710.0 5.7934e-05
19730.0 5.7568e-05
19750.0 5.7203e-05
19770.0 5.6837e-05
19790.0 5.6473e-05
19810.0 5.6109e-05
19830.0 5.5744e-05
19850.0 5.5378e-05
19870.0 5.5007e-05
19890.0 5.4627e-05
19910.0 5.4226e-05
19930.0 5.3796e-05
19950.0 5.332e-05
19970.0 5.2772e-05
19990.0 5.214e-05
20010.0 5.1435e-05
20030.0 5.0627e-05
20050.0 4.9722e-05
20070.0 4.8768e-05
20090.0 4.7771e-05
20110.0 4.6701e-05
20130.0 4.5642e-05
20150.0 4.4611e-05
20170.0 4.3575e-05
20190.0 4.2548e-05
20210.0 4.1579e-05
20230.0 4.064e-05
20250.0 3.971e-05
20270.0 3.8832e-05
20290.0 3.801e-05
20310.0 3.7213e-05
20330.0 3.6444e-05
20350.0 3.5754e-05
20370.0 3.51e-05
20390.0 3.4478e-05
20410.0 3.3908e-05
20430.0 3.3389e-05
20450.0 3.2895e-05
20470.0 3.2442e-05
20490.0 3.2033e-05
20510.0 3.1656e-05
20530.0 3.1306e-05
20550.0 3.0989e-05
20570.0 3.0699e-05
20590.0 3.0427e-05
20610.0 3.0176e-05
20630.0 2.9941e-05
20650.0 2.9718e-05
20670.0 2.9504e-05
20690.0 2.9297e-05
20710.0 2.9094e-05
20730.0 2.8892e-05
20750.0 2.8688e-05
20770.0 2.848e-05
20790.0 2.8266e-05
20810.0 2.8045e-05
20830.0 2.7815e-05
20850.0 2.7577e-05
20870.0 2.7326e-05
20890.0 2.7064e-05
20910.0 2.6797e-05
20930.0 2.6518e-05
20950.0 2.6227e-05
20970.0 2.5933e-05
20990.0 2.5634e-05
21010.0 2.5322e-05
21030.0 2.5009e-05
21050.0 2.4697e-05
21070.0 2.4382e-05
21090.0 2.4061e-05
21110.0 2.3748e-05
21130.0 2.3439e-05
21150.0 2.3129e-05
21170.0 2.2823e-05
21190.0 2.2528e-05
21210.0 2.2233e-05
21230.0 2.1942e-05
21250.0 2.1663e-05
21270.0 2.1392e-05
21290.0 2.1123e-05
21310.0 2.0864e-05
21330.0 2.0619e-05
21350.0 2.0377e-05
21370.0 2.0143e-05
21390.0 1.9922e-05
21410.0 1.971e-05
21430.0 1.9502e-05
21450.0 1.9307e-05
21470.0 1.9123e-05
21490.0 1.8947e-05
21510.0 1.8778e-05
21530.0 1.8621e-05
21550.0 1.847e-05
21570.0 1.8327e-05
21590.0 1.8191e-05
21610.0 1.8061e-05
21630.0 1.7937e-05
21650.0 1.7818e-05
21670.0 1.7704e-05
21690.0 1.7594e-05
21710.0 1.7487e-05
21730.0 1.7383e-05
21750.0 1.7281e-05
21770.0 1.7182e-05
21790.0 1.7084e-05
21810.0 1.6988e-05
21830.0 1.6893e-05
21850.0 1.68e-05
21870.0 1.6708e-05
21890.0 1.6617e-05
21910.0 1.6527e-05
21930.0 1.6438e-05
21950.0 1.6349e-05
21970.0 1.626e-05
21990.0 1.6172e-05
22010.0 1.6083e-05
22030.0 1.5993e-05
22050.0 1.5902e-05
22070.0 1.5809e-05
22090.0 1.5715e-05
22110.0 1.562e-05
22130.0 1.5521e-05
22150.0 1.5422e-05
22170.0 1.532e-05
22190.0 1.5215e-05
22210.0 1.5107e-05
22230.0 1.4999e-05
22250.0 1.4888e-05
22270.0 1.4773e-05
22290.0 1.4656e-05
22310.0 1.4538e-05
22330.0 1.4414e-05
22350.0 1.4287e-05
22370.0 1.4159e-05
22390.0 1.4025e-05
22410.0 1.3884e-05
22430.0 1.3741e-05
22450.0 1.3594e-05
22470.0 1.3439e-05
22490.0 1.3279e-05
22510.0 1.3117e-05
22530.0 1.2946e-05
22550.0 1.2767e-05
22570.0 1.2589e-05
22590.0 1.2407e-05
22610.0 1.2218e-05
22630.0 1.2028e-05
22650.0 1.1843e-05
22670.0 1.1653e-05
